Data from USB4F104151__184__14-32-52-058.txt Node

Date: Thu Mar 13 14:32:52 EDT 2025
User: louis
Spectrometer: USB4F10415
Trigger mode: 4
Integration Time (sec): 2.500000E-2
Scans to average: 1
Electric dark correction enabled: true
Nonlinearity correction enabled: false
Boxcar width: 0
XAxis mode: Wavelengths
Number of Pixels in Spectrum: 3648
>>>>>Begin Spectral Data<<<<<
178.204	-124.76
178.424	-124.76
178.644	-124.76
178.864	-165.71
179.084	-112.47
179.304	-30.55
179.524	30.89
179.744	0.17
179.964	-44.88
180.184	90.28
180.404	-18.26
180.624	-30.55
180.844	-5.97
181.064	-28.5
181.283	2.22
181.503	16.55
181.723	18.6
181.943	2.22
182.163	118.95
182.383	75.95
182.602	65.71
182.822	53.42
183.042	96.43
183.262	43.18
183.482	45.23
183.701	80.04
183.921	49.32
184.141	4.27
184.361	71.85
184.58	34.99
184.8	108.71
185.02	98.47
185.239	127.14
185.459	34.99
185.679	168.1
185.898	-53.08
186.118	149.67
186.338	39.08
186.557	59.56
186.777	-44.88
186.997	61.61
187.216	-30.55
187.436	55.47
187.655	61.61
187.875	65.71
188.095	-44.88
188.314	55.47
188.534	96.43
188.753	53.42
188.973	75.95
189.192	86.19
189.412	39.08
189.631	30.89
189.851	43.18
190.07	77.99
190.29	2.22
190.509	84.14
190.729	98.47
190.948	133.29
191.168	209.06
191.387	96.43
191.607	71.85
191.826	2.22
192.045	-22.36
192.265	41.13
192.484	37.03
192.704	-14.17
192.923	53.42
193.142	139.43
193.362	92.33
193.581	57.51
193.8	106.67
194.02	51.37
194.239	75.95
194.458	10.41
194.678	51.37
194.897	69.8
195.116	45.23
195.335	71.85
195.555	43.18
195.774	55.47
195.993	80.04
196.212	22.7
196.432	18.6
196.651	73.9
196.87	37.03
197.089	110.76
197.308	34.99
197.528	108.71
197.747	14.51
197.966	43.18
198.185	69.8
198.404	-18.26
198.623	121
198.842	71.85
199.062	55.47
199.281	110.76
199.5	100.52
199.719	-12.12
199.938	51.37
200.157	104.62
200.376	2.22
200.595	108.71
200.814	57.51
201.033	43.18
201.252	90.28
201.471	12.46
201.69	59.56
201.909	77.99
202.128	129.19
202.347	41.13
202.566	-1.88
202.785	10.41
203.004	-55.12
203.223	145.58
203.442	51.37
203.661	63.66
203.879	94.38
204.098	90.28
204.317	20.65
204.536	67.75
204.755	30.89
204.974	82.09
205.193	59.56
205.411	157.86
205.63	43.18
205.849	26.79
206.068	55.47
206.287	55.47
206.505	47.27
206.724	-14.17
206.943	28.84
207.162	22.7
207.381	133.29
207.599	4.27
207.818	39.08
208.037	75.95
208.255	-1.88
208.474	71.85
208.693	47.27
208.911	4.27
209.13	59.56
209.349	28.84
209.567	61.61
209.786	114.86
210.005	26.79
210.223	157.86
210.442	-44.88
210.661	86.19
210.879	102.57
211.098	8.36
211.316	-10.07
211.535	18.6
211.753	26.79
211.972	10.41
212.191	26.79
212.409	53.42
212.628	110.76
212.846	-12.12
213.065	59.56
213.283	157.86
213.502	104.62
213.72	53.42
213.938	84.14
214.157	20.65
214.375	18.6
214.594	2.22
214.812	59.56
215.031	47.27
215.249	57.51
215.467	14.51
215.686	39.08
215.904	100.52
216.122	6.31
216.341	22.7
216.559	26.79
216.778	77.99
216.996	129.19
217.214	108.71
217.432	30.89
217.651	-14.17
217.869	-53.08
218.087	77.99
218.306	34.99
218.524	28.84
218.742	43.18
218.96	12.46
219.179	30.89
219.397	75.95
219.615	100.52
219.833	84.14
220.051	-3.93
220.27	108.71
220.488	10.41
220.706	100.52
220.924	26.79
221.142	53.42
221.36	59.56
221.578	84.14
221.796	14.51
222.015	100.52
222.233	10.41
222.451	145.58
222.669	10.41
222.887	116.9
223.105	30.89
223.323	100.52
223.541	53.42
223.759	47.27
223.977	159.91
224.195	108.71
224.413	63.66
224.631	43.18
224.849	4.27
225.067	127.14
225.285	84.14
225.503	143.53
225.721	129.19
225.939	37.03
226.157	16.55
226.375	174.25
226.592	-18.26
226.81	41.13
227.028	51.37
227.246	141.48
227.464	135.34
227.682	100.52
227.9	51.37
228.117	4.27
228.335	51.37
228.553	71.85
228.771	108.71
228.989	73.9
229.206	92.33
229.424	45.23
229.642	-55.12
229.86	10.41
230.077	121
230.295	14.51
230.513	61.61
230.731	61.61
230.948	131.24
231.166	98.47
231.384	71.85
231.601	51.37
231.819	86.19
232.037	86.19
232.254	2.22
232.472	10.41
232.689	47.27
232.907	67.75
233.125	10.41
233.342	51.37
233.56	-20.31
233.777	82.09
233.995	18.6
234.213	53.42
234.43	84.14
234.648	127.14
234.865	22.7
235.083	116.9
235.3	37.03
235.518	49.32
235.735	26.79
235.953	84.14
236.17	37.03
236.388	18.6
236.605	47.27
236.822	43.18
237.04	71.85
237.257	92.33
237.475	18.6
237.692	47.27
237.909	39.08
238.127	92.33
238.344	2.22
238.562	104.62
238.779	2.22
238.996	-22.36
239.214	61.61
239.431	94.38
239.648	84.14
239.865	80.04
240.083	100.52
240.3	30.89
240.517	100.52
240.735	84.14
240.952	61.61
241.169	82.09
241.386	86.19
241.603	125.1
241.821	22.7
242.038	71.85
242.255	49.32
242.472	14.51
242.689	88.23
242.907	96.43
243.124	41.13
243.341	-77.65
243.558	34.99
243.775	47.27
243.992	-120.66
244.209	123.05
244.426	166.06
244.643	121
244.86	-14.17
245.078	102.57
245.295	61.61
245.512	59.56
245.729	47.27
245.946	45.23
246.163	30.89
246.38	90.28
246.597	69.8
246.814	43.18
247.031	18.6
247.248	34.99
247.464	86.19
247.681	14.51
247.898	67.75
248.115	98.47
248.332	0.17
248.549	141.48
248.766	118.95
248.983	18.6
249.2	20.65
249.417	18.6
249.633	39.08
249.85	102.57
250.067	26.79
250.284	84.14
250.501	88.23
250.717	34.99
250.934	8.36
251.151	51.37
251.368	20.65
251.585	10.41
251.801	22.7
252.018	4.27
252.235	43.18
252.451	30.89
252.668	-28.5
252.885	45.23
253.102	84.14
253.318	67.75
253.535	28.84
253.752	47.27
253.968	41.13
254.185	45.23
254.401	84.14
254.618	26.79
254.835	86.19
255.051	37.03
255.268	34.99
255.484	61.61
255.701	61.61
255.917	161.96
256.134	-14.17
256.351	2.22
256.567	59.56
256.784	12.46
257	-61.27
257.217	63.66
257.433	102.57
257.65	37.03
257.866	84.14
258.082	69.8
258.299	12.46
258.515	34.99
258.732	37.03
258.948	6.31
259.165	22.7
259.381	34.99
259.597	43.18
259.814	98.47
260.03	-1.88
260.246	43.18
260.463	-1.88
260.679	18.6
260.895	53.42
261.112	10.41
261.328	51.37
261.544	-46.93
261.761	145.58
261.977	80.04
262.193	-5.97
262.409	53.42
262.626	59.56
262.842	102.57
263.058	43.18
263.274	4.27
263.49	-14.17
263.707	73.9
263.923	47.27
264.139	-12.12
264.355	14.51
264.571	73.9
264.787	125.1
265.004	32.94
265.22	-55.12
265.436	112.81
265.652	96.43
265.868	92.33
266.084	53.42
266.3	22.7
266.516	24.75
266.732	67.75
266.948	30.89
267.164	75.95
267.38	53.42
267.596	30.89
267.812	104.62
268.028	94.38
268.244	-28.5
268.46	75.95
268.676	30.89
268.892	92.33
269.108	-38.74
269.324	8.36
269.54	20.65
269.756	110.76
269.972	63.66
270.188	26.79
270.403	51.37
270.619	92.33
270.835	51.37
271.051	28.84
271.267	121
271.483	92.33
271.698	-8.02
271.914	77.99
272.13	32.94
272.346	12.46
272.562	77.99
272.777	118.95
272.993	82.09
273.209	12.46
273.425	110.76
273.64	77.99
273.856	86.19
274.072	75.95
274.287	-61.27
274.503	12.46
274.719	53.42
274.934	20.65
275.15	-10.07
275.366	34.99
275.581	71.85
275.797	39.08
276.012	-14.17
276.228	51.37
276.444	55.47
276.659	67.75
276.875	-36.69
277.09	94.38
277.306	6.31
277.521	53.42
277.737	63.66
277.952	125.1
278.168	69.8
278.383	96.43
278.599	59.56
278.814	86.19
279.03	32.94
279.245	47.27
279.461	8.36
279.676	104.62
279.892	4.27
280.107	30.89
280.322	59.56
280.538	127.14
280.753	-14.17
280.969	92.33
281.184	84.14
281.399	71.85
281.615	63.66
281.83	71.85
282.045	-20.31
282.26	53.42
282.476	30.89
282.691	53.42
282.906	8.36
283.122	135.34
283.337	-10.07
283.552	108.71
283.767	-8.02
283.983	166.06
284.198	20.65
284.413	92.33
284.628	24.75
284.843	67.75
285.058	125.1
285.274	63.66
285.489	69.8
285.704	141.48
285.919	20.65
286.134	43.18
286.349	37.03
286.564	84.14
286.779	53.42
286.995	59.56
287.21	-26.45
287.425	10.41
287.64	-18.26
287.855	88.23
288.07	-67.41
288.285	14.51
288.5	47.27
288.715	86.19
288.93	47.27
289.145	30.89
289.36	22.7
289.575	28.84
289.79	32.94
290.004	69.8
290.219	98.47
290.434	37.03
290.649	37.03
290.864	2.22
291.079	-30.55
291.294	110.76
291.509	55.47
291.724	32.94
291.938	51.37
292.153	30.89
292.368	55.47
292.583	92.33
292.798	121
293.012	75.95
293.227	63.66
293.442	84.14
293.657	30.89
293.871	112.81
294.086	12.46
294.301	63.66
294.516	18.6
294.73	4.27
294.945	100.52
295.16	53.42
295.374	123.05
295.589	45.23
295.804	2.22
296.018	59.56
296.233	118.95
296.447	127.14
296.662	47.27
296.877	149.67
297.091	174.25
297.306	-3.93
297.52	129.19
297.735	63.66
297.949	63.66
298.164	88.23
298.378	69.8
298.593	67.75
298.807	45.23
299.022	-1.88
299.236	112.81
299.451	86.19
299.665	-30.55
299.88	53.42
300.094	39.08
300.309	77.99
300.523	10.41
300.737	4.27
300.952	75.95
301.166	94.38
301.381	8.36
301.595	6.31
301.809	102.57
302.024	71.85
302.238	-22.36
302.452	151.72
302.667	51.37
302.881	96.43
303.095	65.71
303.309	55.47
303.524	34.99
303.738	2.22
303.952	59.56
304.166	57.51
304.381	-12.12
304.595	116.9
304.809	34.99
305.023	51.37
305.237	-22.36
305.452	88.23
305.666	2.22
305.88	71.85
306.094	20.65
306.308	96.43
306.522	73.9
306.736	80.04
306.95	6.31
307.164	37.03
307.379	-46.93
307.593	59.56
307.807	141.48
308.021	84.14
308.235	34.99
308.449	-3.93
308.663	57.51
308.877	215.21
309.091	59.56
309.305	22.7
309.519	61.61
309.733	141.48
309.947	-5.97
310.161	26.79
310.374	12.46
310.588	94.38
310.802	-36.69
311.016	53.42
311.23	96.43
311.444	59.56
311.658	22.7
311.872	92.33
312.085	96.43
312.299	59.56
312.513	114.86
312.727	6.31
312.941	-30.55
313.154	55.47
313.368	18.6
313.582	-24.4
313.796	59.56
314.009	47.27
314.223	133.29
314.437	43.18
314.651	84.14
314.864	-14.17
315.078	43.18
315.292	67.75
315.505	-3.93
315.719	106.67
315.933	110.76
316.146	67.75
316.36	20.65
316.573	153.77
316.787	59.56
317.001	141.48
317.214	2.22
317.428	14.51
317.641	-3.93
317.855	37.03
318.068	145.58
318.282	59.56
318.495	133.29
318.709	14.51
318.922	-34.64
319.136	184.49
319.349	80.04
319.563	100.52
319.776	98.47
319.99	55.47
320.203	65.71
320.417	47.27
320.63	92.33
320.843	108.71
321.057	49.32
321.27	51.37
321.483	45.23
321.697	129.19
321.91	102.57
322.124	112.81
322.337	-5.97
322.55	43.18
322.763	51.37
322.977	106.67
323.19	37.03
323.403	141.48
323.617	67.75
323.83	37.03
324.043	53.42
324.256	112.81
324.469	2.22
324.683	92.33
324.896	20.65
325.109	100.52
325.322	39.08
325.535	73.9
325.748	47.27
325.962	47.27
326.175	22.7
326.388	114.86
326.601	43.18
326.814	84.14
327.027	-10.07
327.24	92.33
327.453	10.41
327.666	71.85
327.879	-1.88
328.092	71.85
328.305	67.75
328.518	80.04
328.731	55.47
328.944	20.65
329.157	34.99
329.37	34.99
329.583	104.62
329.796	133.29
330.009	63.66
330.222	59.56
330.435	55.47
330.648	100.52
330.861	-22.36
331.073	8.36
331.286	102.57
331.499	92.33
331.712	16.55
331.925	43.18
332.138	84.14
332.35	133.29
332.563	71.85
332.776	139.43
332.989	34.99
333.202	100.52
333.414	55.47
333.627	-10.07
333.84	116.9
334.053	94.38
334.265	57.51
334.478	59.56
334.691	59.56
334.903	45.23
335.116	53.42
335.329	34.99
335.541	61.61
335.754	61.61
335.966	84.14
336.179	69.8
336.392	112.81
336.604	100.52
336.817	102.57
337.029	43.18
337.242	61.61
337.454	84.14
337.667	43.18
337.88	157.86
338.092	77.99
338.305	104.62
338.517	0.17
338.729	84.14
338.942	75.95
339.154	47.27
339.367	45.23
339.579	53.42
339.792	59.56
340.004	88.23
340.217	26.79
340.429	67.75
340.641	59.56
340.854	59.56
341.066	47.27
341.278	53.42
341.491	141.48
341.703	102.57
341.915	98.47
342.128	61.61
342.34	141.48
342.552	94.38
342.764	26.79
342.977	-12.12
343.189	98.47
343.401	32.94
343.613	26.79
343.826	77.99
344.038	32.94
344.25	108.71
344.462	-22.36
344.674	73.9
344.886	24.75
345.099	88.23
345.311	59.56
345.523	51.37
345.735	53.42
345.947	69.8
346.159	39.08
346.371	10.41
346.583	75.95
346.795	108.71
347.007	28.84
347.219	129.19
347.431	59.56
347.643	96.43
347.855	-5.97
348.067	116.9
348.279	59.56
348.491	61.61
348.703	26.79
348.915	51.37
349.127	26.79
349.339	-5.97
349.551	4.27
349.763	63.66
349.975	67.75
350.187	59.56
350.399	57.51
350.61	96.43
350.822	63.66
351.034	61.61
351.246	51.37
351.458	69.8
351.669	100.52
351.881	86.19
352.093	71.85
352.305	84.14
352.517	37.03
352.728	110.76
352.94	55.47
353.152	125.1
353.363	20.65
353.575	86.19
353.787	141.48
353.999	18.6
354.21	112.81
354.422	63.66
354.633	34.99
354.845	43.18
355.057	49.32
355.268	84.14
355.48	67.75
355.692	34.99
355.903	47.27
356.115	43.18
356.326	4.27
356.538	112.81
356.749	121
356.961	84.14
357.172	67.75
357.384	24.75
357.595	96.43
357.807	34.99
358.018	28.84
358.23	104.62
358.441	166.06
358.653	59.56
358.864	86.19
359.075	45.23
359.287	71.85
359.498	149.67
359.709	18.6
359.921	18.6
360.132	75.95
360.344	67.75
360.555	116.9
360.766	43.18
360.977	47.27
361.189	125.1
361.4	73.9
361.611	61.61
361.823	104.62
362.034	71.85
362.245	92.33
362.456	43.18
362.667	143.53
362.879	-30.55
363.09	45.23
363.301	151.72
363.512	26.79
363.723	2.22
363.935	55.47
364.146	90.28
364.357	59.56
364.568	45.23
364.779	6.31
364.99	104.62
365.201	45.23
365.412	157.86
365.623	-5.97
365.834	75.95
366.045	63.66
366.256	75.95
366.467	67.75
366.678	125.1
366.889	-18.26
367.1	45.23
367.311	102.57
367.522	30.89
367.733	43.18
367.944	6.31
368.155	90.28
368.366	112.81
368.577	51.37
368.788	123.05
368.999	-30.55
369.209	77.99
369.42	112.81
369.631	127.14
369.842	96.43
370.053	-12.12
370.264	157.86
370.474	61.61
370.685	51.37
370.896	18.6
371.107	30.89
371.317	108.71
371.528	51.37
371.739	98.47
371.95	77.99
372.16	61.61
372.371	34.99
372.582	88.23
372.792	112.81
373.003	92.33
373.214	84.14
373.424	94.38
373.635	-3.93
373.846	135.34
374.056	75.95
374.267	51.37
374.477	96.43
374.688	43.18
374.898	123.05
375.109	67.75
375.319	82.09
375.53	61.61
375.74	96.43
375.951	20.65
376.161	18.6
376.372	151.72
376.582	108.71
376.793	55.47
377.003	67.75
377.214	118.95
377.424	71.85
377.635	114.86
377.845	18.6
378.055	96.43
378.266	69.8
378.476	24.75
378.686	43.18
378.897	125.1
379.107	86.19
379.317	118.95
379.528	77.99
379.738	112.81
379.948	26.79
380.158	34.99
380.369	88.23
380.579	86.19
380.789	145.58
380.999	51.37
381.21	121
381.42	151.72
381.63	30.89
381.84	61.61
382.05	96.43
382.261	43.18
382.471	100.52
382.681	0.17
382.891	63.66
383.101	125.1
383.311	59.56
383.521	16.55
383.731	141.48
383.941	127.14
384.151	106.67
384.361	26.79
384.571	133.29
384.781	32.94
384.991	141.48
385.201	106.67
385.411	98.47
385.621	67.75
385.831	100.52
386.041	84.14
386.251	100.52
386.461	98.47
386.671	39.08
386.881	157.86
387.091	133.29
387.301	45.23
387.511	4.27
387.72	77.99
387.93	88.23
388.14	37.03
388.35	121
388.56	127.14
388.769	104.62
388.979	30.89
389.189	157.86
389.399	34.99
389.609	88.23
389.818	77.99
390.028	116.9
390.238	106.67
390.447	65.71
390.657	53.42
390.867	71.85
391.076	75.95
391.286	133.29
391.496	108.71
391.705	69.8
391.915	125.1
392.125	37.03
392.334	45.23
392.544	84.14
392.753	77.99
392.963	116.9
393.172	96.43
393.382	37.03
393.591	192.68
393.801	116.9
394.01	141.48
394.22	131.24
394.429	100.52
394.639	22.7
394.848	112.81
395.058	59.56
395.267	92.33
395.477	92.33
395.686	53.42
395.895	98.47
396.105	43.18
396.314	129.19
396.524	102.57
396.733	84.14
396.942	182.44
397.152	47.27
397.361	131.24
397.57	94.38
397.78	108.71
397.989	125.1
398.198	198.82
398.407	92.33
398.617	166.06
398.826	125.1
399.035	108.71
399.244	161.96
399.453	86.19
399.663	153.77
399.872	213.16
400.081	67.75
400.29	100.52
400.499	55.47
400.708	145.58
400.917	96.43
401.127	118.95
401.336	125.1
401.545	143.53
401.754	168.1
401.963	178.34
402.172	121
402.381	149.67
402.59	84.14
402.799	69.8
403.008	145.58
403.217	67.75
403.426	153.77
403.635	112.81
403.844	96.43
404.053	145.58
404.262	121
404.471	151.72
404.68	92.33
404.888	194.73
405.097	92.33
405.306	207.02
405.515	178.34
405.724	125.1
405.933	178.34
406.142	207.02
406.35	176.3
406.559	225.45
406.768	202.92
406.977	260.26
407.185	188.58
407.394	227.5
407.603	235.69
407.812	209.06
408.02	266.41
408.229	225.45
408.438	166.06
408.646	264.36
408.855	235.69
409.064	260.26
409.272	305.32
409.481	305.32
409.69	305.32
409.898	350.37
410.107	268.45
410.315	370.85
410.524	323.75
410.733	393.38
410.941	333.99
411.15	401.57
411.358	368.81
411.567	403.62
411.775	346.28
411.984	452.77
412.192	428.2
412.401	432.29
412.609	526.5
412.818	669.86
413.026	491.68
413.234	485.54
413.443	561.31
413.651	460.96
413.86	657.57
414.068	651.42
414.276	723.1
414.485	526.5
414.693	696.48
414.901	714.91
415.11	743.58
415.318	768.16
415.526	723.1
415.734	837.79
415.943	706.72
416.151	858.27
416.359	837.79
416.567	901.28
416.776	882.85
416.984	927.9
417.192	972.96
417.4	956.57
417.608	987.29
417.817	1151.13
418.025	1095.83
418.233	1231
418.441	981.15
418.649	1091.74
418.857	1220.76
419.065	1333.4
419.273	1142.94
419.481	1280.15
419.689	1501.33
419.897	1544.34
420.105	1597.59
420.313	1613.97
420.521	1722.51
420.729	1699.98
420.937	1626.26
421.145	1730.7
421.353	1781.9
421.561	2001.04
421.769	1986.7
421.977	2123.91
422.185	2044.04
422.393	2123.91
422.601	2205.83
422.809	2230.41
423.017	2271.37
423.224	2437.25
423.432	2461.83
423.64	2537.6
423.848	2742.4
424.056	2689.15
424.263	2805.89
424.471	2879.61
424.679	2949.25
424.887	3018.88
425.094	3055.74
425.302	3129.47
425.51	3217.53
425.718	3328.12
425.925	3405.94
426.133	3510.39
426.341	3696.75
426.548	3942.51
426.756	3780.72
426.964	3928.17
427.171	4182.12
427.379	4196.46
427.586	4245.61
427.794	4511.85
428.001	4694.12
428.209	4976.73
428.417	4714.59
428.624	5113.95
428.832	5220.44
429.039	4984.93
429.247	5085.28
429.454	5560.41
429.662	6064.21
429.869	5638.23
430.076	6080.59
430.284	5836.88
430.491	5869.65
430.699	6420.55
430.906	6477.9
431.114	6359.11
431.321	6645.83
431.528	6801.47
431.736	7278.65
431.943	7628.85
432.15	7376.95
432.358	7458.87
432.565	7931.95
432.772	7665.72
432.979	8015.92
433.187	8441.9
433.394	8515.62
433.601	9013.28
433.808	9187.36
434.016	8945.7
434.223	9236.51
434.43	9938.96
434.637	9742.36
434.844	10244.11
435.052	10330.13
435.259	10594.31
435.466	10407.95
435.673	10307.6
435.88	10924.04
436.087	11773.94
436.294	11513.85
436.501	11177.98
436.708	11483.13
436.915	12001.27
437.122	12322.8
437.329	12507.12
437.537	12830.69
437.743	12849.13
437.95	12922.85
438.157	13756.38
438.364	13785.05
438.571	14039
438.778	13805.53
438.985	15394.75
439.192	14790.6
439.399	15167.43
439.606	14753.74
439.813	15837.11
440.02	16805.8
440.227	16512.94
440.433	16181.17
440.64	16811.95
440.847	16588.72
441.054	16920.49
441.261	18313.11
441.467	18005.91
441.674	18124.69
441.881	19017.61
442.088	18694.03
442.294	18694.03
442.501	19419.01
442.708	19371.91
442.914	20477.81
443.121	21198.7
443.328	20469.62
443.534	22007.64
443.741	21442.4
443.948	21065.58
444.154	22683.47
444.361	22531.92
444.568	22503.25
444.774	22415.19
444.981	22634.32
445.187	23215.94
445.394	24811.31
445.6	24139.58
445.807	26810.13
446.013	25540.39
446.22	25718.56
446.426	27158.28
446.633	26961.68
446.839	27948.8
447.046	26824.47
447.252	28331.77
447.459	28448.5
447.665	28303.1
447.871	29695.72
448.078	30717.65
448.284	29286.12
448.491	30025.44
448.697	31399.63
448.903	31559.37
449.11	31835.84
449.316	31014.61
449.522	31878.85
449.728	32634.55
449.935	33326.77
450.141	33298.09
450.347	33324.72
450.553	32335.55
450.76	32904.88
450.966	34094.75
451.172	33611.43
451.378	34705.05
451.584	33973.92
451.791	34762.39
451.997	34408.09
452.203	35053.2
452.409	35264.14
452.615	34872.98
452.821	33597.1
453.027	33349.29
453.233	35190.42
453.44	33558.19
453.646	33978.02
453.852	34098.85
454.058	34733.72
454.264	33334.96
454.47	34512.54
454.676	33386.16
454.882	34307.74
455.088	31729.35
455.294	31848.13
455.5	32583.35
455.705	32833.21
455.911	31547.08
456.117	30863.06
456.323	30213.85
456.529	28688.12
456.735	30043.87
456.941	29023.98
457.147	28677.88
457.352	28147.45
457.558	27959.04
457.764	27733.76
457.97	27158.28
458.176	26666.77
458.381	26345.24
458.587	25505.57
458.793	25018.16
458.999	23742.27
459.204	25421.61
459.41	24975.15
459.616	23183.18
459.821	23531.33
460.027	23127.88
460.233	22654.8
460.438	21634.91
460.644	21946.2
460.85	20746.09
461.055	20467.57
461.261	20313.97
461.466	18986.89
461.672	18192.28
461.878	19335.04
462.083	18145.17
462.289	18038.68
462.494	17690.52
462.7	16826.28
462.905	16314.29
463.111	17119.14
463.316	17026.98
463.522	16678.83
463.727	16869.29
463.932	16830.38
464.138	16609.2
464.343	16764.84
464.549	16091.06
464.754	16775.08
464.959	16480.18
465.165	16590.77
465.37	15839.16
465.575	15101.89
465.781	15765.43
465.986	15978.42
466.191	15523.77
466.397	15108.04
466.602	14491.6
466.807	14950.34
467.012	14952.39
467.218	14596.04
467.423	14389.2
467.628	14565.32
467.833	15388.61
468.038	14637
468.244	14251.99
468.449	14864.33
468.654	14331.86
468.859	13961.17
469.064	14266.32
469.269	13842.39
469.474	13766.62
469.679	13707.23
469.885	13469.66
470.09	13629.4
470.295	13484
470.5	13340.64
470.705	13428.7
470.91	13182.95
471.115	13047.78
471.32	13070.31
471.525	13055.97
471.73	12863.46
471.935	12625.9
472.139	12281.84
472.344	12556.27
472.549	12478.44
472.754	12267.5
472.959	11972.6
473.164	11821.05
473.369	11442.17
473.574	11816.95
473.778	11905.01
473.983	11896.82
474.188	11794.42
474.393	11325.44
474.598	11341.82
474.802	11057.15
475.007	11100.16
475.212	11089.92
475.417	10532.87
475.621	10557.45
475.826	10631.18
476.031	10745.86
476.235	10141.71
476.44	10629.13
476.645	10180.62
476.849	10348.56
477.054	9981.97
477.259	9941.01
477.463	9938.96
477.668	9709.59
477.872	9799.7
478.077	9533.47
478.282	9287.71
478.486	9089.06
478.691	9252.89
478.895	9300
479.1	9408.54
479.304	9302.04
479.509	8910.88
479.713	9066.53
479.918	8931.36
480.122	8685.61
480.326	8980.51
480.531	8831.01
480.735	8689.7
480.94	8663.08
481.144	8935.46
481.348	8794.15
481.553	8667.17
481.757	8370.22
481.961	8638.5
482.166	8699.94
482.37	8517.67
482.574	8695.85
482.778	8546.34
482.983	8751.14
483.187	8620.07
483.391	8693.8
483.595	8620.07
483.8	8546.34
484.004	8433.71
484.208	8808.48
484.412	8779.81
484.616	8734.76
484.821	8575.02
485.025	8321.07
485.229	8587.3
485.433	8441.9
485.637	8607.78
485.841	8380.46
486.045	8321.07
486.249	8628.26
486.453	8423.47
486.657	8558.63
486.861	8462.38
487.065	8308.78
487.269	8628.26
487.473	8312.88
487.677	8579.11
487.881	8540.2
488.085	8323.12
488.289	8706.09
488.493	8620.07
488.697	8476.71
488.901	8286.25
489.105	8564.78
489.309	8579.11
489.512	8583.21
489.716	8464.43
489.92	8644.65
490.124	8579.11
490.328	8718.37
490.531	8597.54
490.735	8710.18
490.939	8650.79
491.143	8525.86
491.346	8538.15
491.55	8751.14
491.754	8788
491.958	8914.98
492.161	8615.98
492.365	8859.68
492.569	8845.35
492.772	8853.54
492.976	9101.34
493.18	9078.82
493.383	9111.58
493.587	9175.07
493.79	9152.54
493.994	9041.95
494.197	9152.54
494.401	9332.76
494.605	9246.75
494.808	9445.4
495.012	9433.11
495.215	9463.83
495.419	9562.14
495.622	9547.8
495.825	9545.75
496.029	9519.13
496.232	9834.52
496.436	9728.02
496.639	10119.18
496.843	9871.38
497.046	10115.09
497.249	10283.02
497.453	10315.79
497.656	10305.55
497.859	10311.69
498.063	10418.19
498.266	10930.18
498.469	10573.83
498.673	10743.81
498.876	11118.59
499.079	11069.44
499.282	11032.58
499.485	11450.36
499.689	11382.78
499.892	11571.19
500.095	11522.04
500.298	11683.83
500.501	11816.95
500.705	11945.97
500.908	12240.88
501.111	12083.19
501.314	12204.02
501.517	12519.4
501.72	12505.07
501.923	12429.29
502.126	13010.92
502.329	12789.74
502.532	13211.62
502.735	13090.79
502.938	13531.1
503.141	13404.13
503.344	13778.9
503.547	13832.15
503.75	13744.09
503.953	13948.89
504.156	14002.13
504.359	14301.14
504.562	14364.62
504.765	14747.59
504.968	14657.48
505.17	14804.94
505.373	15003.59
505.576	15155.14
505.779	15230.91
505.982	15294.4
506.185	15583.16
506.387	15931.32
506.59	15624.12
506.793	15896.5
506.996	16160.69
507.198	16687.02
507.401	16463.79
507.604	16527.28
507.807	17010.6
508.009	17231.78
508.212	16965.54
508.415	17299.36
508.617	17547.17
508.82	17557.41
509.022	17624.99
509.225	18235.28
509.428	18118.55
509.63	18239.38
509.833	18302.87
510.035	19040.14
510.238	18536.34
510.44	18976.65
510.643	19136.39
510.845	19466.11
511.048	19515.26
511.25	19967.87
511.453	19615.62
511.655	20569.97
511.858	20307.83
512.06	20436.85
512.262	20520.82
512.465	20633.46
512.667	20801.39
512.87	21065.58
513.072	21043.05
513.274	21630.82
513.477	21872.48
513.679	22036.31
513.881	22007.64
514.084	22191.96
514.286	22161.24
514.488	22671.18
514.69	22896.46
514.893	22824.78
515.095	23160.65
515.297	23473.99
515.499	23461.7
515.701	23754.56
515.904	24024.89
516.106	24074.04
516.308	24227.64
516.51	24766.26
516.712	24688.43
516.914	24764.21
517.116	25268.01
517.318	25204.52
517.52	25392.94
517.722	25556.77
517.925	25542.44
518.127	25900.83
518.329	26126.11
518.531	25829.15
518.733	26484.5
518.935	26900.24
519.136	27037.45
519.338	26924.82
519.54	27146
519.742	27494.15
519.944	27916.03
520.146	27901.7
520.348	28452.6
520.55	27780.87
520.752	28020.48
520.954	28757.75
521.155	28528.38
521.357	28913.39
521.559	28813.04
521.761	29511.4
521.963	29208.3
522.164	29437.67
522.366	29650.66
522.568	29697.77
522.77	29630.18
522.971	30176.99
523.173	29730.53
523.375	30226.14
523.576	30349.02
523.778	30355.16
523.98	30494.43
524.181	30682.84
524.383	30738.13
524.584	31327.95
524.786	30953.17
524.988	30754.52
525.189	31311.56
525.391	31350.48
525.592	31522.51
525.794	31459.02
525.995	31422.16
526.197	31528.65
526.398	31725.25
526.6	31620.81
526.801	31379.15
527.003	31962.82
527.204	31786.69
527.406	32394.94
527.607	31835.84
527.808	32130.75
528.01	31508.17
528.211	32020.16
528.412	32659.13
528.614	32100.03
528.815	31874.76
529.016	32173.76
529.218	32120.51
529.419	32032.45
529.62	32108.22
529.822	32306.88
530.023	32050.88
530.224	32071.36
530.425	32085.7
530.626	31956.68
530.828	31676.1
531.029	32440
531.23	31905.48
531.431	32003.78
531.632	32327.36
531.833	32214.72
532.035	32153.28
532.236	31772.36
532.437	32392.89
532.638	31577.8
532.839	32462.52
533.04	32151.23
533.241	31997.63
533.442	32448.19
533.643	31858.37
533.844	31911.62
534.045	32087.75
534.246	31545.03
534.447	31938.24
534.648	31581.9
534.849	31753.93
535.05	31395.53
535.251	31907.52
535.451	31850.18
535.652	31815.37
535.853	31665.86
536.054	31864.52
536.255	31981.25
536.456	31651.53
536.657	31790.79
536.857	31540.94
537.058	31274.7
537.259	31692.49
537.46	31618.76
537.66	31551.18
537.861	31657.67
538.062	31342.28
538.263	31362.76
538.463	31477.45
538.664	31323.85
538.865	31334.09
539.065	31243.98
539.266	30969.55
539.466	31649.48
539.667	30899.92
539.868	31682.25
540.068	31364.81
540.269	31010.51
540.469	31293.13
540.67	31098.58
540.87	31135.44
541.071	30951.12
541.271	31155.92
541.472	30957.27
541.672	30987.99
541.873	30992.08
542.073	30856.92
542.274	31375.05
542.474	30920.4
542.675	30867.16
542.875	31506.12
543.075	30955.22
543.276	30916.31
543.476	31110.86
543.676	31196.88
543.877	30850.77
544.077	31098.58
544.277	30949.07
544.478	30904.02
544.678	31266.51
544.878	30975.7
545.078	30795.48
545.279	30697.17
545.479	30547.67
545.679	31018.71
545.879	30629.59
546.079	30920.4
546.28	30699.22
546.48	30586.58
546.68	30719.7
546.88	30832.34
547.08	30813.91
547.28	30607.06
547.48	30652.12
547.68	30617.3
547.88	30617.3
548.081	31135.44
548.281	30838.48
548.481	30633.69
548.681	30985.94
548.881	30934.74
549.081	30715.61
549.28	30914.26
549.48	31106.77
549.68	30506.71
549.88	31047.38
550.08	30680.79
550.28	30865.11
550.48	30738.13
550.68	30996.18
550.88	30609.11
551.08	30721.75
551.279	30562.01
551.479	30428.89
551.679	30818
551.879	30801.62
552.079	31088.34
552.278	31084.24
552.478	30746.33
552.678	30760.66
552.878	31041.23
553.077	30523.1
553.277	30381.79
553.477	31133.39
553.676	31000.27
553.876	31170.26
554.076	30793.43
554.275	30998.23
554.475	30748.37
554.674	30914.26
554.874	30875.35
555.074	30609.11
555.273	30576.34
555.473	30977.75
555.672	30432.99
555.872	30930.64
556.071	30377.69
556.271	31418.06
556.47	31010.51
556.67	30861.01
556.869	30744.28
557.068	30930.64
557.268	30686.93
557.467	31108.82
557.667	31082.19
557.866	30899.92
558.065	30938.83
558.265	30600.92
558.464	30652.12
558.663	30918.35
558.863	30562.01
559.062	30947.03
559.261	30594.78
559.461	31006.42
559.66	30736.09
559.859	31012.56
560.058	30893.78
560.258	31063.76
560.457	30576.34
560.656	31129.3
560.855	31000.27
561.054	31151.82
561.253	30740.18
561.453	30746.33
561.652	30959.31
561.851	31043.28
562.05	30531.29
562.249	30734.04
562.448	31123.15
562.647	30600.92
562.846	30740.18
563.045	30901.97
563.244	30531.29
563.443	31215.31
563.642	30578.39
563.841	30602.97
564.04	30772.95
564.239	30920.4
564.438	30324.44
564.637	30766.81
564.836	31186.64
565.035	30318.3
565.234	30432.99
565.432	30578.39
565.631	30336.73
565.83	30785.24
566.029	30162.65
566.228	30410.46
566.427	30236.38
566.625	30097.12
566.824	29996.77
567.023	30267.1
567.222	29830.88
567.42	30445.27
567.619	29984.48
567.818	29972.19
568.016	30015.2
568.215	30183.13
568.414	29636.33
568.612	30056.16
568.811	29857.51
569.01	30312.16
569.208	29402.86
569.407	29859.56
569.605	29681.38
569.804	29888.23
570.002	29413.1
570.201	29689.57
570.4	29298.41
570.598	29626.09
570.797	29439.72
570.995	29249.26
571.193	29257.45
571.392	29245.16
571.59	29210.35
571.789	29210.35
571.987	29038.32
572.186	29122.29
572.384	28780.28
572.582	29060.85
572.781	29155.05
572.979	28440.31
573.177	29073.14
573.376	28630.77
573.574	28454.65
573.772	28792.56
573.971	28450.55
574.169	28280.57
574.367	28231.42
574.565	28239.61
574.763	28141.31
574.962	28169.98
575.16	27938.56
575.358	28108.54
575.556	27447.05
575.754	28516.09
575.952	27660.04
576.151	27842.31
576.349	27170.57
576.547	27389.7
576.745	27787.01
576.943	27492.1
577.141	27424.52
577.339	27467.53
577.537	27309.83
577.735	27365.13
577.933	27291.4
578.131	27074.32
578.329	26875.66
578.527	26924.82
578.725	26697.49
578.923	26670.87
579.121	27016.97
579.319	26865.42
579.516	26672.92
579.714	26646.29
579.912	26666.77
580.11	26593.04
580.308	26287.9
580.506	26631.96
580.704	26021.66
580.901	26195.74
581.099	26425.11
581.297	26003.23
581.495	25724.71
581.692	26070.81
581.89	25642.79
582.088	25759.52
582.285	26081.05
582.483	25851.68
582.681	25667.36
582.878	25648.93
583.076	25689.89
583.274	25898.78
583.471	25380.65
583.669	25683.75
583.866	25216.81
584.064	25376.55
584.262	24899.37
584.459	25610.02
584.657	24799.02
584.854	25079.6
585.052	24657.71
585.249	25030.44
585.447	24770.35
585.644	24481.59
585.841	24776.5
586.039	24878.9
586.236	24551.22
586.434	24594.23
586.631	24698.67
586.828	24545.08
587.026	24667.95
587.223	24164.15
587.42	24182.59
587.618	24215.35
587.815	23957.31
588.012	24002.36
588.21	24221.5
588.407	24289.08
588.604	23836.48
588.801	24033.08
588.999	24100.67
589.196	23629.63
589.393	23832.38
589.59	23627.59
589.787	23703.36
589.984	23541.57
590.182	23144.27
590.379	23658.31
590.576	23326.53
590.773	23420.74
590.97	23052.11
591.167	23201.61
591.364	23258.95
591.561	23635.78
591.758	22984.52
591.955	23281.48
592.152	23287.62
592.349	22994.76
592.546	22943.56
592.743	23035.72
592.94	22474.58
593.137	22966.09
593.334	22978.38
593.531	22601.55
593.727	22697.81
593.924	22732.62
594.121	22671.18
594.318	23093.07
594.515	22415.19
594.712	22802.25
594.908	22503.25
595.105	22521.68
595.302	22376.28
595.499	22603.6
595.696	22286.17
595.892	22271.83
596.089	22157.14
596.286	22179.67
596.482	22136.66
596.679	22099.8
596.876	22488.92
597.072	22091.61
597.269	22026.07
597.466	21710.69
597.662	22237.02
597.859	22110.04
598.055	22044.51
598.252	21909.34
598.448	21890.91
598.645	22038.36
598.841	22011.74
599.038	22173.53
599.234	21874.52
599.431	21899.1
599.627	21794.65
599.824	21983.07
600.02	21546.85
600.217	21870.43
600.413	21655.39
600.609	21720.93
600.806	22071.13
601.002	22050.65
601.198	21528.42
601.395	21464.93
601.591	21612.38
601.787	21694.3
601.984	21792.61
602.18	21872.48
602.376	21661.54
602.572	21692.26
602.769	21538.66
602.965	21538.66
603.161	21530.47
603.357	21546.85
603.553	21823.33
603.75	21657.44
603.946	21794.65
604.142	21811.04
604.338	21536.61
604.534	21976.92
604.73	21360.48
604.926	21886.81
605.122	21757.79
605.318	21704.54
605.514	21604.19
605.71	21479.27
605.906	21833.57
606.102	21575.52
606.298	21518.18
606.494	21643.1
606.69	21819.23
606.886	21931.87
607.082	21677.92
607.278	21702.5
607.474	21567.33
607.67	21804.89
607.866	21417.83
608.062	21993.31
608.257	21518.18
608.453	21321.57
608.649	21919.58
608.845	21772.13
609.041	21497.7
609.236	21827.42
609.432	21651.3
609.628	22118.23
609.824	21587.81
610.019	21733.22
610.215	21864.29
610.411	22007.64
610.606	21651.3
610.802	21960.54
610.998	21946.2
611.193	21866.33
611.389	21944.16
611.584	22007.64
611.78	22050.65
611.976	21972.83
612.171	22120.28
612.367	22194.01
612.562	22060.89
612.758	21798.75
612.953	21847.9
613.149	21944.16
613.344	21585.76
613.539	22404.95
613.735	22054.75
613.93	21874.52
614.126	21946.2
614.321	22173.53
614.517	22407
614.712	22243.16
614.907	21976.92
615.103	22112.09
615.298	21946.2
615.493	22527.83
615.688	21860.19
615.884	22433.62
616.079	22175.58
616.274	22140.76
616.47	22165.34
616.665	22003.55
616.86	22050.65
617.055	22075.23
617.25	21895
617.445	22249.3
617.641	21792.61
617.836	22136.66
618.031	21639.01
618.226	22237.02
618.421	21677.92
618.616	22386.52
618.811	21387.11
619.006	22118.23
619.201	21673.82
619.396	21892.96
619.591	21366.63
619.786	21512.03
619.981	21569.38
620.176	21557.09
620.371	21262.18
620.566	21507.94
620.761	21546.85
620.956	21616.48
621.151	21073.77
621.346	21323.62
621.541	20627.31
621.735	21323.62
621.93	20846.44
622.125	20952.94
622.32	20578.16
622.515	20770.67
622.709	20823.92
622.904	20461.43
623.099	20537.2
623.294	20440.95
623.488	20131.7
623.683	20193.14
623.878	19922.81
624.072	19844.99
624.267	19961.72
624.462	19953.53
624.656	19640.19
624.851	19869.56
625.046	19666.81
625.24	19414.91
625.435	19156.87
625.629	19171.21
625.824	19425.15
626.018	19500.93
626.213	18802.57
626.407	19095.43
626.602	18675.6
626.796	18751.37
626.991	18724.75
627.185	18648.97
627.38	18591.63
627.574	18605.97
627.768	18362.26
627.963	18243.48
628.157	17969.05
628.352	17985.43
628.546	18128.79
628.74	18079.64
628.935	17536.93
629.129	17813.4
629.323	17545.12
629.517	17665.95
629.712	17764.25
629.906	17700.76
630.1	17074.09
630.294	17024.93
630.489	17371.04
630.683	17346.47
630.877	16852.91
631.071	17010.6
631.265	16781.23
631.459	16717.74
631.653	16936.87
631.848	16803.75
632.042	16416.69
632.236	16725.93
632.43	16551.85
632.624	16566.19
632.818	16510.89
633.012	15996.85
633.206	15992.76
633.4	16021.43
633.594	15990.71
633.788	15849.4
633.982	15898.55
634.176	16011.19
634.369	15534.01
634.563	15398.85
634.757	15431.62
634.951	15609.79
635.145	15419.33
635.339	15296.45
635.533	15181.76
635.726	15228.87
635.92	14944.2
636.114	14847.94
636.308	15001.54
636.501	14663.63
636.695	15091.65
636.889	14782.41
637.083	14641.1
637.276	14604.24
637.47	14444.49
637.664	14407.63
637.857	14280.66
638.051	14301.14
638.244	14198.74
638.438	14002.13
638.632	14096.34
638.825	13809.62
639.019	13733.85
639.212	13914.07
639.406	13688.79
639.599	13670.36
639.793	13811.67
639.986	13258.72
640.18	13225.95
640.373	13412.32
640.567	13078.5
640.76	13184.99
640.954	13129.7
641.147	12885.99
641.34	12953.57
641.534	12752.87
641.727	12855.27
641.92	12806.12
642.114	12443.63
642.307	12605.42
642.5	12498.92
642.694	12257.26
642.887	12298.22
643.08	12498.92
643.273	12052.47
643.467	12306.41
643.66	12017.65
643.853	12107.76
644.046	11894.77
644.239	11950.07
644.432	11814.9
644.626	11798.52
644.819	11554.81
645.012	11687.93
645.205	11696.12
645.398	11954.16
645.591	11464.7
645.784	11245.57
645.977	11388.92
646.17	11294.72
646.363	11192.32
646.556	10973.19
646.749	11087.87
646.942	11196.42
647.135	10878.98
647.328	10788.87
647.521	11071.49
647.714	10835.97
647.907	10770.44
648.099	10520.59
648.292	10672.14
648.485	10491.91
648.678	10496.01
648.871	10405.9
649.064	10319.89
649.256	10332.17
649.449	10233.87
649.642	10045.46
649.835	10151.95
650.027	9918.48
650.22	9996.31
650.413	10004.5
650.605	9902.1
650.798	9891.86
650.991	9695.25
651.183	9996.31
651.376	9816.08
651.568	9637.91
651.761	9670.68
651.954	9463.83
652.146	9586.71
652.339	9517.08
652.531	9496.6
652.724	9238.56
652.916	9095.2
653.109	9457.69
653.301	9156.64
653.494	9164.83
653.686	9111.58
653.879	9168.93
654.071	8939.55
654.263	8880.16
654.456	8880.16
654.648	8773.67
654.84	8734.76
655.033	8726.57
655.225	8529.96
655.417	8611.88
655.61	8636.45
655.802	8710.18
655.994	8663.08
656.186	8724.52
656.379	8230.96
656.571	8280.11
656.763	8243.24
656.955	8259.63
657.148	8390.7
657.34	8357.93
657.532	8200.24
657.724	8042.54
657.916	8237.1
658.108	8026.16
658.3	7827.51
658.492	7815.22
658.684	7759.92
658.876	7890.99
659.068	7852.08
659.26	7776.31
659.452	7835.7
659.644	7737.4
659.836	7571.51
660.028	7520.31
660.22	7565.37
660.412	7526.46
660.604	7645.24
660.796	7424.06
660.988	7415.87
661.18	7442.49
661.372	7352.38
661.563	7399.48
661.755	7325.75
661.947	7194.68
662.139	7186.49
662.331	7342.14
662.522	6967.36
662.714	7036.99
662.906	7149.63
663.097	6891.59
663.289	6901.83
663.481	6920.26
663.673	6834.24
663.864	6776.9
664.056	6842.43
664.247	6737.99
664.439	6568.01
664.631	6787.14
664.822	6629.45
665.014	6596.68
665.205	6434.89
665.397	6555.72
665.588	6537.29
665.78	6494.28
665.971	6504.52
666.163	6404.17
666.354	6205.52
666.546	6418.5
666.737	6178.89
666.929	6250.57
667.12	6408.26
667.311	6285.39
667.503	6072.4
667.694	6244.43
667.885	6060.11
668.077	6037.58
668.268	6080.59
668.459	6125.65
668.651	5984.34
668.842	6082.64
669.033	6000.72
669.224	5943.38
669.416	5998.67
669.607	5773.39
669.798	5879.89
669.989	5857.36
670.18	5757.01
670.371	5654.61
670.563	5591.13
670.754	5716.05
670.945	5664.85
671.136	5695.57
671.327	5548.12
671.518	5615.7
671.709	5574.74
671.9	5560.41
672.091	5482.58
672.282	5392.47
672.473	5462.1
672.664	5484.63
672.855	5458.01
673.046	5451.86
673.237	5365.85
673.428	5326.94
673.619	5259.35
673.809	5326.94
674	5187.68
674.191	5339.23
674.382	5220.44
674.573	5349.47
674.764	5296.22
674.954	5159
675.145	5279.83
675.336	5163.1
675.527	5122.14
675.717	5120.09
675.908	5015.65
676.099	5081.18
676.289	5111.9
676.48	5204.06
676.671	5064.8
676.861	5003.36
677.052	4970.59
677.243	4976.73
677.433	5081.18
677.624	5036.13
677.814	4831.33
678.005	5015.65
678.195	4786.27
678.386	5007.45
678.576	4827.23
678.767	4927.58
678.957	4810.85
679.148	5109.85
679.338	4968.54
679.529	4962.4
679.719	4655.2
679.909	4880.48
680.1	4860
680.29	4819.04
680.481	4663.4
680.671	4810.85
680.861	4653.16
681.052	4870.24
681.242	4712.55
681.432	4784.23
681.622	4663.4
681.813	4765.79
682.003	4507.75
682.193	4616.29
682.383	4649.06
682.573	4565.09
682.764	4733.03
682.954	4610.15
683.144	4687.97
683.334	4532.33
683.524	4540.52
683.714	4749.41
683.904	4577.38
684.094	4649.06
684.284	4737.12
684.474	4526.18
684.664	4448.36
684.854	4438.12
685.044	4403.3
685.234	4429.93
685.424	4499.56
685.614	4391.02
685.804	4472.93
685.994	4393.06
686.184	4397.16
686.374	4378.73
686.564	4425.83
686.753	4448.36
686.943	4321.38
687.133	4270.19
687.323	4360.3
687.513	4507.75
687.702	4341.86
687.892	4257.9
688.082	4278.38
688.272	4335.72
688.461	4302.95
688.651	4319.34
688.841	4200.55
689.03	4253.8
689.22	4114.54
689.41	4212.84
689.599	4200.55
689.789	4046.96
689.979	4073.58
690.168	4122.73
690.358	4008.05
690.547	4065.39
690.737	4132.97
690.926	4024.43
691.116	4118.64
691.305	3995.76
691.495	4040.81
691.684	3950.7
691.874	4149.36
692.063	3905.65
692.252	3836.02
692.442	4081.77
692.631	3903.6
692.82	3913.84
693.01	3860.59
693.199	3969.13
693.388	3815.54
693.578	3973.23
693.767	3893.36
693.956	3827.82
694.146	3786.86
694.335	3823.73
694.524	3852.4
694.713	3942.51
694.902	3786.86
695.092	3702.9
695.281	3770.48
695.47	3797.1
695.659	3627.12
695.848	3778.67
696.037	3782.77
696.226	3643.51
696.415	3684.47
696.604	3676.27
696.793	3608.69
696.982	3649.65
697.171	3614.84
697.36	3686.51
697.549	3577.97
697.738	3516.53
697.927	3520.63
698.116	3549.3
698.305	3668.08
698.494	3659.89
698.683	3504.25
698.872	3649.65
699.061	3539.06
699.25	3455.09
699.438	3491.96
699.627	3510.39
699.816	3496.05
700.005	3428.47
700.193	3481.72
700.382	3457.14
700.571	3418.23
700.76	3516.53
700.948	3453.05
701.137	3475.57
701.326	3393.65
701.514	3360.89
701.703	3307.64
701.892	3477.62
702.08	3311.74
702.269	3383.42
702.457	3319.93
702.646	3303.54
702.834	3209.34
703.023	3348.6
703.212	3287.16
703.4	3233.91
703.589	3307.64
703.777	3315.83
703.965	3180.67
704.154	3250.3
704.342	3158.14
704.531	3221.63
704.719	3000.44
704.907	3135.61
705.096	3188.86
705.284	3145.85
705.472	3180.67
705.661	3117.18
705.849	3090.56
706.037	3231.87
706.226	3221.63
706.414	3055.74
706.602	3176.57
706.79	3082.36
706.979	2975.87
707.167	3090.56
707.355	2906.24
707.543	3020.92
707.731	3098.75
707.919	3033.21
708.107	2977.92
708.296	2926.72
708.484	2863.23
708.672	3027.07
708.86	2936.96
709.048	3072.12
709.236	2922.62
709.424	2844.8
709.612	2879.61
709.8	2857.09
709.988	2990.21
710.176	2912.38
710.364	2879.61
710.551	2969.73
710.739	2959.49
710.927	2869.37
711.115	2893.95
711.303	2760.83
711.491	2783.36
711.679	2680.96
711.866	2846.85
712.054	2824.32
712.242	2723.97
712.43	2760.83
712.617	2723.97
712.805	2717.83
712.993	2783.36
713.181	2693.25
713.368	2664.58
713.556	2879.61
713.744	2619.52
713.931	2746.5
714.119	2623.62
714.306	2644.1
714.494	2517.12
714.682	2705.54
714.869	2558.08
715.057	2742.4
715.244	2558.08
715.432	2717.83
715.619	2562.18
715.807	2484.36
715.994	2558.08
716.182	2568.32
716.369	2467.97
716.556	2646.15
716.744	2584.71
716.931	2476.16
717.119	2590.85
717.306	2502.79
717.493	2523.27
717.681	2494.6
717.868	2500.74
718.055	2513.03
718.242	2445.45
718.43	2498.69
718.617	2543.75
718.804	2414.73
718.991	2553.99
719.179	2510.98
719.366	2347.14
719.553	2394.25
719.74	2347.14
719.927	2381.96
720.114	2410.63
720.301	2400.39
720.488	2394.25
720.676	2273.42
720.863	2424.97
721.05	2283.66
721.237	2418.82
721.424	2371.72
721.611	2273.42
721.798	2310.28
721.985	2248.84
722.172	2281.61
722.358	2207.88
722.545	2285.7
722.732	2265.22
722.919	2246.79
723.106	2281.61
723.293	2242.7
723.48	2187.4
723.667	2224.26
723.853	2230.41
724.04	2203.79
724.227	2207.88
724.414	2158.73
724.6	2193.55
724.787	2181.26
724.974	2189.45
725.161	2113.67
725.347	2175.11
725.534	2168.97
725.72	2103.43
725.907	2076.81
726.094	2142.35
726.28	2189.45
726.467	2101.39
726.653	2123.91
726.84	2203.79
727.027	2193.55
727.213	2181.26
727.4	2058.38
727.586	2091.15
727.773	2076.81
727.959	2105.48
728.145	2062.48
728.332	2025.61
728.518	1992.84
728.705	2107.53
728.891	1931.41
729.077	2060.43
729.264	1955.98
729.45	2093.19
729.636	2068.62
729.823	1970.32
730.009	2050.19
730.195	1980.56
730.382	1980.56
730.568	1933.45
730.754	2011.28
730.94	1906.83
731.126	2031.76
731.313	1839.25
731.499	1861.77
731.685	1976.46
731.871	1980.56
732.057	1880.21
732.243	1890.45
732.429	1992.84
732.615	1951.88
732.801	1927.31
732.987	1824.91
733.173	1880.21
733.359	1853.58
733.545	1927.31
733.731	1970.32
733.917	1955.98
734.103	1917.07
734.289	1888.4
734.475	1820.81
734.661	1902.73
734.847	1853.58
735.033	1960.08
735.219	1812.62
735.404	1808.53
735.59	1818.77
735.776	1855.63
735.962	1902.73
736.148	1888.4
736.333	1765.52
736.519	1742.99
736.705	1847.44
736.89	1792.14
737.076	1767.57
737.262	1718.42
737.447	1728.66
737.633	1790.1
737.819	1820.81
738.004	1697.94
738.19	1722.51
738.375	1749.14
738.561	1673.36
738.747	1771.66
738.932	1695.89
739.118	1736.85
739.303	1697.94
739.489	1712.27
739.674	1616.02
739.859	1665.17
740.045	1648.79
740.23	1730.7
740.416	1538.2
740.601	1685.65
740.786	1638.55
740.972	1599.63
741.157	1634.45
741.342	1452.18
741.528	1634.45
741.713	1734.8
741.898	1667.22
742.084	1620.11
742.269	1648.79
742.454	1622.16
742.639	1593.49
742.824	1587.35
743.01	1595.54
743.195	1714.32
743.38	1554.58
743.565	1433.75
743.75	1550.48
743.935	1521.81
744.12	1527.96
744.305	1517.72
744.49	1452.18
744.675	1523.86
744.86	1441.94
745.045	1509.52
745.23	1468.56
745.415	1427.6
745.6	1443.99
745.785	1450.13
745.97	1474.71
746.155	1484.95
746.34	1394.84
746.525	1337.49
746.71	1517.72
746.895	1415.32
747.079	1374.36
747.264	1493.14
747.449	1411.22
747.634	1441.94
747.819	1294.49
748.003	1312.92
748.188	1372.31
748.373	1349.78
748.557	1312.92
748.742	1226.9
748.927	1308.82
749.111	1372.31
749.296	1249.43
749.481	1214.62
749.665	1255.58
749.85	1226.9
750.034	1284.25
750.219	1235.1
750.404	1210.52
750.588	1239.19
750.773	1212.57
750.957	1265.82
751.141	1249.43
751.326	1226.9
751.51	1136.79
751.695	1147.03
751.879	1179.8
752.064	1200.28
752.248	1112.22
752.432	1128.6
752.617	1237.14
752.801	1085.59
752.985	1085.59
753.17	1118.36
753.354	1028.25
753.538	1083.55
753.722	1067.16
753.907	1101.98
754.091	1161.37
754.275	1083.55
754.459	1058.97
754.643	1052.83
754.828	1075.35
755.012	1093.79
755.196	1022.11
755.38	1118.36
755.564	1058.97
755.748	964.76
755.932	952.48
756.116	1005.72
756.3	1038.49
756.484	960.67
756.668	970.91
756.852	856.22
757.036	944.28
757.22	997.53
757.404	903.32
757.588	938.14
757.772	1069.21
757.956	940.19
758.14	1046.68
758.323	888.99
758.507	915.61
758.691	919.71
758.875	915.61
759.059	919.71
759.242	919.71
759.426	919.71
759.61	886.94
759.794	858.27
759.977	964.76
760.161	972.96
760.345	911.52
760.528	909.47
760.712	872.61
760.895	901.28
761.079	821.41
761.263	848.03
761.446	774.3
761.63	819.36
761.813	985.24
761.997	784.54
762.18	960.67
762.364	845.98
762.547	825.5
762.731	848.03
762.914	872.61
763.098	723.1
763.281	796.83
763.464	770.21
763.648	762.02
763.831	749.73
764.015	784.54
764.198	739.49
764.381	776.35
764.564	813.21
764.748	831.65
764.931	850.08
765.114	678.05
765.297	798.88
765.481	686.24
765.664	694.43
765.847	731.3
766.03	782.49
766.213	757.92
766.397	802.97
766.58	774.3
766.763	774.3
766.946	706.72
767.129	723.1
767.312	716.96
767.495	651.42
767.678	673.95
767.861	854.17
768.044	659.62
768.227	784.54
768.41	610.47
768.593	684.19
768.776	749.73
768.959	649.38
769.142	745.63
769.324	684.19
769.507	704.67
769.69	676
769.873	651.42
770.056	747.68
770.239	692.38
770.421	690.34
770.604	708.77
770.787	747.68
770.97	663.71
771.152	561.31
771.335	637.09
771.518	725.15
771.7	706.72
771.883	723.1
772.066	655.52
772.248	706.72
772.431	696.48
772.613	587.94
772.796	649.38
772.978	725.15
773.161	723.1
773.343	567.46
773.526	610.47
773.708	538.79
773.891	592.03
774.073	604.32
774.256	553.12
774.438	665.76
774.621	563.36
774.803	585.89
774.985	602.27
775.168	542.88
775.35	518.31
775.532	608.42
775.715	544.93
775.897	643.23
776.079	567.46
776.261	673.95
776.444	585.89
776.626	569.51
776.808	612.51
776.99	448.68
777.173	557.22
777.355	520.35
777.537	501.92
777.719	546.98
777.901	522.4
778.083	542.88
778.265	524.45
778.447	475.3
778.629	487.59
778.811	473.25
778.993	544.93
779.175	598.18
779.357	536.74
779.539	477.35
779.721	526.5
779.903	485.54
780.085	452.77
780.267	501.92
780.449	436.39
780.631	522.4
780.812	536.74
780.994	411.81
781.176	366.76
781.358	424.1
781.54	487.59
781.721	520.35
781.903	436.39
782.085	436.39
782.267	497.83
782.448	426.15
782.63	374.95
782.812	530.59
782.993	397.48
783.175	463.01
783.357	403.62
783.538	456.87
783.72	411.81
783.901	424.1
784.083	395.43
784.264	395.43
784.446	352.42
784.627	432.29
784.809	399.52
784.99	354.47
785.172	444.58
785.353	368.81
785.535	379.04
785.716	379.04
785.897	358.57
786.079	303.27
786.26	428.2
786.441	411.81
786.623	309.41
786.804	348.33
786.985	307.37
787.167	336.04
787.348	325.8
787.529	340.13
787.71	381.09
787.891	282.79
788.073	336.04
788.254	366.76
788.435	313.51
788.616	340.13
788.797	313.51
788.978	340.13
789.159	315.56
789.34	340.13
789.522	282.79
789.703	280.74
789.884	333.99
790.065	297.13
790.246	430.24
790.427	297.13
790.607	307.37
790.788	268.45
790.969	268.45
791.15	354.47
791.331	278.69
791.512	315.56
791.693	260.26
791.874	250.02
792.054	272.55
792.235	329.89
792.416	280.74
792.597	264.36
792.778	297.13
792.958	241.83
793.139	288.93
793.32	280.74
793.5	276.65
793.681	256.17
793.862	247.97
794.042	243.88
794.223	225.45
794.404	299.17
794.584	217.26
794.765	217.26
794.945	272.55
795.126	299.17
795.306	290.98
795.487	215.21
795.667	295.08
795.848	241.83
796.028	178.34
796.209	260.26
796.389	299.17
796.57	301.22
796.75	190.63
796.93	268.45
797.111	198.82
797.291	184.49
797.471	256.17
797.652	202.92
797.832	198.82
798.012	215.21
798.192	225.45
798.373	209.06
798.553	200.87
798.733	323.75
798.913	192.68
799.093	200.87
799.274	198.82
799.454	280.74
799.634	252.07
799.814	239.78
799.994	290.98
800.174	223.4
800.354	170.15
800.534	211.11
800.714	219.3
800.894	200.87
801.074	209.06
801.254	200.87
801.434	231.59
801.614	200.87
801.794	215.21
801.974	817.31
802.154	137.38
802.334	250.02
802.514	168.1
802.693	247.97
802.873	231.59
803.053	190.63
803.233	241.83
803.413	157.86
803.592	184.49
803.772	174.25
803.952	235.69
804.131	157.86
804.311	237.74
804.491	153.77
804.67	96.43
804.85	170.15
805.03	100.52
805.209	217.26
805.389	178.34
805.568	200.87
805.748	256.17
805.928	182.44
806.107	143.53
806.287	237.74
806.466	217.26
806.646	127.14
806.825	170.15
807.004	141.48
807.184	143.53
807.363	288.93
807.543	194.73
807.722	168.1
807.901	168.1
808.081	149.67
808.26	55.47
808.439	161.96
808.619	166.06
808.798	233.64
808.977	157.86
809.156	209.06
809.336	157.86
809.515	245.93
809.694	149.67
809.873	104.62
810.052	225.45
810.231	192.68
810.411	98.47
810.59	225.45
810.769	182.44
810.948	125.1
811.127	116.9
811.306	110.76
811.485	127.14
811.664	188.58
811.843	100.52
812.022	164.01
812.201	108.71
812.38	102.57
812.559	82.09
812.737	121
812.916	129.19
813.095	247.97
813.274	90.28
813.453	116.9
813.632	88.23
813.811	123.05
813.989	34.99
814.168	159.91
814.347	47.27
814.526	106.67
814.704	141.48
814.883	176.3
815.062	80.04
815.24	145.58
815.419	116.9
815.598	190.63
815.776	57.51
815.955	184.49
816.133	59.56
816.312	118.95
816.49	108.71
816.669	153.77
816.847	67.75
817.026	141.48
817.204	102.57
817.383	133.29
817.561	71.85
817.74	94.38
817.918	129.19
818.097	114.86
818.275	104.62
818.453	151.72
818.632	145.58
818.81	67.75
818.988	75.95
819.167	137.38
819.345	63.66
819.523	75.95
819.701	190.63
819.879	61.61
820.058	94.38
820.236	92.33
820.414	192.68
820.592	90.28
820.77	194.73
820.948	34.99
821.127	92.33
821.305	110.76
821.483	39.08
821.661	170.15
821.839	75.95
822.017	133.29
822.195	116.9
822.373	63.66
822.551	75.95
822.729	84.14
822.907	178.34
823.085	141.48
823.262	84.14
823.44	77.99
823.618	161.96
823.796	94.38
823.974	92.33
824.152	61.61
824.329	90.28
824.507	121
824.685	110.76
824.863	26.79
825.04	90.28
825.218	141.48
825.396	96.43
825.574	151.72
825.751	80.04
825.929	125.1
826.107	92.33
826.284	96.43
826.462	194.73
826.639	92.33
826.817	10.41
826.994	100.52
827.172	57.51
827.349	141.48
827.527	86.19
827.704	43.18
827.882	86.19
828.059	26.79
828.237	69.8
828.414	127.14
828.591	77.99
828.769	77.99
828.946	80.04
829.124	84.14
829.301	143.53
829.478	180.39
829.655	98.47
829.833	116.9
830.01	69.8
830.187	133.29
830.364	59.56
830.542	51.37
830.719	141.48
830.896	98.47
831.073	94.38
831.25	92.33
831.427	143.53
831.604	100.52
831.782	84.14
831.959	77.99
832.136	53.42
832.313	100.52
832.49	26.79
832.667	67.75
832.844	20.65
833.021	131.24
833.198	47.27
833.374	92.33
833.551	51.37
833.728	94.38
833.905	20.65
834.082	43.18
834.259	71.85
834.436	90.28
834.612	86.19
834.789	129.19
834.966	90.28
835.143	121
835.319	24.75
835.496	20.65
835.673	127.14
835.85	149.67
836.026	133.29
836.203	125.1
836.38	57.51
836.556	59.56
836.733	26.79
836.909	116.9
837.086	73.9
837.262	59.56
837.439	69.8
837.616	116.9
837.792	43.18
837.968	53.42
838.145	-28.5
838.321	6.31
838.498	73.9
838.674	69.8
838.851	77.99
839.027	135.34
839.203	6.31
839.38	61.61
839.556	34.99
839.732	114.86
839.909	63.66
840.085	59.56
840.261	141.48
840.437	84.14
840.614	49.32
840.79	34.99
840.966	133.29
841.142	88.23
841.318	12.46
841.494	47.27
841.671	94.38
841.847	10.41
842.023	12.46
842.199	63.66
842.375	67.75
842.551	75.95
842.727	-36.69
842.903	112.81
843.079	43.18
843.255	80.04
843.431	-46.93
843.607	39.08
843.783	-30.55
843.959	28.84
844.134	34.99
844.31	86.19
844.486	88.23
844.662	86.19
844.838	67.75
845.013	80.04
845.189	-12.12
845.365	110.76
845.541	92.33
845.716	-46.93
845.892	108.71
846.068	-30.55
846.244	63.66
846.419	84.14
846.595	18.6
846.77	63.66
846.946	65.71
847.122	133.29
847.297	75.95
847.473	80.04
847.648	51.37
847.824	47.27
847.999	-10.07
848.175	37.03
848.35	-20.31
848.526	67.75
848.701	67.75
848.876	96.43
849.052	67.75
849.227	10.41
849.403	10.41
849.578	90.28
849.753	143.53
849.929	75.95
850.104	43.18
850.279	82.09
850.454	143.53
850.63	6.31
850.805	80.04
850.98	90.28
851.155	26.79
851.33	102.57
851.505	53.42
851.681	118.95
851.856	39.08
852.031	116.9
852.206	55.47
852.381	37.03
852.556	34.99
852.731	24.75
852.906	51.37
853.081	28.84
853.256	32.94
853.431	63.66
853.606	-20.31
853.781	18.6
853.956	2.22
854.131	98.47
854.305	-12.12
854.48	18.6
854.655	59.56
854.83	30.89
855.005	20.65
855.18	75.95
855.354	-10.07
855.529	75.95
855.704	18.6
855.879	135.34
856.053	61.61
856.228	-16.21
856.403	-5.97
856.577	2.22
856.752	-26.45
856.926	37.03
857.101	94.38
857.276	-8.02
857.45	-1.88
857.625	84.14
857.799	82.09
857.974	34.99
858.148	20.65
858.323	59.56
858.497	28.84
858.672	71.85
858.846	12.46
859.02	47.27
859.195	26.79
859.369	30.89
859.543	-59.22
859.718	28.84
859.892	94.38
860.066	67.75
860.241	47.27
860.415	94.38
860.589	94.38
860.763	-51.03
860.938	-5.97
861.112	-48.98
861.286	65.71
861.46	30.89
861.634	34.99
861.808	84.14
861.982	43.18
862.157	26.79
862.331	20.65
862.505	49.32
862.679	-30.55
862.853	16.55
863.027	43.18
863.201	125.1
863.375	-28.5
863.549	24.75
863.722	51.37
863.896	118.95
864.07	-55.12
864.244	51.37
864.418	41.13
864.592	43.18
864.766	-30.55
864.939	59.56
865.113	98.47
865.287	104.62
865.461	-12.12
865.634	-5.97
865.808	28.84
865.982	-22.36
866.156	53.42
866.329	-30.55
866.503	121
866.676	86.19
866.85	43.18
867.024	67.75
867.197	47.27
867.371	10.41
867.544	4.27
867.718	2.22
867.891	75.95
868.065	34.99
868.238	28.84
868.412	92.33
868.585	18.6
868.759	77.99
868.932	2.22
869.105	6.31
869.279	34.99
869.452	37.03
869.625	67.75
869.799	53.42
869.972	26.79
870.145	2.22
870.319	69.8
870.492	18.6
870.665	-3.93
870.838	14.51
871.011	-63.32
871.185	84.14
871.358	-5.97
871.531	28.84
871.704	-16.21
871.877	149.67
872.05	37.03
872.223	24.75
872.396	6.31
872.569	22.7
872.742	-30.55
872.915	100.52
873.088	-77.65
873.261	45.23
873.434	106.67
873.607	-3.93
873.78	20.65
873.953	-71.51
874.126	80.04
874.299	2.22
874.471	-22.36
874.644	34.99
874.817	14.51
874.99	34.99
875.163	92.33
875.335	28.84
875.508	63.66
875.681	69.8
875.853	-22.36
876.026	-14.17
876.199	-14.17
876.371	51.37
876.544	45.23
876.717	53.42
876.889	-63.32
877.062	100.52
877.234	-16.21
877.407	51.37
877.579	-5.97
877.752	-3.93
877.924	104.62
878.097	-12.12
878.269	43.18
878.442	53.42
878.614	-10.07
878.786	-36.69
878.959	28.84
879.131	41.13
879.303	-28.5
879.476	26.79
879.648	51.37
879.82	30.89
879.993	88.23
880.165	49.32
880.337	-106.32
880.509	-26.45
880.681	-18.26
880.854	-36.69
881.026	47.27
881.198	67.75
881.37	30.89
881.542	26.79
881.714	-34.64
881.886	47.27
882.058	10.41
882.23	82.09
882.402	43.18
882.574	43.18
882.746	84.14
882.918	-1.88
883.09	-5.97
883.262	18.6
883.434	-12.12
883.606	6.31
883.778	-67.41
883.95	37.03
884.122	2.22
884.293	77.99
884.465	20.65
884.637	22.7
884.809	2.22
884.98	26.79
885.152	67.75
885.324	63.66
885.496	-14.17
885.667	28.84
885.839	20.65
886.011	94.38
886.182	2.22
886.354	61.61
886.525	-1.88
886.697	30.89
886.869	61.61
887.04	51.37
887.212	34.99
887.383	118.95
887.555	65.71
887.726	-30.55
887.897	106.67
888.069	22.7
888.24	80.04
888.412	2.22
888.583	41.13
888.754	53.42
888.926	-10.07
889.097	18.6
889.268	-30.55
889.44	-1.88
889.611	-26.45
889.782	4.27
889.953	-26.45
890.125	61.61
890.296	71.85
890.467	-16.21
890.638	34.99
890.809	100.52
890.98	-16.21
891.151	53.42
891.323	94.38
891.494	47.27
891.665	59.56
891.836	34.99
892.007	32.94
892.178	32.94
892.349	47.27
892.52	-59.22
892.691	4.27
892.862	4.27
893.032	20.65
893.203	34.99
893.374	-10.07
893.545	94.38
893.716	53.42
893.887	71.85
894.057	-28.5
894.228	34.99
894.399	-46.93
894.57	100.52
894.74	43.18
894.911	-20.31
895.082	-1.88
895.253	2.22
895.423	47.27
895.594	-22.36
895.764	80.04
895.935	18.6
896.106	37.03
896.276	-8.02
896.447	49.32
896.617	12.46
896.788	-46.93
896.958	-1.88
897.129	41.13
897.299	37.03
897.47	106.67
897.64	112.81
897.81	26.79
897.981	53.42
898.151	-69.46
898.322	22.7
898.492	51.37
898.662	10.41
898.832	-55.12
899.003	10.41
899.173	43.18
899.343	2.22
899.513	34.99
