Data from USB4F104151__52__14-29-59-507.txt Node

Date: Thu Mar 13 14:29:59 EDT 2025
User: louis
Spectrometer: USB4F10415
Trigger mode: 4
Integration Time (sec): 2.500000E-2
Scans to average: 1
Electric dark correction enabled: true
Nonlinearity correction enabled: false
Boxcar width: 0
XAxis mode: Wavelengths
Number of Pixels in Spectrum: 3648
>>>>>Begin Spectral Data<<<<<
178.204	-146.43
178.424	-146.43
178.644	-146.43
178.864	-158.72
179.084	-150.53
179.304	-33.79
179.524	19.46
179.744	-44.03
179.964	-5.12
180.184	1.02
180.404	33.79
180.624	37.89
180.844	35.84
181.064	-9.22
181.283	66.56
181.503	-93.18
181.723	-9.22
181.943	-70.65
182.163	66.56
182.383	-17.41
182.602	52.22
182.822	17.41
183.042	35.84
183.262	35.84
183.482	33.79
183.701	48.13
183.921	52.22
184.141	-1.02
184.361	15.36
184.58	-15.36
184.8	-9.22
185.02	15.36
185.239	37.89
185.459	13.31
185.679	-50.18
185.898	-21.5
186.118	31.74
186.338	3.07
186.557	25.6
186.777	-41.98
186.997	64.51
187.216	-25.6
187.436	25.6
187.655	23.55
187.875	68.61
188.095	7.17
188.314	37.89
188.534	91.13
188.753	23.55
188.973	-1.02
189.192	74.75
189.412	44.03
189.631	56.32
189.851	15.36
190.07	21.5
190.29	-50.18
190.509	-1.02
190.729	-33.79
190.948	31.74
191.168	154.62
191.387	117.76
191.607	-48.13
191.826	-23.55
192.045	-1.02
192.265	19.46
192.484	39.94
192.704	9.22
192.923	-37.89
193.142	103.42
193.362	23.55
193.581	7.17
193.8	31.74
194.02	48.13
194.239	-3.07
194.458	-1.02
194.678	-35.84
194.897	39.94
195.116	11.26
195.335	89.09
195.555	-35.84
195.774	9.22
195.993	56.32
196.212	-3.07
196.432	99.33
196.651	-82.94
196.87	5.12
197.089	138.24
197.308	3.07
197.528	52.22
197.747	31.74
197.966	5.12
198.185	64.51
198.404	17.41
198.623	9.22
198.842	64.51
199.062	89.09
199.281	52.22
199.5	-25.6
199.719	-31.74
199.938	76.8
200.157	25.6
200.376	72.7
200.595	31.74
200.814	72.7
201.033	-5.12
201.252	3.07
201.471	-15.36
201.69	54.27
201.909	64.51
202.128	-48.13
202.347	-1.02
202.566	11.26
202.785	-82.94
203.004	72.7
203.223	41.98
203.442	-17.41
203.661	39.94
203.879	56.32
204.098	50.18
204.317	-21.5
204.536	50.18
204.755	15.36
204.974	74.75
205.193	1.02
205.411	-3.07
205.63	56.32
205.849	93.18
206.068	-3.07
206.287	-1.02
206.505	1.02
206.724	121.85
206.943	39.94
207.162	52.22
207.381	113.66
207.599	-35.84
207.818	58.37
208.037	-21.5
208.255	27.65
208.474	-5.12
208.693	23.55
208.911	44.03
209.13	44.03
209.349	60.42
209.567	58.37
209.786	41.98
210.005	62.46
210.223	27.65
210.442	-29.7
210.661	7.17
210.879	56.32
211.098	7.17
211.316	-54.27
211.535	123.9
211.753	7.17
211.972	91.13
212.191	-15.36
212.409	76.8
212.628	58.37
212.846	31.74
213.065	-9.22
213.283	68.61
213.502	-37.89
213.72	74.75
213.938	66.56
214.157	19.46
214.375	27.65
214.594	-41.98
214.812	-9.22
215.031	27.65
215.249	-21.5
215.467	-15.36
215.686	-66.56
215.904	44.03
216.122	-23.55
216.341	50.18
216.559	74.75
216.778	39.94
216.996	3.07
217.214	7.17
217.432	-31.74
217.651	-9.22
217.869	17.41
218.087	66.56
218.306	-41.98
218.524	-50.18
218.742	89.09
218.96	84.99
219.179	41.98
219.397	-13.31
219.615	58.37
219.833	72.7
220.051	-5.12
220.27	66.56
220.488	89.09
220.706	15.36
220.924	48.13
221.142	-35.84
221.36	-5.12
221.578	72.7
221.796	-17.41
222.015	-15.36
222.233	60.42
222.451	87.04
222.669	-1.02
222.887	39.94
223.105	-29.7
223.323	7.17
223.541	-21.5
223.759	46.08
223.977	27.65
224.195	41.98
224.413	-5.12
224.631	50.18
224.849	48.13
225.067	82.94
225.285	-54.27
225.503	39.94
225.721	-97.28
225.939	-1.02
226.157	31.74
226.375	181.25
226.592	-9.22
226.81	39.94
227.028	15.36
227.246	66.56
227.464	-37.89
227.682	-17.41
227.9	19.46
228.117	48.13
228.335	66.56
228.553	80.89
228.771	7.17
228.989	39.94
229.206	7.17
229.424	3.07
229.642	68.61
229.86	1.02
230.077	54.27
230.295	70.65
230.513	23.55
230.731	84.99
230.948	27.65
231.166	146.43
231.384	62.46
231.601	1.02
231.819	117.76
232.037	44.03
232.254	-5.12
232.472	15.36
232.689	27.65
232.907	46.08
233.125	-21.5
233.342	48.13
233.56	-54.27
233.777	41.98
233.995	-23.55
234.213	103.42
234.43	33.79
234.648	82.94
234.865	-58.37
235.083	-31.74
235.3	3.07
235.518	48.13
235.735	44.03
235.953	11.26
236.17	19.46
236.388	15.36
236.605	25.6
236.822	39.94
237.04	33.79
237.257	-41.98
237.475	-50.18
237.692	33.79
237.909	64.51
238.127	52.22
238.344	-29.7
238.562	80.89
238.779	-50.18
238.996	-1.02
239.214	19.46
239.431	15.36
239.648	-56.32
239.865	-23.55
240.083	17.41
240.3	1.02
240.517	-33.79
240.735	72.7
240.952	19.46
241.169	97.28
241.386	1.02
241.603	25.6
241.821	3.07
242.038	66.56
242.255	-9.22
242.472	-7.17
242.689	9.22
242.907	7.17
243.124	-9.22
243.341	7.17
243.558	-37.89
243.775	7.17
243.992	-80.89
244.209	-9.22
244.426	56.32
244.643	5.12
244.86	-23.55
245.078	48.13
245.295	33.79
245.512	9.22
245.729	-17.41
245.946	74.75
246.163	-39.94
246.38	97.28
246.597	13.31
246.814	7.17
247.031	9.22
247.248	-19.46
247.464	15.36
247.681	80.89
247.898	-7.17
248.115	48.13
248.332	9.22
248.549	82.94
248.766	62.46
248.983	121.85
249.2	-78.85
249.417	39.94
249.633	50.18
249.85	23.55
250.067	23.55
250.284	-35.84
250.501	23.55
250.717	-3.07
250.934	27.65
251.151	15.36
251.368	27.65
251.585	48.13
251.801	23.55
252.018	-17.41
252.235	52.22
252.451	1.02
252.668	-1.02
252.885	-9.22
253.102	-1.02
253.318	46.08
253.535	-50.18
253.752	7.17
253.968	21.5
254.185	-7.17
254.401	15.36
254.618	3.07
254.835	15.36
255.051	68.61
255.268	64.51
255.484	7.17
255.701	-52.22
255.917	-3.07
256.134	-99.33
256.351	33.79
256.567	-66.56
256.784	66.56
257	-72.7
257.217	17.41
257.433	89.09
257.65	-19.46
257.866	58.37
258.082	-46.08
258.299	7.17
258.515	105.47
258.732	52.22
258.948	-74.75
259.165	-66.56
259.381	48.13
259.597	-1.02
259.814	-1.02
260.03	-39.94
260.246	80.89
260.463	64.51
260.679	31.74
260.895	9.22
261.112	19.46
261.328	39.94
261.544	33.79
261.761	87.04
261.977	-1.02
262.193	-21.5
262.409	89.09
262.626	27.65
262.842	23.55
263.058	-13.31
263.274	13.31
263.49	25.6
263.707	101.37
263.923	27.65
264.139	-68.61
264.355	21.5
264.571	37.89
264.787	1.02
265.004	56.32
265.22	-31.74
265.436	-5.12
265.652	-33.79
265.868	-1.02
266.084	-9.22
266.3	23.55
266.516	-74.75
266.732	-9.22
266.948	-3.07
267.164	56.32
267.38	21.5
267.596	54.27
267.812	31.74
268.028	27.65
268.244	-9.22
268.46	48.13
268.676	44.03
268.892	33.79
269.108	-21.5
269.324	31.74
269.54	-72.7
269.756	-9.22
269.972	-9.22
270.188	21.5
270.403	11.26
270.619	-3.07
270.835	39.94
271.051	35.84
271.267	-7.17
271.483	-78.85
271.698	27.65
271.914	33.79
272.13	-9.22
272.346	72.7
272.562	37.89
272.777	-54.27
272.993	-33.79
273.209	31.74
273.425	-33.79
273.64	9.22
273.856	134.14
274.072	15.36
274.287	21.5
274.503	48.13
274.719	105.47
274.934	-25.6
275.15	-29.7
275.366	1.02
275.581	19.46
275.797	74.75
276.012	-44.03
276.228	-1.02
276.444	41.98
276.659	82.94
276.875	-35.84
277.09	-7.17
277.306	-17.41
277.521	91.13
277.737	17.41
277.952	-5.12
278.168	-33.79
278.383	-46.08
278.599	23.55
278.814	-1.02
279.03	31.74
279.245	117.76
279.461	9.22
279.676	31.74
279.892	-54.27
280.107	7.17
280.322	82.94
280.538	19.46
280.753	39.94
280.969	-23.55
281.184	33.79
281.399	70.65
281.615	-64.51
281.83	31.74
282.045	48.13
282.26	-3.07
282.476	25.6
282.691	-50.18
282.906	13.31
283.122	7.17
283.337	-17.41
283.552	-9.22
283.767	-29.7
283.983	93.18
284.198	39.94
284.413	66.56
284.628	-15.36
284.843	-17.41
285.058	-7.17
285.274	33.79
285.489	-68.61
285.704	82.94
285.919	-31.74
286.134	39.94
286.349	-1.02
286.564	-13.31
286.779	54.27
286.995	72.7
287.21	-19.46
287.425	111.61
287.64	3.07
287.855	-5.12
288.07	-87.04
288.285	3.07
288.5	60.42
288.715	48.13
288.93	7.17
289.145	27.65
289.36	19.46
289.575	-37.89
289.79	23.55
290.004	-3.07
290.219	31.74
290.434	-56.32
290.649	-37.89
290.864	72.7
291.079	31.74
291.294	103.42
291.509	41.98
291.724	-29.7
291.938	-5.12
292.153	7.17
292.368	-33.79
292.583	-17.41
292.798	35.84
293.012	7.17
293.227	60.42
293.442	56.32
293.657	-1.02
293.871	72.7
294.086	-31.74
294.301	19.46
294.516	-1.02
294.73	56.32
294.945	7.17
295.16	21.5
295.374	29.7
295.589	74.75
295.804	-17.41
296.018	1.02
296.233	72.7
296.447	7.17
296.662	11.26
296.877	84.99
297.091	87.04
297.306	44.03
297.52	105.47
297.735	54.27
297.949	-50.18
298.164	78.85
298.378	107.52
298.593	52.22
298.807	-37.89
299.022	33.79
299.236	76.8
299.451	3.07
299.665	93.18
299.88	52.22
300.094	19.46
300.309	58.37
300.523	82.94
300.737	56.32
300.952	-50.18
301.166	15.36
301.381	72.7
301.595	-15.36
301.809	41.98
302.024	23.55
302.238	11.26
302.452	89.09
302.667	-23.55
302.881	138.24
303.095	27.65
303.309	46.08
303.524	9.22
303.738	56.32
303.952	97.28
304.166	23.55
304.381	-97.28
304.595	31.74
304.809	23.55
305.023	107.52
305.237	23.55
305.452	9.22
305.666	62.46
305.88	62.46
306.094	23.55
306.308	58.37
306.522	41.98
306.736	-35.84
306.95	25.6
307.164	-29.7
307.379	-41.98
307.593	72.7
307.807	52.22
308.021	89.09
308.235	-35.84
308.449	-66.56
308.663	56.32
308.877	56.32
309.091	-21.5
309.305	72.7
309.519	-1.02
309.733	-17.41
309.947	66.56
310.161	82.94
310.374	-5.12
310.588	105.47
310.802	56.32
311.016	-25.6
311.23	66.56
311.444	-13.31
311.658	17.41
311.872	41.98
312.085	72.7
312.299	105.47
312.513	46.08
312.727	89.09
312.941	7.17
313.154	33.79
313.368	7.17
313.582	15.36
313.796	17.41
314.009	11.26
314.223	44.03
314.437	21.5
314.651	-50.18
314.864	46.08
315.078	-17.41
315.292	1.02
315.505	-21.5
315.719	-33.79
315.933	11.26
316.146	25.6
316.36	-1.02
316.573	105.47
316.787	82.94
317.001	41.98
317.214	-33.79
317.428	-7.17
317.641	-50.18
317.855	-17.41
318.068	84.99
318.282	111.61
318.495	74.75
318.709	17.41
318.922	37.89
319.136	72.7
319.349	17.41
319.563	56.32
319.776	52.22
319.99	11.26
320.203	44.03
320.417	-7.17
320.63	66.56
320.843	60.42
321.057	56.32
321.27	-58.37
321.483	48.13
321.697	54.27
321.91	11.26
322.124	66.56
322.337	-5.12
322.55	-17.41
322.763	56.32
322.977	105.47
323.19	-9.22
323.403	66.56
323.617	41.98
323.83	76.8
324.043	-15.36
324.256	29.7
324.469	-35.84
324.683	64.51
324.896	68.61
325.109	52.22
325.322	-35.84
325.535	99.33
325.748	52.22
325.962	1.02
326.175	13.31
326.388	-5.12
326.601	23.55
326.814	68.61
327.027	9.22
327.24	87.04
327.453	-9.22
327.666	-15.36
327.879	66.56
328.092	31.74
328.305	-41.98
328.518	35.84
328.731	-37.89
328.944	-1.02
329.157	74.75
329.37	48.13
329.583	29.7
329.796	62.46
330.009	-1.02
330.222	82.94
330.435	39.94
330.648	-25.6
330.861	37.89
331.073	23.55
331.286	121.85
331.499	31.74
331.712	-9.22
331.925	27.65
332.138	31.74
332.35	-5.12
332.563	52.22
332.776	39.94
332.989	15.36
333.202	39.94
333.414	76.8
333.627	-1.02
333.84	-41.98
334.053	58.37
334.265	-7.17
334.478	9.22
334.691	15.36
334.903	74.75
335.116	-1.02
335.329	-29.7
335.541	46.08
335.754	31.74
335.966	37.89
336.179	3.07
336.392	-1.02
336.604	60.42
336.817	23.55
337.029	66.56
337.242	21.5
337.454	72.7
337.667	-9.22
337.88	39.94
338.092	-5.12
338.305	-15.36
338.517	-60.42
338.729	35.84
338.942	54.27
339.154	27.65
339.367	7.17
339.579	99.33
339.792	7.17
340.004	113.66
340.217	-58.37
340.429	39.94
340.641	-1.02
340.854	-46.08
341.066	11.26
341.278	50.18
341.491	68.61
341.703	78.85
341.915	-19.46
342.128	74.75
342.34	9.22
342.552	74.75
342.764	7.17
342.977	-3.07
343.189	48.13
343.401	74.75
343.613	56.32
343.826	7.17
344.038	50.18
344.25	84.99
344.462	31.74
344.674	15.36
344.886	50.18
345.099	50.18
345.311	31.74
345.523	17.41
345.735	-17.41
345.947	29.7
346.159	-1.02
346.371	72.7
346.583	-5.12
346.795	130.05
347.007	48.13
347.219	7.17
347.431	-11.26
347.643	91.13
347.855	-31.74
348.067	48.13
348.279	-56.32
348.491	29.7
348.703	27.65
348.915	56.32
349.127	-25.6
349.339	103.42
349.551	31.74
349.763	46.08
349.975	39.94
350.187	39.94
350.399	60.42
350.61	74.75
350.822	-25.6
351.034	64.51
351.246	39.94
351.458	-33.79
351.669	27.65
351.881	44.03
352.093	39.94
352.305	48.13
352.517	13.31
352.728	52.22
352.94	-25.6
353.152	89.09
353.363	17.41
353.575	3.07
353.787	48.13
353.999	19.46
354.21	62.46
354.422	-25.6
354.633	-44.03
354.845	17.41
355.057	23.55
355.268	17.41
355.48	7.17
355.692	-9.22
355.903	15.36
356.115	19.46
356.326	-54.27
356.538	41.98
356.749	89.09
356.961	72.7
357.172	39.94
357.384	23.55
357.595	64.51
357.807	37.89
358.018	-33.79
358.23	-52.22
358.441	84.99
358.653	52.22
358.864	25.6
359.075	-19.46
359.287	15.36
359.498	48.13
359.709	58.37
359.921	31.74
360.132	1.02
360.344	113.66
360.555	31.74
360.766	-11.26
360.977	3.07
361.189	84.99
361.4	33.79
361.611	158.72
361.823	-5.12
362.034	23.55
362.245	-99.33
362.456	99.33
362.667	64.51
362.879	-29.7
363.09	-41.98
363.301	56.32
363.512	-37.89
363.723	15.36
363.935	48.13
364.146	113.66
364.357	-103.42
364.568	87.04
364.779	-29.7
364.99	78.85
365.201	-33.79
365.412	17.41
365.623	-7.17
365.834	48.13
366.045	15.36
366.256	58.37
366.467	-78.85
366.678	-21.5
366.889	54.27
367.1	25.6
367.311	-1.02
367.522	64.51
367.733	97.28
367.944	115.71
368.155	11.26
368.366	66.56
368.577	97.28
368.788	58.37
368.999	-33.79
369.209	3.07
369.42	109.57
369.631	105.47
369.842	-23.55
370.053	72.7
370.264	39.94
370.474	-37.89
370.685	48.13
370.896	11.26
371.107	-15.36
371.317	66.56
371.528	33.79
371.739	89.09
371.95	62.46
372.16	15.36
372.371	5.12
372.582	82.94
372.792	56.32
373.003	11.26
373.214	17.41
373.424	-9.22
373.635	1.02
373.846	80.89
374.056	46.08
374.267	35.84
374.477	54.27
374.688	41.98
374.898	64.51
375.109	41.98
375.319	70.65
375.53	50.18
375.74	68.61
375.951	23.55
376.161	41.98
376.372	68.61
376.582	48.13
376.793	64.51
377.003	74.75
377.214	-11.26
377.424	23.55
377.635	-23.55
377.845	-87.04
378.055	142.33
378.266	-5.12
378.476	7.17
378.686	97.28
378.897	1.02
379.107	99.33
379.317	107.52
379.528	-13.31
379.738	97.28
379.948	-21.5
380.158	64.51
380.369	64.51
380.579	91.13
380.789	15.36
380.999	103.42
381.21	-17.41
381.42	80.89
381.63	15.36
381.84	15.36
382.05	39.94
382.261	138.24
382.471	5.12
382.681	56.32
382.891	93.18
383.101	27.65
383.311	-23.55
383.521	31.74
383.731	56.32
383.941	-7.17
384.151	82.94
384.361	31.74
384.571	35.84
384.781	39.94
384.991	25.6
385.201	82.94
385.411	62.46
385.621	-1.02
385.831	29.7
386.041	27.65
386.251	19.46
386.461	72.7
386.671	35.84
386.881	64.51
387.091	91.13
387.301	-25.6
387.511	97.28
387.72	25.6
387.93	31.74
388.14	17.41
388.35	48.13
388.56	107.52
388.769	107.52
388.979	66.56
389.189	50.18
389.399	66.56
389.609	64.51
389.818	74.75
390.028	52.22
390.238	50.18
390.447	50.18
390.657	74.75
390.867	5.12
391.076	-7.17
391.286	78.85
391.496	72.7
391.705	17.41
391.915	82.94
392.125	97.28
392.334	64.51
392.544	80.89
392.753	95.23
392.963	-29.7
393.172	7.17
393.382	46.08
393.591	130.05
393.801	68.61
394.01	158.72
394.22	158.72
394.429	35.84
394.639	56.32
394.848	46.08
395.058	89.09
395.267	64.51
395.477	128
395.686	9.22
395.895	101.37
396.105	154.62
396.314	89.09
396.524	82.94
396.733	27.65
396.942	150.53
397.152	56.32
397.361	181.25
397.57	78.85
397.78	119.81
397.989	44.03
398.198	171.01
398.407	50.18
398.617	113.66
398.826	72.7
399.035	48.13
399.244	134.14
399.453	168.96
399.663	134.14
399.872	97.28
400.081	89.09
400.29	80.89
400.499	60.42
400.708	121.85
400.917	64.51
401.127	52.22
401.336	11.26
401.545	160.77
401.754	125.95
401.963	189.44
402.172	66.56
402.381	39.94
402.59	93.18
402.799	58.37
403.008	80.89
403.217	101.37
403.426	142.33
403.635	97.28
403.844	121.85
404.053	214.01
404.262	134.14
404.471	201.72
404.68	154.62
404.888	171.01
405.097	150.53
405.306	205.82
405.515	148.48
405.724	111.61
405.933	160.77
406.142	207.87
406.35	250.88
406.559	201.72
406.768	162.81
406.977	236.54
407.185	189.44
407.394	171.01
407.603	197.63
407.812	246.78
408.02	175.1
408.229	152.57
408.438	275.45
408.646	181.25
408.855	265.21
409.064	326.65
409.272	257.02
409.481	308.22
409.69	220.16
409.898	316.41
410.107	312.32
410.315	320.51
410.524	392.19
410.733	328.7
410.941	418.81
411.15	424.95
411.358	422.91
411.567	482.3
411.775	441.34
411.984	500.73
412.192	502.78
412.401	451.58
412.609	599.03
412.818	553.98
413.026	605.17
413.234	482.3
413.443	545.78
413.651	545.78
413.86	594.93
414.068	697.33
414.276	613.37
414.485	601.08
414.693	693.24
414.901	760.82
415.11	777.2
415.318	670.71
415.526	891.89
415.734	803.83
415.943	795.64
416.151	947.19
416.359	871.41
416.567	932.85
416.776	951.28
416.984	1002.48
417.192	1014.77
417.4	982
417.608	965.62
417.817	1162.22
418.025	1160.17
418.233	1252.33
418.441	1258.48
418.649	1223.66
418.857	1426.41
419.065	1364.97
419.273	1334.25
419.481	1416.17
419.689	1604.58
419.897	1571.82
420.105	1686.5
420.313	1625.06
420.521	1809.38
420.729	1770.47
420.937	1778.66
421.145	1838.05
421.353	1993.7
421.561	2071.52
421.769	2114.53
421.977	2251.74
422.185	2192.35
422.393	2337.76
422.601	2434.01
422.809	2374.62
423.017	2384.86
423.224	2532.31
423.432	2669.53
423.64	2608.09
423.848	3011.54
424.056	2784.21
424.263	3023.83
424.471	2991.06
424.679	3079.12
424.887	3345.36
425.094	3365.84
425.302	3365.84
425.51	3558.35
425.718	3587.02
425.925	3734.47
426.133	4051.91
426.341	4119.49
426.548	4299.71
426.756	4211.65
426.964	4314.05
427.171	4479.93
427.379	4619.19
427.586	4621.24
427.794	4826.04
428.001	5163.95
428.209	5282.74
428.417	5039.03
428.624	5407.66
428.832	5440.43
429.039	5536.68
429.247	5559.21
429.454	6026.15
429.662	6507.42
429.869	6020
430.076	6482.85
430.284	6366.11
430.491	6601.63
430.699	6935.45
430.906	6912.92
431.114	6955.93
431.321	7136.15
431.528	7461.77
431.736	7889.8
431.943	8270.72
432.15	7902.09
432.358	8143.75
432.565	8461.18
432.772	8313.73
432.979	8803.19
433.187	9020.28
433.394	9118.58
433.601	9837.42
433.808	9753.45
434.016	9522.03
434.223	10083.17
434.43	10683.23
434.637	10410.85
434.844	11107.16
435.052	11289.43
435.259	11279.19
435.466	11467.6
435.673	11080.53
435.88	12163.91
436.087	12745.53
436.294	12702.53
436.501	12337.99
436.708	12577.6
436.915	12970.81
437.122	13581.1
437.329	13392.69
437.537	13933.36
437.743	14179.11
437.95	13994.79
438.157	14711.58
438.364	15340.31
438.571	14863.13
438.778	15575.83
438.985	16749.31
439.192	15887.12
439.399	16517.89
439.606	16442.12
439.813	17128.19
440.02	17939.18
440.227	17603.32
440.433	17674.99
440.64	18010.86
440.847	17847.02
441.054	18311.91
441.261	19712.72
441.467	19262.17
441.674	19593.94
441.881	20173.52
442.088	20566.73
442.294	19935.95
442.501	20720.32
442.708	21314.23
442.914	22047.41
443.121	23005.86
443.328	22215.34
443.534	23988.88
443.741	23206.56
443.948	22989.47
444.154	24906.37
444.361	24349.32
444.568	24720.01
444.774	24478.35
444.981	25008.77
445.187	25430.65
445.394	26681.96
445.6	26452.59
445.807	28895.82
446.013	27294.3
446.22	28324.43
446.426	29127.24
446.633	29440.57
446.839	30280.24
447.046	28926.53
447.252	30431.79
447.459	30827.05
447.665	30376.5
447.871	32100.89
448.078	33137.16
448.284	32002.58
448.491	32533.01
448.697	33808.89
448.903	34306.55
449.11	34621.94
449.316	33970.68
449.522	34556.4
449.728	35510.75
449.935	35930.59
450.141	35607.01
450.347	36293.08
450.553	35641.82
450.76	35951.07
450.966	37042.63
451.172	36678.1
451.378	37405.13
451.584	36878.8
451.791	37671.36
451.997	37413.32
452.203	38003.13
452.409	38201.79
452.615	37755.33
452.821	36641.23
453.027	35934.68
453.233	38001.08
453.44	36645.33
453.646	37093.83
453.852	37065.16
454.058	37646.79
454.264	36153.82
454.47	37216.71
454.676	36254.17
454.882	37556.67
455.088	34386.42
455.294	34918.89
455.5	35508.71
455.705	35516.9
455.911	34146.81
456.117	33561.09
456.323	33151.49
456.529	31250.98
456.735	32619.02
456.941	31640.09
457.147	31261.22
457.352	30462.51
457.558	29983.29
457.764	30102.07
457.97	29571.64
458.176	28842.57
458.381	28809.8
458.587	27605.59
458.793	27232.86
458.999	25670.26
459.204	27732.57
459.41	27097.7
459.616	24961.67
459.821	25436.8
460.027	25168.51
460.233	24828.55
460.438	23521.95
460.644	23558.81
460.85	22481.58
461.055	22430.38
461.261	22028.98
461.466	20509.38
461.672	19720.92
461.878	21496.5
462.083	19927.76
462.289	19284.7
462.494	19196.64
462.7	18326.25
462.905	17734.39
463.111	18485.99
463.316	18606.82
463.522	18152.17
463.727	18143.98
463.932	18203.37
464.138	17951.47
464.343	17799.92
464.549	17449.72
464.754	18119.4
464.959	17650.42
465.165	17959.66
465.37	17132.28
465.575	16444.17
465.781	17134.33
465.986	17484.53
466.191	16581.38
466.397	16442.12
466.602	15285.01
466.807	16100.11
467.012	15778.58
467.218	15997.71
467.423	15817.49
467.628	15850.25
467.833	16315.14
468.038	15854.35
468.244	15502.1
468.449	15856.4
468.654	15541.01
468.859	15391.51
469.064	15368.98
469.269	14318.37
469.474	14777.12
469.679	14826.27
469.885	14644
470.09	14863.13
470.295	14902.04
470.5	14164.78
470.705	14261.03
470.91	13966.12
471.115	13863.72
471.32	14127.91
471.525	14041.9
471.73	13624.11
471.935	13667.12
472.139	13024.06
472.344	13269.81
472.549	13351.73
472.754	13204.28
472.959	12911.42
473.164	12467.01
473.369	12399.43
473.574	12899.13
473.778	12657.47
473.983	12604.22
474.188	12424
474.393	11782.99
474.598	11959.11
474.802	11928.39
475.007	11762.51
475.212	11653.97
475.417	11219.8
475.621	11551.57
475.826	11361.11
476.031	11111.25
476.235	10963.8
476.44	11082.58
476.645	10799.96
476.849	10814.3
477.054	10767.2
477.259	10812.25
477.463	10623.84
477.668	10328.93
477.872	10560.35
478.077	10158.95
478.282	9798.51
478.486	10103.65
478.691	9894.76
478.895	9872.23
479.1	9845.61
479.304	10062.69
479.509	9526.13
479.713	9902.95
479.918	9591.66
480.122	9360.24
480.326	9364.34
480.531	9395.06
480.735	9327.47
480.94	9175.92
481.144	9540.46
481.348	9118.58
481.553	9251.7
481.757	8946.55
481.961	9137.01
482.166	9341.81
482.37	9220.98
482.574	8878.97
482.778	9055.09
482.983	9290.61
483.187	9001.85
483.391	9020.28
483.595	8917.88
483.8	8985.46
484.004	9044.85
484.208	9053.05
484.412	9005.94
484.616	9077.62
484.821	8971.13
485.025	8807.29
485.229	9038.71
485.433	8969.08
485.637	8952.7
485.841	8856.44
486.045	8846.2
486.249	9048.95
486.453	9022.33
486.657	8987.51
486.861	8962.94
487.065	8688.51
487.269	8928.12
487.473	8782.71
487.677	9114.48
487.881	8981.37
488.085	8950.65
488.289	8960.89
488.493	8809.34
488.697	8983.41
488.901	9026.42
489.105	8772.47
489.309	8911.74
489.512	8995.7
489.716	9218.93
489.92	8971.13
490.124	8823.67
490.328	9112.44
490.531	9005.94
490.735	9026.42
490.939	8940.41
491.143	8958.84
491.346	8907.64
491.55	9306.99
491.754	9001.85
491.958	9456.5
492.161	9116.53
492.365	9241.46
492.569	9313.14
492.772	9128.82
492.976	9286.51
493.18	9407.34
493.383	9399.15
493.587	9405.3
493.79	9628.53
493.994	9524.08
494.197	9452.4
494.401	9493.36
494.605	9778.03
494.808	9917.29
495.012	9831.27
495.215	9993.06
495.419	9808.75
495.622	9939.82
495.825	10011.5
496.029	9913.19
496.232	10255.2
496.436	10107.75
496.639	10537.82
496.843	10419.04
497.046	10672.99
497.249	10595.17
497.453	10759
497.656	10613.6
497.859	10871.64
498.063	10984.28
498.266	10994.52
498.469	11064.15
498.673	11172.69
498.876	11162.45
499.079	11354.96
499.282	11420.5
499.485	11719.5
499.689	11463.51
499.892	11869
500.095	11893.58
500.298	12282.69
500.501	12034.89
500.705	12387.14
500.908	12335.94
501.111	12587.84
501.314	12667.71
501.517	12761.92
501.72	12888.89
501.923	12835.64
502.126	13343.54
502.329	13290.29
502.532	13646.64
502.735	13536.05
502.938	13802.29
503.141	13947.69
503.344	13933.36
503.547	13886.25
503.75	14291.75
503.953	14345
504.156	14383.91
504.359	14928.67
504.562	14861.09
504.765	14967.58
504.968	14986.01
505.17	15203.1
505.373	15325.97
505.576	15481.62
505.779	15645.46
505.982	15813.39
506.185	16098.06
506.387	16188.17
506.59	16442.12
506.793	16515.84
506.996	16487.17
507.198	16917.25
507.401	16964.35
507.604	16995.07
507.807	17369.85
508.009	17701.62
508.212	17613.56
508.415	17687.28
508.617	17900.27
508.82	18184.94
509.022	18019.05
509.225	18369.26
509.428	18823.9
509.63	18748.13
509.833	18713.31
510.035	19237.59
510.238	19290.84
510.44	19292.89
510.643	19827.41
510.845	19847.89
511.048	19913.42
511.25	20302.54
511.453	20513.48
511.655	21088.96
511.858	20554.44
512.06	20816.58
512.262	21199.55
512.465	21086.91
512.667	21392.06
512.87	21598.9
513.072	21945.01
513.274	22035.12
513.477	22317.74
513.679	22239.92
513.881	22913.7
514.084	22809.25
514.286	22692.52
514.488	23370.4
514.69	23538.33
514.893	23820.95
515.095	24017.55
515.297	24224.4
515.499	24345.23
515.701	24392.33
515.904	24773.25
516.106	24834.69
516.308	25049.73
516.51	25434.75
516.712	25608.83
516.914	25901.68
517.116	25617.02
517.318	25748.09
517.52	26389.1
517.722	26202.74
517.925	26813.03
518.127	26927.72
518.329	27138.66
518.531	27042.4
518.733	27431.52
518.935	27634.27
519.136	27574.88
519.338	28150.35
519.54	27923.03
519.742	28213.84
519.944	28570.19
520.146	28791.37
520.348	28922.44
520.55	28897.86
520.752	29129.28
520.954	29448.77
521.155	29348.42
521.357	29715
521.559	29815.35
521.761	30112.31
521.963	29801.02
522.164	29979.19
522.366	30270
522.568	30890.54
522.77	30634.54
522.971	31359.52
523.173	30700.08
523.375	30804.52
523.576	30892.58
523.778	31044.13
523.98	31609.37
524.181	31425.06
524.383	31576.61
524.584	31818.27
524.786	31584.8
524.988	31535.65
525.189	31765.02
525.391	32197.14
525.592	32234
525.794	32215.57
525.995	32088.6
526.197	32059.93
526.398	32272.92
526.6	32360.98
526.801	32496.14
527.003	32746
527.204	32809.48
527.406	32897.55
527.607	32596.49
527.808	32967.18
528.01	32465.42
528.211	32674.32
528.412	33206.79
528.614	32737.8
528.815	33014.28
529.016	32721.42
529.218	32543.25
529.419	32870.92
529.62	32936.46
529.822	32999.94
530.023	32877.07
530.224	32780.81
530.425	33006.09
530.626	32356.88
530.828	32373.27
531.029	32856.59
531.23	32547.34
531.431	32457.23
531.632	32870.92
531.833	32733.71
532.035	32729.61
532.236	32631.31
532.437	32913.93
532.638	32272.92
532.839	32743.95
533.04	33055.24
533.241	32162.33
533.442	32739.85
533.643	32746
533.844	32291.35
534.045	32621.07
534.246	32145.94
534.447	32520.72
534.648	32322.07
534.849	32045.59
535.05	31836.7
535.251	32219.67
535.451	31504.93
535.652	32178.71
535.853	31900.19
536.054	31959.58
536.255	32037.4
536.456	31666.72
536.657	32174.61
536.857	31734.3
537.058	31636
537.259	31629.85
537.46	31711.77
537.66	31570.46
537.861	31922.71
538.062	31650.33
538.263	31687.2
538.463	31427.1
538.664	31488.54
538.865	31240.74
539.065	31810.07
539.266	31162.92
539.466	31662.62
539.667	31060.52
539.868	31754.78
540.068	31500.83
540.269	31328.8
540.469	31537.69
540.67	31158.82
540.87	31302.18
541.071	30882.34
541.271	31345.19
541.472	31195.68
541.672	31371.81
541.873	30972.46
542.073	30554.67
542.274	31128.1
542.474	31240.74
542.675	30927.4
542.875	31502.88
543.075	30982.7
543.276	30802.47
543.476	31109.67
543.676	30896.68
543.877	31007.27
544.077	30855.72
544.277	30554.67
544.478	30974.5
544.678	30788.14
544.878	30941.74
545.078	30929.45
545.279	30695.98
545.479	30616.11
545.679	30878.25
545.879	30931.5
546.079	30468.66
546.28	30800.43
546.48	30394.93
546.68	30777.9
546.88	30642.73
547.08	30700.08
547.28	30710.32
547.48	30222.9
547.68	30718.51
547.88	30329.39
548.081	30925.35
548.281	30640.68
548.481	30552.62
548.681	30790.19
548.881	30810.67
549.081	30632.49
549.28	30687.79
549.48	30698.03
549.68	30700.08
549.88	30827.05
550.08	30517.81
550.28	30831.15
550.48	30695.98
550.68	31279.65
550.88	30738.99
551.08	30544.43
551.279	30982.7
551.479	30765.61
551.679	30878.25
551.879	30859.82
552.079	31212.07
552.278	30607.92
552.478	31121.96
552.678	30765.61
552.878	31187.49
553.077	30997.03
553.277	30476.85
553.477	31130.15
553.676	30622.25
553.876	30704.17
554.076	30722.6
554.275	30962.22
554.475	30253.62
554.674	30784.04
554.874	30986.79
555.074	30671.4
555.273	31115.81
555.473	31380
555.672	30761.51
555.872	31238.69
556.071	31035.94
556.271	31132.2
556.47	31113.77
556.67	30874.15
556.869	31097.38
557.068	31189.54
557.268	30825
557.467	30827.05
557.667	31296.03
557.866	31367.71
558.065	30908.97
558.265	30923.3
558.464	30448.18
558.663	31085.09
558.863	30855.72
559.062	31531.55
559.261	30947.88
559.461	31158.82
559.66	30452.27
559.859	30851.63
560.058	30781.99
560.258	30997.03
560.457	30978.6
560.656	31183.4
560.855	30671.4
561.054	31089.19
561.253	30630.44
561.453	31201.83
561.652	31083.05
561.851	31556.13
562.05	30915.11
562.249	31027.75
562.448	31199.78
562.647	30845.48
562.846	31054.37
563.045	31011.37
563.244	30407.22
563.443	31238.69
563.642	30519.85
563.841	30655.02
564.04	30571.05
564.239	30994.98
564.438	30167.6
564.637	30657.07
564.836	30886.44
565.035	30241.33
565.234	30556.72
565.432	30456.37
565.631	30601.77
565.83	30417.46
566.029	30106.16
566.228	30126.64
566.427	29989.43
566.625	30161.46
566.824	29997.62
567.023	30179.89
567.222	30014.01
567.42	30235.19
567.619	30122.55
567.818	29946.42
568.016	29657.66
568.215	30077.49
568.414	29854.26
568.612	30126.64
568.811	29864.5
569.01	30100.02
569.208	29254.21
569.407	30011.96
569.605	29272.64
569.804	29700.67
570.002	29198.91
570.201	29669.95
570.4	29680.19
570.598	29180.48
570.797	29049.41
570.995	29176.39
571.193	28721.74
571.392	29180.48
571.59	28701.26
571.789	28768.84
571.987	28887.62
572.186	28795.46
572.384	28639.82
572.582	28486.22
572.781	28697.16
572.979	28592.72
573.177	28570.19
573.376	28639.82
573.574	28316.24
573.772	28275.28
573.971	27972.18
574.169	28158.55
574.367	27777.62
574.565	27974.23
574.763	27431.52
574.962	27540.06
575.16	27669.08
575.358	28052.05
575.556	27402.85
575.754	27898.45
575.952	27271.78
576.151	27714.14
576.349	26901.09
576.547	27320.93
576.745	27349.6
576.943	27210.34
577.141	26874.47
577.339	26868.33
577.537	26763.88
577.735	26665.58
577.933	26460.78
578.131	26544.75
578.329	26258.03
578.527	26444.4
578.725	26581.61
578.923	26255.98
579.121	26104.43
579.319	26536.56
579.516	26290.8
579.714	26245.74
579.912	26114.67
580.11	26151.54
580.308	25963.12
580.506	26036.85
580.704	25531
580.901	25705.08
581.099	25848.44
581.297	25709.18
581.495	25301.63
581.692	25586.3
581.89	25242.24
582.088	25485.95
582.285	25328.25
582.483	25901.68
582.681	25125.5
582.878	25141.89
583.076	24930.95
583.274	25391.74
583.471	24822.41
583.669	25049.73
583.866	24777.35
584.064	24838.79
584.262	24648.33
584.459	24730.25
584.657	24480.39
584.854	24928.9
585.052	24171.15
585.249	24355.47
585.447	24644.23
585.644	23806.61
585.841	24459.91
586.039	24271.5
586.236	24283.79
586.434	23982.74
586.631	23952.02
586.828	24038.03
587.026	24007.31
587.223	23816.85
587.42	23552.66
587.618	23947.92
587.815	23550.62
588.012	23583.38
588.21	23505.56
588.407	23495.32
588.604	23569.05
588.801	23325.34
588.999	23626.39
589.196	23368.35
589.393	23413.4
589.59	22936.23
589.787	22995.62
589.984	23368.35
590.182	23014.05
590.379	23009.95
590.576	23079.58
590.773	22799.01
590.97	22819.49
591.167	22962.85
591.364	22547.11
591.561	22866.6
591.758	22950.56
591.955	22485.67
592.152	22700.71
592.349	22491.82
592.546	22534.82
592.743	22514.34
592.94	22301.36
593.137	22444.71
593.334	22422.19
593.531	22074.03
593.727	22248.11
593.924	22457
594.121	22268.59
594.318	22074.03
594.515	22016.69
594.712	22209.2
594.908	22352.55
595.105	22139.57
595.302	21854.9
595.499	22043.31
595.696	22047.41
595.892	22096.56
596.089	22141.61
596.286	22207.15
596.482	21723.83
596.679	22002.35
596.876	22043.31
597.072	21832.37
597.269	21508.79
597.466	21693.11
597.662	21973.68
597.859	21570.23
598.055	21955.25
598.252	21762.74
598.448	22016.69
598.645	21830.32
598.841	21729.97
599.038	21672.63
599.234	21885.62
599.431	21588.66
599.627	21619.38
599.824	21723.83
600.02	21648.05
600.217	21842.61
600.413	21717.68
600.609	21523.13
600.806	21625.53
601.002	21824.18
601.198	21734.07
601.395	21582.52
601.591	21650.1
601.787	21850.8
601.984	21592.76
602.18	21824.18
602.376	21842.61
602.572	21449.4
602.769	21836.47
602.965	21635.77
603.161	21834.42
603.357	21842.61
603.553	21619.38
603.75	21904.05
603.946	21568.18
604.142	21858.99
604.338	21668.53
604.534	21813.94
604.73	22076.08
604.926	21787.32
605.122	22035.12
605.318	21877.43
605.514	21777.08
605.71	21891.76
605.906	21926.58
606.102	22035.12
606.298	22100.65
606.494	22203.05
606.69	22053.55
606.886	22170.29
607.082	21793.46
607.278	22043.31
607.474	21744.31
607.67	21977.78
607.866	21873.33
608.062	22117.04
608.257	22129.33
608.453	22090.41
608.649	22588.07
608.845	22346.41
609.041	22184.62
609.236	22518.44
609.432	22164.14
609.628	22416.04
609.824	22248.11
610.019	22446.76
610.215	22446.76
610.411	22827.68
610.606	22483.62
610.802	22592.17
610.998	22426.28
611.193	22645.41
611.389	22882.98
611.584	22426.28
611.78	22465.19
611.976	22602.41
612.171	22622.89
612.367	22842.02
612.562	22438.57
612.758	22461.1
612.953	22534.82
613.149	22889.12
613.344	22565.54
613.539	22882.98
613.735	22827.68
613.93	22835.88
614.126	22831.78
614.321	23239.33
614.517	22938.27
614.712	22977.19
614.907	22844.07
615.103	22928.03
615.298	22839.97
615.493	23075.49
615.688	23009.95
615.884	23286.43
616.079	22862.5
616.274	22944.42
616.47	22737.57
616.665	23069.34
616.86	22657.7
617.055	23040.67
617.25	22770.34
617.445	22815.4
617.641	22502.06
617.836	23128.74
618.031	22629.03
618.226	22700.71
618.421	22620.84
618.616	23052.96
618.811	22506.15
619.006	22809.25
619.201	22375.08
619.396	22588.07
619.591	22350.51
619.786	22575.78
619.981	22108.85
620.176	22375.08
620.371	21904.05
620.566	22092.46
620.761	22063.79
620.956	22131.37
621.151	21783.22
621.346	21934.77
621.541	21902
621.735	21924.53
621.93	21482.17
622.125	21809.84
622.32	21181.12
622.515	21369.53
622.709	21365.43
622.904	21054.14
623.099	20853.44
623.294	21076.67
623.488	20718.28
623.683	20949.7
623.878	20558.53
624.072	20691.65
624.267	20689.6
624.462	20585.16
624.656	20136.65
624.851	20402.89
625.046	20370.12
625.24	20312.78
625.435	20122.32
625.629	19938
625.824	19839.7
626.018	19929.81
626.213	19546.84
626.407	19800.79
626.602	19339.99
626.796	19602.13
626.991	19391.19
627.185	19331.8
627.38	19243.74
627.574	19182.3
627.768	18754.27
627.963	18823.9
628.157	18547.43
628.352	18848.48
628.546	18549.48
628.74	18954.97
628.935	18461.41
629.129	18223.85
629.323	18393.83
629.517	18066.16
629.712	18029.29
629.906	18164.46
630.1	17808.11
630.294	17910.51
630.489	17908.46
630.683	17801.97
630.877	17765.1
631.071	17478.39
631.265	17779.44
631.459	17191.67
631.653	17607.41
631.848	17519.35
632.042	17023.74
632.236	17210.11
632.43	16935.68
632.624	16872.19
632.818	16722.69
633.012	16775.94
633.206	16538.37
633.4	16689.92
633.594	16233.22
633.788	16395.01
633.982	16626.43
634.176	16335.62
634.369	16327.43
634.563	16016.14
634.757	16190.22
634.951	16202.5
635.145	16012.04
635.339	16237.32
635.533	15495.96
635.726	15565.59
635.92	15612.69
636.114	15368.98
636.308	15307.54
636.501	15436.56
636.695	15338.26
636.889	15178.52
637.083	15022.87
637.276	15088.41
637.47	14859.04
637.664	14711.58
637.857	14783.26
638.051	14740.26
638.244	14420.77
638.438	14424.87
638.632	14318.37
638.825	14269.22
639.019	14244.65
639.212	14134.06
639.406	14170.92
639.599	13943.6
639.793	13738.8
639.986	13728.56
640.18	13828.91
640.373	13710.13
640.567	13470.51
640.76	13558.58
640.954	13370.16
641.147	13431.6
641.34	13392.69
641.534	13218.61
641.727	13118.26
641.92	13122.36
642.114	12847.93
642.307	12915.51
642.5	12802.88
642.694	12739.39
642.887	12294.98
643.08	12520.26
643.273	12753.73
643.467	12368.71
643.66	12305.22
643.853	12467.01
644.046	12022.6
644.239	12176.2
644.432	12049.22
644.626	11819.85
644.819	11778.89
645.012	11877.19
645.205	11903.82
645.398	11508.56
645.591	11606.86
645.784	11633.49
645.977	11361.11
646.17	11664.21
646.363	11387.73
646.556	11131.73
646.749	11160.41
646.942	11123.54
647.135	11090.77
647.328	10804.06
647.521	10910.55
647.714	10799.96
647.907	10822.49
648.099	10799.96
648.292	10863.45
648.485	10765.15
648.678	10703.71
648.871	10470.24
649.064	10333.03
649.256	10490.72
649.449	10535.78
649.642	10437.47
649.835	10005.35
650.027	10240.87
650.22	9960.3
650.413	9913.19
650.605	10025.83
650.798	9915.24
650.991	9847.66
651.183	9677.68
651.376	9661.29
651.568	9718.64
651.761	9597.81
651.954	9812.84
652.146	9603.95
652.339	9618.29
652.531	9454.45
652.724	9421.68
652.916	9292.66
653.109	9382.77
653.301	9104.25
653.494	9255.79
653.686	9061.24
653.879	9089.91
654.071	8973.18
654.263	8878.97
654.456	8989.56
654.648	9032.57
654.84	8821.63
655.033	8711.04
655.225	8919.93
655.417	8708.99
655.61	8684.41
655.802	8772.47
655.994	8711.04
656.186	8520.57
656.379	8641.4
656.571	8541.05
656.763	8469.37
656.955	8313.73
657.148	8625.02
657.34	8233.86
657.532	8129.41
657.724	8108.93
657.916	8137.6
658.108	8070.02
658.3	8092.55
658.492	8086.4
658.684	7922.57
658.876	7848.84
659.068	7877.51
659.26	7678.86
659.452	7748.49
659.644	7832.46
659.836	7693.19
660.028	7789.45
660.22	7617.42
660.412	7527.31
660.604	7656.33
660.796	7498.64
660.988	7605.13
661.18	7494.54
661.372	7306.13
661.563	7572.36
661.755	7154.58
661.947	7285.65
662.139	7248.79
662.331	7148.43
662.522	7031.7
662.714	7052.18
662.906	6988.69
663.097	6937.49
663.289	7035.8
663.481	6790.04
663.673	6847.38
663.864	6914.97
664.056	6992.79
664.247	6718.36
664.439	6675.35
664.631	6790.04
664.822	6652.83
665.014	6534.04
665.205	6626.2
665.397	6548.38
665.588	6499.23
665.78	6544.28
665.971	6515.61
666.163	6443.93
666.354	6448.03
666.546	6357.92
666.737	6347.68
666.929	6261.66
667.12	6300.58
667.311	6237.09
667.503	6232.99
667.694	6194.08
667.885	6130.59
668.077	6126.5
668.268	6054.82
668.459	6116.26
668.651	6208.42
668.842	6048.68
669.033	6003.62
669.224	5956.52
669.416	6044.58
669.607	5925.8
669.798	5843.88
669.989	5700.52
670.18	5663.66
670.371	5790.63
670.563	5815.21
670.754	5864.36
670.945	5807.02
671.136	5704.62
671.327	5565.36
671.518	5579.69
671.709	5594.03
671.9	5589.93
672.091	5677.99
672.282	5577.64
672.473	5518.25
672.664	5671.85
672.855	5544.88
673.046	5577.64
673.237	5491.63
673.428	5614.51
673.619	5401.52
673.809	5219.25
674	5462.96
674.191	5473.2
674.382	5374.89
674.573	5307.31
674.764	5471.15
674.954	5411.76
675.145	5200.82
675.336	5319.6
675.527	5163.95
675.717	5301.17
675.908	5219.25
676.099	5219.25
676.289	5297.07
676.48	5233.58
676.671	5112.75
676.861	5184.43
677.052	5266.35
677.243	5036.98
677.433	4922.29
677.624	5106.61
677.814	4991.92
678.005	5176.24
678.195	5202.86
678.386	5155.76
678.576	5028.79
678.767	5016.5
678.957	4985.78
679.148	5243.82
679.338	4983.73
679.529	5082.03
679.719	4965.3
679.909	5151.67
680.1	4977.59
680.29	4938.68
680.481	4932.53
680.671	5063.6
680.861	4932.53
681.052	4905.91
681.242	4871.09
681.432	5036.98
681.622	4979.64
681.813	4993.97
682.003	4928.44
682.193	4959.16
682.383	4924.34
682.573	5012.4
682.764	4905.91
682.954	4953.01
683.144	4989.88
683.334	4701.11
683.524	4785.08
683.714	4848.57
683.904	4791.22
684.094	4914.1
684.284	4760.5
684.474	4905.91
684.664	4832.18
684.854	4770.74
685.044	4768.7
685.234	4844.47
685.424	4826.04
685.614	4768.7
685.804	4787.13
685.994	4885.43
686.184	4787.13
686.374	4723.64
686.564	4688.82
686.753	4602.81
686.943	4561.85
687.133	4791.22
687.323	4664.25
687.513	4742.07
687.702	4645.82
687.892	4570.04
688.082	4432.83
688.272	4766.65
688.461	4592.57
688.651	4727.74
688.841	4414.4
689.03	4604.86
689.22	4553.66
689.41	4600.76
689.599	4410.3
689.789	4510.65
689.979	4555.71
690.168	4373.44
690.358	4703.16
690.547	4258.75
690.737	4527.03
690.926	4524.99
691.116	4494.27
691.305	4383.68
691.495	4348.86
691.684	4393.92
691.874	4426.68
692.063	4213.7
692.252	4191.17
692.442	4195.26
692.631	4217.79
692.82	4344.77
693.01	4307.9
693.199	4209.6
693.388	4160.45
693.578	4221.89
693.767	4328.38
693.956	4176.83
694.146	4119.49
694.335	4164.54
694.524	4236.22
694.713	4346.81
694.902	4111.3
695.092	4373.44
695.281	3994.56
695.47	4125.63
695.659	4105.15
695.848	4137.92
696.037	4076.48
696.226	4103.11
696.415	4096.96
696.604	4150.21
696.793	4096.96
696.982	4129.73
697.171	4062.15
697.36	4139.97
697.549	3914.69
697.738	3939.27
697.927	3967.94
698.116	3898.31
698.305	4090.82
698.494	3869.64
698.683	4031.43
698.872	4012.99
699.061	4037.57
699.25	4070.34
699.438	3816.39
699.627	3912.64
699.816	3820.49
700.005	3967.94
700.193	3775.43
700.382	3947.46
700.571	3906.5
700.76	3806.15
700.948	3881.92
701.137	3781.57
701.326	3820.49
701.514	3818.44
701.703	3937.22
701.892	3824.58
702.08	3859.4
702.269	3789.77
702.457	3800.01
702.646	3591.11
702.834	3849.16
703.023	3828.68
703.212	3761.09
703.4	3658.7
703.589	3679.18
703.777	3787.72
703.965	3793.86
704.154	3644.36
704.342	3740.61
704.531	3662.79
704.719	3574.73
704.907	3666.89
705.096	3597.26
705.284	3562.44
705.472	3701.7
705.661	3595.21
705.849	3675.08
706.037	3746.76
706.226	3630.02
706.414	3458
706.602	3480.52
706.79	3484.62
706.979	3462.09
707.167	3470.28
707.355	3546.06
707.543	3498.95
707.731	3431.37
707.919	3548.11
708.107	3494.86
708.296	3382.22
708.484	3406.8
708.672	3472.33
708.86	3472.33
709.048	3345.36
709.236	3339.21
709.424	3480.52
709.612	3378.12
709.8	3316.69
709.988	3333.07
710.176	3314.64
710.364	3245.01
710.551	3324.88
710.739	3353.55
710.927	3294.16
711.115	3300.3
711.303	3335.12
711.491	3169.23
711.679	3300.3
711.866	3177.42
712.054	3263.44
712.242	3183.57
712.43	3226.57
712.617	3193.81
712.805	3197.9
712.993	3140.56
713.181	3277.77
713.368	3113.94
713.556	3111.89
713.744	3138.51
713.931	3212.24
714.119	3109.84
714.306	3103.7
714.494	3075.03
714.682	3140.56
714.869	3113.94
715.057	3101.65
715.244	2884.56
715.432	3062.74
715.619	3115.98
715.807	3019.73
715.994	2950.1
716.182	3011.54
716.369	3029.97
716.556	3093.46
716.744	2946
716.931	2964.43
717.119	3007.44
717.306	2923.48
717.493	2915.28
717.681	2968.53
717.868	2929.62
718.055	2923.48
718.242	2931.67
718.43	2917.33
718.617	2970.58
718.804	2911.19
718.991	2853.84
719.179	3034.07
719.366	2859.99
719.553	2788.31
719.74	2808.79
719.927	2788.31
720.114	2816.98
720.301	2829.27
720.488	2819.03
720.676	2859.99
720.863	2868.18
721.05	2874.32
721.237	2673.62
721.424	2718.68
721.611	2794.45
721.798	2720.73
721.985	2679.77
722.172	2681.82
722.358	2763.73
722.545	2726.87
722.732	2601.94
722.919	2784.21
723.106	2724.82
723.293	2726.87
723.48	2685.91
723.667	2591.7
723.853	2630.62
724.04	2630.62
724.227	2581.46
724.414	2530.27
724.6	2751.45
724.787	2595.8
724.974	2776.02
725.161	2507.74
725.347	2427.87
725.534	2479.07
725.72	2579.42
725.907	2556.89
726.094	2548.7
726.28	2507.74
726.467	2571.22
726.653	2456.54
726.84	2585.56
727.027	2431.96
727.213	2417.63
727.4	2554.84
727.586	2399.2
727.773	2481.11
727.959	2565.08
728.145	2540.51
728.332	2483.16
728.518	2378.72
728.705	2497.5
728.891	2464.73
729.077	2362.33
729.264	2380.76
729.45	2448.35
729.636	2472.92
729.823	2417.63
730.009	2364.38
730.195	2343.9
730.382	2415.58
730.568	2407.39
730.754	2298.84
730.94	2350.04
731.126	2413.53
731.313	2366.43
731.499	2341.85
731.685	2442.2
731.871	2300.89
732.057	2350.04
732.243	2393.05
732.429	2352.09
732.615	2239.45
732.801	2239.45
732.987	2198.49
733.173	2210.78
733.359	2143.2
733.545	2292.7
733.731	2335.71
733.917	2294.75
734.103	2227.17
734.289	2337.76
734.475	2255.84
734.661	2313.18
734.847	2288.61
735.033	2229.21
735.219	2227.17
735.404	2186.21
735.59	2186.21
735.776	2212.83
735.962	2212.83
736.148	2311.13
736.333	2188.25
736.519	2178.01
736.705	2147.3
736.89	2210.78
737.076	2171.87
737.262	2067.42
737.447	2051.04
737.633	2014.18
737.819	2085.86
738.004	2108.38
738.19	1989.6
738.375	2159.58
738.561	2204.64
738.747	2128.86
738.932	2075.62
739.118	2141.15
739.303	2165.73
739.489	2051.04
739.674	2044.9
739.859	2137.06
740.045	2036.7
740.23	2100.19
740.416	1950.69
740.601	2094.05
740.786	2014.18
740.972	1997.79
741.157	1997.79
741.342	1999.84
741.528	1940.45
741.713	1989.6
741.898	1928.16
742.084	1995.75
742.269	1985.51
742.454	1891.3
742.639	1960.93
742.824	1836
743.01	1969.12
743.195	1934.31
743.38	1893.35
743.565	2024.42
743.75	1833.96
743.935	1793
744.12	1836
744.305	1842.15
744.49	1817.57
744.675	1739.75
744.86	1797.09
745.045	1756.13
745.23	1715.17
745.415	1770.47
745.6	1719.27
745.785	1733.61
745.97	1639.4
746.155	1870.82
746.34	1637.35
746.525	1711.08
746.71	1668.07
746.895	1684.45
747.079	1641.45
747.264	1567.72
747.449	1702.89
747.634	1666.02
747.819	1616.87
748.003	1608.68
748.188	1612.78
748.373	1659.88
748.557	1616.87
748.742	1612.78
748.927	1637.35
749.111	1596.39
749.296	1616.87
749.481	1661.93
749.665	1549.29
749.85	1588.2
750.034	1526.76
750.219	1506.28
750.404	1508.33
750.588	1498.09
750.773	1453.03
750.957	1522.66
751.141	1444.84
751.326	1461.23
751.51	1340.4
751.695	1381.35
751.879	1450.99
752.064	1471.47
752.248	1344.49
752.432	1453.03
752.617	1399.79
752.801	1350.64
752.985	1385.45
753.17	1496.04
753.354	1432.55
753.538	1330.16
753.722	1170.41
753.907	1264.62
754.091	1379.31
754.275	1221.61
754.459	1248.24
754.643	1321.96
754.828	1309.68
755.012	1186.8
755.196	1256.43
755.38	1285.1
755.564	1268.72
755.748	1172.46
755.932	1174.51
756.116	1289.2
756.3	1301.48
756.484	1172.46
756.668	1180.65
756.852	1125.36
757.036	1084.4
757.22	1205.23
757.404	1129.45
757.588	1096.69
757.772	1197.04
757.956	1002.48
758.14	1186.8
758.323	1076.21
758.507	1106.93
758.691	1014.77
758.875	1129.45
759.059	973.81
759.242	1072.11
759.426	1057.78
759.61	1108.98
759.794	1078.26
759.977	1072.11
760.161	1080.3
760.345	1035.25
760.528	1055.73
760.712	1031.15
760.895	1063.92
761.079	1039.34
761.263	1027.06
761.446	883.7
761.63	1061.87
761.813	1002.48
761.997	844.79
762.18	934.9
762.364	971.76
762.547	924.66
762.731	990.19
762.914	975.86
763.098	865.27
763.281	982
763.464	871.41
763.648	936.95
763.831	949.23
764.015	973.81
764.198	961.52
764.381	932.85
764.564	943.09
764.748	895.99
764.931	953.33
765.114	924.66
765.297	961.52
765.481	926.71
765.664	822.26
765.847	818.16
766.03	850.93
766.213	850.93
766.397	801.78
766.58	834.55
766.763	910.32
766.946	920.56
767.129	879.6
767.312	867.31
767.495	902.13
767.678	834.55
767.861	805.88
768.044	836.6
768.227	789.49
768.41	826.36
768.593	834.55
768.776	814.07
768.959	824.31
769.142	840.69
769.324	803.83
769.507	867.31
769.69	795.64
769.873	785.4
770.056	871.41
770.239	748.53
770.421	785.4
770.604	885.75
770.787	793.59
770.97	754.68
771.152	760.82
771.335	717.81
771.518	711.67
771.7	873.46
771.883	803.83
772.066	750.58
772.248	801.78
772.431	795.64
772.613	771.06
772.796	730.1
772.978	771.06
773.161	779.25
773.343	736.24
773.526	707.57
773.708	728.05
773.891	715.77
774.073	777.2
774.256	705.53
774.438	809.97
774.621	746.48
774.803	689.14
774.985	648.18
775.168	683
775.35	734.2
775.532	670.71
775.715	580.6
775.897	588.79
776.079	601.08
776.261	658.42
776.444	648.18
776.626	549.88
776.808	670.71
776.99	617.46
777.173	662.52
777.355	596.98
777.537	623.61
777.719	646.13
777.901	556.02
778.083	652.28
778.265	523.26
778.447	613.37
778.629	525.3
778.811	601.08
778.993	533.5
779.175	596.98
779.357	572.41
779.539	599.03
779.721	527.35
779.903	594.93
780.085	574.46
780.267	498.68
780.449	543.74
780.631	572.41
780.812	545.78
780.994	517.11
781.176	533.5
781.358	539.64
781.54	570.36
781.721	504.82
781.903	535.54
782.085	486.39
782.267	502.78
782.448	459.77
782.63	474.1
782.812	474.1
782.993	476.15
783.175	523.26
783.357	371.71
783.538	420.86
783.72	549.88
783.901	541.69
784.083	560.12
784.264	435.19
784.446	433.15
784.627	375.8
784.809	515.06
784.99	490.49
785.172	416.76
785.353	437.24
785.535	457.72
785.716	470.01
785.897	365.56
786.079	490.49
786.26	408.57
786.441	420.86
786.623	328.7
786.804	379.9
786.985	351.23
787.167	437.24
787.348	347.13
787.529	443.39
787.71	400.38
787.891	431.1
788.073	383.99
788.254	287.74
788.435	371.71
788.616	424.95
788.797	351.23
788.978	351.23
789.159	375.8
789.34	416.76
789.522	269.31
789.703	254.97
789.884	351.23
790.065	302.08
790.246	410.62
790.427	306.17
790.607	400.38
790.788	320.51
790.969	365.56
791.15	285.69
791.331	246.78
791.512	302.08
791.693	375.8
791.874	289.79
792.054	334.84
792.235	359.42
792.416	320.51
792.597	302.08
792.778	334.84
792.958	359.42
793.139	361.47
793.32	240.64
793.5	222.2
793.681	330.75
793.862	281.6
794.042	248.83
794.223	189.44
794.404	306.17
794.584	205.82
794.765	289.79
794.945	326.65
795.126	259.07
795.306	285.69
795.487	265.21
795.667	261.12
795.848	295.93
796.028	228.35
796.209	302.08
796.389	302.08
796.57	228.35
796.75	222.2
796.93	224.25
797.111	226.3
797.291	160.77
797.471	318.46
797.652	240.64
797.832	236.54
798.012	244.73
798.192	220.16
798.373	240.64
798.553	242.68
798.733	279.55
798.913	242.68
799.093	244.73
799.274	236.54
799.454	304.12
799.634	273.4
799.814	265.21
799.994	199.68
800.174	189.44
800.354	211.96
800.534	154.62
800.714	207.87
800.894	220.16
801.074	228.35
801.254	195.58
801.434	236.54
801.614	138.24
801.794	91.13
801.974	842.74
802.154	185.34
802.334	236.54
802.514	158.72
802.693	197.63
802.873	154.62
803.053	209.92
803.233	236.54
803.413	177.15
803.592	154.62
803.772	228.35
803.952	228.35
804.131	138.24
804.311	197.63
804.491	195.58
804.67	173.05
804.85	216.06
805.03	140.29
805.209	181.25
805.389	261.12
805.568	144.38
805.748	134.14
805.928	171.01
806.107	207.87
806.287	211.96
806.466	197.63
806.646	197.63
806.825	160.77
807.004	171.01
807.184	181.25
807.363	224.25
807.543	203.77
807.722	220.16
807.901	162.81
808.081	191.49
808.26	99.33
808.439	113.66
808.619	179.2
808.798	187.39
808.977	97.28
809.156	203.77
809.336	175.1
809.515	236.54
809.694	115.71
809.873	201.72
810.052	162.81
810.231	168.96
810.411	144.38
810.59	148.48
810.769	175.1
810.948	211.96
811.127	107.52
811.306	109.57
811.485	64.51
811.664	138.24
811.843	130.05
812.022	23.55
812.201	166.91
812.38	162.81
812.559	89.09
812.737	181.25
812.916	107.52
813.095	68.61
813.274	142.33
813.453	197.63
813.632	105.47
813.811	113.66
813.989	95.23
814.168	132.09
814.347	80.89
814.526	107.52
814.704	146.43
814.883	214.01
815.062	146.43
815.24	142.33
815.419	113.66
815.598	117.76
815.776	99.33
815.955	93.18
816.133	89.09
816.312	121.85
816.49	84.99
816.669	115.71
816.847	134.14
817.026	107.52
817.204	101.37
817.383	93.18
817.561	76.8
817.74	130.05
817.918	80.89
818.097	101.37
818.275	103.42
818.453	130.05
818.632	123.9
818.81	107.52
818.988	39.94
819.167	134.14
819.345	89.09
819.523	105.47
819.701	156.67
819.879	89.09
820.058	54.27
820.236	154.62
820.414	113.66
820.592	60.42
820.77	146.43
820.948	66.56
821.127	66.56
821.305	101.37
821.483	95.23
821.661	80.89
821.839	89.09
822.017	39.94
822.195	11.26
822.373	132.09
822.551	154.62
822.729	113.66
822.907	207.87
823.085	171.01
823.262	93.18
823.44	23.55
823.618	105.47
823.796	142.33
823.974	125.95
824.152	64.51
824.329	74.75
824.507	168.96
824.685	121.85
824.863	84.99
825.04	76.8
825.218	58.37
825.396	76.8
825.574	140.29
825.751	54.27
825.929	35.84
826.107	48.13
826.284	62.46
826.462	89.09
826.639	-9.22
826.817	23.55
826.994	140.29
827.172	56.32
827.349	173.05
827.527	125.95
827.704	9.22
827.882	80.89
828.059	31.74
828.237	52.22
828.414	54.27
828.591	41.98
828.769	117.76
828.946	27.65
829.124	97.28
829.301	123.9
829.478	41.98
829.655	82.94
829.833	138.24
830.01	-9.22
830.187	37.89
830.364	33.79
830.542	113.66
830.719	140.29
830.896	91.13
831.073	48.13
831.25	103.42
831.427	48.13
831.604	91.13
831.782	82.94
831.959	138.24
832.136	27.65
832.313	82.94
832.49	56.32
832.667	54.27
832.844	17.41
833.021	93.18
833.198	64.51
833.374	44.03
833.551	123.9
833.728	19.46
833.905	103.42
834.082	50.18
834.259	74.75
834.436	66.56
834.612	115.71
834.789	179.2
834.966	87.04
835.143	23.55
835.319	78.85
835.496	23.55
835.673	50.18
835.85	99.33
836.026	134.14
836.203	64.51
836.38	-66.56
836.556	44.03
836.733	62.46
836.909	128
837.086	93.18
837.262	-7.17
837.439	44.03
837.616	-1.02
837.792	25.6
837.968	91.13
838.145	-5.12
838.321	72.7
838.498	39.94
838.674	113.66
838.851	19.46
839.027	3.07
839.203	-5.12
839.38	39.94
839.556	60.42
839.732	64.51
839.909	-31.74
840.085	-52.22
840.261	5.12
840.437	121.85
840.614	7.17
840.79	50.18
840.966	35.84
841.142	74.75
841.318	66.56
841.494	105.47
841.671	27.65
841.847	115.71
842.023	25.6
842.199	54.27
842.375	62.46
842.551	25.6
842.727	-56.32
842.903	105.47
843.079	56.32
843.255	74.75
843.431	15.36
843.607	64.51
843.783	21.5
843.959	33.79
844.134	-48.13
844.31	74.75
844.486	37.89
844.662	-33.79
844.838	62.46
845.013	15.36
845.189	39.94
845.365	52.22
845.541	-39.94
845.716	68.61
845.892	97.28
846.068	7.17
846.244	-5.12
846.419	93.18
846.595	-11.26
846.77	-23.55
846.946	11.26
847.122	1.02
847.297	-1.02
847.473	72.7
847.648	-15.36
847.824	17.41
847.999	-35.84
848.175	13.31
848.35	150.53
848.526	23.55
848.701	66.56
848.876	41.98
849.052	74.75
849.227	23.55
849.403	3.07
849.578	15.36
849.753	1.02
849.929	-33.79
850.104	23.55
850.279	58.37
850.454	72.7
850.63	101.37
850.805	-7.17
850.98	72.7
851.155	48.13
851.33	21.5
851.505	-17.41
851.681	93.18
851.856	-39.94
852.031	41.98
852.206	78.85
852.381	-9.22
852.556	-7.17
852.731	56.32
852.906	54.27
853.081	138.24
853.256	5.12
853.431	23.55
853.606	19.46
853.781	17.41
853.956	-19.46
854.131	-9.22
854.305	3.07
854.48	123.9
854.655	7.17
854.83	11.26
855.005	-3.07
855.18	52.22
855.354	-39.94
855.529	48.13
855.704	-33.79
855.879	39.94
856.053	9.22
856.228	-17.41
856.403	89.09
856.577	15.36
856.752	15.36
856.926	-11.26
857.101	3.07
857.276	27.65
857.45	142.33
857.625	50.18
857.799	50.18
857.974	17.41
858.148	-72.7
858.323	23.55
858.497	-9.22
858.672	9.22
858.846	-41.98
859.02	50.18
859.195	-25.6
859.369	31.74
859.543	48.13
859.718	23.55
859.892	-66.56
860.066	74.75
860.241	15.36
860.415	33.79
860.589	17.41
860.763	-5.12
860.938	-25.6
861.112	44.03
861.286	27.65
861.46	29.7
861.634	48.13
861.808	60.42
861.982	3.07
862.157	25.6
862.331	-33.79
862.505	-23.55
862.679	-82.94
862.853	17.41
863.027	-23.55
863.201	23.55
863.375	-17.41
863.549	84.99
863.722	103.42
863.896	1.02
864.07	68.61
864.244	56.32
864.418	23.55
864.592	15.36
864.766	58.37
864.939	3.07
865.113	7.17
865.287	31.74
865.461	11.26
865.634	15.36
865.808	39.94
865.982	50.18
866.156	-3.07
866.329	33.79
866.503	-11.26
866.676	-41.98
866.85	-21.5
867.024	-9.22
867.197	15.36
867.371	66.56
867.544	29.7
867.718	-25.6
867.891	3.07
868.065	50.18
868.238	-17.41
868.412	31.74
868.585	-41.98
868.759	-1.02
868.932	-1.02
869.105	-25.6
869.279	31.74
869.452	-21.5
869.625	44.03
869.799	9.22
869.972	-105.47
870.145	3.07
870.319	7.17
870.492	44.03
870.665	-39.94
870.838	-31.74
871.011	-33.79
871.185	-76.8
871.358	-33.79
871.531	62.46
871.704	-11.26
871.877	-56.32
872.05	-50.18
872.223	-31.74
872.396	-17.41
872.569	72.7
872.742	41.98
872.915	29.7
873.088	3.07
873.261	-33.79
873.434	15.36
873.607	66.56
873.78	21.5
873.953	-37.89
874.126	-68.61
874.299	11.26
874.471	52.22
874.644	-33.79
874.817	-33.79
874.99	72.7
875.163	58.37
875.335	-25.6
875.508	37.89
875.681	107.52
875.853	-72.7
876.026	25.6
876.199	15.36
876.371	3.07
876.544	-9.22
876.717	1.02
876.889	-1.02
877.062	-33.79
877.234	-64.51
877.407	13.31
877.579	-39.94
877.752	-13.31
877.924	-46.08
878.097	23.55
878.269	35.84
878.442	-23.55
878.614	13.31
878.786	11.26
878.959	-7.17
879.131	-5.12
879.303	-3.07
879.476	27.65
879.648	-13.31
879.82	-25.6
879.993	29.7
880.165	-31.74
880.337	-25.6
880.509	31.74
880.681	-115.71
880.854	-66.56
881.026	23.55
881.198	37.89
881.37	17.41
881.542	33.79
881.714	-9.22
881.886	-11.26
882.058	-13.31
882.23	17.41
882.402	-15.36
882.574	11.26
882.746	-41.98
882.918	89.09
883.09	31.74
883.262	-103.42
883.434	-5.12
883.606	-46.08
883.778	39.94
883.95	33.79
884.122	-11.26
884.293	23.55
884.465	-13.31
884.637	48.13
884.809	-33.79
884.98	68.61
885.152	19.46
885.324	23.55
885.496	17.41
885.667	-15.36
885.839	3.07
886.011	27.65
886.182	-15.36
886.354	11.26
886.525	-9.22
886.697	19.46
886.869	-76.8
887.04	-15.36
887.212	-27.65
887.383	31.74
887.555	17.41
887.726	-29.7
887.897	-1.02
888.069	58.37
888.24	19.46
888.412	46.08
888.583	15.36
888.754	25.6
888.926	-21.5
889.097	-9.22
889.268	39.94
889.44	-29.7
889.611	-95.23
889.782	-9.22
889.953	-17.41
890.125	9.22
890.296	-25.6
890.467	-1.02
890.638	-58.37
890.809	23.55
890.98	-17.41
891.151	21.5
891.323	-54.27
891.494	46.08
891.665	-33.79
891.836	31.74
892.007	-58.37
892.178	1.02
892.349	-39.94
892.52	-13.31
892.691	-58.37
892.862	-60.42
893.032	-80.89
893.203	-17.41
893.374	-54.27
893.545	13.31
893.716	-74.75
893.887	3.07
894.057	-9.22
894.228	-9.22
894.399	-17.41
894.57	-17.41
894.74	9.22
894.911	-9.22
895.082	-7.17
895.253	-13.31
895.423	66.56
895.594	-58.37
895.764	-27.65
895.935	-1.02
896.106	-13.31
896.276	-23.55
896.447	19.46
896.617	-17.41
896.788	-31.74
896.958	-5.12
897.129	-50.18
897.299	-50.18
897.47	-56.32
897.64	70.65
897.81	-7.17
897.981	46.08
898.151	-41.98
898.322	-50.18
898.492	17.41
898.662	35.84
898.832	-7.17
899.003	25.6
899.173	27.65
899.343	-44.03
899.513	-54.27
