Data from USB4F104151__211__14-33-31-521.txt Node

Date: Thu Mar 13 14:33:31 EDT 2025
User: louis
Spectrometer: USB4F10415
Trigger mode: 4
Integration Time (sec): 2.500000E-2
Scans to average: 1
Electric dark correction enabled: true
Nonlinearity correction enabled: false
Boxcar width: 0
XAxis mode: Wavelengths
Number of Pixels in Spectrum: 3648
>>>>>Begin Spectral Data<<<<<
178.204	-194.9
178.424	-194.9
178.644	-194.9
178.864	-168.27
179.084	-139.6
179.304	-10.58
179.524	-24.92
179.744	28.33
179.964	-20.82
180.184	-4.44
180.404	57
180.624	-12.63
180.844	-16.73
181.064	-4.44
181.283	-16.73
181.503	-29.01
181.723	54.95
181.943	-10.58
182.163	116.39
182.383	22.19
182.602	13.99
182.822	1.71
183.042	52.91
183.262	52.91
183.482	7.85
183.701	52.91
183.921	30.38
184.141	-20.82
184.361	-10.58
184.58	83.63
184.8	97.96
185.02	40.62
185.239	44.71
185.459	-26.96
185.679	140.97
185.898	22.19
186.118	61.1
186.338	36.52
186.557	118.44
186.777	24.23
186.997	65.19
187.216	28.33
187.436	143.02
187.655	48.81
187.875	24.23
188.095	20.14
188.314	20.14
188.534	120.49
188.753	48.81
188.973	30.38
189.192	102.06
189.412	-12.63
189.631	38.57
189.851	46.76
190.07	110.25
190.29	11.95
190.509	30.38
190.729	38.57
190.948	69.29
191.168	69.29
191.387	13.99
191.607	7.85
191.826	-2.39
192.045	65.19
192.265	30.38
192.484	34.47
192.704	-43.35
192.923	118.44
193.142	87.72
193.362	61.1
193.581	73.39
193.8	95.91
194.02	79.53
194.239	20.14
194.458	93.87
194.678	61.1
194.897	11.95
195.116	69.29
195.335	44.71
195.555	46.76
195.774	83.63
195.993	110.25
196.212	24.23
196.432	38.57
196.651	40.62
196.87	38.57
197.089	36.52
197.308	69.29
197.528	57
197.747	-16.73
197.966	52.91
198.185	79.53
198.404	97.96
198.623	20.14
198.842	69.29
199.062	30.38
199.281	65.19
199.5	61.1
199.719	112.3
199.938	-8.53
200.157	69.29
200.376	81.58
200.595	106.15
200.814	102.06
201.033	3.75
201.252	102.06
201.471	-10.58
201.69	7.85
201.909	102.06
202.128	61.1
202.347	93.87
202.566	36.52
202.785	-31.06
203.004	20.14
203.223	69.29
203.442	73.39
203.661	13.99
203.879	81.58
204.098	7.85
204.317	40.62
204.536	104.11
204.755	44.71
204.974	85.67
205.193	13.99
205.411	159.4
205.63	140.97
205.849	-20.82
206.068	16.04
206.287	24.23
206.505	134.82
206.724	40.62
206.943	46.76
207.162	52.91
207.381	63.15
207.599	61.1
207.818	38.57
208.037	61.1
208.255	77.48
208.474	59.05
208.693	28.33
208.911	16.04
209.13	40.62
209.349	73.39
209.567	61.1
209.786	130.73
210.005	63.15
210.223	44.71
210.442	44.71
210.661	42.67
210.879	69.29
211.098	69.29
211.316	63.15
211.535	83.63
211.753	24.23
211.972	52.91
212.191	85.67
212.409	85.67
212.628	54.95
212.846	26.28
213.065	46.76
213.283	79.53
213.502	18.09
213.72	54.95
213.938	40.62
214.157	93.87
214.375	175.78
214.594	102.06
214.812	20.14
215.031	57
215.249	24.23
215.467	20.14
215.686	81.58
215.904	61.1
216.122	67.24
216.341	106.15
216.559	59.05
216.778	79.53
216.996	71.34
217.214	3.75
217.432	73.39
217.651	36.52
217.869	-10.58
218.087	65.19
218.306	93.87
218.524	73.39
218.742	-0.34
218.96	118.44
219.179	104.11
219.397	71.34
219.615	120.49
219.833	-16.73
220.051	38.57
220.27	114.34
220.488	61.1
220.706	122.54
220.924	85.67
221.142	61.1
221.36	145.06
221.578	118.44
221.796	83.63
222.015	52.91
222.233	-43.35
222.451	106.15
222.669	20.14
222.887	28.33
223.105	54.95
223.323	79.53
223.541	54.95
223.759	13.99
223.977	1.71
224.195	97.96
224.413	52.91
224.631	77.48
224.849	79.53
225.067	102.06
225.285	81.58
225.503	85.67
225.721	32.43
225.939	26.28
226.157	59.05
226.375	132.78
226.592	61.1
226.81	93.87
227.028	102.06
227.246	112.3
227.464	11.95
227.682	79.53
227.9	102.06
228.117	46.76
228.335	44.71
228.553	73.39
228.771	112.3
228.989	57
229.206	32.43
229.424	-37.2
229.642	-59.73
229.86	-4.44
230.077	50.86
230.295	38.57
230.513	122.54
230.731	110.25
230.948	69.29
231.166	52.91
231.384	85.67
231.601	13.99
231.819	132.78
232.037	52.91
232.254	-2.39
232.472	18.09
232.689	26.28
232.907	-0.34
233.125	32.43
233.342	34.47
233.56	54.95
233.777	-16.73
233.995	79.53
234.213	5.8
234.43	46.76
234.648	54.95
234.865	-8.53
235.083	59.05
235.3	38.57
235.518	93.87
235.735	153.26
235.953	106.15
236.17	-18.77
236.388	110.25
236.605	22.19
236.822	143.02
237.04	85.67
237.257	52.91
237.475	-20.82
237.692	57
237.909	-20.82
238.127	-20.82
238.344	67.24
238.562	75.43
238.779	-4.44
238.996	59.05
239.214	5.8
239.431	63.15
239.648	5.8
239.865	44.71
240.083	18.09
240.3	32.43
240.517	44.71
240.735	69.29
240.952	192.17
241.169	57
241.386	-12.63
241.603	38.57
241.821	30.38
242.038	54.95
242.255	40.62
242.472	-6.49
242.689	28.33
242.907	52.91
243.124	20.14
243.341	85.67
243.558	50.86
243.775	13.99
243.992	16.04
244.209	65.19
244.426	114.34
244.643	77.48
244.86	18.09
245.078	118.44
245.295	30.38
245.512	69.29
245.729	-29.01
245.946	85.67
246.163	1.71
246.38	65.19
246.597	-2.39
246.814	11.95
247.031	24.23
247.248	77.48
247.464	69.29
247.681	-14.68
247.898	71.34
248.115	136.87
248.332	-14.68
248.549	44.71
248.766	136.87
248.983	48.81
249.2	122.54
249.417	100.01
249.633	38.57
249.85	85.67
250.067	3.75
250.284	102.06
250.501	77.48
250.717	93.87
250.934	-29.01
251.151	93.87
251.368	42.67
251.585	112.3
251.801	22.19
252.018	40.62
252.235	40.62
252.451	97.96
252.668	20.14
252.885	7.85
253.102	20.14
253.318	87.72
253.535	54.95
253.752	44.71
253.968	71.34
254.185	24.23
254.401	89.77
254.618	122.54
254.835	73.39
255.051	63.15
255.268	11.95
255.484	44.71
255.701	28.33
255.917	104.11
256.134	-20.82
256.351	112.3
256.567	61.1
256.784	28.33
257	-4.44
257.217	102.06
257.433	79.53
257.65	77.48
257.866	89.77
258.082	-0.34
258.299	-20.82
258.515	85.67
258.732	20.14
258.948	36.52
259.165	-22.87
259.381	-41.3
259.597	136.87
259.814	112.3
260.03	95.91
260.246	34.47
260.463	69.29
260.679	134.82
260.895	9.9
261.112	75.43
261.328	28.33
261.544	87.72
261.761	186.02
261.977	18.09
262.193	28.33
262.409	44.71
262.626	32.43
262.842	77.48
263.058	-16.73
263.274	24.23
263.49	3.75
263.707	93.87
263.923	24.23
264.139	28.33
264.355	-4.44
264.571	114.34
264.787	104.11
265.004	102.06
265.22	75.43
265.436	11.95
265.652	11.95
265.868	186.02
266.084	30.38
266.3	52.91
266.516	-26.96
266.732	69.29
266.948	38.57
267.164	-4.44
267.38	102.06
267.596	81.58
267.812	48.81
268.028	67.24
268.244	46.76
268.46	63.15
268.676	-6.49
268.892	79.53
269.108	9.9
269.324	-8.53
269.54	59.05
269.756	100.01
269.972	1.71
270.188	44.71
270.403	-12.63
270.619	75.43
270.835	104.11
271.051	38.57
271.267	106.15
271.483	95.91
271.698	16.04
271.914	112.3
272.13	-0.34
272.346	32.43
272.562	97.96
272.777	44.71
272.993	40.62
273.209	69.29
273.425	63.15
273.64	44.71
273.856	102.06
274.072	-29.01
274.287	-14.68
274.503	102.06
274.719	118.44
274.934	26.28
275.15	1.71
275.366	42.67
275.581	24.23
275.797	79.53
276.012	38.57
276.228	28.33
276.444	63.15
276.659	46.76
276.875	18.09
277.09	52.91
277.306	95.91
277.521	89.77
277.737	67.24
277.952	20.14
278.168	-0.34
278.383	71.34
278.599	77.48
278.814	30.38
279.03	77.48
279.245	79.53
279.461	-0.34
279.676	136.87
279.892	63.15
280.107	-4.44
280.322	-8.53
280.538	93.87
280.753	73.39
280.969	52.91
281.184	85.67
281.399	120.49
281.615	3.75
281.83	52.91
282.045	34.47
282.26	67.24
282.476	102.06
282.691	36.52
282.906	11.95
283.122	50.86
283.337	5.8
283.552	85.67
283.767	52.91
283.983	32.43
284.198	91.82
284.413	77.48
284.628	7.85
284.843	16.04
285.058	-18.77
285.274	149.16
285.489	3.75
285.704	110.25
285.919	104.11
286.134	61.1
286.349	3.75
286.564	44.71
286.779	118.44
286.995	136.87
287.21	-0.34
287.425	106.15
287.64	20.14
287.855	140.97
288.07	-10.58
288.285	36.52
288.5	44.71
288.715	104.11
288.93	30.38
289.145	73.39
289.36	28.33
289.575	93.87
289.79	132.78
290.004	44.71
290.219	67.24
290.434	134.82
290.649	36.52
290.864	24.23
291.079	102.06
291.294	104.11
291.509	120.49
291.724	9.9
291.938	83.63
292.153	95.91
292.368	28.33
292.583	69.29
292.798	79.53
293.012	61.1
293.227	13.99
293.442	-18.77
293.657	85.67
293.871	110.25
294.086	104.11
294.301	110.25
294.516	40.62
294.73	93.87
294.945	52.91
295.16	77.48
295.374	110.25
295.589	97.96
295.804	30.38
296.018	36.52
296.233	85.67
296.447	147.11
296.662	-14.68
296.877	57
297.091	57
297.306	77.48
297.52	38.57
297.735	-4.44
297.949	-35.16
298.164	79.53
298.378	59.05
298.593	52.91
298.807	-31.06
299.022	11.95
299.236	48.81
299.451	93.87
299.665	28.33
299.88	77.48
300.094	93.87
300.309	-0.34
300.523	83.63
300.737	63.15
300.952	106.15
301.166	81.58
301.381	-4.44
301.595	11.95
301.809	81.58
302.024	5.8
302.238	-33.11
302.452	77.48
302.667	65.19
302.881	38.57
303.095	75.43
303.309	79.53
303.524	46.76
303.738	59.05
303.952	46.76
304.166	57
304.381	-35.16
304.595	102.06
304.809	38.57
305.023	20.14
305.237	36.52
305.452	57
305.666	79.53
305.88	79.53
306.094	73.39
306.308	71.34
306.522	5.8
306.736	46.76
306.95	-4.44
307.164	7.85
307.379	30.38
307.593	175.78
307.807	65.19
308.021	110.25
308.235	159.4
308.449	-18.77
308.663	89.77
308.877	163.5
309.091	102.06
309.305	36.52
309.519	-24.92
309.733	108.2
309.947	34.47
310.161	87.72
310.374	85.67
310.588	110.25
310.802	32.43
311.016	52.91
311.23	63.15
311.444	20.14
311.658	-22.87
311.872	112.3
312.085	52.91
312.299	77.48
312.513	85.67
312.727	106.15
312.941	61.1
313.154	104.11
313.368	132.78
313.582	24.23
313.796	65.19
314.009	71.34
314.223	161.45
314.437	100.01
314.651	73.39
314.864	73.39
315.078	16.04
315.292	28.33
315.505	44.71
315.719	32.43
315.933	118.44
316.146	108.2
316.36	-29.01
316.573	87.72
316.787	126.63
317.001	36.52
317.214	-33.11
317.428	7.85
317.641	9.9
317.855	73.39
318.068	20.14
318.282	40.62
318.495	97.96
318.709	106.15
318.922	85.67
319.136	63.15
319.349	93.87
319.563	167.59
319.776	153.26
319.99	34.47
320.203	3.75
320.417	-20.82
320.63	171.69
320.843	104.11
321.057	-6.49
321.27	61.1
321.483	3.75
321.697	54.95
321.91	97.96
322.124	63.15
322.337	77.48
322.55	36.52
322.763	97.96
322.977	57
323.19	54.95
323.403	24.23
323.617	87.72
323.83	81.58
324.043	13.99
324.256	104.11
324.469	-4.44
324.683	77.48
324.896	-12.63
325.109	36.52
325.322	44.71
325.535	69.29
325.748	81.58
325.962	93.87
326.175	3.75
326.388	75.43
326.601	112.3
326.814	63.15
327.027	61.1
327.24	32.43
327.453	30.38
327.666	126.63
327.879	30.38
328.092	161.45
328.305	52.91
328.518	69.29
328.731	48.81
328.944	13.99
329.157	22.19
329.37	44.71
329.583	79.53
329.796	93.87
330.009	65.19
330.222	63.15
330.435	44.71
330.648	52.91
330.861	77.48
331.073	77.48
331.286	38.57
331.499	100.01
331.712	69.29
331.925	57
332.138	38.57
332.35	28.33
332.563	-4.44
332.776	22.19
332.989	32.43
333.202	57
333.414	83.63
333.627	65.19
333.84	11.95
334.053	59.05
334.265	87.72
334.478	22.19
334.691	149.16
334.903	69.29
335.116	28.33
335.329	87.72
335.541	-2.39
335.754	188.07
335.966	36.52
336.179	95.91
336.392	63.15
336.604	24.23
336.817	63.15
337.029	52.91
337.242	75.43
337.454	34.47
337.667	24.23
337.88	63.15
338.092	110.25
338.305	120.49
338.517	-14.68
338.729	20.14
338.942	151.21
339.154	-10.58
339.367	28.33
339.579	52.91
339.792	30.38
340.004	54.95
340.217	-8.53
340.429	52.91
340.641	54.95
340.854	22.19
341.066	13.99
341.278	48.81
341.491	89.77
341.703	-43.35
341.915	-4.44
342.128	153.26
342.34	97.96
342.552	36.52
342.764	73.39
342.977	61.1
343.189	30.38
343.401	13.99
343.613	52.91
343.826	52.91
344.038	73.39
344.25	87.72
344.462	-6.49
344.674	77.48
344.886	75.43
345.099	93.87
345.311	71.34
345.523	22.19
345.735	-14.68
345.947	36.52
346.159	46.76
346.371	48.81
346.583	11.95
346.795	138.92
347.007	32.43
347.219	100.01
347.431	110.25
347.643	93.87
347.855	5.8
348.067	79.53
348.279	-20.82
348.491	87.72
348.703	42.67
348.915	54.95
349.127	44.71
349.339	126.63
349.551	46.76
349.763	40.62
349.975	50.86
350.187	20.14
350.399	71.34
350.61	126.63
350.822	42.67
351.034	102.06
351.246	69.29
351.458	91.82
351.669	108.2
351.881	73.39
352.093	97.96
352.305	153.26
352.517	77.48
352.728	106.15
352.94	112.3
353.152	20.14
353.363	24.23
353.575	67.24
353.787	124.58
353.999	85.67
354.21	69.29
354.422	22.19
354.633	28.33
354.845	36.52
355.057	52.91
355.268	126.63
355.48	91.82
355.692	44.71
355.903	91.82
356.115	77.48
356.326	24.23
356.538	155.3
356.749	116.39
356.961	143.02
357.172	44.71
357.384	-20.82
357.595	106.15
357.807	1.71
358.018	71.34
358.23	46.76
358.441	136.87
358.653	57
358.864	-31.06
359.075	134.82
359.287	97.96
359.498	34.47
359.709	63.15
359.921	69.29
360.132	54.95
360.344	59.05
360.555	32.43
360.766	52.91
360.977	52.91
361.189	143.02
361.4	40.62
361.611	188.07
361.823	36.52
362.034	46.76
362.245	-41.3
362.456	59.05
362.667	112.3
362.879	57
363.09	95.91
363.301	38.57
363.512	38.57
363.723	22.19
363.935	20.14
364.146	81.58
364.357	77.48
364.568	114.34
364.779	20.14
364.99	130.73
365.201	32.43
365.412	118.44
365.623	13.99
365.834	54.95
366.045	110.25
366.256	81.58
366.467	77.48
366.678	61.1
366.889	177.83
367.1	71.34
367.311	81.58
367.522	-33.11
367.733	128.68
367.944	153.26
368.155	52.91
368.366	102.06
368.577	38.57
368.788	102.06
368.999	61.1
369.209	110.25
369.42	61.1
369.631	153.26
369.842	102.06
370.053	118.44
370.264	48.81
370.474	91.82
370.685	54.95
370.896	120.49
371.107	122.54
371.317	143.02
371.528	85.67
371.739	104.11
371.95	114.34
372.16	177.83
372.371	16.04
372.582	11.95
372.792	91.82
373.003	95.91
373.214	32.43
373.424	95.91
373.635	22.19
373.846	26.28
374.056	124.58
374.267	44.71
374.477	97.96
374.688	57
374.898	91.82
375.109	97.96
375.319	30.38
375.53	147.11
375.74	52.91
375.951	63.15
376.161	79.53
376.372	54.95
376.582	16.04
376.793	52.91
377.003	65.19
377.214	48.81
377.424	36.52
377.635	36.52
377.845	63.15
378.055	65.19
378.266	22.19
378.476	73.39
378.686	65.19
378.897	69.29
379.107	79.53
379.317	83.63
379.528	69.29
379.738	69.29
379.948	28.33
380.158	63.15
380.369	118.44
380.579	67.24
380.789	79.53
380.999	77.48
381.21	108.2
381.42	61.1
381.63	61.1
381.84	153.26
382.05	57
382.261	65.19
382.471	110.25
382.681	69.29
382.891	186.02
383.101	81.58
383.311	91.82
383.521	85.67
383.731	22.19
383.941	118.44
384.151	79.53
384.361	44.71
384.571	77.48
384.781	93.87
384.991	177.83
385.201	124.58
385.411	95.91
385.621	89.77
385.831	118.44
386.041	63.15
386.251	108.2
386.461	151.21
386.671	69.29
386.881	110.25
387.091	102.06
387.301	138.92
387.511	46.76
387.72	87.72
387.93	69.29
388.14	-33.11
388.35	85.67
388.56	104.11
388.769	118.44
388.979	81.58
389.189	46.76
389.399	85.67
389.609	100.01
389.818	112.3
390.028	89.77
390.238	79.53
390.447	79.53
390.657	69.29
390.867	50.86
391.076	11.95
391.286	69.29
391.496	52.91
391.705	89.77
391.915	167.59
392.125	85.67
392.334	97.96
392.544	102.06
392.753	91.82
392.963	34.47
393.172	102.06
393.382	161.45
393.591	134.82
393.801	57
394.01	147.11
394.22	126.63
394.429	102.06
394.639	28.33
394.848	126.63
395.058	134.82
395.267	93.87
395.477	161.45
395.686	110.25
395.895	169.64
396.105	153.26
396.314	59.05
396.524	161.45
396.733	143.02
396.942	130.73
397.152	128.68
397.361	140.97
397.57	181.93
397.78	102.06
397.989	153.26
398.198	249.51
398.407	192.17
398.617	216.74
398.826	151.21
399.035	143.02
399.244	114.34
399.453	196.26
399.663	149.16
399.872	167.59
400.081	69.29
400.29	134.82
400.499	159.4
400.708	204.46
400.917	134.82
401.127	81.58
401.336	167.59
401.545	208.55
401.754	188.07
401.963	276.13
402.172	173.74
402.381	44.71
402.59	216.74
402.799	151.21
403.008	192.17
403.217	177.83
403.426	151.21
403.635	177.83
403.844	167.59
404.053	179.88
404.262	151.21
404.471	274.09
404.68	231.08
404.888	147.11
405.097	216.74
405.306	155.3
405.515	188.07
405.724	210.6
405.933	229.03
406.142	222.89
406.35	337.57
406.559	188.07
406.768	280.23
406.977	278.18
407.185	278.18
407.394	257.7
407.603	265.89
407.812	249.51
408.02	372.39
408.229	323.24
408.438	302.76
408.646	278.18
408.855	290.47
409.064	409.25
409.272	306.85
409.481	372.39
409.69	380.58
409.898	341.67
410.107	384.68
410.315	458.4
410.524	456.36
410.733	495.27
410.941	480.93
411.15	464.55
411.358	495.27
411.567	568.99
411.775	548.51
411.984	546.47
412.192	589.47
412.401	556.71
412.609	687.78
412.818	704.16
413.026	571.04
413.234	659.1
413.443	716.45
413.651	753.31
413.86	822.94
414.068	800.41
414.276	822.94
414.485	816.8
414.693	941.72
414.901	863.9
415.11	863.9
415.318	1013.4
415.526	847.52
415.734	994.97
415.943	1054.36
416.151	1169.05
416.359	1093.27
416.567	1085.08
416.776	1171.1
416.984	1318.55
417.192	1240.73
417.4	1265.3
417.608	1310.36
417.817	1412.76
418.025	1400.47
418.233	1535.64
418.441	1449.62
418.649	1529.49
418.857	1595.03
419.065	1711.76
419.273	1662.61
419.481	1855.12
419.689	1869.45
419.897	1941.13
420.105	1930.89
420.313	2080.39
420.521	2135.69
420.729	2094.73
420.937	2266.76
421.145	2240.14
421.353	2438.79
421.561	2403.97
421.769	2625.15
421.977	2631.3
422.185	2559.62
422.393	2850.43
422.601	3049.08
422.809	2856.58
423.017	2950.78
423.224	3102.33
423.432	3126.91
423.64	3249.79
423.848	3597.94
424.056	3411.57
424.263	3810.93
424.471	3657.33
424.679	3815.02
424.887	4017.77
425.094	4085.36
425.302	4154.99
425.51	4150.89
425.718	4355.69
425.925	4456.04
426.133	4544.1
426.341	4873.82
426.548	4879.97
426.756	4986.46
426.964	5017.18
427.171	5457.5
427.379	5512.79
427.586	5588.57
427.794	5750.35
428.001	6065.74
428.209	6151.76
428.417	6098.51
428.624	6614.6
428.832	6794.82
429.039	6442.57
429.247	6444.62
429.454	7278.14
429.662	7718.45
429.869	7272
430.076	7835.19
430.284	7581.24
430.491	7654.97
430.699	8230.45
430.906	8312.36
431.114	8312.36
431.321	8498.73
431.528	8629.8
431.736	9250.33
431.943	9815.57
432.15	9567.77
432.358	9682.45
432.565	10104.34
432.772	10092.05
432.979	10645
433.187	10761.73
433.394	10960.39
433.601	11439.61
433.808	11648.5
434.016	11521.53
434.223	12064.24
434.43	12848.61
434.637	12565.99
434.844	13393.37
435.052	13422.05
435.259	13307.36
435.466	13688.28
435.673	13495.77
435.88	14388.69
436.087	15103.43
436.294	15046.09
436.501	14521.81
436.708	14915.02
436.915	15441.34
437.122	16141.75
437.329	16108.98
437.537	16567.73
437.743	16960.94
437.95	16866.73
438.157	17517.98
438.364	18408.85
438.571	18115.99
438.778	18146.71
438.985	19889.53
439.192	19201.41
439.399	19666.3
439.606	19242.37
439.813	20616.56
440.02	21521.76
440.227	21237.09
440.433	20663.66
440.64	21605.73
440.847	21671.26
441.054	22146.39
441.261	23848.25
441.467	23096.65
441.674	23516.48
441.881	24472.89
442.088	24395.06
442.294	24169.79
442.501	24337.72
442.708	25328.94
442.914	26332.44
443.121	27442.44
443.328	26486.04
443.534	28130.56
443.741	27714.82
443.948	27063.57
444.154	29336.81
444.361	28929.27
444.568	29349.1
444.774	29101.29
444.981	29390.06
445.187	30448.86
445.394	31620.3
445.6	31188.17
445.807	34321.57
446.013	32771.25
446.22	33385.65
446.426	34774.17
446.633	35210.39
446.839	36160.64
447.046	34430.11
447.252	36172.93
447.459	36584.57
447.665	36435.07
447.871	37815.4
448.078	39421.01
448.284	37577.84
448.491	38548.57
448.697	39967.82
448.903	41077.82
449.11	40657.98
449.316	40215.62
449.522	41155.64
449.728	42570.79
449.935	42492.96
450.141	42488.87
450.347	43357.21
450.553	42054.7
450.76	42398.76
450.966	44067.85
451.172	43447.32
451.378	45149.18
451.584	43688.98
451.791	44700.67
451.997	44811.26
452.203	45466.61
452.409	45358.07
452.615	45038.59
452.821	43582.48
453.027	43367.44
453.233	45302.78
453.44	43715.6
453.646	43818
453.852	44162.06
454.058	44737.54
454.264	43467.8
454.47	44694.53
454.676	43297.81
454.882	44717.06
455.088	41255.99
455.294	41571.38
455.5	42638.37
455.705	42718.24
455.911	41083.96
456.117	40272.96
456.323	39664.72
456.529	37379.18
456.735	39271.51
456.941	38472.8
457.147	37555.31
457.352	36705.4
457.558	36447.36
457.764	35998.85
457.97	35490.96
458.176	34634.91
458.381	34907.29
458.587	33170.61
458.793	32978.1
458.999	31585.48
459.204	33547.43
459.41	33041.59
459.616	30467.29
459.821	30557.4
460.027	30424.28
460.233	29641.96
460.438	28265.72
460.644	28763.38
460.85	27270.41
461.055	26852.62
461.261	26934.54
461.466	24712.5
461.672	24102.2
461.878	25838.88
462.083	24231.22
462.289	23758.14
462.494	23172.43
462.7	22343
462.905	21480.8
463.111	22103.39
463.316	22363.48
463.522	22074.71
463.727	22056.28
463.932	22148.44
464.138	21464.42
464.343	21417.32
464.549	21269.86
464.754	21437.8
464.959	21683.55
465.165	21226.85
465.37	20233.59
465.575	19746.17
465.781	20436.34
465.986	20485.49
466.191	19848.57
466.397	19680.64
466.602	18507.15
466.807	19385.73
467.012	19406.21
467.218	18972.04
467.423	18673.04
467.628	19221.89
467.833	19701.12
468.038	19164.55
468.244	18550.16
468.449	19162.5
468.654	18677.13
468.859	18455.95
469.064	18511.25
469.269	17530.27
469.474	17610.14
469.679	18148.76
469.885	17655.2
470.09	17427.87
470.295	17921.43
470.5	16989.61
470.705	17440.16
470.91	17114.53
471.115	17003.94
471.32	17128.87
471.525	17055.14
471.73	16575.92
471.935	16258.48
472.139	15773.11
472.344	16063.93
472.549	15732.15
472.754	15779.26
472.959	15472.06
473.164	15140.29
473.369	15177.16
473.574	15490.49
473.778	15209.92
473.983	15150.53
474.188	15005.13
474.393	14263.76
474.598	14636.49
474.802	14450.13
475.007	14519.76
475.212	14116.31
475.417	13649.37
475.621	13848.02
475.826	13899.22
476.031	13508.06
476.235	13239.78
476.44	13563.36
476.645	13250.02
476.849	13260.26
477.054	12908.01
477.259	12697.06
477.463	12742.12
477.668	12381.68
477.872	12668.39
478.077	12568.04
478.282	12119.54
478.486	12439.02
478.691	11884.02
478.895	11951.6
479.1	11746.81
479.304	11984.37
479.509	11574.78
479.713	11841.01
479.918	11570.68
480.122	11179.52
480.326	11552.25
480.531	11378.17
480.735	11359.74
480.94	11312.64
481.144	11509.24
481.348	11044.35
481.553	11136.51
481.757	11048.45
481.961	10817.03
482.166	11269.63
482.37	10915.33
482.574	10896.9
482.778	10823.17
482.983	10987.01
483.187	10890.76
483.391	10964.48
483.595	10788.36
483.8	10673.67
484.004	11079.17
484.208	11044.35
484.412	10989.06
484.616	10976.77
484.821	11113.99
485.025	10491.4
485.229	11015.68
485.433	10917.38
485.637	10683.91
485.841	10694.15
486.045	10769.93
486.249	10882.56
486.453	10839.56
486.657	10726.92
486.861	10827.27
487.065	10657.29
487.269	10911.24
487.473	10710.54
487.677	10935.81
487.881	10724.87
488.085	10747.4
488.289	11173.38
488.493	10651.14
488.697	10810.89
488.901	10901
489.105	10604.04
489.309	10688.01
489.512	10939.91
489.716	10802.69
489.92	10882.56
490.124	10677.77
490.328	10958.34
490.531	10876.42
490.735	10958.34
490.939	11152.9
491.143	10931.72
491.346	10958.34
491.55	11030.02
491.754	10933.76
491.958	11048.45
492.161	11021.83
492.365	11062.79
492.569	11208.19
492.772	11148.8
492.976	11419.13
493.18	11435.52
493.383	11281.92
493.587	11439.61
493.79	11443.71
493.994	11367.93
494.197	11435.52
494.401	11591.16
494.605	11736.57
494.808	11838.97
495.012	11953.65
495.215	11961.84
495.419	11980.28
495.622	11910.64
495.825	12127.73
496.029	11965.94
496.232	12475.88
496.436	12195.31
496.639	12604.91
496.843	12312.05
497.046	12684.78
497.249	12752.36
497.453	12793.32
497.656	12936.68
497.859	13161.95
498.063	13264.35
498.266	13432.29
498.469	13020.64
498.673	13620.7
498.876	13567.45
499.079	13766.1
499.282	13995.48
499.485	14171.6
499.689	14165.46
499.892	14521.81
500.095	14532.04
500.298	14869.96
500.501	14505.42
500.705	14945.73
500.908	14892.49
501.111	15228.35
501.314	15363.52
501.517	15404.48
501.72	15611.32
501.923	15683
502.126	16131.51
502.329	16235.95
502.532	16190.9
502.735	16274.87
502.938	16494
503.141	16594.35
503.344	17173.92
503.547	16864.68
503.75	17112.49
503.953	17403.3
504.156	17745.31
504.359	17829.27
504.562	17759.64
504.765	18048.41
504.968	17995.16
505.17	18537.87
505.373	18349.46
505.576	18863.5
505.779	19013
505.982	19033.48
506.185	19664.25
506.387	19443.07
506.59	19600.77
506.793	20309.36
506.996	19901.82
507.198	20733.29
507.401	20274.55
507.604	20514.16
507.807	20952.43
508.009	21124.46
508.212	21509.47
508.415	21390.69
508.617	21945.69
508.82	21812.57
509.022	21890.4
509.225	22232.41
509.428	22506.84
509.63	22797.65
509.833	22766.93
510.035	23262.54
510.238	23301.45
510.44	23594.31
510.643	23614.79
510.845	24296.76
511.048	24014.14
511.25	24251.7
511.453	24474.93
511.655	25228.59
511.858	24927.53
512.06	25134.38
512.262	25791.78
512.465	25574.69
512.667	25806.11
512.87	26264.86
513.072	26088.73
513.274	27032.85
513.477	26742.03
513.679	26989.84
513.881	27405.58
514.084	27702.53
514.286	27866.37
514.488	27639.04
514.69	28755.19
514.893	28536.06
515.095	28792.05
515.297	28994.8
515.499	29302
515.701	29406.44
515.904	29844.71
516.106	29594.86
516.308	30002.4
516.51	30448.86
516.712	30377.18
516.914	30964.95
517.116	31632.58
517.318	31122.64
517.52	31206.61
517.722	31966.4
517.925	32177.34
518.127	32076.99
518.329	32427.2
518.531	32193.73
518.733	32982.2
518.935	33062.07
519.136	33285.29
519.338	33709.22
519.54	34108.58
519.742	33842.34
519.944	34124.96
520.146	34266.27
520.348	34841.75
520.55	34929.81
520.752	34876.57
520.954	35404.94
521.155	35196.05
521.357	35761.29
521.559	36269.19
521.761	36367.49
521.963	36152.45
522.164	36865.14
522.366	36504.7
522.568	36654.2
522.77	36766.84
522.971	37332.08
523.173	36988.02
523.375	37555.31
523.576	37459.06
523.778	37553.26
523.98	37985.38
524.181	37979.24
524.383	37901.42
524.584	38321.25
524.786	38216.8
524.988	38100.07
525.189	38675.55
525.391	38939.74
525.592	39222.36
525.794	39056.47
525.995	39089.24
526.197	38935.64
526.398	38976.6
526.6	39343.19
526.801	38964.31
527.003	39515.22
527.204	39470.16
527.406	39590.99
527.607	39588.94
527.808	39736.4
528.01	38876.25
528.211	39578.7
528.412	39763.02
528.614	39844.94
528.815	39556.18
529.016	40387.65
529.218	39806.03
529.419	39830.6
529.62	39677.01
529.822	39748.68
530.023	39562.32
530.224	40156.23
530.425	39599.18
530.626	39699.53
530.828	39590.99
531.029	40043.59
531.23	39576.65
531.431	39337.04
531.632	39902.28
531.833	39930.95
532.035	39834.7
532.236	39474.26
532.437	40029.26
532.638	39394.39
532.839	40014.92
533.04	39699.53
533.241	39212.12
533.442	40037.45
533.643	39625.81
533.844	39105.62
534.045	39165.01
534.246	38818.91
534.447	39472.21
534.648	38775.9
534.849	39103.57
535.05	39408.72
535.251	39216.21
535.451	38739.04
535.652	39165.01
535.853	38558.81
536.054	38462.56
536.255	38999.13
536.456	38466.66
536.657	39232.6
536.857	38446.18
537.058	38284.39
537.259	38945.88
537.46	38847.58
537.66	38575.2
537.861	38388.83
538.062	38462.56
538.263	38403.17
538.463	38165.6
538.664	38093.93
538.865	38534.24
539.065	38775.9
539.266	38028.39
539.466	38573.15
539.667	37807.21
539.868	38440.03
540.068	38270.05
540.269	38149.22
540.469	38452.32
540.67	38145.12
540.87	38003.81
541.071	38036.58
541.271	37942.38
541.472	37887.08
541.672	38022.25
541.873	37710.96
542.073	37266.55
542.274	38028.39
542.474	37534.83
542.675	37211.25
542.875	38040.68
543.075	37690.48
543.276	37303.41
543.476	37821.55
543.676	37379.18
543.877	37854.31
544.077	37864.55
544.277	37549.17
544.478	37694.57
544.678	37475.44
544.878	37080.18
545.078	37272.69
545.279	37244.02
545.479	37284.98
545.679	37438.58
545.879	37463.15
546.079	37379.18
546.28	37391.47
546.48	37110.9
546.68	37184.63
546.88	37428.34
547.08	37241.97
547.28	37379.18
547.48	36799.61
547.68	37710.96
547.88	36971.64
548.081	37534.83
548.281	37614.7
548.481	37178.48
548.681	37975.14
548.881	37307.51
549.081	37340.27
549.28	37379.18
549.48	37444.72
549.68	37041.27
549.88	37608.56
550.08	37538.93
550.28	37258.35
550.48	37338.22
550.68	37266.55
550.88	37391.47
551.08	37094.52
551.279	37407.86
551.479	37266.55
551.679	37315.7
551.879	37536.88
552.079	37473.39
552.278	37141.62
552.478	37469.29
552.678	37504.11
552.878	37784.68
553.077	37330.03
553.277	37182.58
553.477	37809.26
553.676	37381.23
553.876	37201.01
554.076	37446.77
554.275	37631.08
554.475	37471.34
554.674	37592.17
554.874	37649.52
555.074	37903.46
555.273	37637.23
555.473	38034.53
555.672	37676.14
555.872	37596.27
556.071	37839.98
556.271	37661.8
556.47	37774.44
556.67	37516.4
556.869	37864.55
557.068	37739.63
557.268	37500.01
557.467	37917.8
557.667	37792.87
557.866	37645.42
558.065	37493.87
558.265	37409.9
558.464	37610.6
558.663	38089.83
558.863	37739.63
559.062	38114.41
559.261	37649.52
559.461	38278.24
559.66	37186.68
559.859	38048.87
560.058	37626.99
560.258	37815.4
560.457	37782.63
560.656	37938.28
560.855	37370.99
561.054	37731.43
561.253	37385.33
561.453	37839.98
561.652	37870.7
561.851	37612.65
562.05	37790.83
562.249	37532.78
562.448	38167.65
562.647	37571.69
562.846	37635.18
563.045	37733.48
563.244	37469.29
563.443	37553.26
563.642	37071.99
563.841	37307.51
564.04	37520.49
564.239	37784.68
564.438	37444.72
564.637	37620.84
564.836	37239.92
565.035	37305.46
565.234	37588.08
565.432	37194.87
565.631	37047.41
565.83	37280.88
566.029	36965.49
566.228	37061.75
566.427	36846.71
566.625	36633.72
566.824	36893.82
567.023	36889.72
567.222	36271.23
567.42	36779.13
567.619	36840.57
567.818	36297.86
568.016	36576.38
568.215	36715.64
568.414	36379.78
568.612	36582.52
568.811	36504.7
569.01	36408.45
569.208	35609.74
569.407	36019.33
569.605	35662.99
569.804	36134.02
570.002	35845.26
570.201	36097.16
570.4	35413.13
570.598	35527.82
570.797	35095.7
570.995	35458.19
571.193	35265.68
571.392	35376.27
571.59	34913.43
571.789	35378.32
571.987	35343.5
572.186	34897.05
572.384	34690.2
572.582	35198.1
572.781	34770.07
572.979	34358.43
573.177	34835.61
573.376	34546.84
573.574	34483.36
573.772	34376.86
573.971	34030.76
574.169	34135.2
574.367	33698.98
574.565	34313.38
574.763	33602.73
574.962	33340.59
575.16	33408.17
575.358	33541.29
575.556	33186.99
575.754	33725.61
575.952	32738.49
576.151	33281.2
576.349	32873.65
576.547	33070.26
576.745	32769.21
576.943	33031.35
577.141	32883.89
577.339	32988.34
577.537	32343.23
577.735	32593.08
577.933	32310.46
578.131	32621.75
578.329	31968.45
578.527	31831.24
578.725	31894.72
578.923	32091.33
579.121	32040.13
579.319	31734.98
579.516	31734.98
579.714	32099.52
579.912	31823.05
580.11	31020.24
580.308	31210.7
580.506	31333.58
580.704	31057.1
580.901	31294.67
581.099	31284.43
581.297	31206.61
581.495	30764.25
581.692	31079.63
581.89	30598.36
582.088	30919.89
582.285	30162.14
582.483	30606.55
582.681	30371.04
582.878	30485.72
583.076	30178.53
583.274	30260.44
583.471	30012.64
583.669	30237.92
583.866	29754.6
584.064	30082.27
584.262	29715.69
584.459	29842.66
584.657	29773.03
584.854	30031.07
585.052	29326.57
585.249	29650.15
585.447	29717.73
585.644	29193.45
585.841	29082.86
586.039	29361.39
586.236	28894.45
586.434	29148.4
586.631	28718.32
586.828	29211.88
587.026	29007.09
587.223	28849.39
587.42	28990.7
587.618	28882.16
587.815	28486.9
588.012	28497.14
588.21	28579.06
588.407	28826.87
588.604	28157.18
588.801	27833.6
588.999	28278.01
589.196	27811.07
589.393	28148.99
589.59	28011.78
589.787	27923.71
589.984	27915.52
590.182	27637
590.379	27852.03
590.576	27782.4
590.773	27866.37
590.97	27505.93
591.167	27878.66
591.364	27440.39
591.561	27856.13
591.758	27378.95
591.955	27303.18
592.152	27637
592.349	27329.8
592.546	27264.27
592.743	27378.95
592.94	27151.63
593.137	27125
593.334	27346.19
593.531	26957.07
593.727	27034.89
593.924	27096.33
594.121	26645.78
594.318	26795.28
594.515	26553.62
594.712	27026.7
594.908	26656.02
595.105	26879.25
595.302	26735.89
595.499	26647.83
595.696	26387.74
595.892	26506.52
596.089	26504.47
596.286	26496.28
596.482	26246.43
596.679	26496.28
596.876	26393.88
597.072	26553.62
597.269	26551.57
597.466	26443.03
597.662	26137.88
597.859	26297.63
598.055	26328.34
598.252	26064.16
598.448	26262.81
598.645	26217.75
598.841	25890.08
599.038	26371.35
599.234	26340.63
599.431	26148.12
599.627	25797.92
599.824	26238.23
600.02	26049.82
600.217	26051.87
600.413	26090.78
600.609	26311.96
600.806	26207.51
601.002	26303.77
601.198	25959.71
601.395	26084.64
601.591	26146.08
601.787	26512.66
601.984	26230.04
602.18	26246.43
602.376	25928.99
602.572	26318.11
602.769	26299.67
602.965	25767.2
603.161	26342.68
603.357	25990.43
603.553	26117.4
603.75	26227.99
603.946	26060.06
604.142	26121.5
604.338	25642.28
604.534	25980.19
604.73	26178.84
604.926	26438.94
605.122	25990.43
605.318	25945.37
605.514	25849.12
605.71	26117.4
605.906	25785.63
606.102	26483.99
606.298	26017.05
606.494	26211.61
606.69	26520.85
606.886	26277.15
607.082	26019.1
607.278	26445.08
607.474	26105.12
607.67	26563.86
607.866	26041.63
608.062	26699.03
608.257	26617.11
608.453	26334.49
608.649	26768.66
608.845	26391.83
609.041	26432.79
609.236	26873.1
609.432	26520.85
609.628	26776.85
609.824	26594.58
610.019	26490.13
610.215	26424.6
610.411	26670.36
610.606	26795.28
610.802	26893.58
610.998	26629.4
611.193	26641.68
611.389	26524.95
611.584	26391.83
611.78	26555.67
611.976	26848.53
612.171	27092.24
612.367	26696.98
612.562	26547.48
612.758	26637.59
612.953	26438.94
613.149	26985.74
613.344	26709.27
613.539	27301.13
613.735	26858.77
613.93	27086.09
614.126	26821.91
614.321	27014.41
614.517	26995.98
614.712	26746.13
614.907	26914.06
615.103	26866.96
615.298	26989.84
615.493	27135.24
615.688	26834.19
615.884	27256.07
616.079	26686.74
616.274	26688.79
616.47	26809.62
616.665	27079.95
616.86	27051.28
617.055	26936.59
617.25	26758.42
617.445	27075.85
617.641	26365.21
617.836	26848.53
618.031	26332.44
618.226	26604.82
618.421	26653.97
618.616	26727.7
618.811	26555.67
619.006	26739.99
619.201	25883.94
619.396	26434.84
619.591	26068.25
619.786	26254.62
619.981	25789.73
620.176	26123.55
620.371	25658.66
620.566	26119.45
620.761	25697.57
620.956	25969.95
621.151	25795.87
621.346	25789.73
621.541	25496.87
621.735	25730.34
621.93	25212.2
622.125	25244.97
622.32	24837.42
622.515	25244.97
622.709	24761.65
622.904	24714.55
623.099	24579.38
623.294	24778.03
623.488	24395.06
623.683	24696.11
623.878	24407.35
624.072	24231.22
624.267	23981.37
624.462	24085.82
624.656	23913.79
624.851	23932.22
625.046	23741.76
625.24	23694.66
625.435	23262.54
625.629	23420.23
625.824	23244.1
626.018	23178.57
626.213	22603.09
626.407	23088.46
626.602	22607.19
626.796	22654.29
626.991	23086.41
627.185	22486.36
627.38	22084.95
627.574	22132.06
627.768	22019.42
627.963	22007.13
628.157	22140.25
628.352	21839.2
628.546	21605.73
628.74	21747.04
628.935	21423.46
629.129	21618.02
629.323	21173.61
629.517	21413.22
629.712	21245.29
629.906	20886.89
630.1	20884.84
630.294	21189.99
630.489	20847.98
630.683	21009.77
630.877	20579.7
631.071	20370.8
631.265	20555.12
631.459	20260.21
631.653	20434.29
631.848	20237.69
632.042	19807.61
632.236	20127.1
632.43	19586.43
632.624	19627.39
632.818	19758.46
633.012	19398.02
633.206	19271.04
633.4	19471.75
633.594	19385.73
633.788	19318.15
633.982	19144.07
634.176	18797.96
634.369	19035.53
634.563	18740.62
634.757	18548.11
634.951	18855.31
635.145	18242.96
635.339	18228.63
635.533	18492.82
635.726	18406.8
635.92	18107.8
636.114	17913.24
636.308	18034.07
636.501	17790.36
636.695	18103.7
636.889	17577.37
637.083	17647.01
637.276	17624.48
637.47	17395.11
637.664	17110.44
637.857	17139.11
638.051	17143.21
638.244	16930.22
638.438	16616.88
638.632	16981.42
638.825	16793
639.019	16719.28
639.212	16330.16
639.406	16666.03
639.599	16582.06
639.793	16367.02
639.986	15809.98
640.18	16293.3
640.373	16002.49
640.567	15939
640.76	15963.58
640.954	15611.32
641.147	15822.27
641.34	15377.86
641.534	15564.22
641.727	15580.6
641.92	15533.5
642.114	15412.67
642.307	15072.71
642.5	15115.72
642.694	14894.54
642.887	14691.79
643.08	14859.72
643.273	14583.24
643.467	14607.82
643.66	14550.48
643.853	14364.11
644.046	14286.29
644.239	14110.16
644.432	14061.01
644.626	14171.6
644.819	13848.02
645.012	13999.57
645.205	13729.24
645.398	13766.1
645.591	13297.12
645.784	13473.25
645.977	13632.99
646.17	13463.01
646.363	13354.46
646.556	13125.09
646.749	13125.09
646.942	13108.71
647.135	12922.34
647.328	12873.19
647.521	12768.74
647.714	12652.01
647.907	12756.46
648.099	12549.61
648.292	12658.15
648.485	12494.32
648.678	12273.14
648.871	12463.6
649.064	12402.16
649.256	12240.37
649.449	12226.03
649.642	12148.21
649.835	12082.67
650.027	11810.29
650.22	11636.22
650.413	11777.53
650.605	11943.41
650.798	11757.05
650.991	11873.78
651.183	11589.11
651.376	11279.87
651.568	11566.59
651.761	11386.36
651.954	11304.45
652.146	11136.51
652.339	11302.4
652.531	11230.72
652.724	11046.4
652.916	10843.65
653.109	11099.65
653.301	10894.85
653.494	10933.76
653.686	10614.28
653.879	11005.44
654.071	10415.63
654.263	10483.21
654.456	10395.15
654.648	10389
654.84	10456.59
655.033	10417.68
655.225	10542.6
655.417	10202.64
655.61	10182.16
655.802	10178.06
655.994	10065.43
656.186	10190.35
656.379	10049.04
656.571	9889.3
656.763	9809.43
656.955	9915.92
657.148	9821.72
657.34	9715.22
657.532	9621.02
657.724	9698.84
657.916	9473.56
658.108	9623.06
658.3	9350.68
658.492	9346.59
658.684	9289.24
658.876	9096.74
659.068	9074.21
659.26	9080.35
659.452	9080.35
659.644	9002.53
659.836	9008.67
660.028	8889.89
660.22	8728.1
660.412	8926.75
660.604	8842.79
660.796	8685.09
660.988	8617.51
661.18	8742.44
661.372	8531.5
661.563	8506.92
661.755	8373.8
661.947	8359.47
662.139	8369.71
662.331	8246.83
662.522	8353.32
662.714	8332.84
662.906	8013.36
663.097	8173.1
663.289	8093.23
663.481	8007.22
663.673	8128.05
663.864	7851.57
664.056	7872.05
664.247	7896.63
664.439	7716.4
664.631	7949.87
664.822	7827
665.014	7812.66
665.205	7622.2
665.397	7558.71
665.588	7738.93
665.78	7409.21
665.971	7497.27
666.163	7591.48
666.354	7532.09
666.546	7265.85
666.737	7169.6
666.929	7489.08
667.12	7173.69
667.311	7355.96
667.503	7173.69
667.694	7075.39
667.885	7122.49
668.077	6966.85
668.268	7022.14
668.459	6948.42
668.651	6938.18
668.842	6968.9
669.033	6911.55
669.224	6786.63
669.416	7155.26
669.607	6846.02
669.798	6639.17
669.989	6807.11
670.18	6749.76
670.371	6686.28
670.563	6571.59
670.754	6678.08
670.945	6579.78
671.136	6749.76
671.327	6364.75
671.518	6551.11
671.709	6491.72
671.9	6596.17
672.091	6458.95
672.282	6487.62
672.473	6237.77
672.664	6286.92
672.855	6395.47
673.046	6307.4
673.237	6348.36
673.428	6323.79
673.619	6149.71
673.809	6213.2
674	6282.83
674.191	6096.46
674.382	6125.13
674.573	6194.76
674.764	6073.93
674.954	6219.34
675.145	6125.13
675.336	6170.19
675.527	5998.16
675.717	6032.97
675.908	5946.96
676.099	5824.08
676.289	6067.79
676.48	5871.19
676.671	5940.82
676.861	5791.31
677.052	5748.31
677.243	5742.16
677.433	5721.68
677.624	5809.75
677.814	5813.84
678.005	5756.5
678.195	5639.76
678.386	5584.47
678.576	5656.15
678.767	5686.87
678.957	5873.23
679.148	5627.48
679.338	5699.16
679.529	5533.27
679.719	5602.9
679.909	5723.73
680.1	5490.26
680.29	5623.38
680.481	5402.2
680.671	5617.24
680.861	5600.85
681.052	5459.54
681.242	5439.06
681.432	5559.89
681.622	5529.17
681.813	5365.34
682.003	5498.45
682.193	5385.82
682.383	5531.22
682.573	5267.03
682.764	5336.67
682.954	5340.76
683.144	5389.91
683.334	5402.2
683.524	5406.3
683.714	5379.67
683.904	5236.31
684.094	5299.8
684.284	5289.56
684.474	5377.62
684.664	5322.33
684.854	5365.34
685.044	5162.59
685.234	5279.32
685.424	5221.98
685.614	5299.8
685.804	5156.44
685.994	5322.33
686.184	5133.92
686.374	5287.51
686.564	5140.06
686.753	5172.83
686.943	5103.2
687.133	5209.69
687.323	5142.11
687.513	5152.35
687.702	4988.51
687.892	4992.61
688.082	4953.7
688.272	5152.35
688.461	5037.66
688.651	5025.37
688.841	4984.41
689.03	4839.01
689.22	4877.92
689.41	4992.61
689.599	4882.02
689.789	4857.44
689.979	4943.46
690.168	4970.08
690.358	4896.35
690.547	4879.97
690.737	4873.82
690.926	4644.45
691.116	4689.51
691.305	4859.49
691.495	4824.67
691.684	4783.71
691.874	4869.73
692.063	4820.58
692.252	4804.19
692.442	4669.03
692.631	4550.25
692.82	4701.79
693.01	4724.32
693.199	4824.67
693.388	4494.95
693.578	4623.97
693.767	4595.3
693.956	4752.99
694.146	4623.97
694.335	4474.47
694.524	4554.34
694.713	4638.31
694.902	4642.4
695.092	4634.21
695.281	4468.33
695.47	4595.3
695.659	4511.33
695.848	4464.23
696.037	4402.79
696.226	4488.81
696.415	4404.84
696.604	4578.92
696.793	4445.8
696.982	4468.33
697.171	4499.05
697.36	4382.31
697.549	4419.18
697.738	4419.18
697.927	4230.76
698.116	4339.3
698.305	4394.6
698.494	4398.7
698.683	4468.33
698.872	4406.89
699.061	4396.65
699.25	4251.24
699.438	4320.87
699.627	4275.82
699.816	4445.8
700.005	4288.11
700.193	4116.08
700.382	4290.15
700.571	4165.23
700.76	4245.1
700.948	4243.05
701.137	4363.88
701.326	4148.84
701.514	4148.84
701.703	4224.62
701.892	4161.13
702.08	4324.97
702.269	4142.7
702.457	4238.95
702.646	4103.79
702.834	4124.27
703.023	4019.82
703.212	4263.53
703.4	4058.73
703.589	3985.01
703.777	4017.77
703.965	4001.39
704.154	3935.85
704.342	3923.57
704.531	4025.97
704.719	4046.44
704.907	4042.35
705.096	3935.85
705.284	4007.53
705.472	3935.85
705.661	4068.97
705.849	4028.01
706.037	3960.43
706.226	3780.21
706.414	3866.22
706.602	4005.49
706.79	3847.79
706.979	3915.37
707.167	3980.91
707.355	3782.26
707.543	3872.37
707.731	3837.55
707.919	3710.58
708.107	3905.14
708.296	3724.91
708.484	3745.39
708.672	3747.44
708.86	3780.21
709.048	3657.33
709.236	3665.52
709.424	3800.69
709.612	3665.52
709.8	3722.87
709.988	3591.8
710.176	3591.8
710.364	3669.62
710.551	3606.13
710.739	3686
710.927	3583.6
711.115	3616.37
711.303	3626.61
711.491	3569.27
711.679	3655.28
711.866	3720.82
712.054	3534.45
712.242	3485.3
712.43	3595.89
712.617	3559.03
712.805	3513.97
712.993	3503.73
713.181	3475.06
713.368	3487.35
713.556	3458.68
713.744	3427.96
713.931	3407.48
714.119	3411.57
714.306	3583.6
714.494	3378.81
714.682	3395.19
714.869	3450.49
715.057	3393.14
715.244	3397.24
715.432	3397.24
715.619	3329.66
715.807	3419.77
715.994	3350.14
716.182	3274.36
716.369	3284.6
716.556	3241.59
716.744	3237.5
716.931	3141.24
717.119	3513.97
717.306	3253.88
717.493	3264.12
717.681	3194.49
717.868	3217.02
718.055	3155.58
718.242	3198.59
718.43	3214.97
718.617	3227.26
718.804	3247.74
718.991	3243.64
719.179	3229.31
719.366	3141.24
719.553	3190.39
719.74	3143.29
719.927	3116.67
720.114	3083.9
720.301	3051.13
720.488	3135.1
720.676	3001.98
720.863	3176.06
721.05	3186.3
721.237	3051.13
721.424	3128.95
721.611	3098.24
721.798	3108.48
721.985	3053.18
722.172	3157.63
722.358	2954.88
722.545	3126.91
722.732	2932.35
722.919	3014.27
723.106	2999.93
723.293	3092.09
723.48	2936.45
723.667	2936.45
723.853	3030.65
724.04	3022.46
724.227	3001.98
724.414	2938.49
724.6	2924.16
724.787	3010.17
724.974	3014.27
725.161	2772.61
725.347	2829.95
725.534	2739.84
725.72	2887.29
725.907	2780.8
726.094	2854.53
726.28	2920.06
726.467	2854.53
726.653	2772.61
726.84	2823.81
727.027	2676.35
727.213	2797.18
727.4	2780.8
727.586	2936.45
727.773	2756.22
727.959	2672.26
728.145	2602.63
728.332	2690.69
728.518	2791.04
728.705	2729.6
728.891	2782.85
729.077	2633.35
729.264	2608.77
729.45	2619.01
729.636	2766.46
729.823	2698.88
730.009	2766.46
730.195	2535.04
730.382	2659.97
730.568	2563.72
730.754	2717.31
730.94	2539.14
731.126	2733.7
731.313	2602.63
731.499	2694.79
731.685	2586.24
731.871	2526.85
732.057	2649.73
732.243	2651.78
732.429	2610.82
732.615	2690.69
732.801	2645.63
732.987	2561.67
733.173	2686.59
733.359	2610.82
733.545	2535.04
733.731	2584.2
733.917	2530.95
734.103	2543.24
734.289	2629.25
734.475	2522.76
734.661	2643.59
734.847	2496.13
735.033	2510.47
735.219	2612.87
735.404	2555.52
735.59	2373.25
735.776	2358.92
735.962	2395.78
736.148	2461.32
736.333	2455.17
736.519	2440.84
736.705	2522.76
736.89	2408.07
737.076	2356.87
737.262	2514.56
737.447	2346.63
737.633	2494.08
737.819	2453.13
738.004	2375.3
738.19	2379.4
738.375	2414.21
738.561	2373.25
738.747	2303.62
738.932	2240.14
739.118	2461.32
739.303	2363.01
739.489	2256.52
739.674	2305.67
739.859	2240.14
740.045	2270.86
740.23	2274.95
740.416	2158.22
740.601	2178.7
740.786	2287.24
740.972	2225.8
741.157	2266.76
741.342	2199.18
741.528	2164.36
741.713	2201.23
741.898	2158.22
742.084	2141.83
742.269	2260.62
742.454	2037.39
742.639	2121.35
742.824	2221.7
743.01	2199.18
743.195	2115.21
743.38	2150.03
743.565	2156.17
743.75	2092.68
743.935	2174.6
744.12	2123.4
744.305	2010.76
744.49	1945.23
744.675	1934.99
744.86	2043.53
745.045	1953.42
745.23	1969.8
745.415	2031.24
745.6	2125.45
745.785	1963.66
745.97	2037.39
746.155	2035.34
746.34	1969.8
746.525	1855.12
746.71	1988.24
746.895	1851.02
747.079	1824.4
747.264	1820.3
747.449	1912.46
747.634	1928.85
747.819	1824.4
748.003	1740.43
748.188	1840.78
748.373	1781.39
748.557	1855.12
748.742	1863.31
748.927	1814.16
749.111	1808.02
749.296	1750.67
749.481	1666.71
749.665	1760.91
749.85	1660.56
750.034	1728.14
750.219	1674.9
750.404	1658.51
750.588	1625.75
750.773	1638.03
750.957	1562.26
751.141	1588.88
751.326	1707.66
751.51	1650.32
751.695	1552.02
751.879	1574.55
752.064	1582.74
752.248	1605.27
752.432	1635.99
752.617	1537.68
752.801	1521.3
752.985	1496.72
753.17	1519.25
753.354	1525.4
753.538	1562.26
753.722	1437.33
753.907	1347.22
754.091	1449.62
754.275	1529.49
754.459	1552.02
754.643	1406.61
754.828	1502.87
755.012	1423
755.196	1392.28
755.38	1345.17
755.564	1336.98
755.748	1398.42
755.932	1375.89
756.116	1388.18
756.3	1310.36
756.484	1470.1
756.668	1371.8
756.852	1367.7
757.036	1218.2
757.22	1191.58
757.404	1265.3
757.588	1308.31
757.772	1236.63
757.956	1269.4
758.14	1339.03
758.323	1119.9
758.507	1242.78
758.691	1314.45
758.875	1269.4
759.059	1283.74
759.242	1140.38
759.426	1189.53
759.61	1306.26
759.794	1148.57
759.977	1126.04
760.161	1283.74
760.345	1228.44
760.528	1203.86
760.712	1207.96
760.895	1216.15
761.079	1191.58
761.263	1119.9
761.446	1060.51
761.63	1175.19
761.813	1185.43
761.997	1068.7
762.18	1119.9
762.364	1091.23
762.547	1027.74
762.731	1136.28
762.914	1146.52
763.098	1085.08
763.281	1138.33
763.464	1048.22
763.648	1042.07
763.831	1009.31
764.015	1105.56
764.198	1033.88
764.381	1035.93
764.564	1035.93
764.748	1023.64
764.931	1060.51
765.114	970.4
765.297	1037.98
765.481	941.72
765.664	1046.17
765.847	1068.7
766.03	1070.75
766.213	962.2
766.397	904.86
766.58	1019.55
766.763	1078.94
766.946	986.78
767.129	1019.55
767.312	980.64
767.495	1021.6
767.678	997.02
767.861	994.97
768.044	990.88
768.227	913.05
768.41	925.34
768.593	978.59
768.776	884.38
768.959	986.78
769.142	1019.55
769.324	833.18
769.507	929.44
769.69	962.2
769.873	831.13
770.056	994.97
770.239	976.54
770.421	964.25
770.604	839.33
770.787	915.1
770.97	906.91
771.152	921.24
771.335	847.52
771.518	874.14
771.7	960.16
771.883	980.64
772.066	853.66
772.248	839.33
772.431	882.33
772.613	829.09
772.796	818.85
772.978	917.15
773.161	820.89
773.343	765.6
773.526	822.94
773.708	827.04
773.891	685.73
774.073	827.04
774.256	777.89
774.438	904.86
774.621	743.07
774.803	820.89
774.985	734.88
775.168	839.33
775.35	802.46
775.532	802.46
775.715	835.23
775.897	730.78
776.079	781.98
776.261	890.53
776.444	804.51
776.626	749.22
776.808	708.26
776.99	716.45
777.173	726.69
777.355	700.06
777.537	650.91
777.719	728.74
777.901	595.62
778.083	702.11
778.265	650.91
778.447	765.6
778.629	663.2
778.811	634.53
778.993	620.19
779.175	636.58
779.357	620.19
779.539	642.72
779.721	626.34
779.903	620.19
780.085	638.62
780.267	650.91
780.449	612
780.631	745.12
780.812	710.3
780.994	564.9
781.176	585.38
781.358	655.01
781.54	607.91
781.721	628.39
781.903	618.15
782.085	593.57
782.267	612
782.448	521.89
782.63	507.55
782.812	554.66
782.993	544.42
783.175	560.8
783.357	536.23
783.538	583.33
783.72	560.8
783.901	575.14
784.083	501.41
784.264	501.41
784.446	599.71
784.627	454.31
784.809	605.86
784.99	511.65
785.172	530.08
785.353	505.51
785.535	525.99
785.716	503.46
785.897	581.28
786.079	480.93
786.26	515.75
786.441	538.27
786.623	466.6
786.804	499.36
786.985	466.6
787.167	470.69
787.348	442.02
787.529	413.35
787.71	558.75
787.891	435.88
788.073	480.93
788.254	368.29
788.435	425.64
788.616	396.96
788.797	442.02
788.978	429.73
789.159	374.44
789.34	466.6
789.522	413.35
789.703	439.97
789.884	423.59
790.065	460.45
790.246	366.25
790.427	417.44
790.607	437.92
790.788	446.12
790.969	390.82
791.15	374.44
791.331	356.01
791.512	356.01
791.693	372.39
791.874	396.96
792.054	462.5
792.235	339.62
792.416	298.66
792.597	374.44
792.778	425.64
792.958	439.97
793.139	323.24
793.32	335.53
793.5	339.62
793.681	382.63
793.862	390.82
794.042	382.63
794.223	327.33
794.404	335.53
794.584	353.96
794.765	308.9
794.945	362.15
795.126	374.44
795.306	384.68
795.487	353.96
795.667	337.57
795.848	335.53
796.028	409.25
796.209	356.01
796.389	294.57
796.57	282.28
796.75	220.84
796.93	349.86
797.111	229.03
797.291	333.48
797.471	343.72
797.652	272.04
797.832	339.62
798.012	331.43
798.192	339.62
798.373	325.29
798.553	274.09
798.733	327.33
798.913	247.46
799.093	261.8
799.274	284.33
799.454	343.72
799.634	259.75
799.814	343.72
799.994	263.85
800.174	353.96
800.354	306.85
800.534	237.22
800.714	329.38
800.894	239.27
801.074	216.74
801.254	226.98
801.434	347.81
801.614	214.7
801.794	130.73
801.974	956.06
802.154	233.13
802.334	257.7
802.514	212.65
802.693	267.94
802.873	151.21
803.053	263.85
803.233	233.13
803.413	272.04
803.592	200.36
803.772	274.09
803.952	300.71
804.131	183.98
804.311	259.75
804.491	300.71
804.67	188.07
804.85	231.08
805.03	224.94
805.209	251.56
805.389	186.02
805.568	257.7
805.748	233.13
805.928	188.07
806.107	302.76
806.287	274.09
806.466	247.46
806.646	241.32
806.825	159.4
807.004	151.21
807.184	210.6
807.363	159.4
807.543	253.61
807.722	222.89
807.901	292.52
808.081	190.12
808.26	108.2
808.439	224.94
808.619	167.59
808.798	229.03
808.977	218.79
809.156	323.24
809.336	310.95
809.515	233.13
809.694	222.89
809.873	143.02
810.052	210.6
810.231	194.22
810.411	151.21
810.59	310.95
810.769	177.83
810.948	208.55
811.127	143.02
811.306	183.98
811.485	212.65
811.664	196.26
811.843	159.4
812.022	175.78
812.201	183.98
812.38	145.06
812.559	163.5
812.737	200.36
812.916	179.88
813.095	128.68
813.274	138.92
813.453	194.22
813.632	224.94
813.811	243.37
813.989	192.17
814.168	157.35
814.347	175.78
814.526	188.07
814.704	188.07
814.883	204.46
815.062	167.59
815.24	145.06
815.419	126.63
815.598	188.07
815.776	114.34
815.955	157.35
816.133	186.02
816.312	126.63
816.49	130.73
816.669	194.22
816.847	102.06
817.026	153.26
817.204	220.84
817.383	239.27
817.561	143.02
817.74	157.35
817.918	173.74
818.097	79.53
818.275	159.4
818.453	161.45
818.632	155.3
818.81	134.82
818.988	145.06
819.167	143.02
819.345	167.59
819.523	196.26
819.701	108.2
819.879	202.41
820.058	198.31
820.236	200.36
820.414	110.25
820.592	73.39
820.77	130.73
820.948	214.7
821.127	183.98
821.305	128.68
821.483	208.55
821.661	208.55
821.839	147.11
822.017	151.21
822.195	77.48
822.373	151.21
822.551	159.4
822.729	122.54
822.907	126.63
823.085	147.11
823.262	140.97
823.44	95.91
823.618	83.63
823.796	143.02
823.974	110.25
824.152	173.74
824.329	220.84
824.507	110.25
824.685	89.77
824.863	155.3
825.04	143.02
825.218	106.15
825.396	112.3
825.574	151.21
825.751	171.69
825.929	192.17
826.107	100.01
826.284	71.34
826.462	44.71
826.639	54.95
826.817	93.87
826.994	151.21
827.172	61.1
827.349	171.69
827.527	87.72
827.704	110.25
827.882	249.51
828.059	126.63
828.237	61.1
828.414	147.11
828.591	110.25
828.769	44.71
828.946	114.34
829.124	112.3
829.301	59.05
829.478	102.06
829.655	69.29
829.833	87.72
830.01	81.58
830.187	118.44
830.364	106.15
830.542	130.73
830.719	89.77
830.896	124.58
831.073	85.67
831.25	145.06
831.427	93.87
831.604	102.06
831.782	46.76
831.959	93.87
832.136	3.75
832.313	85.67
832.49	108.2
832.667	132.78
832.844	46.76
833.021	134.82
833.198	102.06
833.374	116.39
833.551	-20.82
833.728	69.29
833.905	138.92
834.082	28.33
834.259	93.87
834.436	77.48
834.612	95.91
834.789	134.82
834.966	57
835.143	52.91
835.319	110.25
835.496	69.29
835.673	36.52
835.85	106.15
836.026	46.76
836.203	159.4
836.38	3.75
836.556	97.96
836.733	130.73
836.909	40.62
837.086	52.91
837.262	48.81
837.439	18.09
837.616	69.29
837.792	89.77
837.968	128.68
838.145	44.71
838.321	87.72
838.498	126.63
838.674	171.69
838.851	112.3
839.027	134.82
839.203	-2.39
839.38	155.3
839.556	5.8
839.732	183.98
839.909	38.57
840.085	61.1
840.261	57
840.437	95.91
840.614	79.53
840.79	171.69
840.966	75.43
841.142	161.45
841.318	5.8
841.494	85.67
841.671	95.91
841.847	85.67
842.023	54.95
842.199	151.21
842.375	61.1
842.551	120.49
842.727	9.9
842.903	102.06
843.079	24.23
843.255	120.49
843.431	106.15
843.607	95.91
843.783	57
843.959	52.91
844.134	3.75
844.31	151.21
844.486	40.62
844.662	63.15
844.838	20.14
845.013	54.95
845.189	97.96
845.365	97.96
845.541	206.5
845.716	85.67
845.892	65.19
846.068	106.15
846.244	-8.53
846.419	153.26
846.595	110.25
846.77	7.85
846.946	65.19
847.122	67.24
847.297	81.58
847.473	54.95
847.648	-4.44
847.824	-51.54
847.999	-65.88
848.175	30.38
848.35	81.58
848.526	118.44
848.701	175.78
848.876	79.53
849.052	118.44
849.227	36.52
849.403	52.91
849.578	61.1
849.753	61.1
849.929	52.91
850.104	38.57
850.279	46.76
850.454	155.3
850.63	122.54
850.805	50.86
850.98	106.15
851.155	-20.82
851.33	32.43
851.505	57
851.681	161.45
851.856	65.19
852.031	102.06
852.206	61.1
852.381	-16.73
852.556	-2.39
852.731	54.95
852.906	155.3
853.081	61.1
853.256	44.71
853.431	61.1
853.606	122.54
853.781	-29.01
853.956	-43.35
854.131	102.06
854.305	3.75
854.48	54.95
854.655	32.43
854.83	-2.39
855.005	-4.44
855.18	63.15
855.354	-10.58
855.529	69.29
855.704	22.19
855.879	-0.34
856.053	-29.01
856.228	-16.73
856.403	93.87
856.577	32.43
856.752	-6.49
856.926	54.95
857.101	-37.2
857.276	22.19
857.45	89.77
857.625	-2.39
857.799	32.43
857.974	3.75
858.148	-22.87
858.323	69.29
858.497	13.99
858.672	-12.63
858.846	36.52
859.02	52.91
859.195	73.39
859.369	24.23
859.543	73.39
859.718	54.95
859.892	59.05
860.066	20.14
860.241	65.19
860.415	22.19
860.589	52.91
860.763	89.77
860.938	83.63
861.112	110.25
861.286	-20.82
861.46	48.81
861.634	40.62
861.808	36.52
861.982	61.1
862.157	-2.39
862.331	20.14
862.505	7.85
862.679	-45.4
862.853	-10.58
863.027	-4.44
863.201	67.24
863.375	-12.63
863.549	118.44
863.722	-24.92
863.896	61.1
864.07	24.23
864.244	61.1
864.418	48.81
864.592	24.23
864.766	-49.49
864.939	40.62
865.113	65.19
865.287	128.68
865.461	-69.97
865.634	89.77
865.808	28.33
865.982	34.47
866.156	30.38
866.329	3.75
866.503	18.09
866.676	44.71
866.85	97.96
867.024	102.06
867.197	77.48
867.371	118.44
867.544	77.48
867.718	-45.4
867.891	85.67
868.065	13.99
868.238	73.39
868.412	71.34
868.585	112.3
868.759	28.33
868.932	11.95
869.105	-18.77
869.279	44.71
869.452	44.71
869.625	-26.96
869.799	-39.25
869.972	30.38
870.145	-2.39
870.319	16.04
870.492	20.14
870.665	11.95
870.838	128.68
871.011	57
871.185	69.29
871.358	54.95
871.531	159.4
871.704	-41.3
871.877	7.85
872.05	11.95
872.223	77.48
872.396	52.91
872.569	52.91
872.742	30.38
872.915	110.25
873.088	22.19
873.261	-2.39
873.434	36.52
873.607	38.57
873.78	69.29
873.953	11.95
874.126	36.52
874.299	57
874.471	-12.63
874.644	69.29
874.817	13.99
874.99	104.11
875.163	-67.92
875.335	-4.44
875.508	22.19
875.681	87.72
875.853	65.19
876.026	-16.73
876.199	52.91
876.371	-4.44
876.544	44.71
876.717	26.28
876.889	-8.53
877.062	36.52
877.234	3.75
877.407	7.85
877.579	-26.96
877.752	3.75
877.924	95.91
878.097	11.95
878.269	40.62
878.442	52.91
878.614	30.38
878.786	28.33
878.959	38.57
879.131	71.34
879.303	-49.49
879.476	13.99
879.648	11.95
879.82	85.67
879.993	11.95
880.165	11.95
880.337	-20.82
880.509	20.14
880.681	46.76
880.854	-16.73
881.026	85.67
881.198	102.06
881.37	22.19
881.542	3.75
881.714	-20.82
881.886	44.71
882.058	-0.34
882.23	18.09
882.402	-43.35
882.574	18.09
882.746	-31.06
882.918	77.48
883.09	52.91
883.262	42.67
883.434	30.38
883.606	36.52
883.778	-37.2
883.95	13.99
884.122	28.33
884.293	3.75
884.465	30.38
884.637	34.47
884.809	73.39
884.98	18.09
885.152	79.53
885.324	-45.4
885.496	52.91
885.667	26.28
885.839	63.15
886.011	7.85
886.182	-20.82
886.354	24.23
886.525	46.76
886.697	-35.16
886.869	-45.4
887.04	61.1
887.212	42.67
887.383	63.15
887.555	3.75
887.726	-24.92
887.897	-33.11
888.069	-33.11
888.24	65.19
888.412	116.39
888.583	11.95
888.754	-51.54
888.926	-6.49
889.097	-10.58
889.268	-2.39
889.44	48.81
889.611	5.8
889.782	-45.4
889.953	-31.06
890.125	69.29
890.296	-74.07
890.467	-10.58
890.638	-53.59
890.809	-12.63
890.98	-2.39
891.151	69.29
891.323	110.25
891.494	-4.44
891.665	9.9
891.836	38.57
892.007	20.14
892.178	77.48
892.349	13.99
892.52	-0.34
892.691	22.19
892.862	46.76
893.032	7.85
893.203	-16.73
893.374	7.85
893.545	20.14
893.716	54.95
893.887	85.67
894.057	50.86
894.228	30.38
894.399	-51.54
894.57	-29.01
894.74	63.15
894.911	34.47
895.082	-0.34
895.253	40.62
895.423	44.71
895.594	20.14
895.764	-18.77
895.935	34.47
896.106	-39.25
896.276	11.95
896.447	-12.63
896.617	-94.55
896.788	5.8
896.958	85.67
897.129	-18.77
897.299	-12.63
897.47	24.23
897.64	24.23
897.81	24.23
897.981	36.52
898.151	-26.96
898.322	1.71
898.492	36.52
898.662	40.62
898.832	28.33
899.003	54.95
899.173	16.04
899.343	-10.58
899.513	-61.78
