Data from USB4F104151__284__14-34-46-650.txt Node

Date: Thu Mar 13 14:34:46 EDT 2025
User: louis
Spectrometer: USB4F10415
Trigger mode: 4
Integration Time (sec): 2.500000E-2
Scans to average: 1
Electric dark correction enabled: true
Nonlinearity correction enabled: false
Boxcar width: 0
XAxis mode: Wavelengths
Number of Pixels in Spectrum: 3648
>>>>>Begin Spectral Data<<<<<
178.204	-136.7
178.424	-136.7
178.644	-136.7
178.864	-146.94
179.084	-155.13
179.304	23.04
179.524	-24.06
179.744	-22.02
179.964	29.18
180.184	61.95
180.404	39.42
180.624	27.14
180.844	-9.73
181.064	-60.93
181.283	-62.98
181.503	-58.88
181.723	57.86
181.943	-38.4
182.163	61.95
182.383	10.75
182.602	92.67
182.822	31.23
183.042	-1.54
183.262	59.9
183.482	43.52
183.701	-30.21
183.921	16.9
184.141	-56.83
184.361	104.96
184.58	47.62
184.8	31.23
185.02	23.04
185.239	107.01
185.459	64
185.679	55.81
185.898	-44.54
186.118	121.34
186.338	20.99
186.557	41.47
186.777	-48.64
186.997	23.04
187.216	-15.87
187.436	10.75
187.655	39.42
187.875	74.24
188.095	41.47
188.314	64
188.534	82.43
188.753	-30.21
188.973	33.28
189.192	39.42
189.412	-9.73
189.631	8.7
189.851	20.99
190.07	141.82
190.29	39.42
190.509	31.23
190.729	18.94
190.948	55.81
191.168	123.39
191.387	80.38
191.607	25.09
191.826	-17.92
192.045	-17.92
192.265	0.51
192.484	68.09
192.704	55.81
192.923	10.75
193.142	137.73
193.362	-65.02
193.581	-13.82
193.8	61.95
194.02	92.67
194.239	59.9
194.458	66.05
194.678	23.04
194.897	6.66
195.116	78.33
195.335	33.28
195.555	80.38
195.774	25.09
195.993	31.23
196.212	6.66
196.432	6.66
196.651	-65.02
196.87	33.28
197.089	113.15
197.308	72.19
197.528	0.51
197.747	-48.64
197.966	14.85
198.185	82.43
198.404	-17.92
198.623	59.9
198.842	43.52
199.062	107.01
199.281	68.09
199.5	-34.3
199.719	125.44
199.938	-34.3
200.157	90.62
200.376	80.38
200.595	31.23
200.814	-30.21
201.033	-15.87
201.252	100.86
201.471	55.81
201.69	35.33
201.909	29.18
202.128	14.85
202.347	72.19
202.566	43.52
202.785	33.28
203.004	-11.78
203.223	133.63
203.442	33.28
203.661	0.51
203.879	68.09
204.098	72.19
204.317	33.28
204.536	121.34
204.755	-46.59
204.974	55.81
205.193	20.99
205.411	145.92
205.63	39.42
205.849	41.47
206.068	16.9
206.287	31.23
206.505	74.24
206.724	55.81
206.943	47.62
207.162	35.33
207.381	23.04
207.599	-56.83
207.818	25.09
208.037	47.62
208.255	27.14
208.474	29.18
208.693	14.85
208.911	6.66
209.13	64
209.349	43.52
209.567	88.57
209.786	76.29
210.005	113.15
210.223	76.29
210.442	-17.92
210.661	-22.02
210.879	25.09
211.098	10.75
211.316	55.81
211.535	70.14
211.753	-22.02
211.972	23.04
212.191	43.52
212.409	55.81
212.628	-32.26
212.846	-7.68
213.065	18.94
213.283	84.48
213.502	16.9
213.72	-48.64
213.938	88.57
214.157	-34.3
214.375	14.85
214.594	-11.78
214.812	55.81
215.031	51.71
215.249	23.04
215.467	43.52
215.686	6.66
215.904	98.81
216.122	104.96
216.341	47.62
216.559	39.42
216.778	107.01
216.996	55.81
217.214	-1.54
217.432	55.81
217.651	2.56
217.869	-22.02
218.087	80.38
218.306	-13.82
218.524	57.86
218.742	68.09
218.96	16.9
219.179	16.9
219.397	23.04
219.615	43.52
219.833	-1.54
220.051	51.71
220.27	72.19
220.488	39.42
220.706	107.01
220.924	10.75
221.142	-26.11
221.36	96.77
221.578	47.62
221.796	74.24
222.015	123.39
222.233	25.09
222.451	96.77
222.669	84.48
222.887	-7.68
223.105	-56.83
223.323	-9.73
223.541	-11.78
223.759	78.33
223.977	-7.68
224.195	141.82
224.413	96.77
224.631	57.86
224.849	33.28
225.067	76.29
225.285	33.28
225.503	88.57
225.721	8.7
225.939	117.25
226.157	55.81
226.375	98.81
226.592	20.99
226.81	55.81
227.028	27.14
227.246	170.49
227.464	-1.54
227.682	59.9
227.9	16.9
228.117	57.86
228.335	43.52
228.553	8.7
228.771	100.86
228.989	16.9
229.206	47.62
229.424	64
229.642	2.56
229.86	-50.69
230.077	59.9
230.295	-46.59
230.513	23.04
230.731	33.28
230.948	55.81
231.166	47.62
231.384	-48.64
231.601	64
231.819	8.7
232.037	14.85
232.254	-34.3
232.472	57.86
232.689	6.66
232.907	92.67
233.125	14.85
233.342	64
233.56	55.81
233.777	47.62
233.995	33.28
234.213	31.23
234.43	27.14
234.648	25.09
234.865	10.75
235.083	49.66
235.3	39.42
235.518	92.67
235.735	4.61
235.953	88.57
236.17	16.9
236.388	33.28
236.605	33.28
236.822	-1.54
237.04	61.95
237.257	88.57
237.475	41.47
237.692	31.23
237.909	-32.26
238.127	2.56
238.344	80.38
238.562	115.2
238.779	-1.54
238.996	14.85
239.214	14.85
239.431	16.9
239.648	31.23
239.865	39.42
240.083	80.38
240.3	66.05
240.517	80.38
240.735	-7.68
240.952	117.25
241.169	61.95
241.386	39.42
241.603	-30.21
241.821	115.2
242.038	51.71
242.255	64
242.472	-65.02
242.689	86.53
242.907	55.81
243.124	-32.26
243.341	66.05
243.558	2.56
243.775	6.66
243.992	76.29
244.209	39.42
244.426	121.34
244.643	61.95
244.86	72.19
245.078	64
245.295	-42.5
245.512	55.81
245.729	-7.68
245.946	16.9
246.163	14.85
246.38	14.85
246.597	39.42
246.814	39.42
247.031	113.15
247.248	33.28
247.464	96.77
247.681	8.7
247.898	41.47
248.115	49.66
248.332	8.7
248.549	49.66
248.766	125.44
248.983	49.66
249.2	76.29
249.417	80.38
249.633	51.71
249.85	72.19
250.067	53.76
250.284	-26.11
250.501	88.57
250.717	27.14
250.934	61.95
251.151	84.48
251.368	35.33
251.585	80.38
251.801	-50.69
252.018	16.9
252.235	80.38
252.451	47.62
252.668	10.75
252.885	121.34
253.102	127.49
253.318	31.23
253.535	-1.54
253.752	14.85
253.968	47.62
254.185	-15.87
254.401	41.47
254.618	23.04
254.835	64
255.051	113.15
255.268	31.23
255.484	35.33
255.701	100.86
255.917	96.77
256.134	-71.17
256.351	-50.69
256.567	10.75
256.784	-1.54
257	-30.21
257.217	55.81
257.433	61.95
257.65	-32.26
257.866	74.24
258.082	92.67
258.299	33.28
258.515	12.8
258.732	41.47
258.948	23.04
259.165	55.81
259.381	59.9
259.597	80.38
259.814	39.42
260.03	14.85
260.246	14.85
260.463	8.7
260.679	147.97
260.895	55.81
261.112	16.9
261.328	90.62
261.544	0.51
261.761	98.81
261.977	35.33
262.193	25.09
262.409	55.81
262.626	57.86
262.842	37.38
263.058	16.9
263.274	66.05
263.49	55.81
263.707	64
263.923	53.76
264.139	-26.11
264.355	49.66
264.571	80.38
264.787	72.19
265.004	72.19
265.22	39.42
265.436	82.43
265.652	53.76
265.868	51.71
266.084	0.51
266.3	72.19
266.516	-7.68
266.732	12.8
266.948	55.81
267.164	33.28
267.38	64
267.596	55.81
267.812	59.9
268.028	96.77
268.244	23.04
268.46	80.38
268.676	31.23
268.892	55.81
269.108	-9.73
269.324	29.18
269.54	20.99
269.756	72.19
269.972	23.04
270.188	29.18
270.403	-36.35
270.619	68.09
270.835	-9.73
271.051	14.85
271.267	57.86
271.483	41.47
271.698	14.85
271.914	18.94
272.13	84.48
272.346	33.28
272.562	31.23
272.777	76.29
272.993	51.71
273.209	39.42
273.425	80.38
273.64	64
273.856	57.86
274.072	64
274.287	49.66
274.503	0.51
274.719	-9.73
274.934	39.42
275.15	14.85
275.366	6.66
275.581	16.9
275.797	6.66
276.012	74.24
276.228	-58.88
276.444	-13.82
276.659	23.04
276.875	-54.78
277.09	39.42
277.306	-38.4
277.521	107.01
277.737	6.66
277.952	14.85
278.168	64
278.383	84.48
278.599	55.81
278.814	33.28
279.03	16.9
279.245	43.52
279.461	-42.5
279.676	88.57
279.892	-9.73
280.107	-15.87
280.322	51.71
280.538	41.47
280.753	55.81
280.969	90.62
281.184	88.57
281.399	84.48
281.615	14.85
281.83	43.52
282.045	31.23
282.26	16.9
282.476	51.71
282.691	92.67
282.906	-24.06
283.122	-9.73
283.337	-3.58
283.552	39.42
283.767	55.81
283.983	0.51
284.198	6.66
284.413	16.9
284.628	-26.11
284.843	31.23
285.058	66.05
285.274	25.09
285.489	2.56
285.704	-9.73
285.919	0.51
286.134	14.85
286.349	47.62
286.564	10.75
286.779	98.81
286.995	23.04
287.21	-3.58
287.425	59.9
287.64	43.52
287.855	2.56
288.07	-7.68
288.285	47.62
288.5	33.28
288.715	35.33
288.93	64
289.145	51.71
289.36	39.42
289.575	47.62
289.79	129.53
290.004	33.28
290.219	82.43
290.434	-17.92
290.649	35.33
290.864	133.63
291.079	39.42
291.294	131.58
291.509	-3.58
291.724	23.04
291.938	-40.45
292.153	39.42
292.368	45.57
292.583	33.28
292.798	57.86
293.012	2.56
293.227	23.04
293.442	72.19
293.657	47.62
293.871	98.81
294.086	-13.82
294.301	88.57
294.516	64
294.73	16.9
294.945	-15.87
295.16	47.62
295.374	41.47
295.589	47.62
295.804	49.66
296.018	47.62
296.233	143.87
296.447	64
296.662	-54.78
296.877	47.62
297.091	-30.21
297.306	78.33
297.52	-5.63
297.735	20.99
297.949	84.48
298.164	59.9
298.378	59.9
298.593	-36.35
298.807	0.51
299.022	80.38
299.236	64
299.451	100.86
299.665	-11.78
299.88	84.48
300.094	39.42
300.309	6.66
300.523	39.42
300.737	59.9
300.952	31.23
301.166	-26.11
301.381	-1.54
301.595	18.94
301.809	6.66
302.024	47.62
302.238	31.23
302.452	68.09
302.667	53.76
302.881	88.57
303.095	70.14
303.309	78.33
303.524	33.28
303.738	49.66
303.952	16.9
304.166	20.99
304.381	-17.92
304.595	113.15
304.809	-26.11
305.023	68.09
305.237	10.75
305.452	18.94
305.666	6.66
305.88	16.9
306.094	-7.68
306.308	55.81
306.522	84.48
306.736	55.81
306.95	57.86
307.164	49.66
307.379	-1.54
307.593	31.23
307.807	57.86
308.021	31.23
308.235	76.29
308.449	-24.06
308.663	-22.02
308.877	33.28
309.091	4.61
309.305	35.33
309.519	18.94
309.733	45.57
309.947	39.42
310.161	72.19
310.374	49.66
310.588	55.81
310.802	104.96
311.016	-9.73
311.23	64
311.444	6.66
311.658	96.77
311.872	131.58
312.085	27.14
312.299	49.66
312.513	57.86
312.727	25.09
312.941	-30.21
313.154	64
313.368	35.33
313.582	88.57
313.796	33.28
314.009	43.52
314.223	137.73
314.437	68.09
314.651	98.81
314.864	-15.87
315.078	64
315.292	98.81
315.505	-5.63
315.719	23.04
315.933	18.94
316.146	-3.58
316.36	47.62
316.573	100.86
316.787	49.66
317.001	117.25
317.214	16.9
317.428	43.52
317.641	16.9
317.855	96.77
318.068	57.86
318.282	47.62
318.495	115.2
318.709	86.53
318.922	96.77
319.136	82.43
319.349	96.77
319.563	0.51
319.776	68.09
319.99	2.56
320.203	27.14
320.417	6.66
320.63	33.28
320.843	158.21
321.057	64
321.27	0.51
321.483	82.43
321.697	154.11
321.91	51.71
322.124	23.04
322.337	10.75
322.55	82.43
322.763	-15.87
322.977	68.09
323.19	-38.4
323.403	41.47
323.617	20.99
323.83	104.96
324.043	-17.92
324.256	68.09
324.469	27.14
324.683	68.09
324.896	57.86
325.109	82.43
325.322	8.7
325.535	86.53
325.748	72.19
325.962	0.51
326.175	80.38
326.388	47.62
326.601	104.96
326.814	-22.02
327.027	61.95
327.24	115.2
327.453	82.43
327.666	121.34
327.879	90.62
328.092	74.24
328.305	49.66
328.518	45.57
328.731	23.04
328.944	31.23
329.157	23.04
329.37	39.42
329.583	82.43
329.796	76.29
330.009	88.57
330.222	64
330.435	80.38
330.648	57.86
330.861	55.81
331.073	10.75
331.286	150.01
331.499	14.85
331.712	57.86
331.925	29.18
332.138	57.86
332.35	51.71
332.563	-15.87
332.776	135.68
332.989	-3.58
333.202	31.23
333.414	74.24
333.627	82.43
333.84	41.47
334.053	-22.02
334.265	55.81
334.478	-26.11
334.691	61.95
334.903	64
335.116	43.52
335.329	12.8
335.541	-9.73
335.754	68.09
335.966	51.71
336.179	31.23
336.392	33.28
336.604	88.57
336.817	51.71
337.029	72.19
337.242	82.43
337.454	104.96
337.667	12.8
337.88	70.14
338.092	92.67
338.305	47.62
338.517	47.62
338.729	78.33
338.942	88.57
339.154	33.28
339.367	-79.36
339.579	55.81
339.792	57.86
340.004	41.47
340.217	80.38
340.429	74.24
340.641	16.9
340.854	-1.54
341.066	33.28
341.278	39.42
341.491	39.42
341.703	-3.58
341.915	-34.3
342.128	66.05
342.34	92.67
342.552	23.04
342.764	-1.54
342.977	27.14
343.189	72.19
343.401	88.57
343.613	8.7
343.826	57.86
344.038	10.75
344.25	121.34
344.462	57.86
344.674	57.86
344.886	70.14
345.099	-5.63
345.311	84.48
345.523	10.75
345.735	-9.73
345.947	96.77
346.159	10.75
346.371	-13.82
346.583	-40.45
346.795	172.54
347.007	92.67
347.219	64
347.431	53.76
347.643	92.67
347.855	8.7
348.067	51.71
348.279	33.28
348.491	88.57
348.703	43.52
348.915	8.7
349.127	35.33
349.339	35.33
349.551	41.47
349.763	41.47
349.975	6.66
350.187	143.87
350.399	16.9
350.61	100.86
350.822	64
351.034	96.77
351.246	39.42
351.458	82.43
351.669	-5.63
351.881	88.57
352.093	92.67
352.305	82.43
352.517	72.19
352.728	55.81
352.94	31.23
353.152	43.52
353.363	25.09
353.575	39.42
353.787	76.29
353.999	107.01
354.21	82.43
354.422	39.42
354.633	-26.11
354.845	14.85
355.057	37.38
355.268	76.29
355.48	23.04
355.692	-46.59
355.903	8.7
356.115	31.23
356.326	41.47
356.538	96.77
356.749	18.94
356.961	107.01
357.172	31.23
357.384	-13.82
357.595	109.05
357.807	-38.4
358.018	72.19
358.23	-9.73
358.441	141.82
358.653	47.62
358.864	-28.16
359.075	111.1
359.287	14.85
359.498	-3.58
359.709	18.94
359.921	84.48
360.132	100.86
360.344	74.24
360.555	-38.4
360.766	109.05
360.977	18.94
361.189	39.42
361.4	94.72
361.611	23.04
361.823	107.01
362.034	55.81
362.245	-1.54
362.456	31.23
362.667	86.53
362.879	6.66
363.09	51.71
363.301	131.58
363.512	47.62
363.723	-1.54
363.935	31.23
364.146	35.33
364.357	76.29
364.568	37.38
364.779	16.9
364.99	74.24
365.201	47.62
365.412	37.38
365.623	31.23
365.834	59.9
366.045	64
366.256	59.9
366.467	74.24
366.678	92.67
366.889	100.86
367.1	14.85
367.311	121.34
367.522	-9.73
367.733	82.43
367.944	72.19
368.155	23.04
368.366	59.9
368.577	49.66
368.788	72.19
368.999	-15.87
369.209	68.09
369.42	57.86
369.631	133.63
369.842	31.23
370.053	-17.92
370.264	80.38
370.474	2.56
370.685	96.77
370.896	102.91
371.107	74.24
371.317	139.77
371.528	53.76
371.739	80.38
371.95	76.29
372.16	113.15
372.371	23.04
372.582	23.04
372.792	84.48
373.003	55.81
373.214	49.66
373.424	72.19
373.635	-9.73
373.846	90.62
374.056	18.94
374.267	121.34
374.477	43.52
374.688	74.24
374.898	88.57
375.109	41.47
375.319	88.57
375.53	14.85
375.74	123.39
375.951	-19.97
376.161	2.56
376.372	66.05
376.582	41.47
376.793	80.38
377.003	33.28
377.214	4.61
377.424	86.53
377.635	70.14
377.845	39.42
378.055	59.9
378.266	72.19
378.476	74.24
378.686	47.62
378.897	66.05
379.107	145.92
379.317	6.66
379.528	55.81
379.738	121.34
379.948	49.66
380.158	55.81
380.369	55.81
380.579	23.04
380.789	129.53
380.999	4.61
381.21	121.34
381.42	96.77
381.63	10.75
381.84	31.23
382.05	29.18
382.261	84.48
382.471	154.11
382.681	-22.02
382.891	98.81
383.101	64
383.311	-1.54
383.521	113.15
383.731	98.81
383.941	90.62
384.151	39.42
384.361	100.86
384.571	100.86
384.781	86.53
384.991	59.9
385.201	123.39
385.411	33.28
385.621	88.57
385.831	88.57
386.041	55.81
386.251	18.94
386.461	115.2
386.671	35.33
386.881	113.15
387.091	68.09
387.301	100.86
387.511	29.18
387.72	53.76
387.93	43.52
388.14	45.57
388.35	96.77
388.56	55.81
388.769	109.05
388.979	47.62
389.189	70.14
389.399	53.76
389.609	96.77
389.818	41.47
390.028	88.57
390.238	39.42
390.447	64
390.657	88.57
390.867	47.62
391.076	61.95
391.286	76.29
391.496	70.14
391.705	55.81
391.915	96.77
392.125	133.63
392.334	47.62
392.544	190.97
392.753	8.7
392.963	59.9
393.172	39.42
393.382	23.04
393.591	137.73
393.801	55.81
394.01	178.69
394.22	49.66
394.429	86.53
394.639	18.94
394.848	111.1
395.058	64
395.267	176.64
395.477	100.86
395.686	147.97
395.895	197.12
396.105	209.4
396.314	61.95
396.524	55.81
396.733	109.05
396.942	88.57
397.152	150.01
397.361	172.54
397.57	111.1
397.78	111.1
397.989	115.2
398.198	201.21
398.407	86.53
398.617	154.11
398.826	107.01
399.035	66.05
399.244	104.96
399.453	49.66
399.663	111.1
399.872	174.59
400.081	35.33
400.29	141.82
400.499	100.86
400.708	233.98
400.917	96.77
401.127	88.57
401.336	129.53
401.545	133.63
401.754	190.97
401.963	236.03
402.172	133.63
402.381	39.42
402.59	109.05
402.799	98.81
403.008	195.07
403.217	109.05
403.426	164.35
403.635	113.15
403.844	129.53
404.053	174.59
404.262	170.49
404.471	211.45
404.68	121.34
404.888	215.55
405.097	145.92
405.306	176.64
405.515	129.53
405.724	223.74
405.933	209.4
406.142	219.64
406.35	186.88
406.559	203.26
406.768	172.54
406.977	236.03
407.185	205.31
407.394	186.88
407.603	195.07
407.812	258.56
408.02	219.64
408.229	256.51
408.438	193.02
408.646	154.11
408.855	170.49
409.064	221.69
409.272	270.84
409.481	326.14
409.69	215.55
409.898	260.6
410.107	303.61
410.315	264.7
410.524	356.86
410.733	367.1
410.941	397.82
411.15	375.29
411.358	494.07
411.567	434.68
411.775	408.06
411.984	414.2
412.192	426.49
412.401	473.59
412.609	467.45
412.818	502.26
413.026	420.35
413.234	539.13
413.443	557.56
413.651	557.56
413.86	565.75
414.068	506.36
414.276	672.25
414.485	629.24
414.693	698.87
414.901	684.53
415.11	686.58
415.318	764.4
415.526	797.17
415.734	727.54
415.943	764.4
416.151	842.23
416.359	852.47
416.567	909.81
416.776	889.33
416.984	991.73
417.192	883.19
417.4	973.3
417.608	1059.31
417.817	1065.46
418.025	1176.05
418.233	1137.13
418.441	1096.18
418.649	1145.33
418.857	1294.83
419.065	1319.4
419.273	1360.36
419.481	1335.79
419.689	1440.23
419.897	1526.25
420.105	1534.44
420.313	1585.64
420.521	1665.51
420.729	1704.42
420.937	1589.74
421.145	1726.95
421.353	1808.87
421.561	1935.84
421.769	1884.64
421.977	2148.83
422.185	2071.01
422.393	2189.79
422.601	2265.57
422.809	2259.42
423.017	2292.19
423.224	2386.4
423.432	2464.22
423.64	2566.62
423.848	2779.61
424.056	2800.09
424.263	2882
424.471	2816.47
424.679	3013.07
424.887	3006.93
425.094	3250.64
425.302	3234.25
425.51	3228.11
425.718	3406.28
425.925	3424.72
426.133	3684.81
426.341	3717.58
426.548	3897.8
426.756	3889.6
426.964	3899.84
427.171	4180.42
427.379	4411.84
427.586	4444.6
427.794	4446.65
428.001	4886.97
428.209	4796.85
428.417	4864.44
428.624	5214.64
428.832	4936.12
429.039	5138.87
429.247	5046.71
429.454	5644.71
429.662	6171.04
429.869	5454.25
430.076	6015.4
430.284	5749.16
430.491	6007.2
430.699	6269.34
430.906	6330.78
431.114	6480.29
431.321	6730.14
431.528	6955.41
431.736	7149.97
431.943	7311.76
432.15	7401.87
432.358	7233.94
432.565	7856.52
432.772	7977.35
432.979	7954.82
433.187	8487.29
433.394	8509.82
433.601	8935.8
433.808	9034.1
434.016	9040.25
434.223	9263.47
434.43	9738.6
434.637	9505.13
434.844	10357.09
435.052	10248.55
435.259	10199.4
435.466	10514.78
435.673	10330.47
435.88	10926.43
436.087	11710.8
436.294	11426.13
436.501	11336.02
436.708	11622.73
436.915	11897.16
437.122	12147.01
437.329	12288.32
437.537	12978.49
437.743	12978.49
437.95	12925.24
438.157	13822.25
438.364	14059.82
438.571	14108.97
438.778	14117.16
438.985	15288.6
439.192	14792.99
439.399	15321.37
439.606	14815.52
439.813	15864.08
440.02	16505.09
440.227	16490.76
440.433	16161.03
440.64	16646.4
440.847	16539.91
441.054	16881.92
441.261	17856.75
441.467	18006.25
441.674	18327.78
441.881	18993.37
442.088	18989.28
442.294	18471.14
442.501	19060.96
442.708	19550.42
442.914	19955.92
443.121	20938.94
443.328	20308.17
443.534	21969.07
443.741	21381.31
443.948	20791.49
444.154	22497.45
444.361	22661.29
444.568	22231.21
444.774	22159.53
444.981	23005.34
445.187	23218.33
445.394	24576.14
445.6	24164.5
445.807	26577
446.013	25411.71
446.22	25557.11
446.426	26912.87
446.633	27080.8
446.839	27885.65
447.046	26683.5
447.252	28448.85
447.459	28373.07
447.665	28051.54
447.871	29251.65
448.078	30586.93
448.284	29235.27
448.491	29780.03
448.697	30904.36
448.903	31797.27
449.11	31787.03
449.316	31170.6
449.522	32163.86
449.728	32589.84
449.935	32972.81
450.141	32847.88
450.347	33341.44
450.553	32663.57
450.76	32819.21
450.966	33961.98
451.172	33714.17
451.378	34471.92
451.584	33894.39
451.791	34549.74
451.997	34539.5
452.203	34836.46
452.409	35379.17
452.615	34856.94
452.821	33640.45
453.027	33267.72
453.233	35190.76
453.44	33411.07
453.646	33787.9
453.852	33912.83
454.058	34650.1
454.264	33490.94
454.47	34320.37
454.676	33511.42
454.882	34324.47
455.088	31668.25
455.294	31895.58
455.5	32231.44
455.705	32618.51
455.911	31578.14
456.117	31010.85
456.323	30476.33
456.529	28553.29
456.735	29978.68
456.941	28991.56
457.147	28694.6
457.352	27787.35
457.558	27564.12
457.764	27781.21
457.97	27297.89
458.176	26630.25
458.381	26310.77
458.587	25036.93
458.793	25141.38
458.999	23939.22
459.204	25415.8
459.41	24600.71
459.616	23107.74
459.821	23216.29
460.027	23310.49
460.233	22476.97
460.438	21471.42
460.644	21719.22
460.85	20709.57
461.055	20353.23
461.261	20170.96
461.466	18540.77
461.672	17993.97
461.878	19605.72
462.083	18061.55
462.289	17615.09
462.494	17783.02
462.7	16673.03
462.905	16462.08
463.111	16652.55
463.316	16982.27
463.522	16460.04
463.727	16580.87
463.932	16443.65
464.138	16572.68
464.343	16294.15
464.549	16058.63
464.754	16400.65
464.959	16343.3
465.165	16107.79
465.37	15560.98
465.575	15071.51
465.781	15628.56
465.986	15681.81
466.191	15339.8
466.397	14960.92
466.602	14027.05
466.807	14692.64
467.012	14758.17
467.218	14573.86
467.423	14407.97
467.628	14522.66
467.833	14778.65
468.038	14426.4
468.244	14129.45
468.449	14551.33
468.654	13859.12
468.859	14041.39
469.064	13893.93
469.269	13209.91
469.474	13383.99
469.679	13613.36
469.885	13312.31
470.09	13531.44
470.295	13408.56
470.5	13052.22
470.705	13263.16
470.91	12730.69
471.115	12745.02
471.32	12822.84
471.525	12609.86
471.73	12515.65
471.935	12525.89
472.139	11743.56
472.344	12067.14
472.549	11852.11
472.754	11772.24
472.959	11960.65
473.164	11473.23
473.369	11237.72
473.574	11657.55
473.778	11368.79
473.983	11376.98
474.188	11391.31
474.393	11016.54
474.598	10959.19
474.802	10545.5
475.007	10586.46
475.212	10795.36
475.417	10404.19
475.621	10410.34
475.826	10447.2
476.031	10123.62
476.235	9931.11
476.44	10377.57
476.645	9824.62
476.849	9955.69
477.054	9922.92
477.259	9775.47
477.463	9804.14
477.668	9339.25
477.872	9650.54
478.077	9193.84
478.282	8933.75
478.486	9216.37
478.691	9097.59
478.895	8964.47
479.1	8909.18
479.304	9052.53
479.509	8757.63
479.713	9083.25
479.918	8780.15
480.122	8370.56
480.326	8601.98
480.531	8722.81
480.735	8526.21
480.94	8313.22
481.144	8565.12
481.348	8194.43
481.553	8427.9
481.757	8178.05
481.961	8405.38
482.166	8563.07
482.37	8294.79
482.574	8243.59
482.778	8157.57
482.983	8446.34
483.187	8202.63
483.391	8374.66
483.595	8397.18
483.8	8270.21
484.004	8274.31
484.208	8464.77
484.412	8427.9
484.616	8280.45
484.821	8219.01
485.025	8149.38
485.229	8190.34
485.433	8106.37
485.637	8210.82
485.841	8040.84
486.045	8110.47
486.249	8229.25
486.453	8198.53
486.657	8176
486.861	8223.11
487.065	8020.36
487.269	8083.84
487.473	7920.01
487.677	8395.14
487.881	8300.93
488.085	8075.65
488.289	8182.15
488.493	8042.89
488.697	8241.54
488.901	8290.69
489.105	8122.76
489.309	8231.3
489.512	8249.73
489.716	8108.42
489.92	8237.44
490.124	8030.6
490.328	8462.72
490.531	8188.29
490.735	8231.3
490.939	8216.96
491.143	8339.84
491.346	8229.25
491.55	8329.6
491.754	8477.05
491.958	8477.05
492.161	8307.07
492.365	8458.62
492.569	8419.71
492.772	8495.49
492.976	8536.45
493.18	8450.43
493.383	8649.08
493.587	8720.76
493.79	8563.07
493.994	8714.62
494.197	8696.19
494.401	8774.01
494.605	8894.84
494.808	8894.84
495.012	9099.64
495.215	9034.1
495.419	9054.58
495.622	8993.14
495.825	8937.85
496.029	9154.93
496.232	9279.86
496.436	9218.42
496.639	9685.36
496.843	9542
497.046	9525.61
497.249	9716.08
497.453	9640.3
497.656	9773.42
497.859	9806.19
498.063	9939.3
498.266	10275.17
498.469	10008.94
498.673	10254.69
498.876	10082.66
499.079	10414.43
499.282	10312.03
499.485	10623.33
499.689	10629.47
499.892	10563.93
500.095	10615.13
500.298	11020.63
500.501	10930.52
500.705	11311.44
500.908	11254.1
501.111	11413.84
501.314	11395.41
501.517	11624.78
501.72	11721.04
501.923	11610.45
502.126	11909.45
502.329	12224.84
502.532	12196.17
502.735	12278.08
502.938	12323.14
503.141	12384.58
503.344	12712.25
503.547	12738.88
503.75	12949.82
503.953	13089.08
504.156	13257.01
504.359	13324.6
504.562	13510.96
504.765	13797.68
504.968	13551.92
505.17	14039.34
505.373	13758.77
505.576	14315.81
505.779	14391.59
505.982	14094.63
506.185	14481.7
506.387	14815.52
506.59	14905.63
506.793	15071.51
506.996	14862.62
507.198	15245.59
507.401	15292.69
507.604	15472.92
507.807	15866.13
508.009	16142.6
508.212	16070.92
508.415	16113.93
508.617	16402.69
508.82	16529.67
509.022	16267.53
509.225	16734.46
509.428	16785.66
509.63	17045.76
509.833	17291.51
510.035	17486.07
510.238	17504.5
510.44	17684.72
510.643	18049.26
510.845	18131.18
511.048	17985.77
511.25	18448.61
511.453	18618.6
511.655	19075.29
511.858	19120.35
512.06	19278.04
512.262	19278.04
512.465	19298.52
512.667	19519.7
512.87	19609.81
513.072	19845.33
513.274	19884.24
513.477	20048.08
513.679	20572.36
513.881	20791.49
514.084	20656.32
514.286	20811.97
514.488	21055.68
514.69	21731.51
514.893	21463.22
515.095	21721.27
515.297	21940.4
515.499	22104.24
515.701	22018.22
515.904	22542.5
516.106	22542.5
516.308	22818.98
516.51	23105.7
516.712	23138.46
516.914	23404.7
517.116	23877.78
517.318	23718.04
517.52	23820.44
517.722	23879.83
517.925	24213.65
518.127	24592.52
518.329	24352.91
518.531	24453.26
518.733	24746.12
518.935	24918.15
519.136	25073.79
519.338	25483.39
519.54	25458.81
519.742	25737.34
519.944	25852.02
520.146	26210.42
520.348	26480.75
520.55	26353.77
520.752	26310.77
520.954	26783.85
521.155	26593.39
521.357	26820.71
521.559	27146.34
521.761	27656.28
521.963	27369.57
522.164	27865.17
522.366	27312.22
522.568	28055.64
522.77	27936.85
522.971	28248.14
523.173	27793.5
523.375	28217.43
523.576	28219.47
523.778	28274.77
523.98	28776.52
524.181	28493.9
524.383	28430.41
524.584	28981.32
524.786	28903.49
524.988	28827.72
525.189	29192.26
525.391	29059.14
525.592	29089.86
525.794	29040.71
525.995	29321.28
526.197	29210.69
526.398	29145.16
526.6	29200.45
526.801	29689.91
527.003	29620.28
527.204	29704.25
527.406	30005.3
527.607	29737.02
527.808	29917.24
528.01	29603.9
528.211	29399.1
528.412	30345.26
528.614	29890.62
528.815	29837.37
529.016	29837.37
529.218	29454.4
529.419	29827.13
529.62	29626.43
529.822	29820.98
530.023	30027.83
530.224	29939.77
530.425	29919.29
530.626	29601.85
530.828	29601.85
531.029	30124.08
531.23	29663.29
531.431	29683.77
531.632	29724.73
531.833	29886.52
532.035	29909.05
532.236	29694.01
532.437	29900.86
532.638	29399.1
532.839	29771.83
533.04	30070.84
533.241	29218.88
533.442	29352
533.643	29558.84
533.844	29448.25
534.045	29528.13
534.246	29261.89
534.447	29581.37
534.648	28928.07
534.849	29501.5
535.05	28952.65
535.251	29499.45
535.451	28901.45
535.652	29300.8
535.853	29112.39
536.054	29325.38
536.255	29284.42
536.456	28706.89
536.657	29382.72
536.857	28667.98
537.058	28680.27
537.259	29024.33
537.46	28710.99
537.66	28512.33
537.861	28710.99
538.062	29024.33
538.263	28854.34
538.463	28459.09
538.664	28682.31
538.865	28657.74
539.065	28817.48
539.266	28383.31
539.466	28891.21
539.667	28797
539.868	28833.86
540.068	28571.72
540.269	28375.12
540.469	28627.02
540.67	28389.45
540.87	28174.42
541.071	28551.24
541.271	28649.55
541.472	28371.02
541.672	28219.47
541.873	28104.79
542.073	27822.17
542.274	28307.54
542.474	28182.61
542.675	28029.01
542.875	28381.26
543.075	28110.93
543.276	27881.56
543.476	28606.54
543.676	27996.24
543.877	28278.86
544.077	28360.78
544.277	28317.78
544.478	27803.74
544.678	28344.4
544.878	28162.13
545.078	28026.96
545.279	28129.36
545.479	27719.77
545.679	28096.6
545.879	27918.42
546.079	28074.07
546.28	27631.71
546.48	27646.04
546.68	27979.86
546.88	27846.74
547.08	28102.74
547.28	27908.18
547.48	27818.07
547.68	28106.84
547.88	27789.4
548.081	28291.15
548.281	28000.34
548.481	27971.67
548.681	28256.34
548.881	28078.16
549.081	28170.32
549.28	27981.91
549.48	28418.13
549.68	28041.3
549.88	27988.05
550.08	28242
550.28	28125.27
550.48	27863.13
550.68	28487.76
550.88	27785.3
551.08	28117.07
551.279	28117.07
551.479	27998.29
551.679	28115.03
551.879	28006.48
552.079	28551.24
552.278	28151.89
552.478	28221.52
552.678	28418.13
552.878	28407.89
553.077	28145.75
553.277	28029.01
553.477	28725.32
553.676	27873.37
553.876	28211.28
554.076	28188.75
554.275	28065.88
554.475	27883.61
554.674	28268.62
554.874	28491.85
555.074	27938.9
555.273	28319.82
555.473	28491.85
555.672	28364.88
555.872	28532.81
556.071	28493.9
556.271	28629.07
556.47	28524.62
556.67	28094.55
556.869	28612.68
557.068	28446.8
557.268	28543.05
557.467	28670.03
557.667	28694.6
557.866	28911.69
558.065	28715.08
558.265	28262.48
558.464	28366.93
558.663	28772.42
558.863	28094.55
559.062	28858.44
559.261	28254.29
559.461	29124.68
559.66	28112.98
559.859	28160.08
560.058	28401.74
560.258	28317.78
560.457	28022.87
560.656	28983.37
560.855	28389.45
561.054	28506.19
561.253	28553.29
561.453	28627.02
561.652	28573.77
561.851	28948.55
562.05	28532.81
562.249	28739.66
562.448	28586.06
562.647	28622.92
562.846	28375.12
563.045	28594.25
563.244	28196.95
563.443	28735.56
563.642	27897.94
563.841	28399.69
564.04	28145.75
564.239	28663.88
564.438	28323.92
564.637	28184.66
564.836	28174.42
565.035	27938.9
565.234	28016.72
565.432	28215.38
565.631	28317.78
565.83	28112.98
566.029	27877.46
566.228	27957.33
566.427	27697.24
566.625	27791.45
566.824	27850.84
567.023	27922.52
567.222	27336.8
567.42	28072.02
567.619	27656.28
567.818	27969.62
568.016	27619.42
568.215	27443.29
568.414	27568.22
568.612	27609.18
568.811	27207.78
569.01	27385.95
569.208	27088.99
569.407	27598.94
569.605	27211.87
569.804	27474.01
570.002	26974.31
570.201	27191.39
570.4	26898.53
570.598	26927.21
570.797	26978.4
570.995	26789.99
571.193	26284.14
571.392	26716.26
571.59	26789.99
571.789	26638.44
571.987	26615.91
572.186	26355.82
572.384	26443.88
572.582	26636.39
572.781	26476.65
572.979	26257.52
573.177	26136.69
573.376	26382.45
573.574	26095.73
573.772	25954.42
573.971	25849.97
574.169	25671.8
574.367	25391.23
574.565	25770.1
574.763	25464.96
574.962	25542.78
575.16	25028.74
575.358	25649.27
575.556	25030.79
575.754	25340.03
575.952	25059.46
576.151	25297.02
576.349	24658.06
576.547	24940.68
576.745	24848.52
576.943	24795.27
577.141	24637.58
577.339	24774.79
577.537	24424.59
577.735	24742.02
577.933	24438.92
578.131	24545.42
578.329	24262.8
578.527	24412.3
578.725	24232.08
578.923	24619.14
579.121	23978.13
579.319	24344.72
579.516	24287.37
579.714	24045.71
579.912	23668.89
580.11	23992.47
580.308	23826.58
580.506	23806.1
580.704	23206.05
580.901	23650.46
581.099	23865.49
581.297	23253.15
581.495	23345.31
581.692	23392.41
581.89	23503
582.088	23380.12
582.285	23042.21
582.483	23251.1
582.681	23320.73
582.878	23070.88
583.076	23011.49
583.274	23072.93
583.471	22945.95
583.669	22663.33
583.866	22821.03
584.064	22683.81
584.262	22419.63
584.459	22868.13
584.657	22534.31
584.854	22755.49
585.052	22198.45
585.249	22257.84
585.447	22634.66
585.644	22075.57
585.841	22429.87
586.039	22540.46
586.236	21973.17
586.434	22347.95
586.631	21887.15
586.828	22278.32
587.026	21819.57
587.223	22132.91
587.42	21739.7
587.618	21809.33
587.815	21663.93
588.012	21432.5
588.21	21475.51
588.407	21766.32
588.604	21661.88
588.801	21446.84
588.999	21569.72
589.196	21491.9
589.393	21100.73
589.59	21172.41
589.787	21274.81
589.984	21248.19
590.182	21237.95
590.379	21352.63
590.576	21127.36
590.773	20992.19
590.97	20969.66
591.167	21252.28
591.364	20949.18
591.561	20979.9
591.758	20867.27
591.955	20885.7
592.152	20756.68
592.349	20701.38
592.546	20777.15
592.743	20611.27
592.94	20285.64
593.137	20551.88
593.334	20539.59
593.531	20734.15
593.727	20883.65
593.924	20590.79
594.121	20545.73
594.318	20680.9
594.515	20136.14
594.712	20758.72
594.908	20545.73
595.105	20408.52
595.302	20152.52
595.499	20390.09
595.696	20361.42
595.892	20308.17
596.089	20611.27
596.286	20588.74
596.482	20680.9
596.679	20213.96
596.876	20326.6
597.072	19968.21
597.269	20410.57
597.466	20117.71
597.662	20068.56
597.859	20236.49
598.055	20105.42
598.252	20058.32
598.448	20142.28
598.645	20338.89
598.841	19931.34
599.038	19884.24
599.234	20293.83
599.431	20101.33
599.627	20400.33
599.824	20426.95
600.02	19994.83
600.217	20091.09
600.413	20267.21
600.609	19992.78
600.806	20287.69
601.002	20318.41
601.198	19994.83
601.395	19994.83
601.591	20224.2
601.787	20252.87
601.984	20377.8
602.18	20418.76
602.376	20437.19
602.572	20177.1
602.769	20265.16
602.965	20394.18
603.161	20306.12
603.357	20197.58
603.553	20420.81
603.75	20453.58
603.946	20644.04
604.142	20627.65
604.338	20179.15
604.534	20678.85
604.73	20615.37
604.926	20621.51
605.122	20551.88
605.318	20816.07
605.514	20474.06
605.71	20691.14
605.906	20734.15
606.102	20627.65
606.298	20932.8
606.494	20740.29
606.69	20797.63
606.886	20910.27
607.082	20639.94
607.278	21067.97
607.474	20820.16
607.67	21047.49
607.866	20627.65
608.062	21209.28
608.257	20807.87
608.453	20953.28
608.649	21115.07
608.845	20996.29
609.041	21039.29
609.236	21422.27
609.432	21289.15
609.628	21440.7
609.824	21412.03
610.019	21289.15
610.215	21295.29
610.411	21358.78
610.606	21545.14
610.802	21258.43
610.998	21713.08
611.193	21498.04
611.389	21555.38
611.584	21549.24
611.78	21620.92
611.976	21776.56
612.171	21682.36
612.367	21721.27
612.562	21790.9
612.758	21428.41
612.953	21883.06
613.149	21743.8
613.344	21649.59
613.539	22014.13
613.735	21926.07
613.93	22038.7
614.126	21887.15
614.321	22100.14
614.517	21954.74
614.712	22075.57
614.907	21807.28
615.103	22126.77
615.298	21962.93
615.493	22339.76
615.688	21784.76
615.884	22022.32
616.079	21809.33
616.274	22108.33
616.47	21960.88
616.665	22218.92
616.86	21893.3
617.055	22423.72
617.25	22159.53
617.445	22251.69
617.641	21815.48
617.836	22157.49
618.031	21815.48
618.226	22253.74
618.421	22102.19
618.616	22091.95
618.811	21487.8
619.006	22323.37
619.201	21518.52
619.396	21598.39
619.591	21455.03
619.786	21571.77
619.981	21786.8
620.176	21758.13
620.371	21385.4
620.566	21500.09
620.761	21391.55
620.956	21651.64
621.151	21313.72
621.346	21459.13
621.541	21010.62
621.735	21616.82
621.93	20949.18
622.125	20955.33
622.32	20785.35
622.515	20943.04
622.709	20515.01
622.904	20789.44
623.099	20693.19
623.294	20707.52
623.488	20414.66
623.683	20527.3
623.878	19994.83
624.072	20189.39
624.267	20191.44
624.462	20062.41
624.656	19882.19
624.851	19683.54
625.046	19855.57
625.24	19505.37
625.435	19742.93
625.629	19441.88
625.824	19394.78
626.018	19499.22
626.213	19149.02
626.407	19253.47
626.602	19060.96
626.796	18833.63
626.991	19175.64
627.185	18999.52
627.38	18700.51
627.574	18716.9
627.768	18458.85
627.963	18602.21
628.157	18522.34
628.352	18553.06
628.546	18184.43
628.74	18348.26
628.935	17916.14
629.129	17950.96
629.323	18069.74
629.517	18071.79
629.712	17580.28
629.906	17864.94
630.1	17494.26
630.294	17340.66
630.489	17733.87
630.683	17529.08
630.877	17287.42
631.071	17258.74
631.265	17086.72
631.459	17019.13
631.653	16873.73
631.848	16982.27
632.042	16865.53
632.236	16855.29
632.43	16853.25
632.624	16662.79
632.818	16408.84
633.012	16339.21
633.206	16414.98
633.4	16363.78
633.594	16068.87
633.788	16148.75
633.982	16017.68
634.176	15980.81
634.369	15898.89
634.563	15857.93
634.757	15595.79
634.951	15835.41
635.145	15581.46
635.339	15624.47
635.533	15329.56
635.726	15415.57
635.92	15194.39
636.114	15120.67
636.308	15094.04
636.501	15122.71
636.695	15038.75
636.889	14942.49
637.083	14934.3
637.276	14709.02
637.47	14582.05
637.664	14698.78
637.857	14500.13
638.051	14528.8
638.244	14246.18
638.438	14190.89
638.632	14295.33
638.825	13979.95
639.019	14055.72
639.212	13703.47
639.406	13859.12
639.599	13601.07
639.793	13601.07
639.986	13490.48
640.18	13719.85
640.373	13402.42
640.567	13461.81
640.76	13457.71
640.954	13089.08
641.147	12898.62
641.34	12943.67
641.534	12986.68
641.727	12890.43
641.92	12953.91
642.114	12710.21
642.307	12591.42
642.5	12738.88
642.694	12331.33
642.887	12155.21
643.08	12224.84
643.273	12261.7
643.467	12114.25
643.66	12081.48
643.853	12073.29
644.046	11843.92
644.239	11841.87
644.432	11778.38
644.626	11622.73
644.819	11618.64
645.012	11704.65
645.205	11407.7
645.398	11581.78
645.591	11399.51
645.784	11379.03
645.977	11204.95
646.17	11098.45
646.363	10838.36
646.556	11127.13
646.749	11051.35
646.942	10967.38
647.135	11000.15
647.328	10811.74
647.521	10633.57
647.714	10735.96
647.907	10705.24
648.099	10615.13
648.292	10451.3
648.485	10488.16
648.678	10303.84
648.871	10209.64
649.064	10150.25
649.256	10211.68
649.449	10131.81
649.642	9992.55
649.835	9982.31
650.027	10004.84
650.22	9947.5
650.413	9797.99
650.605	9746.8
650.798	9687.4
650.991	9705.84
651.183	9607.53
651.376	9570.67
651.568	9546.09
651.761	9193.84
651.954	9324.91
652.146	9685.36
652.339	9367.92
652.531	9259.38
652.724	9230.71
652.916	8833.4
653.109	8952.18
653.301	9111.92
653.494	9134.45
653.686	8876.41
653.879	9107.83
654.071	8968.57
654.263	8688
654.456	8853.88
654.648	8821.11
654.84	8657.28
655.033	8464.77
655.225	8499.58
655.417	8487.29
655.61	8540.54
655.802	8640.89
655.994	8460.67
656.186	8319.36
656.379	8350.08
656.571	8042.89
656.763	8227.2
656.955	8192.39
657.148	8247.68
657.34	8063.36
657.532	8030.6
657.724	8010.12
657.916	7977.35
658.108	7874.95
658.3	7856.52
658.492	7762.31
658.684	7831.94
658.876	7684.49
659.068	7774.6
659.26	7633.29
659.452	7702.92
659.644	7543.18
659.836	7631.24
660.028	7551.37
660.22	7463.31
660.412	7225.75
660.604	7428.49
660.796	7322
660.988	7393.68
661.18	7238.03
661.372	7231.89
661.563	7205.27
661.755	7174.55
661.947	7090.58
662.139	7010.71
662.331	7066
662.522	6977.94
662.714	6959.51
662.906	6920.6
663.097	6928.79
663.289	6799.77
663.481	6773.14
663.673	6934.93
663.864	6609.31
664.056	6629.79
664.247	6709.66
664.439	6494.62
664.631	6699.42
664.822	6566.3
665.014	6498.72
665.205	6494.62
665.397	6478.24
665.588	6386.08
665.78	6521.24
665.971	6248.86
666.163	6220.19
666.354	6150.56
666.546	6326.69
666.737	6062.5
666.929	6252.96
667.12	5996.96
667.311	6130.08
667.503	5888.42
667.694	5923.24
667.885	5925.29
668.077	5978.53
668.268	5904.81
668.459	5958.05
668.651	5857.7
668.842	5986.72
669.033	5763.5
669.224	5896.61
669.416	5761.45
669.607	5751.21
669.798	5724.58
669.989	5839.27
670.18	5757.35
670.371	5530.03
670.563	5636.52
670.754	5728.68
670.945	5642.67
671.136	5693.87
671.327	5470.64
671.518	5546.41
671.709	5521.84
671.9	5495.21
672.091	5511.6
672.282	5454.25
672.473	5429.68
672.664	5349.81
672.855	5437.87
673.046	5337.52
673.237	5513.64
673.428	5220.78
673.619	5388.72
673.809	5241.26
674	5274.03
674.191	5405.1
674.382	5353.9
674.573	5243.31
674.764	5267.89
674.954	5249.46
675.145	5120.43
675.336	5241.26
675.527	5177.78
675.717	5298.61
675.908	5003.7
676.099	5122.48
676.289	4946.36
676.48	4979.12
676.671	4970.93
676.861	5204.4
677.052	5046.71
677.243	5001.65
677.433	4972.98
677.624	5087.67
677.814	4970.93
678.005	5038.52
678.195	4923.83
678.386	5065.14
678.576	4942.26
678.767	4848.05
678.957	4958.64
679.148	5069.23
679.338	5003.7
679.529	5102
679.719	4938.16
679.909	4954.55
680.1	4839.86
680.29	4880.82
680.481	4794.81
680.671	4987.32
680.861	4893.11
681.052	4917.68
681.242	4903.35
681.432	4880.82
681.622	4985.27
681.813	4891.06
682.003	4856.25
682.193	4768.18
682.383	4827.57
682.573	4886.97
682.764	5046.71
682.954	4848.05
683.144	4915.64
683.334	4876.73
683.524	4825.53
683.714	4907.45
683.904	4766.14
684.094	4725.18
684.284	4800.95
684.474	4780.47
684.664	4889.01
684.854	4757.94
685.044	4743.61
685.234	4774.33
685.424	4702.65
685.614	4651.45
685.804	4751.8
685.994	4727.22
686.184	4733.37
686.374	4698.55
686.564	4649.4
686.753	4721.08
686.943	4624.83
687.133	4561.34
687.323	4604.35
687.513	4782.52
687.702	4694.46
687.892	4665.78
688.082	4692.41
688.272	4594.11
688.461	4448.7
688.651	4676.02
688.841	4544.95
689.03	4569.53
689.22	4471.23
689.41	4587.96
689.599	4522.43
689.789	4473.28
689.979	4450.75
690.168	4512.19
690.358	4530.62
690.547	4555.19
690.737	4512.19
690.926	4520.38
691.116	4264.38
691.305	4274.62
691.495	4442.56
691.684	4159.94
691.874	4319.68
692.063	4297.15
692.252	4454.84
692.442	4467.13
692.631	4227.52
692.82	4368.83
693.01	4184.51
693.199	4155.84
693.388	4233.66
693.578	4252.1
693.767	4217.28
693.956	4184.51
694.146	4129.22
694.335	4172.22
694.524	4114.88
694.713	4147.65
694.902	4151.74
695.092	4145.6
695.281	4258.24
695.47	4041.15
695.659	4145.6
695.848	4168.13
696.037	4168.13
696.226	4151.74
696.415	3989.96
696.604	4086.21
696.793	4020.67
696.982	4041.15
697.171	4102.59
697.36	3930.56
697.549	4071.87
697.738	4071.87
697.927	3987.91
698.116	4039.11
698.305	3930.56
698.494	3889.6
698.683	3920.32
698.872	4006.34
699.061	3895.75
699.25	3949
699.438	3819.97
699.627	3916.23
699.816	4073.92
700.005	3865.03
700.193	3930.56
700.382	3867.08
700.571	3926.47
700.76	3955.14
700.948	3889.6
701.137	3916.23
701.326	3819.97
701.514	3924.42
701.703	3832.26
701.892	3826.12
702.08	3889.6
702.269	3873.22
702.457	3697.1
702.646	3795.4
702.834	3633.61
703.023	3736.01
703.212	3766.73
703.4	3727.82
703.589	3744.2
703.777	3660.23
703.965	3570.12
704.154	3701.19
704.342	3676.62
704.531	3758.53
704.719	3672.52
704.907	3668.42
705.096	3615.18
705.284	3523.02
705.472	3600.84
705.661	3482.06
705.849	3512.78
706.037	3559.88
706.226	3586.51
706.414	3506.63
706.602	3473.87
706.79	3625.42
706.979	3375.56
707.167	3563.98
707.355	3600.84
707.543	3586.51
707.731	3480.01
707.919	3477.96
708.107	3373.52
708.296	3377.61
708.484	3572.17
708.672	3467.72
708.86	3553.74
709.048	3303.89
709.236	3496.39
709.424	3383.76
709.612	3545.55
709.8	3264.97
709.988	3441.1
710.176	3318.22
710.364	3279.31
710.551	3332.56
710.739	3310.03
710.927	3334.61
711.115	3246.54
711.303	3350.99
711.491	3277.26
711.679	3312.08
711.866	3234.25
712.054	3164.62
712.242	3316.17
712.43	3326.41
712.617	3342.8
712.805	3258.83
712.993	3162.58
713.181	3076.56
713.368	3197.39
713.556	3160.53
713.744	3146.19
713.931	3176.91
714.119	3152.34
714.306	3217.87
714.494	3131.86
714.682	3267.02
714.869	3170.77
715.057	3234.25
715.244	3146.19
715.432	3113.42
715.619	2990.55
715.807	3078.61
715.994	3072.47
716.182	3015.12
716.369	3041.75
716.556	2980.31
716.744	3140.05
716.931	2943.44
717.119	3070.42
717.306	3021.27
717.493	3041.75
717.681	3017.17
717.868	2980.31
718.055	2959.83
718.242	3039.7
718.43	2951.63
718.617	3054.03
718.804	2947.54
718.991	2949.59
719.179	3078.61
719.366	2849.24
719.553	2879.96
719.74	2845.14
719.927	2945.49
720.114	2865.62
720.301	2910.68
720.488	2816.47
720.676	2832.85
720.863	2968.02
721.05	2865.62
721.237	2777.56
721.424	2884.05
721.611	2892.24
721.798	2763.22
721.985	2775.51
722.172	2759.13
722.358	2777.56
722.545	2763.22
722.732	2677.21
722.919	2744.79
723.106	2861.52
723.293	2752.98
723.48	2701.78
723.667	2720.21
723.853	2709.97
724.04	2728.41
724.227	2709.97
724.414	2671.06
724.6	2626.01
724.787	2730.45
724.974	2820.56
725.161	2564.57
725.347	2636.25
725.534	2558.42
725.72	2552.28
725.907	2566.62
726.094	2681.3
726.28	2640.34
726.467	2642.39
726.653	2634.2
726.84	2636.25
727.027	2662.87
727.213	2603.48
727.4	2496.99
727.586	2621.91
727.773	2501.08
727.959	2427.35
728.145	2558.42
728.332	2533.85
728.518	2654.68
728.705	2566.62
728.891	2513.37
729.077	2392.54
729.264	2562.52
729.45	2460.12
729.636	2576.86
729.823	2374.11
730.009	2499.03
730.195	2447.83
730.382	2525.66
730.568	2372.06
730.754	2410.97
730.94	2431.45
731.126	2415.07
731.313	2513.37
731.499	2361.82
731.685	2423.26
731.871	2423.26
732.057	2476.51
732.243	2404.83
732.429	2449.88
732.615	2511.32
732.801	2460.12
732.987	2406.88
733.173	2392.54
733.359	2359.77
733.545	2433.5
733.731	2441.69
733.917	2413.02
734.103	2308.57
734.289	2286.05
734.475	2296.28
734.661	2443.74
734.847	2243.04
735.033	2398.68
735.219	2351.58
735.404	2353.63
735.59	2296.28
735.776	2296.28
735.962	2267.61
736.148	2302.43
736.333	2271.71
736.519	2220.51
736.705	2288.09
736.89	2288.09
737.076	2294.24
737.262	2124.26
737.447	2171.36
737.633	2302.43
737.819	2214.37
738.004	2177.5
738.19	2208.22
738.375	2179.55
738.561	2193.89
738.747	2050.53
738.932	2263.52
739.118	2165.21
739.303	2136.54
739.489	2165.21
739.674	2107.87
739.859	2075.1
740.045	2038.24
740.23	2173.41
740.416	2107.87
740.601	2152.93
740.786	2023.91
740.972	2040.29
741.157	2036.19
741.342	1984.99
741.528	1991.14
741.713	2015.71
741.898	2013.67
742.084	2071.01
742.269	1972.71
742.454	1939.94
742.639	2056.67
742.824	1993.19
743.01	2009.57
743.195	2046.43
743.38	1898.98
743.565	1972.71
743.75	2079.2
743.935	1997.28
744.12	1915.36
744.305	1939.94
744.49	1772
744.675	1792.48
744.86	1866.21
745.045	1841.64
745.23	1950.18
745.415	1921.51
745.6	1847.78
745.785	1819.11
745.97	1825.25
746.155	1821.16
746.34	1739.24
746.525	1860.07
746.71	1860.07
746.895	1657.32
747.079	1706.47
747.264	1792.48
747.449	1837.54
747.634	1645.03
747.819	1776.1
748.003	1784.29
748.188	1665.51
748.373	1702.37
748.557	1729
748.742	1698.28
748.927	1665.51
749.111	1595.88
749.296	1604.07
749.481	1634.79
749.665	1636.84
749.85	1516.01
750.034	1493.48
750.219	1513.96
750.404	1561.06
750.588	1587.69
750.773	1559.02
750.957	1546.73
751.141	1448.43
751.326	1507.82
751.51	1440.23
751.695	1516.01
751.879	1475.05
752.064	1483.24
752.248	1505.77
752.432	1473
752.617	1399.27
752.801	1505.77
752.985	1403.37
753.17	1417.71
753.354	1440.23
753.538	1391.08
753.722	1384.94
753.907	1366.51
754.091	1464.81
754.275	1296.88
754.459	1395.18
754.643	1333.74
754.828	1288.68
755.012	1264.11
755.196	1319.4
755.38	1217.01
755.564	1284.59
755.748	1276.4
755.932	1366.51
756.116	1309.16
756.3	1276.4
756.484	1300.97
756.668	1245.68
756.852	1133.04
757.036	1176.05
757.22	1274.35
757.404	1255.92
757.588	1161.71
757.772	1243.63
757.956	1141.23
758.14	1227.25
758.323	1180.14
758.507	1075.7
758.691	1106.42
758.875	1163.76
759.059	1118.7
759.242	1194.48
759.426	1069.55
759.61	1079.79
759.794	1065.46
759.977	1118.7
760.161	1180.14
760.345	1092.08
760.528	1141.23
760.712	1124.85
760.895	1098.22
761.079	1016.3
761.263	1106.42
761.446	1047.02
761.63	1001.97
761.813	1038.83
761.997	920.05
762.18	981.49
762.364	1030.64
762.547	1016.3
762.731	940.53
762.914	1051.12
763.098	977.39
763.281	1038.83
763.464	942.58
763.648	1059.31
763.831	1077.74
764.015	979.44
764.198	1006.06
764.381	915.95
764.564	930.29
764.748	999.92
764.931	1004.02
765.114	956.91
765.297	961.01
765.481	899.57
765.664	967.15
765.847	985.58
766.03	928.24
766.213	909.81
766.397	831.99
766.58	776.69
766.763	1055.22
766.946	887.28
767.129	909.81
767.312	920.05
767.495	895.47
767.678	901.62
767.861	874.99
768.044	920.05
768.227	797.17
768.41	834.04
768.593	893.43
768.776	852.47
768.959	825.84
769.142	866.8
769.324	887.28
769.507	877.04
769.69	918
769.873	788.98
770.056	883.19
770.239	874.99
770.421	780.79
770.604	838.13
770.787	852.47
770.97	803.32
771.152	780.79
771.335	868.85
771.518	713.21
771.7	840.18
771.883	866.8
772.066	748.02
772.248	858.61
772.431	803.32
772.613	793.08
772.796	745.97
772.978	793.08
773.161	823.8
773.343	727.54
773.526	819.7
773.708	713.21
773.891	639.48
774.073	735.73
774.256	674.29
774.438	776.69
774.621	776.69
774.803	727.54
774.985	754.16
775.168	776.69
775.35	811.51
775.532	686.58
775.715	688.63
775.897	655.86
776.079	694.77
776.261	690.68
776.444	737.78
776.626	678.39
776.808	707.06
776.99	571.9
777.173	688.63
777.355	610.81
777.537	645.62
777.719	694.77
777.901	678.39
778.083	657.91
778.265	532.98
778.447	655.86
778.629	666.1
778.811	551.42
778.993	662.01
779.175	590.33
779.357	623.09
779.539	614.9
779.721	537.08
779.903	549.37
780.085	651.77
780.267	559.61
780.449	623.09
780.631	563.7
780.812	580.09
780.994	516.6
781.176	553.46
781.358	633.33
781.54	557.56
781.721	475.64
781.903	539.13
782.085	588.28
782.267	522.74
782.448	489.98
782.63	481.78
782.812	508.41
782.993	614.9
783.175	475.64
783.357	506.36
783.538	471.54
783.72	424.44
783.901	442.87
784.083	498.17
784.264	489.98
784.446	475.64
784.627	436.73
784.809	539.13
784.99	432.63
785.172	512.5
785.353	449.02
785.535	457.21
785.716	422.39
785.897	469.5
786.079	408.06
786.26	418.3
786.441	545.27
786.623	416.25
786.804	426.49
786.985	440.83
787.167	424.44
787.348	344.57
787.529	340.47
787.71	537.08
787.891	440.83
788.073	428.54
788.254	317.95
788.435	434.68
788.616	397.82
788.797	387.58
788.978	377.34
789.159	397.82
789.34	365.05
789.522	317.95
789.703	424.44
789.884	395.77
790.065	387.58
790.246	440.83
790.427	350.71
790.607	313.85
790.788	449.02
790.969	223.74
791.15	375.29
791.331	285.18
791.512	385.53
791.693	276.99
791.874	270.84
792.054	410.11
792.235	379.39
792.416	358.91
792.597	297.47
792.778	412.15
792.958	360.95
793.139	371.19
793.32	309.76
793.5	317.95
793.681	360.95
793.862	363
794.042	311.8
794.223	236.03
794.404	268.8
794.584	227.84
794.765	317.95
794.945	213.5
795.126	348.67
795.306	293.37
795.487	227.84
795.667	213.5
795.848	270.84
796.028	322.04
796.209	293.37
796.389	309.76
796.57	283.13
796.75	272.89
796.93	262.65
797.111	180.73
797.291	262.65
797.471	276.99
797.652	303.61
797.832	363
798.012	262.65
798.192	301.56
798.373	268.8
798.553	248.32
798.733	279.04
798.913	203.26
799.093	287.23
799.274	231.93
799.454	229.88
799.634	268.8
799.814	326.14
799.994	219.64
800.174	268.8
800.354	203.26
800.534	123.39
800.714	260.6
800.894	254.46
801.074	213.5
801.254	188.93
801.434	276.99
801.614	317.95
801.794	246.27
801.974	961.01
802.154	178.69
802.334	248.32
802.514	162.3
802.693	190.97
802.873	219.64
803.053	219.64
803.233	258.56
803.413	205.31
803.592	197.12
803.772	199.16
803.952	186.88
804.131	188.93
804.311	197.12
804.491	248.32
804.67	190.97
804.85	162.3
805.03	221.69
805.209	172.54
805.389	229.88
805.568	186.88
805.748	145.92
805.928	188.93
806.107	166.4
806.287	244.22
806.466	174.59
806.646	156.16
806.825	186.88
807.004	195.07
807.184	205.31
807.363	266.75
807.543	178.69
807.722	158.21
807.901	244.22
808.081	158.21
808.26	96.77
808.439	248.32
808.619	113.15
808.798	162.3
808.977	231.93
809.156	254.46
809.336	238.08
809.515	248.32
809.694	170.49
809.873	170.49
810.052	190.97
810.231	195.07
810.411	248.32
810.59	74.24
810.769	135.68
810.948	168.45
811.127	100.86
811.306	147.97
811.485	180.73
811.664	227.84
811.843	88.57
812.022	113.15
812.201	174.59
812.38	199.16
812.559	141.82
812.737	170.49
812.916	145.92
813.095	147.97
813.274	229.88
813.453	203.26
813.632	133.63
813.811	164.35
813.989	145.92
814.168	236.03
814.347	141.82
814.526	76.29
814.704	221.69
814.883	223.74
815.062	59.9
815.24	178.69
815.419	82.43
815.598	180.73
815.776	186.88
815.955	107.01
816.133	51.71
816.312	139.77
816.49	121.34
816.669	182.78
816.847	154.11
817.026	152.06
817.204	98.81
817.383	107.01
817.561	68.09
817.74	178.69
817.918	137.73
818.097	203.26
818.275	92.67
818.453	90.62
818.632	102.91
818.81	82.43
818.988	141.82
819.167	47.62
819.345	164.35
819.523	88.57
819.701	57.86
819.879	82.43
820.058	139.77
820.236	156.16
820.414	154.11
820.592	53.76
820.77	135.68
820.948	154.11
821.127	72.19
821.305	88.57
821.483	135.68
821.661	115.2
821.839	141.82
822.017	14.85
822.195	121.34
822.373	135.68
822.551	107.01
822.729	170.49
822.907	141.82
823.085	170.49
823.262	90.62
823.44	109.05
823.618	125.44
823.796	139.77
823.974	51.71
824.152	96.77
824.329	117.25
824.507	117.25
824.685	109.05
824.863	150.01
825.04	64
825.218	117.25
825.396	104.96
825.574	145.92
825.751	162.3
825.929	129.53
826.107	92.67
826.284	41.47
826.462	150.01
826.639	104.96
826.817	57.86
826.994	121.34
827.172	90.62
827.349	109.05
827.527	80.38
827.704	125.44
827.882	55.81
828.059	104.96
828.237	39.42
828.414	121.34
828.591	-36.35
828.769	55.81
828.946	84.48
829.124	107.01
829.301	174.59
829.478	59.9
829.655	117.25
829.833	129.53
830.01	109.05
830.187	68.09
830.364	59.9
830.542	43.52
830.719	174.59
830.896	92.67
831.073	98.81
831.25	98.81
831.427	92.67
831.604	68.09
831.782	29.18
831.959	113.15
832.136	84.48
832.313	47.62
832.49	84.48
832.667	64
832.844	94.72
833.021	104.96
833.198	66.05
833.374	47.62
833.551	100.86
833.728	123.39
833.905	121.34
834.082	51.71
834.259	41.47
834.436	92.67
834.612	55.81
834.789	84.48
834.966	104.96
835.143	113.15
835.319	55.81
835.496	115.2
835.673	72.19
835.85	61.95
836.026	84.48
836.203	82.43
836.38	64
836.556	66.05
836.733	31.23
836.909	76.29
837.086	31.23
837.262	70.14
837.439	84.48
837.616	72.19
837.792	43.52
837.968	31.23
838.145	31.23
838.321	49.66
838.498	82.43
838.674	92.67
838.851	102.91
839.027	18.94
839.203	102.91
839.38	119.29
839.556	25.09
839.732	88.57
839.909	27.14
840.085	88.57
840.261	2.56
840.437	104.96
840.614	31.23
840.79	57.86
840.966	49.66
841.142	90.62
841.318	-1.54
841.494	109.05
841.671	100.86
841.847	41.47
842.023	-50.69
842.199	88.57
842.375	88.57
842.551	-32.26
842.727	8.7
842.903	92.67
843.079	12.8
843.255	117.25
843.431	80.38
843.607	113.15
843.783	-9.73
843.959	117.25
844.134	31.23
844.31	121.34
844.486	-42.5
844.662	39.42
844.838	115.2
845.013	47.62
845.189	147.97
845.365	80.38
845.541	35.33
845.716	64
845.892	98.81
846.068	2.56
846.244	23.04
846.419	35.33
846.595	78.33
846.77	39.42
846.946	113.15
847.122	4.61
847.297	61.95
847.473	115.2
847.648	10.75
847.824	51.71
847.999	-42.5
848.175	64
848.35	84.48
848.526	123.39
848.701	37.38
848.876	59.9
849.052	64
849.227	47.62
849.403	-15.87
849.578	55.81
849.753	51.71
849.929	88.57
850.104	-7.68
850.279	39.42
850.454	57.86
850.63	96.77
850.805	68.09
850.98	100.86
851.155	47.62
851.33	66.05
851.505	35.33
851.681	23.04
851.856	4.61
852.031	49.66
852.206	64
852.381	23.04
852.556	-1.54
852.731	74.24
852.906	66.05
853.081	18.94
853.256	25.09
853.431	55.81
853.606	8.7
853.781	-15.87
853.956	-50.69
854.131	-5.63
854.305	-67.07
854.48	31.23
854.655	16.9
854.83	49.66
855.005	27.14
855.18	25.09
855.354	104.96
855.529	59.9
855.704	25.09
855.879	59.9
856.053	-11.78
856.228	-22.02
856.403	-13.82
856.577	133.63
856.752	-17.92
856.926	23.04
857.101	-7.68
857.276	57.86
857.45	39.42
857.625	84.48
857.799	37.38
857.974	-26.11
858.148	-13.82
858.323	80.38
858.497	49.66
858.672	14.85
858.846	43.52
859.02	27.14
859.195	-24.06
859.369	10.75
859.543	47.62
859.718	104.96
859.892	39.42
860.066	45.57
860.241	31.23
860.415	18.94
860.589	18.94
860.763	25.09
860.938	29.18
861.112	113.15
861.286	20.99
861.46	39.42
861.634	8.7
861.808	107.01
861.982	-26.11
862.157	74.24
862.331	43.52
862.505	55.81
862.679	-1.54
862.853	66.05
863.027	14.85
863.201	76.29
863.375	-15.87
863.549	76.29
863.722	23.04
863.896	82.43
864.07	4.61
864.244	64
864.418	23.04
864.592	-40.45
864.766	76.29
864.939	64
865.113	23.04
865.287	14.85
865.461	31.23
865.634	80.38
865.808	14.85
865.982	2.56
866.156	-87.55
866.329	6.66
866.503	8.7
866.676	14.85
866.85	18.94
867.024	27.14
867.197	31.23
867.371	39.42
867.544	33.28
867.718	-15.87
867.891	55.81
868.065	-9.73
868.238	23.04
868.412	29.18
868.585	0.51
868.759	53.76
868.932	6.66
869.105	-26.11
869.279	31.23
869.452	92.67
869.625	80.38
869.799	-15.87
869.972	12.8
870.145	10.75
870.319	68.09
870.492	-69.12
870.665	59.9
870.838	0.51
871.011	-54.78
871.185	102.91
871.358	25.09
871.531	35.33
871.704	12.8
871.877	90.62
872.05	23.04
872.223	-26.11
872.396	-3.58
872.569	31.23
872.742	-17.92
872.915	-1.54
873.088	-54.78
873.261	18.94
873.434	14.85
873.607	-46.59
873.78	47.62
873.953	0.51
874.126	8.7
874.299	74.24
874.471	-17.92
874.644	51.71
874.817	43.52
874.99	98.81
875.163	18.94
875.335	-7.68
875.508	-44.54
875.681	41.47
875.853	10.75
876.026	27.14
876.199	-7.68
876.371	0.51
876.544	10.75
876.717	31.23
876.889	-30.21
877.062	31.23
877.234	-30.21
877.407	45.57
877.579	78.33
877.752	-1.54
877.924	64
878.097	39.42
878.269	104.96
878.442	51.71
878.614	39.42
878.786	-7.68
878.959	-24.06
879.131	41.47
879.303	-13.82
879.476	51.71
879.648	64
879.82	-9.73
879.993	-48.64
880.165	29.18
880.337	2.56
880.509	88.57
880.681	-7.68
880.854	10.75
881.026	39.42
881.198	6.66
881.37	23.04
881.542	-32.26
881.714	-5.63
881.886	27.14
882.058	41.47
882.23	23.04
882.402	66.05
882.574	51.71
882.746	88.57
882.918	98.81
883.09	18.94
883.262	10.75
883.434	2.56
883.606	-9.73
883.778	-24.06
883.95	96.77
884.122	43.52
884.293	117.25
884.465	14.85
884.637	98.81
884.809	94.72
884.98	-46.59
885.152	39.42
885.324	68.09
885.496	-42.5
885.667	-50.69
885.839	18.94
886.011	88.57
886.182	68.09
886.354	64
886.525	23.04
886.697	64
886.869	33.28
887.04	47.62
887.212	43.52
887.383	39.42
887.555	41.47
887.726	-9.73
887.897	-7.68
888.069	25.09
888.24	72.19
888.412	2.56
888.583	18.94
888.754	10.75
888.926	-67.07
889.097	47.62
889.268	-81.41
889.44	27.14
889.611	-34.3
889.782	-30.21
889.953	-22.02
890.125	68.09
890.296	2.56
890.467	-3.58
890.638	2.56
890.809	25.09
890.98	-11.78
891.151	2.56
891.323	64
891.494	6.66
891.665	43.52
891.836	23.04
892.007	-22.02
892.178	74.24
892.349	25.09
892.52	-5.63
892.691	33.28
892.862	96.77
893.032	-19.97
893.203	57.86
893.374	20.99
893.545	41.47
893.716	10.75
893.887	57.86
894.057	-7.68
894.228	31.23
894.399	41.47
894.57	2.56
894.74	-42.5
894.911	104.96
895.082	-34.3
895.253	-26.11
895.423	76.29
895.594	96.77
895.764	104.96
895.935	-17.92
896.106	49.66
896.276	4.61
896.447	64
896.617	-32.26
896.788	4.61
896.958	49.66
897.129	-13.82
897.299	10.75
897.47	133.63
897.64	-15.87
897.81	6.66
897.981	-3.58
898.151	-62.98
898.322	45.57
898.492	14.85
898.662	4.61
898.832	25.09
899.003	72.19
899.173	55.81
899.343	-58.88
899.513	-65.02
