Data from USB4F104151__165__14-32-21-516.txt Node

Date: Thu Mar 13 14:32:21 EDT 2025
User: louis
Spectrometer: USB4F10415
Trigger mode: 4
Integration Time (sec): 2.500000E-2
Scans to average: 1
Electric dark correction enabled: true
Nonlinearity correction enabled: false
Boxcar width: 0
XAxis mode: Wavelengths
Number of Pixels in Spectrum: 3648
>>>>>Begin Spectral Data<<<<<
178.204	-168.27
178.424	-168.27
178.644	-168.27
178.864	-168.27
179.084	-72.02
179.304	-24.92
179.524	-8.53
179.744	7.85
179.964	42.67
180.184	-0.34
180.404	11.95
180.624	-4.44
180.844	24.23
181.064	-39.25
181.283	1.71
181.503	-2.39
181.723	-8.53
181.943	-86.36
182.163	104.11
182.383	1.71
182.602	-8.53
182.822	75.43
183.042	57
183.262	32.43
183.482	48.81
183.701	-47.44
183.921	104.11
184.141	1.71
184.361	30.38
184.58	65.19
184.8	-8.53
185.02	-47.44
185.239	67.24
185.459	77.48
185.679	7.85
185.898	-49.49
186.118	81.58
186.338	7.85
186.557	7.85
186.777	-24.92
186.997	54.95
187.216	-41.3
187.436	69.29
187.655	28.33
187.875	-31.06
188.095	28.33
188.314	65.19
188.534	48.81
188.753	-29.01
188.973	114.34
189.192	61.1
189.412	-29.01
189.631	69.29
189.851	24.23
190.07	63.15
190.29	-8.53
190.509	-4.44
190.729	-74.07
190.948	48.81
191.168	183.98
191.387	57
191.607	-6.49
191.826	44.71
192.045	36.52
192.265	24.23
192.484	57
192.704	40.62
192.923	-55.64
193.142	42.67
193.362	100.01
193.581	57
193.8	48.81
194.02	54.95
194.239	16.04
194.458	16.04
194.678	-16.73
194.897	34.47
195.116	-8.53
195.335	32.43
195.555	-14.68
195.774	22.19
195.993	89.77
196.212	24.23
196.432	-86.36
196.651	106.15
196.87	42.67
197.089	124.58
197.308	100.01
197.528	-20.82
197.747	57
197.966	50.86
198.185	44.71
198.404	-0.34
198.623	-43.35
198.842	24.23
199.062	-20.82
199.281	67.24
199.5	-14.68
199.719	112.3
199.938	48.81
200.157	-14.68
200.376	24.23
200.595	48.81
200.814	46.76
201.033	-24.92
201.252	59.05
201.471	7.85
201.69	50.86
201.909	85.67
202.128	48.81
202.347	1.71
202.566	22.19
202.785	42.67
203.004	42.67
203.223	93.87
203.442	-22.87
203.661	-0.34
203.879	61.1
204.098	32.43
204.317	16.04
204.536	100.01
204.755	-6.49
204.974	-6.49
205.193	-14.68
205.411	75.43
205.63	89.77
205.849	1.71
206.068	28.33
206.287	-41.3
206.505	1.71
206.724	20.14
206.943	-26.96
207.162	20.14
207.381	7.85
207.599	42.67
207.818	52.91
208.037	65.19
208.255	61.1
208.474	-74.07
208.693	28.33
208.911	73.39
209.13	85.67
209.349	120.49
209.567	63.15
209.786	57
210.005	48.81
210.223	-8.53
210.442	-31.06
210.661	97.96
210.879	71.34
211.098	-31.06
211.316	40.62
211.535	138.92
211.753	-6.49
211.972	83.63
212.191	-31.06
212.409	7.85
212.628	50.86
212.846	-6.49
213.065	81.58
213.283	40.62
213.502	-69.97
213.72	-69.97
213.938	42.67
214.157	18.09
214.375	50.86
214.594	16.04
214.812	69.29
215.031	5.8
215.249	36.52
215.467	40.62
215.686	-14.68
215.904	20.14
216.122	57
216.341	65.19
216.559	34.47
216.778	118.44
216.996	28.33
217.214	-35.16
217.432	3.75
217.651	20.14
217.869	3.75
218.087	7.85
218.306	65.19
218.524	34.47
218.742	-29.01
218.96	54.95
219.179	36.52
219.397	9.9
219.615	67.24
219.833	-2.39
220.051	18.09
220.27	93.87
220.488	32.43
220.706	3.75
220.924	44.71
221.142	11.95
221.36	32.43
221.578	18.09
221.796	-8.53
222.015	61.1
222.233	-20.82
222.451	61.1
222.669	7.85
222.887	26.28
223.105	7.85
223.323	18.09
223.541	5.8
223.759	40.62
223.977	-49.49
224.195	110.25
224.413	75.43
224.631	57
224.849	-6.49
225.067	97.96
225.285	9.9
225.503	57
225.721	-47.44
225.939	52.91
226.157	48.81
226.375	57
226.592	-18.77
226.81	40.62
227.028	52.91
227.246	65.19
227.464	24.23
227.682	75.43
227.9	59.05
228.117	89.77
228.335	50.86
228.553	-14.68
228.771	-8.53
228.989	9.9
229.206	24.23
229.424	-0.34
229.642	-6.49
229.86	-16.73
230.077	24.23
230.295	52.91
230.513	32.43
230.731	71.34
230.948	13.99
231.166	106.15
231.384	65.19
231.601	38.57
231.819	40.62
232.037	9.9
232.254	13.99
232.472	-8.53
232.689	-6.49
232.907	79.53
233.125	-20.82
233.342	57
233.56	16.04
233.777	7.85
233.995	-41.3
234.213	97.96
234.43	-0.34
234.648	-41.3
234.865	20.14
235.083	69.29
235.3	42.67
235.518	114.34
235.735	97.96
235.953	16.04
236.17	28.33
236.388	7.85
236.605	-8.53
236.822	147.11
237.04	93.87
237.257	-8.53
237.475	13.99
237.692	65.19
237.909	54.95
238.127	16.04
238.344	-31.06
238.562	132.78
238.779	-0.34
238.996	-16.73
239.214	48.81
239.431	40.62
239.648	1.71
239.865	57
240.083	24.23
240.3	16.04
240.517	9.9
240.735	36.52
240.952	46.76
241.169	40.62
241.386	24.23
241.603	16.04
241.821	-2.39
242.038	42.67
242.255	42.67
242.472	-16.73
242.689	83.63
242.907	81.58
243.124	57
243.341	-6.49
243.558	32.43
243.775	13.99
243.992	-14.68
244.209	48.81
244.426	57
244.643	126.63
244.86	5.8
245.078	13.99
245.295	20.14
245.512	71.34
245.729	26.28
245.946	-0.34
246.163	61.1
246.38	57
246.597	9.9
246.814	61.1
247.031	11.95
247.248	7.85
247.464	28.33
247.681	30.38
247.898	57
248.115	-0.34
248.332	-16.73
248.549	7.85
248.766	42.67
248.983	11.95
249.2	24.23
249.417	46.76
249.633	-8.53
249.85	44.71
250.067	28.33
250.284	3.75
250.501	93.87
250.717	61.1
250.934	32.43
251.151	26.28
251.368	26.28
251.585	24.23
251.801	69.29
252.018	-74.07
252.235	26.28
252.451	-31.06
252.668	-8.53
252.885	65.19
253.102	-26.96
253.318	42.67
253.535	28.33
253.752	-26.96
253.968	-29.01
254.185	-63.83
254.401	18.09
254.618	34.47
254.835	-22.87
255.051	149.16
255.268	-24.92
255.484	34.47
255.701	69.29
255.917	57
256.134	-6.49
256.351	-8.53
256.567	18.09
256.784	20.14
257	32.43
257.217	26.28
257.433	73.39
257.65	67.24
257.866	24.23
258.082	24.23
258.299	16.04
258.515	83.63
258.732	59.05
258.948	-37.2
259.165	85.67
259.381	-45.4
259.597	16.04
259.814	-33.11
260.03	-20.82
260.246	50.86
260.463	104.11
260.679	7.85
260.895	44.71
261.112	40.62
261.328	-8.53
261.544	30.38
261.761	71.34
261.977	-63.83
262.193	-22.87
262.409	36.52
262.626	16.04
262.842	7.85
263.058	11.95
263.274	-6.49
263.49	91.82
263.707	61.1
263.923	59.05
264.139	-43.35
264.355	69.29
264.571	24.23
264.787	67.24
265.004	32.43
265.22	-2.39
265.436	-0.34
265.652	3.75
265.868	50.86
266.084	-47.44
266.3	61.1
266.516	24.23
266.732	26.28
266.948	18.09
267.164	40.62
267.38	-33.11
267.596	34.47
267.812	130.73
268.028	-41.3
268.244	24.23
268.46	20.14
268.676	75.43
268.892	89.77
269.108	-65.88
269.324	-14.68
269.54	11.95
269.756	44.71
269.972	-6.49
270.188	30.38
270.403	79.53
270.619	-12.63
270.835	89.77
271.051	-22.87
271.267	-14.68
271.483	16.04
271.698	57
271.914	73.39
272.13	-8.53
272.346	3.75
272.562	61.1
272.777	108.2
272.993	28.33
273.209	26.28
273.425	7.85
273.64	-20.82
273.856	28.33
274.072	83.63
274.287	3.75
274.503	34.47
274.719	116.39
274.934	16.04
275.15	18.09
275.366	-4.44
275.581	1.71
275.797	81.58
276.012	9.9
276.228	-6.49
276.444	-24.92
276.659	100.01
276.875	42.67
277.09	22.19
277.306	-31.06
277.521	34.47
277.737	73.39
277.952	65.19
278.168	28.33
278.383	24.23
278.599	40.62
278.814	18.09
279.03	-53.59
279.245	67.24
279.461	57
279.676	126.63
279.892	7.85
280.107	73.39
280.322	-31.06
280.538	18.09
280.753	-31.06
280.969	85.67
281.184	-0.34
281.399	97.96
281.615	11.95
281.83	-10.58
282.045	28.33
282.26	-33.11
282.476	18.09
282.691	48.81
282.906	34.47
283.122	34.47
283.337	69.29
283.552	100.01
283.767	57
283.983	63.15
284.198	59.05
284.413	97.96
284.628	-41.3
284.843	13.99
285.058	20.14
285.274	-22.87
285.489	-37.2
285.704	69.29
285.919	54.95
286.134	7.85
286.349	34.47
286.564	42.67
286.779	104.11
286.995	26.28
287.21	-139.6
287.425	-12.63
287.64	-12.63
287.855	7.85
288.07	-33.11
288.285	9.9
288.5	13.99
288.715	85.67
288.93	9.9
289.145	-22.87
289.36	147.11
289.575	-4.44
289.79	54.95
290.004	7.85
290.219	83.63
290.434	-0.34
290.649	-78.16
290.864	50.86
291.079	79.53
291.294	-33.11
291.509	57
291.724	134.82
291.938	7.85
292.153	3.75
292.368	-74.07
292.583	114.34
292.798	73.39
293.012	42.67
293.227	65.19
293.442	-29.01
293.657	65.19
293.871	73.39
294.086	7.85
294.301	89.77
294.516	69.29
294.73	48.81
294.945	3.75
295.16	-14.68
295.374	116.39
295.589	61.1
295.804	16.04
296.018	65.19
296.233	93.87
296.447	34.47
296.662	-18.77
296.877	50.86
297.091	79.53
297.306	77.48
297.52	20.14
297.735	26.28
297.949	28.33
298.164	83.63
298.378	81.58
298.593	5.8
298.807	-78.16
299.022	102.06
299.236	13.99
299.451	-16.73
299.665	-33.11
299.88	-76.12
300.094	24.23
300.309	13.99
300.523	-29.01
300.737	18.09
300.952	57
301.166	-4.44
301.381	3.75
301.595	16.04
301.809	24.23
302.024	71.34
302.238	-22.87
302.452	91.82
302.667	32.43
302.881	42.67
303.095	75.43
303.309	16.04
303.524	-33.11
303.738	87.72
303.952	48.81
304.166	42.67
304.381	-74.07
304.595	81.58
304.809	87.72
305.023	-2.39
305.237	-0.34
305.452	57
305.666	34.47
305.88	-20.82
306.094	63.15
306.308	-31.06
306.522	57
306.736	38.57
306.95	-2.39
307.164	40.62
307.379	91.82
307.593	108.2
307.807	61.1
308.021	108.2
308.235	91.82
308.449	-41.3
308.663	52.91
308.877	122.54
309.091	-4.44
309.305	120.49
309.519	-57.68
309.733	81.58
309.947	5.8
310.161	81.58
310.374	-24.92
310.588	57
310.802	-24.92
311.016	40.62
311.23	46.76
311.444	-41.3
311.658	16.04
311.872	32.43
312.085	11.95
312.299	104.11
312.513	7.85
312.727	61.1
312.941	-6.49
313.154	-0.34
313.368	20.14
313.582	48.81
313.796	24.23
314.009	48.81
314.223	32.43
314.437	97.96
314.651	7.85
314.864	13.99
315.078	3.75
315.292	42.67
315.505	-6.49
315.719	24.23
315.933	50.86
316.146	13.99
316.36	3.75
316.573	1.71
316.787	118.44
317.001	73.39
317.214	-31.06
317.428	-16.73
317.641	24.23
317.855	-10.58
318.068	36.52
318.282	26.28
318.495	57
318.709	61.1
318.922	24.23
319.136	52.91
319.349	40.62
319.563	57
319.776	48.81
319.99	24.23
320.203	67.24
320.417	-41.3
320.63	106.15
320.843	89.77
321.057	57
321.27	73.39
321.483	30.38
321.697	85.67
321.91	-24.92
322.124	-14.68
322.337	42.67
322.55	34.47
322.763	-8.53
322.977	63.15
323.19	-22.87
323.403	-47.44
323.617	73.39
323.83	108.2
324.043	36.52
324.256	11.95
324.469	77.48
324.683	81.58
324.896	-0.34
325.109	38.57
325.322	7.85
325.535	97.96
325.748	48.81
325.962	11.95
326.175	50.86
326.388	67.24
326.601	77.48
326.814	30.38
327.027	-31.06
327.24	147.11
327.453	-29.01
327.666	59.05
327.879	102.06
328.092	130.73
328.305	40.62
328.518	61.1
328.731	83.63
328.944	16.04
329.157	50.86
329.37	16.04
329.583	40.62
329.796	75.43
330.009	5.8
330.222	26.28
330.435	75.43
330.648	69.29
330.861	28.33
331.073	83.63
331.286	24.23
331.499	40.62
331.712	-14.68
331.925	32.43
332.138	59.05
332.35	38.57
332.563	-12.63
332.776	83.63
332.989	85.67
333.202	32.43
333.414	20.14
333.627	26.28
333.84	-12.63
334.053	85.67
334.265	-24.92
334.478	-26.96
334.691	32.43
334.903	34.47
335.116	32.43
335.329	50.86
335.541	36.52
335.754	85.67
335.966	-12.63
336.179	-8.53
336.392	-55.64
336.604	11.95
336.817	20.14
337.029	36.52
337.242	-16.73
337.454	81.58
337.667	36.52
337.88	65.19
338.092	83.63
338.305	28.33
338.517	97.96
338.729	73.39
338.942	59.05
339.154	65.19
339.367	-16.73
339.579	24.23
339.792	34.47
340.004	100.01
340.217	-65.88
340.429	95.91
340.641	34.47
340.854	40.62
341.066	3.75
341.278	18.09
341.491	42.67
341.703	34.47
341.915	24.23
342.128	40.62
342.34	32.43
342.552	24.23
342.764	16.04
342.977	57
343.189	34.47
343.401	-0.34
343.613	3.75
343.826	16.04
344.038	-41.3
344.25	-4.44
344.462	-35.16
344.674	16.04
344.886	-14.68
345.099	97.96
345.311	57
345.523	40.62
345.735	-137.56
345.947	59.05
346.159	-6.49
346.371	28.33
346.583	22.19
346.795	140.97
347.007	71.34
347.219	48.81
347.431	40.62
347.643	65.19
347.855	18.09
348.067	46.76
348.279	3.75
348.491	5.8
348.703	20.14
348.915	3.75
349.127	57
349.339	38.57
349.551	-0.34
349.763	114.34
349.975	24.23
350.187	24.23
350.399	50.86
350.61	65.19
350.822	16.04
351.034	40.62
351.246	50.86
351.458	83.63
351.669	57
351.881	65.19
352.093	93.87
352.305	24.23
352.517	40.62
352.728	7.85
352.94	42.67
353.152	59.05
353.363	28.33
353.575	93.87
353.787	-24.92
353.999	71.34
354.21	52.91
354.422	5.8
354.633	57
354.845	40.62
355.057	65.19
355.268	145.06
355.48	57
355.692	-55.64
355.903	7.85
356.115	50.86
356.326	-45.4
356.538	67.24
356.749	-31.06
356.961	69.29
357.172	83.63
357.384	1.71
357.595	34.47
357.807	16.04
358.018	-16.73
358.23	42.67
358.441	83.63
358.653	73.39
358.864	-10.58
359.075	18.09
359.287	16.04
359.498	-24.92
359.709	16.04
359.921	69.29
360.132	69.29
360.344	61.1
360.555	16.04
360.766	67.24
360.977	-0.34
361.189	63.15
361.4	24.23
361.611	93.87
361.823	67.24
362.034	57
362.245	-4.44
362.456	40.62
362.667	63.15
362.879	7.85
363.09	102.06
363.301	97.96
363.512	57
363.723	40.62
363.935	81.58
364.146	3.75
364.357	71.34
364.568	75.43
364.779	30.38
364.99	102.06
365.201	-0.34
365.412	167.59
365.623	61.1
365.834	24.23
366.045	26.28
366.256	40.62
366.467	36.52
366.678	89.77
366.889	44.71
367.1	-33.11
367.311	97.96
367.522	28.33
367.733	77.48
367.944	81.58
368.155	7.85
368.366	73.39
368.577	3.75
368.788	110.25
368.999	65.19
369.209	40.62
369.42	106.15
369.631	24.23
369.842	18.09
370.053	-0.34
370.264	69.29
370.474	52.91
370.685	143.02
370.896	26.28
371.107	57
371.317	112.3
371.528	-80.21
371.739	95.91
371.95	65.19
372.16	48.81
372.371	-24.92
372.582	65.19
372.792	81.58
373.003	81.58
373.214	40.62
373.424	54.95
373.635	61.1
373.846	151.21
374.056	18.09
374.267	9.9
374.477	71.34
374.688	46.76
374.898	57
375.109	114.34
375.319	7.85
375.53	65.19
375.74	83.63
375.951	16.04
376.161	95.91
376.372	83.63
376.582	7.85
376.793	114.34
377.003	40.62
377.214	34.47
377.424	40.62
377.635	75.43
377.845	57
378.055	106.15
378.266	34.47
378.476	89.77
378.686	57
378.897	61.1
379.107	83.63
379.317	34.47
379.528	20.14
379.738	89.77
379.948	11.95
380.158	57
380.369	24.23
380.579	61.1
380.789	54.95
380.999	75.43
381.21	112.3
381.42	97.96
381.63	100.01
381.84	57
382.05	1.71
382.261	104.11
382.471	75.43
382.681	67.24
382.891	40.62
383.101	59.05
383.311	38.57
383.521	24.23
383.731	65.19
383.941	24.23
384.151	30.38
384.361	73.39
384.571	75.43
384.781	50.86
384.991	73.39
385.201	169.64
385.411	106.15
385.621	50.86
385.831	40.62
386.041	77.48
386.251	20.14
386.461	106.15
386.671	16.04
386.881	16.04
387.091	16.04
387.301	116.39
387.511	65.19
387.72	116.39
387.93	57
388.14	61.1
388.35	67.24
388.56	118.44
388.769	83.63
388.979	93.87
389.189	93.87
389.399	69.29
389.609	97.96
389.818	50.86
390.028	54.95
390.238	32.43
390.447	75.43
390.657	36.52
390.867	59.05
391.076	32.43
391.286	57
391.496	73.39
391.705	34.47
391.915	26.28
392.125	81.58
392.334	108.2
392.544	102.06
392.753	124.58
392.963	-8.53
393.172	95.91
393.382	44.71
393.591	128.68
393.801	57
394.01	138.92
394.22	48.81
394.429	100.01
394.639	50.86
394.848	48.81
395.058	73.39
395.267	128.68
395.477	34.47
395.686	75.43
395.895	173.74
396.105	183.98
396.314	122.54
396.524	128.68
396.733	89.77
396.942	206.5
397.152	118.44
397.361	73.39
397.57	59.05
397.78	65.19
397.989	110.25
398.198	274.09
398.407	7.85
398.617	42.67
398.826	65.19
399.035	67.24
399.244	188.07
399.453	126.63
399.663	16.04
399.872	167.59
400.081	120.49
400.29	138.92
400.499	116.39
400.708	130.73
400.917	138.92
401.127	65.19
401.336	38.57
401.545	122.54
401.754	155.3
401.963	73.39
402.172	138.92
402.381	83.63
402.59	48.81
402.799	114.34
403.008	106.15
403.217	157.35
403.426	163.5
403.635	116.39
403.844	57
404.053	73.39
404.262	85.67
404.471	155.3
404.68	116.39
404.888	75.43
405.097	120.49
405.306	143.02
405.515	190.12
405.724	126.63
405.933	138.92
406.142	220.84
406.35	198.31
406.559	169.64
406.768	200.36
406.977	190.12
407.185	132.78
407.394	216.74
407.603	147.11
407.812	179.88
408.02	233.13
408.229	212.65
408.438	241.32
408.646	278.18
408.855	212.65
409.064	255.65
409.272	204.46
409.481	294.57
409.69	229.03
409.898	290.47
410.107	296.61
410.315	294.57
410.524	269.99
410.733	294.57
410.941	300.71
411.15	378.53
411.358	392.87
411.567	450.21
411.775	298.66
411.984	411.3
412.192	392.87
412.401	331.43
412.609	421.54
412.818	454.31
413.026	548.51
413.234	511.65
413.443	491.17
413.651	495.27
413.86	544.42
414.068	650.91
414.276	614.05
414.485	597.67
414.693	614.05
414.901	624.29
415.11	630.43
415.318	646.82
415.526	755.36
415.734	730.78
415.943	743.07
416.151	804.51
416.359	753.31
416.567	818.85
416.776	954.01
416.984	882.33
417.192	931.48
417.4	962.2
417.608	1011.36
417.817	1011.36
418.025	1091.23
418.233	1056.41
418.441	1089.18
418.649	1105.56
418.857	1113.75
419.065	1318.55
419.273	1220.25
419.481	1359.51
419.689	1404.57
419.897	1345.17
420.105	1418.9
420.313	1416.85
420.521	1498.77
420.729	1621.65
420.937	1625.75
421.145	1691.28
421.353	1840.78
421.561	1875.6
421.769	1902.22
421.977	1875.6
422.185	1990.28
422.393	2076.3
422.601	2152.07
422.809	2197.13
423.017	2174.6
423.224	2334.34
423.432	2330.25
423.64	2420.36
423.848	2533
424.056	2596.48
424.263	2698.88
424.471	2788.99
424.679	2735.74
424.887	2864.77
425.094	2987.65
425.302	3063.42
425.51	3047.04
425.718	3247.74
425.925	3229.31
426.133	3296.89
426.341	3626.61
426.548	3694.19
426.756	3667.57
426.964	3860.08
427.171	4046.44
427.379	4071.02
427.586	4210.28
427.794	4267.63
428.001	4548.2
428.209	4785.76
428.417	4587.11
428.624	4849.25
428.832	4949.6
429.039	5011.04
429.247	4955.74
429.454	5432.92
429.662	5611.09
429.869	5244.51
430.076	5709.4
430.284	5480.02
430.491	5791.31
430.699	6114.89
430.906	6108.75
431.114	6237.77
431.321	6374.99
431.528	6452.81
431.736	6948.42
431.943	7206.46
432.15	6972.99
432.358	6975.04
432.565	7396.92
432.772	7398.97
432.979	7816.76
433.187	7966.26
433.394	8058.42
433.601	8353.32
433.808	8566.31
434.016	8576.55
434.223	8793.64
434.43	9272.86
434.637	9362.97
434.844	9987.6
435.052	9747.99
435.259	9756.18
435.466	9870.87
435.673	9821.72
435.88	10472.97
436.087	10995.2
436.294	10901
436.501	10970.63
436.708	10968.58
436.915	11396.6
437.122	11873.78
437.329	11855.35
437.537	12295.66
437.743	12387.82
437.95	12353.01
438.157	12948.97
438.364	13473.25
438.571	13401.57
438.778	13368.8
438.985	14540.24
439.192	14267.86
439.399	14480.85
439.606	14220.75
439.813	14998.98
440.02	15893.94
440.227	15502.78
440.433	15506.88
440.64	15996.34
440.847	15824.31
441.054	16180.66
441.261	17319.33
441.467	17147.3
441.674	17612.19
441.881	18058.65
442.088	18185.62
442.294	17882.52
442.501	18351.51
442.708	18732.43
442.914	19139.97
443.121	20166.01
443.328	19398.02
443.534	20929.9
443.741	20544.88
443.948	20049.27
444.154	21575.01
444.361	21523.81
444.568	21677.41
444.774	21556.58
444.981	22043.99
445.187	22404.44
445.394	23334.21
445.6	23221.58
445.807	25414.95
446.013	24118.59
446.22	24640.82
446.426	25793.83
446.633	26047.77
446.839	26938.64
447.046	25353.51
447.252	27258.12
447.459	27110.67
447.665	26862.86
447.871	28351.74
448.078	28986.61
448.284	27882.75
448.491	28542.2
448.697	30037.22
448.903	30358.75
449.11	30272.73
449.316	29545.7
449.522	30305.5
449.728	31227.09
449.935	31491.27
450.141	31501.51
450.347	32058.56
450.553	31409.36
450.76	31397.07
450.966	32701.62
451.172	32218.3
451.378	32953.52
451.584	32625.85
451.791	32767.16
451.997	32898.23
452.203	33789.1
452.409	33692.84
452.615	33387.69
452.821	32271.55
453.027	31642.82
453.233	33457.32
453.44	32144.58
453.646	32574.65
453.852	32652.47
454.058	33281.2
454.264	32197.82
454.47	32853.17
454.676	32056.51
454.882	33242.29
455.088	30377.18
455.294	30858.45
455.5	31122.64
455.705	31577.29
455.911	30082.27
456.117	29537.51
456.323	29084.91
456.529	27723.01
456.735	28947.7
456.941	28200.19
457.147	27571.46
457.352	26789.14
457.558	26500.37
457.764	26672.4
457.97	25976.09
458.176	25591.08
458.381	25339.18
458.587	24307
458.793	24155.45
458.999	22861.13
459.204	24280.38
459.41	24018.24
459.616	22242.65
459.821	22394.2
460.027	22242.65
460.233	21572.96
460.438	20776.3
460.644	21046.63
460.85	19955.07
461.055	19469.7
461.261	19766.65
461.466	17948.06
461.672	17702.3
461.878	18828.68
462.083	17591.71
462.289	17132.97
462.494	17018.28
462.7	16403.89
462.905	15846.84
463.111	16203.19
463.316	16469.42
463.522	16072.12
463.727	15961.53
463.932	16047.54
464.138	15846.84
464.343	15740.35
464.549	15314.37
464.754	15850.94
464.959	15590.84
465.165	15736.25
465.37	15023.56
465.575	14534.09
465.781	15271.36
465.986	15164.87
466.191	14534.09
466.397	14417.36
466.602	13802.97
466.807	14140.88
467.012	14163.41
467.218	14233.04
467.423	13864.41
467.628	14075.35
467.833	14544.33
468.038	13921.75
468.244	13549.02
468.449	14071.25
468.654	13651.42
468.859	13708.76
469.064	13524.44
469.269	12971.49
469.474	13225.44
469.679	13456.86
469.885	13100.51
470.09	13157.86
470.295	12942.82
470.5	12445.16
470.705	12918.25
470.91	12615.15
471.115	12518.89
471.32	12543.47
471.525	12496.36
471.73	12289.52
471.935	12275.18
472.139	11838.97
472.344	11996.66
472.549	11638.27
472.754	11781.62
472.959	11527.67
473.164	11099.65
473.369	11099.65
473.574	11623.93
473.778	11173.38
473.983	11216.38
474.188	10968.58
474.393	10751.49
474.598	10692.1
474.802	10690.06
475.007	10804.74
475.212	10829.32
475.417	10124.82
475.621	10298.89
475.826	10149.39
476.031	10061.33
476.235	9678.36
476.44	10194.45
476.645	9766.42
476.849	9778.71
477.054	9731.61
477.259	9678.36
477.463	9530.91
477.668	9299.48
477.872	9520.67
478.077	9207.33
478.282	8963.62
478.486	9223.71
478.691	9088.54
478.895	8822.31
479.1	8918.56
479.304	8756.77
479.509	8576.55
479.713	8724.01
479.918	8425
480.122	8388.14
480.326	8486.44
480.531	8609.32
480.735	8562.22
480.94	8242.73
481.144	8588.84
481.348	8220.21
481.553	8169.01
481.757	8240.68
481.961	8338.99
482.166	8527.4
482.37	8257.07
482.574	8177.2
482.778	8242.73
482.983	8324.65
483.187	8203.82
483.391	8279.6
483.595	8361.52
483.8	8093.23
484.004	8146.48
484.208	8291.88
484.412	8164.91
484.616	8216.11
484.821	8334.89
485.025	7949.87
485.229	8203.82
485.433	8273.45
485.637	8166.96
485.841	8062.51
486.045	8166.96
486.249	8056.37
486.453	7994.93
486.657	8130.09
486.861	8175.15
487.065	8015.41
487.269	8013.36
487.473	7923.25
487.677	8291.88
487.881	8224.3
488.085	8152.62
488.289	8396.33
488.493	8117.81
488.697	8070.7
488.901	8130.09
489.105	8003.12
489.309	8150.57
489.512	8324.65
489.716	8162.86
489.92	8379.95
490.124	8150.57
490.328	8435.24
490.531	8173.1
490.735	8341.04
490.939	8396.33
491.143	8222.25
491.346	8248.88
491.55	8334.89
491.754	8476.2
491.958	8412.71
492.161	8431.15
492.365	8431.15
492.569	8592.94
492.772	8390.19
492.976	8529.45
493.18	8666.66
493.383	8893.99
493.587	8529.45
493.79	8803.88
493.994	8468.01
494.197	8734.25
494.401	8867.36
494.605	8834.6
494.808	8977.95
495.012	8867.36
495.215	8996.39
495.419	9106.98
495.622	9160.22
495.825	9135.65
496.029	9127.46
496.232	9365.02
496.436	9561.62
496.639	9539.1
496.843	9584.15
497.046	9715.22
497.249	9735.7
497.453	9829.91
497.656	9981.46
497.859	9850.39
498.063	10159.63
498.266	10210.83
498.469	10165.78
498.673	10358.28
498.876	10569.23
499.079	10558.99
499.282	10556.94
499.485	10769.93
499.689	10751.49
499.892	11034.11
500.095	10972.68
500.298	11091.46
500.501	11099.65
500.705	11320.83
500.908	11521.53
501.111	11410.94
501.314	11587.07
501.517	11824.63
501.72	11740.66
501.923	12041.71
502.126	12115.44
502.329	12389.87
502.532	12568.04
502.735	12475.88
502.938	12770.79
503.141	12815.85
503.344	13123.04
503.547	12983.78
503.75	13077.99
503.953	13426.14
504.156	13309.41
504.359	13671.9
504.562	13688.28
504.765	14007.76
504.968	14005.72
505.17	14206.42
505.373	14239.19
505.576	14331.34
505.779	14573
505.982	14325.2
506.185	15064.52
506.387	15091.14
506.59	15062.47
506.793	15457.73
506.996	15150.53
507.198	16117.17
507.401	15920.57
507.604	15695.29
507.807	15936.95
508.009	16315.83
508.212	16162.23
508.415	16440.75
508.617	16711.08
508.82	16962.98
509.022	16860.59
509.225	17374.63
509.428	17368.48
509.63	17517.98
509.833	17505.7
510.035	17823.13
510.238	17931.67
510.44	18238.87
510.643	18509.2
510.845	18496.91
511.048	18609.55
511.25	18861.45
511.453	19004.81
511.655	19484.03
511.858	19219.85
512.06	19316.1
512.262	19668.35
512.465	19627.39
512.667	20084.09
512.87	20098.42
513.072	19897.72
513.274	20653.42
513.477	21003.63
513.679	20768.11
513.881	21048.68
514.084	21032.3
514.286	21394.79
514.488	21425.51
514.69	22185.3
514.893	22087
515.095	21933.4
515.297	22293.85
515.499	22623.57
515.701	22887.76
515.904	23104.84
516.106	23194.95
516.308	23528.77
516.51	23348.55
516.712	23280.97
516.914	23688.51
517.116	24096.06
517.318	24268.09
517.52	24567.09
517.722	24366.39
517.925	24511.8
518.127	24794.42
518.329	25101.61
518.531	24692.02
518.733	25414.95
518.935	25535.78
519.136	25814.3
519.338	25832.74
519.54	26166.56
519.742	26391.83
519.944	26563.86
520.146	26866.96
520.348	27067.66
520.55	26873.1
520.752	26926.35
520.954	27399.43
521.155	27256.07
521.357	27692.29
521.559	27800.83
521.761	28022.02
521.963	28036.35
522.164	28118.27
522.366	28048.64
522.568	28433.66
522.77	28845.3
522.971	28802.29
523.173	28513.53
523.375	28925.17
523.576	28581.11
523.778	28740.85
523.98	29338.86
524.181	29136.11
524.383	29705.45
524.584	30196.96
524.786	29996.26
524.988	29809.89
525.189	30242.01
525.391	29918.43
525.592	29951.2
525.794	30262.49
525.995	30104.8
526.197	30219.49
526.398	30287.07
526.6	30510.3
526.801	30340.32
527.003	30469.34
527.204	29887.71
527.406	30674.13
527.607	30674.13
527.808	30792.92
528.01	30151.9
528.211	30450.91
528.412	31206.61
528.614	30749.91
528.815	31030.48
529.016	30942.42
529.218	30608.6
529.419	30739.67
529.62	30747.86
529.822	30825.68
530.023	30657.75
530.224	31182.03
530.425	30602.46
530.626	30080.22
530.828	30401.75
531.029	30803.16
531.23	30715.09
531.431	30498.01
531.632	30604.5
531.833	30842.07
532.035	30727.38
532.236	30858.45
532.437	31165.65
532.638	30467.29
532.839	30815.44
533.04	30704.85
533.241	30287.07
533.442	30880.98
533.643	30651.61
533.844	30495.96
534.045	30825.68
534.246	29986.02
534.447	30688.47
534.648	30401.75
534.849	30508.25
535.05	29938.91
535.251	30280.92
535.451	30209.25
535.652	30356.7
535.853	29945.06
536.054	30344.41
536.255	30307.55
536.456	29967.59
536.657	30199.01
536.857	29785.32
537.058	29867.23
537.259	30137.57
537.46	29969.63
537.66	29947.11
537.861	30164.19
538.062	30151.9
538.263	29654.25
538.463	29975.78
538.664	29811.94
538.865	29900
539.065	30280.92
539.266	29721.83
539.466	29957.35
539.667	29422.83
539.868	29844.71
540.068	29474.02
540.269	29398.25
540.469	29879.52
540.67	29478.12
540.87	29631.72
541.071	29166.83
541.271	29371.63
541.472	29641.96
541.672	29555.94
541.873	29213.93
542.073	28941.55
542.274	29865.19
542.474	29302
542.675	29046
542.875	29469.93
543.075	29273.32
543.276	28953.84
543.476	29580.52
543.676	29209.84
543.877	29271.28
544.077	29140.21
544.277	29265.13
544.478	28937.46
544.678	29502.7
544.878	29150.45
545.078	28998.9
545.279	29119.73
545.479	29224.17
545.679	29072.62
545.879	28931.31
546.079	28896.5
546.28	29121.77
546.48	28949.74
546.68	29377.77
546.88	29283.56
547.08	28941.55
547.28	29021.42
547.48	29134.06
547.68	28994.8
547.88	28986.61
548.081	29302
548.281	28947.7
548.481	29064.43
548.681	29662.44
548.881	28947.7
549.081	29148.4
549.28	29052.14
549.48	29168.88
549.68	29244.65
549.88	29705.45
550.08	29029.62
550.28	29166.83
550.48	29150.45
550.68	29168.88
550.88	29207.79
551.08	29240.56
551.279	29254.89
551.479	28925.17
551.679	29297.9
551.879	29064.43
552.079	29302
552.278	29046
552.478	29238.51
552.678	29310.19
552.878	29754.6
553.077	29222.12
553.277	29156.59
553.477	29476.07
553.676	29566.18
553.876	29172.97
554.076	29211.88
554.275	29615.33
554.475	29050.1
554.674	29234.41
554.874	29637.86
555.074	29035.76
555.273	29248.75
555.473	29592.81
555.672	29213.93
555.872	29322.48
556.071	29652.2
556.271	29613.29
556.47	29433.07
556.67	29189.36
556.869	29123.82
557.068	29172.97
557.268	29269.23
557.467	29619.43
557.667	29465.83
557.866	29605.09
558.065	29621.48
558.265	29592.81
558.464	29594.86
558.663	29502.7
558.863	29367.53
559.062	29893.86
559.261	29463.79
559.461	29824.23
559.66	29246.7
559.859	29545.7
560.058	29242.6
560.258	29697.25
560.457	29064.43
560.656	29431.02
560.855	29187.31
561.054	29500.65
561.253	29492.46
561.453	29813.99
561.652	29340.91
561.851	29414.63
562.05	29621.48
562.249	29193.45
562.448	29641.96
562.647	29408.49
562.846	29449.45
563.045	29402.35
563.244	29345
563.443	29672.68
563.642	29424.87
563.841	29410.54
564.04	29039.86
564.239	29474.02
564.438	28933.36
564.637	29314.28
564.836	29228.27
565.035	29035.76
565.234	29234.41
565.432	29035.76
565.631	29084.91
565.83	29328.62
566.029	29185.26
566.228	28972.27
566.427	28933.36
566.625	28531.96
566.824	28740.85
567.023	28876.02
567.222	28292.35
567.42	29056.24
567.619	28777.72
567.818	28624.12
568.016	28583.16
568.215	29097.2
568.414	28474.62
568.612	28685.56
568.811	28445.94
569.01	28441.85
569.208	27813.12
569.407	28224.76
569.605	28120.32
569.804	28615.93
570.002	28157.18
570.201	28693.75
570.4	27624.71
570.598	27751.68
570.797	27792.64
570.995	27778.31
571.193	27680
571.392	27811.07
571.59	27743.49
571.789	27825.41
571.987	27487.5
572.186	27360.52
572.384	27759.88
572.582	27348.23
572.781	27274.51
572.979	26895.63
573.177	27299.08
573.376	27221.26
573.574	27368.71
573.772	27268.36
573.971	26977.55
574.169	27071.76
574.367	26666.26
574.565	26932.5
574.763	26455.32
574.962	26459.41
575.16	26529.05
575.358	26240.28
575.556	25984.29
575.754	26477.85
575.952	26180.89
576.151	26369.3
576.349	25734.43
576.547	25824.54
576.745	25847.07
576.943	26236.19
577.141	25744.67
577.339	25847.07
577.537	25736.48
577.735	25763.11
577.933	25486.63
578.131	25318.7
578.329	25277.74
578.527	25038.12
578.725	25148.71
578.923	25115.95
579.121	25173.29
579.319	24829.23
579.516	25027.88
579.714	25271.59
579.912	25046.32
580.11	25038.12
580.308	24890.67
580.506	24759.6
580.704	24384.82
580.901	24458.55
581.099	24743.22
581.297	24431.93
581.495	24317.24
581.692	24773.94
581.89	24132.92
582.088	24610.1
582.285	23702.85
582.483	23995.71
582.681	24415.54
582.878	23774.53
583.076	23706.94
583.274	24016.19
583.471	23725.38
583.669	23854.4
583.866	23604.55
584.064	23799.1
584.262	23211.34
584.459	23610.69
584.657	23283.02
584.854	23586.11
585.052	23035.21
585.249	23311.69
585.447	23407.94
585.644	22893.9
585.841	23280.97
586.039	23567.68
586.236	23067.98
586.434	22953.29
586.631	22693.2
586.828	22824.27
587.026	23067.98
587.223	22881.61
587.42	22752.59
587.618	22768.98
587.815	22349.14
588.012	22496.6
588.21	22431.06
588.407	22687.06
588.604	22609.23
588.801	22158.68
588.999	22175.06
589.196	22242.65
589.393	22336.85
589.59	22338.9
589.787	22115.67
589.984	22099.29
590.182	21955.93
590.379	22101.34
590.576	21828.96
590.773	22238.55
590.97	21888.35
591.167	22074.71
591.364	21445.99
591.561	21773.66
591.758	21792.09
591.955	21851.49
592.152	21724.51
592.349	21347.68
592.546	21646.69
592.743	21632.35
592.94	21347.68
593.137	21626.21
593.334	21577.06
593.531	21075.31
593.727	21276.01
593.924	21271.91
594.121	21245.29
594.318	21380.45
594.515	21271.91
594.712	21550.43
594.908	21161.32
595.105	21116.26
595.302	20997.48
595.499	21196.14
595.696	21005.67
595.892	21054.83
596.089	21226.85
596.286	21085.54
596.482	21005.67
596.679	20874.6
596.876	20837.74
597.072	21071.21
597.269	21155.18
597.466	21034.35
597.662	20653.42
597.859	20807.02
598.055	20958.57
598.252	20809.07
598.448	21075.31
598.645	20800.88
598.841	20700.53
599.038	20929.9
599.234	20737.39
599.431	20587.89
599.627	20804.97
599.824	20829.55
600.02	20583.79
600.217	20649.33
600.413	20735.34
600.609	20585.84
600.806	20653.42
601.002	20647.28
601.198	20647.28
601.395	20723.05
601.591	20764.01
601.787	20690.29
601.984	20721.01
602.18	20934
602.376	20227.45
602.572	20594.03
602.769	20737.39
602.965	20559.22
603.161	20571.5
603.357	20512.11
603.553	20516.21
603.75	20600.18
603.946	20583.79
604.142	20503.92
604.338	20471.15
604.534	20561.26
604.73	20575.6
604.926	20344.18
605.122	21159.27
605.318	20575.6
605.514	20833.64
605.71	20575.6
605.906	20694.38
606.102	20551.03
606.298	20764.01
606.494	20985.19
606.69	20579.7
606.886	21081.45
607.082	20559.22
607.278	21165.42
607.474	20794.73
607.67	21005.67
607.866	20823.4
608.062	21355.88
608.257	20997.48
608.453	20997.48
608.649	21071.21
608.845	20888.94
609.041	20782.45
609.236	20942.19
609.432	21187.94
609.628	21030.25
609.824	20966.76
610.019	21095.78
610.215	21040.49
610.411	21020.01
610.606	20913.52
610.802	21198.18
610.998	21380.45
611.193	21257.57
611.389	20819.31
611.584	20882.8
611.78	20964.71
611.976	21216.61
612.171	21540.19
612.367	21060.97
612.562	21202.28
612.758	20995.43
612.953	21038.44
613.149	21028.2
613.344	21200.23
613.539	21638.5
613.735	21212.52
613.93	21357.92
614.126	21110.12
614.321	21368.16
614.517	21380.45
614.712	21237.09
614.907	21046.63
615.103	21476.71
615.298	21095.78
615.493	21316.97
615.688	20946.28
615.884	21511.52
616.079	21177.7
616.274	21427.56
616.47	21409.12
616.665	21435.75
616.86	21175.66
617.055	21292.39
617.25	21189.99
617.445	21192.04
617.641	20731.25
617.836	21085.54
618.031	20927.85
618.226	21153.13
618.421	20864.36
618.616	21429.6
618.811	20952.43
619.006	21470.56
619.201	20553.07
619.396	20743.53
619.591	20503.92
619.786	20907.37
619.981	20956.52
620.176	20882.8
620.371	20483.44
620.566	20600.18
620.761	20528.5
620.956	20716.91
621.151	20200.82
621.346	20401.52
621.541	19916.15
621.735	20102.52
621.93	19742.08
622.125	20178.29
622.32	19520.9
622.515	19629.44
622.709	19826.04
622.904	19580.29
623.099	19500.42
623.294	19520.9
623.488	19381.63
623.683	19324.29
623.878	19168.65
624.072	19133.83
624.267	19094.92
624.462	18988.42
624.656	18769.29
624.851	18795.92
625.046	18754.96
625.24	18595.21
625.435	18730.38
625.629	18474.38
625.824	18439.57
626.018	18488.72
626.213	17943.96
626.407	18054.55
626.602	17843.61
626.796	18003.35
626.991	17849.75
627.185	17651.1
627.38	17880.47
627.574	17407.39
627.768	17567.13
627.963	17442.21
628.157	17268.13
628.352	17309.09
628.546	17108.39
628.74	17565.09
628.935	17008.04
629.129	17014.18
629.323	16631.21
629.517	16676.27
629.712	16760.23
629.906	16842.15
630.1	16577.97
630.294	16352.69
630.489	16385.46
630.683	16367.02
630.877	15918.52
631.071	16352.69
631.265	16235.95
631.459	16145.84
631.653	16164.28
631.848	16131.51
632.042	15728.06
632.236	15900.09
632.43	15734.2
632.624	15814.07
632.818	15556.03
633.012	15281.6
633.206	15218.11
633.4	15351.23
633.594	15408.58
633.788	15089.09
633.982	15056.32
634.176	14994.89
634.369	14904.78
634.563	14767.56
634.757	14718.41
634.951	14738.89
635.145	14511.57
635.339	14697.93
635.533	14497.23
635.726	14501.33
635.92	14077.4
636.114	14454.22
636.308	14093.78
636.501	14153.17
636.695	13931.99
636.889	13852.12
637.083	13880.79
637.276	13549.02
637.47	13815.26
637.664	13671.9
637.857	13663.71
638.051	13409.76
638.244	13336.03
638.438	13327.84
638.632	13387.23
638.825	13090.27
639.019	13131.23
639.212	13047.27
639.406	12881.38
639.599	12877.29
639.793	12727.78
639.986	12762.6
640.18	12609
640.373	12570.09
640.567	12391.92
640.76	12320.24
640.954	12336.62
641.147	12213.74
641.34	12162.55
641.534	12189.17
641.727	11929.08
641.92	12115.44
642.114	11869.69
642.307	12082.67
642.5	11976.18
642.694	11636.22
642.887	11613.69
643.08	11720.18
643.273	11808.25
643.467	11425.28
643.66	11419.13
643.853	11351.55
644.046	11355.65
644.239	11185.66
644.432	11068.93
644.626	11130.37
644.819	11068.93
645.012	11017.73
645.205	10853.89
645.398	11040.26
645.591	10821.13
645.784	10731.01
645.977	10640.9
646.17	10722.82
646.363	10591.75
646.556	10569.23
646.749	10319.37
646.942	10470.92
647.135	10251.79
647.328	10233.36
647.521	10171.92
647.714	10120.72
647.907	9881.11
648.099	9987.6
648.292	9938.45
648.485	9960.98
648.678	9745.94
648.871	9692.69
649.064	9588.25
649.256	9657.88
649.449	9414.17
649.642	9608.73
649.835	9569.82
650.027	9541.15
650.22	9371.16
650.413	9326.11
650.605	9266.72
650.798	9303.58
650.991	9207.33
651.183	9387.55
651.376	9154.08
651.568	9168.41
651.761	9098.78
651.954	9061.92
652.146	8832.55
652.339	8900.13
652.531	8693.29
652.724	8891.94
652.916	8683.05
653.109	8777.25
653.301	8576.55
653.494	8695.33
653.686	8474.15
653.879	8592.94
654.071	8560.17
654.263	8355.37
654.456	8449.58
654.648	8429.1
654.84	8146.48
655.033	8156.72
655.225	8285.74
655.417	8191.53
655.61	8216.11
655.802	8162.86
655.994	7994.93
656.186	8007.22
656.379	7949.87
656.571	8095.28
656.763	7917.11
656.955	7757.36
657.148	7761.46
657.34	7831.09
657.532	7616.05
657.724	7603.77
657.916	7587.38
658.108	7657.01
658.3	7503.42
658.492	7323.19
658.684	7552.57
658.876	7317.05
659.068	7407.16
659.26	7368.25
659.452	7325.24
659.644	7401.02
659.836	7083.58
660.028	7298.62
660.22	6975.04
660.412	7216.7
660.604	6977.09
660.796	6979.14
660.988	7005.76
661.18	6856.26
661.372	6815.3
661.563	6819.39
661.755	6733.38
661.947	6749.76
662.139	6704.71
662.331	6700.61
662.522	6618.69
662.714	6659.65
662.906	6426.18
663.097	6479.43
663.289	6504.01
663.481	6401.61
663.673	6553.16
663.864	6350.41
664.056	6291.02
664.247	6254.16
664.439	6225.48
664.631	6116.94
664.822	6233.68
665.014	6143.56
665.205	6057.55
665.397	6170.19
665.588	6172.24
665.78	6037.07
665.971	6096.46
666.163	5879.38
666.354	5903.95
666.546	5848.66
666.737	5934.67
666.929	5897.81
667.12	5797.46
667.311	5819.99
667.503	5781.07
667.694	5813.84
667.885	5848.66
668.077	5760.59
668.268	5621.33
668.459	5652.05
668.651	5826.13
668.842	5672.53
669.033	5559.89
669.224	5510.74
669.416	5539.41
669.607	5703.25
669.798	5549.65
669.989	5500.5
670.18	5516.89
670.371	5238.36
670.563	5418.58
670.754	5287.51
670.945	5422.68
671.136	5402.2
671.327	5236.31
671.518	5256.79
671.709	5166.68
671.9	5232.22
672.091	5324.38
672.282	5166.68
672.473	5054.05
672.664	5275.23
672.855	4955.74
673.046	5119.58
673.237	5193.31
673.428	5095
673.619	5058.14
673.809	5086.81
674	5004.89
674.191	4976.22
674.382	5037.66
674.573	5056.09
674.764	4939.36
674.954	5058.14
675.145	4847.2
675.336	4750.95
675.527	4793.95
675.717	4890.21
675.908	4808.29
676.099	4877.92
676.289	4914.78
676.48	4761.19
676.671	4726.37
676.861	4746.85
677.052	4849.25
677.243	4709.99
677.433	4793.95
677.624	4820.58
677.814	4703.84
678.005	4783.71
678.195	4687.46
678.386	4673.12
678.576	4652.64
678.767	4615.78
678.957	4669.03
679.148	4703.84
679.338	4906.59
679.529	4689.51
679.719	4531.81
679.909	4685.41
680.1	4660.84
680.29	4537.96
680.481	4685.41
680.671	4621.92
680.861	4587.11
681.052	4654.69
681.242	4560.49
681.432	4507.24
681.622	4693.6
681.813	4449.89
682.003	4529.77
682.193	4540.01
682.383	4521.57
682.573	4556.39
682.764	4447.85
682.954	4556.39
683.144	4523.62
683.334	4507.24
683.524	4488.81
683.714	4365.93
683.904	4460.13
684.094	4296.3
684.284	4501.09
684.474	4417.13
684.664	4357.74
684.854	4464.23
685.044	4470.37
685.234	4230.76
685.424	4351.59
685.614	4423.27
685.804	4370.02
685.994	4238.95
686.184	4345.45
686.374	4423.27
686.564	4269.67
686.753	4218.47
686.943	4236.91
687.133	4245.1
687.323	4204.14
687.513	4341.35
687.702	4091.5
687.892	4169.32
688.082	4200.04
688.272	4226.67
688.461	4212.33
688.651	4218.47
688.841	4103.79
689.03	4017.77
689.22	4007.53
689.41	3991.15
689.599	3954.29
689.789	4009.58
689.979	4077.16
690.168	4040.3
690.358	4081.26
690.547	4046.44
690.737	3980.91
690.926	3995.25
691.116	3929.71
691.305	3968.62
691.495	3976.81
691.684	3884.66
691.874	3890.8
692.063	3827.31
692.252	3843.7
692.442	3858.03
692.631	3663.47
692.82	3878.51
693.01	3735.15
693.199	3780.21
693.388	3743.35
693.578	3767.92
693.767	3729.01
693.956	3677.81
694.146	3866.22
694.335	3692.15
694.524	3804.78
694.713	3610.23
694.902	3837.55
695.092	3790.45
695.281	3614.32
695.47	3769.97
695.659	3731.06
695.848	3468.92
696.037	3546.74
696.226	3538.55
696.415	3587.7
696.604	3649.14
696.793	3505.78
696.982	3550.84
697.171	3481.21
697.36	3606.13
697.549	3505.78
697.738	3505.78
697.927	3583.6
698.116	3432.05
698.305	3446.39
698.494	3485.3
698.683	3440.25
698.872	3436.15
699.061	3458.68
699.25	3366.52
699.438	3454.58
699.627	3366.52
699.816	3473.01
700.005	3300.98
700.193	3331.7
700.382	3290.74
700.571	3376.76
700.76	3309.18
700.948	3327.61
701.137	3333.75
701.326	3356.28
701.514	3288.7
701.703	3294.84
701.892	3354.23
702.08	3296.89
702.269	3155.58
702.457	3276.41
702.646	3153.53
702.834	3169.91
703.023	3366.52
703.212	3214.97
703.4	3262.07
703.589	3194.49
703.777	3325.56
703.965	2993.79
704.154	3139.19
704.342	3055.23
704.531	3090.04
704.719	3071.61
704.907	3073.66
705.096	3098.24
705.284	3188.35
705.472	3092.09
705.661	3088
705.849	3065.47
706.037	3090.04
706.226	3038.84
706.414	3069.56
706.602	3022.46
706.79	3071.61
706.979	2965.12
707.167	3090.04
707.355	2862.72
707.543	2950.78
707.731	2932.35
707.919	2961.02
708.107	2940.54
708.296	2956.93
708.484	2866.81
708.672	2813.57
708.86	2936.45
709.048	2868.86
709.236	2875.01
709.424	2973.31
709.612	2786.94
709.8	2801.28
709.988	2883.2
710.176	2825.86
710.364	2817.66
710.551	2891.39
710.739	2727.55
710.927	2752.13
711.115	2797.18
711.303	2840.19
711.491	2715.27
711.679	2788.99
711.866	2793.09
712.054	2657.92
712.242	2827.9
712.43	2827.9
712.617	2670.21
712.805	2608.77
712.993	2743.94
713.181	2588.29
713.368	2598.53
713.556	2596.48
713.744	2645.63
713.931	2729.6
714.119	2674.31
714.306	2639.49
714.494	2702.98
714.682	2586.24
714.869	2539.14
715.057	2539.14
715.244	2571.91
715.432	2586.24
715.619	2453.13
715.807	2555.52
715.994	2571.91
716.182	2666.11
716.369	2463.37
716.556	2522.76
716.744	2444.93
716.931	2416.26
717.119	2477.7
717.306	2477.7
717.493	2547.33
717.681	2428.55
717.868	2457.22
718.055	2465.41
718.242	2444.93
718.43	2516.61
718.617	2489.99
718.804	2375.3
718.991	2502.28
719.179	2352.77
719.366	2381.45
719.553	2416.26
719.74	2309.77
719.927	2277
720.114	2238.09
720.301	2324.1
720.488	2334.34
720.676	2297.48
720.863	2330.25
721.05	2287.24
721.237	2317.96
721.424	2352.77
721.611	2260.62
721.798	2272.9
721.985	2088.59
722.172	2195.08
722.358	2145.93
722.545	2248.33
722.732	2162.31
722.919	2317.96
723.106	2211.46
723.293	2174.6
723.48	2246.28
723.667	2207.37
723.853	2182.79
724.04	2225.8
724.227	2137.74
724.414	2117.26
724.6	2184.84
724.787	2147.98
724.974	2197.13
725.161	2135.69
725.347	2006.67
725.534	2121.35
725.72	2088.59
725.907	2061.96
726.094	2043.53
726.28	2023.05
726.467	2150.03
726.653	2010.76
726.84	2098.83
727.027	2160.27
727.213	1969.8
727.4	2094.73
727.586	2049.68
727.773	2082.44
727.959	2031.24
728.145	2084.49
728.332	1957.52
728.518	2018.96
728.705	2119.31
728.891	2104.97
729.077	1916.56
729.264	1926.8
729.45	1957.52
729.636	2133.64
729.823	1891.98
730.009	2021
730.195	1988.24
730.382	2008.72
730.568	1990.28
730.754	2010.76
730.94	1990.28
731.126	1891.98
731.313	1918.61
731.499	1951.37
731.685	1883.79
731.871	1932.94
732.057	1978
732.243	1894.03
732.429	2000.52
732.615	1846.93
732.801	1896.08
732.987	2006.67
733.173	1846.93
733.359	1980.04
733.545	1984.14
733.731	1797.78
733.917	1867.41
734.103	1752.72
734.289	1828.49
734.475	1869.45
734.661	1891.98
734.847	1744.53
735.033	1689.23
735.219	1891.98
735.404	1810.06
735.59	1615.51
735.776	1728.14
735.962	1818.25
736.148	1900.17
736.333	1853.07
736.519	1767.06
736.705	1801.87
736.89	1777.3
737.076	1719.95
737.262	1625.75
737.447	1785.49
737.633	1676.95
737.819	1674.9
738.004	1734.29
738.19	1662.61
738.375	1662.61
738.561	1769.1
738.747	1744.53
738.932	1609.36
739.118	1740.43
739.303	1705.62
739.489	1732.24
739.674	1580.69
739.859	1678.99
740.045	1666.71
740.23	1541.78
740.416	1615.51
740.601	1703.57
740.786	1642.13
740.972	1552.02
741.157	1539.73
741.342	1582.74
741.528	1547.92
741.713	1670.8
741.898	1625.75
742.084	1533.59
742.269	1552.02
742.454	1556.11
742.639	1617.55
742.824	1564.31
743.01	1554.07
743.195	1656.47
743.38	1539.73
743.565	1482.39
743.75	1523.35
743.935	1552.02
744.12	1474.2
744.305	1554.07
744.49	1500.82
744.675	1474.2
744.86	1498.77
745.045	1476.24
745.23	1402.52
745.415	1392.28
745.6	1431.19
745.785	1435.28
745.97	1453.72
746.155	1416.85
746.34	1388.18
746.525	1429.14
746.71	1441.43
746.895	1304.21
747.079	1336.98
747.264	1377.94
747.449	1304.21
747.634	1277.59
747.819	1402.52
748.003	1289.88
748.188	1314.45
748.373	1263.26
748.557	1269.4
748.742	1279.64
748.927	1336.98
749.111	1173.14
749.296	1414.81
749.481	1310.36
749.665	1277.59
749.85	1253.02
750.034	1179.29
750.219	1207.96
750.404	1277.59
750.588	1228.44
750.773	1136.28
750.957	1253.02
751.141	1214.1
751.326	1179.29
751.51	1052.31
751.695	1171.1
751.879	1093.27
752.064	1150.62
752.248	1234.58
752.432	1216.15
752.617	1062.55
752.801	1089.18
752.985	1072.79
753.17	1187.48
753.354	1113.75
753.538	1134.23
753.722	935.58
753.907	1089.18
754.091	1056.41
754.275	1148.57
754.459	870.05
754.643	945.82
754.828	1103.51
755.012	960.16
755.196	1019.55
755.38	1048.22
755.564	1011.36
755.748	908.96
755.932	951.96
756.116	994.97
756.3	1060.51
756.484	849.57
756.668	1023.64
756.852	900.76
757.036	943.77
757.22	941.72
757.404	876.19
757.588	902.81
757.772	874.14
757.956	935.58
758.14	966.3
758.323	859.81
758.507	908.96
758.691	884.38
758.875	915.1
759.059	878.24
759.242	779.93
759.426	906.91
759.61	792.22
759.794	804.51
759.977	859.81
760.161	915.1
760.345	892.57
760.528	863.9
760.712	794.27
760.895	958.11
761.079	777.89
761.263	800.41
761.446	814.75
761.63	859.81
761.813	814.75
761.997	706.21
762.18	761.5
762.364	784.03
762.547	786.08
762.731	777.89
762.914	771.74
763.098	777.89
763.281	784.03
763.464	712.35
763.648	771.74
763.831	732.83
764.015	689.82
764.198	851.61
764.381	736.93
764.564	753.31
764.748	773.79
764.931	712.35
765.114	687.78
765.297	827.04
765.481	745.12
765.664	763.55
765.847	761.5
766.03	765.6
766.213	732.83
766.397	753.31
766.58	714.4
766.763	704.16
766.946	691.87
767.129	726.69
767.312	704.16
767.495	769.69
767.678	677.54
767.861	679.58
768.044	665.25
768.227	671.39
768.41	665.25
768.593	681.63
768.776	786.08
768.959	663.2
769.142	695.97
769.324	691.87
769.507	671.39
769.69	657.06
769.873	683.68
770.056	736.93
770.239	624.29
770.421	657.06
770.604	687.78
770.787	687.78
770.97	605.86
771.152	597.67
771.335	671.39
771.518	599.71
771.7	698.02
771.883	628.39
772.066	650.91
772.248	691.87
772.431	585.38
772.613	614.05
772.796	620.19
772.978	659.1
773.161	642.72
773.343	540.32
773.526	542.37
773.708	548.51
773.891	532.13
774.073	638.62
774.256	532.13
774.438	601.76
774.621	540.32
774.803	585.38
774.985	532.13
775.168	528.03
775.35	612
775.532	448.16
775.715	478.88
775.897	597.67
776.079	581.28
776.261	581.28
776.444	558.75
776.626	503.46
776.808	493.22
776.99	454.31
777.173	499.36
777.355	446.12
777.537	499.36
777.719	421.54
777.901	540.32
778.083	474.79
778.265	493.22
778.447	427.68
778.629	429.73
778.811	528.03
778.993	489.12
779.175	515.75
779.357	519.84
779.539	425.64
779.721	446.12
779.903	540.32
780.085	439.97
780.267	442.02
780.449	452.26
780.631	491.17
780.812	499.36
780.994	507.55
781.176	478.88
781.358	503.46
781.54	380.58
781.721	534.18
781.903	470.69
782.085	399.01
782.267	401.06
782.448	368.29
782.63	384.68
782.812	378.53
782.993	425.64
783.175	464.55
783.357	427.68
783.538	431.78
783.72	392.87
783.901	394.92
784.083	446.12
784.264	376.48
784.446	349.86
784.627	370.34
784.809	294.57
784.99	392.87
785.172	302.76
785.353	347.81
785.535	321.19
785.716	310.95
785.897	343.72
786.079	411.3
786.26	321.19
786.441	362.15
786.623	310.95
786.804	239.27
786.985	257.7
787.167	284.33
787.348	315.05
787.529	376.48
787.71	362.15
787.891	331.43
788.073	313
788.254	321.19
788.435	327.33
788.616	368.29
788.797	241.32
788.978	280.23
789.159	294.57
789.34	333.48
789.522	274.09
789.703	269.99
789.884	265.89
790.065	313
790.246	304.81
790.427	245.41
790.607	331.43
790.788	251.56
790.969	210.6
791.15	267.94
791.331	310.95
791.512	286.37
791.693	181.93
791.874	313
792.054	284.33
792.235	245.41
792.416	269.99
792.597	163.5
792.778	298.66
792.958	241.32
793.139	198.31
793.32	255.65
793.5	179.88
793.681	206.5
793.862	290.47
794.042	253.61
794.223	163.5
794.404	163.5
794.584	237.22
794.765	212.65
794.945	241.32
795.126	278.18
795.306	247.46
795.487	237.22
795.667	237.22
795.848	282.28
796.028	229.03
796.209	261.8
796.389	280.23
796.57	220.84
796.75	134.82
796.93	265.89
797.111	212.65
797.291	175.78
797.471	216.74
797.652	175.78
797.832	122.54
798.012	198.31
798.192	204.46
798.373	188.07
798.553	208.55
798.733	175.78
798.913	212.65
799.093	134.82
799.274	153.26
799.454	233.13
799.634	171.69
799.814	179.88
799.994	231.08
800.174	245.41
800.354	233.13
800.534	159.4
800.714	245.41
800.894	122.54
801.074	183.98
801.254	155.3
801.434	247.46
801.614	97.96
801.794	138.92
801.974	829.09
802.154	179.88
802.334	161.45
802.514	114.34
802.693	167.59
802.873	186.02
803.053	220.84
803.233	224.94
803.413	106.15
803.592	157.35
803.772	212.65
803.952	114.34
804.131	118.44
804.311	208.55
804.491	231.08
804.67	134.82
804.85	226.98
805.03	175.78
805.209	243.37
805.389	138.92
805.568	151.21
805.748	134.82
805.928	200.36
806.107	163.5
806.287	167.59
806.466	163.5
806.646	212.65
806.825	188.07
807.004	100.01
807.184	155.3
807.363	188.07
807.543	95.91
807.722	130.73
807.901	132.78
808.081	151.21
808.26	28.33
808.439	155.3
808.619	153.26
808.798	134.82
808.977	130.73
809.156	112.3
809.336	106.15
809.515	265.89
809.694	130.73
809.873	138.92
810.052	114.34
810.231	122.54
810.411	171.69
810.59	52.91
810.769	149.16
810.948	122.54
811.127	32.43
811.306	134.82
811.485	130.73
811.664	253.61
811.843	32.43
812.022	147.11
812.201	108.2
812.38	106.15
812.559	73.39
812.737	108.2
812.916	61.1
813.095	81.58
813.274	100.01
813.453	132.78
813.632	89.77
813.811	147.11
813.989	65.19
814.168	179.88
814.347	67.24
814.526	40.62
814.704	100.01
814.883	116.39
815.062	63.15
815.24	171.69
815.419	91.82
815.598	147.11
815.776	145.06
815.955	42.67
816.133	-0.34
816.312	81.58
816.49	138.92
816.669	114.34
816.847	120.49
817.026	93.87
817.204	89.77
817.383	145.06
817.561	91.82
817.74	132.78
817.918	93.87
818.097	54.95
818.275	112.3
818.453	151.21
818.632	145.06
818.81	114.34
818.988	155.3
819.167	81.58
819.345	79.53
819.523	138.92
819.701	100.01
819.879	149.16
820.058	73.39
820.236	89.77
820.414	114.34
820.592	24.23
820.77	159.4
820.948	106.15
821.127	114.34
821.305	138.92
821.483	40.62
821.661	149.16
821.839	118.44
822.017	54.95
822.195	77.48
822.373	147.11
822.551	85.67
822.729	87.72
822.907	57
823.085	81.58
823.262	38.57
823.44	61.1
823.618	77.48
823.796	190.12
823.974	52.91
824.152	104.11
824.329	122.54
824.507	59.05
824.685	46.76
824.863	24.23
825.04	34.47
825.218	71.34
825.396	42.67
825.574	108.2
825.751	73.39
825.929	122.54
826.107	59.05
826.284	71.34
826.462	110.25
826.639	138.92
826.817	40.62
826.994	48.81
827.172	18.09
827.349	116.39
827.527	67.24
827.704	136.87
827.882	73.39
828.059	79.53
828.237	48.81
828.414	89.77
828.591	-35.16
828.769	122.54
828.946	57
829.124	114.34
829.301	73.39
829.478	65.19
829.655	89.77
829.833	89.77
830.01	38.57
830.187	110.25
830.364	140.97
830.542	57
830.719	220.84
830.896	75.43
831.073	81.58
831.25	67.24
831.427	42.67
831.604	1.71
831.782	1.71
831.959	36.52
832.136	32.43
832.313	89.77
832.49	-29.01
832.667	91.82
832.844	46.76
833.021	128.68
833.198	69.29
833.374	-4.44
833.551	69.29
833.728	65.19
833.905	69.29
834.082	-33.11
834.259	42.67
834.436	118.44
834.612	24.23
834.789	151.21
834.966	71.34
835.143	106.15
835.319	20.14
835.496	73.39
835.673	16.04
835.85	65.19
836.026	89.77
836.203	65.19
836.38	46.76
836.556	40.62
836.733	81.58
836.909	61.1
837.086	40.62
837.262	13.99
837.439	48.81
837.616	40.62
837.792	54.95
837.968	-16.73
838.145	-6.49
838.321	42.67
838.498	24.23
838.674	54.95
838.851	69.29
839.027	32.43
839.203	32.43
839.38	24.23
839.556	-24.92
839.732	16.04
839.909	108.2
840.085	67.24
840.261	20.14
840.437	11.95
840.614	40.62
840.79	42.67
840.966	89.77
841.142	32.43
841.318	9.9
841.494	81.58
841.671	65.19
841.847	42.67
842.023	57
842.199	-8.53
842.375	93.87
842.551	73.39
842.727	-14.68
842.903	52.91
843.079	16.04
843.255	36.52
843.431	-22.87
843.607	48.81
843.783	-26.96
843.959	40.62
844.134	-18.77
844.31	89.77
844.486	48.81
844.662	89.77
844.838	44.71
845.013	63.15
845.189	-6.49
845.365	61.1
845.541	34.47
845.716	42.67
845.892	57
846.068	13.99
846.244	-37.2
846.419	42.67
846.595	-6.49
846.77	32.43
846.946	11.95
847.122	42.67
847.297	34.47
847.473	34.47
847.648	7.85
847.824	24.23
847.999	42.67
848.175	63.15
848.35	61.1
848.526	16.04
848.701	20.14
848.876	-16.73
849.052	16.04
849.227	81.58
849.403	-55.64
849.578	42.67
849.753	36.52
849.929	85.67
850.104	-6.49
850.279	48.81
850.454	18.09
850.63	59.05
850.805	7.85
850.98	83.63
851.155	-26.96
851.33	57
851.505	7.85
851.681	104.11
851.856	-18.77
852.031	40.62
852.206	73.39
852.381	26.28
852.556	52.91
852.731	20.14
852.906	28.33
853.081	48.81
853.256	24.23
853.431	1.71
853.606	36.52
853.781	1.71
853.956	28.33
854.131	97.96
854.305	-47.44
854.48	26.28
854.655	20.14
854.83	52.91
855.005	30.38
855.18	114.34
855.354	11.95
855.529	24.23
855.704	-45.4
855.879	34.47
856.053	-8.53
856.228	22.19
856.403	-33.11
856.577	59.05
856.752	-65.88
856.926	40.62
857.101	71.34
857.276	40.62
857.45	69.29
857.625	40.62
857.799	16.04
857.974	1.71
858.148	-12.63
858.323	34.47
858.497	11.95
858.672	-78.16
858.846	3.75
859.02	65.19
859.195	-24.92
859.369	26.28
859.543	65.19
859.718	3.75
859.892	11.95
860.066	3.75
860.241	7.85
860.415	16.04
860.589	-29.01
860.763	-33.11
860.938	-37.2
861.112	-0.34
861.286	42.67
861.46	1.71
861.634	3.75
861.808	67.24
861.982	7.85
862.157	24.23
862.331	-0.34
862.505	-33.11
862.679	34.47
862.853	18.09
863.027	57
863.201	65.19
863.375	-0.34
863.549	85.67
863.722	9.9
863.896	-0.34
864.07	-49.49
864.244	24.23
864.418	-31.06
864.592	40.62
864.766	7.85
864.939	67.24
865.113	-14.68
865.287	40.62
865.461	26.28
865.634	18.09
865.808	-10.58
865.982	11.95
866.156	-35.16
866.329	-8.53
866.503	-8.53
866.676	32.43
866.85	61.1
867.024	-8.53
867.197	73.39
867.371	1.71
867.544	16.04
867.718	18.09
867.891	24.23
868.065	-51.54
868.238	-16.73
868.412	22.19
868.585	7.85
868.759	18.09
868.932	16.04
869.105	57
869.279	42.67
869.452	-63.83
869.625	-18.77
869.799	-0.34
869.972	-47.44
870.145	52.91
870.319	5.8
870.492	28.33
870.665	-0.34
870.838	7.85
871.011	-12.63
871.185	-24.92
871.358	-106.84
871.531	59.05
871.704	9.9
871.877	48.81
872.05	16.04
872.223	-24.92
872.396	32.43
872.569	16.04
872.742	-41.3
872.915	50.86
873.088	18.09
873.261	7.85
873.434	50.86
873.607	18.09
873.78	65.19
873.953	-72.02
874.126	-41.3
874.299	3.75
874.471	-53.59
874.644	18.09
874.817	3.75
874.99	46.76
875.163	-16.73
875.335	-8.53
875.508	-61.78
875.681	106.15
875.853	34.47
876.026	30.38
876.199	1.71
876.371	57
876.544	-0.34
876.717	-33.11
876.889	50.86
877.062	40.62
877.234	-59.73
877.407	7.85
877.579	32.43
877.752	16.04
877.924	42.67
878.097	-55.64
878.269	32.43
878.442	-26.96
878.614	-74.07
878.786	-82.26
878.959	-6.49
879.131	26.28
879.303	30.38
879.476	9.9
879.648	52.91
879.82	-0.34
879.993	-20.82
880.165	7.85
880.337	-55.64
880.509	52.91
880.681	-16.73
880.854	-20.82
881.026	71.34
881.198	57
881.37	24.23
881.542	-14.68
881.714	26.28
881.886	-45.4
882.058	-76.12
882.23	91.82
882.402	-14.68
882.574	-33.11
882.746	1.71
882.918	7.85
883.09	-49.49
883.262	26.28
883.434	67.24
883.606	-24.92
883.778	-53.59
883.95	106.15
884.122	-61.78
884.293	-18.77
884.465	9.9
884.637	32.43
884.809	42.67
884.98	28.33
885.152	-33.11
885.324	3.75
885.496	85.67
885.667	-8.53
885.839	40.62
886.011	85.67
886.182	-2.39
886.354	81.58
886.525	9.9
886.697	-14.68
886.869	-0.34
887.04	3.75
887.212	89.77
887.383	-0.34
887.555	40.62
887.726	-0.34
887.897	9.9
888.069	-4.44
888.24	44.71
888.412	46.76
888.583	-55.64
888.754	-12.63
888.926	-67.92
889.097	-31.06
889.268	-33.11
889.44	67.24
889.611	-35.16
889.782	-8.53
889.953	50.86
890.125	13.99
890.296	32.43
890.467	32.43
890.638	1.71
890.809	-57.68
890.98	26.28
891.151	-16.73
891.323	11.95
891.494	34.47
891.665	-14.68
891.836	20.14
892.007	7.85
892.178	9.9
892.349	-20.82
892.52	-47.44
892.691	11.95
892.862	16.04
893.032	-12.63
893.203	-33.11
893.374	-16.73
893.545	-4.44
893.716	-45.4
893.887	-12.63
894.057	48.81
894.228	-8.53
894.399	-16.73
894.57	48.81
894.74	26.28
894.911	-45.4
895.082	-14.68
895.253	-98.64
895.423	-0.34
895.594	-16.73
895.764	18.09
895.935	16.04
896.106	18.09
896.276	-39.25
896.447	9.9
896.617	-33.11
896.788	24.23
896.958	-0.34
897.129	3.75
897.299	9.9
897.47	46.76
897.64	32.43
897.81	26.28
897.981	36.52
898.151	-65.88
898.322	48.81
898.492	67.24
898.662	-2.39
898.832	-8.53
899.003	24.23
899.173	-4.44
899.343	-24.92
899.513	-31.06
