Data from USB4F104151__81__14-30-33-972.txt Node

Date: Thu Mar 13 14:30:33 EDT 2025
User: louis
Spectrometer: USB4F10415
Trigger mode: 4
Integration Time (sec): 2.500000E-2
Scans to average: 1
Electric dark correction enabled: true
Nonlinearity correction enabled: false
Boxcar width: 0
XAxis mode: Wavelengths
Number of Pixels in Spectrum: 3648
>>>>>Begin Spectral Data<<<<<
178.204	-172.03
178.424	-172.03
178.644	-172.03
178.864	-180.22
179.084	-77.82
179.304	81.92
179.524	28.67
179.744	-38.91
179.964	61.44
180.184	12.29
180.404	4.1
180.624	-18.43
180.844	-77.82
181.064	-49.15
181.283	-40.96
181.503	-38.91
181.723	75.77
181.943	-55.3
182.163	63.49
182.383	-16.38
182.602	28.67
182.822	28.67
183.042	2.05
183.262	45.06
183.482	40.96
183.701	20.48
183.921	4.1
184.141	-0
184.361	51.2
184.58	57.34
184.8	28.67
185.02	-83.97
185.239	36.86
185.459	14.34
185.679	36.86
185.898	-24.58
186.118	-12.29
186.338	14.34
186.557	36.86
186.777	55.3
186.997	6.14
187.216	20.48
187.436	96.25
187.655	47.1
187.875	12.29
188.095	-26.62
188.314	12.29
188.534	14.34
188.753	-53.25
188.973	12.29
189.192	45.06
189.412	12.29
189.631	-6.14
189.851	61.44
190.07	81.92
190.29	69.63
190.509	38.91
190.729	-24.58
190.948	77.82
191.168	133.12
191.387	-16.38
191.607	61.44
191.826	10.24
192.045	-61.44
192.265	14.34
192.484	38.91
192.704	38.91
192.923	-22.53
193.142	151.55
193.362	122.88
193.581	45.06
193.8	79.87
194.02	88.06
194.239	16.38
194.458	55.3
194.678	49.15
194.897	14.34
195.116	-18.43
195.335	65.53
195.555	14.34
195.774	-6.14
195.993	51.2
196.212	61.44
196.432	-2.05
196.651	-2.05
196.87	12.29
197.089	98.3
197.308	36.86
197.528	71.68
197.747	24.58
197.966	20.48
198.185	-28.67
198.404	-16.38
198.623	-24.58
198.842	51.2
199.062	53.25
199.281	86.01
199.5	40.96
199.719	110.59
199.938	12.29
200.157	79.87
200.376	16.38
200.595	47.1
200.814	-10.24
201.033	-4.1
201.252	14.34
201.471	126.97
201.69	20.48
201.909	55.3
202.128	30.72
202.347	28.67
202.566	51.2
202.785	12.29
203.004	-22.53
203.223	61.44
203.442	96.25
203.661	36.86
203.879	65.53
204.098	12.29
204.317	20.48
204.536	57.34
204.755	22.53
204.974	12.29
205.193	22.53
205.411	102.4
205.63	36.86
205.849	-10.24
206.068	-6.14
206.287	28.67
206.505	65.53
206.724	-4.1
206.943	16.38
207.162	38.91
207.381	-8.19
207.599	-8.19
207.818	22.53
208.037	-59.39
208.255	-28.67
208.474	32.77
208.693	47.1
208.911	86.01
209.13	-2.05
209.349	-4.1
209.567	20.48
209.786	71.68
210.005	88.06
210.223	55.3
210.442	16.38
210.661	57.34
210.879	26.62
211.098	53.25
211.316	8.19
211.535	77.82
211.753	28.67
211.972	77.82
212.191	2.05
212.409	2.05
212.628	20.48
212.846	-77.82
213.065	-12.29
213.283	69.63
213.502	-20.48
213.72	-8.19
213.938	36.86
214.157	32.77
214.375	24.58
214.594	30.72
214.812	22.53
215.031	71.68
215.249	38.91
215.467	69.63
215.686	65.53
215.904	55.3
216.122	4.1
216.341	129.02
216.559	16.38
216.778	45.06
216.996	49.15
217.214	-20.48
217.432	110.59
217.651	30.72
217.869	14.34
218.087	36.86
218.306	45.06
218.524	69.63
218.742	-4.1
218.96	38.91
219.179	-40.96
219.397	-20.48
219.615	135.17
219.833	49.15
220.051	22.53
220.27	59.39
220.488	126.97
220.706	-20.48
220.924	8.19
221.142	36.86
221.36	10.24
221.578	77.82
221.796	53.25
222.015	92.16
222.233	63.49
222.451	55.3
222.669	-10.24
222.887	12.29
223.105	-28.67
223.323	-18.43
223.541	-16.38
223.759	12.29
223.977	88.06
224.195	36.86
224.413	143.36
224.631	-26.62
224.849	-4.1
225.067	53.25
225.285	-2.05
225.503	-12.29
225.721	-53.25
225.939	73.73
226.157	61.44
226.375	102.4
226.592	-32.77
226.81	63.49
227.028	36.86
227.246	73.73
227.464	16.38
227.682	77.82
227.9	26.62
228.117	4.1
228.335	-16.38
228.553	73.73
228.771	88.06
228.989	22.53
229.206	63.49
229.424	90.11
229.642	-12.29
229.86	-6.14
230.077	40.96
230.295	71.68
230.513	45.06
230.731	-12.29
230.948	8.19
231.166	83.97
231.384	30.72
231.601	26.62
231.819	8.19
232.037	4.1
232.254	-12.29
232.472	51.2
232.689	-4.1
232.907	94.21
233.125	47.1
233.342	-16.38
233.56	26.62
233.777	-4.1
233.995	-12.29
234.213	4.1
234.43	63.49
234.648	-2.05
234.865	36.86
235.083	8.19
235.3	4.1
235.518	53.25
235.735	16.38
235.953	10.24
236.17	-28.67
236.388	55.3
236.605	-8.19
236.822	-4.1
237.04	81.92
237.257	28.67
237.475	-4.1
237.692	8.19
237.909	6.14
238.127	12.29
238.344	45.06
238.562	32.77
238.779	36.86
238.996	16.38
239.214	-0
239.431	126.97
239.648	-86.01
239.865	59.39
240.083	61.44
240.3	24.58
240.517	-49.15
240.735	45.06
240.952	55.3
241.169	-20.48
241.386	73.73
241.603	53.25
241.821	30.72
242.038	73.73
242.255	65.53
242.472	-24.58
242.689	-26.62
242.907	24.58
243.124	-32.77
243.341	8.19
243.558	36.86
243.775	-67.58
243.992	38.91
244.209	92.16
244.426	102.4
244.643	53.25
244.86	-0
245.078	22.53
245.295	20.48
245.512	40.96
245.729	20.48
245.946	51.2
246.163	-24.58
246.38	45.06
246.597	32.77
246.814	8.19
247.031	67.58
247.248	4.1
247.464	53.25
247.681	-32.77
247.898	16.38
248.115	63.49
248.332	-51.2
248.549	38.91
248.766	143.36
248.983	131.07
249.2	-10.24
249.417	4.1
249.633	-34.82
249.85	61.44
250.067	28.67
250.284	61.44
250.501	16.38
250.717	28.67
250.934	-51.2
251.151	-14.34
251.368	45.06
251.585	75.77
251.801	12.29
252.018	-20.48
252.235	4.1
252.451	20.48
252.668	-18.43
252.885	104.45
253.102	77.82
253.318	-0
253.535	-49.15
253.752	-16.38
253.968	26.62
254.185	-67.58
254.401	-8.19
254.618	28.67
254.835	-53.25
255.051	118.78
255.268	73.73
255.484	14.34
255.701	-16.38
255.917	-0
256.134	20.48
256.351	45.06
256.567	-36.86
256.784	8.19
257	-22.53
257.217	16.38
257.433	-26.62
257.65	155.65
257.866	120.83
258.082	-22.53
258.299	-26.62
258.515	30.72
258.732	14.34
258.948	14.34
259.165	28.67
259.381	20.48
259.597	16.38
259.814	16.38
260.03	32.77
260.246	12.29
260.463	135.17
260.679	20.48
260.895	-0
261.112	61.44
261.328	-34.82
261.544	-0
261.761	69.63
261.977	77.82
262.193	-0
262.409	28.67
262.626	12.29
262.842	22.53
263.058	69.63
263.274	-55.3
263.49	116.73
263.707	26.62
263.923	86.01
264.139	-28.67
264.355	57.34
264.571	135.17
264.787	55.3
265.004	22.53
265.22	-26.62
265.436	-53.25
265.652	22.53
265.868	61.44
266.084	36.86
266.3	-28.67
266.516	-26.62
266.732	12.29
266.948	22.53
267.164	65.53
267.38	36.86
267.596	63.49
267.812	61.44
268.028	30.72
268.244	-4.1
268.46	45.06
268.676	14.34
268.892	92.16
269.108	-36.86
269.324	38.91
269.54	28.67
269.756	71.68
269.972	-4.1
270.188	12.29
270.403	-30.72
270.619	-53.25
270.835	-12.29
271.051	43.01
271.267	73.73
271.483	16.38
271.698	12.29
271.914	14.34
272.13	86.01
272.346	94.21
272.562	4.1
272.777	45.06
272.993	-18.43
273.209	20.48
273.425	8.19
273.64	61.44
273.856	30.72
274.072	20.48
274.287	69.63
274.503	22.53
274.719	32.77
274.934	20.48
275.15	-67.58
275.366	81.92
275.581	-24.58
275.797	-0
276.012	-4.1
276.228	-6.14
276.444	40.96
276.659	94.21
276.875	-12.29
277.09	53.25
277.306	32.77
277.521	98.3
277.737	-2.05
277.952	53.25
278.168	-4.1
278.383	12.29
278.599	-43.01
278.814	63.49
279.03	-0
279.245	51.2
279.461	63.49
279.676	81.92
279.892	47.1
280.107	30.72
280.322	30.72
280.538	77.82
280.753	49.15
280.969	14.34
281.184	67.58
281.399	22.53
281.615	22.53
281.83	59.39
282.045	18.43
282.26	-47.1
282.476	63.49
282.691	71.68
282.906	38.91
283.122	73.73
283.337	45.06
283.552	6.14
283.767	-0
283.983	61.44
284.198	-12.29
284.413	65.53
284.628	-36.86
284.843	6.14
285.058	104.45
285.274	36.86
285.489	-88.06
285.704	14.34
285.919	-59.39
286.134	-8.19
286.349	122.88
286.564	6.14
286.779	38.91
286.995	18.43
287.21	-55.3
287.425	24.58
287.64	63.49
287.855	-4.1
288.07	-45.06
288.285	77.82
288.5	67.58
288.715	51.2
288.93	-4.1
289.145	40.96
289.36	57.34
289.575	-24.58
289.79	63.49
290.004	6.14
290.219	4.1
290.434	12.29
290.649	-8.19
290.864	79.87
291.079	-10.24
291.294	24.58
291.509	61.44
291.724	-14.34
291.938	14.34
292.153	51.2
292.368	38.91
292.583	45.06
292.798	53.25
293.012	79.87
293.227	20.48
293.442	16.38
293.657	45.06
293.871	143.36
294.086	24.58
294.301	86.01
294.516	32.77
294.73	28.67
294.945	-20.48
295.16	75.77
295.374	63.49
295.589	110.59
295.804	16.38
296.018	-94.21
296.233	40.96
296.447	40.96
296.662	-2.05
296.877	20.48
297.091	71.68
297.306	73.73
297.52	-4.1
297.735	49.15
297.949	36.86
298.164	61.44
298.378	47.1
298.593	30.72
298.807	-28.67
299.022	-45.06
299.236	-69.63
299.451	55.3
299.665	36.86
299.88	20.48
300.094	53.25
300.309	20.48
300.523	57.34
300.737	24.58
300.952	-0
301.166	55.3
301.381	16.38
301.595	4.1
301.809	57.34
302.024	77.82
302.238	47.1
302.452	4.1
302.667	-22.53
302.881	79.87
303.095	26.62
303.309	45.06
303.524	30.72
303.738	-36.86
303.952	6.14
304.166	104.45
304.381	-6.14
304.595	135.17
304.809	45.06
305.023	-4.1
305.237	26.62
305.452	-20.48
305.666	61.44
305.88	79.87
306.094	34.82
306.308	77.82
306.522	14.34
306.736	24.58
306.95	100.35
307.164	24.58
307.379	-10.24
307.593	92.16
307.807	-12.29
308.021	55.3
308.235	65.53
308.449	8.19
308.663	-10.24
308.877	157.69
309.091	-4.1
309.305	-26.62
309.519	-4.1
309.733	30.72
309.947	-51.2
310.161	40.96
310.374	38.91
310.588	135.17
310.802	-10.24
311.016	-40.96
311.23	61.44
311.444	20.48
311.658	6.14
311.872	53.25
312.085	81.92
312.299	47.1
312.513	133.12
312.727	61.44
312.941	4.1
313.154	96.25
313.368	49.15
313.582	22.53
313.796	96.25
314.009	106.49
314.223	86.01
314.437	38.91
314.651	61.44
314.864	86.01
315.078	-0
315.292	-83.97
315.505	45.06
315.719	36.86
315.933	120.83
316.146	118.78
316.36	12.29
316.573	71.68
316.787	28.67
317.001	112.64
317.214	-49.15
317.428	49.15
317.641	-12.29
317.855	-8.19
318.068	69.63
318.282	71.68
318.495	16.38
318.709	96.25
318.922	40.96
319.136	24.58
319.349	16.38
319.563	45.06
319.776	43.01
319.99	4.1
320.203	32.77
320.417	-8.19
320.63	63.49
320.843	28.67
321.057	6.14
321.27	61.44
321.483	16.38
321.697	73.73
321.91	36.86
322.124	45.06
322.337	114.69
322.55	-55.3
322.763	53.25
322.977	45.06
323.19	-36.86
323.403	61.44
323.617	110.59
323.83	98.3
324.043	-12.29
324.256	36.86
324.469	-6.14
324.683	86.01
324.896	-47.1
325.109	57.34
325.322	-0
325.535	51.2
325.748	32.77
325.962	81.92
326.175	45.06
326.388	133.12
326.601	12.29
326.814	28.67
327.027	28.67
327.24	102.4
327.453	36.86
327.666	79.87
327.879	86.01
328.092	77.82
328.305	-10.24
328.518	-0
328.731	22.53
328.944	63.49
329.157	40.96
329.37	47.1
329.583	151.55
329.796	77.82
330.009	86.01
330.222	18.43
330.435	155.65
330.648	34.82
330.861	22.53
331.073	131.07
331.286	71.68
331.499	53.25
331.712	20.48
331.925	12.29
332.138	38.91
332.35	79.87
332.563	12.29
332.776	137.21
332.989	-43.01
333.202	20.48
333.414	16.38
333.627	6.14
333.84	-30.72
334.053	79.87
334.265	38.91
334.478	71.68
334.691	12.29
334.903	12.29
335.116	45.06
335.329	-32.77
335.541	86.01
335.754	88.06
335.966	16.38
336.179	-8.19
336.392	131.07
336.604	159.74
336.817	69.63
337.029	28.67
337.242	14.34
337.454	145.41
337.667	-49.15
337.88	120.83
338.092	2.05
338.305	118.78
338.517	53.25
338.729	61.44
338.942	114.69
339.154	-4.1
339.367	47.1
339.579	-10.24
339.792	51.2
340.004	40.96
340.217	12.29
340.429	36.86
340.641	-6.14
340.854	43.01
341.066	8.19
341.278	102.4
341.491	77.82
341.703	65.53
341.915	36.86
342.128	106.49
342.34	47.1
342.552	4.1
342.764	55.3
342.977	45.06
343.189	77.82
343.401	69.63
343.613	-4.1
343.826	53.25
344.038	53.25
344.25	14.34
344.462	28.67
344.674	14.34
344.886	57.34
345.099	47.1
345.311	75.77
345.523	-40.96
345.735	45.06
345.947	36.86
346.159	-43.01
346.371	-10.24
346.583	28.67
346.795	104.45
347.007	69.63
347.219	24.58
347.431	10.24
347.643	30.72
347.855	94.21
348.067	-49.15
348.279	63.49
348.491	71.68
348.703	137.21
348.915	-8.19
349.127	4.1
349.339	88.06
349.551	20.48
349.763	110.59
349.975	24.58
350.187	53.25
350.399	63.49
350.61	38.91
350.822	10.24
351.034	71.68
351.246	-4.1
351.458	47.1
351.669	71.68
351.881	98.3
352.093	20.48
352.305	81.92
352.517	90.11
352.728	22.53
352.94	6.14
353.152	28.67
353.363	4.1
353.575	108.54
353.787	98.3
353.999	73.73
354.21	65.53
354.422	63.49
354.633	53.25
354.845	49.15
355.057	38.91
355.268	34.82
355.48	24.58
355.692	69.63
355.903	34.82
356.115	-12.29
356.326	4.1
356.538	75.77
356.749	81.92
356.961	102.4
357.172	12.29
357.384	-24.58
357.595	131.07
357.807	55.3
358.018	55.3
358.23	40.96
358.441	163.84
358.653	28.67
358.864	36.86
359.075	-34.82
359.287	-6.14
359.498	45.06
359.709	75.77
359.921	-18.43
360.132	114.69
360.344	94.21
360.555	20.48
360.766	104.45
360.977	69.63
361.189	88.06
361.4	-28.67
361.611	77.82
361.823	129.02
362.034	28.67
362.245	-10.24
362.456	28.67
362.667	-2.05
362.879	45.06
363.09	6.14
363.301	131.07
363.512	12.29
363.723	-4.1
363.935	86.01
364.146	16.38
364.357	2.05
364.568	106.49
364.779	4.1
364.99	77.82
365.201	-8.19
365.412	6.14
365.623	28.67
365.834	61.44
366.045	4.1
366.256	32.77
366.467	53.25
366.678	71.68
366.889	26.62
367.1	57.34
367.311	-4.1
367.522	141.31
367.733	65.53
367.944	28.67
368.155	20.48
368.366	36.86
368.577	143.36
368.788	43.01
368.999	8.19
369.209	67.58
369.42	40.96
369.631	153.6
369.842	81.92
370.053	10.24
370.264	94.21
370.474	53.25
370.685	28.67
370.896	118.78
371.107	65.53
371.317	90.11
371.528	102.4
371.739	131.07
371.95	30.72
372.16	55.3
372.371	28.67
372.582	96.25
372.792	118.78
373.003	53.25
373.214	55.3
373.424	88.06
373.635	36.86
373.846	38.91
374.056	-6.14
374.267	114.69
374.477	57.34
374.688	28.67
374.898	49.15
375.109	-12.29
375.319	43.01
375.53	45.06
375.74	51.2
375.951	137.21
376.161	47.1
376.372	26.62
376.582	20.48
376.793	102.4
377.003	40.96
377.214	-28.67
377.424	120.83
377.635	47.1
377.845	32.77
378.055	118.78
378.266	24.58
378.476	14.34
378.686	28.67
378.897	98.3
379.107	86.01
379.317	57.34
379.528	22.53
379.738	47.1
379.948	12.29
380.158	38.91
380.369	16.38
380.579	100.35
380.789	40.96
380.999	94.21
381.21	137.21
381.42	53.25
381.63	-49.15
381.84	61.44
382.05	32.77
382.261	65.53
382.471	69.63
382.681	-18.43
382.891	20.48
383.101	120.83
383.311	86.01
383.521	32.77
383.731	94.21
383.941	94.21
384.151	47.1
384.361	26.62
384.571	126.97
384.781	96.25
384.991	81.92
385.201	88.06
385.411	108.54
385.621	90.11
385.831	18.43
386.041	12.29
386.251	61.44
386.461	67.58
386.671	110.59
386.881	100.35
387.091	61.44
387.301	69.63
387.511	86.01
387.72	20.48
387.93	143.36
388.14	22.53
388.35	69.63
388.56	124.93
388.769	90.11
388.979	94.21
389.189	30.72
389.399	92.16
389.609	53.25
389.818	94.21
390.028	65.53
390.238	102.4
390.447	94.21
390.657	53.25
390.867	65.53
391.076	114.69
391.286	69.63
391.496	116.73
391.705	-10.24
391.915	126.97
392.125	77.82
392.334	61.44
392.544	120.83
392.753	141.31
392.963	38.91
393.172	77.82
393.382	-0
393.591	176.13
393.801	71.68
394.01	126.97
394.22	118.78
394.429	124.93
394.639	81.92
394.848	104.45
395.058	112.64
395.267	83.97
395.477	135.17
395.686	63.49
395.895	147.45
396.105	190.46
396.314	102.4
396.524	45.06
396.733	36.86
396.942	131.07
397.152	106.49
397.361	178.17
397.57	104.45
397.78	98.3
397.989	159.74
398.198	163.84
398.407	116.73
398.617	81.92
398.826	122.88
399.035	51.2
399.244	102.4
399.453	114.69
399.663	184.32
399.872	81.92
400.081	126.97
400.29	110.59
400.499	69.63
400.708	194.56
400.917	94.21
401.127	98.3
401.336	151.55
401.545	157.69
401.754	126.97
401.963	141.31
402.172	143.36
402.381	126.97
402.59	159.74
402.799	174.08
403.008	139.26
403.217	110.59
403.426	176.13
403.635	20.48
403.844	233.47
404.053	161.79
404.262	163.84
404.471	200.7
404.68	159.74
404.888	178.17
405.097	141.31
405.306	188.41
405.515	192.51
405.724	151.55
405.933	151.55
406.142	227.32
406.35	251.9
406.559	184.32
406.768	192.51
406.977	253.95
407.185	286.72
407.394	202.75
407.603	217.08
407.812	204.8
408.02	282.62
408.229	276.48
408.438	245.76
408.646	253.95
408.855	315.39
409.064	260.09
409.272	206.84
409.481	323.58
409.69	311.29
409.898	317.44
410.107	346.11
410.315	407.55
410.524	395.26
410.733	405.5
410.941	313.34
411.15	489.46
411.358	466.94
411.567	471.03
411.775	380.92
411.984	522.23
412.192	569.34
412.401	511.99
412.609	626.68
412.818	550.9
413.026	645.11
413.234	552.95
413.443	647.16
413.651	622.58
413.86	632.82
414.068	718.84
414.276	686.07
414.485	677.88
414.693	765.94
414.901	839.67
415.11	864.24
415.318	880.63
415.526	913.39
415.734	1005.55
415.943	892.91
416.151	1099.76
416.359	1032.18
416.567	1050.61
416.776	1091.57
416.984	1204.21
417.192	1095.66
417.4	1171.44
417.608	1306.6
417.817	1339.37
418.025	1294.32
418.233	1368.04
418.441	1398.76
418.649	1429.48
418.857	1556.46
419.065	1634.28
419.273	1564.65
419.481	1595.37
419.689	1744.87
419.897	1882.08
420.105	1816.55
420.313	1896.42
420.521	1996.77
420.729	1996.77
420.937	2060.26
421.145	2103.26
421.353	2353.12
421.561	2287.58
421.769	2289.63
421.977	2338.78
422.185	2607.06
422.393	2627.54
422.601	2791.38
422.809	2834.39
423.017	2682.84
423.224	2822.1
423.432	2873.3
423.64	3086.29
423.848	3321.81
424.056	3239.89
424.263	3497.93
424.471	3446.73
424.679	3665.86
424.887	3678.15
425.094	3776.45
425.302	3784.65
425.51	4040.64
425.718	4214.72
425.925	4208.58
426.133	4200.38
426.341	4573.11
426.548	4765.62
426.756	4730.81
426.964	4861.88
427.171	5175.22
427.379	5072.82
427.586	5316.53
427.794	5412.78
428.001	5660.59
428.209	6018.98
428.417	5861.29
428.624	6305.7
428.832	6287.26
429.039	6156.19
429.247	6256.54
429.454	6817.69
429.662	7214.99
429.869	6829.98
430.076	7204.75
430.284	7128.98
430.491	7583.63
430.699	7860.1
430.906	7735.18
431.114	7991.17
431.321	8368
431.528	8339.33
431.736	8814.46
431.943	9303.92
432.15	9170.8
432.358	9115.51
432.565	9527.15
432.772	9455.47
432.979	10024.81
433.187	10112.87
433.394	10401.63
433.601	11116.37
433.808	10909.53
434.016	11063.13
434.223	11370.32
434.43	12119.88
434.637	11693.9
434.844	12795.71
435.052	12808
435.259	12805.95
435.466	12777.28
435.673	12799.8
435.88	13334.32
436.087	14399.27
436.294	14358.31
436.501	13889.32
436.708	14173.99
436.915	14642.98
437.122	15200.02
437.329	15302.42
437.537	15785.74
437.743	16027.4
437.95	16045.84
438.157	16811.78
438.364	17442.55
438.571	16994.04
438.778	17450.74
438.985	18898.66
439.192	18093.8
439.399	18552.55
439.606	18257.64
439.813	19422.94
440.02	20348.62
440.227	19984.08
440.433	19820.24
440.64	20332.23
440.847	20512.45
441.054	20903.62
441.261	22380.2
441.467	22070.96
441.674	22535.85
441.881	23074.46
442.088	23131.81
442.294	23066.27
442.501	23383.71
442.708	24131.22
442.914	24891.01
443.121	25814.65
443.328	25325.18
443.534	27063.91
443.741	26449.52
443.948	25953.91
444.154	27952.73
444.361	27868.76
444.568	28016.21
444.774	27719.26
444.981	28302.93
445.187	29013.57
445.394	30289.46
445.6	29791.8
445.807	32812.56
446.013	31338.02
446.22	31696.41
446.426	33062.41
446.633	33500.67
446.839	34643.44
447.046	33101.32
447.252	34932.2
447.459	35126.76
447.665	34475.51
447.871	36416.98
448.078	37602.75
448.284	35937.76
448.491	36808.14
448.697	38276.54
448.903	38880.69
449.11	39447.97
449.316	38360.5
449.522	39245.23
449.728	40275.35
449.935	40789.39
450.141	40375.7
450.347	41291.15
450.553	40084.89
450.76	40476.05
450.966	42196.35
451.172	41420.17
451.378	42466.68
451.584	41514.37
451.791	42229.12
451.997	42677.62
452.203	43187.56
452.409	43072.88
452.615	42567.03
452.821	41184.65
453.027	41106.83
453.233	42935.66
453.44	41764.23
453.646	41532.81
453.852	41977.22
454.058	42556.79
454.264	41115.02
454.47	42444.15
454.676	41205.13
454.882	42386.81
455.088	38534.58
455.294	39318.95
455.5	39765.41
455.705	40410.52
455.911	38948.27
456.117	37875.13
456.323	37516.74
456.529	35429.86
456.735	37072.33
456.941	36265.43
457.147	35329.51
457.352	34307.57
457.558	34053.62
457.764	34156.02
457.97	33273.35
458.176	32677.39
458.381	32634.38
458.587	30834.22
458.793	31258.15
458.999	29484.61
459.204	31589.92
459.41	30858.79
459.616	28837.45
459.821	28477.01
460.027	28622.41
460.233	27833.94
460.438	26820.2
460.644	27117.15
460.85	25831.03
461.055	25278.08
461.261	24950.4
461.466	23056.03
461.672	22722.21
461.878	24108.69
462.083	22113.97
462.289	22249.13
462.494	21993.14
462.7	21051.07
462.905	20516.55
463.111	21354.17
463.316	21049.02
463.522	20678.34
463.727	20674.24
463.932	20756.16
464.138	20731.59
464.343	20588.23
464.549	19705.56
464.754	20389.58
464.959	20512.45
465.165	20213.45
465.37	19359.45
465.575	18781.92
465.781	19484.37
465.986	19789.52
466.191	18988.77
466.397	18564.84
466.602	17800.94
466.807	18132.72
467.012	18513.64
467.218	18226.92
467.423	18132.72
467.628	18196.2
467.833	19027.68
468.038	18073.32
468.244	17686.26
468.449	18355.94
468.654	17608.44
468.859	17735.41
469.064	17520.37
469.269	16901.89
469.474	16881.41
469.679	17176.31
469.885	16602.88
470.09	16916.22
470.295	16783.1
470.5	16252.68
470.705	16494.34
470.91	16125.71
471.115	15900.43
471.32	15976.2
471.525	16183.05
471.73	15941.39
471.935	15628.05
472.139	15259.42
472.344	15064.86
472.549	15269.66
472.754	15171.35
472.959	14696.22
473.164	14675.74
473.369	14360.36
473.574	14616.35
473.778	14382.88
473.983	14405.41
474.188	14462.76
474.393	13659.95
474.598	13748.01
474.802	13580.08
475.007	13547.31
475.212	13639.47
475.417	13049.66
475.621	12926.78
475.826	13188.92
476.031	12980.03
476.235	12531.52
476.44	12861.24
476.645	12619.58
476.849	12386.11
477.054	12406.59
477.259	12308.29
477.463	12019.53
477.668	11956.04
477.872	12126.02
478.077	11689.81
478.282	11493.2
478.486	11511.63
478.691	11503.44
478.895	11431.76
479.1	11515.73
479.304	11382.61
479.509	10923.87
479.713	11384.66
479.918	10973.02
480.122	10770.27
480.326	10909.53
480.531	10973.02
480.735	10768.22
480.94	10653.53
481.144	11011.93
481.348	10547.04
481.553	10809.18
481.757	10510.18
481.961	10719.07
482.166	10794.84
482.37	10631.01
482.574	10321.76
482.778	10784.6
482.983	10553.18
483.187	10620.77
483.391	10653.53
483.595	10504.03
483.8	10604.38
484.004	10493.79
484.208	10588
484.412	10475.36
484.616	10338.15
484.821	10514.27
485.025	10260.32
485.229	10544.99
485.433	10499.94
485.637	10622.81
485.841	10276.71
486.045	10243.94
486.249	10647.39
486.453	10325.86
486.657	10243.94
486.861	10358.63
487.065	10245.99
487.269	10544.99
487.473	10289
487.677	10577.76
487.881	10522.46
488.085	10497.89
488.289	10395.49
488.493	10327.91
488.697	10395.49
488.901	10725.21
489.105	10426.21
489.309	10487.65
489.512	10764.12
489.716	10639.2
489.92	10524.51
490.124	10358.63
490.328	10737.5
490.531	10489.7
490.735	10612.57
490.939	10717.02
491.143	10606.43
491.346	10397.54
491.55	10770.27
491.754	10760.03
491.958	10893.15
492.161	10780.51
492.365	10927.96
492.569	10792.8
492.772	11099.99
492.976	11112.28
493.18	11056.98
493.383	11136.85
493.587	11177.81
493.79	11378.51
493.994	10860.38
494.197	11204.44
494.401	11202.39
494.605	11341.65
494.808	11278.16
495.012	11485.01
495.215	11530.06
495.419	11706.19
495.622	11681.61
495.825	11906.89
496.029	11771.72
496.232	12054.34
496.436	11917.13
496.639	12099.4
496.843	12382.02
497.046	12656.45
497.249	12758.85
497.453	12515.14
497.656	12873.53
497.859	12799.8
498.063	12988.22
498.266	13219.64
498.469	13119.29
498.673	13217.59
498.876	13561.65
499.079	13492.02
499.282	13315.89
499.485	13750.06
499.689	13866.8
499.892	14077.74
500.095	14018.35
500.298	14456.61
500.501	14104.36
500.705	14735.14
500.908	14720.8
501.111	14831.39
501.314	15021.85
501.517	15296.28
501.72	15486.74
501.923	15240.98
502.126	15554.32
502.329	15857.42
502.532	15902.48
502.735	16039.69
502.938	16310.02
503.141	16654.08
503.344	16680.71
503.547	16492.29
503.75	16795.39
503.953	17127.16
504.156	17266.42
504.359	17506.04
504.562	17487.61
504.765	18001.65
504.968	18018.03
505.17	18044.65
505.373	18130.67
505.576	18747.11
505.779	18618.08
505.982	18831.07
506.185	19152.6
506.387	19107.55
506.59	19302.11
506.793	19758.8
506.996	19631.83
507.198	20147.92
507.401	20227.79
507.604	20348.62
507.807	20762.31
508.009	20944.58
508.212	20924.1
508.415	21446.33
508.617	21309.11
508.82	21528.25
509.022	21429.94
509.225	21845.68
509.428	22322.86
509.63	22515.37
509.833	22310.57
510.035	22859.43
510.238	23168.67
510.44	23477.91
510.643	23361.18
510.845	23658.13
511.048	23641.75
511.25	24186.51
511.453	24221.33
511.655	25083.52
511.858	24489.61
512.06	24876.68
512.262	25206.4
512.465	24991.36
512.667	25714.3
512.87	25962.1
513.072	25800.31
513.274	26482.28
513.477	26455.66
513.679	26476.14
513.881	26883.69
514.084	27319.9
514.286	27420.25
514.488	27483.74
514.69	28083.8
514.893	28120.66
515.095	28345.94
515.297	28624.46
515.499	28763.72
515.701	28882.5
515.904	29414.98
516.106	29687.35
516.308	29627.96
516.51	30150.2
516.712	30107.19
516.914	30467.63
517.116	30803.5
517.318	30983.72
517.52	31262.24
517.722	31243.81
517.925	31577.63
518.127	31788.57
518.329	32226.84
518.531	31993.37
518.733	32648.72
518.935	32810.51
519.136	33062.41
519.338	33304.07
519.54	33558.02
519.742	33494.53
519.944	33621.5
520.146	34686.45
520.348	34264.57
520.55	34577.9
520.752	34061.82
520.954	35050.99
521.155	34731.5
521.357	35028.46
521.559	35497.44
521.761	35993.05
521.963	35831.26
522.164	35962.33
522.366	36158.94
522.568	36709.84
522.77	36201.94
522.971	37297.61
523.173	37129.67
523.375	37230.02
523.576	37160.39
523.778	37090.76
523.98	37789.12
524.181	37723.58
524.383	37203.4
524.584	38124.99
524.786	38544.82
524.988	37989.82
525.189	38452.66
525.391	38411.7
525.592	38368.69
525.794	38739.38
525.995	38790.58
526.197	38663.6
526.398	39011.76
526.6	39187.88
526.801	38704.56
527.003	39169.45
527.204	39140.78
527.406	39392.68
527.607	39304.62
527.808	39435.69
528.01	38620.59
528.211	39187.88
528.412	39615.91
528.614	39431.59
528.815	39501.22
529.016	39800.22
529.218	39050.67
529.419	39490.98
529.62	39206.31
529.822	39703.97
530.023	39585.19
530.224	39472.55
530.425	39206.31
530.626	39024.04
530.828	39036.33
531.029	40220.06
531.23	38921.65
531.431	39415.21
531.632	39763.36
531.833	39386.53
532.035	39212.46
532.236	39316.9
532.437	39550.37
532.638	39144.87
532.839	39230.89
533.04	39378.34
533.241	39085.48
533.442	39716.26
533.643	39077.29
533.844	39110.06
534.045	39179.69
534.246	38798.77
534.447	39415.21
534.648	38813.1
534.849	38915.5
535.05	38938.03
535.251	39050.67
535.451	38507.96
535.652	38686.13
535.853	38892.97
536.054	38483.38
536.255	38495.67
536.456	38241.72
536.657	39091.63
536.857	38790.58
537.058	38368.69
537.259	38798.77
537.46	38757.81
537.66	38399.41
537.861	38686.13
538.062	38043.07
538.263	38499.76
538.463	38348.21
538.664	38157.75
538.865	38014.4
539.065	38596.02
539.266	38110.65
539.466	38167.99
539.667	37834.17
539.868	38286.78
540.068	38153.66
540.269	37944.76
540.469	38282.68
540.67	37694.91
540.87	37772.74
541.071	37879.23
541.271	38047.16
541.472	37881.28
541.672	37580.23
541.873	37770.69
542.073	37586.37
542.274	38086.07
542.474	37756.35
542.675	37451.2
542.875	38077.88
543.075	38049.21
543.276	37359.05
543.476	37787.07
543.676	37307.85
543.877	37811.65
544.077	37934.53
544.277	37426.63
544.478	37338.57
544.678	37762.5
544.878	37574.08
545.078	37830.08
545.279	37455.3
545.479	37547.46
545.679	37490.12
545.879	37447.11
546.079	37875.13
546.28	37545.41
546.48	37207.5
546.68	37436.87
546.88	37400.01
547.08	37352.9
547.28	37584.32
547.48	36980.17
547.68	37479.88
547.88	37807.55
548.081	37739.97
548.281	37496.26
548.481	37512.64
548.681	37709.25
548.881	37664.19
549.081	37465.54
549.28	37791.17
549.48	37195.21
549.68	37479.88
549.88	37828.03
550.08	37332.42
550.28	37416.39
550.48	37377.48
550.68	38176.19
550.88	37373.38
551.08	37326.28
551.279	37651.91
551.479	37092.81
551.679	37471.68
551.879	37574.08
552.079	37658.05
552.278	37334.47
552.478	37557.7
552.678	37467.59
552.878	37942.72
553.077	37518.79
553.277	37346.76
553.477	37991.87
553.676	37324.23
553.876	37612.99
554.076	37684.67
554.275	37422.53
554.475	37543.36
554.674	37490.12
554.874	37995.96
555.074	37313.99
555.273	38145.47
555.473	38192.57
555.672	37490.12
555.872	37901.76
556.071	37590.47
556.271	38200.76
556.47	37967.29
556.67	37592.51
556.869	37709.25
557.068	37746.11
557.268	37752.26
557.467	37940.67
557.667	37817.79
557.866	38032.83
558.065	37795.26
558.265	37975.48
558.464	37715.39
558.663	37805.5
558.863	37258.7
559.062	38073.79
559.261	37578.18
559.461	38022.59
559.66	37496.26
559.859	37610.95
560.058	37631.43
560.258	37666.24
560.457	37359.05
560.656	37625.28
560.855	37430.72
561.054	37875.13
561.253	37514.69
561.453	37496.26
561.652	37895.61
561.851	38268.34
562.05	37207.5
562.249	37594.56
562.448	37967.29
562.647	37551.56
562.846	37434.82
563.045	37633.47
563.244	37447.11
563.443	37967.29
563.642	37572.03
563.841	37383.62
564.04	37402.05
564.239	37668.29
564.438	37367.24
564.637	37615.04
564.836	37385.67
565.035	36971.98
565.234	37600.71
565.432	37234.12
565.631	36959.69
565.83	37359.05
566.029	37119.43
566.228	36988.36
566.427	37172.68
566.625	36804.05
566.824	36216.28
567.023	36918.73
567.222	36732.37
567.42	36713.94
567.619	36816.33
567.818	36738.51
568.016	36589.01
568.215	37004.75
568.414	36189.66
568.612	37037.51
568.811	36226.52
569.01	36070.87
569.208	35802.59
569.407	36408.79
569.605	35878.36
569.804	36431.32
570.002	35952.09
570.201	35757.53
570.4	36263.38
570.598	35913.18
570.797	35409.38
570.995	35991
571.193	35558.88
571.392	35393
571.59	35319.27
571.789	35536.35
571.987	35399.14
572.186	35401.19
572.384	35098.09
572.582	35091.94
572.781	35286.5
572.979	34661.87
573.177	34940.39
573.376	34915.82
573.574	34522.61
573.772	34823.66
573.971	34612.72
574.169	34653.68
574.367	34162.17
574.565	34428.4
574.763	34205.17
574.962	34252.28
575.16	33474.05
575.358	33867.26
575.556	33601.02
575.754	34113.02
575.952	33498.62
576.151	33914.36
576.349	33426.95
576.547	33715.71
576.745	33308.16
576.943	33236.48
577.141	33089.03
577.339	33269.25
577.537	32904.71
577.735	32876.04
577.933	32781.84
578.131	32968.2
578.329	32595.47
578.527	32687.63
578.725	32536.08
578.923	32732.68
579.121	32507.41
579.319	32407.06
579.516	32402.96
579.714	32759.31
579.912	32296.47
580.11	32239.12
580.308	31878.68
580.506	31768.09
580.704	31454.75
580.901	31782.43
581.099	31727.13
581.297	31317.54
581.495	31469.09
581.692	31712.8
581.89	31311.39
582.088	32001.56
582.285	31149.6
582.483	31481.38
582.681	31534.62
582.878	30953
583.076	30909.99
583.274	31131.17
583.471	30498.35
583.669	30740.01
583.866	30678.57
584.064	30959.14
584.262	30221.87
584.459	30617.13
584.657	30637.61
584.854	30633.52
585.052	29808.19
585.249	30619.18
585.447	30123.57
585.644	29781.56
585.841	29886.01
586.039	30594.61
586.236	29779.51
586.434	30029.37
586.631	29566.52
586.828	29824.57
587.026	29617.72
587.223	29423.17
587.42	29656.64
587.618	29824.57
587.815	29265.47
588.012	29230.66
588.21	29259.33
588.407	29531.71
588.604	29183.55
588.801	29021.77
588.999	28847.69
589.196	28900.93
589.393	29144.64
589.59	28843.59
589.787	28628.56
589.984	28538.44
590.182	28390.99
590.379	28556.88
590.576	28397.13
590.773	28515.92
590.97	28442.19
591.167	28384.85
591.364	28188.24
591.561	28378.7
591.758	28018.26
591.955	28030.55
592.152	28206.67
592.349	28010.07
592.546	28128.85
592.743	28175.95
592.94	27774.55
593.137	27879
593.334	27788.89
593.531	27770.46
593.727	27553.37
593.924	27913.81
594.121	27975.25
594.318	27866.71
594.515	27493.98
594.712	27827.8
594.908	27391.58
595.105	27618.91
595.302	27231.84
595.499	27450.97
595.696	27256.42
595.892	27151.97
596.089	27559.52
596.286	27426.4
596.482	27174.5
596.679	27332.19
596.876	27252.32
597.072	27192.93
597.269	27276.9
597.466	26766.95
597.662	27029.09
597.859	27084.39
598.055	27260.51
598.252	26812.01
598.448	27178.59
598.645	27125.35
598.841	27102.82
599.038	27035.24
599.234	27160.16
599.431	27078.24
599.627	26908.26
599.824	27039.33
600.02	26623.59
600.217	26916.45
600.413	26766.95
600.609	26676.84
600.806	26832.49
601.002	27106.91
601.198	26855.01
601.395	27055.72
601.591	26932.84
601.787	26762.86
601.984	26793.58
602.18	27022.95
602.376	26816.1
602.572	26680.94
602.769	26900.07
602.965	26580.59
603.161	27012.71
603.357	26297.97
603.553	26498.67
603.75	26678.89
603.946	26424.94
604.142	26687.08
604.338	26138.23
604.534	26777.19
604.73	26672.74
604.926	26570.35
605.122	26928.74
605.318	26650.22
605.514	26766.95
605.71	26709.61
605.906	26676.84
606.102	27000.42
606.298	26728.04
606.494	26996.32
606.69	27008.61
606.886	27211.36
607.082	26701.42
607.278	27217.5
607.474	26392.17
607.67	26963.56
607.866	26918.5
608.062	27407.97
608.257	26922.6
608.453	26818.15
608.649	27387.49
608.845	27119.2
609.041	27022.95
609.236	27199.07
609.432	27145.83
609.628	27170.4
609.824	27438.69
610.019	26898.02
610.215	27385.44
610.411	27184.74
610.606	27043.43
610.802	27414.11
610.998	27350.62
611.193	27197.02
611.389	27154.02
611.584	27305.57
611.78	27129.44
611.976	27395.68
612.171	27631.19
612.367	27266.66
612.562	27090.53
612.758	27283.04
612.953	27373.15
613.149	27573.85
613.344	27059.81
613.539	27569.76
613.735	27491.93
613.93	26998.37
614.126	27493.98
614.321	27610.71
614.517	27752.02
614.712	27510.36
614.907	27440.73
615.103	27792.98
615.298	27299.42
615.493	27811.42
615.688	27033.19
615.884	27840.09
616.079	27176.55
616.274	27623
616.47	27342.43
616.665	27334.24
616.86	27772.5
617.055	27170.4
617.25	27237.98
617.445	27850.33
617.641	27039.33
617.836	27711.07
618.031	27168.35
618.226	27098.72
618.421	27086.43
618.616	27483.74
618.811	26967.65
619.006	27219.55
619.201	26621.55
619.396	27184.74
619.591	26660.46
619.786	27082.34
619.981	26580.59
620.176	26572.39
620.371	26400.37
620.566	26775.14
620.761	26424.94
620.956	26648.17
621.151	26037.87
621.346	26115.7
621.541	26080.88
621.735	26154.61
621.93	25579.13
622.125	26281.58
622.32	25771.64
622.515	25460.35
622.709	25364.09
622.904	25345.66
623.099	25058.95
623.294	25411.2
623.488	24917.64
623.683	24964.74
623.878	24620.68
624.072	24526.47
624.267	24929.92
624.462	24630.92
624.656	24444.55
624.851	24542.86
625.046	24417.93
625.24	24215.18
625.435	23928.47
625.629	23879.32
625.824	23813.78
626.018	23907.99
626.213	23461.53
626.407	23604.89
626.602	23287.45
626.796	23350.94
626.991	23035.55
627.185	23031.46
627.38	23232.16
627.574	22802.08
627.768	22640.29
627.963	22494.89
628.157	22458.03
628.352	22615.72
628.546	22222.51
628.74	22406.83
628.935	22187.69
629.129	21769.91
629.323	21511.86
629.517	22109.87
629.712	21714.61
629.906	21540.54
630.1	21286.59
630.294	21470.9
630.489	21202.62
630.683	21393.08
630.877	20823.75
631.071	20913.86
631.265	21006.02
631.459	20635.33
631.653	20641.48
631.848	20692.68
632.042	20553.41
632.236	20410.06
632.43	20285.13
632.624	20395.72
632.818	20332.23
633.012	19744.47
633.206	19506.9
633.4	19672.79
633.594	19560.15
633.788	19500.76
633.982	19224.28
634.176	19312.35
634.369	19156.7
634.563	18874.08
634.757	19097.31
634.951	19125.98
635.145	19046.11
635.339	18956
635.533	18753.25
635.726	18669.28
635.92	18362.09
636.114	18401
636.308	18448.1
636.501	18697.95
636.695	18142.96
636.889	18028.27
637.083	17891.05
637.276	17985.26
637.47	17579.76
637.664	17686.26
637.857	17389.3
638.051	17465.08
638.244	17413.88
638.438	17377.01
638.632	17149.69
638.825	17030.91
639.019	17071.87
639.212	17008.38
639.406	16912.13
639.599	16721.66
639.793	16551.68
639.986	16295.69
640.18	16459.52
640.373	16453.38
640.567	16232.2
640.76	16201.48
640.954	15974.16
641.147	15759.12
641.34	16041.74
641.534	15826.7
641.727	15720.21
641.92	15503.12
642.114	15562.51
642.307	15570.71
642.5	15496.98
642.694	15177.5
642.887	14970.65
643.08	15314.71
643.273	14759.71
643.467	14962.46
643.66	14677.79
643.853	14767.9
644.046	14595.87
644.239	14495.52
644.432	14653.22
644.626	14454.56
644.819	14110.5
645.012	14370.6
645.205	14163.75
645.398	14233.38
645.591	13973.29
645.784	14245.67
645.977	13772.59
646.17	13786.93
646.363	13467.44
646.556	13512.5
646.749	13668.14
646.942	13295.41
647.135	13291.32
647.328	13401.91
647.521	13360.95
647.714	13109.05
647.907	12967.74
648.099	12996.41
648.292	13092.66
648.485	12853.05
648.678	12672.83
648.871	12580.67
649.064	12668.73
649.256	12738.37
649.449	12457.79
649.642	12597.06
649.835	12504.9
650.027	12259.14
650.22	12250.95
650.413	12259.14
650.605	12156.74
650.798	12011.34
650.991	11992.91
651.183	11796.3
651.376	11857.74
651.568	11910.99
651.761	11775.82
651.954	11827.02
652.146	11530.06
652.339	11505.49
652.531	11577.17
652.724	11611.98
652.916	11231.06
653.109	11343.7
653.301	11245.4
653.494	11253.59
653.686	10946.39
653.879	11210.58
654.071	10878.81
654.263	10893.15
654.456	10751.84
654.648	10878.81
654.84	10682.2
655.033	10690.4
655.225	10682.2
655.417	10551.14
655.61	10631.01
655.802	10766.17
655.994	10295.14
656.186	10413.92
656.379	10442.59
656.571	10364.77
656.763	10250.08
656.955	10094.44
657.148	10184.55
657.34	9953.13
657.532	9924.46
657.724	9969.51
657.916	9787.24
658.108	9834.35
658.3	9721.71
658.492	9850.73
658.684	9752.43
658.876	9715.56
659.068	9506.67
659.26	9572.21
659.452	9553.77
659.644	9312.11
659.836	9424.75
660.028	9410.42
660.22	9385.84
660.412	9160.56
660.604	9148.28
660.796	9299.83
660.988	9033.59
661.18	9049.97
661.372	8912.76
661.563	8886.14
661.755	8970.1
661.947	8863.61
662.139	8755.07
662.331	8517.5
662.522	8859.51
662.714	8769.4
662.906	8634.24
663.097	8318.85
663.289	8484.73
663.481	8507.26
663.673	8368
663.864	8157.06
664.056	8267.65
664.247	8132.48
664.439	8214.4
664.631	8116.1
664.822	8206.21
665.014	8144.77
665.205	7931.78
665.397	7968.65
665.588	8056.71
665.78	7896.97
665.971	7843.72
666.163	7960.45
666.354	7810.95
666.546	7804.81
666.737	7755.66
666.929	7640.97
667.12	7845.77
667.311	7557
667.503	7528.33
667.694	7460.75
667.885	7509.9
668.077	7436.17
668.268	7452.56
668.459	7636.88
668.651	7368.59
668.842	7387.02
669.033	7278.48
669.224	7360.4
669.416	7155.6
669.607	7155.6
669.798	7061.4
669.989	7274.38
670.18	6985.62
670.371	7221.14
670.563	6854.55
670.754	6922.13
670.945	6924.18
671.136	7114.64
671.327	6805.4
671.518	6725.53
671.709	6989.72
671.9	7045.01
672.091	6731.67
672.282	6784.92
672.473	6696.86
672.664	6813.59
672.855	6565.79
673.046	6723.48
673.237	6533.02
673.428	6641.56
673.619	6698.91
673.809	6619.03
674	6360.99
674.191	6508.44
674.382	6606.75
674.573	6416.29
674.764	6545.31
674.954	6653.85
675.145	6369.18
675.336	6328.22
675.527	6236.06
675.717	6352.8
675.908	6262.69
676.099	6287.26
676.289	6182.82
676.48	6242.21
676.671	6246.3
676.861	6229.92
677.052	6250.4
677.243	6184.87
677.433	6078.37
677.624	6109.09
677.814	6242.21
678.005	6145.95
678.195	6213.54
678.386	6111.14
678.576	6016.93
678.767	6029.22
678.957	6061.99
679.148	6088.61
679.338	6121.38
679.529	6029.22
679.719	6074.28
679.909	5957.54
680.1	5760.94
680.29	5922.73
680.481	5877.67
680.671	5937.06
680.861	5836.71
681.052	5947.3
681.242	5793.7
681.432	5861.29
681.622	5969.83
681.813	5740.46
682.003	5947.3
682.193	5937.06
682.383	5765.03
682.573	5820.33
682.764	5705.64
682.954	5681.07
683.144	5902.25
683.334	5828.52
683.524	5805.99
683.714	5623.72
683.904	5724.07
684.094	5640.11
684.284	5707.69
684.474	5748.65
684.664	5773.22
684.854	5619.63
685.044	5500.84
685.234	5310.38
685.424	5568.43
685.614	5689.26
685.804	5636.01
685.994	5601.19
686.184	5511.08
686.374	5566.38
686.564	5484.46
686.753	5535.66
686.943	5455.79
687.133	5453.74
687.323	5322.67
687.513	5431.21
687.702	5412.78
687.892	5443.5
688.082	5332.91
688.272	5455.79
688.461	5265.33
688.651	5357.49
688.841	5240.75
689.03	5246.9
689.22	5216.18
689.41	5230.51
689.599	5277.62
689.789	5134.26
689.979	5152.69
690.168	5242.8
690.358	5050.29
690.547	4992.95
690.737	5105.59
690.926	5218.22
691.116	4968.37
691.305	5197.74
691.495	5011.38
691.684	5031.86
691.874	5013.43
692.063	4927.41
692.252	5081.01
692.442	5054.39
692.631	4904.89
692.82	4927.41
693.01	4870.07
693.199	4775.86
693.388	4878.26
693.578	4904.89
693.767	4771.77
693.956	4657.08
694.146	4767.67
694.335	4849.59
694.524	4700.09
694.713	4816.82
694.902	4751.29
695.092	4732.86
695.281	4726.71
695.47	4861.88
695.659	4513.72
695.848	4665.27
696.037	4585.4
696.226	4724.66
696.415	4476.86
696.604	4689.85
696.793	4485.05
696.982	4585.4
697.171	4554.68
697.36	4517.82
697.549	4517.82
697.738	4483
697.927	4530.11
698.116	4595.64
698.305	4480.96
698.494	4454.33
698.683	4495.29
698.872	4468.67
699.061	4388.8
699.25	4319.17
699.438	4503.48
699.627	4468.67
699.816	4460.48
700.005	4349.89
700.193	4235.2
700.382	4386.75
700.571	4284.35
700.76	4280.25
700.948	4419.52
701.137	4128.7
701.326	4249.54
701.514	4200.38
701.703	4208.58
701.892	4202.43
702.08	4243.39
702.269	4128.7
702.457	4184
702.646	4124.61
702.834	4042.69
703.023	4050.88
703.212	4261.82
703.4	4151.23
703.589	3962.82
703.777	4071.36
703.965	4044.74
704.154	4034.5
704.342	4116.42
704.531	3891.14
704.719	3936.2
704.907	3938.24
705.096	3923.91
705.284	3925.96
705.472	3954.63
705.661	3899.33
705.849	3997.63
706.037	3948.48
706.226	3813.32
706.414	3870.66
706.602	3844.04
706.79	3831.75
706.979	3846.09
707.167	3839.94
707.355	3805.13
707.543	3760.07
707.731	3887.04
707.919	3901.38
708.107	3694.54
708.296	3798.98
708.484	3723.21
708.672	3659.72
708.86	3665.86
709.048	3721.16
709.236	3559.37
709.424	3745.73
709.612	3747.78
709.8	3573.71
709.988	3559.37
710.176	3510.22
710.364	3471.31
710.551	3698.63
710.739	3583.95
710.927	3571.66
711.115	3547.08
711.303	3522.51
711.491	3629
711.679	3313.61
711.866	3483.59
712.054	3473.35
712.242	3307.47
712.43	3456.97
712.617	3370.96
712.805	3330
712.993	3342.28
713.181	3452.88
713.368	3377.1
713.556	3430.35
713.744	3325.9
713.931	3407.82
714.119	3301.33
714.306	3299.28
714.494	3420.11
714.682	3264.46
714.869	3225.55
715.057	3356.62
715.244	3330
715.432	3321.81
715.619	3305.42
715.807	3319.76
715.994	3147.73
716.182	3223.5
716.369	3080.14
716.556	3323.85
716.744	3067.86
716.931	3088.34
717.119	3035.09
717.306	3276.75
717.493	3125.2
717.681	3061.71
717.868	3098.58
718.055	3069.91
718.242	3157.97
718.43	3080.14
718.617	2963.41
718.804	2977.75
718.991	2992.08
719.179	3088.34
719.366	2938.84
719.553	2983.89
719.74	2969.55
719.927	2973.65
720.114	2848.72
720.301	2977.75
720.488	2906.07
720.676	2924.5
720.863	2815.96
721.05	2838.48
721.237	2920.4
721.424	2875.35
721.611	2758.61
721.798	2856.92
721.985	2840.53
722.172	2777.05
722.358	2777.05
722.545	2791.38
722.732	2719.7
722.919	2752.47
723.106	2762.71
723.293	2838.48
723.48	2756.57
723.667	2791.38
723.853	2777.05
724.04	2670.55
724.227	2629.59
724.414	2758.61
724.6	2650.07
724.787	2793.43
724.974	2744.28
725.161	2723.8
725.347	2607.06
725.534	2721.75
725.72	2787.29
725.907	2658.26
726.094	2750.42
726.28	2615.26
726.467	2482.14
726.653	2662.36
726.84	2625.5
727.027	2559.96
727.213	2504.67
727.4	2574.3
727.586	2643.93
727.773	2600.92
727.959	2529.24
728.145	2564.06
728.332	2502.62
728.518	2488.28
728.705	2486.23
728.891	2498.52
729.077	2412.51
729.264	2617.3
729.45	2445.27
729.636	2564.06
729.823	2357.21
730.009	2551.77
730.195	2539.48
730.382	2535.39
730.568	2416.6
730.754	2514.91
730.94	2404.32
731.126	2441.18
731.313	2357.21
731.499	2459.61
731.685	2332.64
731.871	2389.98
732.057	2400.22
732.243	2383.84
732.429	2420.7
732.615	2420.7
732.801	2367.45
732.987	2256.86
733.173	2463.71
733.359	2316.25
733.545	2256.86
733.731	2332.64
733.917	2404.32
734.103	2316.25
734.289	2299.87
734.475	2174.94
734.661	2330.59
734.847	2162.65
735.033	2222.05
735.219	2215.9
735.404	2344.92
735.59	2283.49
735.776	2293.72
735.962	2316.25
736.148	2174.94
736.333	2166.75
736.519	2107.36
736.705	2240.48
736.89	2127.84
737.076	2123.74
737.262	2179.04
737.447	2080.74
737.633	2086.88
737.819	2078.69
738.004	2129.89
738.19	2113.5
738.375	2179.04
738.561	2185.18
738.747	2101.22
738.932	1982.43
739.118	2166.75
739.303	2125.79
739.489	1978.34
739.674	1978.34
739.859	1974.24
740.045	2078.69
740.23	1978.34
740.416	1986.53
740.601	1988.58
740.786	2039.78
740.972	2082.78
741.157	1890.28
741.342	1951.71
741.528	1888.23
741.713	2054.11
741.898	1947.62
742.084	1974.24
742.269	1863.65
742.454	2019.3
742.639	1935.33
742.824	1882.08
743.01	1863.65
743.195	1953.76
743.38	1914.85
743.565	1761.25
743.75	1890.28
743.935	1773.54
744.12	1920.99
744.305	1884.13
744.49	1818.6
744.675	1855.46
744.86	1644.52
745.045	1814.5
745.23	1810.4
745.415	1775.59
745.6	1765.35
745.785	1763.3
745.97	1712.1
746.155	1720.29
746.34	1742.82
746.525	1699.81
746.71	1724.39
746.895	1708.01
747.079	1724.39
747.264	1773.54
747.449	1728.49
747.634	1789.92
747.819	1638.37
748.003	1605.61
748.188	1583.08
748.373	1617.9
748.557	1501.16
748.742	1585.13
748.927	1533.93
749.111	1642.47
749.296	1593.32
749.481	1521.64
749.665	1499.11
749.85	1495.02
750.034	1626.09
750.219	1560.55
750.404	1486.83
750.588	1554.41
750.773	1441.77
750.957	1449.96
751.141	1490.92
751.326	1507.3
751.51	1374.19
751.695	1294.32
751.879	1347.56
752.064	1374.19
752.248	1439.72
752.432	1413.1
752.617	1445.87
752.801	1415.15
752.985	1398.76
753.17	1384.43
753.354	1372.14
753.538	1355.76
753.722	1339.37
753.907	1325.04
754.091	1320.94
754.275	1316.84
754.459	1277.93
754.643	1224.69
754.828	1290.22
755.012	1306.6
755.196	1202.16
755.38	1292.27
755.564	1253.36
755.748	1257.45
755.932	1183.73
756.116	1159.15
756.3	1226.73
756.484	1153.01
756.668	1200.11
756.852	1157.1
757.036	1118.19
757.22	1118.19
757.404	1083.38
757.588	1073.14
757.772	1124.33
757.956	1130.48
758.14	1085.42
758.323	1056.75
758.507	1081.33
758.691	1083.38
758.875	1091.57
759.059	1167.34
759.242	1040.37
759.426	946.16
759.61	1073.14
759.794	1191.92
759.977	1044.46
760.161	1132.53
760.345	1003.5
760.528	1003.5
760.712	1060.85
760.895	1050.61
761.079	1134.57
761.263	1013.74
761.446	972.79
761.63	1005.55
761.813	1013.74
761.997	1038.32
762.18	907.25
762.364	995.31
762.547	948.21
762.731	1017.84
762.914	1019.89
763.098	1032.18
763.281	929.78
763.464	968.69
763.648	1013.74
763.831	931.83
764.015	976.88
764.198	894.96
764.381	888.82
764.564	862.19
764.748	802.8
764.931	841.72
765.114	960.5
765.297	966.64
765.481	948.21
765.664	909.3
765.847	942.07
766.03	956.4
766.213	892.91
766.397	907.25
766.58	802.8
766.763	882.67
766.946	905.2
767.129	864.24
767.312	905.2
767.495	886.77
767.678	802.8
767.861	899.06
768.044	868.34
768.227	776.18
768.41	884.72
768.593	915.44
768.776	868.34
768.959	831.48
769.142	886.77
769.324	819.19
769.507	778.23
769.69	770.04
769.873	811
770.056	802.8
770.239	790.52
770.421	880.63
770.604	874.48
770.787	851.95
770.97	856.05
771.152	757.75
771.335	735.22
771.518	845.81
771.7	874.48
771.883	767.99
772.066	784.37
772.248	819.19
772.431	866.29
772.613	831.48
772.796	774.13
772.978	841.72
773.161	710.65
773.343	722.93
773.526	714.74
773.708	788.47
773.891	651.25
774.073	782.32
774.256	710.65
774.438	784.37
774.621	622.58
774.803	733.17
774.985	665.59
775.168	868.34
775.35	696.31
775.532	724.98
775.715	727.03
775.897	632.82
776.079	624.63
776.261	638.97
776.444	622.58
776.626	579.58
776.808	634.87
776.99	608.25
777.173	579.58
777.355	620.53
777.537	651.25
777.719	626.68
777.901	628.73
778.083	628.73
778.265	544.76
778.447	569.34
778.629	636.92
778.811	559.1
778.993	595.96
779.175	618.49
779.357	626.68
779.539	620.53
779.721	557.05
779.903	630.77
780.085	536.57
780.267	645.11
780.449	598.01
780.631	511.99
780.812	583.67
780.994	563.19
781.176	546.81
781.358	520.18
781.54	563.19
781.721	593.91
781.903	589.81
782.085	530.42
782.267	589.81
782.448	403.45
782.63	462.84
782.812	446.46
782.993	489.46
783.175	532.47
783.357	487.42
783.538	563.19
783.72	454.65
783.901	544.76
784.083	481.27
784.264	462.84
784.446	425.98
784.627	460.79
784.809	542.71
784.99	503.8
785.172	473.08
785.353	446.46
785.535	481.27
785.716	397.31
785.897	339.96
786.079	399.35
786.26	464.89
786.441	557.05
786.623	434.17
786.804	471.03
786.985	423.93
787.167	421.88
787.348	403.45
787.529	364.54
787.71	385.02
787.891	487.42
788.073	315.39
788.254	372.73
788.435	468.98
788.616	444.41
788.797	389.11
788.978	360.44
789.159	333.82
789.34	284.67
789.522	389.11
789.703	376.83
789.884	323.58
790.065	337.91
790.246	446.46
790.427	327.67
790.607	405.5
790.788	391.16
790.969	415.74
791.15	325.63
791.331	292.86
791.512	389.11
791.693	282.62
791.874	380.92
792.054	428.03
792.235	315.39
792.416	299
792.597	243.71
792.778	342.01
792.958	305.15
793.139	325.63
793.32	339.96
793.5	274.43
793.681	333.82
793.862	331.77
794.042	292.86
794.223	350.2
794.404	268.28
794.584	235.52
794.765	245.76
794.945	286.72
795.126	339.96
795.306	219.13
795.487	266.24
795.667	274.43
795.848	290.81
796.028	204.8
796.209	266.24
796.389	346.11
796.57	319.48
796.75	249.85
796.93	278.52
797.111	143.36
797.291	268.28
797.471	266.24
797.652	229.37
797.832	294.91
798.012	258.04
798.192	176.13
798.373	208.89
798.553	245.76
798.733	264.19
798.913	256
799.093	161.79
799.274	217.08
799.454	284.67
799.634	200.7
799.814	266.24
799.994	315.39
800.174	270.33
800.354	243.71
800.534	256
800.714	178.17
800.894	169.98
801.074	159.74
801.254	299
801.434	243.71
801.614	249.85
801.794	217.08
801.974	815.09
802.154	247.8
802.334	233.47
802.514	151.55
802.693	120.83
802.873	192.51
803.053	290.81
803.233	249.85
803.413	233.47
803.592	167.93
803.772	194.56
803.952	194.56
804.131	153.6
804.311	219.13
804.491	270.33
804.67	161.79
804.85	202.75
805.03	161.79
805.209	172.03
805.389	167.93
805.568	151.55
805.748	139.26
805.928	215.04
806.107	200.7
806.287	196.6
806.466	233.47
806.646	194.56
806.825	188.41
807.004	114.69
807.184	237.56
807.363	188.41
807.543	139.26
807.722	163.84
807.901	247.8
808.081	188.41
808.26	79.87
808.439	163.84
808.619	262.14
808.798	143.36
808.977	192.51
809.156	131.07
809.336	208.89
809.515	210.94
809.694	122.88
809.873	206.84
810.052	172.03
810.231	217.08
810.411	200.7
810.59	206.84
810.769	206.84
810.948	161.79
811.127	20.48
811.306	169.98
811.485	182.27
811.664	155.65
811.843	219.13
812.022	151.55
812.201	108.54
812.38	135.17
812.559	151.55
812.737	241.66
812.916	79.87
813.095	184.32
813.274	219.13
813.453	200.7
813.632	96.25
813.811	102.4
813.989	208.89
814.168	182.27
814.347	59.39
814.526	102.4
814.704	196.6
814.883	155.65
815.062	153.6
815.24	182.27
815.419	92.16
815.598	229.37
815.776	210.94
815.955	143.36
816.133	126.97
816.312	169.98
816.49	96.25
816.669	53.25
816.847	71.68
817.026	165.89
817.204	96.25
817.383	28.67
817.561	61.44
817.74	141.31
817.918	79.87
818.097	131.07
818.275	-8.19
818.453	169.98
818.632	118.78
818.81	167.93
818.988	143.36
819.167	88.06
819.345	77.82
819.523	102.4
819.701	92.16
819.879	110.59
820.058	104.45
820.236	192.51
820.414	118.78
820.592	104.45
820.77	69.63
820.948	63.49
821.127	100.35
821.305	137.21
821.483	139.26
821.661	49.15
821.839	71.68
822.017	102.4
822.195	120.83
822.373	176.13
822.551	69.63
822.729	153.6
822.907	73.73
823.085	167.93
823.262	94.21
823.44	118.78
823.618	143.36
823.796	75.77
823.974	147.45
824.152	135.17
824.329	73.73
824.507	106.49
824.685	153.6
824.863	102.4
825.04	102.4
825.218	126.97
825.396	30.72
825.574	161.79
825.751	135.17
825.929	143.36
826.107	14.34
826.284	79.87
826.462	153.6
826.639	36.86
826.817	20.48
826.994	110.59
827.172	129.02
827.349	79.87
827.527	47.1
827.704	110.59
827.882	145.41
828.059	137.21
828.237	8.19
828.414	90.11
828.591	57.34
828.769	102.4
828.946	12.29
829.124	90.11
829.301	114.69
829.478	88.06
829.655	106.49
829.833	36.86
830.01	57.34
830.187	16.38
830.364	67.58
830.542	120.83
830.719	104.45
830.896	67.58
831.073	30.72
831.25	94.21
831.427	88.06
831.604	16.38
831.782	83.97
831.959	135.17
832.136	55.3
832.313	83.97
832.49	20.48
832.667	96.25
832.844	71.68
833.021	112.64
833.198	38.91
833.374	77.82
833.551	47.1
833.728	-28.67
833.905	36.86
834.082	122.88
834.259	45.06
834.436	137.21
834.612	-16.38
834.789	-8.19
834.966	63.49
835.143	122.88
835.319	-34.82
835.496	120.83
835.673	88.06
835.85	102.4
836.026	63.49
836.203	79.87
836.38	53.25
836.556	61.44
836.733	81.92
836.909	83.97
837.086	71.68
837.262	45.06
837.439	53.25
837.616	28.67
837.792	86.01
837.968	88.06
838.145	-12.29
838.321	61.44
838.498	102.4
838.674	98.3
838.851	69.63
839.027	61.44
839.203	12.29
839.38	131.07
839.556	71.68
839.732	22.53
839.909	14.34
840.085	36.86
840.261	16.38
840.437	36.86
840.614	65.53
840.79	169.98
840.966	-0
841.142	59.39
841.318	79.87
841.494	77.82
841.671	36.86
841.847	-26.62
842.023	10.24
842.199	67.58
842.375	77.82
842.551	-26.62
842.727	102.4
842.903	53.25
843.079	28.67
843.255	94.21
843.431	73.73
843.607	-4.1
843.783	-2.05
843.959	104.45
844.134	96.25
844.31	36.86
844.486	-10.24
844.662	16.38
844.838	116.73
845.013	63.49
845.189	102.4
845.365	4.1
845.541	63.49
845.716	94.21
845.892	18.43
846.068	81.92
846.244	112.64
846.419	114.69
846.595	38.91
846.77	51.2
846.946	40.96
847.122	75.77
847.297	12.29
847.473	104.45
847.648	14.34
847.824	81.92
847.999	-0
848.175	63.49
848.35	30.72
848.526	53.25
848.701	81.92
848.876	112.64
849.052	47.1
849.227	12.29
849.403	49.15
849.578	88.06
849.753	63.49
849.929	22.53
850.104	28.67
850.279	49.15
850.454	30.72
850.63	-26.62
850.805	-12.29
850.98	112.64
851.155	49.15
851.33	45.06
851.505	12.29
851.681	88.06
851.856	38.91
852.031	28.67
852.206	47.1
852.381	71.68
852.556	94.21
852.731	45.06
852.906	12.29
853.081	59.39
853.256	106.49
853.431	-28.67
853.606	-59.39
853.781	47.1
853.956	-32.77
854.131	57.34
854.305	-12.29
854.48	28.67
854.655	-57.34
854.83	65.53
855.005	61.44
855.18	73.73
855.354	139.26
855.529	83.97
855.704	-77.82
855.879	36.86
856.053	20.48
856.228	53.25
856.403	55.3
856.577	-2.05
856.752	-24.58
856.926	24.58
857.101	38.91
857.276	-2.05
857.45	45.06
857.625	69.63
857.799	-6.14
857.974	55.3
858.148	-36.86
858.323	71.68
858.497	-0
858.672	81.92
858.846	12.29
859.02	98.3
859.195	-16.38
859.369	53.25
859.543	-67.58
859.718	112.64
859.892	45.06
860.066	47.1
860.241	100.35
860.415	16.38
860.589	28.67
860.763	45.06
860.938	18.43
861.112	96.25
861.286	12.29
861.46	79.87
861.634	28.67
861.808	53.25
861.982	4.1
862.157	-16.38
862.331	-51.2
862.505	-43.01
862.679	38.91
862.853	38.91
863.027	36.86
863.201	92.16
863.375	12.29
863.549	45.06
863.722	4.1
863.896	102.4
864.07	24.58
864.244	-45.06
864.418	40.96
864.592	-10.24
864.766	16.38
864.939	28.67
865.113	-53.25
865.287	114.69
865.461	-12.29
865.634	-12.29
865.808	16.38
865.982	2.05
866.156	-65.54
866.329	-2.05
866.503	-24.58
866.676	40.96
866.85	28.67
867.024	6.14
867.197	81.92
867.371	-2.05
867.544	-16.38
867.718	-77.82
867.891	65.53
868.065	-10.24
868.238	-0
868.412	98.3
868.585	-36.86
868.759	-26.62
868.932	-14.34
869.105	8.19
869.279	-32.77
869.452	-20.48
869.625	30.72
869.799	-14.34
869.972	10.24
870.145	28.67
870.319	59.39
870.492	-34.82
870.665	18.43
870.838	-14.34
871.011	-71.68
871.185	-45.06
871.358	-12.29
871.531	-10.24
871.704	4.1
871.877	-10.24
872.05	-61.44
872.223	-28.67
872.396	51.2
872.569	-12.29
872.742	-100.35
872.915	12.29
873.088	-94.21
873.261	20.48
873.434	-20.48
873.607	6.14
873.78	4.1
873.953	-16.38
874.126	-12.29
874.299	77.82
874.471	73.73
874.644	-22.53
874.817	45.06
874.99	20.48
875.163	-12.29
875.335	-10.24
875.508	28.67
875.681	38.91
875.853	-86.01
876.026	65.53
876.199	94.21
876.371	-43.01
876.544	49.15
876.717	8.19
876.889	20.48
877.062	-16.38
877.234	-61.44
877.407	6.14
877.579	-4.1
877.752	2.05
877.924	69.63
878.097	30.72
878.269	55.3
878.442	-28.67
878.614	-0
878.786	36.86
878.959	-53.25
879.131	-18.43
879.303	-40.96
879.476	-16.38
879.648	-43.01
879.82	-6.14
879.993	6.14
880.165	38.91
880.337	-57.34
880.509	49.15
880.681	-51.2
880.854	-10.24
881.026	30.72
881.198	104.45
881.37	4.1
881.542	-28.67
881.714	47.1
881.886	-24.58
882.058	22.53
882.23	47.1
882.402	43.01
882.574	24.58
882.746	6.14
882.918	38.91
883.09	-45.06
883.262	-22.53
883.434	-26.62
883.606	6.14
883.778	4.1
883.95	73.73
884.122	-59.39
884.293	36.86
884.465	4.1
884.637	-14.34
884.809	30.72
884.98	-8.19
885.152	-18.43
885.324	-20.48
885.496	-20.48
885.667	47.1
885.839	-69.63
886.011	53.25
886.182	-16.38
886.354	-26.62
886.525	20.48
886.697	16.38
886.869	-20.48
887.04	8.19
887.212	6.14
887.383	53.25
887.555	-2.05
887.726	-43.01
887.897	45.06
888.069	61.44
888.24	12.29
888.412	18.43
888.583	4.1
888.754	51.2
888.926	-36.86
889.097	-34.82
889.268	12.29
889.44	-26.62
889.611	-59.39
889.782	-18.43
889.953	12.29
890.125	57.34
890.296	28.67
890.467	-49.15
890.638	-77.82
890.809	14.34
890.98	-65.54
891.151	2.05
891.323	61.44
891.494	53.25
891.665	12.29
891.836	-26.62
892.007	32.77
892.178	-6.14
892.349	77.82
892.52	-83.97
892.691	-16.38
892.862	-2.05
893.032	20.48
893.203	36.86
893.374	-36.86
893.545	12.29
893.716	-34.82
893.887	-10.24
894.057	12.29
894.228	20.48
894.399	-36.86
894.57	94.21
894.74	-20.48
894.911	32.77
895.082	4.1
895.253	12.29
895.423	-28.67
895.594	-49.15
895.764	36.86
895.935	-36.86
896.106	69.63
896.276	8.19
896.447	-59.39
896.617	16.38
896.788	-45.06
896.958	14.34
897.129	-28.67
897.299	-45.06
897.47	-20.48
897.64	61.44
897.81	92.16
897.981	-45.06
898.151	14.34
898.322	16.38
898.492	22.53
898.662	12.29
898.832	30.72
899.003	-0
899.173	12.29
899.343	55.3
899.513	75.77
