Data from USB4F104151__194__14-33-06-554.txt Node

Date: Thu Mar 13 14:33:06 EDT 2025
User: louis
Spectrometer: USB4F10415
Trigger mode: 4
Integration Time (sec): 2.500000E-2
Scans to average: 1
Electric dark correction enabled: true
Nonlinearity correction enabled: false
Boxcar width: 0
XAxis mode: Wavelengths
Number of Pixels in Spectrum: 3648
>>>>>Begin Spectral Data<<<<<
178.204	-142.5
178.424	-142.5
178.644	-142.5
178.864	-152.74
179.084	-136.36
179.304	21.33
179.524	-44.2
179.744	7
179.964	43.86
180.184	-54.44
180.404	-27.82
180.624	43.86
180.844	80.72
181.064	-60.59
181.283	23.38
181.503	-1.19
181.723	-31.91
181.943	-79.02
182.163	43.86
182.383	-15.53
182.602	97.11
182.822	27.48
183.042	-1.19
183.262	19.29
183.482	45.91
183.701	-9.39
183.921	-56.49
184.141	-36.01
184.361	21.33
184.58	-29.87
184.8	58.2
185.02	2.9
185.239	68.44
185.459	-38.06
185.679	39.76
185.898	19.29
186.118	-27.82
186.338	7
186.557	56.15
186.777	19.29
186.997	68.44
187.216	70.48
187.436	19.29
187.655	11.09
187.875	54.1
188.095	7
188.314	174.93
188.534	7
188.753	-21.67
188.973	-1.19
189.192	4.95
189.412	84.82
189.631	97.11
189.851	84.82
190.07	133.97
190.29	31.57
190.509	-17.58
190.729	50
190.948	9.05
191.168	72.53
191.387	136.02
191.607	60.24
191.826	62.29
192.045	-13.48
192.265	-5.29
192.484	35.67
192.704	21.33
192.923	43.86
193.142	101.2
193.362	29.52
193.581	15.19
193.8	-9.39
194.02	-3.24
194.239	-33.96
194.458	4.95
194.678	-1.19
194.897	29.52
195.116	50
195.335	13.14
195.555	99.16
195.774	11.09
195.993	29.52
196.212	19.29
196.432	-81.07
196.651	-1.19
196.87	13.14
197.089	60.24
197.308	43.86
197.528	90.96
197.747	11.09
197.966	27.48
198.185	84.82
198.404	-44.2
198.623	-13.48
198.842	-19.63
199.062	2.9
199.281	64.34
199.5	31.57
199.719	101.2
199.938	2.9
200.157	37.72
200.376	23.38
200.595	54.1
200.814	113.49
201.033	2.9
201.252	90.96
201.471	13.14
201.69	56.15
201.909	43.86
202.128	27.48
202.347	86.87
202.566	-5.29
202.785	-50.35
203.004	43.86
203.223	84.82
203.442	35.67
203.661	86.87
203.879	56.15
204.098	-74.92
204.317	52.05
204.536	52.05
204.755	-50.35
204.974	37.72
205.193	-1.19
205.411	-5.29
205.63	-11.43
205.849	-58.54
206.068	52.05
206.287	19.29
206.505	60.24
206.724	-21.67
206.943	35.67
207.162	27.48
207.381	39.76
207.599	19.29
207.818	31.57
208.037	43.86
208.255	27.48
208.474	68.44
208.693	37.72
208.911	-21.67
209.13	-7.34
209.349	19.29
209.567	35.67
209.786	27.48
210.005	-46.25
210.223	-36.01
210.442	-31.91
210.661	27.48
210.879	-21.67
211.098	37.72
211.316	-9.39
211.535	160.59
211.753	-13.48
211.972	-21.67
212.191	54.1
212.409	45.91
212.628	64.34
212.846	-52.39
213.065	103.25
213.283	72.53
213.502	43.86
213.72	72.53
213.938	35.67
214.157	62.29
214.375	-36.01
214.594	52.05
214.812	115.54
215.031	70.48
215.249	68.44
215.467	29.52
215.686	13.14
215.904	43.86
216.122	-17.58
216.341	107.35
216.559	-7.34
216.778	-17.58
216.996	35.67
217.214	-1.19
217.432	-5.29
217.651	9.05
217.869	-15.53
218.087	76.63
218.306	-9.39
218.524	4.95
218.742	25.43
218.96	-38.06
219.179	15.19
219.397	78.68
219.615	123.73
219.833	88.92
220.051	95.06
220.27	93.01
220.488	70.48
220.706	9.05
220.924	45.91
221.142	78.68
221.36	-1.19
221.578	109.4
221.796	-3.24
222.015	62.29
222.233	60.24
222.451	95.06
222.669	41.81
222.887	37.72
223.105	17.24
223.323	23.38
223.541	-33.96
223.759	17.24
223.977	-3.24
224.195	25.43
224.413	-21.67
224.631	11.09
224.849	0.85
225.067	43.86
225.285	4.95
225.503	15.19
225.721	-9.39
225.939	31.57
226.157	70.48
226.375	138.07
226.592	19.29
226.81	27.48
227.028	-17.58
227.246	121.68
227.464	31.57
227.682	62.29
227.9	43.86
228.117	7
228.335	15.19
228.553	50
228.771	37.72
228.989	76.63
229.206	93.01
229.424	0.85
229.642	-3.24
229.86	-44.2
230.077	-13.48
230.295	-3.24
230.513	-13.48
230.731	76.63
230.948	105.3
231.166	19.29
231.384	-58.54
231.601	35.67
231.819	62.29
232.037	15.19
232.254	15.19
232.472	11.09
232.689	7
232.907	-13.48
233.125	13.14
233.342	-1.19
233.56	13.14
233.777	-21.67
233.995	72.53
234.213	52.05
234.43	76.63
234.648	90.96
234.865	0.85
235.083	72.53
235.3	95.06
235.518	37.72
235.735	56.15
235.953	35.67
236.17	47.96
236.388	35.67
236.605	41.81
236.822	152.4
237.04	35.67
237.257	15.19
237.475	29.52
237.692	-29.87
237.909	-5.29
238.127	13.14
238.344	31.57
238.562	15.19
238.779	-36.01
238.996	-46.25
239.214	13.14
239.431	52.05
239.648	-44.2
239.865	19.29
240.083	64.34
240.3	52.05
240.517	-13.48
240.735	-42.15
240.952	54.1
241.169	19.29
241.386	15.19
241.603	19.29
241.821	19.29
242.038	50
242.255	-38.06
242.472	13.14
242.689	9.05
242.907	52.05
243.124	-27.82
243.341	43.86
243.558	-60.59
243.775	27.48
243.992	-70.83
244.209	-25.77
244.426	60.24
244.643	52.05
244.86	-5.29
245.078	35.67
245.295	-42.15
245.512	-58.54
245.729	74.58
245.946	4.95
246.163	56.15
246.38	15.19
246.597	60.24
246.814	-13.48
247.031	15.19
247.248	47.96
247.464	21.33
247.681	-83.11
247.898	31.57
248.115	37.72
248.332	-29.87
248.549	-25.77
248.766	52.05
248.983	109.4
249.2	21.33
249.417	43.86
249.633	88.92
249.85	-11.43
250.067	-9.39
250.284	-9.39
250.501	-1.19
250.717	27.48
250.934	0.85
251.151	23.38
251.368	-52.39
251.585	72.53
251.801	11.09
252.018	52.05
252.235	2.9
252.451	-25.77
252.668	-50.35
252.885	84.82
253.102	64.34
253.318	4.95
253.535	-36.01
253.752	19.29
253.968	27.48
254.185	-11.43
254.401	-3.24
254.618	11.09
254.835	11.09
255.051	80.72
255.268	-76.97
255.484	23.38
255.701	-111.78
255.917	27.48
256.134	13.14
256.351	11.09
256.567	19.29
256.784	31.57
257	4.95
257.217	11.09
257.433	45.91
257.65	39.76
257.866	50
258.082	17.24
258.299	13.14
258.515	13.14
258.732	60.24
258.948	-5.29
259.165	15.19
259.381	-19.63
259.597	-5.29
259.814	-27.82
260.03	-29.87
260.246	-27.82
260.463	80.72
260.679	58.2
260.895	-19.63
261.112	-23.72
261.328	9.05
261.544	-11.43
261.761	111.44
261.977	68.44
262.193	21.33
262.409	62.29
262.626	54.1
262.842	-11.43
263.058	37.72
263.274	84.82
263.49	23.38
263.707	133.97
263.923	37.72
264.139	-7.34
264.355	84.82
264.571	13.14
264.787	0.85
265.004	11.09
265.22	-21.67
265.436	76.63
265.652	43.86
265.868	37.72
266.084	-42.15
266.3	-48.3
266.516	-27.82
266.732	56.15
266.948	76.63
267.164	2.9
267.38	-76.97
267.596	58.2
267.812	76.63
268.028	35.67
268.244	2.9
268.46	2.9
268.676	70.48
268.892	64.34
269.108	47.96
269.324	13.14
269.54	25.43
269.756	72.53
269.972	-3.24
270.188	25.43
270.403	25.43
270.619	-68.78
270.835	21.33
271.051	105.3
271.267	41.81
271.483	37.72
271.698	-25.77
271.914	-40.11
272.13	13.14
272.346	-1.19
272.562	27.48
272.777	82.77
272.993	11.09
273.209	41.81
273.425	76.63
273.64	-13.48
273.856	52.05
274.072	2.9
274.287	74.58
274.503	29.52
274.719	54.1
274.934	70.48
275.15	-11.43
275.366	-11.43
275.581	27.48
275.797	64.34
276.012	-62.63
276.228	13.14
276.444	27.48
276.659	93.01
276.875	15.19
277.09	35.67
277.306	29.52
277.521	47.96
277.737	27.48
277.952	-19.63
278.168	19.29
278.383	19.29
278.599	45.91
278.814	13.14
279.03	97.11
279.245	23.38
279.461	35.67
279.676	70.48
279.892	27.48
280.107	37.72
280.322	-60.59
280.538	68.44
280.753	-11.43
280.969	93.01
281.184	74.58
281.399	2.9
281.615	35.67
281.83	35.67
282.045	-11.43
282.26	2.9
282.476	-1.19
282.691	43.86
282.906	52.05
283.122	60.24
283.337	-31.91
283.552	64.34
283.767	-13.48
283.983	4.95
284.198	60.24
284.413	68.44
284.628	2.9
284.843	-48.3
285.058	11.09
285.274	2.9
285.489	4.95
285.704	99.16
285.919	17.24
286.134	45.91
286.349	-11.43
286.564	-3.24
286.779	17.24
286.995	29.52
287.21	-13.48
287.425	17.24
287.64	-54.44
287.855	47.96
288.07	2.9
288.285	45.91
288.5	-25.77
288.715	47.96
288.93	-1.19
289.145	-52.39
289.36	-33.96
289.575	72.53
289.79	0.85
290.004	-38.06
290.219	84.82
290.434	-44.2
290.649	-13.48
290.864	41.81
291.079	0.85
291.294	19.29
291.509	62.29
291.724	4.95
291.938	-38.06
292.153	60.24
292.368	-9.39
292.583	64.34
292.798	-17.58
293.012	52.05
293.227	72.53
293.442	13.14
293.657	64.34
293.871	39.76
294.086	23.38
294.301	29.52
294.516	60.24
294.73	35.67
294.945	13.14
295.16	45.91
295.374	29.52
295.589	11.09
295.804	19.29
296.018	47.96
296.233	78.68
296.447	19.29
296.662	39.76
296.877	-3.24
297.091	43.86
297.306	31.57
297.52	11.09
297.735	-33.96
297.949	-5.29
298.164	84.82
298.378	4.95
298.593	-76.97
298.807	56.15
299.022	121.68
299.236	35.67
299.451	31.57
299.665	19.29
299.88	-17.58
300.094	-11.43
300.309	43.86
300.523	11.09
300.737	52.05
300.952	35.67
301.166	-23.72
301.381	-27.82
301.595	60.24
301.809	60.24
302.024	29.52
302.238	-70.83
302.452	41.81
302.667	21.33
302.881	31.57
303.095	23.38
303.309	84.82
303.524	-38.06
303.738	39.76
303.952	-5.29
304.166	60.24
304.381	4.95
304.595	60.24
304.809	101.2
305.023	68.44
305.237	-25.77
305.452	84.82
305.666	-13.48
305.88	50
306.094	60.24
306.308	119.64
306.522	125.78
306.736	39.76
306.95	-9.39
307.164	64.34
307.379	117.59
307.593	93.01
307.807	33.62
308.021	29.52
308.235	7
308.449	-62.63
308.663	52.05
308.877	127.83
309.091	41.81
309.305	76.63
309.519	-70.83
309.733	125.78
309.947	-54.44
310.161	68.44
310.374	60.24
310.588	152.4
310.802	-60.59
311.016	4.95
311.23	68.44
311.444	37.72
311.658	129.88
311.872	29.52
312.085	84.82
312.299	37.72
312.513	-13.48
312.727	56.15
312.941	-5.29
313.154	50
313.368	15.19
313.582	21.33
313.796	17.24
314.009	-17.58
314.223	66.39
314.437	9.05
314.651	35.67
314.864	19.29
315.078	4.95
315.292	-29.87
315.505	27.48
315.719	119.64
315.933	2.9
316.146	-21.67
316.36	19.29
316.573	119.64
316.787	35.67
317.001	66.39
317.214	11.09
317.428	76.63
317.641	-29.87
317.855	72.53
318.068	2.9
318.282	33.62
318.495	99.16
318.709	68.44
318.922	-29.87
319.136	97.11
319.349	70.48
319.563	33.62
319.776	105.3
319.99	68.44
320.203	52.05
320.417	7
320.63	-21.67
320.843	-3.24
321.057	45.91
321.27	11.09
321.483	70.48
321.697	0.85
321.91	76.63
322.124	39.76
322.337	27.48
322.55	11.09
322.763	68.44
322.977	84.82
323.19	-19.63
323.403	56.15
323.617	125.78
323.83	88.92
324.043	-5.29
324.256	11.09
324.469	15.19
324.683	25.43
324.896	-13.48
325.109	52.05
325.322	-44.2
325.535	15.19
325.748	47.96
325.962	52.05
326.175	84.82
326.388	-31.91
326.601	76.63
326.814	27.48
327.027	-13.48
327.24	127.83
327.453	15.19
327.666	78.68
327.879	27.48
328.092	19.29
328.305	23.38
328.518	62.29
328.731	68.44
328.944	68.44
329.157	-33.96
329.37	35.67
329.583	84.82
329.796	95.06
330.009	13.14
330.222	66.39
330.435	80.72
330.648	37.72
330.861	56.15
331.073	27.48
331.286	78.68
331.499	84.82
331.712	-29.87
331.925	19.29
332.138	70.48
332.35	45.91
332.563	-5.29
332.776	60.24
332.989	2.9
333.202	37.72
333.414	-3.24
333.627	35.67
333.84	43.86
334.053	60.24
334.265	19.29
334.478	17.24
334.691	11.09
334.903	31.57
335.116	27.48
335.329	9.05
335.541	93.01
335.754	93.01
335.966	4.95
336.179	70.48
336.392	33.62
336.604	47.96
336.817	-21.67
337.029	-5.29
337.242	93.01
337.454	52.05
337.667	35.67
337.88	66.39
338.092	86.87
338.305	54.1
338.517	-36.01
338.729	56.15
338.942	15.19
339.154	7
339.367	31.57
339.579	72.53
339.792	15.19
340.004	37.72
340.217	2.9
340.429	52.05
340.641	-38.06
340.854	68.44
341.066	84.82
341.278	105.3
341.491	82.77
341.703	60.24
341.915	-17.58
342.128	105.3
342.34	107.35
342.552	29.52
342.764	-1.19
342.977	-1.19
343.189	25.43
343.401	0.85
343.613	-9.39
343.826	47.96
344.038	54.1
344.25	27.48
344.462	-21.67
344.674	99.16
344.886	-25.77
345.099	-3.24
345.311	111.44
345.523	52.05
345.735	-46.25
345.947	95.06
346.159	64.34
346.371	140.12
346.583	-19.63
346.795	138.07
347.007	-21.67
347.219	-3.24
347.431	78.68
347.643	95.06
347.855	52.05
348.067	70.48
348.279	2.9
348.491	-29.87
348.703	-17.58
348.915	19.29
349.127	15.19
349.339	19.29
349.551	60.24
349.763	9.05
349.975	88.92
350.187	11.09
350.399	62.29
350.61	-29.87
350.822	-5.29
351.034	64.34
351.246	54.1
351.458	123.73
351.669	13.14
351.881	56.15
352.093	-23.72
352.305	76.63
352.517	-27.82
352.728	88.92
352.94	4.95
353.152	35.67
353.363	-3.24
353.575	4.95
353.787	64.34
353.999	19.29
354.21	117.59
354.422	74.58
354.633	60.24
354.845	115.54
355.057	19.29
355.268	62.29
355.48	72.53
355.692	-91.31
355.903	-1.19
356.115	7
356.326	11.09
356.538	119.64
356.749	76.63
356.961	93.01
357.172	31.57
357.384	-29.87
357.595	150.36
357.807	-3.24
358.018	27.48
358.23	0.85
358.441	72.53
358.653	76.63
358.864	43.86
359.075	-38.06
359.287	39.76
359.498	86.87
359.709	86.87
359.921	27.48
360.132	74.58
360.344	105.3
360.555	15.19
360.766	25.43
360.977	-9.39
361.189	88.92
361.4	7
361.611	29.52
361.823	72.53
362.034	58.2
362.245	39.76
362.456	21.33
362.667	68.44
362.879	35.67
363.09	50
363.301	23.38
363.512	54.1
363.723	15.19
363.935	-5.29
364.146	101.2
364.357	-52.39
364.568	27.48
364.779	-13.48
364.99	117.59
365.201	7
365.412	4.95
365.623	-5.29
365.834	39.76
366.045	72.53
366.256	47.96
366.467	-21.67
366.678	90.96
366.889	23.38
367.1	47.96
367.311	78.68
367.522	54.1
367.733	60.24
367.944	41.81
368.155	35.67
368.366	68.44
368.577	19.29
368.788	56.15
368.999	13.14
369.209	39.76
369.42	78.68
369.631	152.4
369.842	60.24
370.053	62.29
370.264	37.72
370.474	19.29
370.685	19.29
370.896	70.48
371.107	47.96
371.317	52.05
371.528	29.52
371.739	41.81
371.95	25.43
372.16	15.19
372.371	-46.25
372.582	43.86
372.792	76.63
373.003	76.63
373.214	113.49
373.424	60.24
373.635	23.38
373.846	109.4
374.056	-9.39
374.267	52.05
374.477	-11.43
374.688	45.91
374.898	4.95
375.109	52.05
375.319	66.39
375.53	-5.29
375.74	88.92
375.951	84.82
376.161	72.53
376.372	27.48
376.582	2.9
376.793	82.77
377.003	68.44
377.214	11.09
377.424	127.83
377.635	-5.29
377.845	7
378.055	33.62
378.266	-27.82
378.476	27.48
378.686	125.78
378.897	76.63
379.107	150.36
379.317	70.48
379.528	43.86
379.738	113.49
379.948	9.05
380.158	68.44
380.369	7
380.579	86.87
380.789	41.81
380.999	47.96
381.21	70.48
381.42	117.59
381.63	62.29
381.84	66.39
382.05	45.91
382.261	68.44
382.471	-17.58
382.681	47.96
382.891	105.3
383.101	2.9
383.311	29.52
383.521	60.24
383.731	84.82
383.941	109.4
384.151	68.44
384.361	76.63
384.571	31.57
384.781	50
384.991	101.2
385.201	174.93
385.411	68.44
385.621	109.4
385.831	58.2
386.041	109.4
386.251	45.91
386.461	50
386.671	47.96
386.881	52.05
387.091	76.63
387.301	68.44
387.511	43.86
387.72	76.63
387.93	39.76
388.14	56.15
388.35	29.52
388.56	127.83
388.769	64.34
388.979	15.19
389.189	-1.19
389.399	76.63
389.609	86.87
389.818	70.48
390.028	66.39
390.238	27.48
390.447	64.34
390.657	93.01
390.867	60.24
391.076	9.05
391.286	50
391.496	146.26
391.705	54.1
391.915	35.67
392.125	80.72
392.334	45.91
392.544	54.1
392.753	117.59
392.963	60.24
393.172	93.01
393.382	60.24
393.591	166.74
393.801	52.05
394.01	76.63
394.22	99.16
394.429	76.63
394.639	93.01
394.848	56.15
395.058	54.1
395.267	86.87
395.477	93.01
395.686	27.48
395.895	138.07
396.105	150.36
396.314	37.72
396.524	99.16
396.733	60.24
396.942	183.12
397.152	93.01
397.361	144.21
397.57	29.52
397.78	68.44
397.989	150.36
398.198	217.94
398.407	101.2
398.617	119.64
398.826	117.59
399.035	88.92
399.244	101.2
399.453	148.31
399.663	72.53
399.872	179.03
400.081	86.87
400.29	80.72
400.499	119.64
400.708	150.36
400.917	68.44
401.127	101.2
401.336	86.87
401.545	95.06
401.754	224.08
401.963	109.4
402.172	105.3
402.381	56.15
402.59	35.67
402.799	136.02
403.008	219.99
403.217	133.97
403.426	191.31
403.635	125.78
403.844	123.73
404.053	133.97
404.262	140.12
404.471	217.94
404.68	181.07
404.888	70.48
405.097	99.16
405.306	152.4
405.515	181.07
405.724	211.79
405.933	219.99
406.142	152.4
406.35	271.19
406.559	217.94
406.768	316.24
406.977	275.28
407.185	234.32
407.394	281.43
407.603	195.41
407.812	260.95
408.02	273.23
408.229	381.78
408.438	281.43
408.646	219.99
408.855	265.04
409.064	260.95
409.272	183.12
409.481	334.67
409.69	224.08
409.898	291.66
410.107	314.19
410.315	310.1
410.524	383.82
410.733	422.73
410.941	371.54
411.15	349.01
411.358	469.84
411.567	514.89
411.775	455.5
411.984	510.8
412.192	539.47
412.401	494.41
412.609	629.58
412.818	514.89
413.026	594.76
413.234	572.24
413.443	600.91
413.651	598.86
413.86	676.68
414.068	699.21
414.276	750.41
414.485	688.97
414.693	711.5
414.901	891.72
415.11	791.37
415.318	828.23
415.526	879.43
415.734	912.2
415.943	961.35
416.151	963.4
416.359	965.45
416.567	994.12
416.776	1035.08
416.984	1123.14
417.192	1198.92
417.4	1164.1
417.608	1340.22
417.817	1239.87
418.025	1344.32
418.233	1362.75
418.441	1305.41
418.649	1489.73
418.857	1479.49
419.065	1573.69
419.273	1551.17
419.481	1616.7
419.689	1723.2
419.897	1686.33
420.105	1803.07
420.313	1913.66
420.521	1979.19
420.729	1927.99
420.937	1884.98
421.145	2009.91
421.353	2173.75
421.561	2231.09
421.769	2206.52
421.977	2380.59
422.185	2339.63
422.393	2526
422.601	2720.56
422.809	2708.27
423.017	2607.92
423.224	2827.05
423.432	2976.55
423.64	2861.87
423.848	3197.73
424.056	3207.97
424.263	3480.35
424.471	3443.49
424.679	3478.3
424.887	3492.64
425.094	3773.21
425.302	3707.68
425.51	3828.51
425.718	3975.96
425.925	4123.41
426.133	4180.76
426.341	4549.39
426.548	4518.67
426.756	4487.95
426.964	4764.43
427.171	4958.99
427.379	4969.23
427.586	5149.45
427.794	5458.69
428.001	5583.62
428.209	5796.6
428.417	5782.27
428.624	6017.79
428.832	6144.76
429.039	6177.53
429.247	6200.05
429.454	6703.86
429.662	7090.92
429.869	6613.74
430.076	7121.64
430.284	6697.71
430.491	7252.71
430.699	7746.27
430.906	7756.51
431.114	7684.83
431.321	8194.78
431.528	8405.72
431.736	8518.36
431.943	9081.55
432.15	8792.78
432.358	8850.13
432.565	9663.17
432.772	9278.15
432.979	9847.49
433.187	9996.99
433.394	10025.66
433.601	10771.12
433.808	10750.64
434.016	10672.82
434.223	11166.38
434.43	11801.25
434.637	11528.87
434.844	12223.13
435.052	12448.41
435.259	12429.98
435.466	12536.47
435.673	12380.82
435.88	13064.85
436.087	13884.03
436.294	13808.26
436.501	13503.11
436.708	14043.78
436.915	14262.91
437.122	15186.54
437.329	14850.67
437.537	15446.63
437.743	15594.09
437.95	15422.06
438.157	16024.16
438.364	16773.72
438.571	16646.74
438.778	16697.94
438.985	18319.93
439.192	17623.62
439.399	18358.85
439.606	18002.5
439.813	18606.65
440.02	19915.3
440.227	19429.93
440.433	19294.77
440.64	20017.7
440.847	19874.34
441.054	20525.6
441.261	21910.02
441.467	21277.2
441.674	21656.07
441.881	22850.04
442.088	22667.77
442.294	22358.53
442.501	22909.43
442.708	23728.62
442.914	24091.11
443.121	25018.84
443.328	24588.77
443.534	26405.31
443.741	25848.27
443.948	25182.68
444.154	27091.38
444.361	27240.89
444.568	27113.91
444.774	27097.53
444.981	27421.11
445.187	28004.78
445.394	29430.16
445.6	29237.66
445.807	31887.73
446.013	30222.73
446.22	30896.51
446.426	32354.66
446.633	32500.07
446.839	33352.02
447.046	32199.02
447.252	33880.4
447.459	33653.08
447.665	33603.92
447.871	35174.72
448.078	36575.53
448.284	35178.81
448.491	35694.9
448.697	37019.94
448.903	37835.03
449.11	38287.63
449.316	37427.48
449.522	37978.39
449.728	39006.47
449.935	39532.79
450.141	39061.76
450.347	40024.31
450.553	38633.74
450.76	39379.2
450.966	40990.95
451.172	39921.91
451.378	41079.01
451.584	40429.8
451.791	41318.62
451.997	41007.33
452.203	42025.17
452.409	41861.33
452.615	41308.38
452.821	40278.25
453.027	39674.1
453.233	41791.7
453.44	40263.92
453.646	40253.68
453.852	40616.17
454.058	41289.95
454.264	39801.08
454.47	40882.41
454.676	39768.31
454.882	41316.57
455.088	37714.2
455.294	38312.2
455.5	39000.32
455.705	38949.12
455.911	37503.26
456.117	36720.93
456.323	36305.2
456.529	34421.06
456.735	35928.37
456.941	35361.08
457.147	34154.83
457.352	33253.72
457.558	33122.65
457.764	33292.63
457.97	32170.35
458.176	31699.31
458.381	31611.25
458.587	29981.07
458.793	30243.21
458.999	28490.15
459.204	30497.16
459.41	29604.24
459.616	27750.83
459.821	27822.51
460.027	27838.89
460.233	27038.14
460.438	25686.48
460.644	25823.69
460.85	24852.95
461.055	24457.7
461.261	24246.76
461.466	22577.66
461.672	22000.13
461.878	23351.79
462.083	21936.65
462.289	21359.12
462.494	21219.86
462.7	20056.61
462.905	19771.94
463.111	20509.21
463.316	20386.33
463.522	19999.27
463.727	20290.08
463.932	20009.51
464.138	19722.79
464.343	19976.74
464.549	19409.45
464.754	20017.7
464.959	19835.43
465.165	19806.76
465.37	18729.53
465.575	18590.27
465.781	18893.37
465.986	18967.09
466.191	18418.24
466.397	18135.62
466.602	17244.75
466.807	17693.26
467.012	17996.35
467.218	17746.5
467.423	17199.69
467.628	17467.98
467.833	18346.56
468.038	17580.62
468.244	17070.67
468.449	17926.72
468.654	17066.58
468.859	17265.23
469.064	17248.85
469.269	16439.9
469.474	16509.53
469.679	16960.08
469.885	16544.34
470.09	16577.11
470.295	16153.18
470.5	16009.83
470.705	16067.17
470.91	15684.2
471.115	15661.67
471.32	15932
471.525	15604.33
471.73	15286.89
471.935	15495.78
472.139	14842.48
472.344	14989.94
472.549	14740.08
472.754	14774.9
472.959	14414.46
473.164	14090.88
473.369	13859.46
473.574	14484.09
473.778	14273.15
473.983	13843.07
474.188	13965.95
474.393	13208.2
474.598	13441.67
474.802	13281.93
475.007	13142.67
475.212	13144.72
475.417	12663.44
475.621	12712.6
475.826	12716.69
476.031	12612.24
476.235	12128.92
476.44	12417.69
476.645	12206.75
476.849	12096.16
477.054	12077.73
477.259	11829.92
477.463	11795.11
477.668	11528.87
477.872	11618.98
478.077	11678.37
478.282	11315.88
478.486	11362.98
478.691	11154.09
478.895	11043.5
479.1	11162.28
479.304	11184.81
479.509	10660.53
479.713	11031.21
479.918	10736.31
480.122	10382.01
480.326	10728.11
480.531	10889.9
480.735	10549.94
480.94	10513.08
481.144	10793.65
481.348	10285.75
481.553	10406.58
481.757	10234.55
481.961	10279.61
482.166	10615.48
482.37	10414.77
482.574	10021.56
482.778	10177.21
482.983	10508.98
483.187	10498.74
483.391	10287.8
483.595	10183.35
483.8	10162.87
484.004	10203.83
484.208	10285.75
484.412	10212.03
484.616	10336.95
484.821	10134.2
485.025	10285.75
485.229	10332.86
485.433	10144.44
485.637	10289.85
485.841	10001.08
486.045	10289.85
486.249	10343.1
486.453	10148.54
486.657	10250.94
486.861	10334.9
487.065	10160.83
487.269	10295.99
487.473	9884.35
487.677	10343.1
487.881	10314.42
488.085	10064.57
488.289	10259.13
488.493	10166.97
488.697	10121.91
488.901	10234.55
489.105	10029.76
489.309	10295.99
489.512	10222.27
489.716	10343.1
489.92	10304.18
490.124	10109.63
490.328	10439.35
490.531	10076.86
490.735	10351.29
490.939	10506.93
491.143	10375.86
491.346	10349.24
491.55	10584.76
491.754	10566.32
491.958	10410.68
492.161	10447.54
492.365	10613.43
492.569	10472.12
492.772	10496.69
492.976	10660.53
493.18	10619.57
493.383	10924.72
493.587	10842.8
493.79	10875.57
493.994	11127.47
494.197	11111.08
494.401	11143.85
494.605	11037.36
494.808	11186.86
495.012	11332.26
495.215	11420.33
495.419	11195.05
495.622	11512.49
495.825	11592.36
496.029	11637.41
496.232	11741.86
496.436	11717.28
496.639	12126.88
496.843	12047.01
497.046	12159.64
497.249	12149.4
497.453	12214.94
497.656	12556.95
497.859	12518.04
498.063	12513.94
498.266	12817.04
498.469	12628.63
498.673	13019.79
498.876	12907.15
499.079	13259.4
499.282	13253.26
499.485	13415.05
499.689	13650.57
499.892	13597.32
500.095	13929.09
500.298	14080.64
500.501	14006.91
500.705	14355.07
500.908	14391.93
501.111	14768.76
501.314	14772.85
501.517	15037.04
501.72	14807.67
501.923	15039.09
502.126	15460.97
502.329	15655.53
502.532	15833.7
502.735	15714.92
502.938	15888.99
503.141	15833.7
503.344	16366.17
503.547	16321.12
503.75	16646.74
503.953	16601.69
504.156	16966.23
504.359	17248.85
504.562	17113.68
504.765	17519.18
504.968	17668.68
505.17	17975.88
505.373	17711.69
505.576	17959.49
505.779	18393.66
505.982	18309.69
506.185	18596.41
506.387	18819.64
506.59	18934.32
506.793	19296.81
506.996	19110.45
507.198	19796.52
507.401	19747.37
507.604	20197.92
507.807	20269.6
508.009	20419.1
508.212	20640.28
508.415	20834.84
508.617	21139.99
508.82	21121.56
509.022	20998.68
509.225	21809.67
509.428	21879.3
509.63	21789.19
509.833	21973.51
510.035	22536.7
510.238	22635
510.44	22813.18
510.643	22997.49
510.845	23204.34
511.048	23394.8
511.25	23642.6
511.453	23650.8
511.655	24547.81
511.858	24324.58
512.06	24304.1
512.262	24779.23
512.465	24904.15
512.667	25102.81
512.87	25295.32
513.072	25194.96
513.274	25645.52
513.477	26030.54
513.679	26358.21
513.881	26085.83
514.084	26589.63
514.286	26845.63
514.488	27031.99
514.69	27388.34
514.893	27847.08
515.095	27668.91
515.297	27804.08
515.499	28123.56
515.701	28414.37
515.904	28645.79
516.106	28909.98
516.308	29143.45
516.51	29241.75
516.712	29583.76
516.914	29761.94
517.116	30275.98
517.318	30097.8
517.52	30462.34
517.722	30517.64
517.925	30992.76
518.127	31248.76
518.329	31195.51
518.531	31084.92
518.733	31897.97
518.935	32166.25
519.136	32141.67
519.338	32602.47
519.54	32678.24
519.742	32670.05
519.944	32872.8
520.146	33368.41
520.348	33442.14
520.55	33435.99
520.752	33603.92
520.954	34343.24
521.155	33761.62
521.357	34640.2
521.559	34586.95
521.761	35191.1
521.963	34898.24
522.164	35244.35
522.366	35369.27
522.568	35176.76
522.77	35750.2
522.971	36516.14
523.173	35748.15
523.375	36026.67
523.576	35918.13
523.778	36043.06
523.98	36579.62
524.181	36383.02
524.383	36858.15
524.584	37138.72
524.786	37099.81
524.988	36677.93
525.189	37404.95
525.391	37411.1
525.592	37153.05
525.794	37316.89
525.995	37574.94
526.197	37533.98
526.398	37472.54
526.6	37859.6
526.801	38099.22
527.003	37798.16
527.204	38011.15
527.406	38467.85
527.607	37787.92
527.808	38359.31
528.01	38234.38
528.211	38322.44
528.412	38750.47
528.614	38422.8
528.815	38566.15
529.016	38508.81
529.218	38224.14
529.419	38379.79
529.62	38615.3
529.822	38377.74
530.023	38140.18
530.224	38322.44
530.425	38166.8
530.626	37914.9
530.828	37949.71
531.029	38727.94
531.23	38359.31
531.431	38213.9
531.632	38342.92
531.833	38218
532.035	38240.53
532.236	38318.35
532.437	38156.56
532.638	38463.75
532.839	38453.51
533.04	38691.08
533.241	38136.08
533.442	38517
533.643	38041.87
533.844	38160.66
534.045	38394.12
534.246	37906.71
534.447	38183.18
534.648	37992.72
534.849	38220.05
535.05	37652.76
535.251	37789.97
535.451	37761.3
535.652	37906.71
535.853	37892.37
536.054	37949.71
536.255	37978.39
536.456	37687.57
536.657	38234.38
536.857	37759.25
537.058	37499.16
537.259	37441.82
537.46	37765.4
537.66	37581.08
537.861	37810.45
538.062	37531.93
538.263	37247.26
538.463	37450.01
538.664	37216.54
538.865	37349.66
539.065	37337.37
539.266	36999.46
539.466	37609.75
539.667	36854.05
539.868	37890.32
540.068	37331.23
540.269	37216.54
540.469	37572.89
540.67	37380.38
540.87	37300.51
541.071	36628.77
541.271	37108
541.472	36895.01
541.672	36927.78
541.873	36806.95
542.073	36419.88
542.274	37359.9
542.474	36569.38
542.675	36587.82
542.875	37198.11
543.075	37267.74
543.276	36329.77
543.476	37009.7
543.676	36628.77
543.877	36974.88
544.077	36981.03
544.277	36497.7
544.478	36866.34
544.678	37200.16
544.878	36700.45
545.078	36911.39
545.279	36573.48
545.479	36639.01
545.679	36774.18
545.879	36641.06
546.079	36333.87
546.28	36413.74
546.48	36354.35
546.68	36612.39
546.88	36739.36
547.08	36872.48
547.28	36647.21
547.48	36217.13
547.68	36802.85
547.88	36675.88
548.081	36673.83
548.281	36839.72
548.481	36700.45
548.681	36649.25
548.881	36878.63
549.081	36712.74
549.28	36305.2
549.48	36735.27
549.68	36366.63
549.88	37003.55
550.08	36163.89
550.28	36565.29
550.48	36563.24
550.68	36413.74
550.88	36383.02
551.08	36489.51
551.279	36854.05
551.479	36084.01
551.679	36526.38
551.879	36305.2
552.079	36675.88
552.278	36614.44
552.478	36841.76
552.678	36448.55
552.878	36544.81
553.077	36667.69
553.277	36397.35
553.477	36909.35
553.676	36503.85
553.876	36471.08
554.076	36247.85
554.275	36405.55
554.475	36170.03
554.674	36581.67
554.874	36092.21
555.074	36176.17
555.273	36583.72
555.473	36938.02
555.672	36274.48
555.872	36325.68
556.071	36589.86
556.271	36464.94
556.47	36413.74
556.67	36282.67
556.869	36747.56
557.068	36725.03
557.268	36249.9
557.467	36223.28
557.667	36817.19
557.866	36618.53
558.065	36419.88
558.265	36327.72
558.464	36450.6
558.663	36944.16
558.863	35932.47
559.062	36981.03
559.261	36145.45
559.461	36768.04
559.66	36442.41
559.859	36415.79
560.058	36139.31
560.258	36380.97
560.457	36206.89
560.656	36528.42
560.855	36243.76
561.054	36585.77
561.253	36221.23
561.453	36636.97
561.652	36786.47
561.851	36751.65
562.05	36352.3
562.249	36301.1
562.448	36591.91
562.647	36647.21
562.846	35903.79
563.045	36176.17
563.244	35856.69
563.443	36550.95
563.642	35979.57
563.841	36178.22
564.04	36098.35
564.239	36682.02
564.438	35787.06
564.637	36204.84
564.836	36190.51
565.035	35780.92
565.234	36038.96
565.432	35848.5
565.631	35981.62
565.83	35969.33
566.029	35901.75
566.228	35551.54
566.427	35594.55
566.625	35443
566.824	35526.97
567.023	35770.68
567.222	35451.19
567.42	35612.98
567.619	35414.33
567.818	35250.49
568.016	35359.03
568.215	35451.19
568.414	35242.3
568.612	35678.52
568.811	35203.39
569.01	35096.89
569.208	34844.99
569.407	34888
569.605	34451.78
569.804	34988.35
570.002	34554.18
570.201	34857.28
570.4	34621.77
570.598	34498.89
570.797	34257.23
570.995	34715.97
571.193	34203.98
571.392	34435.4
571.59	34107.72
571.789	34380.1
571.987	34001.23
572.186	34273.61
572.384	33818.96
572.582	34050.38
572.781	34197.84
572.979	33458.52
573.177	33821.01
573.376	33972.56
573.574	33698.13
573.772	33878.35
573.971	33419.61
574.169	33304.92
574.367	32602.47
574.565	33358.17
574.763	33007.97
574.962	33077.6
575.16	32731.49
575.358	32999.77
575.556	32702.82
575.754	32913.76
575.952	32526.69
576.151	33053.02
576.349	32223.59
576.547	32051.56
576.745	32401.77
576.943	32037.23
577.141	32153.96
577.339	32344.42
577.537	31961.45
577.735	31975.79
577.933	31867.25
578.131	31881.58
578.329	31574.39
578.527	31338.87
578.725	31684.98
578.923	31465.85
579.121	31254.9
579.319	31390.07
579.516	31797.62
579.714	31596.92
579.912	31086.97
580.11	31056.25
580.308	31086.97
580.506	30869.89
580.704	30570.88
580.901	30955.9
581.099	31242.62
581.297	30677.38
581.495	30574.98
581.692	30505.35
581.89	30460.29
582.088	30247.3
582.285	30185.86
582.483	30509.44
582.681	30476.68
582.878	30161.29
583.076	29813.13
583.274	30079.37
583.471	29577.62
583.669	29864.33
583.866	29864.33
584.064	29723.02
584.262	29260.18
584.459	29766.03
584.657	29393.3
584.854	29456.79
585.052	29428.12
585.249	29034.91
585.447	29168.02
585.644	29034.91
585.841	28928.41
586.039	29096.35
586.236	28500.39
586.434	28623.26
586.631	28617.12
586.828	28461.48
587.026	28869.02
587.223	28545.44
587.42	28613.02
587.618	28823.97
587.815	28193.19
588.012	28275.11
588.21	28361.12
588.407	28350.88
588.604	28176.81
588.801	27965.87
588.999	27976.11
589.196	27949.48
589.393	27883.95
589.59	27957.67
589.787	27808.17
589.984	27842.99
590.182	27425.2
590.379	27445.68
590.576	27992.49
590.773	27822.51
590.97	27206.07
591.167	27574.7
591.364	26833.34
591.561	27181.49
591.758	27115.96
591.955	27060.66
592.152	27378.1
592.349	27300.28
592.546	27091.38
592.743	27107.77
592.94	26649.02
593.137	27115.96
593.334	27079.1
593.531	26732.99
593.727	26671.55
593.924	27019.71
594.121	26479.04
594.318	26556.86
594.515	26296.77
594.712	26800.57
594.908	26558.91
595.105	26321.35
595.302	26384.83
595.499	26272.2
595.696	26429.89
595.892	26020.3
596.089	26317.25
596.286	26120.65
596.482	26130.89
596.679	26108.36
596.876	26202.57
597.072	26132.93
597.269	26202.57
597.466	25752.01
597.662	25676.24
597.859	25379.28
598.055	25874.89
598.252	25770.44
598.448	25821.64
598.645	25592.27
598.841	25797.07
599.038	25627.09
599.234	25813.45
599.431	25393.62
599.627	25965
599.824	25217.49
600.02	25592.27
600.217	25461.2
600.413	25604.56
600.609	25391.57
600.806	25205.2
601.002	25694.67
601.198	25321.94
601.395	25493.97
601.591	25475.54
601.787	25246.16
601.984	25530.83
602.18	25645.52
602.376	25225.68
602.572	25250.26
602.769	25305.56
602.965	25084.37
603.161	25289.17
603.357	25076.18
603.553	25504.21
603.75	25340.37
603.946	25051.61
604.142	25285.08
604.338	24967.64
604.534	25547.22
604.73	25043.42
604.926	25186.77
605.122	25225.68
605.318	24879.58
605.514	24881.63
605.71	24775.13
605.906	25088.47
606.102	24977.88
606.298	25330.13
606.494	25297.36
606.69	25342.42
606.886	25692.62
607.082	24947.16
607.278	25201.11
607.474	24998.36
607.67	25000.41
607.866	24644.06
608.062	25571.79
608.257	25252.31
608.453	25221.59
608.649	25383.38
608.845	25154.01
609.041	25565.65
609.236	25420.24
609.432	25266.64
609.628	25483.73
609.824	25252.31
610.019	25354.71
610.215	25416.15
610.411	25577.94
610.606	25129.43
610.802	25403.86
610.998	25192.92
611.193	25410
611.389	24967.64
611.584	25518.54
611.78	25307.6
611.976	25197.01
612.171	25622.99
612.367	25262.55
612.562	25295.32
612.758	25129.43
612.953	25369.04
613.149	25475.54
613.344	25366.99
613.539	25704.91
613.735	25481.68
613.93	25450.96
614.126	25375.19
614.321	25711.05
614.517	25373.14
614.712	25545.17
614.907	25141.72
615.103	25575.89
615.298	25145.81
615.493	25592.27
615.688	25063.89
615.884	25702.86
616.079	25035.22
616.274	25473.49
616.47	25493.97
616.665	25483.73
616.86	25168.34
617.055	25268.69
617.25	25471.44
617.445	25651.66
617.641	24734.17
617.836	25332.18
618.031	25010.65
618.226	25225.68
618.421	25035.22
618.616	25201.11
618.811	24963.54
619.006	25051.61
619.201	24543.71
619.396	24721.88
619.591	24676.83
619.786	24764.89
619.981	24418.78
620.176	24846.81
620.371	24353.25
620.566	24615.39
620.761	24431.07
620.956	24568.29
621.151	24130.02
621.346	24533.47
621.541	23831.02
621.735	24064.49
621.93	23581.17
622.125	23675.37
622.32	23763.43
622.515	23634.41
622.709	23857.64
622.904	23544.3
623.099	23364.08
623.294	23036.41
623.488	22927.86
623.683	23204.34
623.878	22968.82
624.072	23052.79
624.267	22807.03
624.462	22702.59
624.656	22399.49
624.851	22551.04
625.046	22194.69
625.24	22454.78
625.435	22112.77
625.629	21959.17
625.824	21830.15
626.018	21891.59
626.213	21375.5
626.407	21352.98
626.602	21203.47
626.796	21432.85
626.991	21410.32
627.185	21217.81
627.38	21121.56
627.574	20687.39
627.768	20976.15
627.963	20998.68
628.157	20648.47
628.352	20828.7
628.546	20441.63
628.74	20240.93
628.935	20316.7
629.129	20083.23
629.323	19978.79
629.517	19735.08
629.712	19749.42
629.906	19759.66
630.1	19403.31
630.294	19644.97
630.489	19302.96
630.683	19644.97
630.877	18803.25
631.071	19175.98
631.265	18967.09
631.459	18883.13
631.653	18969.14
631.848	18743.86
632.042	18661.94
632.236	18952.76
632.43	18545.21
632.624	18334.27
632.818	18518.59
633.012	18254.4
633.206	18152
633.4	18166.34
633.594	17906.24
633.788	18029.12
633.982	17750.6
634.176	17871.43
634.369	17689.16
634.563	17771.08
634.757	17300.05
634.951	17461.83
635.145	17203.79
635.339	17451.6
635.533	17179.22
635.726	17175.12
635.92	16968.27
636.114	17254.99
636.308	16867.92
636.501	16759.38
636.695	16929.36
636.889	16761.43
637.083	16335.45
637.276	16341.6
637.47	16386.65
637.664	16173.66
637.857	16310.88
638.051	15856.23
638.244	15921.76
638.438	15835.75
638.632	15768.16
638.825	15686.25
639.019	15694.44
639.212	15626.85
639.406	15411.82
639.599	15420.01
639.793	15422.06
639.986	14908.02
640.18	15112.81
640.373	15194.73
640.567	14774.9
640.76	14742.13
640.954	14613.11
641.147	14588.53
641.34	14535.29
641.534	14725.75
641.727	14449.27
641.92	14443.13
642.114	14346.87
642.307	14207.61
642.5	14035.58
642.694	13986.43
642.887	13953.66
643.08	14060.16
643.273	13783.68
643.467	13699.72
643.66	13585.03
643.853	13484.68
644.046	13318.79
644.239	13380.23
644.432	13253.26
644.626	12984.98
644.819	13281.93
645.012	13245.07
645.205	13070.99
645.398	12898.96
645.591	12954.26
645.784	12726.93
645.977	12651.16
646.17	12790.42
646.363	12595.86
646.556	12266.14
646.749	12282.52
646.942	12229.27
647.135	12077.73
647.328	12356.25
647.521	12130.97
647.714	11801.25
647.907	12028.57
648.099	11973.28
648.292	12028.57
648.485	11758.24
648.678	11686.56
648.871	11799.2
649.064	11504.29
649.256	11659.94
649.449	11592.36
649.642	11324.07
649.835	11268.78
650.027	11229.87
650.22	11133.61
650.413	11322.02
650.605	11016.88
650.798	11037.36
650.991	11023.02
651.183	10928.81
651.376	10660.53
651.568	10586.8
651.761	10820.27
651.954	10631.86
652.146	10603.19
652.339	10783.41
652.531	10605.24
652.724	10255.03
652.916	10271.42
653.109	10427.06
653.301	10375.86
653.494	10242.75
653.686	9996.99
653.879	10326.71
654.071	10007.23
654.263	9941.69
654.456	10218.17
654.648	9970.37
654.84	9784
655.033	9812.67
655.225	9745.09
655.417	9644.74
655.61	9575.11
655.802	9519.81
655.994	9386.69
656.186	9528
656.379	9333.45
656.571	9448.13
656.763	9480.9
656.955	9263.82
657.148	9157.32
657.34	9288.39
657.532	9079.5
657.724	9013.96
657.916	9050.83
658.108	8968.91
658.3	8899.28
658.492	8876.75
658.684	8852.17
658.876	8694.48
659.068	8858.32
659.26	8721.1
659.452	8796.88
659.644	8653.52
659.836	8624.85
660.028	8356.57
660.22	8334.04
660.412	8434.39
660.604	8407.77
660.796	8327.89
660.988	8295.13
661.18	8254.17
661.372	8166.1
661.563	8198.87
661.755	7922.4
661.947	8043.23
662.139	7981.79
662.331	7969.5
662.522	7989.98
662.714	7727.84
662.906	7629.54
663.097	7705.31
663.289	7811.81
663.481	7797.47
663.673	7645.92
663.864	7607.01
664.056	7547.62
664.247	7477.99
664.439	7389.92
664.631	7451.36
664.822	7289.57
665.014	7441.12
665.205	7285.48
665.397	7166.7
665.588	7129.83
665.78	7365.35
665.971	7080.68
666.163	7066.35
666.354	7164.65
666.546	7084.78
666.737	7074.54
666.929	6912.75
667.12	6986.47
667.311	6843.12
667.503	6716.14
667.694	6740.72
667.885	6900.46
668.077	6728.43
668.268	6601.46
668.459	6757.1
668.651	6595.31
668.842	6675.18
669.033	6572.79
669.224	6523.63
669.416	6478.58
669.607	6425.33
669.798	6462.19
669.989	6451.95
670.18	6413.04
670.371	6347.51
670.563	6290.17
670.754	6427.38
670.945	6157.05
671.136	6333.17
671.327	6171.38
671.518	6232.82
671.709	6306.55
671.9	6224.63
672.091	6128.38
672.282	6234.87
672.473	5991.16
672.664	6155
672.855	5917.44
673.046	5884.67
673.237	6097.66
673.428	6007.55
673.619	5913.34
673.809	5819.13
674	5896.96
674.191	6066.94
674.382	5737.21
674.573	5731.07
674.764	5884.67
674.954	5804.8
675.145	5649.15
675.336	5606.14
675.527	5606.14
675.717	5606.14
675.908	5503.75
676.099	5628.67
676.289	5620.48
676.48	5544.7
676.671	5450.5
676.861	5622.53
677.052	5479.17
677.243	5395.2
677.433	5399.3
677.624	5491.46
677.814	5536.51
678.005	5325.57
678.195	5450.5
678.386	5454.59
678.576	5231.37
678.767	5292.8
678.957	5364.48
679.148	5452.55
679.338	5331.72
679.529	5317.38
679.719	5270.28
679.909	5454.59
680.1	5274.37
680.29	5286.66
680.481	5319.43
680.671	5348.1
680.861	5116.68
681.052	5360.39
681.242	5057.29
681.432	5237.51
681.622	5008.14
681.813	5335.81
682.003	5321.48
682.193	5139.21
682.383	5114.63
682.573	5116.68
682.764	5180.17
682.954	5036.81
683.144	4942.6
683.334	5049.1
683.524	4999.95
683.714	5020.42
683.904	4846.35
684.094	5016.33
684.284	4963.08
684.474	4963.08
684.664	4885.26
684.854	5010.18
685.044	4999.95
685.234	4684.56
685.424	4903.69
685.614	4844.3
685.804	4836.11
685.994	4983.56
686.184	4758.28
686.374	4872.97
686.564	4698.89
686.753	5032.71
686.943	4721.42
687.133	4780.81
687.323	4713.23
687.513	4696.85
687.702	4893.45
687.892	4623.12
688.082	4737.81
688.272	4715.28
688.461	4684.56
688.651	4584.21
688.841	4571.92
689.03	4576.02
689.22	4573.97
689.41	4616.97
689.599	4614.93
689.789	4492.05
689.979	4508.43
690.168	4610.83
690.358	4557.58
690.547	4512.53
690.737	4547.34
690.926	4508.43
691.116	4215.57
691.305	4606.74
691.495	4461.33
691.684	4473.62
691.874	4403.99
692.063	4426.51
692.252	4401.94
692.442	4328.21
692.631	4256.53
692.82	4266.77
693.01	4336.4
693.199	4350.74
693.388	4158.23
693.578	4225.81
693.767	4346.64
693.956	4279.06
694.146	4246.29
694.335	4094.74
694.524	4107.03
694.713	4170.52
694.902	4274.96
695.092	4309.78
695.281	4164.37
695.47	4018.97
695.659	4074.26
695.848	4051.74
696.037	4078.36
696.226	4176.66
696.415	4074.26
696.604	4086.55
696.793	4008.73
696.982	4033.3
697.171	4018.97
697.36	3994.39
697.549	4121.37
697.738	3832.6
697.927	4092.69
698.116	3906.33
698.305	3914.52
698.494	3863.32
698.683	3967.77
698.872	3943.19
699.061	3992.34
699.25	3767.07
699.438	3928.86
699.627	3838.75
699.816	3926.81
700.005	3732.25
700.193	3869.47
700.382	3836.7
700.571	3693.34
700.76	3740.44
700.948	3865.37
701.137	3853.08
701.326	3646.24
701.514	3754.78
701.703	3707.68
701.892	3730.2
702.08	3707.68
702.269	3679.01
702.457	3601.18
702.646	3674.91
702.834	3685.15
703.023	3687.2
703.212	3527.46
703.4	3656.48
703.589	3566.37
703.777	3705.63
703.965	3584.8
704.154	3498.78
704.342	3615.52
704.531	3468.06
704.719	3560.22
704.907	3570.46
705.096	3533.6
705.284	3556.13
705.472	3543.84
705.661	3552.03
705.849	3431.2
706.037	3476.26
706.226	3494.69
706.414	3375.91
706.602	3363.62
706.79	3461.92
706.979	3494.69
707.167	3482.4
707.355	3341.09
707.543	3361.57
707.731	3336.99
707.919	3308.32
708.107	3248.93
708.296	3289.89
708.484	3220.26
708.672	3308.32
708.86	3199.78
709.048	3353.38
709.236	3271.46
709.424	3224.36
709.612	3279.65
709.8	3232.55
709.988	3179.3
710.176	3160.87
710.364	3216.16
710.551	3236.64
710.739	3042.09
710.927	3187.49
711.115	3279.65
711.303	3138.34
711.491	3164.97
711.679	3183.4
711.866	3160.87
712.054	3144.49
712.242	3029.8
712.43	3140.39
712.617	2960.17
712.805	2980.65
712.993	3132.2
713.181	2984.74
713.368	2847.53
713.556	2984.74
713.744	2982.7
713.931	3087.14
714.119	2929.45
714.306	2962.22
714.494	2831.15
714.682	2886.44
714.869	2835.24
715.057	2951.98
715.244	2849.58
715.432	3093.29
715.619	2837.29
715.807	2798.38
715.994	2865.96
716.182	2761.52
716.369	2888.49
716.556	2779.95
716.744	2790.19
716.931	2771.76
717.119	2726.7
717.306	2794.28
717.493	2820.91
717.681	2775.85
717.868	2698.03
718.055	2788.14
718.242	2796.33
718.43	2689.84
718.617	2755.37
718.804	2685.74
718.991	2698.03
719.179	2751.28
719.366	2681.64
719.553	2659.12
719.74	2689.84
719.927	2528.05
720.114	2603.82
720.301	2562.86
720.488	2575.15
720.676	2552.62
720.863	2648.88
721.05	2577.2
721.237	2624.3
721.424	2542.38
721.611	2603.82
721.798	2558.77
721.985	2622.25
722.172	2577.2
722.358	2429.74
722.545	2607.92
722.732	2648.88
722.919	2583.34
723.106	2497.33
723.293	2519.85
723.48	2435.89
723.667	2333.49
723.853	2454.32
724.04	2501.42
724.227	2444.08
724.414	2534.19
724.6	2411.31
724.787	2409.26
724.974	2474.8
725.161	2399.02
725.347	2263.86
725.534	2399.02
725.72	2468.66
725.907	2470.7
726.094	2308.91
726.28	2304.82
726.467	2239.28
726.653	2347.83
726.84	2370.35
727.027	2288.43
727.213	2329.39
727.4	2237.24
727.586	2284.34
727.773	2313.01
727.959	2294.58
728.145	2227
728.332	2290.48
728.518	2136.88
728.705	2233.14
728.891	2140.98
729.077	2214.71
729.264	2204.47
729.45	2222.9
729.636	2247.48
729.823	2296.63
730.009	2222.9
730.195	2169.65
730.382	2181.94
730.568	2124.6
730.754	2085.69
730.94	2167.6
731.126	2140.98
731.313	2108.21
731.499	2132.79
731.685	2229.04
731.871	2057.01
732.057	2083.64
732.243	2120.5
732.429	2079.54
732.615	2063.16
732.801	2044.73
732.987	2120.5
733.173	1962.81
733.359	2161.46
733.545	2077.49
733.731	2085.69
733.917	2059.06
734.103	2075.45
734.289	2134.84
734.475	1962.81
734.661	2083.64
734.847	2059.06
735.033	2026.29
735.219	1981.24
735.404	2016.05
735.59	1993.53
735.776	1993.53
735.962	1995.57
736.148	1946.42
736.333	2014.01
736.519	1936.18
736.705	1854.27
736.89	1913.66
737.076	1966.9
737.262	2069.3
737.447	1940.28
737.633	1905.46
737.819	1782.59
738.004	1985.34
738.19	1772.35
738.375	1815.35
738.561	1960.76
738.747	1952.57
738.932	1854.27
739.118	1966.9
739.303	1833.79
739.489	1891.13
739.674	1821.5
739.859	1706.81
740.045	1979.19
740.23	1844.03
740.416	1809.21
740.601	1796.92
740.786	1739.58
740.972	1794.87
741.157	1870.65
741.342	1721.15
741.528	1837.88
741.713	1725.24
741.898	1698.62
742.084	1731.39
742.269	1733.43
742.454	1723.2
742.639	1801.02
742.824	1540.93
743.01	1704.76
743.195	1694.52
743.38	1610.56
743.565	1651.52
743.75	1694.52
743.935	1764.15
744.12	1620.8
744.305	1614.65
744.49	1608.51
744.675	1641.28
744.86	1706.81
745.045	1571.65
745.23	1577.79
745.415	1577.79
745.6	1450.82
745.785	1616.7
745.97	1608.51
746.155	1579.84
746.34	1497.92
746.525	1616.7
746.71	1524.54
746.895	1465.15
747.079	1403.71
747.264	1401.66
747.449	1526.59
747.634	1446.72
747.819	1497.92
748.003	1430.34
748.188	1487.68
748.373	1416
748.557	1502.01
748.742	1473.34
748.927	1379.14
749.111	1325.89
749.296	1364.8
749.481	1381.18
749.665	1383.23
749.85	1485.63
750.034	1313.6
750.219	1297.22
750.404	1272.64
750.588	1289.03
750.773	1248.07
750.957	1354.56
751.141	1241.92
751.326	1323.84
751.51	1325.89
751.695	1203.01
751.879	1254.21
752.064	1321.79
752.248	1254.21
752.432	1241.92
752.617	1162.05
752.801	1305.41
752.985	1207.11
753.17	1282.88
753.354	1215.3
753.538	1239.87
753.722	1192.77
753.907	1194.82
754.091	1211.2
754.275	1084.23
754.459	1133.38
754.643	1190.72
754.828	1129.28
755.012	1112.9
755.196	1051.46
755.38	969.54
755.564	1051.46
755.748	1006.41
755.932	1078.08
756.116	1092.42
756.3	1010.5
756.484	990.02
756.668	1055.56
756.852	1014.6
757.036	977.73
757.22	969.54
757.404	953.16
757.588	1108.8
757.772	983.88
757.956	1037.13
758.14	1057.61
758.323	969.54
758.507	1055.56
758.691	947.01
758.875	963.4
759.059	998.21
759.242	963.4
759.426	959.3
759.61	910.15
759.794	990.02
759.977	998.21
760.161	1141.57
760.345	936.78
760.528	1035.08
760.712	1030.98
760.895	850.76
761.079	936.78
761.263	916.3
761.446	824.14
761.63	856.9
761.813	895.82
761.997	764.75
762.18	852.81
762.364	834.38
762.547	893.77
762.731	879.43
762.914	904.01
763.098	852.81
763.281	883.53
763.464	838.47
763.648	803.66
763.831	807.75
764.015	861
764.198	863.05
764.381	799.56
764.564	809.8
764.748	817.99
764.931	840.52
765.114	707.4
765.297	789.32
765.481	797.51
765.664	811.85
765.847	797.51
766.03	774.99
766.213	742.22
766.397	797.51
766.58	715.59
766.763	781.13
766.946	756.55
767.129	764.75
767.312	672.59
767.495	764.75
767.678	752.46
767.861	813.9
768.044	764.75
768.227	729.93
768.41	748.36
768.593	815.94
768.776	748.36
768.959	717.64
769.142	691.02
769.324	746.31
769.507	715.59
769.69	666.44
769.873	729.93
770.056	760.65
770.239	668.49
770.421	807.75
770.604	774.99
770.787	766.79
770.97	699.21
771.152	727.88
771.335	748.36
771.518	699.21
771.7	725.83
771.883	711.5
772.066	684.87
772.248	701.26
772.431	709.45
772.613	738.12
772.796	738.12
772.978	691.02
773.161	650.06
773.343	535.37
773.526	664.4
773.708	609.1
773.891	703.31
774.073	725.83
774.256	748.36
774.438	723.79
774.621	625.48
774.803	535.37
774.985	607.05
775.168	660.3
775.35	551.76
775.532	715.59
775.715	650.06
775.897	572.24
776.079	621.39
776.261	674.64
776.444	578.38
776.626	584.52
776.808	549.71
776.99	562
777.173	602.96
777.355	633.68
777.537	541.52
777.719	502.61
777.901	543.57
778.083	514.89
778.265	494.41
778.447	645.96
778.629	502.61
778.811	551.76
778.993	510.8
779.175	539.47
779.357	547.66
779.539	480.08
779.721	551.76
779.903	502.61
780.085	611.15
780.267	580.43
780.449	494.41
780.631	557.9
780.812	510.8
780.994	486.22
781.176	441.17
781.358	496.46
781.54	455.5
781.721	486.22
781.903	553.8
782.085	416.59
782.267	600.91
782.448	363.34
782.63	463.69
782.812	432.97
782.993	465.74
783.175	469.84
783.357	398.16
783.538	475.98
783.72	445.26
783.901	359.25
784.083	480.08
784.264	453.45
784.446	330.58
784.627	392.02
784.809	437.07
784.99	371.54
785.172	400.21
785.353	373.58
785.535	396.11
785.716	353.1
785.897	385.87
786.079	373.58
786.26	451.41
786.441	351.06
786.623	299.86
786.804	445.26
786.985	330.58
787.167	314.19
787.348	316.24
787.529	375.63
787.71	301.9
787.891	312.14
788.073	318.29
788.254	346.96
788.435	336.72
788.616	306
788.797	308.05
788.978	314.19
789.159	297.81
789.34	351.06
789.522	363.34
789.703	224.08
789.884	256.85
790.065	281.43
790.246	371.54
790.427	295.76
790.607	381.78
790.788	344.91
790.969	240.47
791.15	346.96
791.331	314.19
791.512	265.04
791.693	236.37
791.874	338.77
792.054	383.82
792.235	338.77
792.416	367.44
792.597	224.08
792.778	332.62
792.958	330.58
793.139	301.9
793.32	207.7
793.5	250.71
793.681	396.11
793.862	265.04
794.042	191.31
794.223	285.52
794.404	224.08
794.584	273.23
794.765	271.19
794.945	248.66
795.126	314.19
795.306	301.9
795.487	287.57
795.667	293.71
795.848	283.47
796.028	222.03
796.209	209.75
796.389	248.66
796.57	234.32
796.75	269.14
796.93	273.23
797.111	176.98
797.291	267.09
797.471	258.9
797.652	193.36
797.832	248.66
798.012	273.23
798.192	320.34
798.373	240.47
798.553	195.41
798.733	289.62
798.913	238.42
799.093	279.38
799.274	199.51
799.454	201.55
799.634	187.22
799.814	256.85
799.994	244.56
800.174	215.89
800.354	224.08
800.534	269.14
800.714	250.71
800.894	215.89
801.074	207.7
801.254	224.08
801.434	215.89
801.614	228.18
801.794	129.88
801.974	922.44
802.154	181.07
802.334	215.89
802.514	138.07
802.693	154.45
802.873	201.55
803.053	222.03
803.233	160.59
803.413	160.59
803.592	80.72
803.772	174.93
803.952	170.83
804.131	176.98
804.311	207.7
804.491	176.98
804.67	101.2
804.85	176.98
805.03	183.12
805.209	228.18
805.389	129.88
805.568	111.44
805.748	158.55
805.928	191.31
806.107	174.93
806.287	154.45
806.466	174.93
806.646	101.2
806.825	189.27
807.004	146.26
807.184	152.4
807.363	174.93
807.543	101.2
807.722	174.93
807.901	176.98
808.081	146.26
808.26	43.86
808.439	88.92
808.619	150.36
808.798	101.2
808.977	207.7
809.156	158.55
809.336	125.78
809.515	236.37
809.694	109.4
809.873	142.16
810.052	160.59
810.231	191.31
810.411	121.68
810.59	179.03
810.769	99.16
810.948	133.97
811.127	142.16
811.306	84.82
811.485	97.11
811.664	240.47
811.843	119.64
812.022	197.46
812.201	70.48
812.38	95.06
812.559	150.36
812.737	136.02
812.916	109.4
813.095	115.54
813.274	101.2
813.453	136.02
813.632	136.02
813.811	191.31
813.989	84.82
814.168	154.45
814.347	144.21
814.526	101.2
814.704	166.74
814.883	185.17
815.062	150.36
815.24	154.45
815.419	95.06
815.598	205.65
815.776	37.72
815.955	43.86
816.133	99.16
816.312	158.55
816.49	97.11
816.669	70.48
816.847	103.25
817.026	119.64
817.204	183.12
817.383	105.3
817.561	127.83
817.74	150.36
817.918	133.97
818.097	121.68
818.275	27.48
818.453	176.98
818.632	86.87
818.81	101.2
818.988	68.44
819.167	101.2
819.345	117.59
819.523	109.4
819.701	88.92
819.879	160.59
820.058	60.24
820.236	111.44
820.414	162.64
820.592	47.96
820.77	19.29
820.948	93.01
821.127	86.87
821.305	54.1
821.483	119.64
821.661	176.98
821.839	74.58
822.017	125.78
822.195	111.44
822.373	117.59
822.551	45.91
822.729	93.01
822.907	113.49
823.085	117.59
823.262	11.09
823.44	88.92
823.618	129.88
823.796	97.11
823.974	80.72
824.152	52.05
824.329	84.82
824.507	47.96
824.685	88.92
824.863	117.59
825.04	111.44
825.218	109.4
825.396	121.68
825.574	76.63
825.751	109.4
825.929	154.45
826.107	31.57
826.284	109.4
826.462	70.48
826.639	52.05
826.817	68.44
826.994	-1.19
827.172	60.24
827.349	109.4
827.527	121.68
827.704	103.25
827.882	107.35
828.059	60.24
828.237	93.01
828.414	9.05
828.591	66.39
828.769	62.29
828.946	29.52
829.124	29.52
829.301	150.36
829.478	80.72
829.655	47.96
829.833	-19.63
830.01	68.44
830.187	60.24
830.364	31.57
830.542	76.63
830.719	113.49
830.896	-3.24
831.073	84.82
831.25	93.01
831.427	125.78
831.604	33.62
831.782	27.48
831.959	105.3
832.136	-3.24
832.313	60.24
832.49	68.44
832.667	111.44
832.844	39.76
833.021	101.2
833.198	-19.63
833.374	82.77
833.551	58.2
833.728	-5.29
833.905	17.24
834.082	-29.87
834.259	43.86
834.436	-3.24
834.612	-29.87
834.789	93.01
834.966	23.38
835.143	41.81
835.319	-3.24
835.496	82.77
835.673	72.53
835.85	64.34
836.026	84.82
836.203	74.58
836.38	43.86
836.556	113.49
836.733	107.35
836.909	121.68
837.086	-21.67
837.262	15.19
837.439	84.82
837.616	31.57
837.792	45.91
837.968	50
838.145	11.09
838.321	64.34
838.498	43.86
838.674	78.68
838.851	17.24
839.027	52.05
839.203	43.86
839.38	21.33
839.556	-13.48
839.732	68.44
839.909	43.86
840.085	45.91
840.261	29.52
840.437	60.24
840.614	35.67
840.79	129.88
840.966	19.29
841.142	56.15
841.318	27.48
841.494	2.9
841.671	35.67
841.847	76.63
842.023	-38.06
842.199	45.91
842.375	50
842.551	4.95
842.727	68.44
842.903	60.24
843.079	37.72
843.255	72.53
843.431	52.05
843.607	21.33
843.783	-21.67
843.959	103.25
844.134	39.76
844.31	84.82
844.486	-17.58
844.662	-17.58
844.838	13.14
845.013	-13.48
845.189	56.15
845.365	52.05
845.541	25.43
845.716	27.48
845.892	88.92
846.068	56.15
846.244	54.1
846.419	-33.96
846.595	23.38
846.77	4.95
846.946	27.48
847.122	21.33
847.297	-42.15
847.473	45.91
847.648	11.09
847.824	39.76
847.999	-9.39
848.175	41.81
848.35	101.2
848.526	39.76
848.701	15.19
848.876	121.68
849.052	54.1
849.227	7
849.403	-27.82
849.578	45.91
849.753	60.24
849.929	68.44
850.104	-58.54
850.279	-21.67
850.454	58.2
850.63	56.15
850.805	31.57
850.98	31.57
851.155	70.48
851.33	4.95
851.505	84.82
851.681	86.87
851.856	101.2
852.031	29.52
852.206	27.48
852.381	-29.87
852.556	29.52
852.731	21.33
852.906	111.44
853.081	4.95
853.256	125.78
853.431	54.1
853.606	-29.87
853.781	11.09
853.956	-3.24
854.131	0.85
854.305	-103.59
854.48	-3.24
854.655	-31.91
854.83	-19.63
855.005	7
855.18	-17.58
855.354	-13.48
855.529	74.58
855.704	19.29
855.879	60.24
856.053	-93.35
856.228	45.91
856.403	-42.15
856.577	27.48
856.752	-79.02
856.926	-56.49
857.101	99.16
857.276	-21.67
857.45	2.9
857.625	-1.19
857.799	-3.24
857.974	-19.63
858.148	-17.58
858.323	19.29
858.497	15.19
858.672	29.52
858.846	39.76
859.02	43.86
859.195	0.85
859.369	-19.63
859.543	50
859.718	-3.24
859.892	72.53
860.066	39.76
860.241	76.63
860.415	-111.78
860.589	-19.63
860.763	76.63
860.938	15.19
861.112	60.24
861.286	21.33
861.46	9.05
861.634	93.01
861.808	7
861.982	-54.44
862.157	-50.35
862.331	15.19
862.505	-5.29
862.679	-13.48
862.853	-1.19
863.027	-38.06
863.201	97.11
863.375	-13.48
863.549	72.53
863.722	17.24
863.896	97.11
864.07	11.09
864.244	33.62
864.418	50
864.592	43.86
864.766	-50.35
864.939	29.52
865.113	-27.82
865.287	9.05
865.461	35.67
865.634	13.14
865.808	-40.11
865.982	-29.87
866.156	-50.35
866.329	-76.97
866.503	99.16
866.676	2.9
866.85	-50.35
867.024	4.95
867.197	-29.87
867.371	31.57
867.544	64.34
867.718	-25.77
867.891	-9.39
868.065	-85.16
868.238	-54.44
868.412	41.81
868.585	-25.77
868.759	11.09
868.932	11.09
869.105	-50.35
869.279	19.29
869.452	27.48
869.625	-31.91
869.799	13.14
869.972	52.05
870.145	-5.29
870.319	101.2
870.492	37.72
870.665	-5.29
870.838	-50.35
871.011	-23.72
871.185	-87.21
871.358	21.33
871.531	76.63
871.704	-13.48
871.877	-29.87
872.05	-66.73
872.223	-11.43
872.396	107.35
872.569	-23.72
872.742	7
872.915	19.29
873.088	2.9
873.261	-66.73
873.434	41.81
873.607	-44.2
873.78	45.91
873.953	-38.06
874.126	4.95
874.299	27.48
874.471	-3.24
874.644	4.95
874.817	50
874.99	31.57
875.163	13.14
875.335	2.9
875.508	-17.58
875.681	-1.19
875.853	-1.19
876.026	9.05
876.199	31.57
876.371	76.63
876.544	-33.96
876.717	7
876.889	-13.48
877.062	54.1
877.234	-52.39
877.407	25.43
877.579	19.29
877.752	11.09
877.924	-21.67
878.097	31.57
878.269	-29.87
878.442	31.57
878.614	-48.3
878.786	9.05
878.959	43.86
879.131	58.2
879.303	-91.31
879.476	-33.96
879.648	80.72
879.82	-21.67
879.993	-19.63
880.165	27.48
880.337	-44.2
880.509	-54.44
880.681	-52.39
880.854	-19.63
881.026	29.52
881.198	-29.87
881.37	-33.96
881.542	-27.82
881.714	-46.25
881.886	11.09
882.058	-33.96
882.23	-29.87
882.402	-23.72
882.574	29.52
882.746	27.48
882.918	-25.77
883.09	78.68
883.262	29.52
883.434	-44.2
883.606	-87.21
883.778	4.95
883.95	35.67
884.122	-27.82
884.293	27.48
884.465	11.09
884.637	27.48
884.809	-11.43
884.98	-27.82
885.152	76.63
885.324	29.52
885.496	-54.44
885.667	-70.83
885.839	35.67
886.011	93.01
886.182	-54.44
886.354	47.96
886.525	-38.06
886.697	60.24
886.869	-15.53
887.04	-27.82
887.212	99.16
887.383	103.25
887.555	-13.48
887.726	-64.68
887.897	11.09
888.069	4.95
888.24	2.9
888.412	27.48
888.583	-29.87
888.754	37.72
888.926	11.09
889.097	2.9
889.268	23.38
889.44	-42.15
889.611	-5.29
889.782	-70.83
889.953	-3.24
890.125	-1.19
890.296	-25.77
890.467	9.05
890.638	-21.67
890.809	15.19
890.98	-9.39
891.151	60.24
891.323	35.67
891.494	-13.48
891.665	33.62
891.836	2.9
892.007	2.9
892.178	-5.29
892.349	-23.72
892.52	-60.59
892.691	9.05
892.862	-11.43
893.032	-70.83
893.203	-36.01
893.374	13.14
893.545	43.86
893.716	-21.67
893.887	2.9
894.057	41.81
894.228	-105.64
894.399	-97.45
894.57	-9.39
894.74	-50.35
894.911	2.9
895.082	0.85
895.253	2.9
895.423	-1.19
895.594	27.48
895.764	-64.68
895.935	-46.25
896.106	15.19
896.276	11.09
896.447	-29.87
896.617	-76.97
896.788	-3.24
896.958	21.33
897.129	-7.34
897.299	-36.01
897.47	15.19
897.64	2.9
897.81	54.1
897.981	29.52
898.151	-38.06
898.322	-15.53
898.492	-13.48
898.662	-17.58
898.832	-42.15
899.003	-13.48
899.173	-62.63
899.343	-5.29
899.513	-1.19
