Data from USB4F104151__57__14-30-05-355.txt Node

Date: Thu Mar 13 14:30:05 EDT 2025
User: louis
Spectrometer: USB4F10415
Trigger mode: 4
Integration Time (sec): 2.500000E-2
Scans to average: 1
Electric dark correction enabled: true
Nonlinearity correction enabled: false
Boxcar width: 0
XAxis mode: Wavelengths
Number of Pixels in Spectrum: 3648
>>>>>Begin Spectral Data<<<<<
178.204	-94.89
178.424	-94.89
178.644	-94.89
178.864	-137.9
179.084	-115.37
179.304	-12.97
179.524	-10.92
179.744	-29.35
179.964	38.23
180.184	7.51
180.404	13.65
180.624	-0.68
180.844	27.99
181.064	-27.31
181.283	64.85
181.503	-62.12
181.723	-8.87
181.943	-53.93
182.163	122.2
182.383	-41.64
182.602	1.37
182.822	114
183.042	48.47
183.262	-4.78
183.482	44.37
183.701	-27.31
183.921	-17.07
184.141	44.37
184.361	109.91
184.58	56.66
184.8	68.95
185.02	-35.5
185.239	101.72
185.459	87.38
185.679	-15.02
185.898	-33.45
186.118	32.08
186.338	19.8
186.557	87.38
186.777	-2.73
186.997	-4.78
187.216	46.42
187.436	128.34
187.655	17.75
187.875	52.56
188.095	71
188.314	85.33
188.534	56.66
188.753	-21.16
188.973	46.42
189.192	103.76
189.412	-29.35
189.631	62.8
189.851	5.46
190.07	62.8
190.29	42.32
190.509	62.8
190.729	73.04
190.948	71
191.168	111.96
191.387	120.15
191.607	-64.17
191.826	15.7
192.045	64.85
192.265	32.08
192.484	-0.68
192.704	-41.64
192.923	5.46
193.142	27.99
193.362	-10.92
193.581	99.67
193.8	85.33
194.02	64.85
194.239	85.33
194.458	138.58
194.678	107.86
194.897	56.66
195.116	5.46
195.335	136.53
195.555	40.28
195.774	101.72
195.993	77.14
196.212	46.42
196.432	13.65
196.651	85.33
196.87	-25.26
197.089	161.11
197.308	11.61
197.528	42.32
197.747	60.76
197.966	44.37
198.185	71
198.404	-19.11
198.623	56.66
198.842	77.14
199.062	36.18
199.281	71
199.5	21.85
199.719	1.37
199.938	11.61
200.157	62.8
200.376	40.28
200.595	68.95
200.814	85.33
201.033	101.72
201.252	109.91
201.471	5.46
201.69	-2.73
201.909	52.56
202.128	73.04
202.347	-2.73
202.566	-2.73
202.785	-29.35
203.004	-53.93
203.223	114
203.442	79.19
203.661	85.33
203.879	56.66
204.098	75.09
204.317	-27.31
204.536	171.35
204.755	23.89
204.974	7.51
205.193	21.85
205.411	89.43
205.63	85.33
205.849	9.56
206.068	27.99
206.287	11.61
206.505	114
206.724	19.8
206.943	-25.26
207.162	-78.51
207.381	122.2
207.599	40.28
207.818	27.99
208.037	81.24
208.255	11.61
208.474	66.9
208.693	19.8
208.911	32.08
209.13	85.33
209.349	7.51
209.567	109.91
209.786	101.72
210.005	44.37
210.223	77.14
210.442	21.85
210.661	-0.68
210.879	40.28
211.098	-21.16
211.316	3.41
211.535	101.72
211.753	46.42
211.972	21.85
212.191	3.41
212.409	3.41
212.628	54.61
212.846	54.61
213.065	23.89
213.283	13.65
213.502	11.61
213.72	13.65
213.938	85.33
214.157	32.08
214.375	11.61
214.594	25.94
214.812	62.8
215.031	11.61
215.249	52.56
215.467	79.19
215.686	54.61
215.904	42.32
216.122	-41.64
216.341	75.09
216.559	-2.73
216.778	40.28
216.996	85.33
217.214	44.37
217.432	11.61
217.651	40.28
217.869	-2.73
218.087	-12.97
218.306	97.62
218.524	64.85
218.742	-27.31
218.96	7.51
219.179	30.04
219.397	58.71
219.615	73.04
219.833	-4.78
220.051	44.37
220.27	48.47
220.488	56.66
220.706	75.09
220.924	52.56
221.142	-53.93
221.36	52.56
221.578	3.41
221.796	-8.87
222.015	-27.31
222.233	73.04
222.451	122.2
222.669	75.09
222.887	27.99
223.105	-21.16
223.323	93.52
223.541	32.08
223.759	42.32
223.977	-12.97
224.195	99.67
224.413	11.61
224.631	77.14
224.849	60.76
225.067	83.28
225.285	46.42
225.503	79.19
225.721	9.56
225.939	15.7
226.157	48.47
226.375	60.76
226.592	25.94
226.81	21.85
227.028	85.33
227.246	152.92
227.464	68.95
227.682	62.8
227.9	38.23
228.117	79.19
228.335	42.32
228.553	-2.73
228.771	64.85
228.989	109.91
229.206	126.29
229.424	36.18
229.642	64.85
229.86	42.32
230.077	-21.16
230.295	68.95
230.513	23.89
230.731	52.56
230.948	97.62
231.166	144.72
231.384	7.51
231.601	23.89
231.819	52.56
232.037	44.37
232.254	38.23
232.472	71
232.689	-4.78
232.907	54.61
233.125	-4.78
233.342	77.14
233.56	52.56
233.777	-0.68
233.995	64.85
234.213	27.99
234.43	-2.73
234.648	19.8
234.865	23.89
235.083	11.61
235.3	97.62
235.518	38.23
235.735	122.2
235.953	27.99
236.17	109.91
236.388	44.37
236.605	-23.21
236.822	68.95
237.04	46.42
237.257	64.85
237.475	15.7
237.692	54.61
237.909	68.95
238.127	27.99
238.344	52.56
238.562	11.61
238.779	-19.11
238.996	52.56
239.214	44.37
239.431	89.43
239.648	46.42
239.865	-2.73
240.083	126.29
240.3	134.48
240.517	-53.93
240.735	-2.73
240.952	101.72
241.169	58.71
241.386	25.94
241.603	11.61
241.821	-4.78
242.038	54.61
242.255	66.9
242.472	21.85
242.689	44.37
242.907	52.56
243.124	120.15
243.341	44.37
243.558	95.57
243.775	66.9
243.992	38.23
244.209	159.06
244.426	48.47
244.643	83.28
244.86	27.99
245.078	62.8
245.295	19.8
245.512	40.28
245.729	56.66
245.946	48.47
246.163	136.53
246.38	79.19
246.597	32.08
246.814	15.7
247.031	34.13
247.248	101.72
247.464	87.38
247.681	15.7
247.898	7.51
248.115	105.81
248.332	68.95
248.549	126.29
248.766	97.62
248.983	68.95
249.2	60.76
249.417	97.62
249.633	103.76
249.85	19.8
250.067	-39.59
250.284	3.41
250.501	38.23
250.717	85.33
250.934	50.52
251.151	30.04
251.368	-29.35
251.585	48.47
251.801	-0.68
252.018	73.04
252.235	109.91
252.451	11.61
252.668	77.14
252.885	89.43
253.102	89.43
253.318	32.08
253.535	-35.5
253.752	30.04
253.968	-2.73
254.185	118.1
254.401	68.95
254.618	38.23
254.835	-2.73
255.051	44.37
255.268	58.71
255.484	73.04
255.701	36.18
255.917	79.19
256.134	27.99
256.351	60.76
256.567	46.42
256.784	36.18
257	15.7
257.217	83.28
257.433	42.32
257.65	64.85
257.866	-8.87
258.082	30.04
258.299	73.04
258.515	48.47
258.732	52.56
258.948	32.08
259.165	77.14
259.381	-0.68
259.597	27.99
259.814	60.76
260.03	11.61
260.246	79.19
260.463	11.61
260.679	83.28
260.895	66.9
261.112	101.72
261.328	109.91
261.544	-4.78
261.761	75.09
261.977	13.65
262.193	44.37
262.409	46.42
262.626	-19.11
262.842	48.47
263.058	11.61
263.274	-51.88
263.49	-19.11
263.707	73.04
263.923	-17.07
264.139	77.14
264.355	44.37
264.571	9.56
264.787	68.95
265.004	87.38
265.22	11.61
265.436	44.37
265.652	56.66
265.868	77.14
266.084	3.41
266.3	38.23
266.516	44.37
266.732	68.95
266.948	-2.73
267.164	40.28
267.38	30.04
267.596	-8.87
267.812	114
268.028	11.61
268.244	-12.97
268.46	-33.45
268.676	1.37
268.892	68.95
269.108	44.37
269.324	-23.21
269.54	-27.31
269.756	77.14
269.972	25.94
270.188	-4.78
270.403	52.56
270.619	48.47
270.835	46.42
271.051	99.67
271.267	-21.16
271.483	103.76
271.698	87.38
271.914	44.37
272.13	46.42
272.346	56.66
272.562	23.89
272.777	105.81
272.993	-8.87
273.209	83.28
273.425	36.18
273.64	54.61
273.856	64.85
274.072	54.61
274.287	89.43
274.503	25.94
274.719	77.14
274.934	52.56
275.15	-62.12
275.366	-58.03
275.581	62.8
275.797	44.37
276.012	75.09
276.228	38.23
276.444	27.99
276.659	152.92
276.875	13.65
277.09	118.1
277.306	19.8
277.521	27.99
277.737	97.62
277.952	27.99
278.168	58.71
278.383	101.72
278.599	48.47
278.814	93.52
279.03	48.47
279.245	126.29
279.461	-47.79
279.676	120.15
279.892	19.8
280.107	44.37
280.322	68.95
280.538	-8.87
280.753	60.76
280.969	103.76
281.184	122.2
281.399	38.23
281.615	46.42
281.83	54.61
282.045	40.28
282.26	66.9
282.476	68.95
282.691	87.38
282.906	23.89
283.122	105.81
283.337	60.76
283.552	44.37
283.767	5.46
283.983	77.14
284.198	-12.97
284.413	44.37
284.628	-115.37
284.843	64.85
285.058	73.04
285.274	85.33
285.489	52.56
285.704	103.76
285.919	-12.97
286.134	-27.31
286.349	40.28
286.564	40.28
286.779	109.91
286.995	44.37
287.21	-43.69
287.425	46.42
287.64	-0.68
287.855	36.18
288.07	-19.11
288.285	105.81
288.5	60.76
288.715	-21.16
288.93	99.67
289.145	5.46
289.36	54.61
289.575	89.43
289.79	77.14
290.004	25.94
290.219	50.52
290.434	-23.21
290.649	52.56
290.864	60.76
291.079	23.89
291.294	79.19
291.509	95.57
291.724	-4.78
291.938	93.52
292.153	60.76
292.368	1.37
292.583	111.96
292.798	77.14
293.012	56.66
293.227	56.66
293.442	32.08
293.657	38.23
293.871	87.38
294.086	5.46
294.301	142.68
294.516	93.52
294.73	52.56
294.945	-21.16
295.16	27.99
295.374	142.68
295.589	85.33
295.804	13.65
296.018	62.8
296.233	79.19
296.447	44.37
296.662	60.76
296.877	103.76
297.091	132.44
297.306	36.18
297.52	27.99
297.735	36.18
297.949	83.28
298.164	46.42
298.378	116.05
298.593	5.46
298.807	-107.18
299.022	95.57
299.236	58.71
299.451	30.04
299.665	27.99
299.88	77.14
300.094	126.29
300.309	1.37
300.523	11.61
300.737	46.42
300.952	36.18
301.166	134.48
301.381	3.41
301.595	54.61
301.809	-19.11
302.024	-35.5
302.238	17.75
302.452	54.61
302.667	44.37
302.881	60.76
303.095	85.33
303.309	32.08
303.524	60.76
303.738	38.23
303.952	30.04
304.166	40.28
304.381	-78.51
304.595	60.76
304.809	-10.92
305.023	5.46
305.237	15.7
305.452	23.89
305.666	46.42
305.88	89.43
306.094	85.33
306.308	71
306.522	77.14
306.736	9.56
306.95	60.76
307.164	-29.35
307.379	-0.68
307.593	77.14
307.807	89.43
308.021	128.34
308.235	128.34
308.449	-0.68
308.663	32.08
308.877	126.29
309.091	114
309.305	68.95
309.519	13.65
309.733	36.18
309.947	-111.27
310.161	44.37
310.374	89.43
310.588	52.56
310.802	-17.07
311.016	-4.78
311.23	13.65
311.444	21.85
311.658	103.76
311.872	-6.83
312.085	87.38
312.299	52.56
312.513	19.8
312.727	64.85
312.941	30.04
313.154	101.72
313.368	44.37
313.582	7.51
313.796	103.76
314.009	83.28
314.223	120.15
314.437	21.85
314.651	77.14
314.864	120.15
315.078	54.61
315.292	71
315.505	-10.92
315.719	114
315.933	52.56
316.146	7.51
316.36	-35.5
316.573	5.46
316.787	89.43
317.001	23.89
317.214	25.94
317.428	91.48
317.641	-4.78
317.855	81.24
318.068	58.71
318.282	68.95
318.495	128.34
318.709	111.96
318.922	46.42
319.136	7.51
319.349	109.91
319.563	-17.07
319.776	79.19
319.99	-12.97
320.203	85.33
320.417	105.81
320.63	85.33
320.843	109.91
321.057	19.8
321.27	7.51
321.483	23.89
321.697	38.23
321.91	54.61
322.124	134.48
322.337	83.28
322.55	15.7
322.763	15.7
322.977	15.7
323.19	46.42
323.403	46.42
323.617	54.61
323.83	105.81
324.043	27.99
324.256	38.23
324.469	60.76
324.683	36.18
324.896	73.04
325.109	21.85
325.322	-4.78
325.535	77.14
325.748	81.24
325.962	27.99
326.175	77.14
326.388	21.85
326.601	68.95
326.814	30.04
327.027	50.52
327.24	111.96
327.453	-10.92
327.666	140.63
327.879	32.08
328.092	36.18
328.305	142.68
328.518	93.52
328.731	19.8
328.944	79.19
329.157	62.8
329.37	89.43
329.583	58.71
329.796	83.28
330.009	60.76
330.222	95.57
330.435	27.99
330.648	62.8
330.861	-8.87
331.073	15.7
331.286	60.76
331.499	19.8
331.712	-10.92
331.925	36.18
332.138	64.85
332.35	62.8
332.563	21.85
332.776	48.47
332.989	27.99
333.202	27.99
333.414	-0.68
333.627	87.38
333.84	13.65
334.053	122.2
334.265	60.76
334.478	128.34
334.691	11.61
334.903	91.48
335.116	75.09
335.329	167.25
335.541	44.37
335.754	130.39
335.966	46.42
336.179	19.8
336.392	56.66
336.604	126.29
336.817	56.66
337.029	25.94
337.242	-25.26
337.454	64.85
337.667	111.96
337.88	64.85
338.092	54.61
338.305	122.2
338.517	21.85
338.729	122.2
338.942	150.87
339.154	32.08
339.367	1.37
339.579	64.85
339.792	46.42
340.004	118.1
340.217	68.95
340.429	30.04
340.641	27.99
340.854	77.14
341.066	25.94
341.278	85.33
341.491	93.52
341.703	32.08
341.915	3.41
342.128	32.08
342.34	44.37
342.552	79.19
342.764	36.18
342.977	68.95
343.189	140.63
343.401	124.24
343.613	105.81
343.826	66.9
344.038	-12.97
344.25	3.41
344.462	179.54
344.674	27.99
344.886	46.42
345.099	109.91
345.311	50.52
345.523	30.04
345.735	44.37
345.947	27.99
346.159	-0.68
346.371	87.38
346.583	73.04
346.795	71
347.007	3.41
347.219	38.23
347.431	52.56
347.643	134.48
347.855	11.61
348.067	50.52
348.279	15.7
348.491	-21.16
348.703	62.8
348.915	48.47
349.127	-29.35
349.339	103.76
349.551	5.46
349.763	116.05
349.975	48.47
350.187	3.41
350.399	152.92
350.61	89.43
350.822	77.14
351.034	66.9
351.246	60.76
351.458	122.2
351.669	101.72
351.881	73.04
352.093	30.04
352.305	44.37
352.517	89.43
352.728	71
352.94	-37.55
353.152	79.19
353.363	44.37
353.575	11.61
353.787	150.87
353.999	46.42
354.21	87.38
354.422	60.76
354.633	11.61
354.845	56.66
355.057	13.65
355.268	56.66
355.48	-8.87
355.692	34.13
355.903	114
356.115	19.8
356.326	-0.68
356.538	122.2
356.749	30.04
356.961	89.43
357.172	73.04
357.384	-4.78
357.595	103.76
357.807	97.62
358.018	46.42
358.23	71
358.441	97.62
358.653	126.29
358.864	103.76
359.075	54.61
359.287	40.28
359.498	109.91
359.709	68.95
359.921	48.47
360.132	38.23
360.344	83.28
360.555	93.52
360.766	101.72
360.977	77.14
361.189	134.48
361.4	11.61
361.611	52.56
361.823	124.24
362.034	81.24
362.245	13.65
362.456	77.14
362.667	27.99
362.879	83.28
363.09	27.99
363.301	38.23
363.512	79.19
363.723	77.14
363.935	40.28
364.146	60.76
364.357	30.04
364.568	81.24
364.779	60.76
364.99	111.96
365.201	77.14
365.412	44.37
365.623	62.8
365.834	40.28
366.045	27.99
366.256	105.81
366.467	15.7
366.678	52.56
366.889	77.14
367.1	85.33
367.311	83.28
367.522	62.8
367.733	75.09
367.944	89.43
368.155	30.04
368.366	109.91
368.577	87.38
368.788	15.7
368.999	44.37
369.209	11.61
369.42	136.53
369.631	103.76
369.842	122.2
370.053	64.85
370.264	36.18
370.474	52.56
370.685	50.52
370.896	30.04
371.107	101.72
371.317	36.18
371.528	56.66
371.739	81.24
371.95	85.33
372.16	44.37
372.371	23.89
372.582	44.37
372.792	89.43
373.003	62.8
373.214	-4.78
373.424	30.04
373.635	7.51
373.846	111.96
374.056	71
374.267	48.47
374.477	60.76
374.688	3.41
374.898	19.8
375.109	124.24
375.319	7.51
375.53	146.77
375.74	46.42
375.951	21.85
376.161	1.37
376.372	62.8
376.582	15.7
376.793	105.81
377.003	58.71
377.214	68.95
377.424	89.43
377.635	179.54
377.845	52.56
378.055	64.85
378.266	-6.83
378.476	87.38
378.686	126.29
378.897	85.33
379.107	83.28
379.317	97.62
379.528	60.76
379.738	85.33
379.948	3.41
380.158	134.48
380.369	136.53
380.579	44.37
380.789	81.24
380.999	91.48
381.21	62.8
381.42	83.28
381.63	101.72
381.84	62.8
382.05	52.56
382.261	136.53
382.471	64.85
382.681	68.95
382.891	87.38
383.101	38.23
383.311	36.18
383.521	71
383.731	85.33
383.941	150.87
384.151	-29.35
384.361	17.75
384.571	15.7
384.781	11.61
384.991	154.96
385.201	144.72
385.411	54.61
385.621	17.75
385.831	52.56
386.041	7.51
386.251	111.96
386.461	200.02
386.671	3.41
386.881	122.2
387.091	30.04
387.301	23.89
387.511	118.1
387.72	60.76
387.93	73.04
388.14	64.85
388.35	7.51
388.56	132.44
388.769	161.11
388.979	42.32
389.189	62.8
389.399	105.81
389.609	105.81
389.818	191.83
390.028	126.29
390.238	79.19
390.447	50.52
390.657	75.09
390.867	122.2
391.076	9.56
391.286	-0.68
391.496	83.28
391.705	132.44
391.915	132.44
392.125	27.99
392.334	-0.68
392.544	152.92
392.753	142.68
392.963	-27.31
393.172	58.71
393.382	-53.93
393.591	169.3
393.801	48.47
394.01	122.2
394.22	81.24
394.429	52.56
394.639	195.92
394.848	11.61
395.058	38.23
395.267	107.86
395.477	179.54
395.686	73.04
395.895	101.72
396.105	224.59
396.314	81.24
396.524	175.44
396.733	56.66
396.942	97.62
397.152	144.72
397.361	75.09
397.57	128.34
397.78	183.63
397.989	64.85
398.198	193.87
398.407	83.28
398.617	27.99
398.826	134.48
399.035	111.96
399.244	109.91
399.453	220.5
399.663	175.44
399.872	159.06
400.081	93.52
400.29	144.72
400.499	101.72
400.708	222.55
400.917	154.96
401.127	95.57
401.336	161.11
401.545	163.15
401.754	187.73
401.963	216.4
402.172	193.87
402.381	85.33
402.59	142.68
402.799	167.25
403.008	175.44
403.217	175.44
403.426	179.54
403.635	142.68
403.844	277.84
404.053	185.68
404.262	183.63
404.471	257.36
404.68	142.68
404.888	204.11
405.097	185.68
405.306	212.31
405.515	167.25
405.724	226.64
405.933	185.68
406.142	191.83
406.35	232.79
406.559	187.73
406.768	191.83
406.977	326.99
407.185	259.41
407.394	249.17
407.603	259.41
407.812	316.75
408.02	320.85
408.229	349.52
408.438	308.56
408.646	279.89
408.855	310.61
409.064	339.28
409.272	234.83
409.481	367.95
409.69	259.41
409.898	310.61
410.107	384.34
410.315	396.62
410.524	374.1
410.733	466.25
410.941	466.25
411.15	429.39
411.358	519.5
411.567	591.18
411.775	359.76
411.984	535.89
412.192	544.08
412.401	462.16
412.609	650.57
412.818	652.62
413.026	548.17
413.234	597.32
413.443	546.13
413.651	693.58
413.86	675.15
414.068	699.72
414.276	793.93
414.485	742.73
414.693	871.75
414.901	867.66
415.11	884.04
415.318	910.66
415.526	906.57
415.734	957.77
415.943	955.72
416.151	1004.87
416.359	1029.45
416.567	1107.27
416.776	1004.87
416.984	1267.01
417.192	1240.39
417.4	1187.14
417.608	1150.28
417.817	1289.54
418.025	1281.35
418.233	1453.38
418.441	1432.9
418.649	1473.85
418.857	1531.2
419.065	1527.1
419.273	1488.19
419.481	1686.84
419.689	1766.71
419.897	1832.25
420.105	1817.91
420.313	1871.16
420.521	1994.04
420.729	1989.94
420.937	2061.62
421.145	2200.88
421.353	2215.22
421.561	2493.74
421.769	2323.76
421.977	2567.47
422.185	2475.31
422.393	2645.29
422.601	2700.59
422.809	2702.64
423.017	2778.41
423.224	2960.68
423.432	2981.16
423.64	3042.6
423.848	3413.28
424.056	3167.53
424.263	3501.34
424.471	3558.69
424.679	3521.82
424.887	3652.89
425.094	3790.11
425.302	3898.65
425.51	3902.75
425.718	4087.06
425.925	4115.73
426.133	4410.64
426.341	4551.95
426.548	4730.13
426.756	4746.51
426.964	4701.45
427.171	4990.22
427.379	5119.24
427.586	5315.84
427.794	5403.91
428.001	5793.02
428.209	5905.66
428.417	5803.26
428.624	6106.36
428.832	6302.97
429.039	6053.11
429.247	6214.9
429.454	6868.2
429.662	7245.03
429.869	6681.84
430.076	7218.41
430.284	7064.81
430.491	7249.13
430.699	7838.94
430.906	7754.98
431.114	7754.98
431.321	8082.65
431.528	8185.05
431.736	8920.27
431.943	9018.57
432.15	9055.44
432.358	9155.79
432.565	9551.04
432.772	9483.46
432.979	10054.84
433.187	10132.67
433.394	10312.89
433.601	10964.14
433.808	10855.6
434.016	10996.91
434.223	11435.17
434.43	12139.68
434.637	11785.38
434.844	12702.87
435.052	12641.43
435.259	12721.3
435.466	12770.45
435.673	12397.72
435.88	13536.39
436.087	13896.83
436.294	13980.8
436.501	13626.5
436.708	13923.46
436.915	14568.57
437.122	14992.5
437.329	15094.9
437.537	15584.36
437.743	15846.5
437.95	15645.8
438.157	16434.27
438.364	17015.89
438.571	16911.44
438.778	17198.16
438.985	18986.04
439.192	18101.31
439.399	18576.44
439.606	18072.64
439.813	18902.07
440.02	20390.94
440.227	19909.67
440.433	19733.54
440.64	20466.72
440.847	20175.91
441.054	20616.22
441.261	21707.79
441.467	21799.94
441.674	22098.95
441.881	23116.79
442.088	22914.04
442.294	22625.28
442.501	23262.19
442.708	23643.12
442.914	24658.91
443.121	25553.87
443.328	25084.89
443.534	26692.54
443.741	26039.24
443.948	25603.02
444.154	27497.39
444.361	27038.65
444.568	27485.11
444.774	27554.74
444.981	27810.73
445.187	28679.07
445.394	29905.81
445.6	29590.42
445.807	32170.86
446.013	30923.65
446.22	31495.03
446.426	32662.37
446.633	33088.35
446.839	33911.63
447.046	32490.34
447.252	34497.35
447.459	34511.69
447.665	34442.06
447.871	35744.56
448.078	37008.16
448.284	35562.29
448.491	36479.78
448.697	37733.14
448.903	38339.34
449.11	38720.26
449.316	37780.24
449.522	38720.26
449.728	39764.73
449.935	39981.81
450.141	39895.8
450.347	40970.98
450.553	39695.1
450.76	40243.95
450.966	41110.24
451.172	40751.85
451.378	42083.03
451.584	40993.51
451.791	41880.28
451.997	42085.08
452.203	42474.19
452.409	42904.26
452.615	42179.28
452.821	40946.4
453.027	40704.74
453.233	42433.23
453.44	40583.91
453.646	41345.76
453.852	41368.29
454.058	42105.55
454.264	40985.32
454.47	41616.09
454.676	40491.76
454.882	42410.7
455.088	38646.54
455.294	38949.64
455.5	39478.01
455.705	40049.39
455.911	38320.91
456.117	37569.3
456.323	37258.01
456.529	35320.63
456.735	36649.77
456.941	35859.25
457.147	35291.96
457.352	34161.48
457.558	33930.06
457.764	34063.18
457.97	33223.51
458.176	32586.6
458.381	32873.31
458.587	30921.6
458.793	31177.59
458.999	29547.41
459.204	31509.36
459.41	30657.41
459.616	28126.12
459.821	28367.78
460.027	28167.08
460.233	27607.98
460.438	26287.04
460.644	26897.34
460.85	25271.25
461.055	24980.44
461.261	25068.5
461.466	23231.47
461.672	22410.24
461.878	23964.65
462.083	22662.14
462.289	21869.58
462.494	21675.02
462.7	20841.5
462.905	20153.38
463.111	21230.61
463.316	20913.17
463.522	20436
463.727	20737.05
463.932	20399.13
464.138	20321.31
464.343	20110.37
464.549	19489.84
464.754	20089.89
464.959	20233.25
465.165	19969.06
465.37	19149.87
465.575	18719.8
465.781	19268.66
465.986	19633.19
466.191	18832.44
466.397	18361.41
466.602	17181.78
466.807	18252.86
467.012	18017.35
467.218	17970.24
467.423	17906.76
467.628	17884.23
467.833	18459.71
468.038	17898.56
468.244	17636.42
468.449	18015.3
468.654	17462.35
468.859	17286.22
469.064	17022.03
469.269	16565.34
469.474	16647.26
469.679	16759.89
469.885	16362.59
470.09	16565.34
470.295	16841.81
470.5	16325.72
470.705	16202.85
470.91	15869.03
471.115	15891.55
471.32	15922.27
471.525	15445.1
471.73	15496.3
471.935	15658.09
472.139	15066.22
472.344	15203.44
472.549	14967.92
472.754	14861.43
472.959	14396.54
473.164	14224.51
473.369	14038.14
473.574	14640.25
473.778	14320.76
473.983	14161.02
474.188	14015.62
474.393	13534.34
474.598	13583.49
474.802	13462.66
475.007	13534.34
475.212	13128.84
475.417	12895.38
475.621	12768.4
475.826	12979.34
476.031	12680.34
476.235	12356.76
476.44	12487.83
476.645	12299.42
476.849	12373.14
477.054	12315.8
477.259	12057.76
477.463	12135.58
477.668	11932.83
477.872	11857.06
478.077	11695.27
478.282	11451.56
478.486	11316.39
478.691	11300.01
478.895	11193.51
479.1	11144.36
479.304	11240.62
479.509	10792.11
479.713	11228.33
479.918	10888.37
480.122	10413.24
480.326	10583.22
480.531	10702
480.735	10382.52
480.94	10620.08
481.144	10826.93
481.348	10308.79
481.553	10282.17
481.757	10128.57
481.961	10409.14
482.166	10536.12
482.37	10538.16
482.574	10212.54
482.778	10259.64
482.983	10474.68
483.187	10321.08
483.391	10380.47
483.595	10159.29
483.8	10026.17
484.004	10294.46
484.208	10183.87
484.412	10097.85
484.616	10472.63
484.821	10261.69
485.025	10073.28
485.229	10247.35
485.433	10112.19
485.637	10335.42
485.841	10177.72
486.045	9993.4
486.249	10077.37
486.453	9888.96
486.657	10159.29
486.861	10110.14
487.065	9829.57
487.269	9915.58
487.473	9811.14
487.677	10271.93
487.881	10202.3
488.085	10255.54
488.289	10181.82
488.493	10169.53
488.697	10300.6
488.901	10163.39
489.105	10308.79
489.309	10120.38
489.512	10347.7
489.716	10187.96
489.92	10200.25
490.124	10020.03
490.328	10212.54
490.531	10099.9
490.735	10427.57
490.939	10505.4
491.143	10280.12
491.346	10263.74
491.55	10525.88
491.754	10210.49
491.958	10542.26
492.161	10654.9
492.365	10607.8
492.569	10316.98
492.772	10489.01
492.976	10480.82
493.18	10671.28
493.383	10790.06
493.587	10505.4
493.79	10960.05
493.994	10669.23
494.197	10925.23
494.401	11015.34
494.605	10835.12
494.808	11091.12
495.012	11015.34
495.215	10976.43
495.419	11326.63
495.622	11209.9
495.825	11361.45
496.029	11343.02
496.232	11603.11
496.436	11603.11
496.639	12012.7
496.843	11762.85
497.046	11908.26
497.249	12209.31
497.453	12266.65
497.656	12385.43
497.859	12213.4
498.063	12594.33
498.266	12579.99
498.469	12434.58
498.673	12713.11
498.876	12926.1
499.079	13098.13
499.282	12885.14
499.485	13376.65
499.689	13405.32
499.892	13526.15
500.095	13309.07
500.298	13755.52
500.501	13661.32
500.705	14120.06
500.908	14210.17
501.111	14230.65
501.314	14283.9
501.517	14515.32
501.72	14859.38
501.923	14845.04
502.126	15035.5
502.329	15223.92
502.532	15254.64
502.735	15406.19
502.938	15527.02
503.141	15758.44
503.344	16096.35
503.547	15989.86
503.75	15967.33
503.953	16589.91
504.156	16714.84
504.359	16680.02
504.562	16995.41
504.765	17224.78
504.968	17321.04
505.17	17372.24
505.373	17755.21
505.576	17835.08
505.779	17898.56
505.982	18244.67
506.185	18549.82
506.387	18318.4
506.59	18846.77
506.793	19018.8
506.996	19016.76
507.198	19160.11
507.401	19293.23
507.604	19551.27
507.807	19852.33
508.009	20059.17
508.212	20204.58
508.415	20388.89
508.617	20411.42
508.82	20728.86
509.022	20708.38
509.225	21081.11
509.428	21464.08
509.63	21632.01
509.833	21482.51
510.035	22047.75
510.238	22019.08
510.44	22410.24
510.643	22799.35
510.845	22832.12
511.048	22537.21
511.25	23145.46
511.453	23206.9
511.655	24138.72
511.858	23413.74
512.06	23886.82
512.262	24431.58
512.465	24245.22
512.667	24581.09
512.87	24794.08
513.072	24914.91
513.274	25594.83
513.477	25508.82
513.679	25758.67
513.881	26309.57
514.084	26153.93
514.286	26086.34
514.488	26416.07
514.69	27220.92
514.893	27134.9
515.095	27102.14
515.297	27745.2
515.499	27632.56
515.701	27698.09
515.904	28378.02
516.106	28468.13
516.308	28568.48
516.51	28865.44
516.712	29066.14
516.914	29195.16
517.116	29639.57
517.318	29774.74
517.52	29602.71
517.722	29979.53
517.925	30382.98
518.127	30657.41
518.329	30841.73
518.531	30413.7
518.733	31325.05
518.935	31574.9
519.136	31484.79
519.338	31820.66
519.54	32205.67
519.742	32265.07
519.944	32467.81
520.146	32695.14
520.348	33149.79
520.55	33024.86
520.752	33227.61
520.954	33629.01
521.155	33520.47
521.357	33917.78
521.559	34141
521.761	34708.29
521.963	33948.5
522.164	34429.77
522.366	34653
522.568	34820.93
522.77	35119.93
522.971	35453.75
523.173	34853.7
523.375	34999.1
523.576	35676.98
523.778	35384.12
523.98	35885.87
524.181	36031.28
524.383	36295.47
524.584	36287.28
524.786	36332.33
524.988	36043.57
525.189	36834.08
525.391	36629.29
525.592	36821.8
525.794	36715.3
525.995	37053.22
526.197	36766.5
526.398	37178.14
526.6	37268.25
526.801	37272.35
527.003	37344.03
527.204	37425.95
527.406	37577.5
527.607	37720.85
527.808	37700.37
528.01	37088.03
528.211	37737.24
528.412	38138.64
528.614	37563.16
528.815	37903.12
529.016	37964.56
529.218	37804.82
529.419	37786.39
529.62	37780.24
529.822	37538.58
530.023	37870.36
530.224	37716.76
530.425	37397.27
530.626	37630.74
530.828	37319.45
531.029	38480.65
531.23	37710.61
531.431	37260.06
531.632	37982.99
531.833	37837.59
532.035	37694.23
532.236	37618.46
532.437	38048.53
532.638	37233.44
532.839	37559.06
533.04	37757.72
533.241	37151.52
533.442	37671.7
533.643	37430.04
533.844	37266.2
534.045	37397.27
534.246	37032.74
534.447	36942.63
534.648	37223.2
534.849	37178.14
535.05	36901.67
535.251	37354.27
535.451	37100.32
535.652	37024.54
535.853	37024.54
536.054	37317.4
536.255	37081.89
536.456	36586.28
536.657	37315.36
536.857	36825.89
537.058	36850.47
537.259	36705.06
537.46	36766.5
537.66	36250.41
537.861	36504.36
538.062	36545.32
538.263	36883.23
538.463	36404.01
538.664	36430.63
538.865	36555.56
539.065	36520.74
539.266	36369.19
539.466	36748.07
539.667	36057.9
539.868	36213.55
540.068	36127.53
540.269	36322.09
540.469	36182.83
540.67	36092.72
540.87	36010.8
541.071	36209.45
541.271	36340.52
541.472	36037.42
541.672	36090.67
541.873	35883.83
542.073	35674.93
542.274	36537.13
542.474	35867.44
542.675	35609.4
542.875	36031.28
543.075	36215.6
543.276	35523.38
543.476	36029.23
543.676	35568.44
543.877	35908.4
544.077	35955.5
544.277	35654.45
544.478	35670.84
544.678	35863.35
544.878	35545.91
545.078	35873.59
545.279	35844.91
545.479	35652.41
545.679	35963.7
545.879	35572.53
546.079	35756.85
546.28	35625.78
546.48	35537.72
546.68	35900.21
546.88	35754.8
547.08	35670.84
547.28	35517.24
547.48	35269.44
547.68	35593.01
547.88	35627.83
548.081	35414.84
548.281	35380.03
548.481	35357.5
548.681	35967.79
548.881	35644.21
549.081	35808.05
549.28	35205.95
549.48	35951.41
549.68	35814.19
549.88	36213.55
550.08	35504.95
550.28	35705.65
550.48	35345.21
550.68	36066.1
550.88	35730.23
551.08	35627.83
551.279	35760.95
551.479	35212.09
551.679	35627.83
551.879	35476.28
552.079	36154.16
552.278	35562.29
552.478	36035.38
552.678	35695.41
552.878	35857.2
553.077	35916.59
553.277	35429.18
553.477	35918.64
553.676	35281.72
553.876	36059.95
554.076	35646.26
554.275	35844.91
554.475	35410.74
554.674	36236.08
554.874	35928.88
555.074	35529.53
555.273	35775.28
555.473	35949.36
555.672	35924.79
555.872	35765.04
556.071	36068.14
556.271	36070.19
556.47	36139.82
556.67	35377.98
556.869	36006.7
557.068	35767.09
557.268	35699.51
557.467	35646.26
557.667	36246.32
557.866	35763
558.065	36082.48
558.265	35750.71
558.464	36000.56
558.663	35975.98
558.863	35519.29
559.062	35984.18
559.261	35482.42
559.461	36049.71
559.66	35515.19
559.859	36043.57
560.058	35564.34
560.258	35849.01
560.457	35568.44
560.656	36080.43
560.855	35814.19
561.054	35818.29
561.253	35447.61
561.453	35633.97
561.652	35756.85
561.851	36053.81
562.05	35636.02
562.249	35269.44
562.448	35676.98
562.647	35490.62
562.846	35595.06
563.045	35496.76
563.244	35281.72
563.443	36072.24
563.642	35388.22
563.841	35347.26
564.04	35062.59
564.239	35590.97
564.438	35117.89
564.637	35187.52
564.836	35441.46
565.035	35525.43
565.234	35615.54
565.432	35015.49
565.631	35124.03
565.83	35568.44
566.029	35353.4
566.228	34601.8
566.427	34687.81
566.625	35103.55
566.824	34667.33
567.023	35040.06
567.222	34255.69
567.42	35130.17
567.619	34706.24
567.818	34689.86
568.016	35017.53
568.215	34384.71
568.414	34562.89
568.612	34982.72
568.811	34501.45
569.01	34544.45
569.208	34179.92
569.407	34487.11
569.605	33717.07
569.804	34495.3
570.002	33885.01
570.201	34126.67
570.4	33792.85
570.598	33798.99
570.797	33387.35
570.995	33250.14
571.193	33336.15
571.392	33780.56
571.59	33086.3
571.789	33604.44
571.987	33430.36
572.186	33276.76
572.384	33155.93
572.582	33141.6
572.781	33393.5
572.979	32574.31
573.177	32985.95
573.376	32928.61
573.574	32951.13
573.772	33205.08
573.971	32715.62
574.169	32578.4
574.367	32545.64
574.565	32748.39
574.763	32449.38
574.962	32252.78
575.16	32062.32
575.358	32129.9
575.556	31519.6
575.754	32752.48
575.952	31443.83
576.151	32119.66
576.349	31964.01
576.547	31630.19
576.745	31759.22
576.943	31333.24
577.141	31173.5
577.339	31546.23
577.537	30970.75
577.735	31261.56
577.933	30802.82
578.131	30950.27
578.329	30888.83
578.527	30770.05
578.725	30585.73
578.923	30655.36
579.121	30714.75
579.319	30237.58
579.516	30851.97
579.714	30485.38
579.912	30342.02
580.11	30165.9
580.308	30086.03
580.506	30159.75
580.704	29463.44
580.901	29979.53
581.099	30348.17
581.297	29629.33
581.495	29797.26
581.692	29739.92
581.89	29432.72
582.088	29967.24
582.285	29770.64
582.483	29574.03
582.681	29330.33
582.878	29623.19
583.076	28898.2
583.274	29438.87
583.471	29158.3
583.669	29109.15
583.866	28963.74
584.064	29203.35
584.262	28763.04
584.459	28971.93
584.657	28550.05
584.854	29111.19
585.052	27949.99
585.249	28355.49
585.447	28808.09
585.644	28269.48
585.841	28285.86
586.039	28443.56
586.236	28152.74
586.434	28294.05
586.631	27829.16
586.828	27952.04
587.026	28304.29
587.223	27747.25
587.42	27548.59
587.618	27890.6
587.815	27231.16
588.012	27501.49
588.21	27773.87
588.407	27495.35
588.604	27325.36
588.801	27229.11
588.999	27343.8
589.196	27225.01
589.393	27169.72
589.59	27378.61
589.787	27294.64
589.984	26872.76
590.182	26870.72
590.379	26594.24
590.576	26481.6
590.773	26956.73
590.97	26827.71
591.167	26950.59
591.364	26844.09
591.561	27059.13
591.758	26381.25
591.955	26508.22
592.152	26643.39
592.349	26313.67
592.546	26500.03
592.743	26444.74
592.94	26082.25
593.137	26328
593.334	26446.79
593.531	25828.3
593.727	26035.14
593.924	26055.62
594.121	26078.15
594.318	25793.48
594.515	25394.13
594.712	25777.1
594.908	25756.62
595.105	25916.36
595.302	25582.54
595.499	25715.66
595.696	25863.11
595.892	25510.86
596.089	25633.74
596.286	25652.17
596.482	25707.47
596.679	25406.42
596.876	25549.78
597.072	25205.72
597.269	25465.81
597.466	25494.48
597.662	25588.69
597.859	25232.34
598.055	25349.07
598.252	25101.27
598.448	25332.69
598.645	25064.41
598.841	24941.53
599.038	25310.16
599.234	25086.93
599.431	25013.21
599.627	25011.16
599.824	25021.4
600.02	24947.67
600.217	25299.92
600.413	25183.19
600.609	25156.57
600.806	25273.3
601.002	24906.71
601.198	24830.94
601.395	24824.79
601.591	24718.3
601.787	24832.99
601.984	24957.91
602.18	25056.22
602.376	24978.39
602.572	25183.19
602.769	24814.55
602.965	24894.43
603.161	25029.59
603.357	24781.79
603.553	25029.59
603.75	25144.28
603.946	25131.99
604.142	25478.1
604.338	25084.89
604.534	25101.27
604.73	25086.93
604.926	25138.13
605.122	25181.14
605.318	25058.26
605.514	25039.83
605.71	25152.47
605.906	25101.27
606.102	25107.41
606.298	25340.88
606.494	25005.02
606.69	25199.57
606.886	25166.81
607.082	24964.06
607.278	25097.17
607.474	24761.31
607.67	25283.54
607.866	24906.71
608.062	25424.85
608.257	25148.37
608.453	24814.55
608.649	25371.6
608.845	25293.78
609.041	25168.85
609.236	25609.17
609.432	25582.54
609.628	25474
609.824	25287.64
610.019	25406.42
610.215	25400.27
610.411	25351.12
610.606	25289.68
610.802	25615.31
610.998	25465.81
611.193	25793.48
611.389	25613.26
611.584	25619.41
611.78	25611.21
611.976	25607.12
612.171	25793.48
612.367	25564.11
612.562	25736.14
612.758	25537.49
612.953	25678.8
613.149	26000.33
613.344	25406.42
613.539	25863.11
613.735	25713.61
613.93	25625.55
614.126	25525.2
614.321	25730
614.517	26225.61
614.712	25789.39
614.907	25600.97
615.103	25846.73
615.298	25736.14
615.493	26022.86
615.688	25562.06
615.884	26336.2
616.079	25721.8
616.274	25990.09
616.47	25805.77
616.665	25846.73
616.86	25889.74
617.055	25773
617.25	25682.89
617.445	26072.01
617.641	25512.91
617.836	25775.05
618.031	25521.1
618.226	25838.54
618.421	25519.06
618.616	25656.27
618.811	25269.2
619.006	25625.55
619.201	25191.38
619.396	25394.13
619.591	24947.67
619.786	25222.1
619.981	25134.04
620.176	25125.85
620.371	25131.99
620.566	24972.25
620.761	24902.62
620.956	25256.92
621.151	24574.94
621.346	25043.93
621.541	24386.53
621.735	24560.61
621.93	24159.2
622.125	24290.27
622.32	24204.26
622.515	24155.11
622.709	24173.54
622.904	23978.98
623.099	24177.64
623.294	23991.27
623.488	23505.9
623.683	23645.16
623.878	23202.8
624.072	23538.67
624.267	23399.41
624.462	23434.22
624.656	22967.29
624.851	23096.31
625.046	22944.76
625.24	22647.8
625.435	22750.2
625.629	22746.11
625.824	22246.4
626.018	22455.29
626.213	21945.35
626.407	22328.32
626.602	21648.4
626.796	21998.6
626.991	22012.93
627.185	21820.42
627.38	21636.11
627.574	21451.79
627.768	21459.98
627.963	21373.97
628.157	21251.09
628.352	21294.1
628.546	20788.25
628.74	21173.27
628.935	20683.8
629.129	20853.78
629.323	20380.7
629.517	20794.39
629.712	20446.24
629.906	20274.21
630.1	20130.85
630.294	20319.26
630.489	20243.49
630.683	20229.15
630.877	19878.95
631.071	19668.01
631.265	19938.34
631.459	19594.28
631.653	19584.04
631.848	19536.94
632.042	19397.68
632.236	19342.38
632.43	19076.15
632.624	19268.66
632.818	19057.71
633.012	18709.56
633.206	18973.75
633.4	18787.38
633.594	18502.72
633.788	18609.21
633.982	18498.62
634.176	18160.7
634.369	18371.65
634.563	18068.55
634.757	18056.26
634.951	18275.39
635.145	18003.01
635.339	17980.48
635.533	17630.28
635.726	17652.81
635.92	17249.36
636.114	17402.96
636.308	17230.93
636.501	17153.1
636.695	17194.06
636.889	17058.9
637.083	17062.99
637.276	17013.84
637.47	16895.06
637.664	16600.15
637.857	16690.26
638.051	16751.7
638.244	16657.5
638.438	16184.41
638.632	16374.88
638.825	15930.47
639.019	16196.7
639.212	16010.34
639.406	16129.12
639.599	15803.49
639.793	15809.64
639.986	15455.34
640.18	15330.41
640.373	15311.98
640.567	15160.43
640.76	15549.54
640.954	14992.5
641.147	15449.19
641.34	14838.9
641.534	15174.77
641.727	14709.88
641.92	14756.98
642.114	14564.47
642.307	14894.19
642.5	14431.35
642.694	14097.53
642.887	14249.08
643.08	14365.82
643.273	14044.29
643.467	14120.06
643.66	14040.19
643.853	13960.32
644.046	13587.59
644.239	13685.89
644.432	13546.63
644.626	13495.43
644.819	13362.31
645.012	13335.69
645.205	13300.87
645.398	13356.17
645.591	13290.63
645.784	13171.85
645.977	12885.14
646.17	12848.27
646.363	12917.9
646.556	12774.55
646.749	12817.55
646.942	12696.72
647.135	12596.37
647.328	12696.72
647.521	12512.41
647.714	12244.12
647.907	12059.81
648.099	12350.62
648.292	12176.54
648.485	12104.86
648.678	11941.02
648.871	11981.98
649.064	12049.57
649.256	12014.75
649.449	11750.56
649.642	11637.92
649.835	11531.43
650.027	11670.69
650.22	11687.08
650.413	11271.34
650.605	11431.08
650.798	11390.12
650.991	11267.24
651.183	11209.9
651.376	11269.29
651.568	11144.36
651.761	11220.14
651.954	10900.66
652.146	10845.36
652.339	10798.26
652.531	10867.89
652.724	10732.72
652.916	10630.32
653.109	10609.84
653.301	10566.84
653.494	10603.7
653.686	10552.5
653.879	10392.76
654.071	10548.4
654.263	10077.37
654.456	10218.68
654.648	10497.21
654.84	10069.18
655.033	9968.83
655.225	10138.81
655.417	9901.25
655.61	9858.24
655.802	10015.93
655.994	9690.31
656.186	9741.5
656.379	9608.39
656.571	9751.74
656.763	9557.19
656.955	9549
657.148	9424.07
657.34	9632.96
657.532	9407.69
657.724	9342.15
657.916	9295.05
658.108	9475.27
658.3	9260.23
658.492	9186.51
658.684	9084.11
658.876	8955.08
659.068	9135.31
659.26	8910.03
659.452	9092.3
659.644	8893.65
659.836	8815.82
660.028	9006.28
660.22	8778.96
660.412	8615.12
660.604	8576.21
660.796	8570.07
660.988	8604.88
661.18	8488.15
661.372	8441.04
661.563	8383.7
661.755	8244.44
661.947	8254.68
662.139	8299.73
662.331	8203.48
662.522	8142.04
662.714	8086.75
662.906	8027.35
663.097	7875.81
663.289	7924.96
663.481	7773.41
663.673	7818.46
663.864	7783.65
664.056	7814.37
664.247	7826.65
664.439	7619.81
664.631	7597.28
664.822	7716.06
665.014	7656.67
665.205	7537.89
665.397	7548.13
665.588	7345.38
665.78	7249.13
665.971	7380.2
666.163	7202.02
666.354	7355.62
666.546	7343.33
666.737	7257.32
666.929	7195.88
667.12	7034.09
667.311	7247.08
667.503	7011.56
667.694	7154.92
667.885	7073
668.077	6876.4
668.268	6892.78
668.459	6986.99
668.651	6880.49
668.842	6937.84
669.033	6884.59
669.224	6853.87
669.416	6991.08
669.607	6802.67
669.798	6708.46
669.989	6737.13
670.18	6720.75
670.371	6692.08
670.563	6814.96
670.754	6634.74
670.945	6442.23
671.136	6534.39
671.327	6692.08
671.518	6421.75
671.709	6548.72
671.9	6417.65
672.091	6350.07
672.282	6372.6
672.473	6292.73
672.664	6423.8
672.855	6239.48
673.046	6266.1
673.237	6225.14
673.428	6313.2
673.619	6288.63
673.809	6212.85
674	6067.45
674.191	6270.2
674.382	6032.63
674.573	6132.98
674.764	6147.32
674.954	6071.54
675.145	5954.81
675.336	5936.38
675.527	6155.51
675.717	5854.46
675.908	5975.29
676.099	5803.26
676.289	5987.58
676.48	5819.64
676.671	6049.02
676.861	5913.85
677.052	5881.08
677.243	5510.4
677.433	5840.12
677.624	5928.19
677.814	5967.1
678.005	5858.56
678.195	5672.19
678.386	5770.49
678.576	5922.04
678.767	5795.07
678.957	5754.11
679.148	5731.58
679.338	5635.33
679.529	5694.72
679.719	5631.23
679.909	5821.69
680.1	5434.63
680.29	5672.19
680.481	5625.09
680.671	5645.57
680.861	5608.7
681.052	5524.74
681.242	5795.07
681.432	5664
681.622	5614.85
681.813	5491.97
682.003	5567.74
682.193	5481.73
682.383	5698.81
682.573	5451.01
682.764	5520.64
682.954	5672.19
683.144	5508.35
683.334	5393.67
683.524	5473.54
683.714	5526.78
683.904	5459.2
684.094	5188.87
684.284	5414.15
684.474	5418.24
684.664	5524.74
684.854	5438.72
685.044	5512.45
685.234	5328.13
685.424	5403.91
685.614	5393.67
685.804	5305.6
685.994	5297.41
686.184	5209.35
686.374	5352.71
686.564	5238.02
686.753	5205.25
686.943	5278.98
687.133	5192.97
687.323	5162.25
687.513	5145.86
687.702	5199.11
687.892	5012.74
688.082	5061.9
688.272	5096.71
688.461	5156.1
688.651	5195.01
688.841	5145.86
689.03	4924.68
689.22	5020.94
689.41	5049.61
689.599	5074.18
689.789	5119.24
689.979	5063.94
690.168	4885.77
690.358	4928.78
690.547	4785.42
690.737	5010.7
690.926	4955.4
691.116	4910.35
691.305	4986.12
691.495	4898.06
691.684	4756.75
691.874	4787.47
692.063	4869.39
692.252	4781.32
692.442	4846.86
692.631	4709.65
692.82	4812.04
693.01	4707.6
693.199	4771.08
693.388	4723.98
693.578	4713.74
693.767	4752.65
693.956	4568.34
694.146	4592.91
694.335	4750.6
694.524	4648.21
694.713	4498.7
694.902	4435.22
695.092	4605.2
695.281	4508.94
695.47	4562.19
695.659	4582.67
695.848	4410.64
696.037	4560.14
696.226	4484.37
696.415	4574.48
696.604	4478.23
696.793	4343.06
696.982	4463.89
697.171	4420.88
697.36	4551.95
697.549	4398.35
697.738	4443.41
697.927	4343.06
698.116	4269.33
698.305	4521.23
698.494	4310.29
698.683	4332.82
698.872	4470.03
699.061	4345.11
699.25	4449.55
699.438	4312.34
699.627	4181.27
699.816	4461.84
700.005	4216.09
700.193	4250.9
700.382	4273.43
700.571	4240.66
700.76	4209.94
700.948	4287.76
701.137	4242.71
701.326	4222.23
701.514	4115.73
701.703	4240.66
701.892	4123.93
702.08	4197.65
702.269	4181.27
702.457	4050.2
702.646	4107.54
702.834	4082.97
703.023	4029.72
703.212	3935.51
703.4	4144.41
703.589	4136.21
703.777	4119.83
703.965	3935.51
704.154	4074.78
704.342	3978.52
704.531	3931.42
704.719	3996.95
704.907	3972.38
705.096	3923.23
705.284	3929.37
705.472	4060.44
705.661	3865.88
705.849	3792.16
706.037	3974.42
706.226	3849.5
706.414	3982.62
706.602	3691.81
706.79	3839.26
706.979	3863.83
707.167	3841.31
707.355	3820.83
707.543	3812.64
707.731	3863.83
707.919	3906.84
708.107	3781.92
708.296	3755.29
708.484	3632.41
708.672	3679.52
708.86	3757.34
709.048	3767.58
709.236	3767.58
709.424	3775.77
709.612	3607.84
709.8	3730.72
709.988	3704.09
710.176	3677.47
710.364	3575.07
710.551	3691.81
710.739	3566.88
710.927	3642.65
711.115	3595.55
711.303	3583.26
711.491	3591.45
711.679	3517.73
711.866	3472.67
712.054	3599.65
712.242	3700
712.43	3691.81
712.617	3507.49
712.805	3538.21
712.993	3413.28
713.181	3388.71
713.368	3501.34
713.556	3624.22
713.744	3355.94
713.931	3544.35
714.119	3661.09
714.306	3421.47
714.494	3372.32
714.682	3355.94
714.869	3464.48
715.057	3439.9
715.244	3382.56
715.432	3421.47
715.619	3265.83
715.807	3280.16
715.994	3267.88
716.182	3177.76
716.369	3249.44
716.556	3267.88
716.744	3312.93
716.931	3249.44
717.119	3181.86
717.306	3251.49
717.493	3216.68
717.681	3241.25
717.868	3048.74
718.055	3208.48
718.242	3200.29
718.43	3177.76
718.617	3149.09
718.804	3175.72
718.991	3124.52
719.179	3216.68
719.366	3116.33
719.553	3157.29
719.74	3009.83
719.927	3087.65
720.114	3108.13
720.301	3153.19
720.488	2954.54
720.676	2970.92
720.863	3001.64
721.05	3022.12
721.237	3104.04
721.424	2942.25
721.611	2954.54
721.798	3042.6
721.985	3038.5
722.172	3011.88
722.358	2952.49
722.545	2913.58
722.732	3069.22
722.919	2925.86
723.106	2905.39
723.293	2831.66
723.48	2895.15
723.667	2895.15
723.853	2870.57
724.04	2872.62
724.227	2848.04
724.414	2866.47
724.6	2979.11
724.787	2876.71
724.974	2784.55
725.161	2882.86
725.347	2714.92
725.534	2755.88
725.72	2739.5
725.907	2886.95
726.094	2845.99
726.28	2915.62
726.467	2708.78
726.653	2815.27
726.84	2817.32
727.027	2870.57
727.213	2708.78
727.4	2696.49
727.586	2755.88
727.773	2755.88
727.959	2731.31
728.145	2807.08
728.332	2557.23
728.518	2727.21
728.705	2747.69
728.891	2708.78
729.077	2608.43
729.264	2624.81
729.45	2544.94
729.636	2626.86
729.823	2641.2
730.009	2657.58
730.195	2510.13
730.382	2624.81
730.568	2520.37
730.754	2587.95
730.94	2708.78
731.126	2626.86
731.313	2592.05
731.499	2592.05
731.685	2546.99
731.871	2612.53
732.057	2530.61
732.243	2546.99
732.429	2522.41
732.615	2534.7
732.801	2549.04
732.987	2659.63
733.173	2426.16
733.359	2563.37
733.545	2669.87
733.731	2395.44
733.917	2420.02
734.103	2479.41
734.289	2608.43
734.475	2342.19
734.661	2536.75
734.847	2444.59
735.033	2510.13
735.219	2612.53
735.404	2379.06
735.59	2399.54
735.776	2444.59
735.962	2501.94
736.148	2387.25
736.333	2420.02
736.519	2387.25
736.705	2319.67
736.89	2411.82
737.076	2358.58
737.262	2323.76
737.447	2346.29
737.633	2334
737.819	2407.73
738.004	2166.07
738.19	2424.11
738.375	2315.57
738.561	2280.75
738.747	2325.81
738.932	2340.15
739.118	2317.62
739.303	2342.19
739.489	2309.43
739.674	2280.75
739.859	2118.97
740.045	2151.73
740.23	2264.37
740.416	2139.44
740.601	2225.46
740.786	2133.3
740.972	2215.22
741.157	2157.88
741.342	2112.82
741.528	2190.64
741.713	2231.6
741.898	2123.06
742.084	2180.4
742.269	2180.4
742.454	2202.93
742.639	2151.73
742.824	2141.49
743.01	2141.49
743.195	2116.92
743.38	2051.38
743.565	2116.92
743.75	2108.73
743.935	2116.92
744.12	2004.28
744.305	1963.32
744.49	2035
744.675	1994.04
744.86	1971.51
745.045	1969.46
745.23	2014.52
745.415	1903.93
745.6	1871.16
745.785	1930.55
745.97	1979.7
746.155	2043.19
746.34	1875.26
746.525	1895.74
746.71	1967.42
746.895	1832.25
747.079	1850.68
747.264	1867.06
747.449	1912.12
747.634	1815.87
747.819	1899.83
748.003	1719.61
748.188	1805.63
748.373	1908.02
748.557	1830.2
748.742	1856.83
748.927	1731.9
749.111	1686.84
749.296	1756.47
749.481	1652.03
749.665	1807.67
749.85	1637.69
750.034	1695.04
750.219	1637.69
750.404	1735.99
750.588	1609.02
750.773	1592.64
750.957	1676.6
751.141	1649.98
751.326	1594.69
751.51	1662.27
751.695	1570.11
751.879	1584.45
752.064	1584.45
752.248	1490.24
752.432	1541.44
752.617	1482.05
752.801	1604.92
752.985	1502.53
753.17	1609.02
753.354	1586.49
753.538	1551.68
753.722	1422.66
753.907	1488.19
754.091	1422.66
754.275	1422.66
754.459	1396.03
754.643	1443.14
754.828	1381.7
755.012	1430.85
755.196	1369.41
755.38	1342.78
755.564	1350.98
755.748	1486.14
755.932	1412.42
756.116	1234.24
756.3	1365.31
756.484	1277.25
756.668	1344.83
756.852	1355.07
757.036	1285.44
757.22	1285.44
757.404	1267.01
757.588	1260.87
757.772	1346.88
757.956	1244.48
758.14	1273.15
758.323	1273.15
758.507	1291.59
758.691	1199.43
758.875	1224
759.059	1228.1
759.242	1113.41
759.426	1199.43
759.61	1117.51
759.794	1187.14
759.977	1176.9
760.161	1156.42
760.345	1211.71
760.528	1142.08
760.712	1135.94
760.895	1076.55
761.079	1051.97
761.263	980.29
761.446	1133.89
761.63	1152.32
761.813	1113.41
761.997	1154.37
762.18	1035.59
762.364	1133.89
762.547	1031.49
762.731	1117.51
762.914	1101.12
763.098	1092.93
763.281	1133.89
763.464	1000.77
763.648	1031.49
763.831	1080.64
764.015	976.2
764.198	1019.21
764.381	906.57
764.564	1017.16
764.748	949.57
764.931	1047.88
765.114	972.1
765.297	1019.21
765.481	890.18
765.664	961.86
765.847	947.53
766.03	1166.66
766.213	994.63
766.397	943.43
766.58	900.42
766.763	994.63
766.946	994.63
767.129	1000.77
767.312	935.24
767.495	1011.01
767.678	836.94
767.861	1029.45
768.044	961.86
768.227	965.96
768.41	929.1
768.593	972.1
768.776	916.81
768.959	879.94
769.142	914.76
769.324	945.48
769.507	838.98
769.69	957.77
769.873	888.14
770.056	918.86
770.239	867.66
770.421	908.62
770.604	908.62
770.787	937.29
770.97	906.57
771.152	832.84
771.335	855.37
771.518	859.46
771.7	935.24
771.883	970.05
772.066	816.46
772.248	849.22
772.431	904.52
772.613	867.66
772.796	898.38
772.978	802.12
773.161	865.61
773.343	798.03
773.526	707.91
773.708	716.11
773.891	699.72
774.073	785.74
774.256	781.64
774.438	841.03
774.621	755.02
774.803	707.91
774.985	720.2
775.168	750.92
775.35	703.82
775.532	767.31
775.715	765.26
775.897	781.64
776.079	703.82
776.261	775.5
776.444	699.72
776.626	675.15
776.808	763.21
776.99	677.2
777.173	707.91
777.355	693.58
777.537	683.34
777.719	671.05
777.901	628.04
778.083	603.47
778.265	605.52
778.447	693.58
778.629	640.33
778.811	636.24
778.993	617.8
779.175	718.15
779.357	689.48
779.539	587.08
779.721	595.28
779.903	755.02
780.085	628.04
780.267	617.8
780.449	539.98
780.631	675.15
780.812	593.23
780.994	644.43
781.176	675.15
781.358	560.46
781.54	609.61
781.721	597.32
781.903	597.32
782.085	482.64
782.267	634.19
782.448	496.97
782.63	595.28
782.812	568.65
782.993	601.42
783.175	562.51
783.357	478.54
783.538	593.23
783.72	501.07
783.901	478.54
784.083	503.12
784.264	494.93
784.446	464.21
784.627	456.01
784.809	453.97
784.99	509.26
785.172	544.08
785.353	490.83
785.535	429.39
785.716	535.89
785.897	476.49
786.079	443.73
786.26	496.97
786.441	482.64
786.623	408.91
786.804	390.48
786.985	464.21
787.167	544.08
787.348	437.58
787.529	544.08
787.71	529.74
787.891	425.29
788.073	384.34
788.254	423.25
788.435	470.35
788.616	431.44
788.797	367.95
788.978	423.25
789.159	417.1
789.34	458.06
789.522	447.82
789.703	349.52
789.884	410.96
790.065	478.54
790.246	384.34
790.427	351.57
790.607	408.91
790.788	367.95
790.969	382.29
791.15	386.38
791.331	281.94
791.512	376.14
791.693	320.85
791.874	290.13
792.054	458.06
792.235	392.53
792.416	398.67
792.597	376.14
792.778	300.37
792.958	390.48
793.139	372.05
793.32	341.33
793.5	357.71
793.681	347.47
793.862	382.29
794.042	390.48
794.223	294.22
794.404	314.7
794.584	314.7
794.765	398.67
794.945	339.28
795.126	398.67
795.306	398.67
795.487	314.7
795.667	320.85
795.848	339.28
796.028	232.79
796.209	240.98
796.389	294.22
796.57	290.13
796.75	308.56
796.93	359.76
797.111	292.18
797.291	224.59
797.471	347.47
797.652	329.04
797.832	292.18
798.012	361.81
798.192	404.82
798.373	238.93
798.553	257.36
798.733	306.51
798.913	251.22
799.093	349.52
799.274	331.09
799.454	316.75
799.634	322.9
799.814	245.07
799.994	269.65
800.174	290.13
800.354	216.4
800.534	226.64
800.714	236.88
800.894	167.25
801.074	230.74
801.254	265.55
801.434	283.99
801.614	232.79
801.794	200.02
801.974	859.46
802.154	286.03
802.334	318.8
802.514	187.73
802.693	275.79
802.873	290.13
803.053	304.46
803.233	238.93
803.413	224.59
803.592	249.17
803.772	294.22
803.952	167.25
804.131	212.31
804.311	271.7
804.491	314.7
804.67	200.02
804.85	216.4
805.03	136.53
805.209	210.26
805.389	200.02
805.568	224.59
805.748	245.07
805.928	273.75
806.107	277.84
806.287	193.87
806.466	240.98
806.646	245.07
806.825	226.64
807.004	191.83
807.184	265.55
807.363	177.49
807.543	169.3
807.722	177.49
807.901	240.98
808.081	216.4
808.26	138.58
808.439	197.97
808.619	169.3
808.798	183.63
808.977	202.07
809.156	177.49
809.336	200.02
809.515	245.07
809.694	202.07
809.873	154.96
810.052	159.06
810.231	204.11
810.411	171.35
810.59	191.83
810.769	191.83
810.948	251.22
811.127	148.82
811.306	161.11
811.485	140.63
811.664	200.02
811.843	118.1
812.022	183.63
812.201	202.07
812.38	138.58
812.559	152.92
812.737	144.72
812.916	81.24
813.095	118.1
813.274	179.54
813.453	193.87
813.632	171.35
813.811	159.06
813.989	195.92
814.168	183.63
814.347	130.39
814.526	195.92
814.704	169.3
814.883	136.53
815.062	128.34
815.24	191.83
815.419	101.72
815.598	175.44
815.776	136.53
815.955	200.02
816.133	122.2
816.312	138.58
816.49	165.2
816.669	193.87
816.847	159.06
817.026	191.83
817.204	109.91
817.383	150.87
817.561	111.96
817.74	130.39
817.918	93.52
818.097	138.58
818.275	77.14
818.453	228.69
818.632	144.72
818.81	109.91
818.988	167.25
819.167	46.42
819.345	150.87
819.523	124.24
819.701	167.25
819.879	134.48
820.058	173.39
820.236	202.07
820.414	146.77
820.592	103.76
820.77	101.72
820.948	171.35
821.127	134.48
821.305	152.92
821.483	71
821.661	200.02
821.839	85.33
822.017	150.87
822.195	64.85
822.373	249.17
822.551	118.1
822.729	159.06
822.907	52.56
823.085	148.82
823.262	103.76
823.44	111.96
823.618	140.63
823.796	142.68
823.974	111.96
824.152	95.57
824.329	140.63
824.507	97.62
824.685	130.39
824.863	103.76
825.04	118.1
825.218	62.8
825.396	195.92
825.574	30.04
825.751	138.58
825.929	200.02
826.107	56.66
826.284	89.43
826.462	154.96
826.639	122.2
826.817	105.81
826.994	54.61
827.172	11.61
827.349	179.54
827.527	128.34
827.704	109.91
827.882	89.43
828.059	122.2
828.237	73.04
828.414	175.44
828.591	30.04
828.769	38.23
828.946	32.08
829.124	179.54
829.301	114
829.478	75.09
829.655	101.72
829.833	118.1
830.01	44.37
830.187	134.48
830.364	126.29
830.542	128.34
830.719	142.68
830.896	83.28
831.073	136.53
831.25	56.66
831.427	202.07
831.604	42.32
831.782	101.72
831.959	56.66
832.136	154.96
832.313	120.15
832.49	30.04
832.667	87.38
832.844	36.18
833.021	89.43
833.198	93.52
833.374	103.76
833.551	56.66
833.728	130.39
833.905	97.62
834.082	60.76
834.259	105.81
834.436	128.34
834.612	105.81
834.789	114
834.966	91.48
835.143	128.34
835.319	-2.73
835.496	56.66
835.673	46.42
835.85	77.14
836.026	134.48
836.203	136.53
836.38	60.76
836.556	60.76
836.733	77.14
836.909	101.72
837.086	5.46
837.262	11.61
837.439	75.09
837.616	124.24
837.792	111.96
837.968	120.15
838.145	-78.51
838.321	23.89
838.498	87.38
838.674	36.18
838.851	93.52
839.027	77.14
839.203	66.9
839.38	44.37
839.556	122.2
839.732	66.9
839.909	62.8
840.085	66.9
840.261	-27.31
840.437	101.72
840.614	66.9
840.79	118.1
840.966	48.47
841.142	52.56
841.318	27.99
841.494	132.44
841.671	95.57
841.847	44.37
842.023	56.66
842.199	62.8
842.375	101.72
842.551	54.61
842.727	32.08
842.903	109.91
843.079	73.04
843.255	99.67
843.431	71
843.607	30.04
843.783	32.08
843.959	77.14
844.134	36.18
844.31	118.1
844.486	132.44
844.662	105.81
844.838	42.32
845.013	71
845.189	114
845.365	103.76
845.541	148.82
845.716	25.94
845.892	56.66
846.068	93.52
846.244	40.28
846.419	77.14
846.595	-43.69
846.77	62.8
846.946	52.56
847.122	60.76
847.297	64.85
847.473	97.62
847.648	36.18
847.824	3.41
847.999	-15.02
848.175	52.56
848.35	11.61
848.526	56.66
848.701	75.09
848.876	83.28
849.052	91.48
849.227	44.37
849.403	36.18
849.578	21.85
849.753	60.76
849.929	81.24
850.104	-37.55
850.279	38.23
850.454	40.28
850.63	103.76
850.805	19.8
850.98	64.85
851.155	11.61
851.33	95.57
851.505	11.61
851.681	159.06
851.856	15.7
852.031	68.95
852.206	23.89
852.381	46.42
852.556	30.04
852.731	120.15
852.906	11.61
853.081	75.09
853.256	42.32
853.431	79.19
853.606	60.76
853.781	-12.97
853.956	122.2
854.131	85.33
854.305	7.51
854.48	23.89
854.655	19.8
854.83	17.75
855.005	40.28
855.18	75.09
855.354	-19.11
855.529	30.04
855.704	-12.97
855.879	5.46
856.053	13.65
856.228	46.42
856.403	-43.69
856.577	85.33
856.752	-43.69
856.926	68.95
857.101	120.15
857.276	36.18
857.45	52.56
857.625	23.89
857.799	77.14
857.974	79.19
858.148	-53.93
858.323	101.72
858.497	13.65
858.672	60.76
858.846	44.37
859.02	73.04
859.195	-25.26
859.369	-10.92
859.543	38.23
859.718	95.57
859.892	-4.78
860.066	17.75
860.241	-37.55
860.415	46.42
860.589	38.23
860.763	-23.21
860.938	-12.97
861.112	36.18
861.286	27.99
861.46	54.61
861.634	15.7
861.808	68.95
861.982	21.85
862.157	-4.78
862.331	19.8
862.505	-68.27
862.679	30.04
862.853	52.56
863.027	44.37
863.201	38.23
863.375	5.46
863.549	-10.92
863.722	60.76
863.896	114
864.07	11.61
864.244	5.46
864.418	73.04
864.592	48.47
864.766	62.8
864.939	-70.31
865.113	-19.11
865.287	93.52
865.461	-17.07
865.634	120.15
865.808	-19.11
865.982	32.08
866.156	85.33
866.329	19.8
866.503	79.19
866.676	128.34
866.85	5.46
867.024	-15.02
867.197	54.61
867.371	109.91
867.544	77.14
867.718	42.32
867.891	-4.78
868.065	3.41
868.238	21.85
868.412	36.18
868.585	46.42
868.759	40.28
868.932	-12.97
869.105	3.41
869.279	-17.07
869.452	44.37
869.625	23.89
869.799	27.99
869.972	-0.68
870.145	5.46
870.319	-25.26
870.492	-4.78
870.665	13.65
870.838	99.67
871.011	-12.97
871.185	-51.88
871.358	58.71
871.531	21.85
871.704	48.47
871.877	38.23
872.05	32.08
872.223	-6.83
872.396	-35.5
872.569	120.15
872.742	93.52
872.915	60.76
873.088	44.37
873.261	11.61
873.434	5.46
873.607	-8.87
873.78	83.28
873.953	-70.31
874.126	93.52
874.299	79.19
874.471	38.23
874.644	-10.92
874.817	46.42
874.99	54.61
875.163	15.7
875.335	99.67
875.508	-10.92
875.681	73.04
875.853	-4.78
876.026	62.8
876.199	58.71
876.371	13.65
876.544	-6.83
876.717	44.37
876.889	87.38
877.062	56.66
877.234	-21.16
877.407	1.37
877.579	30.04
877.752	30.04
877.924	60.76
878.097	-2.73
878.269	52.56
878.442	77.14
878.614	44.37
878.786	40.28
878.959	68.95
879.131	19.8
879.303	11.61
879.476	-82.6
879.648	-12.97
879.82	27.99
879.993	-12.97
880.165	56.66
880.337	-19.11
880.509	13.65
880.681	-45.74
880.854	44.37
881.026	3.41
881.198	68.95
881.37	21.85
881.542	93.52
881.714	42.32
881.886	48.47
882.058	46.42
882.23	-4.78
882.402	27.99
882.574	54.61
882.746	30.04
882.918	27.99
883.09	32.08
883.262	-53.93
883.434	23.89
883.606	-4.78
883.778	54.61
883.95	25.94
884.122	-10.92
884.293	91.48
884.465	1.37
884.637	32.08
884.809	66.9
884.98	19.8
885.152	19.8
885.324	40.28
885.496	13.65
885.667	52.56
885.839	9.56
886.011	-53.93
886.182	-51.88
886.354	17.75
886.525	48.47
886.697	46.42
886.869	-70.31
887.04	-37.55
887.212	60.76
887.383	120.15
887.555	77.14
887.726	68.95
887.897	5.46
888.069	27.99
888.24	19.8
888.412	62.8
888.583	-78.51
888.754	48.47
888.926	-74.41
889.097	11.61
889.268	50.52
889.44	52.56
889.611	-37.55
889.782	15.7
889.953	-43.69
890.125	7.51
890.296	-10.92
890.467	-21.16
890.638	71
890.809	60.76
890.98	13.65
891.151	60.76
891.323	44.37
891.494	44.37
891.665	-10.92
891.836	-90.79
892.007	32.08
892.178	-2.73
892.349	-0.68
892.52	52.56
892.691	44.37
892.862	62.8
893.032	-45.74
893.203	52.56
893.374	-0.68
893.545	52.56
893.716	44.37
893.887	9.56
894.057	19.8
894.228	3.41
894.399	-25.26
894.57	40.28
894.74	-10.92
894.911	-35.5
895.082	-29.35
895.253	87.38
895.423	19.8
895.594	44.37
895.764	-29.35
895.935	-10.92
896.106	71
896.276	-12.97
896.447	-43.69
896.617	-43.69
896.788	-19.11
896.958	27.99
897.129	32.08
897.299	7.51
897.47	36.18
897.64	30.04
897.81	-21.16
897.981	11.61
898.151	-37.55
898.322	75.09
898.492	83.28
898.662	-27.31
898.832	-17.07
899.003	64.85
899.173	-21.16
899.343	-78.51
899.513	-68.27
