Data from USB4F104151__296__14-34-55-947.txt Node

Date: Thu Mar 13 14:34:55 EDT 2025
User: louis
Spectrometer: USB4F10415
Trigger mode: 4
Integration Time (sec): 2.500000E-2
Scans to average: 1
Electric dark correction enabled: true
Nonlinearity correction enabled: false
Boxcar width: 0
XAxis mode: Wavelengths
Number of Pixels in Spectrum: 3648
>>>>>Begin Spectral Data<<<<<
178.204	-96.94
178.424	-96.94
178.644	-96.94
178.864	-168.62
179.084	-191.14
179.304	-19.11
179.524	5.46
179.744	-39.59
179.964	36.18
180.184	19.8
180.404	54.61
180.624	-2.73
180.844	34.13
181.064	-88.75
181.283	17.75
181.503	-60.07
181.723	42.32
181.943	-78.51
182.163	79.19
182.383	3.41
182.602	42.32
182.822	46.42
183.042	-27.31
183.262	34.13
183.482	58.71
183.701	58.71
183.921	126.29
184.141	-15.02
184.361	85.33
184.58	50.52
184.8	83.28
185.02	13.65
185.239	7.51
185.459	116.05
185.679	85.33
185.898	-33.45
186.118	46.42
186.338	97.62
186.557	144.72
186.777	44.37
186.997	25.94
187.216	11.61
187.436	103.76
187.655	85.33
187.875	48.47
188.095	-62.12
188.314	-23.21
188.534	52.56
188.753	-2.73
188.973	-19.11
189.192	44.37
189.412	17.75
189.631	17.75
189.851	3.41
190.07	75.09
190.29	15.7
190.509	-2.73
190.729	3.41
190.948	87.38
191.168	150.87
191.387	66.9
191.607	1.37
191.826	34.13
192.045	-45.74
192.265	54.61
192.484	103.76
192.704	9.56
192.923	42.32
193.142	42.32
193.362	60.76
193.581	13.65
193.8	-43.69
194.02	71
194.239	27.99
194.458	9.56
194.678	17.75
194.897	77.14
195.116	-6.83
195.335	77.14
195.555	87.38
195.774	13.65
195.993	17.75
196.212	23.89
196.432	3.41
196.651	34.13
196.87	11.61
197.089	167.25
197.308	-4.78
197.528	132.44
197.747	-47.79
197.966	9.56
198.185	58.71
198.404	-60.07
198.623	-2.73
198.842	99.67
199.062	58.71
199.281	79.19
199.5	3.41
199.719	66.9
199.938	109.91
200.157	118.1
200.376	42.32
200.595	50.52
200.814	36.18
201.033	-64.17
201.252	42.32
201.471	34.13
201.69	34.13
201.909	91.48
202.128	-31.4
202.347	-23.21
202.566	11.61
202.785	40.28
203.004	54.61
203.223	136.53
203.442	-25.26
203.661	50.52
203.879	124.24
204.098	124.24
204.317	1.37
204.536	68.95
204.755	-4.78
204.974	75.09
205.193	101.72
205.411	99.67
205.63	50.52
205.849	11.61
206.068	54.61
206.287	11.61
206.505	66.9
206.724	15.7
206.943	-2.73
207.162	56.66
207.381	75.09
207.599	1.37
207.818	-6.83
208.037	30.04
208.255	-43.69
208.474	-15.02
208.693	81.24
208.911	83.28
209.13	71
209.349	36.18
209.567	25.94
209.786	27.99
210.005	44.37
210.223	11.61
210.442	5.46
210.661	58.71
210.879	85.33
211.098	17.75
211.316	11.61
211.535	93.52
211.753	3.41
211.972	-15.02
212.191	42.32
212.409	5.46
212.628	-6.83
212.846	64.85
213.065	30.04
213.283	42.32
213.502	50.52
213.72	58.71
213.938	30.04
214.157	62.8
214.375	50.52
214.594	5.46
214.812	44.37
215.031	-15.02
215.249	34.13
215.467	85.33
215.686	34.13
215.904	25.94
216.122	-2.73
216.341	68.95
216.559	99.67
216.778	107.86
216.996	93.52
217.214	85.33
217.432	17.75
217.651	27.99
217.869	15.7
218.087	81.24
218.306	1.37
218.524	107.86
218.742	60.76
218.96	58.71
219.179	-12.97
219.397	95.57
219.615	165.2
219.833	66.9
220.051	-0.68
220.27	73.04
220.488	42.32
220.706	66.9
220.924	17.75
221.142	58.71
221.36	32.08
221.578	52.56
221.796	23.89
222.015	17.75
222.233	71
222.451	62.8
222.669	42.32
222.887	79.19
223.105	11.61
223.323	52.56
223.541	30.04
223.759	83.28
223.977	52.56
224.195	173.39
224.413	91.48
224.631	-2.73
224.849	66.9
225.067	91.48
225.285	-35.5
225.503	1.37
225.721	-113.32
225.939	30.04
226.157	58.71
226.375	75.09
226.592	19.8
226.81	-49.83
227.028	142.68
227.246	107.86
227.464	50.52
227.682	44.37
227.9	25.94
228.117	75.09
228.335	91.48
228.553	17.75
228.771	105.81
228.989	103.76
229.206	5.46
229.424	52.56
229.642	34.13
229.86	-19.11
230.077	83.28
230.295	91.48
230.513	42.32
230.731	75.09
230.948	11.61
231.166	48.47
231.384	17.75
231.601	62.8
231.819	77.14
232.037	-29.35
232.254	7.51
232.472	99.67
232.689	75.09
232.907	42.32
233.125	30.04
233.342	23.89
233.56	-49.83
233.777	23.89
233.995	32.08
234.213	34.13
234.43	42.32
234.648	17.75
234.865	58.71
235.083	116.05
235.3	21.85
235.518	83.28
235.735	75.09
235.953	11.61
236.17	34.13
236.388	9.56
236.605	66.9
236.822	134.48
237.04	120.15
237.257	42.32
237.475	25.94
237.692	75.09
237.909	75.09
238.127	-21.16
238.344	17.75
238.562	46.42
238.779	-64.17
238.996	50.52
239.214	71
239.431	99.67
239.648	-17.07
239.865	34.13
240.083	97.62
240.3	-72.36
240.517	40.28
240.735	34.13
240.952	93.52
241.169	73.04
241.386	17.75
241.603	68.95
241.821	36.18
242.038	91.48
242.255	66.9
242.472	38.23
242.689	9.56
242.907	91.48
243.124	-37.55
243.341	-4.78
243.558	71
243.775	7.51
243.992	-53.93
244.209	-6.83
244.426	68.95
244.643	71
244.86	-21.16
245.078	107.86
245.295	68.95
245.512	60.76
245.729	42.32
245.946	54.61
246.163	-84.65
246.38	3.41
246.597	87.38
246.814	68.95
247.031	50.52
247.248	87.38
247.464	-6.83
247.681	48.47
247.898	3.41
248.115	75.09
248.332	-10.92
248.549	71
248.766	44.37
248.983	30.04
249.2	66.9
249.417	95.57
249.633	54.61
249.85	1.37
250.067	36.18
250.284	30.04
250.501	103.76
250.717	11.61
250.934	-12.97
251.151	48.47
251.368	-10.92
251.585	73.04
251.801	68.95
252.018	36.18
252.235	60.76
252.451	68.95
252.668	-2.73
252.885	27.99
253.102	-15.02
253.318	40.28
253.535	60.76
253.752	11.61
253.968	95.57
254.185	-29.35
254.401	-12.97
254.618	1.37
254.835	9.56
255.051	91.48
255.268	105.81
255.484	58.71
255.701	30.04
255.917	44.37
256.134	5.46
256.351	46.42
256.567	17.75
256.784	77.14
257	-15.02
257.217	75.09
257.433	23.89
257.65	-0.68
257.866	71
258.082	11.61
258.299	46.42
258.515	42.32
258.732	9.56
258.948	-60.07
259.165	-6.83
259.381	9.56
259.597	73.04
259.814	3.41
260.03	56.66
260.246	21.85
260.463	66.9
260.679	7.51
260.895	30.04
261.112	17.75
261.328	91.48
261.544	19.8
261.761	58.71
261.977	58.71
262.193	27.99
262.409	50.52
262.626	101.72
262.842	27.99
263.058	50.52
263.274	50.52
263.49	60.76
263.707	136.53
263.923	75.09
264.139	-51.88
264.355	17.75
264.571	71
264.787	75.09
265.004	99.67
265.22	-29.35
265.436	38.23
265.652	60.76
265.868	77.14
266.084	23.89
266.3	34.13
266.516	-12.97
266.732	25.94
266.948	58.71
267.164	77.14
267.38	71
267.596	66.9
267.812	93.52
268.028	42.32
268.244	124.24
268.46	66.9
268.676	25.94
268.892	87.38
269.108	-15.02
269.324	42.32
269.54	17.75
269.756	99.67
269.972	-6.83
270.188	91.48
270.403	44.37
270.619	54.61
270.835	75.09
271.051	-25.26
271.267	38.23
271.483	-23.21
271.698	19.8
271.914	-17.07
272.13	60.76
272.346	54.61
272.562	44.37
272.777	42.32
272.993	27.99
273.209	17.75
273.425	46.42
273.64	25.94
273.856	124.24
274.072	60.76
274.287	-31.4
274.503	42.32
274.719	15.7
274.934	21.85
275.15	-4.78
275.366	21.85
275.581	52.56
275.797	17.75
276.012	17.75
276.228	34.13
276.444	50.52
276.659	83.28
276.875	-23.21
277.09	52.56
277.306	91.48
277.521	75.09
277.737	9.56
277.952	85.33
278.168	83.28
278.383	58.71
278.599	66.9
278.814	40.28
279.03	66.9
279.245	9.56
279.461	42.32
279.676	93.52
279.892	75.09
280.107	46.42
280.322	-62.12
280.538	83.28
280.753	77.14
280.969	54.61
281.184	5.46
281.399	83.28
281.615	60.76
281.83	52.56
282.045	42.32
282.26	-4.78
282.476	23.89
282.691	91.48
282.906	5.46
283.122	-29.35
283.337	34.13
283.552	66.9
283.767	99.67
283.983	91.48
284.198	111.96
284.413	17.75
284.628	-25.26
284.843	66.9
285.058	71
285.274	5.46
285.489	25.94
285.704	85.33
285.919	-2.73
286.134	54.61
286.349	42.32
286.564	58.71
286.779	66.9
286.995	46.42
287.21	50.52
287.425	87.38
287.64	46.42
287.855	124.24
288.07	42.32
288.285	66.9
288.5	27.99
288.715	87.38
288.93	-19.11
289.145	1.37
289.36	68.95
289.575	50.52
289.79	48.47
290.004	27.99
290.219	50.52
290.434	-39.59
290.649	68.95
290.864	1.37
291.079	66.9
291.294	95.57
291.509	73.04
291.724	85.33
291.938	58.71
292.153	-12.97
292.368	77.14
292.583	46.42
292.798	71
293.012	-6.83
293.227	-4.78
293.442	66.9
293.657	93.52
293.871	99.67
294.086	-6.83
294.301	71
294.516	152.92
294.73	54.61
294.945	-35.5
295.16	27.99
295.374	85.33
295.589	64.85
295.804	58.71
296.018	27.99
296.233	87.38
296.447	81.24
296.662	50.52
296.877	3.41
297.091	-12.97
297.306	83.28
297.52	-15.02
297.735	3.41
297.949	3.41
298.164	-19.11
298.378	66.9
298.593	-6.83
298.807	17.75
299.022	48.47
299.236	62.8
299.451	89.43
299.665	126.29
299.88	58.71
300.094	107.86
300.309	27.99
300.523	46.42
300.737	21.85
300.952	19.8
301.166	34.13
301.381	-35.5
301.595	34.13
301.809	99.67
302.024	42.32
302.238	27.99
302.452	50.52
302.667	85.33
302.881	97.62
303.095	99.67
303.309	52.56
303.524	-19.11
303.738	68.95
303.952	87.38
304.166	75.09
304.381	-4.78
304.595	101.72
304.809	42.32
305.023	73.04
305.237	36.18
305.452	93.52
305.666	81.24
305.88	79.19
306.094	38.23
306.308	77.14
306.522	50.52
306.736	9.56
306.95	62.8
307.164	68.95
307.379	34.13
307.593	52.56
307.807	99.67
308.021	71
308.235	42.32
308.449	5.46
308.663	30.04
308.877	91.48
309.091	50.52
309.305	48.47
309.519	-4.78
309.733	101.72
309.947	25.94
310.161	138.58
310.374	44.37
310.588	99.67
310.802	36.18
311.016	11.61
311.23	21.85
311.444	81.24
311.658	79.19
311.872	105.81
312.085	54.61
312.299	58.71
312.513	73.04
312.727	77.14
312.941	-12.97
313.154	38.23
313.368	-6.83
313.582	79.19
313.796	83.28
314.009	66.9
314.223	58.71
314.437	52.56
314.651	85.33
314.864	1.37
315.078	-15.02
315.292	-55.98
315.505	30.04
315.719	75.09
315.933	-15.02
316.146	101.72
316.36	66.9
316.573	75.09
316.787	-2.73
317.001	27.99
317.214	-27.31
317.428	5.46
317.641	58.71
317.855	30.04
318.068	62.8
318.282	58.71
318.495	32.08
318.709	75.09
318.922	27.99
319.136	128.34
319.349	42.32
319.563	-17.07
319.776	91.48
319.99	60.76
320.203	42.32
320.417	9.56
320.63	116.05
320.843	120.15
321.057	60.76
321.27	-6.83
321.483	175.44
321.697	75.09
321.91	85.33
322.124	38.23
322.337	17.75
322.55	58.71
322.763	9.56
322.977	60.76
323.19	17.75
323.403	19.8
323.617	58.71
323.83	124.24
324.043	50.52
324.256	101.72
324.469	23.89
324.683	140.63
324.896	-43.69
325.109	107.86
325.322	23.89
325.535	109.91
325.748	68.95
325.962	9.56
326.175	58.71
326.388	103.76
326.601	25.94
326.814	75.09
327.027	48.47
327.24	120.15
327.453	62.8
327.666	13.65
327.879	83.28
328.092	15.7
328.305	3.41
328.518	-4.78
328.731	-23.21
328.944	50.52
329.157	103.76
329.37	34.13
329.583	103.76
329.796	52.56
330.009	3.41
330.222	30.04
330.435	30.04
330.648	99.67
330.861	95.57
331.073	83.28
331.286	93.52
331.499	128.34
331.712	50.52
331.925	17.75
332.138	38.23
332.35	142.68
332.563	30.04
332.776	103.76
332.989	52.56
333.202	9.56
333.414	103.76
333.627	1.37
333.84	27.99
334.053	34.13
334.265	15.7
334.478	66.9
334.691	-115.37
334.903	-21.16
335.116	15.7
335.329	23.89
335.541	50.52
335.754	148.82
335.966	52.56
336.179	77.14
336.392	27.99
336.604	9.56
336.817	83.28
337.029	116.05
337.242	66.9
337.454	114
337.667	73.04
337.88	81.24
338.092	81.24
338.305	48.47
338.517	66.9
338.729	17.75
338.942	120.15
339.154	58.71
339.367	89.43
339.579	99.67
339.792	-31.4
340.004	89.43
340.217	3.41
340.429	103.76
340.641	25.94
340.854	46.42
341.066	23.89
341.278	91.48
341.491	83.28
341.703	99.67
341.915	-6.83
342.128	126.29
342.34	77.14
342.552	21.85
342.764	23.89
342.977	50.52
343.189	40.28
343.401	66.9
343.613	-21.16
343.826	109.91
344.038	19.8
344.25	50.52
344.462	9.56
344.674	34.13
344.886	19.8
345.099	116.05
345.311	5.46
345.523	38.23
345.735	19.8
345.947	17.75
346.159	75.09
346.371	132.44
346.583	44.37
346.795	91.48
347.007	38.23
347.219	58.71
347.431	30.04
347.643	38.23
347.855	75.09
348.067	118.1
348.279	-6.83
348.491	13.65
348.703	50.52
348.915	85.33
349.127	-60.07
349.339	111.96
349.551	34.13
349.763	48.47
349.975	58.71
350.187	75.09
350.399	118.1
350.61	77.14
350.822	25.94
351.034	77.14
351.246	38.23
351.458	30.04
351.669	128.34
351.881	42.32
352.093	116.05
352.305	77.14
352.517	50.52
352.728	34.13
352.94	85.33
353.152	21.85
353.363	25.94
353.575	50.52
353.787	97.62
353.999	54.61
354.21	71
354.422	99.67
354.633	111.96
354.845	71
355.057	150.87
355.268	148.82
355.48	79.19
355.692	11.61
355.903	87.38
356.115	83.28
356.326	36.18
356.538	58.71
356.749	95.57
356.961	114
357.172	58.71
357.384	-6.83
357.595	136.53
357.807	42.32
358.018	50.52
358.23	93.52
358.441	91.48
358.653	36.18
358.864	9.56
359.075	27.99
359.287	68.95
359.498	91.48
359.709	165.2
359.921	81.24
360.132	140.63
360.344	19.8
360.555	-0.68
360.766	60.76
360.977	83.28
361.189	38.23
361.4	5.46
361.611	99.67
361.823	48.47
362.034	40.28
362.245	13.65
362.456	140.63
362.667	93.52
362.879	34.13
363.09	105.81
363.301	124.24
363.512	52.56
363.723	73.04
363.935	66.9
364.146	34.13
364.357	19.8
364.568	40.28
364.779	40.28
364.99	132.44
365.201	-2.73
365.412	91.48
365.623	-12.97
365.834	68.95
366.045	116.05
366.256	114
366.467	161.11
366.678	17.75
366.889	46.42
367.1	85.33
367.311	83.28
367.522	40.28
367.733	50.52
367.944	146.77
368.155	25.94
368.366	60.76
368.577	206.16
368.788	132.44
368.999	60.76
369.209	62.8
369.42	122.2
369.631	159.06
369.842	81.24
370.053	19.8
370.264	128.34
370.474	5.46
370.685	103.76
370.896	75.09
371.107	99.67
371.317	136.53
371.528	36.18
371.739	52.56
371.95	-6.83
372.16	93.52
372.371	21.85
372.582	27.99
372.792	58.71
373.003	25.94
373.214	95.57
373.424	56.66
373.635	95.57
373.846	107.86
374.056	5.46
374.267	71
374.477	46.42
374.688	103.76
374.898	25.94
375.109	36.18
375.319	44.37
375.53	120.15
375.74	64.85
375.951	58.71
376.161	62.8
376.372	75.09
376.582	46.42
376.793	124.24
377.003	40.28
377.214	62.8
377.424	58.71
377.635	62.8
377.845	44.37
378.055	83.28
378.266	3.41
378.476	3.41
378.686	75.09
378.897	60.76
379.107	173.39
379.317	17.75
379.528	32.08
379.738	58.71
379.948	75.09
380.158	99.67
380.369	152.92
380.579	105.81
380.789	136.53
380.999	122.2
381.21	140.63
381.42	95.57
381.63	75.09
381.84	103.76
382.05	50.52
382.261	120.15
382.471	68.95
382.681	89.43
382.891	150.87
383.101	132.44
383.311	60.76
383.521	38.23
383.731	56.66
383.941	97.62
384.151	75.09
384.361	17.75
384.571	95.57
384.781	56.66
384.991	148.82
385.201	128.34
385.411	107.86
385.621	109.91
385.831	3.41
386.041	56.66
386.251	87.38
386.461	75.09
386.671	9.56
386.881	103.76
387.091	91.48
387.301	83.28
387.511	87.38
387.72	103.76
387.93	181.59
388.14	58.71
388.35	77.14
388.56	85.33
388.769	120.15
388.979	83.28
389.189	36.18
389.399	99.67
389.609	111.96
389.818	83.28
390.028	77.14
390.238	34.13
390.447	118.1
390.657	91.48
390.867	-0.68
391.076	107.86
391.286	111.96
391.496	17.75
391.705	30.04
391.915	42.32
392.125	163.15
392.334	118.1
392.544	81.24
392.753	116.05
392.963	40.28
393.172	99.67
393.382	21.85
393.591	152.92
393.801	107.86
394.01	134.48
394.22	107.86
394.429	89.43
394.639	46.42
394.848	27.99
395.058	128.34
395.267	71
395.477	128.34
395.686	150.87
395.895	116.05
396.105	175.44
396.314	99.67
396.524	128.34
396.733	91.48
396.942	140.63
397.152	91.48
397.361	66.9
397.57	118.1
397.78	44.37
397.989	136.53
398.198	173.39
398.407	60.76
398.617	167.25
398.826	181.59
399.035	48.47
399.244	140.63
399.453	134.48
399.663	109.91
399.872	101.72
400.081	75.09
400.29	181.59
400.499	122.2
400.708	136.53
400.917	185.68
401.127	128.34
401.336	116.05
401.545	234.83
401.754	150.87
401.963	202.07
402.172	126.29
402.381	167.25
402.59	27.99
402.799	114
403.008	216.4
403.217	167.25
403.426	99.67
403.635	195.92
403.844	140.63
404.053	230.74
404.262	148.82
404.471	202.07
404.68	214.35
404.888	148.82
405.097	238.93
405.306	189.78
405.515	240.98
405.724	183.63
405.933	267.6
406.142	193.87
406.35	304.46
406.559	206.16
406.768	144.72
406.977	267.6
407.185	257.36
407.394	234.83
407.603	173.39
407.812	296.27
408.02	314.7
408.229	367.95
408.438	324.94
408.646	331.09
408.855	357.71
409.064	329.04
409.272	324.94
409.481	423.25
409.69	353.62
409.898	419.15
410.107	464.21
410.315	400.72
410.524	435.53
410.733	460.11
410.941	445.77
411.15	591.18
411.358	550.22
411.567	494.93
411.775	527.69
411.984	546.13
412.192	533.84
412.401	632.14
412.609	685.39
412.818	722.25
413.026	714.06
413.234	623.95
413.443	742.73
413.651	771.4
413.86	836.94
414.068	863.56
414.276	816.46
414.485	855.37
414.693	935.24
414.901	974.15
415.11	918.86
415.318	1031.49
415.526	1006.92
415.734	1015.11
415.943	1045.83
416.151	1140.04
416.359	1162.56
416.567	1221.95
416.776	1181
416.984	1211.71
417.192	1361.22
417.4	1365.31
417.608	1361.22
417.817	1426.75
418.025	1500.48
418.233	1717.56
418.441	1584.45
418.649	1674.56
418.857	1733.95
419.065	1815.87
419.273	1805.63
419.481	1862.97
419.689	1928.5
419.897	2069.81
420.105	2131.25
420.313	2028.85
420.521	2250.03
420.729	2323.76
420.937	2262.32
421.145	2428.21
421.353	2463.02
421.561	2573.61
421.769	2749.74
421.977	2889
422.185	2848.04
422.393	3114.28
422.601	3085.61
422.809	2987.3
423.017	3142.95
423.224	3249.44
423.432	3390.75
423.64	3456.29
423.848	3884.31
424.056	3523.87
424.263	3994.9
424.471	3933.47
424.679	4105.49
424.887	4171.03
425.094	4300.05
425.302	4214.04
425.51	4601.1
425.718	4662.54
425.925	4816.14
426.133	4893.96
426.341	5195.01
426.548	5412.1
426.756	5473.54
426.964	5448.96
427.171	5838.08
427.379	6001.91
427.586	5940.47
427.794	5973.24
428.001	6296.82
428.209	6687.98
428.417	6771.95
428.624	7206.12
428.832	7079.15
429.039	7107.82
429.247	7081.19
429.454	7744.74
429.662	8217.82
429.869	7759.07
430.076	8316.12
430.284	8031.45
430.491	8346.84
430.699	8934.6
430.906	8690.9
431.114	8871.12
431.321	9268.42
431.528	9501.89
431.736	9968.83
431.943	10470.58
432.15	10341.56
432.358	10138.81
432.565	10914.99
432.772	10833.07
432.979	11244.71
433.187	11453.61
433.394	11748.51
433.601	12721.3
433.808	12209.31
434.016	12289.18
434.223	12745.87
434.43	13448.33
434.637	13524.1
434.844	14314.62
435.052	14476.41
435.259	14279.8
435.466	14652.53
435.673	14406.78
435.88	15328.36
436.087	16098.4
436.294	16051.3
436.501	15801.44
436.708	16055.39
436.915	16450.65
437.122	17411.15
437.329	17175.63
437.537	17714.25
437.743	18121.79
437.95	17935.43
438.157	18768.95
438.364	19577.9
438.571	19434.54
438.778	19846.18
438.985	21163.03
439.192	20618.27
439.399	20933.65
439.606	20624.41
439.813	21914.63
440.02	22969.33
440.227	22852.6
440.433	22463.49
440.64	23233.52
440.847	23069.69
441.054	23792.62
441.261	25334.74
441.467	24908.76
441.674	25582.54
441.881	26053.58
442.088	26033.1
442.294	26221.51
442.501	26153.93
442.708	27069.37
442.914	28011.43
443.121	29195.16
443.328	28591.01
443.534	30804.86
443.741	29680.53
443.948	29457.3
444.154	31409.01
444.361	31114.11
444.568	31634.29
444.774	31404.92
444.981	31757.17
445.187	32267.11
445.394	34204.49
445.6	33571.67
445.807	36680.49
446.013	35027.77
446.22	35719.99
446.426	37524.25
446.633	37501.72
446.839	38660.87
447.046	37198.62
447.252	39019.27
447.459	39203.58
447.665	39246.59
447.871	40731.37
448.078	42013.4
448.284	40252.14
448.491	41282.27
448.697	42998.47
448.903	43592.38
449.11	43801.27
449.316	43160.26
449.522	44124.85
449.728	45210.28
449.935	45404.83
450.141	45697.69
450.347	46668.43
450.553	45071.01
450.76	45771.42
450.966	46631.57
451.172	46416.53
451.378	47766.14
451.584	46631.57
451.791	47710.85
451.997	47772.28
452.203	48566.9
452.409	48657.01
452.615	48378.48
452.821	46529.17
453.027	45855.39
453.233	48382.58
453.44	46445.2
453.646	46965.38
453.852	47237.76
454.058	48036.47
454.264	46316.18
454.47	47590.02
454.676	46109.33
454.882	48110.2
455.088	43766.46
455.294	44800.68
455.5	45042.34
455.705	45415.07
455.911	43809.46
456.117	42928.84
456.323	42439.37
456.529	40200.94
456.735	41589.47
456.941	40340.21
457.147	40049.39
457.352	38894.34
457.558	38605.58
457.764	38558.47
457.97	37882.64
458.176	37354.27
458.381	36690.73
458.587	35101.5
458.793	35132.22
458.999	33317.72
459.204	35658.55
459.41	35093.31
459.616	32707.43
459.821	32465.77
460.027	32301.93
460.233	31939.44
460.438	30157.71
460.644	30499.72
460.85	29137.82
461.055	28394.4
461.261	28447.65
461.466	26504.13
461.672	25635.79
461.878	27481.01
462.083	25680.85
462.289	25152.47
462.494	25043.93
462.7	23696.36
462.905	23223.28
463.111	23981.03
463.316	24007.65
463.522	23313.39
463.727	23714.8
463.932	23219.19
464.138	22987.77
464.343	23102.45
464.549	22447.1
464.754	23376.88
464.959	23366.64
465.165	22967.29
465.37	21644.3
465.575	21240.85
465.781	22170.63
465.986	22293.51
466.191	21677.07
466.397	20966.42
466.602	20161.57
466.807	20788.25
467.012	20745.24
467.218	20562.97
467.423	20374.56
467.628	20405.28
467.833	21359.63
468.038	20427.81
468.244	19997.73
468.449	20544.54
468.654	19870.76
468.859	19647.53
469.064	19844.13
469.269	19039.28
469.474	19301.42
469.679	19663.91
469.885	18740.28
470.09	19194.93
470.295	18924.6
470.5	18592.83
470.705	18572.35
470.91	18146.37
471.115	18400.32
471.32	18439.23
471.525	18357.31
471.73	17867.84
471.935	17906.76
472.139	17099.86
472.344	16991.31
472.549	17196.11
472.754	16936.02
472.959	16868.44
473.164	16594.01
473.369	16053.34
473.574	16626.78
473.778	16487.51
473.983	16364.64
474.188	16243.81
474.393	15623.27
474.598	15873.12
474.802	15635.56
475.007	15225.96
475.212	15107.18
475.417	14767.22
475.621	14929.01
475.826	14734.45
476.031	14683.25
476.235	14353.53
476.44	14726.26
476.645	14206.08
476.849	14230.65
477.054	14036.1
477.259	13755.52
477.463	13939.84
477.668	13509.77
477.872	13761.67
478.077	13458.57
478.282	13253.77
478.486	13212.81
478.691	12805.27
478.895	12969.1
479.1	12946.58
479.304	13083.79
479.509	12311.71
479.713	12563.61
479.918	12440.73
480.122	12334.23
480.326	12453.02
480.531	12524.69
480.735	12346.52
480.94	12004.51
481.144	12706.96
481.348	12010.65
481.553	12149.92
481.757	12061.85
481.961	11807.91
482.166	12174.49
482.37	11891.87
482.574	11719.84
482.778	12063.9
482.983	12094.62
483.187	11945.12
483.391	12086.43
483.595	11961.5
483.8	11904.16
484.004	11941.02
484.208	11873.44
484.412	11920.54
484.616	11783.33
484.821	12037.28
485.025	11654.31
485.229	12010.65
485.433	11756.71
485.637	11889.82
485.841	11764.9
486.045	11711.65
486.249	11586.72
486.453	11848.86
486.657	11887.78
486.861	11725.99
487.065	11449.51
487.269	11777.19
487.473	11513
487.677	11945.12
487.881	12059.81
488.085	11785.38
488.289	11699.36
488.493	11576.48
488.697	11680.93
488.901	11748.51
489.105	11676.84
489.309	12010.65
489.512	11957.41
489.716	11900.06
489.92	11918.5
490.124	11844.77
490.328	11922.59
490.531	11963.55
490.735	12102.81
490.939	12166.3
491.143	12041.37
491.346	12004.51
491.55	12199.07
491.754	12221.59
491.958	12174.49
492.161	11947.17
492.365	12233.88
492.569	12182.68
492.772	12344.47
492.976	12428.44
493.18	12625.04
493.383	12559.51
493.587	12483.73
493.79	12741.78
493.994	12526.74
494.197	12747.92
494.401	12838.03
494.605	12780.69
494.808	13087.89
495.012	13153.42
495.215	13169.8
495.419	13409.42
495.622	13329.55
495.825	13477
496.029	13509.77
496.232	13714.56
496.436	13855.87
496.639	13929.6
496.843	13761.67
497.046	14132.35
497.249	14335.1
497.453	14439.55
497.656	14380.15
497.859	14642.29
498.063	14607.48
498.266	14955.63
498.469	14797.94
498.673	14754.93
498.876	15240.3
499.079	15273.07
499.282	15445.1
499.485	15594.6
499.689	15572.07
499.892	15713.38
500.095	15813.73
500.298	16260.19
500.501	16192.61
500.705	16499.8
500.908	16622.68
501.111	16798.81
501.314	16716.89
501.517	17069.14
501.72	17347.66
501.923	17036.37
502.126	17968.2
502.329	17982.53
502.532	18138.18
502.735	17970.24
502.938	18717.75
503.141	18490.43
503.344	18435.13
503.547	18826.29
503.75	19285.04
503.953	19416.11
504.156	19551.28
504.359	19672.11
504.562	19745.83
504.765	20321.31
504.968	20116.51
505.17	20567.07
505.373	20575.26
505.576	20704.28
505.779	21126.16
505.982	21296.14
506.185	21619.72
506.387	21580.81
506.59	21931.01
506.793	22455.29
506.996	22014.98
507.198	23012.34
507.401	22529.02
507.604	22735.87
507.807	23454.7
508.009	23462.9
508.212	23708.65
508.415	24122.34
508.617	24044.52
508.82	24529.89
509.022	24226.79
509.225	24667.1
509.428	24927.19
509.63	25181.14
509.833	25426.9
510.035	25977.8
510.238	25713.61
510.44	26155.97
510.643	26534.85
510.845	26586.05
511.048	26418.11
511.25	27345.84
511.453	27313.08
511.655	28083.11
511.858	27790.25
512.06	28091.3
512.262	28398.5
512.465	28365.73
512.667	28754.85
512.87	29047.71
513.072	28787.61
513.274	29758.35
513.477	29889.42
513.679	30143.37
513.881	30335.88
514.084	30442.37
514.286	30524.29
514.488	30878.59
514.69	31662.96
514.893	31935.34
515.095	31671.15
515.297	32105.32
515.499	32105.32
515.701	32455.53
515.904	33145.69
516.106	33170.27
516.308	33456.98
516.51	33614.68
516.712	33747.79
516.914	33915.73
517.116	34497.35
517.318	34413.38
517.52	34691.91
517.722	35115.84
517.925	35672.88
518.127	35476.28
518.329	36105.01
518.531	35826.48
518.733	36322.09
518.935	37026.59
519.136	36965.15
519.338	36981.54
519.54	37468.95
519.742	37577.5
519.944	37931.79
520.146	38386.44
520.348	38544.14
520.55	38605.58
520.752	38673.16
520.954	38935.3
521.155	38677.26
521.357	39203.58
521.559	39801.59
521.761	40084.21
521.963	39928.56
522.164	40139.5
522.366	40125.17
522.568	40858.34
522.77	40678.12
522.971	41329.37
523.173	41153.25
523.375	41939.67
523.576	41052.9
523.778	41581.27
523.98	41972.44
524.181	41765.59
524.383	41810.65
524.584	42287.82
524.786	42412.75
524.988	41986.77
525.189	42619.59
525.391	42732.23
525.592	42814.15
525.794	42805.96
525.995	42875.59
526.197	42912.45
526.398	42945.22
526.6	43395.78
526.801	43578.04
527.003	43616.96
527.204	43127.49
527.406	43561.66
527.607	43700.92
527.808	43578.04
528.01	43399.87
528.211	43440.83
528.412	44487.34
528.614	44110.52
528.815	43614.91
529.016	44020.41
529.218	43969.21
529.419	44104.37
529.62	44311.22
529.822	43963.06
530.023	44036.79
530.224	44432.05
530.425	44067.51
530.626	44069.56
530.828	43479.74
531.029	44628.65
531.23	43940.53
531.431	43942.58
531.632	44096.18
531.833	43762.36
532.035	43883.19
532.236	43823.8
532.437	43807.42
532.638	43637.44
532.839	44087.99
533.04	44022.45
533.241	43166.4
533.442	44329.65
533.643	43590.33
533.844	43559.61
534.045	43870.9
534.246	43272.9
534.447	43784.89
534.648	43733.69
534.849	43547.32
535.05	43588.28
535.251	43391.68
535.451	43193.03
535.652	43557.56
535.853	43348.67
536.054	43113.16
536.255	43567.8
536.456	42859.21
536.657	43684.54
536.857	43035.33
537.058	43309.76
537.259	43446.97
537.46	43055.81
537.66	42943.17
537.861	43104.96
538.062	43035.33
538.263	43268.8
538.463	43041.48
538.664	42881.73
538.865	43072.2
539.065	43025.09
539.266	42324.69
539.466	42711.75
539.667	42347.22
539.868	43076.29
540.068	42875.59
540.269	42463.95
540.469	42756.81
540.67	42726.09
540.87	42152.66
541.071	42687.18
541.271	42619.59
541.472	42642.12
541.672	42341.07
541.873	42087.12
542.073	41997.01
542.274	42791.62
542.474	42207.95
542.675	41986.77
542.875	42498.76
543.075	42183.38
543.276	42003.16
543.476	42805.96
543.676	42435.28
543.877	42590.92
544.077	42457.81
544.277	42070.74
544.478	42214.1
544.678	42412.75
544.878	42431.18
545.078	42588.88
545.279	42142.42
545.479	41900.76
545.679	42353.36
545.879	42269.39
546.079	42187.47
546.28	42185.43
546.48	41816.79
546.68	42355.41
546.88	41810.65
547.08	41812.7
547.28	41736.92
547.48	41618.14
547.68	42253.01
547.88	41853.65
548.081	42044.12
548.281	42015.44
548.481	41911
548.681	42052.31
548.881	42040.02
549.081	41759.45
549.28	42121.94
549.48	42379.98
549.68	41974.48
549.88	42642.12
550.08	41587.42
550.28	41904.85
550.48	42130.13
550.68	42279.63
550.88	41849.56
551.08	42218.19
551.279	42119.89
551.479	42056.4
551.679	41911
551.879	42099.41
552.079	42339.02
552.278	41980.63
552.478	42181.33
552.678	42242.77
552.878	42521.29
553.077	41911
553.277	41810.65
553.477	42549.96
553.676	42259.15
553.876	42064.6
554.076	41980.63
554.275	42412.75
554.475	41753.3
554.674	42330.83
554.874	42197.71
555.074	42011.35
555.273	42216.15
555.473	42472.14
555.672	42076.88
555.872	42078.93
556.071	42277.58
556.271	42658.51
556.47	42658.51
556.67	41958.1
556.869	41802.46
557.068	42584.78
557.268	42275.54
557.467	42394.32
557.667	42625.74
557.866	42195.67
558.065	41960.15
558.265	42218.19
558.464	42277.58
558.663	42568.4
558.863	42080.98
559.062	42412.75
559.261	42185.43
559.461	42359.5
559.66	42205.91
559.859	42306.26
560.058	41978.58
560.258	41915.09
560.457	41890.52
560.656	42900.17
560.855	41945.81
561.054	42138.32
561.253	41941.72
561.453	42162.9
561.652	42146.51
561.851	42308.3
562.05	41816.79
562.249	41655
562.448	42474.19
562.647	41917.14
562.846	42119.89
563.045	42318.54
563.244	41704.15
563.443	42304.21
563.642	41237.22
563.841	41904.85
564.04	41892.57
564.239	42175.19
564.438	41550.56
564.637	41732.82
564.836	41843.41
565.035	41405.15
565.234	41730.78
565.432	41429.73
565.631	41454.3
565.83	41704.15
566.029	41517.79
566.228	41372.38
566.427	41390.81
566.625	41261.79
566.824	41011.94
567.023	41061.09
567.222	40725.22
567.42	41331.42
567.619	41229.02
567.818	40712.94
568.016	40837.86
568.215	41071.33
568.414	40821.48
568.612	40825.57
568.811	41147.11
569.01	40725.22
569.208	40483.56
569.407	40827.62
569.605	40334.06
569.804	40514.28
570.002	40076.02
570.201	40555.24
570.4	40053.49
570.598	39899.89
570.797	39785.21
570.995	40323.82
571.193	40139.5
571.392	39983.86
571.59	39492.35
571.789	39703.29
571.987	39887.6
572.186	39123.71
572.384	39025.41
572.582	39525.11
572.781	39537.4
572.979	38671.11
573.177	39299.84
573.376	38742.79
573.574	38933.25
573.772	39052.03
573.971	38630.15
574.169	38390.54
574.367	38296.33
574.565	39052.03
574.763	38468.36
574.962	38206.22
575.16	38064.91
575.358	38302.48
575.556	37735.19
575.754	38468.36
575.952	37557.02
576.151	38003.47
576.349	37509.91
576.547	37403.42
576.745	37362.46
576.943	37804.82
577.141	37471
577.339	37303.07
577.537	37292.83
577.735	37100.32
577.933	36705.06
578.131	37403.42
578.329	36797.22
578.527	36676.39
578.725	36952.87
578.923	36848.42
579.121	36442.92
579.319	36229.93
579.516	36891.43
579.714	36387.63
579.912	35818.29
580.11	35978.03
580.308	36129.58
580.506	36100.91
580.704	35289.91
580.901	36182.83
581.099	36150.06
581.297	35396.41
581.495	35144.51
581.692	35642.17
581.89	35314.49
582.088	35511.1
582.285	35078.97
582.483	35390.27
582.681	35296.06
582.878	34722.63
583.076	34501.45
583.274	34900.8
583.471	34499.4
583.669	34321.23
583.866	34790.21
584.064	35033.92
584.262	34308.94
584.459	34519.88
584.657	34124.62
584.854	34505.54
585.052	33753.94
585.249	33690.45
585.447	34186.06
585.644	33452.89
585.841	33411.93
586.039	33749.84
586.236	33583.96
586.434	33258.33
586.631	33512.28
586.828	33485.65
587.026	33373.02
587.223	32914.27
587.42	33016.67
587.618	33157.98
587.815	32842.59
588.012	32750.43
588.21	32777.06
588.407	33194.84
588.604	32813.92
588.801	32607.08
588.999	32598.88
589.196	32775.01
589.393	31910.77
589.59	32506.73
589.787	32195.43
589.984	31832.94
590.182	32093.04
590.379	32312.17
590.576	31972.21
590.773	32201.58
590.97	31695.73
591.167	31699.83
591.364	31480.69
591.561	31869.81
591.758	31689.59
591.955	31441.78
592.152	31579
592.349	31359.86
592.546	31904.62
592.743	31417.21
592.94	30976.89
593.137	31292.28
593.334	31128.44
593.531	30569.35
593.727	30899.07
593.924	30983.04
594.121	30514.05
594.318	31175.55
594.515	30862.21
594.712	30915.45
594.908	30759.81
595.105	31069.05
595.302	30716.8
595.499	30817.15
595.696	30520.2
595.892	30395.27
596.089	30532.48
596.286	30399.37
596.482	30663.55
596.679	30284.68
596.876	30552.96
597.072	30047.11
597.269	30569.35
597.466	30417.8
597.662	30129.03
597.859	30010.25
598.055	30133.13
598.252	30018.44
598.448	30116.75
598.645	29729.68
598.841	29909.9
599.038	30167.94
599.234	29848.46
599.431	29782.93
599.627	29985.68
599.824	29957
600.02	29475.73
600.217	30284.68
600.413	30135.18
600.609	29653.9
600.806	29576.08
601.002	29639.57
601.198	29997.96
601.395	29488.02
601.591	29709.2
601.787	29739.92
601.984	29268.89
602.18	30153.61
602.376	29424.53
602.572	29563.79
602.769	29535.12
602.965	29209.5
603.161	29649.81
603.357	29567.89
603.553	29266.84
603.75	29531.03
603.946	29436.82
604.142	29957
604.338	29649.81
604.534	29991.82
604.73	29254.55
604.926	29504.4
605.122	29940.62
605.318	29387.67
605.514	29352.85
605.71	29514.64
605.906	29422.48
606.102	29813.65
606.298	29703.06
606.494	29891.47
606.69	29662.1
606.886	29725.58
607.082	29410.2
607.278	29918.09
607.474	29516.69
607.67	30004.11
607.866	29356.95
608.062	30002.06
608.257	29827.98
608.453	29848.46
608.649	29778.83
608.845	29696.91
609.041	29610.9
609.236	30092.17
609.432	29789.07
609.628	29645.71
609.824	29866.89
610.019	29625.23
610.215	29899.66
610.411	30067.59
610.606	29647.76
610.802	30020.49
610.998	29907.85
611.193	30161.8
611.389	29893.52
611.584	30192.52
611.78	29977.48
611.976	29789.07
612.171	29782.93
612.367	29991.82
612.562	29858.7
612.758	29574.03
612.953	30120.84
613.149	30167.94
613.344	29942.67
613.539	30370.69
613.735	30233.48
613.93	30249.86
614.126	29903.76
614.321	30485.38
614.517	30229.38
614.712	29995.92
614.907	29987.72
615.103	30225.29
615.298	30133.13
615.493	30274.44
615.688	29852.56
615.884	30536.58
616.079	30098.31
616.274	30262.15
616.47	30176.14
616.665	30352.26
616.86	29830.03
617.055	30061.45
617.25	29985.68
617.445	30233.48
617.641	29838.22
617.836	30180.23
618.031	29565.84
618.226	30051.21
618.421	29645.71
618.616	29827.98
618.811	29619.09
619.006	29922.19
619.201	29619.09
619.396	29596.56
619.591	29100.95
619.786	29594.51
619.981	29311.89
620.176	29162.39
620.371	29156.25
620.566	29356.95
620.761	28908.44
620.956	28828.57
621.151	28648.35
621.346	28953.5
621.541	28523.43
621.735	28804
621.93	28306.34
622.125	28236.71
622.32	28029.87
622.515	28097.45
622.709	27906.99
622.904	28074.92
623.099	27833.26
623.294	27841.45
623.488	27423.67
623.683	28130.22
623.878	27149.24
624.072	27046.84
624.267	26815.42
624.462	27020.22
624.656	26692.54
624.851	26905.53
625.046	26495.94
625.24	26569.66
625.435	26422.21
625.629	26158.02
625.824	26143.69
626.018	26198.98
626.213	25852.87
626.407	25902.03
626.602	25443.28
626.796	25740.24
626.991	25543.63
627.185	25224.15
627.38	24970.2
627.574	25019.35
627.768	25052.12
627.963	24798.17
628.157	24445.92
628.352	24607.71
628.546	24060.9
628.74	24759.26
628.935	24230.88
629.129	24085.48
629.323	23995.37
629.517	23768.04
629.712	23743.47
629.906	23966.7
630.1	23501.81
630.294	23364.59
630.489	23356.4
630.683	23512.05
630.877	23073.78
631.071	22834.17
631.265	23213.04
631.459	22928.38
631.653	22836.22
631.848	22797.31
632.042	22486.01
632.236	22400
632.43	22438.91
632.624	22320.13
632.818	22234.11
633.012	21971.97
633.206	22066.18
633.4	21892.1
633.594	21459.98
633.788	21578.76
633.982	21459.98
634.176	21462.03
634.369	21146.64
634.563	21261.33
634.757	20763.67
634.951	21011.48
635.145	20749.34
635.339	20804.63
635.533	20644.89
635.726	20612.12
635.92	20325.41
636.114	20431.9
636.308	20200.48
636.501	20112.42
636.695	19844.13
636.889	19932.2
637.083	20040.74
637.276	19682.35
637.47	19715.11
637.664	19452.97
637.857	19469.36
638.051	19334.19
638.244	19072.05
638.438	19100.72
638.632	19237.94
638.825	18709.56
639.019	18580.54
639.212	18545.72
639.406	18918.45
639.599	18512.95
639.793	18156.61
639.986	18240.58
640.18	18222.14
640.373	17828.93
640.567	18009.15
640.76	17837.13
640.954	17849.41
641.147	17407.05
641.34	17603.66
641.534	17517.64
641.727	17628.23
641.92	17554.51
642.114	17155.15
642.307	17269.84
642.5	16829.52
642.694	16913.49
642.887	16768.09
643.08	16944.21
643.273	16551
643.467	16340.06
643.66	16118.88
643.853	16364.64
644.046	16274.52
644.239	16208.99
644.432	16073.82
644.626	15932.51
644.819	15901.79
645.012	15885.41
645.205	15707.24
645.398	15793.25
645.591	15541.35
645.784	15541.35
645.977	15463.53
646.17	15318.12
646.363	14933.11
646.556	14992.5
646.749	14992.5
646.942	15101.04
647.135	14519.42
647.328	14691.45
647.521	14525.56
647.714	14437.5
647.907	14486.65
648.099	14417.02
648.292	14185.6
648.485	14384.25
648.678	14115.97
648.871	13733
649.064	14005.38
649.256	13937.79
649.449	13898.88
649.642	13765.76
649.835	13569.16
650.027	13565.06
650.22	13407.37
650.413	13544.58
650.605	13552.77
650.798	13403.27
650.991	13345.93
651.183	13280.39
651.376	13317.26
651.568	13169.8
651.761	12930.19
651.954	12842.13
652.146	12727.44
652.339	12592.28
652.531	12735.64
652.724	12666
652.916	12346.52
653.109	12561.56
653.301	12436.63
653.494	12358.81
653.686	12149.92
653.879	12233.88
654.071	12252.31
654.263	12035.23
654.456	12096.67
654.648	12010.65
654.84	11875.49
655.033	11742.37
655.225	11723.94
655.417	11822.24
655.61	11619.49
655.802	11631.78
655.994	11660.45
656.186	11545.77
656.379	11662.5
656.571	11140.27
656.763	11209.9
656.955	11207.85
657.148	11404.46
657.34	11316.39
657.532	11031.72
657.724	10890.42
657.916	11023.53
658.108	10790.06
658.3	10736.82
658.492	10677.43
658.684	10425.53
658.876	10605.75
659.068	10589.36
659.26	10456.25
659.452	10466.49
659.644	10298.55
659.836	10173.63
660.028	10544.31
660.22	10214.59
660.412	10196.15
660.604	10069.18
660.796	10206.39
660.988	9929.92
661.18	9948.35
661.372	9796.8
661.563	9970.88
661.755	9600.19
661.947	9815.23
662.139	9682.11
662.331	9391.3
662.522	9553.09
662.714	9669.83
662.906	9409.73
663.097	9405.64
663.289	9381.06
663.481	9186.51
663.673	9098.44
663.864	9194.7
664.056	9194.7
664.247	9118.92
664.439	8936.65
664.631	9041.1
664.822	9032.91
665.014	8895.69
665.205	8826.06
665.397	8774.86
665.588	8758.48
665.78	8662.23
665.971	8764.62
666.163	8830.16
666.354	8455.38
666.546	8434.9
666.737	8436.95
666.929	8563.92
667.12	8533.2
667.311	8338.65
667.503	8228.06
667.694	8418.52
667.885	8139.99
668.077	8226.01
668.268	8080.6
668.459	8125.66
668.651	8103.13
668.842	8176.86
669.033	7824.61
669.224	7787.74
669.416	7972.06
669.607	7920.86
669.798	7701.73
669.989	7761.12
670.18	7625.95
670.371	7892.19
670.563	7689.44
670.754	7574.75
670.945	7722.21
671.136	7761.12
671.327	7642.34
671.518	7562.47
671.709	7402.72
671.9	7419.11
672.091	7501.03
672.282	7339.24
672.473	7480.55
672.664	7417.06
672.855	7316.71
673.046	7390.44
673.237	7341.29
673.428	7156.97
673.619	7263.46
673.809	7263.46
674	7202.02
674.191	7124.2
674.382	6931.69
674.573	7075.05
674.764	6972.65
674.954	7052.52
675.145	6933.74
675.336	7079.15
675.527	6980.84
675.717	6905.07
675.908	6825.2
676.099	6841.58
676.289	6733.04
676.48	6825.2
676.671	6671.6
676.861	6700.27
677.052	6704.37
677.243	6636.78
677.433	6737.13
677.624	6823.15
677.814	6581.49
678.005	6716.65
678.195	6808.81
678.386	6737.13
678.576	6446.32
678.767	6614.26
678.957	6405.36
679.148	6708.46
679.338	6593.78
679.529	6655.22
679.719	6581.49
679.909	6348.02
680.1	6569.2
680.29	6489.33
680.481	6360.31
680.671	6474.99
680.861	6456.56
681.052	6405.36
681.242	6327.54
681.432	6472.95
681.622	6292.73
681.813	6325.49
682.003	6223.09
682.193	6173.94
682.383	6274.29
682.573	6384.88
682.764	6276.34
682.954	6366.45
683.144	6423.8
683.334	6259.96
683.524	6272.25
683.714	6319.35
683.904	6130.94
684.094	6259.96
684.284	6268.15
684.474	6266.1
684.664	6055.16
684.854	6137.08
685.044	6059.26
685.234	6085.88
685.424	6075.64
685.614	6094.07
685.804	6028.54
685.994	6112.5
686.184	5915.9
686.374	5917.95
686.564	6141.18
686.753	5993.72
686.943	5797.12
687.133	5815.55
687.323	5782.78
687.513	6055.16
687.702	5897.47
687.892	5803.26
688.082	5711.1
688.272	5958.91
688.461	5778.69
688.651	5760.25
688.841	5717.25
689.03	5715.2
689.22	5666.05
689.41	5655.81
689.599	5639.42
689.789	5674.24
689.979	5506.31
690.168	5604.61
690.358	5557.5
690.547	5465.35
690.737	5635.33
690.926	5711.1
691.116	5287.17
691.305	5532.93
691.495	5620.99
691.684	5365
691.874	5448.96
692.063	5293.32
692.252	5485.83
692.442	5371.14
692.631	5330.18
692.82	5356.8
693.01	5285.12
693.199	5416.19
693.388	5246.21
693.578	5319.94
693.767	5266.69
693.956	5235.97
694.146	5162.25
694.335	5203.21
694.524	5170.44
694.713	5295.36
694.902	5248.26
695.092	5252.36
695.281	5113.1
695.47	5008.65
695.659	5106.95
695.848	5141.77
696.037	4990.22
696.226	4975.88
696.415	5139.72
696.604	5115.14
696.793	4957.45
696.982	5049.61
697.171	5129.48
697.36	4953.35
697.549	4986.12
697.738	4930.83
697.927	5018.89
698.116	5078.28
698.305	4877.58
698.494	4920.59
698.683	4943.11
698.872	4912.39
699.061	4810
699.25	4869.39
699.438	4877.58
699.627	4715.79
699.816	4752.65
700.005	4713.74
700.193	4740.36
700.382	4891.91
700.571	4670.73
700.76	4625.68
700.948	4752.65
701.137	4672.78
701.326	4650.25
701.514	4689.17
701.703	4597.01
701.892	4564.24
702.08	4650.25
702.269	4715.79
702.457	4488.46
702.646	4500.75
702.834	4402.45
703.023	4609.3
703.212	4418.83
703.4	4599.06
703.589	4326.68
703.777	4390.16
703.965	4369.68
704.154	4459.79
704.342	4457.75
704.531	4427.03
704.719	4445.46
704.907	4388.11
705.096	4298
705.284	4293.91
705.472	4271.38
705.661	4269.33
705.849	4349.2
706.037	4310.29
706.226	4150.55
706.414	4248.85
706.602	4093.21
706.79	4156.69
706.979	4261.14
707.167	4173.08
707.355	4015.38
707.543	4121.88
707.731	4099.35
707.919	4093.21
708.107	4162.84
708.296	4017.43
708.484	4072.73
708.672	4005.14
708.86	4136.21
709.048	4019.48
709.236	4082.97
709.424	4099.35
709.612	4076.82
709.8	3857.69
709.988	3929.37
710.176	3986.71
710.364	3968.28
710.551	3958.04
710.739	3863.83
710.927	3964.18
711.115	3929.37
711.303	4011.29
711.491	3808.54
711.679	3826.97
711.866	3867.93
712.054	3867.93
712.242	3788.06
712.43	3867.93
712.617	3796.25
712.805	3671.33
712.993	3802.4
713.181	3671.33
713.368	3591.45
713.556	3876.12
713.744	3548.45
713.931	3837.21
714.119	3663.13
714.306	3687.71
714.494	3562.78
714.682	3687.71
714.869	3548.45
715.057	3616.03
715.244	3597.6
715.432	3646.75
715.619	3593.5
715.807	3556.64
715.994	3556.64
716.182	3523.87
716.369	3589.41
716.556	3589.41
716.744	3566.88
716.931	3419.43
717.119	3466.53
717.306	3259.68
717.493	3384.61
717.681	3515.68
717.868	3468.58
718.055	3462.43
718.242	3370.27
718.43	3484.96
718.617	3323.17
718.804	3491.1
718.991	3339.55
719.179	3444
719.366	3306.79
719.553	3329.31
719.74	3288.36
719.927	3206.44
720.114	3294.5
720.301	3329.31
720.488	3208.48
720.676	3214.63
720.863	3343.65
721.05	3323.17
721.237	3165.48
721.424	3188
721.611	3183.91
721.798	3220.77
721.985	3179.81
722.172	3222.82
722.358	3183.91
722.545	3085.61
722.732	2989.35
722.919	3099.94
723.106	3073.32
723.293	3071.27
723.48	3040.55
723.667	3034.41
723.853	3087.65
724.04	3058.98
724.227	3056.93
724.414	2958.63
724.6	2968.87
724.787	3007.78
724.974	3122.47
725.161	2917.67
725.347	2934.06
725.534	2954.54
725.72	2911.53
725.907	3032.36
726.094	2895.15
726.28	2792.75
726.467	2872.62
726.653	2917.67
726.84	2917.67
727.027	3058.98
727.213	2802.99
727.4	2954.54
727.586	2901.29
727.773	2753.84
727.959	2854.19
728.145	2807.08
728.332	2696.49
728.518	2876.71
728.705	2823.47
728.891	2821.42
729.077	2927.91
729.264	2862.38
729.45	2790.7
729.636	2850.09
729.823	2614.57
730.009	2905.39
730.195	2729.26
730.382	2764.08
730.568	2706.73
730.754	2710.83
730.94	2786.6
731.126	2702.64
731.313	2862.38
731.499	2573.61
731.685	2680.11
731.871	2729.26
732.057	2770.22
732.243	2680.11
732.429	2714.92
732.615	2680.11
732.801	2729.26
732.987	2606.38
733.173	2665.77
733.359	2581.81
733.545	2592.05
733.731	2436.4
733.917	2602.29
734.103	2639.15
734.289	2633.01
734.475	2575.66
734.661	2659.63
734.847	2606.38
735.033	2557.23
735.219	2585.9
735.404	2475.31
735.59	2587.95
735.776	2532.65
735.962	2532.65
736.148	2561.33
736.333	2493.74
736.519	2516.27
736.705	2411.82
736.89	2434.35
737.076	2450.74
737.262	2499.89
737.447	2524.46
737.633	2362.67
737.819	2532.65
738.004	2293.04
738.19	2434.35
738.375	2381.1
738.561	2370.87
738.747	2446.64
738.932	2420.02
739.118	2536.75
739.303	2436.4
739.489	2321.71
739.674	2331.95
739.859	2235.7
740.045	2284.85
740.23	2344.24
740.416	2405.68
740.601	2237.75
740.786	2299.19
740.972	2207.03
741.157	2338.1
741.342	2262.32
741.528	2319.67
741.713	2229.56
741.898	2135.35
742.084	2241.84
742.269	2098.49
742.454	2282.8
742.639	2270.51
742.824	2069.81
743.01	2194.74
743.195	2198.84
743.38	2178.36
743.565	2073.91
743.75	2168.12
743.935	2141.49
744.12	2061.62
744.305	1991.99
744.49	1989.94
744.675	2008.37
744.86	2180.4
745.045	2176.31
745.23	2002.23
745.415	2002.23
745.6	2123.06
745.785	2026.81
745.97	1959.22
746.155	2053.43
746.34	2018.61
746.525	1983.8
746.71	1975.61
746.895	1977.66
747.079	1946.94
747.264	1905.98
747.449	1897.78
747.634	2026.81
747.819	1936.7
748.003	1932.6
748.188	1895.74
748.373	1781.05
748.557	1910.07
748.742	1748.28
748.927	1813.82
749.111	1762.62
749.296	1807.67
749.481	1713.47
749.665	1742.14
749.85	1770.81
750.034	1709.37
750.219	1672.51
750.404	1715.52
750.588	1678.65
750.773	1742.14
750.957	1643.84
751.141	1676.6
751.326	1697.08
751.51	1662.27
751.695	1662.27
751.879	1568.06
752.064	1721.66
752.248	1559.87
752.432	1582.4
752.617	1609.02
752.801	1561.92
752.985	1568.06
753.17	1502.53
753.354	1541.44
753.538	1582.4
753.722	1467.71
753.907	1592.64
754.091	1582.4
754.275	1535.29
754.459	1527.1
754.643	1461.57
754.828	1475.9
755.012	1436.99
755.196	1402.18
755.38	1410.37
755.564	1340.74
755.748	1391.94
755.932	1494.33
756.116	1348.93
756.3	1393.98
756.484	1428.8
756.668	1402.18
756.852	1262.91
757.036	1303.87
757.22	1322.31
757.404	1291.59
757.588	1262.91
757.772	1275.2
757.956	1322.31
758.14	1373.5
758.323	1262.91
758.507	1289.54
758.691	1189.19
758.875	1150.28
759.059	1258.82
759.242	1176.9
759.426	1213.76
759.61	1230.15
759.794	1197.38
759.977	1230.15
760.161	1307.97
760.345	1279.3
760.528	1209.67
760.712	1152.32
760.895	1238.34
761.079	1125.7
761.263	1123.65
761.446	1080.64
761.63	1195.33
761.813	1070.4
761.997	1090.88
762.18	1164.61
762.364	1154.37
762.547	1027.4
762.731	1119.56
762.914	1062.21
763.098	1133.89
763.281	1142.08
763.464	1049.93
763.648	1033.54
763.831	1058.12
764.015	1123.65
764.198	1152.32
764.381	943.43
764.564	1082.69
764.748	1051.97
764.931	1000.77
765.114	1021.25
765.297	1123.65
765.481	1058.12
765.664	992.58
765.847	1041.73
766.03	1148.23
766.213	968.01
766.397	1090.88
766.58	976.2
766.763	1092.93
766.946	1068.36
767.129	920.9
767.312	961.86
767.495	951.62
767.678	961.86
767.861	1041.73
768.044	988.49
768.227	961.86
768.41	1017.16
768.593	898.38
768.776	935.24
768.959	1017.16
769.142	970.05
769.324	943.43
769.507	1000.77
769.69	959.81
769.873	914.76
770.056	970.05
770.239	937.29
770.421	904.52
770.604	951.62
770.787	949.57
770.97	910.66
771.152	855.37
771.335	937.29
771.518	869.7
771.7	916.81
771.883	929.1
772.066	929.1
772.248	836.94
772.431	836.94
772.613	836.94
772.796	912.71
772.978	861.51
773.161	857.42
773.343	875.85
773.526	836.94
773.708	765.26
773.891	808.27
774.073	920.9
774.256	787.79
774.438	888.14
774.621	812.36
774.803	810.31
774.985	765.26
775.168	853.32
775.35	728.39
775.532	828.74
775.715	720.2
775.897	804.17
776.079	771.4
776.261	714.06
776.444	738.63
776.626	771.4
776.808	779.59
776.99	730.44
777.173	812.36
777.355	769.35
777.537	824.65
777.719	714.06
777.901	726.35
778.083	791.88
778.265	716.11
778.447	740.68
778.629	683.34
778.811	658.76
778.993	650.57
779.175	771.4
779.357	656.72
779.539	685.39
779.721	656.72
779.903	707.91
780.085	626
780.267	648.52
780.449	664.91
780.631	697.67
780.812	681.29
780.994	675.15
781.176	632.14
781.358	560.46
781.54	671.05
781.721	648.52
781.903	677.2
782.085	566.6
782.267	595.28
782.448	611.66
782.63	560.46
782.812	564.56
782.993	558.41
783.175	554.32
783.357	544.08
783.538	632.14
783.72	505.17
783.901	533.84
784.083	501.07
784.264	558.41
784.446	435.53
784.627	470.35
784.809	533.84
784.99	494.93
785.172	576.84
785.353	550.22
785.535	492.88
785.716	472.4
785.897	380.24
786.079	431.44
786.26	472.4
786.441	529.74
786.623	361.81
786.804	419.15
786.985	480.59
787.167	466.25
787.348	474.45
787.529	468.3
787.71	476.49
787.891	439.63
788.073	435.53
788.254	421.2
788.435	433.49
788.616	410.96
788.797	464.21
788.978	513.36
789.159	449.87
789.34	468.3
789.522	398.67
789.703	427.34
789.884	374.1
790.065	415.06
790.246	501.07
790.427	484.69
790.607	437.58
790.788	370
790.969	378.19
791.15	400.72
791.331	370
791.512	365.9
791.693	345.42
791.874	339.28
792.054	320.85
792.235	372.05
792.416	394.58
792.597	361.81
792.778	398.67
792.958	396.62
793.139	363.86
793.32	292.18
793.5	386.38
793.681	370
793.862	421.2
794.042	361.81
794.223	345.42
794.404	365.9
794.584	378.19
794.765	329.04
794.945	357.71
795.126	341.33
795.306	431.44
795.487	312.66
795.667	257.36
795.848	249.17
796.028	316.75
796.209	339.28
796.389	410.96
796.57	394.58
796.75	271.7
796.93	339.28
797.111	322.9
797.291	253.27
797.471	353.62
797.652	281.94
797.832	243.03
798.012	339.28
798.192	238.93
798.373	298.32
798.553	345.42
798.733	234.83
798.913	247.12
799.093	320.85
799.274	279.89
799.454	263.51
799.634	177.49
799.814	296.27
799.994	324.94
800.174	279.89
800.354	265.55
800.534	247.12
800.714	314.7
800.894	296.27
801.074	273.75
801.254	214.35
801.434	308.56
801.614	300.37
801.794	222.55
801.974	1082.69
802.154	292.18
802.334	312.66
802.514	294.22
802.693	226.64
802.873	228.69
803.053	308.56
803.233	255.31
803.413	197.97
803.592	277.84
803.772	263.51
803.952	306.51
804.131	247.12
804.311	290.13
804.491	220.5
804.67	206.16
804.85	197.97
805.03	222.55
805.209	214.35
805.389	251.22
805.568	245.07
805.748	208.21
805.928	193.87
806.107	247.12
806.287	298.32
806.466	288.08
806.646	312.66
806.825	226.64
807.004	208.21
807.184	214.35
807.363	279.89
807.543	169.3
807.722	222.55
807.901	294.22
808.081	253.27
808.26	169.3
808.439	232.79
808.619	206.16
808.798	218.45
808.977	226.64
809.156	281.94
809.336	136.53
809.515	181.59
809.694	206.16
809.873	189.78
810.052	222.55
810.231	214.35
810.411	185.68
810.59	197.97
810.769	210.26
810.948	165.2
811.127	60.76
811.306	165.2
811.485	175.44
811.664	216.4
811.843	159.06
812.022	152.92
812.201	191.83
812.38	222.55
812.559	152.92
812.737	224.59
812.916	122.2
813.095	234.83
813.274	148.82
813.453	173.39
813.632	185.68
813.811	195.92
813.989	116.05
814.168	134.48
814.347	154.96
814.526	175.44
814.704	189.78
814.883	222.55
815.062	165.2
815.24	111.96
815.419	148.82
815.598	200.02
815.776	87.38
815.955	218.45
816.133	136.53
816.312	181.59
816.49	165.2
816.669	222.55
816.847	107.86
817.026	120.15
817.204	132.44
817.383	124.24
817.561	165.2
817.74	138.58
817.918	173.39
818.097	73.04
818.275	222.55
818.453	140.63
818.632	185.68
818.81	93.52
818.988	165.2
819.167	144.72
819.345	132.44
819.523	99.67
819.701	138.58
819.879	177.49
820.058	152.92
820.236	128.34
820.414	136.53
820.592	109.91
820.77	132.44
820.948	73.04
821.127	159.06
821.305	140.63
821.483	93.52
821.661	150.87
821.839	103.76
822.017	97.62
822.195	83.28
822.373	222.55
822.551	87.38
822.729	189.78
822.907	111.96
823.085	122.2
823.262	132.44
823.44	103.76
823.618	126.29
823.796	103.76
823.974	136.53
824.152	107.86
824.329	130.39
824.507	124.24
824.685	173.39
824.863	118.1
825.04	83.28
825.218	58.71
825.396	99.67
825.574	75.09
825.751	124.24
825.929	161.11
826.107	66.9
826.284	91.48
826.462	126.29
826.639	71
826.817	73.04
826.994	66.9
827.172	95.57
827.349	25.94
827.527	85.33
827.704	116.05
827.882	97.62
828.059	111.96
828.237	109.91
828.414	136.53
828.591	34.13
828.769	103.76
828.946	128.34
829.124	44.37
829.301	83.28
829.478	93.52
829.655	103.76
829.833	60.76
830.01	-31.4
830.187	130.39
830.364	42.32
830.542	183.63
830.719	144.72
830.896	150.87
831.073	126.29
831.25	148.82
831.427	183.63
831.604	13.65
831.782	50.52
831.959	60.76
832.136	50.52
832.313	83.28
832.49	66.9
832.667	85.33
832.844	27.99
833.021	140.63
833.198	68.95
833.374	75.09
833.551	75.09
833.728	13.65
833.905	107.86
834.082	81.24
834.259	68.95
834.436	183.63
834.612	34.13
834.789	120.15
834.966	66.9
835.143	126.29
835.319	27.99
835.496	93.52
835.673	93.52
835.85	99.67
836.026	91.48
836.203	116.05
836.38	42.32
836.556	91.48
836.733	93.52
836.909	87.38
837.086	60.76
837.262	75.09
837.439	83.28
837.616	114
837.792	126.29
837.968	169.3
838.145	38.23
838.321	77.14
838.498	93.52
838.674	34.13
838.851	-21.16
839.027	85.33
839.203	-29.35
839.38	132.44
839.556	85.33
839.732	91.48
839.909	54.61
840.085	83.28
840.261	-12.97
840.437	21.85
840.614	34.13
840.79	75.09
840.966	128.34
841.142	83.28
841.318	-58.03
841.494	30.04
841.671	120.15
841.847	109.91
842.023	25.94
842.199	-6.83
842.375	111.96
842.551	1.37
842.727	9.56
842.903	132.44
843.079	-21.16
843.255	114
843.431	54.61
843.607	83.28
843.783	-12.97
843.959	-15.02
844.134	17.75
844.31	97.62
844.486	30.04
844.662	66.9
844.838	-8.87
845.013	107.86
845.189	64.85
845.365	44.37
845.541	83.28
845.716	77.14
845.892	60.76
846.068	52.56
846.244	-15.02
846.419	42.32
846.595	46.42
846.77	9.56
846.946	36.18
847.122	97.62
847.297	44.37
847.473	124.24
847.648	-21.16
847.824	64.85
847.999	30.04
848.175	25.94
848.35	42.32
848.526	58.71
848.701	46.42
848.876	66.9
849.052	36.18
849.227	27.99
849.403	17.75
849.578	25.94
849.753	75.09
849.929	109.91
850.104	11.61
850.279	34.13
850.454	75.09
850.63	77.14
850.805	1.37
850.98	42.32
851.155	-29.35
851.33	58.71
851.505	-12.97
851.681	83.28
851.856	-35.5
852.031	68.95
852.206	36.18
852.381	85.33
852.556	36.18
852.731	95.57
852.906	52.56
853.081	66.9
853.256	46.42
853.431	111.96
853.606	44.37
853.781	-23.21
853.956	99.67
854.131	-6.83
854.305	-2.73
854.48	9.56
854.655	36.18
854.83	5.46
855.005	38.23
855.18	23.89
855.354	64.85
855.529	44.37
855.704	54.61
855.879	91.48
856.053	19.8
856.228	44.37
856.403	-55.98
856.577	130.39
856.752	19.8
856.926	44.37
857.101	66.9
857.276	21.85
857.45	50.52
857.625	-2.73
857.799	25.94
857.974	52.56
858.148	-37.55
858.323	99.67
858.497	11.61
858.672	81.24
858.846	34.13
859.02	83.28
859.195	7.51
859.369	-66.22
859.543	-23.21
859.718	50.52
859.892	-4.78
860.066	34.13
860.241	7.51
860.415	-12.97
860.589	11.61
860.763	11.61
860.938	-19.11
861.112	52.56
861.286	-6.83
861.46	9.56
861.634	114
861.808	93.52
861.982	52.56
862.157	34.13
862.331	50.52
862.505	11.61
862.679	-15.02
862.853	60.76
863.027	5.46
863.201	17.75
863.375	77.14
863.549	58.71
863.722	-4.78
863.896	48.47
864.07	-64.17
864.244	3.41
864.418	15.7
864.592	1.37
864.766	42.32
864.939	25.94
865.113	25.94
865.287	46.42
865.461	68.95
865.634	5.46
865.808	38.23
865.982	17.75
866.156	13.65
866.329	25.94
866.503	38.23
866.676	-51.88
866.85	36.18
867.024	11.61
867.197	64.85
867.371	81.24
867.544	25.94
867.718	-12.97
867.891	79.19
868.065	-31.4
868.238	52.56
868.412	62.8
868.585	-4.78
868.759	-43.69
868.932	-10.92
869.105	5.46
869.279	17.75
869.452	7.51
869.625	25.94
869.799	11.61
869.972	1.37
870.145	9.56
870.319	38.23
870.492	-27.31
870.665	-80.55
870.838	13.65
871.011	-62.12
871.185	32.08
871.358	-35.5
871.531	-6.83
871.704	27.99
871.877	-6.83
872.05	48.47
872.223	34.13
872.396	71
872.569	-47.79
872.742	-82.6
872.915	17.75
873.088	-39.59
873.261	-55.98
873.434	85.33
873.607	44.37
873.78	62.8
873.953	-58.03
874.126	-17.07
874.299	60.76
874.471	-43.69
874.644	25.94
874.817	-94.89
874.99	77.14
875.163	11.61
875.335	75.09
875.508	38.23
875.681	93.52
875.853	-72.36
876.026	66.9
876.199	27.99
876.371	85.33
876.544	-19.11
876.717	-31.4
876.889	-15.02
877.062	21.85
877.234	-29.35
877.407	-23.21
877.579	19.8
877.752	58.71
877.924	30.04
878.097	-4.78
878.269	73.04
878.442	-4.78
878.614	32.08
878.786	-19.11
878.959	25.94
879.131	42.32
879.303	13.65
879.476	60.76
879.648	58.71
879.82	34.13
879.993	71
880.165	11.61
880.337	-21.16
880.509	17.75
880.681	19.8
880.854	58.71
881.026	46.42
881.198	54.61
881.37	19.8
881.542	71
881.714	-53.93
881.886	-19.11
882.058	-0.68
882.23	46.42
882.402	62.8
882.574	17.75
882.746	-62.12
882.918	25.94
883.09	30.04
883.262	-47.79
883.434	1.37
883.606	-8.87
883.778	-47.79
883.95	64.85
884.122	-70.31
884.293	19.8
884.465	-55.98
884.637	50.52
884.809	5.46
884.98	-6.83
885.152	50.52
885.324	54.61
885.496	50.52
885.667	-121.51
885.839	-35.5
886.011	25.94
886.182	9.56
886.354	-6.83
886.525	71
886.697	-35.5
886.869	-51.88
887.04	-10.92
887.212	58.71
887.383	60.76
887.555	-31.4
887.726	11.61
887.897	-31.4
888.069	-17.07
888.24	34.13
888.412	13.65
888.583	48.47
888.754	52.56
888.926	87.38
889.097	-39.59
889.268	1.37
889.44	27.99
889.611	-37.55
889.782	-12.97
889.953	-15.02
890.125	93.52
890.296	-23.21
890.467	-31.4
890.638	17.75
890.809	-6.83
890.98	38.23
891.151	79.19
891.323	83.28
891.494	13.65
891.665	42.32
891.836	93.52
892.007	17.75
892.178	11.61
892.349	13.65
892.52	23.89
892.691	62.8
892.862	-2.73
893.032	-8.87
893.203	3.41
893.374	-27.31
893.545	17.75
893.716	34.13
893.887	44.37
894.057	-76.46
894.228	62.8
894.399	-80.55
894.57	68.95
894.74	-23.21
894.911	62.8
895.082	34.13
895.253	-49.83
895.423	-70.31
895.594	85.33
895.764	58.71
895.935	19.8
896.106	85.33
896.276	-23.21
896.447	-6.83
896.617	-72.36
896.788	-58.03
896.958	50.52
897.129	1.37
897.299	-2.73
897.47	34.13
897.64	87.38
897.81	-6.83
897.981	-29.35
898.151	-4.78
898.322	-6.83
898.492	-70.31
898.662	-35.5
898.832	40.28
899.003	13.65
899.173	-2.73
899.343	-35.5
899.513	-31.4
