Data from USB4F104151__100__14-30-51-793.txt Node

Date: Thu Mar 13 14:30:51 EDT 2025
User: louis
Spectrometer: USB4F10415
Trigger mode: 4
Integration Time (sec): 2.500000E-2
Scans to average: 1
Electric dark correction enabled: true
Nonlinearity correction enabled: false
Boxcar width: 0
XAxis mode: Wavelengths
Number of Pixels in Spectrum: 3648
>>>>>Begin Spectral Data<<<<<
178.204	-157.52
178.424	-157.52
178.644	-157.52
178.864	-223.06
179.084	-157.52
179.304	22.7
179.524	6.31
179.744	-28.5
179.964	125.1
180.184	-20.31
180.404	-10.07
180.624	-28.5
180.844	34.99
181.064	-24.4
181.283	14.51
181.503	-100.18
181.723	8.36
181.943	-87.89
182.163	77.99
182.383	-32.6
182.602	-57.17
182.822	24.75
183.042	39.08
183.262	-36.69
183.482	-22.36
183.701	20.65
183.921	4.27
184.141	-10.07
184.361	18.6
184.58	14.51
184.8	-30.55
185.02	30.89
185.239	57.51
185.459	37.03
185.679	-10.07
185.898	-10.07
186.118	10.41
186.338	59.56
186.557	121
186.777	-10.07
186.997	14.51
187.216	-16.21
187.436	112.81
187.655	28.84
187.875	59.56
188.095	16.55
188.314	67.75
188.534	22.7
188.753	-65.36
188.973	61.61
189.192	-1.88
189.412	-26.45
189.631	-24.4
189.851	39.08
190.07	14.51
190.29	-30.55
190.509	-65.36
190.729	-22.36
190.948	71.85
191.168	80.04
191.387	63.66
191.607	-24.4
191.826	-59.22
192.045	-24.4
192.265	47.27
192.484	18.6
192.704	-24.4
192.923	-10.07
193.142	59.56
193.362	0.17
193.581	-10.07
193.8	22.7
194.02	67.75
194.239	18.6
194.458	-20.31
194.678	8.36
194.897	-14.17
195.116	59.56
195.335	-28.5
195.555	-1.88
195.774	41.13
195.993	6.31
196.212	2.22
196.432	-18.26
196.651	-16.21
196.87	45.23
197.089	80.04
197.308	-32.6
197.528	49.32
197.747	-65.36
197.966	59.56
198.185	45.23
198.404	-48.98
198.623	-16.21
198.842	22.7
199.062	47.27
199.281	-8.02
199.5	30.89
199.719	-1.88
199.938	24.75
200.157	39.08
200.376	-12.12
200.595	71.85
200.814	16.55
201.033	0.17
201.252	-55.12
201.471	77.99
201.69	108.71
201.909	-12.12
202.128	65.71
202.347	-65.36
202.566	-59.22
202.785	8.36
203.004	-1.88
203.223	34.99
203.442	39.08
203.661	10.41
203.879	-20.31
204.098	-3.93
204.317	-18.26
204.536	22.7
204.755	-5.97
204.974	55.47
205.193	-24.4
205.411	6.31
205.63	34.99
205.849	-51.03
206.068	-28.5
206.287	-32.6
206.505	45.23
206.724	59.56
206.943	22.7
207.162	24.75
207.381	26.79
207.599	-10.07
207.818	8.36
208.037	22.7
208.255	-75.6
208.474	-51.03
208.693	18.6
208.911	-8.02
209.13	6.31
209.349	22.7
209.567	47.27
209.786	41.13
210.005	10.41
210.223	-5.97
210.442	-1.88
210.661	14.51
210.879	34.99
211.098	-14.17
211.316	-8.02
211.535	65.71
211.753	-65.36
211.972	55.47
212.191	6.31
212.409	16.55
212.628	-8.02
212.846	22.7
213.065	63.66
213.283	-5.97
213.502	4.27
213.72	24.75
213.938	-30.55
214.157	-8.02
214.375	-14.17
214.594	24.75
214.812	43.18
215.031	2.22
215.249	82.09
215.467	-18.26
215.686	2.22
215.904	24.75
216.122	-53.08
216.341	34.99
216.559	47.27
216.778	-26.45
216.996	30.89
217.214	8.36
217.432	-16.21
217.651	-38.74
217.869	37.03
218.087	43.18
218.306	37.03
218.524	147.62
218.742	-69.46
218.96	18.6
219.179	75.95
219.397	-32.6
219.615	51.37
219.833	26.79
220.051	-16.21
220.27	43.18
220.488	104.62
220.706	18.6
220.924	-48.98
221.142	10.41
221.36	8.36
221.578	24.75
221.796	-42.84
222.015	2.22
222.233	-46.93
222.451	30.89
222.669	-1.88
222.887	6.31
223.105	-5.97
223.323	63.66
223.541	-24.4
223.759	-10.07
223.977	-63.32
224.195	84.14
224.413	47.27
224.631	41.13
224.849	-59.22
225.067	63.66
225.285	-14.17
225.503	43.18
225.721	28.84
225.939	-8.02
226.157	14.51
226.375	59.56
226.592	-53.08
226.81	26.79
227.028	14.51
227.246	75.95
227.464	-3.93
227.682	14.51
227.9	20.65
228.117	16.55
228.335	22.7
228.553	10.41
228.771	-24.4
228.989	57.51
229.206	55.47
229.424	-18.26
229.642	12.46
229.86	-20.31
230.077	100.52
230.295	24.75
230.513	-8.02
230.731	10.41
230.948	47.27
231.166	88.23
231.384	-38.74
231.601	63.66
231.819	80.04
232.037	-55.12
232.254	22.7
232.472	-34.64
232.689	-32.6
232.907	4.27
233.125	-22.36
233.342	18.6
233.56	-96.08
233.777	20.65
233.995	41.13
234.213	-1.88
234.43	-10.07
234.648	39.08
234.865	86.19
235.083	61.61
235.3	-71.51
235.518	53.42
235.735	53.42
235.953	0.17
236.17	-10.07
236.388	22.7
236.605	104.62
236.822	96.43
237.04	98.47
237.257	30.89
237.475	-65.36
237.692	34.99
237.909	39.08
238.127	-5.97
238.344	-26.45
238.562	71.85
238.779	-53.08
238.996	-5.97
239.214	-42.84
239.431	127.14
239.648	39.08
239.865	-32.6
240.083	6.31
240.3	32.94
240.517	12.46
240.735	-10.07
240.952	43.18
241.169	22.7
241.386	18.6
241.603	47.27
241.821	0.17
242.038	16.55
242.255	34.99
242.472	-108.37
242.689	14.51
242.907	155.82
243.124	-22.36
243.341	12.46
243.558	0.17
243.775	-14.17
243.992	2.22
244.209	71.85
244.426	59.56
244.643	96.43
244.86	-51.03
245.078	22.7
245.295	-18.26
245.512	24.75
245.729	-12.12
245.946	30.89
246.163	45.23
246.38	-8.02
246.597	-16.21
246.814	67.75
247.031	30.89
247.248	47.27
247.464	-16.21
247.681	14.51
247.898	18.6
248.115	53.42
248.332	30.89
248.549	63.66
248.766	63.66
248.983	-10.07
249.2	8.36
249.417	6.31
249.633	55.47
249.85	-5.97
250.067	53.42
250.284	88.23
250.501	26.79
250.717	63.66
250.934	53.42
251.151	-51.03
251.368	-1.88
251.585	18.6
251.801	-32.6
252.018	10.41
252.235	84.14
252.451	10.41
252.668	-5.97
252.885	49.32
253.102	92.33
253.318	2.22
253.535	24.75
253.752	6.31
253.968	-20.31
254.185	-38.74
254.401	-30.55
254.618	59.56
254.835	-10.07
255.051	65.71
255.268	57.51
255.484	-5.97
255.701	53.42
255.917	24.75
256.134	-32.6
256.351	14.51
256.567	-1.88
256.784	53.42
257	34.99
257.217	-34.64
257.433	28.84
257.65	20.65
257.866	65.71
258.082	-18.26
258.299	-65.36
258.515	59.56
258.732	-10.07
258.948	-5.97
259.165	16.55
259.381	47.27
259.597	37.03
259.814	43.18
260.03	-67.41
260.246	69.8
260.463	59.56
260.679	6.31
260.895	104.62
261.112	8.36
261.328	55.47
261.544	-67.41
261.761	100.52
261.977	-24.4
262.193	30.89
262.409	6.31
262.626	-40.79
262.842	49.32
263.058	-102.23
263.274	67.75
263.49	75.95
263.707	-32.6
263.923	-32.6
264.139	-42.84
264.355	20.65
264.571	106.67
264.787	65.71
265.004	-26.45
265.22	30.89
265.436	-32.6
265.652	-38.74
265.868	6.31
266.084	0.17
266.3	100.52
266.516	-59.22
266.732	94.38
266.948	14.51
267.164	0.17
267.38	8.36
267.596	63.66
267.812	71.85
268.028	10.41
268.244	6.31
268.46	2.22
268.676	6.31
268.892	39.08
269.108	55.47
269.324	-24.4
269.54	26.79
269.756	-5.97
269.972	-8.02
270.188	14.51
270.403	-1.88
270.619	-40.79
270.835	10.41
271.051	37.03
271.267	14.51
271.483	30.89
271.698	22.7
271.914	14.51
272.13	71.85
272.346	6.31
272.562	-40.79
272.777	65.71
272.993	-42.84
273.209	10.41
273.425	-34.64
273.64	47.27
273.856	63.66
274.072	67.75
274.287	-20.31
274.503	39.08
274.719	-5.97
274.934	4.27
275.15	-42.84
275.366	63.66
275.581	28.84
275.797	24.75
276.012	-32.6
276.228	14.51
276.444	8.36
276.659	16.55
276.875	14.51
277.09	6.31
277.306	12.46
277.521	30.89
277.737	39.08
277.952	67.75
278.168	61.61
278.383	71.85
278.599	30.89
278.814	106.67
279.03	16.55
279.245	12.46
279.461	18.6
279.676	63.66
279.892	-8.02
280.107	-10.07
280.322	2.22
280.538	32.94
280.753	-8.02
280.969	16.55
281.184	6.31
281.399	59.56
281.615	-34.64
281.83	63.66
282.045	-42.84
282.26	-10.07
282.476	34.99
282.691	32.94
282.906	22.7
283.122	4.27
283.337	14.51
283.552	6.31
283.767	-53.08
283.983	-16.21
284.198	12.46
284.413	123.05
284.628	20.65
284.843	-8.02
285.058	24.75
285.274	55.47
285.489	-51.03
285.704	26.79
285.919	-10.07
286.134	63.66
286.349	-16.21
286.564	34.99
286.779	43.18
286.995	-22.36
287.21	-67.41
287.425	16.55
287.64	-28.5
287.855	10.41
288.07	-48.98
288.285	71.85
288.5	88.23
288.715	108.71
288.93	-10.07
289.145	-48.98
289.36	26.79
289.575	18.6
289.79	59.56
290.004	32.94
290.219	49.32
290.434	-51.03
290.649	6.31
290.864	14.51
291.079	-55.12
291.294	47.27
291.509	14.51
291.724	24.75
291.938	-22.36
292.153	-24.4
292.368	-46.93
292.583	22.7
292.798	100.52
293.012	-36.69
293.227	59.56
293.442	39.08
293.657	-1.88
293.871	51.37
294.086	84.14
294.301	80.04
294.516	-5.97
294.73	-1.88
294.945	-24.4
295.16	53.42
295.374	73.9
295.589	55.47
295.804	-24.4
296.018	39.08
296.233	47.27
296.447	-44.88
296.662	-67.41
296.877	43.18
297.091	43.18
297.306	16.55
297.52	63.66
297.735	88.23
297.949	10.41
298.164	63.66
298.378	-26.45
298.593	-57.17
298.807	18.6
299.022	-1.88
299.236	63.66
299.451	-57.17
299.665	82.09
299.88	22.7
300.094	69.8
300.309	24.75
300.523	-8.02
300.737	43.18
300.952	34.99
301.166	-32.6
301.381	2.22
301.595	-12.12
301.809	-20.31
302.024	71.85
302.238	-55.12
302.452	63.66
302.667	-55.12
302.881	55.47
303.095	51.37
303.309	-3.93
303.524	-5.97
303.738	57.51
303.952	22.7
304.166	45.23
304.381	12.46
304.595	73.9
304.809	-28.5
305.023	0.17
305.237	59.56
305.452	8.36
305.666	14.51
305.88	51.37
306.094	39.08
306.308	67.75
306.522	12.46
306.736	84.14
306.95	39.08
307.164	-32.6
307.379	24.75
307.593	57.51
307.807	53.42
308.021	63.66
308.235	-8.02
308.449	-57.17
308.663	14.51
308.877	112.81
309.091	30.89
309.305	-16.21
309.519	-44.88
309.733	82.09
309.947	-16.21
310.161	-32.6
310.374	0.17
310.588	90.28
310.802	14.51
311.016	6.31
311.23	16.55
311.444	-24.4
311.658	47.27
311.872	65.71
312.085	-26.45
312.299	71.85
312.513	80.04
312.727	10.41
312.941	-79.7
313.154	39.08
313.368	-1.88
313.582	-20.31
313.796	51.37
314.009	51.37
314.223	73.9
314.437	14.51
314.651	39.08
314.864	-16.21
315.078	4.27
315.292	-5.97
315.505	0.17
315.719	55.47
315.933	41.13
316.146	98.47
316.36	0.17
316.573	65.71
316.787	104.62
317.001	96.43
317.214	129.19
317.428	-55.12
317.641	32.94
317.855	24.75
318.068	-18.26
318.282	55.47
318.495	63.66
318.709	123.05
318.922	26.79
319.136	82.09
319.349	39.08
319.563	8.36
319.776	-10.07
319.99	45.23
320.203	39.08
320.417	88.23
320.63	-26.45
320.843	30.89
321.057	-5.97
321.27	55.47
321.483	80.04
321.697	22.7
321.91	-65.36
322.124	14.51
322.337	80.04
322.55	67.75
322.763	-32.6
322.977	20.65
323.19	-55.12
323.403	51.37
323.617	84.14
323.83	0.17
324.043	30.89
324.256	98.47
324.469	16.55
324.683	55.47
324.896	32.94
325.109	80.04
325.322	-55.12
325.535	34.99
325.748	37.03
325.962	18.6
326.175	-1.88
326.388	39.08
326.601	14.51
326.814	12.46
327.027	24.75
327.24	39.08
327.453	-46.93
327.666	47.27
327.879	67.75
328.092	-48.98
328.305	22.7
328.518	37.03
328.731	-18.26
328.944	57.51
329.157	20.65
329.37	2.22
329.583	121
329.796	41.13
330.009	-32.6
330.222	63.66
330.435	90.28
330.648	30.89
330.861	14.51
331.073	30.89
331.286	92.33
331.499	47.27
331.712	-67.41
331.925	30.89
332.138	-1.88
332.35	45.23
332.563	10.41
332.776	34.99
332.989	-38.74
333.202	-14.17
333.414	34.99
333.627	-42.84
333.84	-26.45
334.053	24.75
334.265	14.51
334.478	80.04
334.691	-32.6
334.903	2.22
335.116	30.89
335.329	71.85
335.541	80.04
335.754	129.19
335.966	0.17
336.179	-20.31
336.392	2.22
336.604	28.84
336.817	59.56
337.029	24.75
337.242	16.55
337.454	67.75
337.667	-48.98
337.88	47.27
338.092	112.81
338.305	0.17
338.517	37.03
338.729	-18.26
338.942	106.67
339.154	4.27
339.367	-40.79
339.579	80.04
339.792	-34.64
340.004	30.89
340.217	41.13
340.429	69.8
340.641	-10.07
340.854	-44.88
341.066	-14.17
341.278	108.71
341.491	55.47
341.703	30.89
341.915	-46.93
342.128	-14.17
342.34	71.85
342.552	26.79
342.764	47.27
342.977	24.75
343.189	47.27
343.401	75.95
343.613	-48.98
343.826	-1.88
344.038	39.08
344.25	51.37
344.462	4.27
344.674	-34.64
344.886	12.46
345.099	57.51
345.311	-65.36
345.523	-48.98
345.735	-1.88
345.947	86.19
346.159	-10.07
346.371	26.79
346.583	-1.88
346.795	77.99
347.007	34.99
347.219	96.43
347.431	-40.79
347.643	22.7
347.855	53.42
348.067	34.99
348.279	6.31
348.491	39.08
348.703	-1.88
348.915	22.7
349.127	24.75
349.339	104.62
349.551	59.56
349.763	-42.84
349.975	14.51
350.187	121
350.399	-14.17
350.61	47.27
350.822	57.51
351.034	14.51
351.246	-22.36
351.458	39.08
351.669	16.55
351.881	34.99
352.093	10.41
352.305	82.09
352.517	65.71
352.728	41.13
352.94	14.51
353.152	96.43
353.363	-1.88
353.575	41.13
353.787	96.43
353.999	71.85
354.21	41.13
354.422	32.94
354.633	18.6
354.845	2.22
355.057	67.75
355.268	14.51
355.48	14.51
355.692	125.1
355.903	28.84
356.115	65.71
356.326	-26.45
356.538	67.75
356.749	30.89
356.961	65.71
357.172	22.7
357.384	-34.64
357.595	71.85
357.807	10.41
358.018	-40.79
358.23	10.41
358.441	0.17
358.653	77.99
358.864	30.89
359.075	-32.6
359.287	57.51
359.498	131.24
359.709	71.85
359.921	57.51
360.132	82.09
360.344	59.56
360.555	-3.93
360.766	37.03
360.977	-10.07
361.189	-12.12
361.4	47.27
361.611	-10.07
361.823	80.04
362.034	10.41
362.245	-71.51
362.456	-10.07
362.667	-18.26
362.879	-42.84
363.09	114.86
363.301	14.51
363.512	43.18
363.723	-18.26
363.935	-12.12
364.146	71.85
364.357	80.04
364.568	88.23
364.779	20.65
364.99	114.86
365.201	12.46
365.412	28.84
365.623	-18.26
365.834	26.79
366.045	22.7
366.256	55.47
366.467	4.27
366.678	-51.03
366.889	-22.36
367.1	90.28
367.311	80.04
367.522	-26.45
367.733	22.7
367.944	6.31
368.155	106.67
368.366	14.51
368.577	-16.21
368.788	69.8
368.999	57.51
369.209	57.51
369.42	71.85
369.631	186.54
369.842	49.32
370.053	0.17
370.264	96.43
370.474	39.08
370.685	63.66
370.896	47.27
371.107	-8.02
371.317	55.47
371.528	47.27
371.739	108.71
371.95	30.89
372.16	8.36
372.371	-22.36
372.582	32.94
372.792	22.7
373.003	73.9
373.214	67.75
373.424	88.23
373.635	-24.4
373.846	102.57
374.056	37.03
374.267	43.18
374.477	-24.4
374.688	67.75
374.898	-75.6
375.109	55.47
375.319	55.47
375.53	125.1
375.74	10.41
375.951	59.56
376.161	69.8
376.372	69.8
376.582	22.7
376.793	57.51
377.003	-34.64
377.214	18.6
377.424	10.41
377.635	8.36
377.845	26.79
378.055	63.66
378.266	-16.21
378.476	22.7
378.686	82.09
378.897	-1.88
379.107	47.27
379.317	73.9
379.528	2.22
379.738	180.39
379.948	18.6
380.158	65.71
380.369	34.99
380.579	39.08
380.789	53.42
380.999	123.05
381.21	14.51
381.42	26.79
381.63	39.08
381.84	57.51
382.05	8.36
382.261	6.31
382.471	43.18
382.681	-59.22
382.891	47.27
383.101	20.65
383.311	14.51
383.521	47.27
383.731	59.56
383.941	106.67
384.151	41.13
384.361	6.31
384.571	71.85
384.781	75.95
384.991	92.33
385.201	80.04
385.411	22.7
385.621	-8.02
385.831	39.08
386.041	88.23
386.251	8.36
386.461	16.55
386.671	55.47
386.881	57.51
387.091	39.08
387.301	108.71
387.511	6.31
387.72	65.71
387.93	88.23
388.14	26.79
388.35	24.75
388.56	55.47
388.769	104.62
388.979	92.33
389.189	2.22
389.399	94.38
389.609	55.47
389.818	71.85
390.028	0.17
390.238	96.43
390.447	73.9
390.657	73.9
390.867	55.47
391.076	32.94
391.286	26.79
391.496	63.66
391.705	63.66
391.915	84.14
392.125	80.04
392.334	30.89
392.544	145.58
392.753	108.71
392.963	32.94
393.172	63.66
393.382	121
393.591	141.48
393.801	49.32
394.01	145.58
394.22	61.61
394.429	121
394.639	16.55
394.848	94.38
395.058	6.31
395.267	82.09
395.477	65.71
395.686	49.32
395.895	147.62
396.105	186.54
396.314	102.57
396.524	114.86
396.733	30.89
396.942	131.24
397.152	43.18
397.361	86.19
397.57	51.37
397.78	131.24
397.989	104.62
398.198	94.38
398.407	77.99
398.617	114.86
398.826	80.04
399.035	139.43
399.244	65.71
399.453	80.04
399.663	155.82
399.872	65.71
400.081	121
400.29	139.43
400.499	71.85
400.708	211.11
400.917	110.76
401.127	129.19
401.336	77.99
401.545	100.52
401.754	145.58
401.963	96.43
402.172	98.47
402.381	32.94
402.59	123.05
402.799	131.24
403.008	176.3
403.217	151.72
403.426	98.47
403.635	129.19
403.844	219.3
404.053	153.77
404.262	102.57
404.471	264.36
404.68	219.3
404.888	161.96
405.097	131.24
405.306	153.77
405.515	200.87
405.724	174.25
405.933	262.31
406.142	268.45
406.35	196.78
406.559	204.97
406.768	231.59
406.977	317.61
407.185	227.5
407.394	243.88
407.603	223.4
407.812	284.84
408.02	290.98
408.229	252.07
408.438	260.26
408.646	303.27
408.855	317.61
409.064	276.65
409.272	366.76
409.481	420
409.69	295.08
409.898	327.85
410.107	338.09
410.315	424.1
410.524	448.68
410.733	391.33
410.941	417.96
411.15	516.26
411.358	448.68
411.567	565.41
411.775	510.11
411.984	506.02
412.192	589.99
412.401	497.83
412.609	493.73
412.818	723.1
413.026	682.14
413.234	688.29
413.443	673.95
413.651	745.63
413.86	723.1
414.068	743.58
414.276	800.93
414.485	848.03
414.693	743.58
414.901	1022.11
415.11	917.66
415.318	946.33
415.526	1007.77
415.734	1048.73
415.943	1081.5
416.151	1147.03
416.359	1144.99
416.567	1171.61
416.776	1243.29
416.984	1220.76
417.192	1347.73
417.4	1259.67
417.608	1261.72
417.817	1407.13
418.025	1443.99
418.233	1538.2
418.441	1480.85
418.649	1536.15
418.857	1669.27
419.065	1742.99
419.273	1689.74
419.481	1939.6
419.689	1976.46
419.897	2021.52
420.105	2042
420.313	2099.34
420.521	2209.93
420.729	2349.19
420.937	2336.9
421.145	2422.92
421.353	2488.45
421.561	2562.18
421.769	2758.78
421.977	2867.33
422.185	2656.39
422.393	3012.73
422.601	3096.7
422.809	3100.8
423.017	3074.17
423.224	3274.87
423.432	3377.27
423.64	3418.23
423.848	3719.28
424.056	3627.12
424.263	3842.16
424.471	3795.06
424.679	3852.4
424.887	4184.17
425.094	4421.74
425.302	4317.29
425.51	4597.86
425.718	4515.94
425.925	4675.68
426.133	4839.52
426.341	5216.35
426.548	5355.61
426.756	5451.86
426.964	5423.19
427.171	5791.83
427.379	5806.16
427.586	6113.36
427.794	6199.37
428.001	6572.1
428.209	6748.23
428.417	6576.2
428.624	7145.53
428.832	7049.28
429.039	7223.36
429.247	7082.05
429.454	7735.35
429.662	8169.52
429.869	7772.21
430.076	8218.67
430.284	8030.26
430.491	8357.93
430.699	8794.15
430.906	8853.54
431.114	8818.72
431.321	9295.9
431.528	9293.85
431.736	9945.11
431.943	10496.01
432.15	10139.66
432.358	10215.44
432.565	10815.49
432.772	10921.99
432.979	11360.25
433.187	11655.16
433.394	11522.04
433.601	12328.94
433.808	12296.18
434.016	12591.08
434.223	12908.52
434.43	13723.61
434.637	13567.96
434.844	14227.41
435.052	14313.42
435.259	14440.4
435.466	14485.45
435.673	14202.83
435.88	15312.83
436.087	16072.63
436.294	16181.17
436.501	15869.88
436.708	15929.27
436.915	16660.4
437.122	17256.36
437.329	17217.44
437.537	18005.91
437.743	18048.92
437.95	17993.62
438.157	19052.42
438.364	19558.27
438.571	19404.67
438.778	19654.53
438.985	21309.29
439.192	20356.98
439.399	21288.81
439.606	20547.44
439.813	21956.44
440.02	22738.77
440.227	22812.49
440.433	22536.02
440.64	23107.4
440.847	23203.66
441.054	23893.82
441.261	25136.94
441.467	25194.28
441.674	25444.13
441.881	26521.37
442.088	25937.69
442.294	25880.35
442.501	26894.1
442.708	27086.61
442.914	28450.55
443.121	29798.12
443.328	28745.46
443.534	30703.32
443.741	29959.91
443.948	29023.98
444.154	31551.18
444.361	30936.79
444.568	31409.87
444.774	31360.72
444.981	31966.91
445.187	32890.55
445.394	34137.76
445.6	33582.76
445.807	36431.49
446.013	35223.19
446.22	36228.74
446.426	36867.7
446.633	37447.28
446.839	38684.25
447.046	37389.94
447.252	39607.89
447.459	39513.68
447.665	39341.65
447.871	41039.42
448.078	42581.54
448.284	40537.66
448.491	41799.21
448.697	43122.2
448.903	44279.3
449.11	44486.15
449.316	43503.12
449.522	44557.83
449.728	45317.62
449.935	45676.02
450.141	46015.98
450.347	46892.51
450.553	45499.89
450.76	46190.06
450.966	47222.23
451.172	46747.11
451.378	48215.5
451.584	47111.64
451.791	47953.36
451.997	48172.49
452.203	48827.84
452.409	48557.51
452.615	48272.84
452.821	47037.92
453.027	46347.75
453.233	48514.5
453.44	46761.44
453.646	47652.31
453.852	47685.08
454.058	48258.51
454.264	46771.68
454.47	47603.16
454.676	46583.27
454.882	48147.92
455.088	43730.45
455.294	44877.31
455.5	45563.38
455.705	46292.46
455.911	43879.95
456.117	43351.57
456.323	42901.02
456.529	40369.73
456.735	42124.84
456.941	41201.21
457.147	40597.06
457.352	39571.02
457.558	38874.71
457.764	38917.72
457.97	38127.2
458.176	37367.41
458.381	37340.78
458.587	35468.94
458.793	35786.38
458.999	33834.66
459.204	35917.45
459.41	35407.5
459.616	32708.28
459.821	32894.64
460.027	32732.86
460.233	32067.27
460.438	30975.7
460.644	30877.4
460.85	29128.43
461.055	28980.98
461.261	29030.13
461.466	26459.93
461.672	25935.65
461.878	27932.42
462.083	26093.34
462.289	25331.5
462.494	24995.63
462.7	24244.02
462.905	23314.25
463.111	24428.34
463.316	24153.91
463.522	23758.66
463.727	23904.06
463.932	23236.42
464.138	23297.86
464.343	23398.21
464.549	22775.63
464.754	23517
464.959	23314.25
465.165	23304.01
465.37	22056.79
465.575	21421.92
465.781	22269.78
465.986	22652.75
466.191	21817.18
466.397	21170.02
466.602	20408.18
466.807	21227.37
467.012	20789.1
467.218	20676.46
467.423	20473.71
467.628	20770.67
467.833	21753.69
468.038	20825.96
468.244	20268.92
468.449	21118.82
468.654	20410.23
468.859	20215.67
469.064	19885.95
469.269	19386.24
469.474	19457.92
469.679	19732.35
469.885	18937.74
470.09	19214.21
470.295	19349.38
470.5	18737.04
470.705	18925.45
470.91	18253.72
471.115	18325.4
471.32	18458.51
471.525	18429.84
471.73	18061.21
471.935	17995.67
472.139	17125.29
472.344	17463.2
472.549	17346.47
472.754	17225.64
472.959	16857
473.164	16406.45
473.369	16220.08
473.574	16777.13
473.778	16469.94
473.983	16625.58
474.188	16502.7
474.393	15673.28
474.598	15689.66
474.802	15558.59
475.007	15544.25
475.212	15724.47
475.417	14940.1
475.621	15103.94
475.826	15413.18
476.031	14522.32
476.235	14520.27
476.44	14704.59
476.645	14335.95
476.849	14251.99
477.054	14260.18
477.259	14090.2
477.463	14022.61
477.668	13737.95
477.872	13778.9
478.077	13662.17
478.282	13354.97
478.486	13133.79
478.691	13299.68
478.895	13223.9
479.1	12793.83
479.304	12705.77
479.509	12298.22
479.713	12781.54
479.918	12539.88
480.122	12345.33
480.326	12543.98
480.531	12597.23
480.735	12386.29
480.94	12156.91
481.144	12556.27
481.348	11960.31
481.553	12222.45
481.757	11798.52
481.961	12130.29
482.166	12279.79
482.37	12171.25
482.574	12187.63
482.778	11884.53
482.983	12109.81
483.187	11896.82
483.391	12070.9
483.595	11868.15
483.8	11687.93
484.004	12066.8
484.208	12072.95
484.412	11878.39
484.616	11927.54
484.821	11870.2
485.025	11862.01
485.229	12068.85
485.433	11945.97
485.637	11945.97
485.841	11753.46
486.045	11720.7
486.249	11747.32
486.453	11778.04
486.657	11896.82
486.861	11890.68
487.065	11722.74
487.269	11995.12
487.473	11403.26
487.677	11900.92
487.881	12326.89
488.085	11687.93
488.289	11843.57
488.493	11732.98
488.697	11923.44
488.901	11900.92
489.105	11718.65
489.309	11911.16
489.512	11958.26
489.716	11986.93
489.92	11937.78
490.124	11925.49
490.328	12156.91
490.531	12191.73
490.735	12003.32
490.939	11980.79
491.143	12050.42
491.346	12089.33
491.55	12191.73
491.754	12257.26
491.958	12374
492.161	12238.83
492.365	12089.33
492.569	12263.41
492.772	12425.2
492.976	12523.5
493.18	12543.98
493.383	12693.48
493.587	12625.9
493.79	12769.26
493.994	12548.08
494.197	12687.34
494.401	12955.62
494.605	12791.78
494.808	13141.99
495.012	13066.21
495.215	13219.81
495.419	13307.87
495.622	13273.06
495.825	13492.19
496.029	13342.69
496.232	13717.47
496.436	13666.27
496.639	14163.92
496.843	13811.67
497.046	14168.02
497.249	14376.91
497.453	14032.85
497.656	14561.23
497.859	14374.86
498.063	14675.91
498.266	14923.72
498.469	14888.9
498.673	14946.25
498.876	15052.74
499.079	15513.53
499.282	15323.07
499.485	15747
499.689	15579.07
499.892	16031.67
500.095	15914.94
500.298	16496.56
500.501	16201.65
500.705	16551.85
500.908	16727.98
501.111	17033.13
501.314	16889.77
501.517	17368.99
501.72	17471.39
501.923	17450.91
502.126	17573.79
502.329	18120.6
502.532	17989.53
502.735	18171.8
502.938	18648.97
503.141	18603.92
503.344	18896.78
503.547	18888.59
503.75	19109.77
503.953	19574.66
504.156	19437.44
504.359	19959.67
504.562	20039.54
504.765	20391.8
504.968	20266.87
505.17	20592.5
505.373	20844.4
505.576	21120.87
505.779	21434.21
505.982	21426.02
506.185	21618.53
506.387	21704.54
506.59	21765.98
506.793	22378.33
506.996	22243.16
507.198	23398.21
507.401	22773.58
507.604	22984.52
507.807	23471.94
508.009	23689.03
508.212	23885.63
508.415	24258.36
508.617	24395.57
508.82	24393.53
509.022	24442.68
509.225	24850.22
509.428	25210.67
509.63	25366.31
509.833	25595.68
510.035	26177.31
510.238	25833.25
510.44	26193.69
510.643	26697.49
510.845	26890
511.048	26808.08
511.25	27354.89
511.453	27744
511.655	28598.01
511.858	28020.48
512.06	28212.99
512.262	28595.96
512.465	28348.15
512.667	29253.36
512.87	29290.22
513.072	29173.49
513.274	30068.45
513.477	30191.33
513.679	29992.67
513.881	30469.85
514.084	31045.33
514.286	30922.45
514.488	31067.86
514.69	32032.45
514.893	32304.83
515.095	31876.8
515.297	32665.27
515.499	32771.77
515.701	32966.32
515.904	33449.64
516.106	33775.27
516.308	34014.88
516.51	34195.1
516.712	34322.08
516.914	34770.58
517.116	34877.08
517.318	35194.51
517.52	35440.27
517.722	35804.81
517.925	36099.72
518.127	36599.42
518.329	36327.04
518.531	36507.26
518.733	37248.63
518.935	37578.35
519.136	37441.14
519.338	37682.8
519.54	37916.26
519.742	38458.98
519.944	38463.07
520.146	38895.19
520.348	38958.68
520.55	38856.28
520.752	39169.62
520.954	40068.68
521.155	39700.04
521.357	39910.99
521.559	40312.39
521.761	40764.99
521.963	40605.25
522.164	41219.64
522.366	41039.42
522.568	41315.89
522.77	41561.65
522.971	41969.19
523.173	42110.5
523.375	42366.5
523.576	42018.35
523.778	42067.5
523.98	42827.29
524.181	42896.92
524.383	42919.45
524.584	43343.38
524.786	43335.19
524.988	42927.64
525.189	43226.65
525.391	43767.31
525.592	44359.17
525.794	44043.79
525.995	43847.18
526.197	43922.96
526.398	44117.51
526.6	44101.13
526.801	44463.62
527.003	44109.32
527.204	44647.94
527.406	44723.71
527.607	45032.96
527.808	45264.38
528.01	44000.78
528.211	44262.92
528.412	45329.91
528.614	44959.23
528.815	45080.06
529.016	45327.86
529.218	44570.11
529.419	45346.29
529.62	44674.56
529.822	44760.58
530.023	44975.61
530.224	45002.24
530.425	44887.55
530.626	44295.69
530.828	44600.83
531.029	45387.25
531.23	45272.57
531.431	44514.82
531.632	44885.5
531.833	44838.4
532.035	44887.55
532.236	44740.1
532.437	44772.86
532.638	44885.5
532.839	44631.55
533.04	44717.57
533.241	44393.99
533.442	45143.55
533.643	44467.72
533.844	44502.53
534.045	44629.51
534.246	44125.71
534.447	44811.77
534.648	44381.7
534.849	44568.07
535.05	44432.9
535.251	44287.49
535.451	44000.78
535.652	44314.12
535.853	44185.1
536.054	44013.07
536.255	44150.28
536.456	43763.21
536.657	44338.69
536.857	44004.88
537.058	43396.63
537.259	44013.07
537.46	43908.62
537.66	43740.69
537.861	44244.49
538.062	43423.25
538.263	43496.98
538.463	43449.88
538.664	43159.06
538.865	43511.31
539.065	43709.97
539.266	43191.83
539.466	43699.73
539.667	42817.05
539.868	43787.79
540.068	42925.6
540.269	43265.56
540.469	43273.75
540.67	43048.47
540.87	43005.47
541.071	42995.23
541.271	42941.98
541.472	43222.55
541.672	42628.64
541.873	43015.71
542.073	42251.81
542.274	43099.67
542.474	43064.86
542.675	42487.33
542.875	42954.27
543.075	43083.29
543.276	42198.57
543.476	43263.51
543.676	42751.52
543.877	42872.35
544.077	42817.05
544.277	42249.77
544.478	42194.47
544.678	42939.93
544.878	42755.61
545.078	42634.78
545.279	42145.32
545.479	42423.84
545.679	42782.24
545.879	42561.06
546.079	42526.24
546.28	42708.51
546.48	42214.95
546.68	42685.98
546.88	42591.78
547.08	42520.1
547.28	42286.63
547.48	41956.91
547.68	42421.8
547.88	42278.44
548.081	42487.33
548.281	42284.58
548.481	42204.71
548.681	42552.87
548.881	42563.11
549.081	42163.75
549.28	42456.61
549.48	42587.68
549.68	42227.24
549.88	42993.18
550.08	42159.66
550.28	42636.83
550.48	42251.81
550.68	42681.89
550.88	42569.25
551.08	42630.69
551.279	42323.49
551.479	42296.87
551.679	42620.45
551.879	41997.87
552.079	42405.41
552.278	42511.91
552.478	42296.87
552.678	42530.34
552.878	42743.33
553.077	42733.09
553.277	42540.58
553.477	42868.25
553.676	42472.99
553.876	42747.42
554.076	42546.72
554.275	42370.6
554.475	42200.61
554.674	42743.33
554.874	42761.76
555.074	42391.08
555.273	42671.65
555.473	42923.55
555.672	42335.78
555.872	42548.77
556.071	42737.18
556.271	42632.74
556.47	42864.16
556.67	42765.85
556.869	42614.3
557.068	43019.8
557.268	42286.63
557.467	42634.78
557.667	42724.89
557.866	42669.6
558.065	42524.19
558.265	42569.25
558.464	42761.76
558.663	42923.55
558.863	42339.88
559.062	43245.08
559.261	42241.57
559.461	42880.54
559.66	42815.01
559.859	43011.61
560.058	42262.05
560.258	42526.24
560.457	42268.2
560.656	42622.5
560.855	42374.69
561.054	42712.61
561.253	42501.67
561.453	42753.57
561.652	42743.33
561.851	42620.45
562.05	42853.92
562.249	42249.77
562.448	42839.58
562.647	42317.35
562.846	42552.87
563.045	42595.87
563.244	42280.49
563.443	42358.31
563.642	41768.49
563.841	42589.73
564.04	42288.68
564.239	42647.07
564.438	41864.75
564.637	42372.64
564.836	42067.5
565.035	42042.92
565.234	42159.66
565.432	42028.59
565.631	41565.74
565.83	42280.49
566.029	41655.86
566.228	41633.33
566.427	41674.29
566.625	41590.32
566.824	41211.45
567.023	42001.96
567.222	41334.32
567.42	41733.68
567.619	41436.72
567.818	41125.43
568.016	40992.31
568.215	41168.44
568.414	41215.54
568.612	41309.75
568.811	41012.79
569.01	41115.19
569.208	40425.03
569.407	40963.64
569.605	40496.7
569.804	40832.57
570.002	40197.7
570.201	40648.25
570.4	40515.14
570.598	40502.85
570.797	40332.87
570.995	40027.72
571.193	39736.91
571.392	40607.3
571.59	40078.92
571.789	39624.27
571.987	39720.52
572.186	39491.15
572.384	39186
572.582	39734.86
572.781	39712.33
572.979	39403.09
573.177	39319.12
573.376	39263.83
573.574	39157.33
573.772	39159.38
573.971	38626.91
574.169	38684.25
574.367	38925.91
574.565	39007.83
574.763	38317.67
574.962	38489.7
575.16	37932.65
575.358	38278.75
575.556	38037.09
575.754	38291.04
575.952	37797.48
576.151	38055.53
576.349	37475.95
576.547	37766.76
576.745	37989.99
576.943	37766.76
577.141	37529.2
577.339	37680.75
577.537	37021.3
577.735	37191.28
577.933	37164.66
578.131	37039.73
578.329	36726.39
578.527	36841.08
578.725	37199.48
578.923	36933.24
579.121	36626.04
579.319	36406.91
579.516	36642.43
579.714	36669.05
579.912	36505.21
580.11	36105.86
580.308	36195.97
580.506	35837.58
580.704	35184.27
580.901	35661.45
581.099	35884.68
581.297	35286.67
581.495	35298.96
581.692	35960.45
581.89	35151.51
582.088	35647.11
582.285	35270.29
582.483	35171.99
582.681	35311.25
582.878	34963.09
583.076	34696.86
583.274	34875.03
583.471	34606.75
583.669	34385.57
583.866	34383.52
584.064	35100.31
584.262	34059.94
584.459	34373.28
584.657	34094.75
584.854	34369.18
585.052	33666.73
585.249	33982.12
585.447	34373.28
585.644	33658.54
585.841	33994.4
586.039	34234.02
586.236	33480.36
586.434	33459.88
586.631	33447.6
586.828	33259.18
587.026	33158.83
587.223	33119.92
587.42	33355.44
587.618	33128.11
587.815	32716.47
588.012	32786.1
588.21	32865.97
588.407	32978.61
588.604	32671.42
588.801	32450.24
588.999	32505.53
589.196	32532.15
589.393	32497.34
589.59	32192.19
589.787	32360.12
589.984	32607.93
590.182	32208.58
590.379	32257.73
590.576	31739.59
590.773	32059.07
590.97	31848.13
591.167	31950.53
591.364	31418.06
591.561	31749.83
591.758	31373
591.955	31583.94
592.152	31526.6
592.349	31442.63
592.546	31770.31
592.743	31520.46
592.94	30897.88
593.137	31399.63
593.334	31131.34
593.531	30482.14
593.727	31547.08
593.924	30961.36
594.121	30695.13
594.318	31033.04
594.515	30680.79
594.712	31033.04
594.908	30918.35
595.105	30744.28
595.302	30387.93
595.499	30947.03
595.696	30430.94
595.892	30396.12
596.089	30738.13
596.286	30449.37
596.482	30592.73
596.679	30562.01
596.876	30383.84
597.072	30066.4
597.269	30054.11
597.466	30011.1
597.662	30263
597.859	29812.45
598.055	30111.46
598.252	29970.15
598.448	30195.42
598.645	29781.73
598.841	29658.85
599.038	29906.66
599.234	29855.46
599.431	29564.65
599.627	29808.36
599.824	30129.89
600.02	29642.47
600.217	29472.49
600.413	29810.4
600.609	29857.51
600.806	29947.62
601.002	29853.41
601.198	29923.04
601.395	29826.79
601.591	29765.35
601.787	29738.72
601.984	29374.19
602.18	29730.53
602.376	29775.59
602.572	29943.52
602.769	29689.57
602.965	29355.75
603.161	29673.19
603.357	29382.38
603.553	29400.81
603.75	29630.18
603.946	29628.13
604.142	29896.42
604.338	29468.39
604.534	29626.09
604.73	29398.76
604.926	29628.13
605.122	29540.07
605.318	29599.46
605.514	29544.17
605.71	29376.23
605.906	29699.81
606.102	29425.39
606.298	29703.91
606.494	29681.38
606.69	29634.28
606.886	29937.38
607.082	29542.12
607.278	30250.72
607.474	29468.39
607.67	29718.25
607.866	29441.77
608.062	29665
608.257	29779.68
608.453	29693.67
608.649	30019.3
608.845	29925.09
609.041	29787.88
609.236	29755.11
609.432	29712.1
609.628	30088.93
609.824	29837.03
610.019	29740.77
610.215	29712.1
610.411	29941.47
610.606	29880.03
610.802	30158.56
610.998	30263
611.193	29955.81
611.389	29665
611.584	30052.06
611.78	30043.87
611.976	29972.19
612.171	30105.31
612.367	30119.65
612.562	30072.54
612.758	29816.55
612.953	29888.23
613.149	30291.68
613.344	29931.23
613.539	30523.1
613.735	29990.63
613.93	30449.37
614.126	29988.58
614.321	30578.39
614.517	30201.57
614.712	30054.11
614.907	30007.01
615.103	29978.34
615.298	30070.5
615.493	30590.68
615.688	29869.79
615.884	30596.82
616.079	29628.13
616.274	30502.62
616.47	30072.54
616.665	30283.48
616.86	30162.65
617.055	30207.71
617.25	29828.84
617.445	30521.05
617.641	29787.88
617.836	29929.19
618.031	29734.63
618.226	30115.55
618.421	29726.44
618.616	30179.04
618.811	29267.69
619.006	30166.75
619.201	29251.31
619.396	29888.23
619.591	29226.73
619.786	29392.62
619.981	28925.68
620.176	29431.53
620.371	28733.17
620.566	28892.91
620.761	28919.54
620.956	29058.8
621.151	28765.94
621.346	28974.83
621.541	28419.83
621.735	28948.21
621.93	28215.04
622.125	27920.13
622.32	27875.07
622.515	28067.58
622.709	28045.05
622.904	27834.11
623.099	27680.52
623.294	27594.5
623.488	27313.93
623.683	27346.7
623.878	27189
624.072	26969.87
624.267	27076.37
624.462	27207.44
624.656	26787.6
624.851	26539.8
625.046	26605.33
625.24	26345.24
625.435	26154.78
625.629	26191.64
625.824	26025.76
626.018	26019.61
626.213	25792.29
626.407	25696.03
626.602	25427.75
626.796	25364.26
626.991	25380.65
627.185	25120.56
627.38	25206.57
627.574	24940.33
627.768	25073.45
627.963	24995.63
628.157	24262.46
628.352	24782.64
628.546	24147.77
628.74	24680.24
628.935	23920.45
629.129	24403.77
629.323	23801.66
629.517	23545.67
629.712	23600.96
629.906	23586.63
630.1	23400.26
630.294	23486.28
630.489	23158.6
630.683	23314.25
630.877	22837.07
631.071	22695.76
631.265	22486.87
631.459	22581.07
631.653	22583.12
631.848	22337.37
632.042	22396.76
632.236	22746.96
632.43	22040.41
632.624	22226.78
632.818	21938.01
633.012	21419.88
633.206	21673.82
633.4	21837.66
633.594	21344.1
633.788	21423.97
633.982	21315.43
634.176	21116.78
634.369	21108.58
634.563	21071.72
634.757	20766.57
634.951	20807.53
635.145	20635.5
635.339	20524.91
635.533	20254.58
635.726	20440.95
635.92	20148.09
636.114	20191.09
636.308	19937.15
636.501	20139.9
636.695	19806.08
636.889	19701.63
637.083	19347.33
637.276	19554.18
637.47	19406.72
637.664	19212.17
637.857	18980.75
638.051	18882.44
638.244	18888.59
638.438	19101.58
638.632	18663.31
638.825	18442.13
639.019	18544.53
639.212	18331.54
639.406	18528.14
639.599	18325.4
639.793	18126.74
639.986	17813.4
640.18	17911.71
640.373	18040.73
640.567	17680.28
640.76	17684.38
640.954	17581.98
641.147	17141.67
641.34	17254.31
641.534	17256.36
641.727	17143.72
641.92	17135.53
642.114	17145.77
642.307	16766.89
642.5	16764.84
642.694	16562.09
642.887	16504.75
643.08	16539.57
643.273	16551.85
643.467	16463.79
643.66	16058.29
643.853	16072.63
644.046	15792.06
644.239	15976.37
644.432	15902.65
644.626	15636.41
644.819	15740.86
645.012	15701.95
645.205	15626.17
645.398	15310.79
645.591	15245.25
645.784	15194.05
645.977	15028.17
646.17	15001.54
646.363	15030.21
646.556	14671.82
646.749	14616.52
646.942	14735.31
647.135	14495.69
647.328	14411.73
647.521	14534.6
647.714	14116.82
647.907	14147.54
648.099	14088.15
648.292	14387.15
648.485	14178.26
648.678	13821.91
648.871	13787.1
649.064	13737.95
649.256	13703.13
649.449	13651.93
649.642	13690.84
649.835	13342.69
650.027	13336.54
650.22	13254.62
650.413	13244.38
650.605	13211.62
650.798	12951.53
650.991	12996.58
651.183	12754.92
651.376	12793.83
651.568	12853.22
651.761	12564.46
651.954	12662.76
652.146	12541.93
652.339	12605.42
652.531	12453.87
652.724	12300.27
652.916	12156.91
653.109	12304.37
653.301	12183.54
653.494	12132.34
653.686	12101.62
653.879	12122.1
654.071	12027.89
654.263	11829.24
654.456	11730.94
654.648	11802.61
654.84	11577.34
655.033	11763.7
655.225	11642.87
655.417	11665.4
655.61	11411.45
655.802	11388.92
655.994	11343.87
656.186	11153.41
656.379	10960.9
656.571	11022.34
656.763	11018.24
656.955	10913.8
657.148	11108.35
657.34	11294.72
657.532	10819.59
657.724	10897.41
657.916	10635.27
658.108	10657.8
658.3	10496.01
658.492	10682.38
658.684	10340.36
658.876	10448.91
659.068	10188.82
659.26	10250.25
659.452	10319.89
659.644	10215.44
659.836	10108.94
660.028	10287.12
660.22	9746.45
660.412	9898
660.604	9877.52
660.796	9859.09
660.988	9650.2
661.18	9447.45
661.372	9443.35
661.563	9660.44
661.755	9541.66
661.947	9588.76
662.139	9283.61
662.331	9490.46
662.522	9263.13
662.714	9535.51
662.906	9125.92
663.097	9093.15
663.289	9234.46
663.481	9101.34
663.673	8986.66
663.864	8771.62
664.056	8785.96
664.247	8910.88
664.439	8947.75
664.631	8917.03
664.822	8749.09
665.014	8806.44
665.205	8628.26
665.397	8413.23
665.588	8454.19
665.78	8509.48
665.971	8542.25
666.163	8495.15
666.354	8341.55
666.546	8296.49
666.737	8009.78
666.929	8140.85
667.12	8224.81
667.311	8085.55
667.503	8208.43
667.694	7919.67
667.885	8077.36
668.077	7950.39
668.268	7944.24
668.459	7864.37
668.651	7741.49
668.842	7778.36
669.033	7725.11
669.224	7682.1
669.416	7850.03
669.607	7831.6
669.798	7628.85
669.989	7712.82
670.18	7637.05
670.371	7530.55
670.563	7600.18
670.754	7510.07
670.945	7561.27
671.136	7460.92
671.327	7313.47
671.518	7440.44
671.709	7249.98
671.9	7460.92
672.091	7256.12
672.282	7362.62
672.473	7202.88
672.664	7100.48
672.855	7168.06
673.046	7204.92
673.237	7174.21
673.428	7094.33
673.619	6883.39
673.809	6998.08
674	7084.09
674.191	7153.73
674.382	7082.05
674.573	6805.57
674.764	6926.4
674.954	7116.86
675.145	6791.24
675.336	6781
675.527	6772.8
675.717	6844.48
675.908	6830.15
676.099	6717.51
676.289	6697.03
676.48	6791.24
676.671	6727.75
676.861	6744.13
677.052	6621.25
677.243	6541.38
677.433	6461.51
677.624	6518.86
677.814	6502.47
678.005	6615.11
678.195	6611.01
678.386	6553.67
678.576	6486.09
678.767	6408.26
678.957	6387.79
679.148	6539.33
679.338	6469.7
679.529	6373.45
679.719	6395.98
679.909	6490.18
680.1	6363.21
680.29	6260.81
680.481	6461.51
680.671	6375.5
680.861	6269
681.052	6346.83
681.242	6207.56
681.432	6662.21
681.622	6119.5
681.813	6332.49
682.003	6346.83
682.193	6174.8
682.383	6465.61
682.573	6281.29
682.764	6129.74
682.954	6115.41
683.144	6160.46
683.334	6324.3
683.524	6174.8
683.714	6201.42
683.904	6174.8
684.094	6361.16
684.284	6162.51
684.474	6158.41
684.664	5986.38
684.854	6072.4
685.044	6076.49
685.234	6092.88
685.424	5978.19
685.614	5945.42
685.804	5957.71
685.994	6070.35
686.184	5974.1
686.374	6088.78
686.564	5914.7
686.753	5900.37
686.943	5890.13
687.133	5929.04
687.323	5898.32
687.513	5871.7
687.702	5795.92
687.892	5900.37
688.082	5636.18
688.272	5769.3
688.461	5871.7
688.651	5859.41
688.841	5650.52
689.03	5779.54
689.22	5648.47
689.41	5587.03
689.599	5779.54
689.789	5642.32
689.979	5642.32
690.168	5544.02
690.358	5621.84
690.547	5490.77
690.737	5591.13
690.926	5544.02
691.116	5525.59
691.305	5587.03
691.495	5412.95
691.684	5398.62
691.874	5464.15
692.063	5429.34
692.252	5273.69
692.442	5453.91
692.631	5351.51
692.82	5339.23
693.01	5318.75
693.199	5331.03
693.388	5259.35
693.578	5122.14
693.767	5136.48
693.956	5279.83
694.146	5296.22
694.335	5257.31
694.524	5208.16
694.713	5154.91
694.902	5173.34
695.092	5185.63
695.281	5216.35
695.47	5142.62
695.659	5142.62
695.848	5105.76
696.037	5079.13
696.226	4876.38
696.415	5066.85
696.604	5097.56
696.793	4833.38
696.982	5007.45
697.171	5052.51
697.36	5005.41
697.549	4933.73
697.738	4880.48
697.927	5007.45
698.116	4952.16
698.305	4800.61
698.494	4890.72
698.683	4843.62
698.872	4941.92
699.061	4905.06
699.25	4761.7
699.438	4825.19
699.627	4853.86
699.816	4954.21
700.005	4773.99
700.193	4800.61
700.382	4819.04
700.571	4700.26
700.76	4765.79
700.948	4687.97
701.137	4819.04
701.326	4716.64
701.514	4657.25
701.703	4751.46
701.892	4556.9
702.08	4618.34
702.269	4755.55
702.457	4530.28
702.646	4655.2
702.834	4421.74
703.023	4595.81
703.212	4634.72
703.4	4511.85
703.589	4544.61
703.777	4536.42
703.965	4479.08
704.154	4612.2
704.342	4405.35
704.531	4417.64
704.719	4413.54
704.907	4421.74
705.096	4372.58
705.284	4395.11
705.472	4309.1
705.661	4278.38
705.849	4329.58
706.037	4317.29
706.226	4382.82
706.414	4343.91
706.602	4339.82
706.79	4294.76
706.979	4266.09
707.167	4360.3
707.355	4249.71
707.543	4137.07
707.731	4335.72
707.919	4159.6
708.107	4122.73
708.296	4065.39
708.484	4137.07
708.672	4116.59
708.86	4126.83
709.048	4069.48
709.236	3881.07
709.424	4073.58
709.612	4218.99
709.8	4151.4
709.988	4038.77
710.176	3938.41
710.364	4032.62
710.551	4028.53
710.739	4130.92
710.927	4145.26
711.115	4055.15
711.303	4092.01
711.491	3979.37
711.679	3819.63
711.866	3799.15
712.054	3981.42
712.242	3866.74
712.43	3924.08
712.617	3848.3
712.805	3846.26
712.993	3928.17
713.181	3926.13
713.368	3864.69
713.556	3889.26
713.744	3676.27
713.931	3770.48
714.119	3737.71
714.306	3754.1
714.494	3561.59
714.682	3686.51
714.869	3496.05
715.057	3793.01
715.244	3618.93
715.432	3610.74
715.619	3717.23
715.807	3700.85
715.994	3631.22
716.182	3684.47
716.369	3532.92
716.556	3709.04
716.744	3584.12
716.931	3526.77
717.119	3422.33
717.306	3401.85
717.493	3614.84
717.681	3573.88
717.868	3481.72
718.055	3555.44
718.242	3629.17
718.43	3471.48
718.617	3514.49
718.804	3514.49
718.991	3448.95
719.179	3530.87
719.366	3500.15
719.553	3401.85
719.74	3438.71
719.927	3371.13
720.114	3434.61
720.301	3242.11
720.488	3295.35
720.676	3319.93
720.863	3260.54
721.05	3489.91
721.237	3383.42
721.424	3307.64
721.611	3367.03
721.798	3135.61
721.985	3195
722.172	3309.69
722.358	3160.19
722.545	3283.06
722.732	3184.76
722.919	3432.57
723.106	3119.23
723.293	3119.23
723.48	3127.42
723.667	3213.43
723.853	3291.26
724.04	3154.04
724.227	3158.14
724.414	3141.75
724.6	3233.91
724.787	3172.47
724.974	3102.84
725.161	3137.66
725.347	3012.73
725.534	3020.92
725.72	3020.92
725.907	3201.15
726.094	3084.41
726.28	3000.44
726.467	3117.18
726.653	2951.29
726.84	3010.68
727.027	3053.69
727.213	3029.12
727.4	3074.17
727.586	3053.69
727.773	3102.84
727.959	2979.97
728.145	2904.19
728.332	2996.35
728.518	2967.68
728.705	2963.58
728.891	2883.71
729.077	2883.71
729.264	2930.81
729.45	2998.4
729.636	2994.3
729.823	2842.75
730.009	2908.29
730.195	2922.62
730.382	2996.35
730.568	2932.86
730.754	2865.28
730.94	2885.76
731.126	2812.03
731.313	2906.24
731.499	2742.4
731.685	2721.92
731.871	2871.42
732.057	2850.94
732.243	2762.88
732.429	2728.07
732.615	2764.93
732.801	2906.24
732.987	2744.45
733.173	2746.5
733.359	2775.17
733.545	2709.63
733.731	2752.64
733.917	2721.92
734.103	2582.66
734.289	2615.43
734.475	2683.01
734.661	2670.72
734.847	2611.33
735.033	2795.65
735.219	2621.57
735.404	2769.02
735.59	2687.11
735.776	2685.06
735.962	2685.06
736.148	2709.63
736.333	2521.22
736.519	2574.47
736.705	2648.19
736.89	2570.37
737.076	2625.67
737.262	2568.32
737.447	2584.71
737.633	2599.04
737.819	2594.95
738.004	2549.89
738.19	2510.98
738.375	2644.1
738.561	2357.38
738.747	2543.75
738.932	2439.3
739.118	2515.08
739.303	2451.59
739.489	2541.7
739.674	2504.84
739.859	2490.5
740.045	2502.79
740.23	2480.26
740.416	2492.55
740.601	2400.39
740.786	2349.19
740.972	2336.9
741.157	2338.95
741.342	2379.91
741.528	2410.63
741.713	2390.15
741.898	2334.86
742.084	2244.74
742.269	2324.62
742.454	2324.62
742.639	2267.27
742.824	2341
743.01	2332.81
743.195	2316.42
743.38	2218.12
743.565	2283.66
743.75	2314.38
743.935	2138.25
744.12	2277.51
744.305	2226.31
744.49	2119.82
744.675	2164.87
744.86	2230.41
745.045	2132.11
745.23	2144.39
745.415	2175.11
745.6	2271.37
745.785	2056.33
745.97	2197.64
746.155	2211.98
746.34	2207.88
746.525	2130.06
746.71	2119.82
746.895	2009.23
747.079	1931.41
747.264	2087.05
747.449	2054.28
747.634	1976.46
747.819	1933.45
748.003	2007.18
748.188	2070.67
748.373	1980.56
748.557	2021.52
748.742	1919.12
748.927	1919.12
749.111	1972.36
749.296	1878.16
749.481	1769.62
749.665	1869.97
749.85	1837.2
750.034	1839.25
750.219	1734.8
750.404	1841.29
750.588	1650.83
750.773	1763.47
750.957	1824.91
751.141	1783.95
751.326	1745.04
751.51	1722.51
751.695	1718.42
751.879	1685.65
752.064	1747.09
752.248	1677.46
752.432	1652.88
752.617	1710.22
752.801	1712.27
752.985	1718.42
753.17	1669.27
753.354	1685.65
753.538	1654.93
753.722	1468.56
753.907	1562.77
754.091	1583.25
754.275	1546.39
754.459	1579.15
754.643	1624.21
754.828	1530
755.012	1499.28
755.196	1433.75
755.38	1521.81
755.564	1394.84
755.748	1425.56
755.932	1484.95
756.116	1517.72
756.3	1523.86
756.484	1390.74
756.668	1423.51
756.852	1390.74
757.036	1458.32
757.22	1505.43
757.404	1265.82
757.588	1433.75
757.772	1292.44
757.956	1390.74
758.14	1403.03
758.323	1286.3
758.507	1257.62
758.691	1366.17
758.875	1280.15
759.059	1317.01
759.242	1323.16
759.426	1237.14
759.61	1284.25
759.794	1228.95
759.977	1157.27
760.161	1349.78
760.345	1321.11
760.528	1304.73
760.712	1153.18
760.895	1210.52
761.079	1206.42
761.263	1163.42
761.446	1185.94
761.63	1220.76
761.813	1067.16
761.997	1179.8
762.18	1245.34
762.364	1144.99
762.547	1136.79
762.731	1132.7
762.914	1075.35
763.098	1015.96
763.281	1122.46
763.464	1128.6
763.648	1063.07
763.831	1071.26
764.015	1208.47
764.198	1067.16
764.381	1112.22
764.564	1048.73
764.748	1087.64
764.931	1054.87
765.114	1032.35
765.297	1128.6
765.481	985.24
765.664	1022.11
765.847	1018.01
766.03	1073.31
766.213	1013.92
766.397	997.53
766.58	964.76
766.763	1042.59
766.946	1052.83
767.129	1007.77
767.312	1034.39
767.495	1056.92
767.678	1075.35
767.861	1048.73
768.044	1013.92
768.227	1022.11
768.41	901.28
768.593	1013.92
768.776	987.29
768.959	1013.92
769.142	1044.63
769.324	989.34
769.507	966.81
769.69	1011.87
769.873	923.8
770.056	948.38
770.239	907.42
770.421	1015.96
770.604	874.65
770.787	950.43
770.97	983.2
771.152	891.04
771.335	1003.68
771.518	848.03
771.7	940.19
771.883	958.62
772.066	948.38
772.248	833.69
772.431	909.47
772.613	866.46
772.796	927.9
772.978	911.52
773.161	841.89
773.343	925.85
773.526	841.89
773.708	837.79
773.891	850.08
774.073	858.27
774.256	862.37
774.438	874.65
774.621	821.41
774.803	770.21
774.985	786.59
775.168	837.79
775.35	751.78
775.532	813.21
775.715	800.93
775.897	788.64
776.079	792.73
776.261	768.16
776.444	837.79
776.626	714.91
776.808	759.97
776.99	649.38
777.173	802.97
777.355	743.58
777.537	727.2
777.719	702.62
777.901	743.58
778.083	661.66
778.265	671.9
778.447	796.83
778.629	688.29
778.811	829.6
778.993	694.43
779.175	712.86
779.357	637.09
779.539	727.2
779.721	680.1
779.903	612.51
780.085	653.47
780.267	651.42
780.449	637.09
780.631	686.24
780.812	632.99
780.994	706.72
781.176	612.51
781.358	581.79
781.54	671.9
781.721	620.71
781.903	600.23
782.085	592.03
782.267	583.84
782.448	540.83
782.63	589.99
782.812	518.31
782.993	606.37
783.175	540.83
783.357	553.12
783.538	641.18
783.72	612.51
783.901	489.64
784.083	512.16
784.264	506.02
784.446	485.54
784.627	510.11
784.809	596.13
784.99	460.96
785.172	536.74
785.353	516.26
785.535	546.98
785.716	465.06
785.897	483.49
786.079	600.23
786.26	450.72
786.441	546.98
786.623	395.43
786.804	395.43
786.985	450.72
787.167	506.02
787.348	475.3
787.529	417.96
787.71	495.78
787.891	460.96
788.073	399.52
788.254	374.95
788.435	514.21
788.616	479.4
788.797	383.14
788.978	458.92
789.159	397.48
789.34	428.2
789.522	397.48
789.703	350.37
789.884	422.05
790.065	393.38
790.246	440.48
790.427	432.29
790.607	432.29
790.788	407.72
790.969	428.2
791.15	364.71
791.331	401.57
791.512	350.37
791.693	338.09
791.874	387.24
792.054	442.53
792.235	385.19
792.416	354.47
792.597	350.37
792.778	358.57
792.958	377
793.139	358.57
793.32	336.04
793.5	303.27
793.681	358.57
793.862	352.42
794.042	284.84
794.223	266.41
794.404	268.45
794.584	262.31
794.765	301.22
794.945	278.69
795.126	401.57
795.306	313.51
795.487	331.94
795.667	243.88
795.848	311.46
796.028	284.84
796.209	377
796.389	280.74
796.57	327.85
796.75	333.99
796.93	327.85
797.111	297.13
797.291	284.84
797.471	250.02
797.652	190.63
797.832	305.32
798.012	219.3
798.192	247.97
798.373	229.54
798.553	213.16
798.733	272.55
798.913	186.54
799.093	194.73
799.274	336.04
799.454	301.22
799.634	280.74
799.814	319.65
799.994	254.12
800.174	254.12
800.354	170.15
800.534	155.82
800.714	280.74
800.894	231.59
801.074	155.82
801.254	196.78
801.434	293.03
801.614	309.41
801.794	202.92
801.974	899.23
802.154	247.97
802.334	204.97
802.514	280.74
802.693	182.44
802.873	227.5
803.053	254.12
803.233	295.08
803.413	243.88
803.592	215.21
803.772	184.49
803.952	202.92
804.131	137.38
804.311	333.99
804.491	301.22
804.67	190.63
804.85	211.11
805.03	211.11
805.209	211.11
805.389	184.49
805.568	164.01
805.748	196.78
805.928	170.15
806.107	317.61
806.287	190.63
806.466	295.08
806.646	227.5
806.825	94.38
807.004	188.58
807.184	243.88
807.363	198.82
807.543	137.38
807.722	166.06
807.901	272.55
808.081	227.5
808.26	106.67
808.439	204.97
808.619	176.3
808.798	139.43
808.977	166.06
809.156	188.58
809.336	231.59
809.515	186.54
809.694	184.49
809.873	100.52
810.052	153.77
810.231	170.15
810.411	161.96
810.59	247.97
810.769	116.9
810.948	194.73
811.127	139.43
811.306	164.01
811.485	131.24
811.664	192.68
811.843	168.1
812.022	157.86
812.201	143.53
812.38	145.58
812.559	159.91
812.737	186.54
812.916	96.43
813.095	161.96
813.274	186.54
813.453	106.67
813.632	159.91
813.811	256.17
813.989	121
814.168	184.49
814.347	59.56
814.526	153.77
814.704	149.67
814.883	153.77
815.062	121
815.24	194.73
815.419	114.86
815.598	184.49
815.776	104.62
815.955	186.54
816.133	80.04
816.312	112.81
816.49	110.76
816.669	155.82
816.847	53.42
817.026	204.97
817.204	75.95
817.383	118.95
817.561	157.86
817.74	178.34
817.918	102.57
818.097	129.19
818.275	80.04
818.453	170.15
818.632	186.54
818.81	139.43
818.988	164.01
819.167	170.15
819.345	59.56
819.523	137.38
819.701	49.32
819.879	125.1
820.058	102.57
820.236	153.77
820.414	170.15
820.592	161.96
820.77	63.66
820.948	88.23
821.127	82.09
821.305	86.19
821.483	104.62
821.661	141.48
821.839	47.27
822.017	131.24
822.195	104.62
822.373	157.86
822.551	106.67
822.729	71.85
822.907	75.95
823.085	121
823.262	129.19
823.44	125.1
823.618	121
823.796	90.28
823.974	92.33
824.152	71.85
824.329	82.09
824.507	71.85
824.685	149.67
824.863	63.66
825.04	92.33
825.218	73.9
825.396	47.27
825.574	82.09
825.751	112.81
825.929	174.25
826.107	129.19
826.284	55.47
826.462	71.85
826.639	104.62
826.817	137.38
826.994	82.09
827.172	84.14
827.349	123.05
827.527	155.82
827.704	112.81
827.882	43.18
828.059	127.14
828.237	43.18
828.414	67.75
828.591	-22.36
828.769	71.85
828.946	121
829.124	55.47
829.301	77.99
829.478	41.13
829.655	123.05
829.833	114.86
830.01	45.23
830.187	63.66
830.364	73.9
830.542	84.14
830.719	90.28
830.896	178.34
831.073	114.86
831.25	77.99
831.427	92.33
831.604	6.31
831.782	41.13
831.959	59.56
832.136	51.37
832.313	63.66
832.49	71.85
832.667	106.67
832.844	121
833.021	98.47
833.198	57.51
833.374	104.62
833.551	71.85
833.728	22.7
833.905	92.33
834.082	-40.79
834.259	43.18
834.436	96.43
834.612	32.94
834.789	129.19
834.966	47.27
835.143	80.04
835.319	26.79
835.496	32.94
835.673	14.51
835.85	55.47
836.026	10.41
836.203	49.32
836.38	30.89
836.556	8.36
836.733	59.56
836.909	96.43
837.086	98.47
837.262	14.51
837.439	-20.31
837.616	88.23
837.792	96.43
837.968	65.71
838.145	69.8
838.321	47.27
838.498	22.7
838.674	65.71
838.851	43.18
839.027	39.08
839.203	30.89
839.38	75.95
839.556	32.94
839.732	155.82
839.909	47.27
840.085	77.99
840.261	39.08
840.437	26.79
840.614	22.7
840.79	65.71
840.966	63.66
841.142	67.75
841.318	39.08
841.494	73.9
841.671	30.89
841.847	14.51
842.023	-30.55
842.199	-1.88
842.375	63.66
842.551	69.8
842.727	39.08
842.903	75.95
843.079	-34.64
843.255	88.23
843.431	32.94
843.607	34.99
843.783	14.51
843.959	98.47
844.134	65.71
844.31	43.18
844.486	-10.07
844.662	39.08
844.838	71.85
845.013	47.27
845.189	39.08
845.365	26.79
845.541	39.08
845.716	30.89
845.892	88.23
846.068	-1.88
846.244	-22.36
846.419	-26.45
846.595	34.99
846.77	-1.88
846.946	14.51
847.122	32.94
847.297	10.41
847.473	59.56
847.648	-34.64
847.824	71.85
847.999	16.55
848.175	28.84
848.35	-10.07
848.526	49.32
848.701	-26.45
848.876	39.08
849.052	2.22
849.227	-14.17
849.403	6.31
849.578	26.79
849.753	39.08
849.929	30.89
850.104	-22.36
850.279	84.14
850.454	-5.97
850.63	6.31
850.805	8.36
850.98	51.37
851.155	80.04
851.33	26.79
851.505	20.65
851.681	114.86
851.856	-38.74
852.031	51.37
852.206	-12.12
852.381	8.36
852.556	28.84
852.731	57.51
852.906	112.81
853.081	43.18
853.256	71.85
853.431	71.85
853.606	22.7
853.781	32.94
853.956	0.17
854.131	-1.88
854.305	-10.07
854.48	88.23
854.655	22.7
854.83	-24.4
855.005	30.89
855.18	-8.02
855.354	22.7
855.529	30.89
855.704	49.32
855.879	47.27
856.053	8.36
856.228	32.94
856.403	16.55
856.577	6.31
856.752	-51.03
856.926	43.18
857.101	-46.93
857.276	55.47
857.45	-8.02
857.625	-3.93
857.799	24.75
857.974	39.08
858.148	32.94
858.323	14.51
858.497	-46.93
858.672	-1.88
858.846	-63.32
859.02	92.33
859.195	-38.74
859.369	24.75
859.543	22.7
859.718	-12.12
859.892	12.46
860.066	55.47
860.241	8.36
860.415	-65.36
860.589	-44.88
860.763	-10.07
860.938	-59.22
861.112	-26.45
861.286	6.31
861.46	8.36
861.634	-3.93
861.808	-8.02
861.982	-3.93
862.157	-32.6
862.331	-10.07
862.505	-32.6
862.679	-32.6
862.853	-34.64
863.027	-8.02
863.201	30.89
863.375	-51.03
863.549	-30.55
863.722	32.94
863.896	47.27
864.07	65.71
864.244	-14.17
864.418	-75.6
864.592	45.23
864.766	-48.98
864.939	-57.17
865.113	6.31
865.287	6.31
865.461	-26.45
865.634	-26.45
865.808	-42.84
865.982	-32.6
866.156	-61.27
866.329	-1.88
866.503	32.94
866.676	30.89
866.85	-30.55
867.024	0.17
867.197	30.89
867.371	-28.5
867.544	-32.6
867.718	-87.89
867.891	96.43
868.065	-24.4
868.238	49.32
868.412	41.13
868.585	-24.4
868.759	-59.22
868.932	-87.89
869.105	-22.36
869.279	16.55
869.452	-20.31
869.625	34.99
869.799	-16.21
869.972	-65.36
870.145	-30.55
870.319	22.7
870.492	-46.93
870.665	57.51
870.838	4.27
871.011	-98.13
871.185	-20.31
871.358	-18.26
871.531	-18.26
871.704	80.04
871.877	-26.45
872.05	-40.79
872.223	30.89
872.396	49.32
872.569	6.31
872.742	-96.08
872.915	-24.4
873.088	-42.84
873.261	6.31
873.434	-40.79
873.607	-26.45
873.78	30.89
873.953	-83.8
874.126	18.6
874.299	2.22
874.471	-34.64
874.644	-24.4
874.817	-18.26
874.99	47.27
875.163	-38.74
875.335	6.31
875.508	-96.08
875.681	-18.26
875.853	67.75
876.026	30.89
876.199	39.08
876.371	-38.74
876.544	-44.88
876.717	-32.6
876.889	-26.45
877.062	-44.88
877.234	-10.07
877.407	-51.03
877.579	-91.99
877.752	22.7
877.924	-36.69
878.097	24.75
878.269	26.79
878.442	-46.93
878.614	34.99
878.786	26.79
878.959	80.04
879.131	-28.5
879.303	-59.22
879.476	10.41
879.648	41.13
879.82	-57.17
879.993	-42.84
880.165	-30.55
880.337	-30.55
880.509	14.51
880.681	-44.88
880.854	63.66
881.026	18.6
881.198	65.71
881.37	-63.32
881.542	-26.45
881.714	-75.6
881.886	-26.45
882.058	-26.45
882.23	10.41
882.402	-24.4
882.574	8.36
882.746	-26.45
882.918	164.01
883.09	-53.08
883.262	-114.52
883.434	-59.22
883.606	-59.22
883.778	-26.45
883.95	80.04
884.122	-12.12
884.293	18.6
884.465	-22.36
884.637	30.89
884.809	-51.03
884.98	55.47
885.152	-55.12
885.324	22.7
885.496	26.79
885.667	22.7
885.839	-96.08
886.011	0.17
886.182	-18.26
886.354	37.03
886.525	-18.26
886.697	12.46
886.869	-83.8
887.04	-57.17
887.212	-16.21
887.383	57.51
887.555	-100.18
887.726	-22.36
887.897	-20.31
888.069	-30.55
888.24	-32.6
888.412	24.75
888.583	-10.07
888.754	-59.22
888.926	-32.6
889.097	-8.02
889.268	-42.84
889.44	86.19
889.611	-5.97
889.782	-10.07
889.953	-75.6
890.125	30.89
890.296	-34.64
890.467	12.46
890.638	-18.26
890.809	-14.17
890.98	-18.26
891.151	-1.88
891.323	-10.07
891.494	-42.84
891.665	12.46
891.836	-87.89
892.007	-75.6
892.178	-32.6
892.349	34.99
892.52	-14.17
892.691	-98.13
892.862	-57.17
893.032	-79.7
893.203	-40.79
893.374	-83.8
893.545	8.36
893.716	0.17
893.887	-1.88
894.057	-10.07
894.228	-40.79
894.399	-1.88
894.57	-79.7
894.74	-10.07
894.911	26.79
895.082	-10.07
895.253	-5.97
895.423	-36.69
895.594	53.42
895.764	-38.74
895.935	-106.32
896.106	-22.36
896.276	-22.36
896.447	-51.03
896.617	-28.5
896.788	-51.03
896.958	8.36
897.129	6.31
897.299	16.55
897.47	47.27
897.64	2.22
897.81	-12.12
897.981	-20.31
898.151	-3.93
898.322	24.75
898.492	26.79
898.662	-122.71
898.832	-14.17
899.003	75.95
899.173	-1.88
899.343	18.6
899.513	-46.93
