Data from USB4F104151__128__14-31-22-134.txt Node

Date: Thu Mar 13 14:31:22 EDT 2025
User: louis
Spectrometer: USB4F10415
Trigger mode: 4
Integration Time (sec): 2.500000E-2
Scans to average: 1
Electric dark correction enabled: true
Nonlinearity correction enabled: false
Boxcar width: 0
XAxis mode: Wavelengths
Number of Pixels in Spectrum: 3648
>>>>>Begin Spectral Data<<<<<
178.204	-141.14
178.424	-141.14
178.644	-141.14
178.864	-141.14
179.084	-165.71
179.304	22.7
179.524	-63.32
179.744	-14.17
179.964	67.75
180.184	2.22
180.404	30.89
180.624	6.31
180.844	-42.84
181.064	-100.18
181.283	6.31
181.503	49.32
181.723	34.99
181.943	-20.31
182.163	100.52
182.383	8.36
182.602	108.71
182.822	67.75
183.042	65.71
183.262	10.41
183.482	-18.26
183.701	55.47
183.921	6.31
184.141	-32.6
184.361	59.56
184.58	0.17
184.8	57.51
185.02	51.37
185.239	67.75
185.459	26.79
185.679	67.75
185.898	-77.65
186.118	67.75
186.338	-10.07
186.557	133.29
186.777	-10.07
186.997	47.27
187.216	30.89
187.436	114.86
187.655	121
187.875	145.58
188.095	43.18
188.314	86.19
188.534	-20.31
188.753	80.04
188.973	139.43
189.192	22.7
189.412	18.6
189.631	57.51
189.851	20.65
190.07	45.23
190.29	-5.97
190.509	-38.74
190.729	14.51
190.948	51.37
191.168	112.81
191.387	73.9
191.607	51.37
191.826	80.04
192.045	-34.64
192.265	55.47
192.484	55.47
192.704	16.55
192.923	49.32
193.142	96.43
193.362	63.66
193.581	121
193.8	90.28
194.02	96.43
194.239	6.31
194.458	10.41
194.678	69.8
194.897	32.94
195.116	53.42
195.335	43.18
195.555	39.08
195.774	26.79
195.993	92.33
196.212	30.89
196.432	39.08
196.651	-12.12
196.87	53.42
197.089	143.53
197.308	143.53
197.528	18.6
197.747	30.89
197.966	57.51
198.185	153.77
198.404	71.85
198.623	125.1
198.842	63.66
199.062	94.38
199.281	100.52
199.5	59.56
199.719	39.08
199.938	65.71
200.157	65.71
200.376	88.23
200.595	80.04
200.814	67.75
201.033	82.09
201.252	-1.88
201.471	86.19
201.69	24.75
201.909	57.51
202.128	82.09
202.347	137.38
202.566	-5.97
202.785	-1.88
203.004	-36.69
203.223	114.86
203.442	43.18
203.661	55.47
203.879	16.55
204.098	127.14
204.317	-26.45
204.536	61.61
204.755	30.89
204.974	137.38
205.193	6.31
205.411	170.15
205.63	59.56
205.849	8.36
206.068	53.42
206.287	2.22
206.505	116.9
206.724	24.75
206.943	63.66
207.162	39.08
207.381	16.55
207.599	63.66
207.818	63.66
208.037	106.67
208.255	-10.07
208.474	73.9
208.693	49.32
208.911	-40.79
209.13	39.08
209.349	112.81
209.567	30.89
209.786	100.52
210.005	24.75
210.223	8.36
210.442	22.7
210.661	34.99
210.879	18.6
211.098	20.65
211.316	-1.88
211.535	112.81
211.753	-10.07
211.972	47.27
212.191	59.56
212.409	20.65
212.628	90.28
212.846	71.85
213.065	26.79
213.283	182.44
213.502	16.55
213.72	16.55
213.938	-1.88
214.157	104.62
214.375	47.27
214.594	2.22
214.812	57.51
215.031	51.37
215.249	41.13
215.467	49.32
215.686	26.79
215.904	82.09
216.122	41.13
216.341	63.66
216.559	47.27
216.778	24.75
216.996	12.46
217.214	59.56
217.432	127.14
217.651	39.08
217.869	18.6
218.087	-32.6
218.306	47.27
218.524	164.01
218.742	-5.97
218.96	88.23
219.179	-12.12
219.397	22.7
219.615	121
219.833	45.23
220.051	57.51
220.27	57.51
220.488	112.81
220.706	61.61
220.924	34.99
221.142	96.43
221.36	16.55
221.578	112.81
221.796	16.55
222.015	39.08
222.233	16.55
222.451	65.71
222.669	-1.88
222.887	123.05
223.105	55.47
223.323	80.04
223.541	-8.02
223.759	55.47
223.977	22.7
224.195	112.81
224.413	37.03
224.631	98.47
224.849	20.65
225.067	106.67
225.285	34.99
225.503	63.66
225.721	12.46
225.939	65.71
226.157	73.9
226.375	121
226.592	96.43
226.81	65.71
227.028	28.84
227.246	104.62
227.464	59.56
227.682	47.27
227.9	37.03
228.117	63.66
228.335	34.99
228.553	47.27
228.771	43.18
228.989	16.55
229.206	30.89
229.424	57.51
229.642	24.75
229.86	26.79
230.077	88.23
230.295	16.55
230.513	88.23
230.731	8.36
230.948	45.23
231.166	47.27
231.384	14.51
231.601	43.18
231.819	106.67
232.037	-10.07
232.254	47.27
232.472	22.7
232.689	55.47
232.907	110.76
233.125	34.99
233.342	63.66
233.56	22.7
233.777	80.04
233.995	-26.45
234.213	75.95
234.43	61.61
234.648	10.41
234.865	47.27
235.083	-67.41
235.3	-16.21
235.518	63.66
235.735	47.27
235.953	129.19
236.17	8.36
236.388	-57.17
236.605	18.6
236.822	45.23
237.04	47.27
237.257	57.51
237.475	-26.45
237.692	6.31
237.909	22.7
238.127	71.85
238.344	88.23
238.562	73.9
238.779	59.56
238.996	39.08
239.214	32.94
239.431	37.03
239.648	106.67
239.865	-18.26
240.083	18.6
240.3	16.55
240.517	14.51
240.735	28.84
240.952	90.28
241.169	104.62
241.386	96.43
241.603	-5.97
241.821	12.46
242.038	73.9
242.255	82.09
242.472	0.17
242.689	0.17
242.907	30.89
243.124	59.56
243.341	-26.45
243.558	37.03
243.775	10.41
243.992	34.99
244.209	121
244.426	182.44
244.643	71.85
244.86	80.04
245.078	100.52
245.295	41.13
245.512	125.1
245.729	24.75
245.946	69.8
246.163	104.62
246.38	47.27
246.597	43.18
246.814	73.9
247.031	108.71
247.248	88.23
247.464	47.27
247.681	6.31
247.898	34.99
248.115	51.37
248.332	6.31
248.549	47.27
248.766	73.9
248.983	88.23
249.2	84.14
249.417	116.9
249.633	51.37
249.85	43.18
250.067	-5.97
250.284	61.61
250.501	96.43
250.717	106.67
250.934	14.51
251.151	71.85
251.368	30.89
251.585	-5.97
251.801	26.79
252.018	57.51
252.235	61.61
252.451	47.27
252.668	14.51
252.885	84.14
253.102	53.42
253.318	0.17
253.535	32.94
253.752	30.89
253.968	-8.02
254.185	16.55
254.401	104.62
254.618	59.56
254.835	-30.55
255.051	47.27
255.268	90.28
255.484	73.9
255.701	41.13
255.917	49.32
256.134	-46.93
256.351	22.7
256.567	-20.31
256.784	26.79
257	-36.69
257.217	77.99
257.433	65.71
257.65	96.43
257.866	106.67
258.082	67.75
258.299	-14.17
258.515	22.7
258.732	-51.03
258.948	-10.07
259.165	80.04
259.381	-42.84
259.597	-14.17
259.814	41.13
260.03	4.27
260.246	30.89
260.463	84.14
260.679	57.51
260.895	22.7
261.112	96.43
261.328	14.51
261.544	-26.45
261.761	63.66
261.977	6.31
262.193	18.6
262.409	90.28
262.626	80.04
262.842	49.32
263.058	121
263.274	59.56
263.49	65.71
263.707	63.66
263.923	108.71
264.139	22.7
264.355	8.36
264.571	16.55
264.787	84.14
265.004	80.04
265.22	39.08
265.436	30.89
265.652	37.03
265.868	-1.88
266.084	26.79
266.3	100.52
266.516	0.17
266.732	6.31
266.948	24.75
267.164	65.71
267.38	59.56
267.596	51.37
267.812	178.34
268.028	-16.21
268.244	-24.4
268.46	84.14
268.676	32.94
268.892	34.99
269.108	14.51
269.324	59.56
269.54	18.6
269.756	80.04
269.972	6.31
270.188	2.22
270.403	-16.21
270.619	2.22
270.835	-46.93
271.051	71.85
271.267	45.23
271.483	-5.97
271.698	34.99
271.914	41.13
272.13	24.75
272.346	84.14
272.562	65.71
272.777	104.62
272.993	125.1
273.209	96.43
273.425	49.32
273.64	-5.97
273.856	16.55
274.072	-34.64
274.287	39.08
274.503	6.31
274.719	55.47
274.934	41.13
275.15	-12.12
275.366	65.71
275.581	10.41
275.797	114.86
276.012	2.22
276.228	0.17
276.444	-8.02
276.659	82.09
276.875	-46.93
277.09	80.04
277.306	61.61
277.521	63.66
277.737	133.29
277.952	67.75
278.168	41.13
278.383	57.51
278.599	32.94
278.814	65.71
279.03	143.53
279.245	39.08
279.461	47.27
279.676	108.71
279.892	26.79
280.107	55.47
280.322	2.22
280.538	90.28
280.753	10.41
280.969	43.18
281.184	49.32
281.399	65.71
281.615	34.99
281.83	30.89
282.045	-8.02
282.26	-34.64
282.476	53.42
282.691	108.71
282.906	10.41
283.122	73.9
283.337	-51.03
283.552	96.43
283.767	-1.88
283.983	57.51
284.198	-8.02
284.413	88.23
284.628	26.79
284.843	63.66
285.058	22.7
285.274	61.61
285.489	55.47
285.704	55.47
285.919	59.56
286.134	63.66
286.349	73.9
286.564	-32.6
286.779	37.03
286.995	39.08
287.21	18.6
287.425	129.19
287.64	80.04
287.855	92.33
288.07	53.42
288.285	170.15
288.5	71.85
288.715	73.9
288.93	26.79
289.145	41.13
289.36	82.09
289.575	6.31
289.79	63.66
290.004	-38.74
290.219	80.04
290.434	55.47
290.649	22.7
290.864	80.04
291.079	10.41
291.294	43.18
291.509	63.66
291.724	39.08
291.938	22.7
292.153	129.19
292.368	-10.07
292.583	34.99
292.798	32.94
293.012	82.09
293.227	-1.88
293.442	8.36
293.657	102.57
293.871	51.37
294.086	43.18
294.301	153.77
294.516	153.77
294.73	-1.88
294.945	-34.64
295.16	-10.07
295.374	37.03
295.589	22.7
295.804	-28.5
296.018	80.04
296.233	47.27
296.447	73.9
296.662	12.46
296.877	108.71
297.091	106.67
297.306	-14.17
297.52	4.27
297.735	84.14
297.949	6.31
298.164	71.85
298.378	55.47
298.593	10.41
298.807	14.51
299.022	82.09
299.236	82.09
299.451	-16.21
299.665	-20.31
299.88	39.08
300.094	80.04
300.309	133.29
300.523	47.27
300.737	37.03
300.952	80.04
301.166	84.14
301.381	-63.32
301.595	96.43
301.809	69.8
302.024	41.13
302.238	80.04
302.452	47.27
302.667	39.08
302.881	129.19
303.095	69.8
303.309	63.66
303.524	67.75
303.738	69.8
303.952	49.32
304.166	77.99
304.381	-18.26
304.595	82.09
304.809	57.51
305.023	61.61
305.237	39.08
305.452	71.85
305.666	86.19
305.88	159.91
306.094	45.23
306.308	82.09
306.522	34.99
306.736	0.17
306.95	125.1
307.164	-38.74
307.379	65.71
307.593	180.39
307.807	106.67
308.021	-26.45
308.235	43.18
308.449	-8.02
308.663	51.37
308.877	133.29
309.091	39.08
309.305	8.36
309.519	4.27
309.733	63.66
309.947	-5.97
310.161	108.71
310.374	135.34
310.588	71.85
310.802	39.08
311.016	26.79
311.23	53.42
311.444	49.32
311.658	41.13
311.872	84.14
312.085	2.22
312.299	137.38
312.513	90.28
312.727	127.14
312.941	-26.45
313.154	131.24
313.368	30.89
313.582	67.75
313.796	37.03
314.009	65.71
314.223	32.94
314.437	112.81
314.651	96.43
314.864	57.51
315.078	16.55
315.292	39.08
315.505	30.89
315.719	47.27
315.933	-1.88
316.146	2.22
316.36	26.79
316.573	49.32
316.787	59.56
317.001	96.43
317.214	-51.03
317.428	104.62
317.641	16.55
317.855	102.57
318.068	-32.6
318.282	100.52
318.495	100.52
318.709	4.27
318.922	65.71
319.136	188.58
319.349	92.33
319.563	6.31
319.776	53.42
319.99	55.47
320.203	2.22
320.417	4.27
320.63	-5.97
320.843	47.27
321.057	80.04
321.27	108.71
321.483	67.75
321.697	65.71
321.91	63.66
322.124	55.47
322.337	71.85
322.55	24.75
322.763	106.67
322.977	18.6
323.19	32.94
323.403	63.66
323.617	22.7
323.83	2.22
324.043	63.66
324.256	55.47
324.469	-14.17
324.683	14.51
324.896	51.37
325.109	30.89
325.322	22.7
325.535	59.56
325.748	45.23
325.962	65.71
326.175	55.47
326.388	186.54
326.601	67.75
326.814	63.66
327.027	82.09
327.24	161.96
327.453	-30.55
327.666	170.15
327.879	92.33
328.092	55.47
328.305	73.9
328.518	8.36
328.731	41.13
328.944	32.94
329.157	73.9
329.37	80.04
329.583	55.47
329.796	59.56
330.009	41.13
330.222	59.56
330.435	88.23
330.648	82.09
330.861	-16.21
331.073	14.51
331.286	96.43
331.499	90.28
331.712	28.84
331.925	55.47
332.138	121
332.35	125.1
332.563	32.94
332.776	43.18
332.989	32.94
333.202	39.08
333.414	96.43
333.627	-5.97
333.84	73.9
334.053	57.51
334.265	123.05
334.478	22.7
334.691	37.03
334.903	98.47
335.116	88.23
335.329	94.38
335.541	-1.88
335.754	90.28
335.966	37.03
336.179	86.19
336.392	55.47
336.604	71.85
336.817	63.66
337.029	-16.21
337.242	32.94
337.454	92.33
337.667	43.18
337.88	39.08
338.092	26.79
338.305	129.19
338.517	84.14
338.729	100.52
338.942	63.66
339.154	6.31
339.367	2.22
339.579	-18.26
339.792	-26.45
340.004	84.14
340.217	88.23
340.429	55.47
340.641	34.99
340.854	-5.97
341.066	118.95
341.278	80.04
341.491	166.06
341.703	22.7
341.915	-38.74
342.128	106.67
342.34	69.8
342.552	75.95
342.764	14.51
342.977	118.95
343.189	98.47
343.401	47.27
343.613	-22.36
343.826	6.31
344.038	-34.64
344.25	71.85
344.462	71.85
344.674	-5.97
344.886	75.95
345.099	96.43
345.311	51.37
345.523	82.09
345.735	32.94
345.947	125.1
346.159	49.32
346.371	28.84
346.583	59.56
346.795	112.81
347.007	98.47
347.219	112.81
347.431	82.09
347.643	14.51
347.855	-8.02
348.067	92.33
348.279	4.27
348.491	41.13
348.703	75.95
348.915	96.43
349.127	22.7
349.339	90.28
349.551	75.95
349.763	51.37
349.975	63.66
350.187	69.8
350.399	114.86
350.61	104.62
350.822	37.03
351.034	90.28
351.246	73.9
351.458	57.51
351.669	82.09
351.881	63.66
352.093	112.81
352.305	57.51
352.517	84.14
352.728	96.43
352.94	153.77
353.152	88.23
353.363	59.56
353.575	112.81
353.787	88.23
353.999	71.85
354.21	98.47
354.422	82.09
354.633	32.94
354.845	71.85
355.057	59.56
355.268	149.67
355.48	71.85
355.692	59.56
355.903	59.56
356.115	75.95
356.326	57.51
356.538	88.23
356.749	84.14
356.961	147.62
357.172	30.89
357.384	4.27
357.595	80.04
357.807	65.71
358.018	69.8
358.23	71.85
358.441	84.14
358.653	104.62
358.864	121
359.075	14.51
359.287	92.33
359.498	131.24
359.709	43.18
359.921	88.23
360.132	45.23
360.344	71.85
360.555	22.7
360.766	116.9
360.977	8.36
361.189	90.28
361.4	71.85
361.611	45.23
361.823	90.28
362.034	61.61
362.245	55.47
362.456	43.18
362.667	63.66
362.879	4.27
363.09	108.71
363.301	94.38
363.512	55.47
363.723	37.03
363.935	49.32
364.146	137.38
364.357	55.47
364.568	16.55
364.779	22.7
364.99	73.9
365.201	84.14
365.412	43.18
365.623	20.65
365.834	39.08
366.045	18.6
366.256	80.04
366.467	32.94
366.678	84.14
366.889	88.23
367.1	92.33
367.311	39.08
367.522	57.51
367.733	49.32
367.944	104.62
368.155	41.13
368.366	153.77
368.577	92.33
368.788	55.47
368.999	8.36
369.209	104.62
369.42	112.81
369.631	96.43
369.842	63.66
370.053	43.18
370.264	112.81
370.474	22.7
370.685	41.13
370.896	121
371.107	114.86
371.317	41.13
371.528	8.36
371.739	141.48
371.95	190.63
372.16	82.09
372.371	-8.02
372.582	41.13
372.792	59.56
373.003	55.47
373.214	65.71
373.424	88.23
373.635	34.99
373.846	145.58
374.056	-16.21
374.267	82.09
374.477	88.23
374.688	22.7
374.898	53.42
375.109	-51.03
375.319	88.23
375.53	125.1
375.74	55.47
375.951	-1.88
376.161	34.99
376.372	53.42
376.582	84.14
376.793	96.43
377.003	47.27
377.214	98.47
377.424	22.7
377.635	106.67
377.845	-18.26
378.055	92.33
378.266	41.13
378.476	39.08
378.686	26.79
378.897	39.08
379.107	102.57
379.317	86.19
379.528	71.85
379.738	73.9
379.948	90.28
380.158	77.99
380.369	57.51
380.579	32.94
380.789	88.23
380.999	16.55
381.21	77.99
381.42	121
381.63	47.27
381.84	104.62
382.05	-5.97
382.261	75.95
382.471	96.43
382.681	96.43
382.891	112.81
383.101	39.08
383.311	59.56
383.521	26.79
383.731	116.9
383.941	73.9
384.151	149.67
384.361	86.19
384.571	37.03
384.781	51.37
384.991	121
385.201	129.19
385.411	86.19
385.621	125.1
385.831	139.43
386.041	80.04
386.251	116.9
386.461	112.81
386.671	49.32
386.881	63.66
387.091	139.43
387.301	116.9
387.511	53.42
387.72	90.28
387.93	133.29
388.14	18.6
388.35	108.71
388.56	59.56
388.769	129.19
388.979	80.04
389.189	92.33
389.399	145.58
389.609	32.94
389.818	63.66
390.028	110.76
390.238	80.04
390.447	65.71
390.657	129.19
390.867	84.14
391.076	106.67
391.286	88.23
391.496	80.04
391.705	41.13
391.915	131.24
392.125	121
392.334	139.43
392.544	153.77
392.753	92.33
392.963	88.23
393.172	121
393.382	47.27
393.591	186.54
393.801	69.8
394.01	131.24
394.22	114.86
394.429	157.86
394.639	39.08
394.848	153.77
395.058	88.23
395.267	61.61
395.477	129.19
395.686	166.06
395.895	194.73
396.105	178.34
396.314	153.77
396.524	141.48
396.733	145.58
396.942	155.82
397.152	104.62
397.361	73.9
397.57	104.62
397.78	63.66
397.989	172.2
398.198	219.3
398.407	139.43
398.617	73.9
398.826	41.13
399.035	178.34
399.244	137.38
399.453	75.95
399.663	188.58
399.872	161.96
400.081	96.43
400.29	125.1
400.499	125.1
400.708	145.58
400.917	170.15
401.127	166.06
401.336	129.19
401.545	198.82
401.754	170.15
401.963	80.04
402.172	96.43
402.381	157.86
402.59	155.82
402.799	65.71
403.008	131.24
403.217	180.39
403.426	229.54
403.635	129.19
403.844	139.43
404.053	170.15
404.262	178.34
404.471	221.35
404.68	164.01
404.888	141.48
405.097	286.89
405.306	145.58
405.515	192.68
405.724	194.73
405.933	247.97
406.142	301.22
406.35	243.88
406.559	178.34
406.768	202.92
406.977	364.71
407.185	256.17
407.394	284.84
407.603	149.67
407.812	268.45
408.02	288.93
408.229	262.31
408.438	293.03
408.646	295.08
408.855	317.61
409.064	299.17
409.272	399.52
409.481	401.57
409.69	391.33
409.898	374.95
410.107	385.19
410.315	407.72
410.524	395.43
410.733	481.44
410.941	450.72
411.15	422.05
411.358	557.22
411.567	532.64
411.775	567.46
411.984	596.13
412.192	518.31
412.401	616.61
412.609	596.13
412.818	604.32
413.026	727.2
413.234	645.28
413.443	714.91
413.651	735.39
413.86	759.97
414.068	833.69
414.276	825.5
414.485	727.2
414.693	858.27
414.901	958.62
415.11	893.09
415.318	927.9
415.526	991.39
415.734	989.34
415.943	1056.92
416.151	1153.18
416.359	1073.31
416.567	1151.13
416.776	1228.95
416.984	1278.1
417.192	1269.91
417.4	1194.14
417.608	1220.76
417.817	1351.83
418.025	1411.22
418.233	1530
418.441	1446.04
418.649	1568.91
418.857	1609.87
419.065	1599.63
419.273	1734.8
419.481	1702.03
419.689	1829.01
419.897	1853.58
420.105	1902.73
420.313	1998.99
420.521	2021.52
420.729	2132.11
420.937	2146.44
421.145	2244.74
421.353	2308.23
421.561	2529.41
421.769	2521.22
421.977	2646.15
422.185	2719.87
422.393	2807.94
422.601	2990.21
422.809	2914.43
423.017	2916.48
423.224	3063.93
423.432	3342.46
423.64	3299.45
423.848	3553.4
424.056	3438.71
424.263	3704.95
424.471	3627.12
424.679	3870.83
424.887	3907.7
425.094	3905.65
425.302	4018.29
425.51	4259.95
425.718	4405.35
425.925	4513.89
426.133	4784.23
426.341	4886.62
426.548	5040.22
426.756	5036.13
426.964	5070.94
427.171	5308.51
427.379	5711.96
427.586	5728.34
427.794	5699.67
428.001	6096.97
428.209	6271.05
428.417	6238.28
428.624	6606.92
428.832	6635.59
429.039	6535.24
429.247	6635.59
429.454	7288.89
429.662	7608.37
429.869	7366.71
430.076	7712.82
430.284	7557.18
430.491	7940.15
430.699	8329.26
430.906	8491.05
431.114	8390.7
431.321	8773.67
431.528	8964.13
431.736	9492.51
431.943	9738.26
432.15	9639.96
432.358	9709.59
432.565	10223.63
432.772	10057.75
432.979	10819.59
433.187	10657.8
433.394	10846.21
433.601	11749.37
433.808	11608.06
434.016	11624.44
434.223	12204.02
434.43	12728.3
434.637	12558.32
434.844	13426.65
435.052	13678.55
435.259	13551.58
435.466	13565.92
435.673	13596.64
435.88	14393.3
436.087	14952.39
436.294	14960.58
436.501	14688.2
436.708	15013.83
436.915	15527.87
437.122	16334.77
437.329	16304.05
437.537	16652.2
437.743	16828.33
437.95	16762.79
438.157	17672.09
438.364	18044.82
438.571	18536.34
438.778	18476.94
438.985	19937.15
439.192	19052.42
439.399	19832.7
439.606	19459.97
439.813	20688.75
440.02	21817.18
440.227	21198.7
440.433	21165.93
440.64	21856.09
440.847	21483.36
441.054	22067.03
441.261	23883.58
441.467	22904.65
441.674	23938.88
441.881	24700.72
442.088	24450.87
442.294	24190.78
442.501	24792.88
442.708	25577.25
442.914	26332.95
443.121	27453.19
443.328	26523.41
443.534	28536.57
443.741	27649.8
443.948	27262.73
444.154	29583.08
444.361	29380.33
444.568	29073.14
444.774	29445.87
444.981	29791.97
445.187	30336.73
445.394	31835.84
445.6	31848.13
445.807	34246.3
446.013	32976.56
446.22	33410.73
446.426	34832.02
446.633	35413.65
446.839	36324.99
447.046	34823.83
447.252	37191.28
447.459	36812.41
447.665	36828.79
447.871	38168.16
448.078	39677.52
448.284	38030.95
448.491	39183.96
448.697	40271.43
448.903	41428.53
449.11	41344.56
449.316	40920.63
449.522	41397.81
449.728	42458.66
449.935	42573.35
450.141	42962.46
450.347	43722.26
450.553	42434.08
450.76	43099.67
450.966	44213.77
451.172	43886.09
451.378	45141.5
451.584	43855.37
451.791	45133.31
451.997	44965.37
452.203	45901.29
452.409	45628.91
452.615	45420.02
452.821	43779.6
453.027	43296.28
453.233	45528.56
453.44	43900.43
453.646	44346.89
453.852	44336.65
454.058	45288.95
454.264	43662.86
454.47	44709.38
454.676	43531.79
454.882	45465.08
455.088	41414.19
455.294	41895.47
455.5	42952.22
455.705	42866.2
455.911	41264.69
456.117	40738.37
456.323	40734.27
456.529	38094.44
456.735	39646.8
456.941	38727.26
457.147	38190.69
457.352	37320.31
457.558	36460.16
457.764	36497.02
457.97	35923.59
458.176	34913.94
458.381	35266.19
458.587	33490.6
458.793	33275.57
458.999	31901.38
459.204	33746.6
459.41	33148.59
459.616	30879.44
459.821	30807.76
460.027	31018.71
460.233	30308.06
460.438	28727.03
460.644	29017.84
460.85	27647.75
461.055	26726.16
461.261	27240.2
461.466	24911.66
461.672	24371
461.878	26009.37
462.083	24325.94
462.289	23928.64
462.494	23441.22
462.7	22683.47
462.905	21978.97
463.111	22597.46
463.316	22939.47
463.522	22433.62
463.727	22427.48
463.932	22093.66
464.138	21774.17
464.343	22161.24
464.549	21200.74
464.754	22202.2
464.959	21831.52
465.165	21714.78
465.37	20539.25
465.575	20152.18
465.781	20813.68
465.986	20934.51
466.191	20047.74
466.397	19746.69
466.602	18610.06
466.807	19543.94
467.012	19777.4
467.218	19513.22
467.423	19152.77
467.628	19441.54
467.833	20088.7
468.038	19156.87
468.244	19015.56
468.449	19562.37
468.654	18827.15
468.859	18595.73
469.064	18636.69
469.269	17991.58
469.474	18157.46
469.679	18388.88
469.885	17825.69
470.09	18079.64
470.295	17848.22
470.5	17561.5
470.705	17553.31
470.91	17305.51
471.115	16971.69
471.32	17452.96
471.525	17192.87
471.73	16783.27
471.935	16988.07
472.139	16218.04
472.344	16355.25
472.549	16349.11
472.754	16275.38
472.959	15898.55
473.164	15419.33
473.369	15247.3
473.574	15740.86
473.778	15568.83
473.983	15357.89
474.188	15296.45
474.393	14634.96
474.598	14649.29
474.802	14710.73
475.007	14458.83
475.212	14454.73
475.417	14077.91
475.621	14096.34
475.826	13780.95
476.031	13838.3
476.235	13330.4
476.44	13918.17
476.645	13703.13
476.849	13602.78
477.054	13383.65
477.259	13121.51
477.463	13285.34
477.668	12826.6
477.872	12849.13
478.077	12785.64
478.282	12396.53
478.486	12259.31
478.691	12126.19
478.895	12236.78
479.1	12122.1
479.304	12132.34
479.509	11732.98
479.713	11945.97
479.918	11683.83
480.122	11485.18
480.326	11599.87
480.531	11802.61
480.735	11454.46
480.94	11532.28
481.144	11810.81
481.348	11341.82
481.553	11601.91
481.757	11319.29
481.961	11274.24
482.166	11352.06
482.37	11407.36
482.574	11147.26
482.778	11163.65
482.983	11554.81
483.187	11427.84
483.391	11286.53
483.595	10893.32
483.8	11065.35
484.004	10991.62
484.208	11321.34
484.412	11366.4
484.616	11182.08
484.821	11184.13
485.025	10866.69
485.229	11126.78
485.433	10932.23
485.637	11202.56
485.841	10971.14
486.045	11130.88
486.249	11075.59
486.453	10866.69
486.657	11141.12
486.861	11196.42
487.065	10997.76
487.269	11423.74
487.473	10760.2
487.677	11130.88
487.881	11210.75
488.085	10909.7
488.289	11116.55
488.493	10983.43
488.697	11202.56
488.901	11212.8
489.105	10876.93
489.309	11079.68
489.512	11077.63
489.716	11272.19
489.92	10960.9
490.124	11171.84
490.328	11585.53
490.531	11298.81
490.735	11419.64
490.939	11556.86
491.143	11220.99
491.346	11364.35
491.55	11487.23
491.754	11608.06
491.958	11233.28
492.161	11417.6
492.365	11401.21
492.569	11565.05
492.772	11407.36
492.976	11683.83
493.18	11737.08
493.383	11898.87
493.587	11888.63
493.79	11954.16
493.994	11794.42
494.197	11894.77
494.401	12171.25
494.605	12165.11
494.808	12113.91
495.012	12091.38
495.215	12294.13
495.419	12517.36
495.622	12384.24
495.825	12431.34
496.029	12384.24
496.232	12812.26
496.436	12654.57
496.639	13228
496.843	12892.13
497.046	13303.78
497.249	13144.03
497.453	13416.41
497.656	13461.47
497.859	13387.74
498.063	13656.03
498.266	13766.62
498.469	13791.19
498.673	13899.73
498.876	14260.18
499.079	14350.29
499.282	14333.9
499.485	14800.84
499.689	14641.1
499.892	15007.69
500.095	14864.33
500.298	15159.24
500.501	15208.39
500.705	15603.64
500.908	15718.33
501.111	15646.65
501.314	16035.77
501.517	15966.14
501.72	16453.55
501.923	16281.52
502.126	16594.86
502.329	16689.07
502.532	16869.29
502.735	16844.71
502.938	17127.33
503.141	17315.75
503.344	17715.1
503.547	17446.82
503.75	17989.53
503.953	18212.76
504.156	18417.55
504.359	18587.54
504.562	18321.3
504.765	19081.1
504.968	18929.55
505.17	19462.02
505.373	19249.03
505.576	19650.43
505.779	19912.57
505.982	19994.49
506.185	20176.76
506.387	20451.19
506.59	20518.77
506.793	20954.99
506.996	21018.47
507.198	21340.01
507.401	21159.78
507.604	21585.76
507.807	21688.16
508.009	22032.22
508.212	22079.32
508.415	22413.14
508.617	22513.49
508.82	22828.88
509.022	22892.37
509.225	23203.66
509.428	23355.21
509.63	23596.87
509.833	23805.76
510.035	24207.16
510.238	24422.2
510.44	24600.37
510.643	24966.96
510.845	24983.34
511.048	25044.78
511.25	25730.85
511.453	25487.14
511.655	26404.63
511.858	26076.96
512.06	26527.51
512.262	27066.13
512.465	26504.98
512.667	26875.66
512.87	27576.07
513.072	27219.72
513.274	27987.71
513.477	28225.28
513.679	28606.2
513.881	28514.04
514.084	29085.42
514.286	28733.17
514.488	29083.37
514.69	29871.84
514.893	29814.5
515.095	29970.15
515.297	30396.12
515.499	30308.06
515.701	30414.55
515.904	31061.71
516.106	31125.2
516.308	31276.75
516.51	31839.94
516.712	31784.65
516.914	32163.52
517.116	32863.93
517.318	32579.26
517.52	32734.9
517.722	32904.88
517.925	33707.69
518.127	34033.32
518.329	33820.33
518.531	33896.1
518.733	34559.64
518.935	34625.18
519.136	34528.92
519.338	34961.05
519.54	35366.54
519.742	35440.27
519.944	35511.95
520.146	35946.12
520.348	36316.8
520.55	36288.13
520.752	36685.43
520.954	37088.88
521.155	36290.18
521.357	37361.26
521.559	37629.55
521.761	38028.9
521.963	37662.32
522.164	38420.06
522.366	38219.36
522.568	38497.89
522.77	38663.77
522.971	39446.1
523.173	38811.23
523.375	39085.65
523.576	39138.9
523.778	38960.73
523.98	39691.85
524.181	39341.65
524.383	39970.38
524.584	40091.21
524.786	40418.88
524.988	39835.21
525.189	40541.76
525.391	40638.01
525.592	40705.6
525.794	40715.84
525.995	40547.9
526.197	40715.84
526.398	40496.7
526.6	40961.59
526.801	41264.69
527.003	41111.1
527.204	40922.68
527.406	41682.48
527.607	41352.76
527.808	41815.6
528.01	40881.72
528.211	41573.94
528.412	42157.61
528.614	41999.91
528.815	41719.34
529.016	42030.63
529.218	41737.77
529.419	42028.59
529.62	41852.46
529.822	41829.93
530.023	41776.69
530.224	41934.38
530.425	42040.87
530.626	41666.09
530.828	41530.93
531.029	42294.82
531.23	41752.11
531.431	41784.88
531.632	41938.47
531.833	41942.57
532.035	42047.02
532.236	41881.13
532.437	41948.71
532.638	41580.08
532.839	42186.28
533.04	41788.97
533.241	41444.91
533.442	42157.61
533.643	41602.61
533.844	41600.56
534.045	41928.23
534.246	41215.54
534.447	41963.05
534.648	41272.88
534.849	41905.71
535.05	41594.42
535.251	41877.04
535.451	41477.68
535.652	41664.05
535.853	41209.4
536.054	41907.76
536.255	41991.72
536.456	41311.8
536.657	41856.56
536.857	40953.4
537.058	41459.25
537.259	41530.93
537.46	41369.14
537.66	41068.09
537.861	40957.5
538.062	41119.29
538.263	41070.14
538.463	41172.53
538.664	41223.73
538.865	41272.88
539.065	41381.43
539.266	40666.69
539.466	41317.94
539.667	41006.65
539.868	41303.6
540.068	41010.74
540.269	40496.7
540.469	41057.85
540.67	40580.67
540.87	40406.59
541.071	41201.21
541.271	41135.67
541.472	40748.6
541.672	40447.55
541.873	40150.6
542.073	40097.35
542.274	40848.96
542.474	40689.21
542.675	40373.83
542.875	40980.03
543.075	40930.87
543.276	39962.18
543.476	41082.42
543.676	40552
543.877	40754.75
544.077	40918.59
544.277	40558.14
544.478	40769.08
544.678	40822.33
544.878	40767.04
545.078	40506.94
545.279	40275.52
545.479	40109.64
545.679	40320.58
545.879	40093.25
546.079	40392.26
546.28	40095.3
546.48	40007.24
546.68	40302.15
546.88	40527.42
547.08	40398.4
547.28	40160.84
547.48	39814.73
547.68	40531.52
547.88	40062.54
548.081	40572.48
548.281	40554.05
548.481	40048.2
548.681	41127.48
548.881	40365.63
549.081	40574.53
549.28	40449.6
549.48	40388.16
549.68	40320.58
549.88	40836.67
550.08	40455.75
550.28	40613.44
550.48	40603.2
550.68	40490.56
550.88	40152.65
551.08	40101.45
551.279	40912.44
551.479	40265.28
551.679	40826.43
551.879	40588.86
552.079	40787.52
552.278	40519.23
552.478	40607.3
552.678	40357.44
552.878	41094.71
553.077	40631.87
553.277	40283.72
553.477	40969.79
553.676	40128.07
553.876	40908.35
554.076	40119.88
554.275	40601.15
554.475	40062.54
554.674	40459.84
554.874	40668.73
555.074	40619.58
555.273	40429.12
555.473	40506.94
555.672	40611.39
555.872	40437.31
556.071	40578.62
556.271	41375.28
556.47	40478.27
556.67	40437.31
556.869	40726.08
557.068	41143.86
557.268	40734.27
557.467	40998.46
557.667	40947.26
557.866	40898.11
558.065	40674.88
558.265	40750.65
558.464	40891.96
558.663	41379.38
558.863	40298.05
559.062	40908.35
559.261	40365.63
559.461	41182.77
559.66	40277.57
559.859	40531.52
560.058	40416.83
560.258	40783.42
560.457	40431.17
560.656	40939.07
560.855	40318.53
561.054	41059.9
561.253	40300.1
561.453	40676.93
561.652	40816.19
561.851	40900.15
562.05	40472.13
562.249	40384.07
562.448	40764.99
562.647	40744.51
562.846	40631.87
563.045	40742.46
563.244	39980.62
563.443	41080.38
563.642	40046.15
563.841	40511.04
564.04	40554.05
564.239	40500.8
564.438	40042.06
564.637	40547.9
564.836	40279.62
565.035	39978.57
565.234	40021.58
565.432	40201.8
565.631	40156.74
565.83	40429.12
566.029	39829.07
566.228	39792.2
566.427	39997
566.625	39880.27
566.824	39630.41
567.023	40044.1
567.222	39192.15
567.42	40441.41
567.619	39616.08
567.818	39523.92
568.016	39413.33
568.215	39439.95
568.414	39312.98
568.612	39910.99
568.811	39222.87
569.01	38872.67
569.208	38815.32
569.407	39183.96
569.605	38704.73
569.804	39081.56
570.002	38649.44
570.201	39083.61
570.4	38700.64
570.598	38768.22
570.797	38344.29
570.995	38721.12
571.193	38104.68
571.392	38471.26
571.59	37924.46
571.789	38372.96
571.987	38010.47
572.186	37920.36
572.384	37703.28
572.582	37940.84
572.781	37983.85
572.979	37475.95
573.177	37641.84
573.376	37795.43
573.574	37672.56
573.772	37365.36
573.971	37518.96
574.169	37105.27
574.367	37199.48
574.565	37547.63
574.763	36982.39
574.962	37150.32
575.16	36693.63
575.358	36712.06
575.556	36499.07
575.754	37019.25
575.952	36286.08
576.151	36759.16
576.349	35935.88
576.547	36435.58
576.745	36069
576.943	36505.21
577.141	36245.12
577.339	36339.33
577.537	35997.32
577.735	35743.37
577.933	35409.55
578.131	36069
578.329	35514
578.527	35550.86
578.725	35380.88
578.923	35444.37
579.121	35514
579.319	35067.54
579.516	35145.36
579.714	34848.41
579.912	34817.69
580.11	34723.48
580.308	34965.14
580.506	34698.91
580.704	34430.62
580.901	34758.3
581.099	34799.26
581.297	34483.87
581.495	34334.37
581.692	34410.14
581.89	34092.71
582.088	34524.83
582.285	33703.59
582.483	34088.61
582.681	34281.12
582.878	33914.53
583.076	33576.62
583.274	33846.95
583.471	33195.7
583.669	33310.38
583.866	33255.09
584.064	33912.49
584.262	33158.83
584.459	33339.05
584.657	33119.92
584.854	33275.57
585.052	32435.9
585.249	32831.16
585.447	32745.14
585.644	32532.15
585.841	32644.79
586.039	33044.15
586.236	32093.89
586.434	32474.81
586.631	32300.73
586.828	32204.48
587.026	32339.65
587.223	32167.62
587.42	32091.84
587.618	31956.68
587.815	32052.93
588.012	31837.89
588.21	31858.37
588.407	32548.54
588.604	31542.99
588.801	31344.33
588.999	31338.19
589.196	31450.83
589.393	31502.03
589.59	31293.13
589.787	31141.58
589.984	31215.31
590.182	30912.21
590.379	31540.94
590.576	30707.41
590.773	31063.76
590.97	30963.41
591.167	30949.07
591.364	30443.23
591.561	30791.38
591.758	30645.98
591.955	30484.19
592.152	30779.09
592.349	30451.42
592.546	30566.1
592.743	30580.44
592.94	29996.77
593.137	30318.3
593.334	30447.32
593.531	30099.17
593.727	30344.92
593.924	30475.99
594.121	30052.06
594.318	30068.45
594.515	29689.57
594.712	30222.05
594.908	29527.78
595.105	30303.96
595.302	29572.84
595.499	29851.36
595.696	29751.01
595.892	29642.47
596.089	29449.96
596.286	29566.7
596.482	29535.98
596.679	29249.26
596.876	29576.94
597.072	29083.37
597.269	29531.88
597.466	29083.37
597.662	29372.14
597.859	29087.47
598.055	29357.8
598.252	29077.23
598.448	29136.62
598.645	28915.44
598.841	28780.28
599.038	28980.98
599.234	29269.74
599.431	28749.56
599.627	28622.58
599.824	29114.09
600.02	28661.49
600.217	28894.96
600.413	28696.31
600.609	28772.08
600.806	28798.71
601.002	28620.53
601.198	28741.36
601.395	28763.89
601.591	28669.69
601.787	28819.19
601.984	28714.74
602.18	28770.04
602.376	28747.51
602.572	28493.56
602.769	28413.69
602.965	28581.62
603.161	28653.3
603.357	28309.24
603.553	28647.16
603.75	28747.51
603.946	28339.96
604.142	28563.19
604.338	28167.93
604.534	28108.54
604.73	28169.98
604.926	28540.66
605.122	28757.75
605.318	28327.67
605.514	28333.82
605.71	28157.69
605.906	28528.38
606.102	28528.38
606.298	28479.22
606.494	28651.25
606.69	28450.55
606.886	28382.97
607.082	28235.52
607.278	28538.62
607.474	28094.21
607.67	28200.7
607.866	28221.18
608.062	28583.67
608.257	27979.52
608.453	28284.67
608.649	29034.22
608.845	28296.95
609.041	28333.82
609.236	28258.04
609.432	28573.43
609.628	28450.55
609.824	27991.81
610.019	28090.11
610.215	28493.56
610.411	28591.86
610.606	28610.29
610.802	28430.07
610.998	28403.45
611.193	28641.01
611.389	28538.62
611.584	28552.95
611.78	28421.88
611.976	28727.03
612.171	28503.8
612.367	28589.81
612.562	28126.97
612.758	28489.46
612.953	28151.55
613.149	28374.78
613.344	28227.32
613.539	28571.38
613.735	28600.05
613.93	28602.1
614.126	28555
614.321	28448.5
614.517	28428.02
614.712	28286.72
614.907	28360.44
615.103	28655.35
615.298	28348.15
615.493	28757.75
615.688	27729.67
615.884	28667.64
616.079	28307.19
616.274	28473.08
616.47	28204.8
616.665	28073.73
616.86	28286.72
617.055	28079.87
617.25	27940.61
617.445	28528.38
617.641	27619.08
617.836	28204.8
618.031	27823.87
618.226	28286.72
618.421	28139.26
618.616	28153.6
618.811	27739.91
619.006	28043.01
619.201	27526.92
619.396	27707.14
619.591	27191.05
619.786	27600.65
619.981	26982.16
620.176	27477.77
620.371	27189
620.566	27320.07
620.761	27004.69
620.956	27475.72
621.151	26728.21
621.346	26928.91
621.541	26554.13
621.735	26681.11
621.93	26476.31
622.125	26396.44
622.32	26087.2
622.515	26201.88
622.709	26222.36
622.904	26234.65
623.099	25937.69
623.294	25749.28
623.488	25728.8
623.683	25876.26
623.878	25384.74
624.072	25589.54
624.267	25374.5
624.462	25253.67
624.656	24704.82
624.851	24977.2
625.046	24952.62
625.24	24682.29
625.435	24565.56
625.629	24639.28
625.824	24467.25
626.018	24360.76
626.213	23981.88
626.407	24315.7
626.602	24174.39
626.796	23902.01
626.991	23809.86
627.185	23488.32
627.38	23641.92
627.574	23613.25
627.768	23277.38
627.963	23154.51
628.157	22783.82
628.352	23119.69
628.546	22886.22
628.74	22652.75
628.935	22699.86
629.129	22630.23
629.323	22206.3
629.517	22488.92
629.712	22118.23
629.906	22103.9
630.1	22007.64
630.294	21976.92
630.489	21952.35
630.683	21739.36
630.877	21391.2
631.071	21524.32
631.265	21593.95
631.459	21270.37
631.653	21141.35
631.848	21032.81
632.042	20754.29
632.236	20862.83
632.43	20909.93
632.624	20856.68
632.818	20844.4
633.012	20563.82
633.206	20449.14
633.4	20328.31
633.594	20014.97
633.788	20223.86
633.982	20342.64
634.176	19990.39
634.369	19828.6
634.563	19799.93
634.757	19556.22
634.951	19625.86
635.145	19664.77
635.339	19402.63
635.533	19206.02
635.726	19126.15
635.92	19333
636.114	18839.44
636.308	18921.35
636.501	19169.16
636.695	18990.98
636.889	18747.28
637.083	18704.27
637.276	18368.4
637.47	18581.39
637.664	18327.44
637.857	18368.4
638.051	17874.84
638.244	17940.38
638.438	17907.61
638.632	17665.95
638.825	17287.07
639.019	17680.28
639.212	17307.55
639.406	17657.76
639.599	17446.82
639.793	17512.35
639.986	16930.73
640.18	16971.69
640.373	16967.59
640.567	16703.4
640.76	16777.13
640.954	16441.26
641.147	16474.03
641.34	16605.1
641.534	16652.2
641.727	16244.66
641.92	16416.69
642.114	16316.34
642.307	16050.1
642.5	15935.42
642.694	15669.18
642.887	15734.71
643.08	15767.48
643.273	15448
643.467	15654.84
643.66	15341.5
643.853	15589.31
644.046	15269.83
644.239	15288.26
644.432	15011.78
644.626	14903.24
644.819	14811.08
645.012	14878.66
645.205	14768.07
645.398	14798.79
645.591	14305.23
645.784	14395.34
645.977	14550.99
646.17	14391.25
646.363	14399.44
646.556	14020.56
646.749	14245.84
646.942	14045.14
647.135	13844.44
647.328	13801.43
647.521	13770.71
647.714	13701.08
647.907	13725.66
648.099	13471.71
648.292	13711.32
648.485	13567.96
648.678	13297.63
648.871	13092.83
649.064	13309.92
649.256	13182.95
649.449	12974.05
649.642	12988.39
649.835	12771.3
650.027	12720.1
650.22	13039.59
650.413	12707.82
650.605	12664.81
650.798	12441.58
650.991	12294.13
651.183	12597.23
651.376	12378.09
651.568	12369.9
651.761	12136.43
651.954	12296.18
652.146	12066.8
652.339	12097.52
652.531	12109.81
652.724	12017.65
652.916	11616.25
653.109	11831.29
653.301	11917.3
653.494	11884.53
653.686	11673.59
653.879	11724.79
654.071	11425.79
654.263	11466.75
654.456	11634.68
654.648	11788.28
654.84	11372.54
655.033	11372.54
655.225	11098.11
655.417	10999.81
655.61	11022.34
655.802	11108.35
655.994	11026.43
656.186	11026.43
656.379	10926.08
656.571	10797.06
656.763	10719.24
656.955	10878.98
657.148	10678.28
657.34	10637.32
657.532	10688.52
657.724	10299.41
657.916	10600.46
658.108	10438.67
658.3	10414.09
658.492	10434.57
658.684	10110.99
658.876	10115.09
659.068	10156.05
659.26	10162.19
659.452	10098.7
659.644	10047.51
659.836	9838.61
660.028	9846.8
660.22	9775.13
660.412	9611.29
660.604	9762.84
660.796	9590.81
660.988	9650.2
661.18	9371.68
661.372	9560.09
661.563	9433.11
661.755	9375.77
661.947	9240.61
662.139	9158.69
662.331	9111.58
662.522	9289.76
662.714	8980.51
662.906	8988.71
663.097	9009.19
663.289	9052.19
663.481	8769.57
663.673	9109.54
663.864	8894.5
664.056	8822.82
664.247	8697.89
664.439	8464.43
664.631	8579.11
664.822	8658.98
665.014	8658.98
665.205	8757.29
665.397	8413.23
665.588	8456.23
665.78	8460.33
665.971	8378.41
666.163	8462.38
666.354	8226.86
666.546	8200.24
666.737	8329.26
666.929	8280.11
667.12	8099.89
667.311	8144.94
667.503	8005.68
667.694	8083.5
667.885	7993.39
668.077	8028.21
668.268	8005.68
668.459	7919.67
668.651	7721.01
668.842	7747.64
669.033	7774.26
669.224	7546.94
669.416	7667.77
669.607	7792.69
669.798	7659.57
669.989	7669.81
670.18	7596.09
670.371	7577.66
670.563	7561.27
670.754	7413.82
670.945	7487.54
671.136	7383.1
671.327	7303.23
671.518	7469.11
671.709	7256.12
671.9	7508.02
672.091	7358.52
672.282	7135.29
672.473	7123.01
672.664	7266.36
672.855	7127.1
673.046	7170.11
673.237	7143.49
673.428	7034.94
673.619	7249.98
673.809	7217.21
674	7067.71
674.191	6936.64
674.382	6957.12
674.573	7131.2
674.764	6973.5
674.954	6940.74
675.145	6877.25
675.336	6748.23
675.527	6828.1
675.717	6942.78
675.908	6830.15
676.099	6713.41
676.289	6611.01
676.48	6682.69
676.671	6449.22
676.861	6582.34
677.052	6721.6
677.243	6742.08
677.433	6613.06
677.624	6793.28
677.814	6594.63
678.005	6598.73
678.195	6666.31
678.386	6471.75
678.576	6488.14
678.767	6496.33
678.957	6594.63
679.148	6625.35
679.338	6408.26
679.529	6365.26
679.719	6518.86
679.909	6506.57
680.1	6348.87
680.29	6600.77
680.481	6297.67
680.671	6520.9
680.861	6371.4
681.052	6633.54
681.242	6295.63
681.432	6367.31
681.622	6250.57
681.813	6232.14
682.003	6211.66
682.193	6182.99
682.383	6258.76
682.573	6322.25
682.764	6273.1
682.954	6305.87
683.144	6185.04
683.334	6226
683.524	6191.18
683.714	6256.72
683.904	6158.41
684.094	6168.65
684.284	6142.03
684.474	6174.8
684.664	6072.4
684.854	6013.01
685.044	6064.21
685.234	6021.2
685.424	6043.73
685.614	6056.01
685.804	6002.77
685.994	5873.75
686.184	5855.31
686.374	6043.73
686.564	5908.56
686.753	5896.27
686.943	5748.82
687.133	5859.41
687.323	5818.45
687.513	5781.59
687.702	5800.02
687.892	5687.38
688.082	5679.19
688.272	5748.82
688.461	5687.38
688.651	5623.89
688.841	5566.55
689.03	5668.95
689.22	5646.42
689.41	5769.3
689.599	5574.74
689.789	5671
689.979	5503.06
690.168	5412.95
690.358	5460.06
690.547	5406.81
690.737	5576.79
690.926	5298.27
691.116	5298.27
691.305	5437.53
691.495	5259.35
691.684	5298.27
691.874	5458.01
692.063	5216.35
692.252	5294.17
692.442	5355.61
692.631	5224.54
692.82	5181.53
693.01	5095.52
693.199	5179.48
693.388	5050.46
693.578	5265.5
693.767	5132.38
693.956	5124.19
694.146	5087.33
694.335	5023.84
694.524	5101.66
694.713	5079.13
694.902	5193.82
695.092	4900.96
695.281	4888.67
695.47	5072.99
695.659	4970.59
695.848	4782.18
696.037	4849.76
696.226	4806.75
696.415	4753.51
696.604	4960.35
696.793	4782.18
696.982	4819.04
697.171	4814.95
697.36	4857.95
697.549	4839.52
697.738	4548.71
697.927	4692.07
698.116	4640.87
698.305	4866.14
698.494	4722.79
698.683	4601.96
698.872	4712.55
699.061	4601.96
699.25	4757.6
699.438	4604
699.627	4782.18
699.816	4677.73
700.005	4708.45
700.193	4544.61
700.382	4730.98
700.571	4573.28
700.76	4540.52
700.948	4532.33
701.137	4468.84
701.326	4474.98
701.514	4454.5
701.703	4513.89
701.892	4362.34
702.08	4452.45
702.269	4493.41
702.457	4358.25
702.646	4352.1
702.834	4376.68
703.023	4442.21
703.212	4259.95
703.4	4358.25
703.589	4155.5
703.777	4401.26
703.965	4315.24
704.154	4280.43
704.342	4243.56
704.531	4233.32
704.719	4153.45
704.907	4403.3
705.096	4194.41
705.284	4259.95
705.472	4110.44
705.661	4149.36
705.849	4225.13
706.037	4249.71
706.226	4112.49
706.414	3922.03
706.602	3934.32
706.79	4268.14
706.979	4073.58
707.167	4102.25
707.355	4051.05
707.543	4030.57
707.731	4161.64
707.919	4042.86
708.107	4003.95
708.296	3905.65
708.484	4022.38
708.672	3997.81
708.86	3975.28
709.048	3823.73
709.236	3952.75
709.424	3917.93
709.612	3858.54
709.8	3823.73
709.988	3952.75
710.176	3913.84
710.364	3848.3
710.551	3836.02
710.739	3745.91
710.927	3831.92
711.115	3909.74
711.303	3807.34
711.491	3745.91
711.679	3702.9
711.866	3758.19
712.054	3782.77
712.242	3766.39
712.43	3862.64
712.617	3702.9
712.805	3737.71
712.993	3844.21
713.181	3610.74
713.368	3692.66
713.556	3747.95
713.744	3692.66
713.931	3545.2
714.119	3590.26
714.306	3606.64
714.494	3524.72
714.682	3678.32
714.869	3514.49
715.057	3627.12
715.244	3465.33
715.432	3684.47
715.619	3522.68
715.807	3463.29
715.994	3549.3
716.182	3629.17
716.369	3541.11
716.556	3455.09
716.744	3426.42
716.931	3500.15
717.119	3407.99
717.306	3487.86
717.493	3348.6
717.681	3405.94
717.868	3483.77
718.055	3377.27
718.242	3475.57
718.43	3432.57
718.617	3475.57
718.804	3403.89
718.991	3274.87
719.179	3420.28
719.366	3238.01
719.553	3336.31
719.74	3344.5
719.927	3287.16
720.114	3315.83
720.301	3188.86
720.488	3201.15
720.676	3285.11
720.863	3266.68
721.05	3168.38
721.237	3258.49
721.424	3225.72
721.611	3266.68
721.798	3229.82
721.985	3080.32
722.172	3186.81
722.358	3203.19
722.545	3151.99
722.732	3141.75
722.919	3049.6
723.106	3127.42
723.293	3072.12
723.48	3113.08
723.667	3082.36
723.853	3045.5
724.04	3268.73
724.227	3100.8
724.414	3123.32
724.6	3063.93
724.787	3070.08
724.974	3055.74
725.161	2994.3
725.347	2971.77
725.534	3084.41
725.72	3135.61
725.907	2992.25
726.094	3010.68
726.28	3020.92
726.467	2992.25
726.653	3033.21
726.84	3057.79
727.027	3008.64
727.213	2898.05
727.4	2943.1
727.586	2869.37
727.773	2893.95
727.959	2889.85
728.145	2865.28
728.332	2910.33
728.518	2869.37
728.705	2939.01
728.891	2803.84
729.077	2881.66
729.264	2891.9
729.45	2793.6
729.636	2891.9
729.823	2742.4
730.009	2889.85
730.195	2877.57
730.382	2844.8
730.568	2877.57
730.754	2803.84
730.94	2832.51
731.126	2758.78
731.313	2828.42
731.499	2799.74
731.685	2779.26
731.871	2736.26
732.057	2762.88
732.243	2820.22
732.429	2781.31
732.615	2685.06
732.801	2687.11
732.987	2670.72
733.173	2711.68
733.359	2709.63
733.545	2680.96
733.731	2676.87
733.917	2717.83
734.103	2701.44
734.289	2807.94
734.475	2586.76
734.661	2762.88
734.847	2732.16
735.033	2711.68
735.219	2648.19
735.404	2590.85
735.59	2652.29
735.776	2615.43
735.962	2744.45
736.148	2660.48
736.333	2510.98
736.519	2513.03
736.705	2521.22
736.89	2564.23
737.076	2551.94
737.262	2537.6
737.447	2611.33
737.633	2529.41
737.819	2617.47
738.004	2525.32
738.19	2496.64
738.375	2519.17
738.561	2533.51
738.747	2465.93
738.932	2390.15
739.118	2498.69
739.303	2572.42
739.489	2482.31
739.674	2422.92
739.859	2435.21
740.045	2349.19
740.23	2515.08
740.416	2236.55
740.601	2343.05
740.786	2494.6
740.972	2416.77
741.157	2361.48
741.342	2297.99
741.528	2324.62
741.713	2332.81
741.898	2406.53
742.084	2324.62
742.269	2259.08
742.454	2291.85
742.639	2293.9
742.824	2230.41
743.01	2252.94
743.195	2439.3
743.38	2236.55
743.565	2277.51
743.75	2201.74
743.935	2179.21
744.12	2285.7
744.305	2091.15
744.49	2089.1
744.675	2187.4
744.86	2091.15
745.045	2173.07
745.23	2179.21
745.415	2162.83
745.6	2162.83
745.785	2087.05
745.97	2121.87
746.155	2136.2
746.34	2091.15
746.525	2039.95
746.71	2205.83
746.895	2029.71
747.079	2025.61
747.264	2087.05
747.449	2054.28
747.634	2087.05
747.819	2046.09
748.003	1933.45
748.188	1962.12
748.373	1996.94
748.557	1935.5
748.742	1851.53
748.927	1847.44
749.111	1931.41
749.296	1841.29
749.481	1888.4
749.665	1927.31
749.85	1929.36
750.034	1812.62
750.219	1898.64
750.404	1835.15
750.588	1695.89
750.773	1718.42
750.957	1781.9
751.141	1726.61
751.326	1763.47
751.51	1769.62
751.695	1775.76
751.879	1714.32
752.064	1663.12
752.248	1738.9
752.432	1720.46
752.617	1685.65
752.801	1679.51
752.985	1622.16
753.17	1540.24
753.354	1734.8
753.538	1656.98
753.722	1558.67
753.907	1616.02
754.091	1542.29
754.275	1611.92
754.459	1542.29
754.643	1564.82
754.828	1544.34
755.012	1501.33
755.196	1464.47
755.38	1495.19
755.564	1517.72
755.748	1493.14
755.932	1517.72
756.116	1499.28
756.3	1532.05
756.484	1407.13
756.668	1450.13
756.852	1257.62
757.036	1390.74
757.22	1433.75
757.404	1386.65
757.588	1441.94
757.772	1384.6
757.956	1427.6
758.14	1374.36
758.323	1421.46
758.507	1341.59
758.691	1407.13
758.875	1218.71
759.059	1321.11
759.242	1339.54
759.426	1319.06
759.61	1331.35
759.794	1308.82
759.977	1237.14
760.161	1390.74
760.345	1245.34
760.528	1235.1
760.712	1292.44
760.895	1198.23
761.079	1210.52
761.263	1296.53
761.446	1187.99
761.63	1177.75
761.813	1187.99
761.997	1136.79
762.18	1222.81
762.364	1153.18
762.547	1114.27
762.731	1157.27
762.914	1032.35
763.098	1136.79
763.281	1196.18
763.464	1083.55
763.648	1124.51
763.831	1106.07
764.015	1149.08
764.198	1196.18
764.381	1054.87
764.564	1138.84
764.748	1104.03
764.931	1097.88
765.114	968.86
765.297	1093.79
765.481	1097.88
765.664	1101.98
765.847	1067.16
766.03	1185.94
766.213	927.9
766.397	1130.65
766.58	999.58
766.763	1081.5
766.946	1065.11
767.129	946.33
767.312	1018.01
767.495	1097.88
767.678	1063.07
767.861	1161.37
768.044	1095.83
768.227	1097.88
768.41	1032.35
768.593	1054.87
768.776	1046.68
768.959	1099.93
769.142	1114.27
769.324	962.72
769.507	1005.72
769.69	948.38
769.873	1020.06
770.056	1038.49
770.239	1013.92
770.421	854.17
770.604	940.19
770.787	940.19
770.97	874.65
771.152	936.09
771.335	993.44
771.518	893.09
771.7	913.56
771.883	977.05
772.066	944.28
772.248	927.9
772.431	882.85
772.613	964.76
772.796	911.52
772.978	956.57
773.161	997.53
773.343	850.08
773.526	858.27
773.708	923.8
773.891	837.79
774.073	874.65
774.256	800.93
774.438	983.2
774.621	878.75
774.803	903.32
774.985	753.82
775.168	843.93
775.35	839.84
775.532	882.85
775.715	819.36
775.897	882.85
776.079	843.93
776.261	768.16
776.444	817.31
776.626	737.44
776.808	845.98
776.99	768.16
777.173	835.74
777.355	710.82
777.537	743.58
777.719	735.39
777.901	817.31
778.083	792.73
778.265	686.24
778.447	653.47
778.629	686.24
778.811	669.86
778.993	708.77
779.175	778.4
779.357	694.43
779.539	690.34
779.721	663.71
779.903	628.9
780.085	727.2
780.267	608.42
780.449	632.99
780.631	704.67
780.812	759.97
780.994	737.44
781.176	704.67
781.358	669.86
781.54	592.03
781.721	649.38
781.903	624.8
782.085	596.13
782.267	678.05
782.448	661.66
782.63	522.4
782.812	604.32
782.993	614.56
783.175	657.57
783.357	579.75
783.538	680.1
783.72	534.69
783.901	592.03
784.083	581.79
784.264	630.95
784.446	526.5
784.627	409.76
784.809	559.27
784.99	587.94
785.172	612.51
785.353	534.69
785.535	524.45
785.716	469.16
785.897	370.85
786.079	540.83
786.26	501.92
786.441	596.13
786.623	489.64
786.804	458.92
786.985	469.16
787.167	456.87
787.348	506.02
787.529	540.83
787.71	538.79
787.891	463.01
788.073	458.92
788.254	506.02
788.435	518.31
788.616	510.11
788.797	436.39
788.978	491.68
789.159	444.58
789.34	571.55
789.522	401.57
789.703	417.96
789.884	458.92
790.065	432.29
790.246	415.91
790.427	364.71
790.607	475.3
790.788	477.35
790.969	407.72
791.15	405.67
791.331	456.87
791.512	432.29
791.693	354.47
791.874	430.24
792.054	485.54
792.235	436.39
792.416	379.04
792.597	346.28
792.778	399.52
792.958	409.76
793.139	420
793.32	448.68
793.5	346.28
793.681	393.38
793.862	366.76
794.042	481.44
794.223	340.13
794.404	383.14
794.584	319.65
794.765	379.04
794.945	336.04
795.126	405.67
795.306	313.51
795.487	368.81
795.667	336.04
795.848	333.99
796.028	311.46
796.209	329.89
796.389	399.52
796.57	350.37
796.75	377
796.93	272.55
797.111	299.17
797.291	432.29
797.471	344.23
797.652	286.89
797.832	243.88
798.012	317.61
798.192	262.31
798.373	268.45
798.553	274.6
798.733	301.22
798.913	325.8
799.093	276.65
799.274	323.75
799.454	338.09
799.634	344.23
799.814	221.35
799.994	370.85
800.174	295.08
800.354	305.32
800.534	262.31
800.714	202.92
800.894	245.93
801.074	213.16
801.254	276.65
801.434	311.46
801.614	264.36
801.794	256.17
801.974	833.69
802.154	303.27
802.334	295.08
802.514	264.36
802.693	241.83
802.873	227.5
803.053	237.74
803.233	268.45
803.413	186.54
803.592	217.26
803.772	309.41
803.952	235.69
804.131	266.41
804.311	235.69
804.491	293.03
804.67	190.63
804.85	202.92
805.03	252.07
805.209	303.27
805.389	235.69
805.568	227.5
805.748	311.46
805.928	194.73
806.107	200.87
806.287	213.16
806.466	270.5
806.646	219.3
806.825	235.69
807.004	180.39
807.184	266.41
807.363	196.78
807.543	178.34
807.722	237.74
807.901	235.69
808.081	215.21
808.26	247.97
808.439	235.69
808.619	174.25
808.798	190.63
808.977	243.88
809.156	252.07
809.336	301.22
809.515	245.93
809.694	161.96
809.873	245.93
810.052	254.12
810.231	202.92
810.411	231.59
810.59	194.73
810.769	139.43
810.948	202.92
811.127	149.67
811.306	133.29
811.485	219.3
811.664	268.45
811.843	145.58
812.022	194.73
812.201	196.78
812.38	219.3
812.559	196.78
812.737	207.02
812.916	112.81
813.095	133.29
813.274	188.58
813.453	235.69
813.632	235.69
813.811	233.64
813.989	131.24
814.168	135.34
814.347	133.29
814.526	194.73
814.704	207.02
814.883	215.21
815.062	219.3
815.24	149.67
815.419	129.19
815.598	243.88
815.776	84.14
815.955	153.77
816.133	104.62
816.312	166.06
816.49	147.62
816.669	145.58
816.847	116.9
817.026	207.02
817.204	217.26
817.383	145.58
817.561	180.39
817.74	211.11
817.918	145.58
818.097	137.38
818.275	80.04
818.453	139.43
818.632	184.49
818.81	102.57
818.988	166.06
819.167	164.01
819.345	186.54
819.523	147.62
819.701	219.3
819.879	63.66
820.058	194.73
820.236	114.86
820.414	145.58
820.592	155.82
820.77	86.19
820.948	67.75
821.127	149.67
821.305	178.34
821.483	108.71
821.661	153.77
821.839	100.52
822.017	157.86
822.195	137.38
822.373	172.2
822.551	141.48
822.729	88.23
822.907	178.34
823.085	161.96
823.262	221.35
823.44	147.62
823.618	108.71
823.796	118.95
823.974	194.73
824.152	57.51
824.329	133.29
824.507	92.33
824.685	161.96
824.863	196.78
825.04	82.09
825.218	229.54
825.396	118.95
825.574	153.77
825.751	153.77
825.929	114.86
826.107	100.52
826.284	180.39
826.462	137.38
826.639	96.43
826.817	108.71
826.994	104.62
827.172	57.51
827.349	168.1
827.527	145.58
827.704	131.24
827.882	104.62
828.059	121
828.237	88.23
828.414	184.49
828.591	75.95
828.769	47.27
828.946	41.13
829.124	147.62
829.301	104.62
829.478	157.86
829.655	194.73
829.833	57.51
830.01	92.33
830.187	116.9
830.364	80.04
830.542	161.96
830.719	96.43
830.896	82.09
831.073	153.77
831.25	112.81
831.427	139.43
831.604	49.32
831.782	39.08
831.959	106.67
832.136	24.75
832.313	104.62
832.49	55.47
832.667	116.9
832.844	82.09
833.021	112.81
833.198	24.75
833.374	118.95
833.551	121
833.728	67.75
833.905	139.43
834.082	63.66
834.259	100.52
834.436	121
834.612	39.08
834.789	98.47
834.966	18.6
835.143	88.23
835.319	75.95
835.496	75.95
835.673	53.42
835.85	63.66
836.026	57.51
836.203	104.62
836.38	-1.88
836.556	139.43
836.733	59.56
836.909	133.29
837.086	96.43
837.262	67.75
837.439	100.52
837.616	137.38
837.792	90.28
837.968	16.55
838.145	73.9
838.321	71.85
838.498	129.19
838.674	100.52
838.851	88.23
839.027	90.28
839.203	125.1
839.38	98.47
839.556	14.51
839.732	98.47
839.909	104.62
840.085	98.47
840.261	147.62
840.437	82.09
840.614	47.27
840.79	161.96
840.966	90.28
841.142	121
841.318	73.9
841.494	127.14
841.671	32.94
841.847	24.75
842.023	47.27
842.199	96.43
842.375	96.43
842.551	65.71
842.727	49.32
842.903	16.55
843.079	59.56
843.255	96.43
843.431	51.37
843.607	92.33
843.783	-24.4
843.959	153.77
844.134	32.94
844.31	106.67
844.486	88.23
844.662	69.8
844.838	0.17
845.013	24.75
845.189	137.38
845.365	69.8
845.541	39.08
845.716	114.86
845.892	0.17
846.068	8.36
846.244	39.08
846.419	98.47
846.595	92.33
846.77	47.27
846.946	121
847.122	41.13
847.297	82.09
847.473	67.75
847.648	-16.21
847.824	24.75
847.999	80.04
848.175	55.47
848.35	63.66
848.526	82.09
848.701	112.81
848.876	-42.84
849.052	96.43
849.227	14.51
849.403	16.55
849.578	73.9
849.753	22.7
849.929	88.23
850.104	10.41
850.279	51.37
850.454	155.82
850.63	84.14
850.805	32.94
850.98	43.18
851.155	100.52
851.33	57.51
851.505	14.51
851.681	141.48
851.856	-14.17
852.031	73.9
852.206	82.09
852.381	63.66
852.556	96.43
852.731	43.18
852.906	16.55
853.081	96.43
853.256	98.47
853.431	131.24
853.606	2.22
853.781	-10.07
853.956	26.79
854.131	49.32
854.305	10.41
854.48	18.6
854.655	37.03
854.83	39.08
855.005	-38.74
855.18	30.89
855.354	49.32
855.529	104.62
855.704	53.42
855.879	75.95
856.053	-1.88
856.228	39.08
856.403	47.27
856.577	10.41
856.752	39.08
856.926	57.51
857.101	18.6
857.276	14.51
857.45	73.9
857.625	80.04
857.799	39.08
857.974	-32.6
858.148	2.22
858.323	71.85
858.497	47.27
858.672	47.27
858.846	123.05
859.02	61.61
859.195	-46.93
859.369	86.19
859.543	63.66
859.718	32.94
859.892	123.05
860.066	24.75
860.241	43.18
860.415	47.27
860.589	-18.26
860.763	57.51
860.938	8.36
861.112	26.79
861.286	-12.12
861.46	43.18
861.634	32.94
861.808	30.89
861.982	22.7
862.157	22.7
862.331	-5.97
862.505	6.31
862.679	-51.03
862.853	0.17
863.027	39.08
863.201	137.38
863.375	-5.97
863.549	96.43
863.722	39.08
863.896	71.85
864.07	-77.65
864.244	43.18
864.418	49.32
864.592	30.89
864.766	41.13
864.939	92.33
865.113	-30.55
865.287	30.89
865.461	75.95
865.634	57.51
865.808	59.56
865.982	-30.55
866.156	-67.41
866.329	30.89
866.503	-1.88
866.676	96.43
866.85	75.95
867.024	65.71
867.197	49.32
867.371	41.13
867.544	108.71
867.718	14.51
867.891	51.37
868.065	-46.93
868.238	14.51
868.412	121
868.585	-10.07
868.759	-12.12
868.932	37.03
869.105	32.94
869.279	63.66
869.452	-18.26
869.625	28.84
869.799	16.55
869.972	-55.12
870.145	14.51
870.319	63.66
870.492	32.94
870.665	-5.97
870.838	30.89
871.011	0.17
871.185	16.55
871.358	-5.97
871.531	96.43
871.704	24.75
871.877	32.94
872.05	73.9
872.223	-1.88
872.396	39.08
872.569	24.75
872.742	16.55
872.915	8.36
873.088	-34.64
873.261	6.31
873.434	110.76
873.607	14.51
873.78	137.38
873.953	6.31
874.126	39.08
874.299	55.47
874.471	4.27
874.644	-18.26
874.817	16.55
874.99	84.14
875.163	14.51
875.335	-16.21
875.508	6.31
875.681	94.38
875.853	63.66
876.026	-46.93
876.199	51.37
876.371	-26.45
876.544	-5.97
876.717	55.47
876.889	55.47
877.062	34.99
877.234	24.75
877.407	55.47
877.579	-32.6
877.752	24.75
877.924	45.23
878.097	71.85
878.269	26.79
878.442	63.66
878.614	-10.07
878.786	16.55
878.959	-14.17
879.131	14.51
879.303	6.31
879.476	88.23
879.648	26.79
879.82	20.65
879.993	63.66
880.165	22.7
880.337	-65.36
880.509	63.66
880.681	-53.08
880.854	6.31
881.026	10.41
881.198	100.52
881.37	53.42
881.542	71.85
881.714	16.55
881.886	26.79
882.058	-32.6
882.23	22.7
882.402	6.31
882.574	-5.97
882.746	-16.21
882.918	57.51
883.09	45.23
883.262	-12.12
883.434	32.94
883.606	30.89
883.778	-30.55
883.95	137.38
884.122	-14.17
884.293	55.47
884.465	18.6
884.637	59.56
884.809	-83.8
884.98	6.31
885.152	39.08
885.324	94.38
885.496	18.6
885.667	-22.36
885.839	32.94
886.011	69.8
886.182	24.75
886.354	53.42
886.525	80.04
886.697	34.99
886.869	-34.64
887.04	-16.21
887.212	26.79
887.383	145.58
887.555	-48.98
887.726	20.65
887.897	-42.84
888.069	30.89
888.24	14.51
888.412	-8.02
888.583	55.47
888.754	14.51
888.926	-34.64
889.097	-22.36
889.268	-24.4
889.44	-51.03
889.611	-42.84
889.782	30.89
889.953	-8.02
890.125	49.32
890.296	8.36
890.467	-38.74
890.638	14.51
890.809	2.22
890.98	49.32
891.151	26.79
891.323	-5.97
891.494	16.55
891.665	-59.22
891.836	-24.4
892.007	22.7
892.178	-14.17
892.349	-10.07
892.52	-65.36
892.691	8.36
892.862	-1.88
893.032	-26.45
893.203	-30.55
893.374	-42.84
893.545	51.37
893.716	-40.79
893.887	59.56
894.057	-24.4
894.228	-30.55
894.399	43.18
894.57	14.51
894.74	-10.07
894.911	30.89
895.082	32.94
895.253	10.41
895.423	8.36
895.594	10.41
895.764	-14.17
895.935	10.41
896.106	71.85
896.276	-51.03
896.447	57.51
896.617	14.51
896.788	-51.03
896.958	16.55
897.129	-42.84
897.299	2.22
897.47	47.27
897.64	34.99
897.81	26.79
897.981	-51.03
898.151	16.55
898.322	12.46
898.492	65.71
898.662	8.36
898.832	-34.64
899.003	-14.17
899.173	28.84
899.343	-8.02
899.513	14.51
