Data from USB4F104151__317__14-35-09-144.txt Node

Date: Thu Mar 13 14:35:09 EDT 2025
User: louis
Spectrometer: USB4F10415
Trigger mode: 4
Integration Time (sec): 2.500000E-2
Scans to average: 1
Electric dark correction enabled: true
Nonlinearity correction enabled: false
Boxcar width: 0
XAxis mode: Wavelengths
Number of Pixels in Spectrum: 3648
>>>>>Begin Spectral Data<<<<<
178.204	-153.43
178.424	-153.43
178.644	-153.43
178.864	-225.11
179.084	-157.52
179.304	-63.32
179.524	6.31
179.744	-3.93
179.964	57.51
180.184	14.51
180.404	-12.12
180.624	-20.31
180.844	4.27
181.064	-22.36
181.283	-12.12
181.503	39.08
181.723	12.46
181.943	-61.27
182.163	30.89
182.383	-1.88
182.602	73.9
182.822	61.61
183.042	20.65
183.262	-81.75
183.482	-3.93
183.701	-5.97
183.921	30.89
184.141	-85.84
184.361	34.99
184.58	37.03
184.8	-8.02
185.02	37.03
185.239	14.51
185.459	-69.46
185.679	30.89
185.898	-3.93
186.118	53.42
186.338	20.65
186.557	18.6
186.777	-81.75
186.997	-22.36
187.216	14.51
187.436	98.47
187.655	59.56
187.875	102.57
188.095	-3.93
188.314	28.84
188.534	90.28
188.753	49.32
188.973	41.13
189.192	47.27
189.412	8.36
189.631	43.18
189.851	73.9
190.07	-1.88
190.29	34.99
190.509	45.23
190.729	-18.26
190.948	20.65
191.168	71.85
191.387	14.51
191.607	-28.5
191.826	-12.12
192.045	24.75
192.265	80.04
192.484	98.47
192.704	28.84
192.923	-12.12
193.142	100.52
193.362	10.41
193.581	118.95
193.8	55.47
194.02	-8.02
194.239	6.31
194.458	139.43
194.678	4.27
194.897	-1.88
195.116	8.36
195.335	43.18
195.555	39.08
195.774	-10.07
195.993	34.99
196.212	47.27
196.432	-28.5
196.651	45.23
196.87	-61.27
197.089	59.56
197.308	112.81
197.528	45.23
197.747	-51.03
197.966	84.14
198.185	110.76
198.404	43.18
198.623	55.47
198.842	-18.26
199.062	-44.88
199.281	43.18
199.5	32.94
199.719	16.55
199.938	45.23
200.157	100.52
200.376	47.27
200.595	65.71
200.814	96.43
201.033	51.37
201.252	37.03
201.471	-12.12
201.69	59.56
201.909	-8.02
202.128	-10.07
202.347	32.94
202.566	24.75
202.785	-83.8
203.004	39.08
203.223	90.28
203.442	67.75
203.661	47.27
203.879	-16.21
204.098	43.18
204.317	-28.5
204.536	47.27
204.755	51.37
204.974	12.46
205.193	55.47
205.411	92.33
205.63	61.61
205.849	-26.45
206.068	2.22
206.287	26.79
206.505	86.19
206.724	43.18
206.943	-8.02
207.162	45.23
207.381	45.23
207.599	-26.45
207.818	69.8
208.037	-12.12
208.255	-51.03
208.474	-28.5
208.693	-16.21
208.911	8.36
209.13	-61.27
209.349	-26.45
209.567	4.27
209.786	37.03
210.005	49.32
210.223	-28.5
210.442	-14.17
210.661	53.42
210.879	34.99
211.098	28.84
211.316	4.27
211.535	-3.93
211.753	-16.21
211.972	49.32
212.191	-51.03
212.409	57.51
212.628	39.08
212.846	-40.79
213.065	61.61
213.283	-3.93
213.502	-14.17
213.72	-10.07
213.938	41.13
214.157	47.27
214.375	12.46
214.594	34.99
214.812	28.84
215.031	2.22
215.249	-26.45
215.467	12.46
215.686	12.46
215.904	96.43
216.122	-20.31
216.341	67.75
216.559	71.85
216.778	12.46
216.996	18.6
217.214	39.08
217.432	-10.07
217.651	63.66
217.869	49.32
218.087	63.66
218.306	102.57
218.524	12.46
218.742	-40.79
218.96	102.57
219.179	-44.88
219.397	20.65
219.615	71.85
219.833	37.03
220.051	41.13
220.27	127.14
220.488	118.95
220.706	53.42
220.924	-8.02
221.142	43.18
221.36	-8.02
221.578	69.8
221.796	45.23
222.015	-3.93
222.233	-3.93
222.451	26.79
222.669	4.27
222.887	-28.5
223.105	0.17
223.323	4.27
223.541	-46.93
223.759	63.66
223.977	4.27
224.195	80.04
224.413	69.8
224.631	61.61
224.849	53.42
225.067	118.95
225.285	-3.93
225.503	12.46
225.721	18.6
225.939	94.38
226.157	-34.64
226.375	47.27
226.592	2.22
226.81	14.51
227.028	73.9
227.246	-20.31
227.464	67.75
227.682	53.42
227.9	118.95
228.117	28.84
228.335	-36.69
228.553	-87.89
228.771	-10.07
228.989	20.65
229.206	63.66
229.424	39.08
229.642	-20.31
229.86	18.6
230.077	57.51
230.295	4.27
230.513	12.46
230.731	37.03
230.948	20.65
231.166	39.08
231.384	-22.36
231.601	-26.45
231.819	53.42
232.037	4.27
232.254	-12.12
232.472	-26.45
232.689	32.94
232.907	47.27
233.125	47.27
233.342	-1.88
233.56	-32.6
233.777	55.47
233.995	-36.69
234.213	32.94
234.43	0.17
234.648	20.65
234.865	-14.17
235.083	37.03
235.3	-65.36
235.518	59.56
235.735	63.66
235.953	24.75
236.17	-20.31
236.388	4.27
236.605	80.04
236.822	-32.6
237.04	8.36
237.257	63.66
237.475	28.84
237.692	45.23
237.909	30.89
238.127	0.17
238.344	45.23
238.562	65.71
238.779	22.7
238.996	-30.55
239.214	80.04
239.431	55.47
239.648	45.23
239.865	77.99
240.083	-24.4
240.3	-46.93
240.517	14.51
240.735	10.41
240.952	77.99
241.169	37.03
241.386	18.6
241.603	-18.26
241.821	-18.26
242.038	-32.6
242.255	16.55
242.472	-61.27
242.689	28.84
242.907	80.04
243.124	8.36
243.341	26.79
243.558	6.31
243.775	4.27
243.992	14.51
244.209	6.31
244.426	8.36
244.643	69.8
244.86	30.89
245.078	63.66
245.295	-8.02
245.512	10.41
245.729	39.08
245.946	-8.02
246.163	-28.5
246.38	51.37
246.597	20.65
246.814	24.75
247.031	-1.88
247.248	-20.31
247.464	8.36
247.681	-38.74
247.898	47.27
248.115	53.42
248.332	45.23
248.549	14.51
248.766	47.27
248.983	57.51
249.2	59.56
249.417	94.38
249.633	22.7
249.85	100.52
250.067	-12.12
250.284	8.36
250.501	6.31
250.717	49.32
250.934	20.65
251.151	-28.5
251.368	45.23
251.585	61.61
251.801	61.61
252.018	-3.93
252.235	-12.12
252.451	4.27
252.668	6.31
252.885	20.65
253.102	-14.17
253.318	28.84
253.535	32.94
253.752	-18.26
253.968	30.89
254.185	-12.12
254.401	4.27
254.618	118.95
254.835	-69.46
255.051	118.95
255.268	20.65
255.484	63.66
255.701	20.65
255.917	77.99
256.134	16.55
256.351	41.13
256.567	-57.17
256.784	12.46
257	-22.36
257.217	63.66
257.433	129.19
257.65	61.61
257.866	73.9
258.082	-20.31
258.299	-8.02
258.515	94.38
258.732	69.8
258.948	14.51
259.165	86.19
259.381	-77.65
259.597	32.94
259.814	49.32
260.03	14.51
260.246	4.27
260.463	14.51
260.679	-10.07
260.895	8.36
261.112	28.84
261.328	16.55
261.544	-12.12
261.761	53.42
261.977	32.94
262.193	-1.88
262.409	-40.79
262.626	53.42
262.842	24.75
263.058	-8.02
263.274	28.84
263.49	20.65
263.707	20.65
263.923	20.65
264.139	26.79
264.355	-3.93
264.571	14.51
264.787	39.08
265.004	47.27
265.22	84.14
265.436	-44.88
265.652	49.32
265.868	-18.26
266.084	14.51
266.3	55.47
266.516	-1.88
266.732	-16.21
266.948	-26.45
267.164	-1.88
267.38	-30.55
267.596	73.9
267.812	12.46
268.028	16.55
268.244	24.75
268.46	-16.21
268.676	14.51
268.892	16.55
269.108	-20.31
269.324	-28.5
269.54	22.7
269.756	80.04
269.972	-53.08
270.188	-14.17
270.403	12.46
270.619	39.08
270.835	-18.26
271.051	-16.21
271.267	-16.21
271.483	22.7
271.698	39.08
271.914	53.42
272.13	-36.69
272.346	-12.12
272.562	-3.93
272.777	20.65
272.993	45.23
273.209	32.94
273.425	98.47
273.64	-65.36
273.856	84.14
274.072	37.03
274.287	69.8
274.503	41.13
274.719	88.23
274.934	24.75
275.15	-5.97
275.366	41.13
275.581	-16.21
275.797	28.84
276.012	98.47
276.228	86.19
276.444	39.08
276.659	28.84
276.875	45.23
277.09	-44.88
277.306	14.51
277.521	57.51
277.737	53.42
277.952	30.89
278.168	-3.93
278.383	92.33
278.599	28.84
278.814	-16.21
279.03	4.27
279.245	131.24
279.461	24.75
279.676	77.99
279.892	75.95
280.107	-20.31
280.322	-40.79
280.538	73.9
280.753	22.7
280.969	14.51
281.184	96.43
281.399	47.27
281.615	32.94
281.83	16.55
282.045	6.31
282.26	-44.88
282.476	26.79
282.691	-26.45
282.906	28.84
283.122	-12.12
283.337	32.94
283.552	84.14
283.767	0.17
283.983	61.61
284.198	59.56
284.413	98.47
284.628	45.23
284.843	4.27
285.058	77.99
285.274	-14.17
285.489	26.79
285.704	61.61
285.919	32.94
286.134	55.47
286.349	20.65
286.564	20.65
286.779	110.76
286.995	-10.07
287.21	-59.22
287.425	-34.64
287.64	39.08
287.855	75.95
288.07	24.75
288.285	73.9
288.5	6.31
288.715	28.84
288.93	-1.88
289.145	-36.69
289.36	4.27
289.575	43.18
289.79	4.27
290.004	-32.6
290.219	88.23
290.434	-10.07
290.649	2.22
290.864	59.56
291.079	-51.03
291.294	-5.97
291.509	39.08
291.724	-53.08
291.938	-3.93
292.153	80.04
292.368	-69.46
292.583	20.65
292.798	110.76
293.012	77.99
293.227	-18.26
293.442	4.27
293.657	100.52
293.871	61.61
294.086	-34.64
294.301	90.28
294.516	10.41
294.73	26.79
294.945	-42.84
295.16	55.47
295.374	90.28
295.589	30.89
295.804	49.32
296.018	-10.07
296.233	39.08
296.447	69.8
296.662	-53.08
296.877	47.27
297.091	96.43
297.306	22.7
297.52	28.84
297.735	69.8
297.949	30.89
298.164	121
298.378	30.89
298.593	-5.97
298.807	12.46
299.022	88.23
299.236	69.8
299.451	30.89
299.665	45.23
299.88	12.46
300.094	-36.69
300.309	49.32
300.523	45.23
300.737	98.47
300.952	80.04
301.166	18.6
301.381	-73.56
301.595	-34.64
301.809	-51.03
302.024	28.84
302.238	34.99
302.452	37.03
302.667	-26.45
302.881	86.19
303.095	69.8
303.309	69.8
303.524	8.36
303.738	12.46
303.952	12.46
304.166	-42.84
304.381	-12.12
304.595	73.9
304.809	-3.93
305.023	57.51
305.237	28.84
305.452	-3.93
305.666	-14.17
305.88	41.13
306.094	-3.93
306.308	28.84
306.522	6.31
306.736	12.46
306.95	28.84
307.164	55.47
307.379	32.94
307.593	82.09
307.807	12.46
308.021	82.09
308.235	24.75
308.449	-18.26
308.663	-12.12
308.877	145.58
309.091	-3.93
309.305	86.19
309.519	-71.51
309.733	39.08
309.947	-59.22
310.161	135.34
310.374	57.51
310.588	102.57
310.802	-53.08
311.016	20.65
311.23	139.43
311.444	-75.6
311.658	20.65
311.872	69.8
312.085	88.23
312.299	80.04
312.513	39.08
312.727	-18.26
312.941	39.08
313.154	-24.4
313.368	49.32
313.582	53.42
313.796	77.99
314.009	96.43
314.223	55.47
314.437	53.42
314.651	86.19
314.864	20.65
315.078	-8.02
315.292	32.94
315.505	37.03
315.719	45.23
315.933	49.32
316.146	39.08
316.36	-22.36
316.573	39.08
316.787	30.89
317.001	75.95
317.214	20.65
317.428	43.18
317.641	-12.12
317.855	61.61
318.068	4.27
318.282	55.47
318.495	45.23
318.709	41.13
318.922	55.47
319.136	39.08
319.349	57.51
319.563	22.7
319.776	30.89
319.99	-32.6
320.203	80.04
320.417	88.23
320.63	86.19
320.843	34.99
321.057	96.43
321.27	20.65
321.483	69.8
321.697	65.71
321.91	-8.02
322.124	61.61
322.337	-1.88
322.55	0.17
322.763	32.94
322.977	45.23
323.19	30.89
323.403	20.65
323.617	90.28
323.83	94.38
324.043	-16.21
324.256	82.09
324.469	-67.41
324.683	16.55
324.896	28.84
325.109	45.23
325.322	-12.12
325.535	127.14
325.748	-16.21
325.962	12.46
326.175	4.27
326.388	0.17
326.601	16.55
326.814	45.23
327.027	51.37
327.24	86.19
327.453	22.7
327.666	6.31
327.879	65.71
328.092	53.42
328.305	73.9
328.518	-16.21
328.731	-38.74
328.944	20.65
329.157	53.42
329.37	39.08
329.583	63.66
329.796	37.03
330.009	-12.12
330.222	55.47
330.435	-85.84
330.648	77.99
330.861	102.57
331.073	-26.45
331.286	69.8
331.499	45.23
331.712	8.36
331.925	43.18
332.138	-18.26
332.35	77.99
332.563	47.27
332.776	86.19
332.989	53.42
333.202	-10.07
333.414	-12.12
333.627	-42.84
333.84	-26.45
334.053	28.84
334.265	-1.88
334.478	-32.6
334.691	20.65
334.903	-28.5
335.116	45.23
335.329	12.46
335.541	133.29
335.754	108.71
335.966	-36.69
336.179	53.42
336.392	-16.21
336.604	16.55
336.817	26.79
337.029	-57.17
337.242	37.03
337.454	14.51
337.667	0.17
337.88	39.08
338.092	-38.74
338.305	112.81
338.517	-42.84
338.729	45.23
338.942	57.51
339.154	-75.6
339.367	55.47
339.579	77.99
339.792	0.17
340.004	41.13
340.217	14.51
340.429	14.51
340.641	4.27
340.854	-18.26
341.066	57.51
341.278	28.84
341.491	104.62
341.703	10.41
341.915	-20.31
342.128	49.32
342.34	71.85
342.552	4.27
342.764	63.66
342.977	37.03
343.189	4.27
343.401	133.29
343.613	-98.13
343.826	88.23
344.038	77.99
344.25	63.66
344.462	20.65
344.674	45.23
344.886	-12.12
345.099	112.81
345.311	32.94
345.523	24.75
345.735	-18.26
345.947	47.27
346.159	-18.26
346.371	28.84
346.583	12.46
346.795	133.29
347.007	102.57
347.219	37.03
347.431	45.23
347.643	106.67
347.855	110.76
348.067	102.57
348.279	-14.17
348.491	14.51
348.703	8.36
348.915	-42.84
349.127	80.04
349.339	6.31
349.551	-5.97
349.763	114.86
349.975	22.7
350.187	86.19
350.399	28.84
350.61	49.32
350.822	4.27
351.034	77.99
351.246	24.75
351.458	77.99
351.669	41.13
351.881	61.61
352.093	61.61
352.305	77.99
352.517	47.27
352.728	55.47
352.94	-22.36
353.152	-8.02
353.363	69.8
353.575	102.57
353.787	102.57
353.999	55.47
354.21	106.67
354.422	41.13
354.633	61.61
354.845	14.51
355.057	-1.88
355.268	0.17
355.48	20.65
355.692	20.65
355.903	-24.4
356.115	55.47
356.326	65.71
356.538	12.46
356.749	-18.26
356.961	32.94
357.172	4.27
357.384	45.23
357.595	135.34
357.807	45.23
358.018	4.27
358.23	-30.55
358.441	12.46
358.653	88.23
358.864	77.99
359.075	-3.93
359.287	-12.12
359.498	69.8
359.709	57.51
359.921	-20.31
360.132	96.43
360.344	49.32
360.555	4.27
360.766	55.47
360.977	104.62
361.189	82.09
361.4	28.84
361.611	-3.93
361.823	90.28
362.034	-20.31
362.245	2.22
362.456	4.27
362.667	28.84
362.879	55.47
363.09	65.71
363.301	135.34
363.512	16.55
363.723	24.75
363.935	24.75
364.146	94.38
364.357	12.46
364.568	71.85
364.779	4.27
364.99	129.19
365.201	4.27
365.412	106.67
365.623	-26.45
365.834	43.18
366.045	32.94
366.256	65.71
366.467	45.23
366.678	37.03
366.889	20.65
367.1	41.13
367.311	114.86
367.522	55.47
367.733	116.9
367.944	22.7
368.155	-24.4
368.366	69.8
368.577	84.14
368.788	24.75
368.999	28.84
369.209	61.61
369.42	102.57
369.631	143.53
369.842	20.65
370.053	12.46
370.264	61.61
370.474	63.66
370.685	6.31
370.896	28.84
371.107	45.23
371.317	4.27
371.528	28.84
371.739	51.37
371.95	86.19
372.16	26.79
372.371	-1.88
372.582	-20.31
372.792	77.99
373.003	71.85
373.214	4.27
373.424	20.65
373.635	0.17
373.846	96.43
374.056	61.61
374.267	37.03
374.477	55.47
374.688	-14.17
374.898	41.13
375.109	41.13
375.319	41.13
375.53	77.99
375.74	59.56
375.951	34.99
376.161	104.62
376.372	90.28
376.582	14.51
376.793	65.71
377.003	41.13
377.214	20.65
377.424	94.38
377.635	116.9
377.845	24.75
378.055	229.54
378.266	-12.12
378.476	28.84
378.686	45.23
378.897	-1.88
379.107	61.61
379.317	41.13
379.528	67.75
379.738	12.46
379.948	-1.88
380.158	-8.02
380.369	30.89
380.579	-5.97
380.789	34.99
380.999	-1.88
381.21	104.62
381.42	98.47
381.63	30.89
381.84	45.23
382.05	28.84
382.261	59.56
382.471	4.27
382.681	4.27
382.891	94.38
383.101	-32.6
383.311	0.17
383.521	39.08
383.731	37.03
383.941	61.61
384.151	47.27
384.361	127.14
384.571	0.17
384.781	86.19
384.991	55.47
385.201	47.27
385.411	39.08
385.621	67.75
385.831	14.51
386.041	88.23
386.251	32.94
386.461	80.04
386.671	28.84
386.881	71.85
387.091	6.31
387.301	123.05
387.511	-1.88
387.72	53.42
387.93	39.08
388.14	0.17
388.35	114.86
388.56	127.14
388.769	57.51
388.979	77.99
389.189	39.08
389.399	53.42
389.609	86.19
389.818	57.51
390.028	71.85
390.238	65.71
390.447	8.36
390.657	20.65
390.867	-26.45
391.076	-26.45
391.286	110.76
391.496	118.95
391.705	118.95
391.915	77.99
392.125	98.47
392.334	30.89
392.544	61.61
392.753	80.04
392.963	57.51
393.172	98.47
393.382	4.27
393.591	86.19
393.801	20.65
394.01	69.8
394.22	94.38
394.429	28.84
394.639	57.51
394.848	86.19
395.058	80.04
395.267	28.84
395.477	153.77
395.686	12.46
395.895	61.61
396.105	143.53
396.314	168.1
396.524	114.86
396.733	47.27
396.942	159.91
397.152	164.01
397.361	45.23
397.57	80.04
397.78	90.28
397.989	86.19
398.198	121
398.407	196.78
398.617	118.95
398.826	47.27
399.035	110.76
399.244	39.08
399.453	100.52
399.663	94.38
399.872	118.95
400.081	43.18
400.29	110.76
400.499	90.28
400.708	139.43
400.917	20.65
401.127	80.04
401.336	104.62
401.545	151.72
401.754	104.62
401.963	30.89
402.172	147.62
402.381	37.03
402.59	151.72
402.799	121
403.008	77.99
403.217	100.52
403.426	135.34
403.635	123.05
403.844	82.09
404.053	147.62
404.262	69.8
404.471	200.87
404.68	170.15
404.888	194.73
405.097	182.44
405.306	241.83
405.515	170.15
405.724	168.1
405.933	217.26
406.142	168.1
406.35	188.58
406.559	151.72
406.768	168.1
406.977	243.88
407.185	280.74
407.394	262.31
407.603	172.2
407.812	284.84
408.02	282.79
408.229	231.59
408.438	211.11
408.646	245.93
408.855	266.41
409.064	325.8
409.272	286.89
409.481	243.88
409.69	336.04
409.898	319.65
410.107	309.41
410.315	266.41
410.524	354.47
410.733	278.69
410.941	434.34
411.15	358.57
411.358	364.71
411.567	450.72
411.775	458.92
411.984	444.58
412.192	489.64
412.401	430.24
412.609	430.24
412.818	544.93
413.026	479.4
413.234	536.74
413.443	536.74
413.651	602.27
413.86	573.6
414.068	678.05
414.276	608.42
414.485	632.99
414.693	671.9
414.901	749.73
415.11	661.66
415.318	741.54
415.526	743.58
415.734	876.7
415.943	798.88
416.151	962.72
416.359	954.52
416.567	905.37
416.776	956.57
416.984	1056.92
417.192	1036.44
417.4	1085.59
417.608	1030.3
417.817	940.19
418.025	1159.32
418.233	1380.5
418.441	1251.48
418.649	1179.8
418.857	1310.87
419.065	1413.27
419.273	1366.17
419.481	1425.56
419.689	1450.13
419.897	1527.96
420.105	1552.53
420.313	1734.8
420.521	1777.81
420.729	1843.34
420.937	1878.16
421.145	1808.53
421.353	2019.47
421.561	2156.68
421.769	2076.81
421.977	2216.07
422.185	2222.22
422.393	2396.29
422.601	2457.73
422.809	2609.28
423.017	2513.03
423.224	2498.69
423.432	2736.26
423.64	2660.48
423.848	2939.01
424.056	2826.37
424.263	3084.41
424.471	3035.26
424.679	3111.04
424.887	3254.39
425.094	3373.18
425.302	3399.8
425.51	3518.58
425.718	3559.54
425.925	3608.69
426.133	3821.68
426.341	4079.72
426.548	4239.47
426.756	4165.74
426.964	4216.94
427.171	4526.18
427.379	4489.32
427.586	4624.48
427.794	4765.79
428.001	5072.99
428.209	5347.42
428.417	5075.04
428.624	5617.75
428.832	5533.78
429.039	5429.34
429.247	5584.98
429.454	5994.58
429.662	6422.6
429.869	6135.89
430.076	6516.81
430.284	6305.87
430.491	6535.24
430.699	6778.95
430.906	6963.26
431.114	6897.73
431.321	7182.4
431.528	7540.79
431.736	7700.53
431.943	8241.2
432.15	7788.6
432.358	8087.6
432.565	8443.95
432.772	8646.69
432.979	9031.71
433.187	9117.73
433.394	8894.5
433.601	9496.6
433.808	9578.52
434.016	9680.92
434.223	10080.27
434.43	10659.85
434.637	10356.75
434.844	11089.92
435.052	11284.48
435.259	11243.52
435.466	10956.8
435.673	11143.17
435.88	12115.95
436.087	12451.82
436.294	12728.3
436.501	12275.7
436.708	12363.76
436.915	12769.26
437.122	13469.66
437.329	13455.33
437.537	13819.86
437.743	14094.29
437.95	14049.24
438.157	14563.28
438.364	15501.25
438.571	15206.34
438.778	15208.39
438.985	16811.95
439.192	15968.18
439.399	16617.39
439.606	15896.5
439.813	17242.02
440.02	17778.59
440.227	17643.42
440.433	17768.35
440.64	18159.51
440.847	18034.58
441.054	18679.69
441.261	19761.02
441.467	19408.77
441.674	19959.67
441.881	20658.03
442.088	20305.78
442.294	20127.61
442.501	20670.32
442.708	21141.35
442.914	22194.01
443.121	22810.45
443.328	22603.6
443.534	23934.78
443.741	23490.37
443.948	22865.74
444.154	24457.01
444.361	24414.01
444.568	24743.73
444.774	24332.09
444.981	24827.7
445.187	25571.11
445.394	26734.35
445.6	26488.6
445.807	28530.42
446.013	27531.01
446.22	27924.22
446.426	29013.74
446.633	29472.49
446.839	30564.06
447.046	29081.33
447.252	31125.2
447.459	31170.26
447.665	30967.51
447.871	32458.43
448.078	33089.2
448.284	32026.31
448.491	32827.06
448.697	34051.75
448.903	34467.48
449.11	34676.38
449.316	33990.31
449.522	34825.88
449.728	35751.56
449.935	35851.91
450.141	36195.97
450.347	36978.29
450.553	35540.62
450.76	35913.35
450.966	37461.62
451.172	36767.35
451.378	38180.45
451.584	37049.97
451.791	37727.85
451.997	37785.19
452.203	38676.06
452.409	38600.29
452.615	38405.73
452.821	37074.55
453.027	36703.87
453.233	38338.15
453.44	36859.51
453.646	37527.15
453.852	37357.17
454.058	37889.64
454.264	36660.86
454.47	37699.18
454.676	36728.44
454.882	38420.06
455.088	34422.43
455.294	35194.51
455.5	36023.94
455.705	36073.09
455.911	34932.37
456.117	34510.49
456.323	33863.33
456.529	31981.25
456.735	33308.33
456.941	32585.4
457.147	31944.39
457.352	30951.12
457.558	30265.05
457.764	30891.73
457.97	30047.97
458.176	29247.21
458.381	29230.83
458.587	28143.36
458.793	27885.31
458.999	26431.26
459.204	28452.6
459.41	27789.06
459.616	25769.76
459.821	25718.56
460.027	26046.24
460.233	25317.16
460.438	23799.62
460.644	24012.6
460.85	23205.7
461.055	22546.26
461.261	22673.23
461.466	21116.78
461.672	20086.65
461.878	21854.05
462.083	20287.35
462.289	20180.85
462.494	19552.13
462.7	18816.91
462.905	18511.76
463.111	18892.68
463.316	18718.61
463.522	18474.9
463.727	18409.36
463.932	18567.06
464.138	18268.05
464.343	18616.21
464.549	17829.79
464.754	18526.1
464.959	18413.46
465.165	17981.34
465.37	17434.53
465.575	16881.58
465.781	17412
465.986	17514.4
466.191	17012.65
466.397	16527.28
466.602	15681.47
466.807	16394.16
467.012	16465.84
467.218	16066.49
467.423	16127.92
467.628	16410.54
467.833	16512.94
468.038	16205.75
468.244	15790.01
468.449	16367.54
468.654	15841.21
468.859	15529.92
469.064	15652.8
469.269	15036.36
469.474	15263.68
469.679	15396.8
469.885	14976.97
470.09	15189.95
470.295	14895.05
470.5	14555.08
470.705	14561.23
470.91	14327.76
471.115	14268.37
471.32	14495.69
471.525	14268.37
471.73	13961.17
471.935	14036.95
472.139	13486.04
472.344	13619.16
472.549	13467.61
472.754	13533.15
472.959	13043.68
473.164	12959.72
473.369	12707.82
473.574	13293.54
473.778	12910.57
473.983	12902.37
474.188	12693.48
474.393	12277.74
474.598	12398.57
474.802	12314.61
475.007	12113.91
475.212	11884.53
475.417	11663.35
475.621	11575.29
475.826	11675.64
476.031	11700.22
476.235	11243.52
476.44	11556.86
476.645	11300.86
476.849	11145.22
477.054	11153.41
477.259	10842.12
477.463	10983.43
477.668	10547.21
477.872	10745.86
478.077	10606.6
478.282	10381.32
478.486	10373.13
478.691	10100.75
478.895	10256.4
479.1	10096.66
479.304	10184.72
479.509	9631.77
479.713	10088.46
479.918	9938.96
480.122	9572.38
480.326	9627.67
480.531	9746.45
480.735	9588.76
480.94	9510.94
481.144	9801.75
481.348	9256.99
481.553	9355.29
481.757	9084.96
481.961	9418.78
482.166	9754.65
482.37	9256.99
482.574	9162.78
482.778	9412.64
482.983	9375.77
483.187	9353.24
483.391	9426.97
483.595	9213.98
483.8	9254.94
484.004	9351.2
484.208	9363.48
484.412	9216.03
484.616	9414.68
484.821	9250.85
485.025	9213.98
485.229	9392.16
485.433	9138.21
485.637	9183.26
485.841	9072.67
486.045	9095.2
486.249	9431.07
486.453	9093.15
486.657	9183.26
486.861	9220.13
487.065	8949.79
487.269	9293.85
487.473	9013.28
487.677	9269.28
487.881	9320.48
488.085	9306.14
488.289	9316.38
488.493	9203.74
488.697	9412.64
488.901	9386.01
489.105	9345.05
489.309	9445.4
489.512	9320.48
489.716	9367.58
489.92	9244.7
490.124	9306.14
490.328	9400.35
490.531	9324.57
490.735	9324.57
490.939	9392.16
491.143	9078.82
491.346	9502.75
491.55	9539.61
491.754	9656.34
491.958	9555.99
492.161	9506.84
492.365	9449.5
492.569	9535.51
492.772	9623.58
492.976	9801.75
493.18	9893.91
493.383	9832.47
493.587	10022.93
493.79	9961.49
493.994	9768.98
494.197	9865.24
494.401	10088.46
494.605	9994.26
494.808	9932.82
495.012	10246.16
495.215	10197.01
495.419	10418.19
495.622	10207.25
495.825	10203.15
496.029	10334.22
496.232	10541.07
496.436	10524.68
496.639	10919.94
496.843	10809.35
497.046	11161.6
497.249	11112.45
497.453	11083.78
497.656	11343.87
497.859	11329.53
498.063	11345.92
498.266	11778.04
498.469	11393.02
498.673	11579.39
498.876	11790.33
499.079	11687.93
499.282	11718.65
499.485	12191.73
499.689	12052.47
499.892	12505.07
500.095	12206.06
500.298	12677.1
500.501	12449.77
500.705	12955.62
500.908	13049.83
501.111	13162.47
501.314	13271.01
501.517	13604.83
501.72	13555.68
501.923	13338.59
502.126	13737.95
502.329	13979.61
502.532	14086.1
502.735	14317.52
502.938	14417.87
503.141	14233.55
503.344	14608.33
503.547	14774.22
503.75	14833.61
503.953	15384.51
504.156	15267.78
504.359	15454.14
504.562	15290.31
504.765	15499.2
504.968	15847.35
505.17	16074.68
505.373	15972.28
505.576	16398.26
505.779	16471.98
505.982	16510.89
506.185	16705.45
506.387	16965.54
506.59	17055.65
506.793	17510.3
506.996	17338.27
507.198	17872.79
507.401	17649.57
507.604	17864.6
507.807	18386.83
508.009	18349.97
508.212	18411.41
508.415	18831.24
508.617	18841.48
508.82	19048.33
509.022	18884.49
509.225	19289.99
509.428	19525.5
509.63	19761.02
509.833	19904.38
510.035	19869.56
510.238	19961.72
510.44	20565.87
510.643	20531.06
510.845	20731.76
511.048	20991.85
511.25	21366.63
511.453	21266.28
511.655	22210.39
511.858	21655.39
512.06	21860.19
512.262	22407
512.465	22091.61
512.667	22628.18
512.87	22716.24
513.072	22953.8
513.274	23058.25
513.477	23512.9
513.679	23713.6
513.881	24020.8
514.084	23885.63
514.286	24203.07
514.488	24393.53
514.69	24780.59
514.893	25071.4
515.095	25067.31
515.297	25202.47
515.499	25040.68
515.701	25702.18
515.904	26017.57
516.106	26013.47
516.308	26154.78
516.51	26793.75
516.712	26591
516.914	26869.52
517.116	27342.6
517.318	27248.39
517.52	27330.31
517.722	27774.72
517.925	28247.8
518.127	27918.08
518.329	28307.19
518.531	28233.47
518.733	28735.22
518.935	29241.07
519.136	28937.97
519.338	29417.19
519.54	29679.33
519.742	29679.33
519.944	29529.83
520.146	30224.09
520.348	30295.77
520.55	30226.14
520.752	30514.91
520.954	31246.03
521.155	30951.12
521.357	31215.31
521.559	31522.51
521.761	31966.91
521.963	31442.63
522.164	31928
522.366	31932.1
522.568	32175.81
522.77	32587.45
522.971	32904.88
523.173	32427.71
523.375	33011.38
523.576	32888.5
523.778	32612.03
523.98	33414.83
524.181	33459.88
524.383	33244.85
524.584	33617.58
524.786	33805.99
524.988	33601.19
525.189	33547.95
525.391	33738.41
525.592	34203.3
525.794	34119.33
525.995	34346.65
526.197	34098.85
526.398	33984.16
526.6	34700.95
526.801	34733.72
527.003	34543.26
527.204	34942.61
527.406	34674.33
527.607	34619.03
527.808	34877.08
528.01	34553.5
528.211	34356.89
528.412	35128.98
528.614	34891.41
528.815	35155.6
529.016	34999.96
529.218	34686.62
529.419	34948.76
529.62	35210.9
529.822	34850.45
530.023	35227.28
530.224	34662.04
530.425	34971.29
530.626	34805.4
530.828	34473.63
531.029	35452.56
531.23	34993.81
531.431	34815.64
531.632	34795.16
531.833	35155.6
532.035	34631.32
532.236	34793.11
532.437	35137.17
532.638	34197.15
532.839	35118.74
533.04	34809.5
533.241	34178.72
533.442	34817.69
533.643	34596.51
533.844	34213.54
534.045	34485.92
534.246	34125.47
534.447	34588.31
534.648	34158.24
534.849	34410.14
535.05	34227.87
535.251	34104.99
535.451	33887.91
535.652	34397.85
535.853	34264.74
536.054	34438.81
536.255	33992.36
536.456	33234.61
536.657	34455.2
536.857	33877.67
537.058	33449.64
537.259	33660.59
537.46	33912.49
537.66	33785.51
537.861	33734.31
538.062	33601.19
538.263	33892.01
538.463	33728.17
538.664	33410.73
538.865	33808.04
539.065	33703.59
539.266	33285.81
539.466	33613.48
539.667	33107.63
539.868	33883.81
540.068	33578.67
540.269	33187.5
540.469	33701.54
540.67	33486.51
540.87	33255.09
541.071	33083.06
541.271	33515.18
541.472	33330.86
541.672	33277.61
541.873	33152.69
542.073	32954.04
542.274	33474.22
542.474	32995
542.675	32995
542.875	33140.4
543.075	32806.58
543.276	32833.21
543.476	33445.55
543.676	32753.33
543.877	32802.49
544.077	33105.59
544.277	32995
544.478	32595.64
544.678	32825.01
544.878	32820.92
545.078	32915.12
545.279	33009.33
545.479	32718.52
545.679	32931.51
545.879	32857.78
546.079	33021.62
546.28	33103.54
546.48	32163.52
546.68	32718.52
546.88	32951.99
547.08	32913.08
547.28	33027.76
547.48	32050.88
547.68	32661.18
547.88	32728.76
548.081	32472.76
548.281	33009.33
548.481	32794.29
548.681	32505.53
548.881	32695.99
549.081	32741.05
549.28	32550.59
549.48	33105.59
549.68	32777.91
549.88	33355.44
550.08	32655.03
550.28	32716.47
550.48	32853.69
550.68	33164.98
550.88	32751.29
551.08	32849.59
551.279	32921.27
551.479	32661.18
551.679	33044.15
551.879	33029.81
552.079	33128.11
552.278	32841.4
552.478	33171.12
552.678	33396.4
552.878	33291.95
553.077	33128.11
553.277	32839.35
553.477	33351.34
553.676	33171.12
553.876	33410.73
554.076	33091.25
554.275	32896.69
554.475	32646.84
554.674	33019.57
554.874	33316.53
555.074	33191.6
555.273	33244.85
555.473	33703.59
555.672	33171.12
555.872	33320.62
556.071	33005.24
556.271	33539.75
556.47	33101.49
556.67	33078.96
556.869	33322.67
557.068	33490.6
557.268	33078.96
557.467	33478.32
557.667	33277.61
557.866	33679.02
558.065	33164.98
558.265	32954.04
558.464	33210.03
558.663	33762.98
558.863	32732.86
559.062	33662.63
559.261	33367.73
559.461	33722.02
559.66	33119.92
559.859	33339.05
560.058	33171.12
560.258	33486.51
560.457	33083.06
560.656	33523.37
560.855	33033.91
561.054	33480.36
561.253	33140.4
561.453	33355.44
561.652	33638.06
561.851	33595.05
562.05	33599.15
562.249	33119.92
562.448	33619.63
562.647	33375.92
562.846	32947.89
563.045	33476.27
563.244	33248.94
563.443	33535.66
563.642	32718.52
563.841	33441.45
564.04	33085.11
564.239	33414.83
564.438	33259.18
564.637	33132.21
564.836	33025.71
565.035	32825.01
565.234	33177.26
565.432	33054.39
565.631	32865.97
565.83	32941.75
566.029	32827.06
566.228	32747.19
566.427	32775.86
566.625	32622.26
566.824	32386.75
567.023	32593.59
567.222	32030.4
567.42	32538.3
567.619	32382.65
567.818	32577.21
568.016	32507.58
568.215	32384.7
568.414	32259.77
568.612	32515.77
568.811	32034.5
569.01	32308.93
569.208	31506.12
569.407	31780.55
569.605	31960.77
569.804	32196.29
570.002	31581.9
570.201	32018.11
570.4	31635.14
570.598	31514.31
570.797	31684.3
570.995	31303.37
571.193	30930.64
571.392	31446.73
571.59	31184.59
571.789	31084.24
571.987	31203.02
572.186	31137.49
572.384	30697.17
572.582	30744.28
572.781	30875.35
572.979	30201.57
573.177	30865.11
573.376	30740.18
573.574	30449.37
573.772	30514.91
573.971	30228.19
574.169	30035.68
574.367	30066.4
574.565	30166.75
574.763	29890.27
574.962	30111.46
575.16	29697.77
575.358	29593.32
575.556	29710.05
575.754	29861.6
575.952	29298.41
576.151	29865.7
576.349	28956.4
576.547	29241.07
576.745	29298.41
576.943	29048.56
577.141	28989.17
577.339	28755.7
577.537	28899.06
577.735	29042.42
577.933	28544.76
578.131	28905.2
578.329	28589.81
578.527	28409.59
578.725	28405.5
578.923	28763.89
579.121	28026.62
579.319	28215.04
579.516	28145.41
579.714	28190.46
579.912	28045.05
580.11	28139.26
580.308	27932.42
580.506	27410.18
580.704	27201.29
580.901	27815.68
581.099	27969.28
581.297	27604.74
581.495	27219.72
581.692	27275.02
581.89	27201.29
582.088	27258.63
582.285	26877.71
582.483	26994.45
582.681	27080.46
582.878	26894.1
583.076	26498.84
583.274	26871.57
583.471	26513.17
583.669	26740.5
583.866	26486.55
584.064	26400.54
584.262	26519.32
584.459	26734.35
584.657	26361.62
584.854	26298.14
585.052	25962.27
585.249	26464.02
585.447	26205.98
585.644	25958.17
585.841	25988.89
586.039	26267.42
586.236	25925.41
586.434	25761.57
586.631	25851.68
586.828	25718.56
587.026	25634.6
587.223	25614.12
587.42	25786.15
587.618	25366.31
587.815	25384.74
588.012	25188.14
588.21	25354.02
588.407	25698.08
588.604	25198.38
588.801	25130.8
588.999	25093.93
589.196	24932.14
589.393	25200.43
589.59	24817.46
589.787	24794.93
589.984	24940.33
590.182	24280.89
590.379	24743.73
590.576	24575.8
590.773	24602.42
590.97	24452.92
591.167	24889.13
591.364	24127.29
591.561	24252.22
591.758	24272.7
591.955	24287.03
592.152	24489.78
592.349	24178.49
592.546	24160.06
592.743	24420.15
592.94	23789.38
593.137	24278.84
593.334	24102.71
593.531	23957.31
593.727	24268.6
593.924	24092.48
594.121	23584.58
594.318	24115
594.515	23600.96
594.712	23742.27
594.908	23887.68
595.105	23969.6
595.302	23435.08
595.499	23828.29
595.696	23590.72
595.892	23580.48
596.089	24057.66
596.286	23621.44
596.482	23686.98
596.679	23660.35
596.876	23465.8
597.072	23422.79
597.269	23582.53
597.466	23396.17
597.662	23328.58
597.859	23488.32
598.055	23648.07
598.252	23170.89
598.448	23252.81
598.645	23463.75
598.841	23121.74
599.038	23633.73
599.234	23539.52
599.431	23211.85
599.627	23273.29
599.824	23396.17
600.02	23295.82
600.217	23529.28
600.413	23400.26
600.609	23062.35
600.806	23318.34
601.002	23439.17
601.198	23156.55
601.395	23240.52
601.591	23355.21
601.787	23469.89
601.984	23473.99
602.18	23572.29
602.376	23279.43
602.572	23136.07
602.769	23566.15
602.965	23205.7
603.161	23261
603.357	23228.23
603.553	23424.84
603.75	23519.04
603.946	23398.21
604.142	23453.51
604.338	23029.58
604.534	23486.28
604.73	23320.39
604.926	23359.3
605.122	23457.6
605.318	23299.91
605.514	23310.15
605.71	23447.36
605.906	23492.42
606.102	23555.91
606.298	23267.14
606.494	23496.52
606.69	23435.08
606.886	23826.24
607.082	23228.23
607.278	23711.55
607.474	23342.92
607.67	23592.77
607.866	23195.46
608.062	23869.25
608.257	23562.05
608.453	23660.35
608.649	23996.22
608.845	23494.47
609.041	23615.3
609.236	23899.97
609.432	23689.03
609.628	23924.54
609.824	23863.1
610.019	23762.75
610.215	23785.28
610.411	24104.76
610.606	23797.57
610.802	23760.7
610.998	23703.36
611.193	24063.8
611.389	24051.52
611.584	24198.97
611.78	23856.96
611.976	24074.04
612.171	24024.89
612.367	24117.05
612.562	24086.33
612.758	23615.3
612.953	23693.12
613.149	23938.88
613.344	23875.39
613.539	24174.39
613.735	24198.97
613.93	24092.48
614.126	24024.89
614.321	24325.94
614.517	24215.35
614.712	24184.63
614.907	23930.69
615.103	23977.79
615.298	24020.8
615.493	24250.17
615.688	23867.2
615.884	24194.87
616.079	23859.01
616.274	24330.04
616.47	24026.94
616.665	24201.02
616.86	23957.31
617.055	24035.13
617.25	23758.66
617.445	24221.5
617.641	23801.66
617.836	24178.49
618.031	23312.2
618.226	23889.73
618.421	23656.26
618.616	23945.02
618.811	23408.45
619.006	23926.59
619.201	23428.93
619.396	23664.45
619.591	23158.6
619.786	23549.76
619.981	23045.96
620.176	23273.29
620.371	23037.77
620.566	23193.42
620.761	22892.37
620.956	23373.64
621.151	22699.86
621.346	23080.78
621.541	22818.64
621.735	23025.48
621.93	22286.17
622.125	22556.5
622.32	22112.09
622.515	22503.25
622.709	22388.57
622.904	22218.58
623.099	22161.24
623.294	22216.54
623.488	21770.08
623.683	21942.11
623.878	21626.72
624.072	21575.52
624.267	21587.81
624.462	21364.58
624.656	21292.9
624.851	21436.26
625.046	20952.94
625.24	21147.5
625.435	21096.3
625.629	20885.36
625.824	20860.78
626.018	20670.32
626.213	20672.37
626.407	20547.44
626.602	20313.97
626.796	20273.01
626.991	20559.73
627.185	20404.08
627.38	20072.31
627.574	20051.83
627.768	19750.78
627.963	19902.33
628.157	19746.69
628.352	19582.85
628.546	19388.29
628.74	19722.11
628.935	19306.37
629.129	19410.82
629.323	18945.93
629.517	19046.28
629.712	18866.06
629.906	19150.73
630.1	18917.26
630.294	18679.69
630.489	18450.32
630.683	18780.04
630.877	18517.9
631.071	18288.53
631.265	18347.92
631.459	18225.04
631.653	18108.31
631.848	18114.45
632.042	17772.44
632.236	17897.37
632.43	17778.59
632.624	17833.88
632.818	17448.86
633.012	17299.36
633.206	17473.44
633.4	17524.64
633.594	17029.03
633.788	16990.12
633.982	17160.1
634.176	17143.72
634.369	16863.15
634.563	16820.14
634.757	16699.31
634.951	16846.76
635.145	16637.87
635.339	16713.64
635.533	16185.27
635.726	16340.91
635.92	16150.45
636.114	16230.32
636.308	16080.82
636.501	16033.72
636.695	15945.66
636.889	15534.01
637.083	15538.11
637.276	15617.98
637.47	15601.6
637.664	15521.73
637.857	15718.33
638.051	15437.76
638.244	15151.04
638.438	15194.05
638.632	15091.65
638.825	14843.85
639.019	14815.18
639.212	14804.94
639.406	15079.36
639.599	14436.3
639.793	14567.37
639.986	14272.46
640.18	14301.14
640.373	14446.54
640.567	14372.82
640.76	14217.17
640.954	13959.13
641.147	13864.92
641.34	13889.49
641.534	13961.17
641.727	13840.34
641.92	13719.51
642.114	13731.8
642.307	13479.9
642.5	13451.23
642.694	13119.46
642.887	13160.42
643.08	13373.41
643.273	12976.1
643.467	13098.98
643.66	12701.67
643.853	12713.96
644.046	12810.22
644.239	12656.62
644.432	12689.39
644.626	12433.39
644.819	12326.89
645.012	12244.98
645.205	12359.66
645.398	12279.79
645.591	12083.19
645.784	12228.59
645.977	12017.65
646.17	12046.32
646.363	11835.38
646.556	11907.06
646.749	11751.42
646.942	11819
647.135	11859.96
647.328	11782.13
647.521	11409.4
647.714	11155.46
647.907	11433.98
648.099	11335.68
648.292	11347.97
648.485	11055.11
648.678	10883.08
648.871	10985.48
649.064	10919.94
649.256	11044.87
649.449	10897.41
649.642	10729.48
649.835	10645.51
650.027	10692.62
650.22	10489.87
650.413	10510.35
650.605	10502.15
650.798	10395.66
650.991	10416.14
651.183	10436.62
651.376	10119.18
651.568	10299.41
651.761	10211.34
651.954	10063.89
652.146	10141.71
652.339	9938.96
652.531	10029.07
652.724	9789.46
652.916	9621.53
653.109	9891.86
653.301	9799.7
653.494	9793.56
653.686	9459.74
653.879	9764.89
654.071	9662.49
654.263	9390.11
654.456	9375.77
654.648	9584.66
654.84	9197.6
655.033	9199.65
655.225	9232.41
655.417	9211.93
655.61	9076.77
655.802	9383.96
655.994	9074.72
656.186	8998.95
656.379	8974.37
656.571	8951.84
656.763	8732.71
656.955	8794.15
657.148	8894.5
657.34	8798.24
657.532	8704.04
657.724	8548.39
657.916	8638.5
658.108	8556.58
658.3	8558.63
658.492	8509.48
658.684	8171.57
658.876	8265.77
659.068	8263.72
659.26	8208.43
659.452	8202.29
659.644	8155.18
659.836	8183.85
660.028	8040.5
660.22	7696.44
660.412	7962.67
660.604	7878.71
660.796	7929.91
660.988	7999.54
661.18	7680.05
661.372	7696.44
661.563	7821.36
661.755	7659.57
661.947	7764.02
662.139	7403.58
662.331	7606.33
662.522	7479.35
662.714	7456.82
662.906	7387.19
663.097	7518.26
663.289	7225.4
663.481	7442.49
663.673	7247.93
663.864	7141.44
664.056	7110.72
664.247	7071.81
664.439	7004.22
664.631	7084.09
664.822	7036.99
665.014	6879.3
665.205	6905.92
665.397	6977.6
665.588	6942.78
665.78	6787.14
665.971	6871.11
666.163	6795.33
666.354	6799.43
666.546	6713.41
666.737	6600.77
666.929	6641.73
667.12	6547.53
667.311	6430.79
667.503	6486.09
667.694	6500.42
667.885	6541.38
668.077	6340.68
668.268	6402.12
668.459	6361.16
668.651	6307.91
668.842	6254.67
669.033	6199.37
669.224	6490.18
669.416	6238.28
669.607	6133.84
669.798	5990.48
669.989	6238.28
670.18	6066.25
670.371	6076.49
670.563	5894.22
670.754	6070.35
670.945	5937.23
671.136	6058.06
671.327	5922.9
671.518	5916.75
671.709	5926.99
671.9	5924.94
672.091	5886.03
672.282	5828.69
672.473	5740.63
672.664	6072.4
672.855	5783.63
673.046	5773.39
673.237	5832.79
673.428	5726.29
673.619	5681.24
673.809	5689.43
674	5652.56
674.191	5601.37
674.382	5836.88
674.573	5634.13
674.764	5546.07
674.954	5681.24
675.145	5533.78
675.336	5681.24
675.527	5505.11
675.717	5611.61
675.908	5361.75
676.099	5533.78
676.289	5535.83
676.48	5464.15
676.671	5460.06
676.861	5460.06
677.052	5421.14
677.243	5314.65
677.433	5279.83
677.624	5462.1
677.814	5439.58
678.005	5300.31
678.195	5349.47
678.386	5296.22
678.576	5331.03
678.767	5314.65
678.957	5271.64
679.148	5314.65
679.338	5277.79
679.529	5302.36
679.719	5396.57
679.909	5267.55
680.1	5312.6
680.29	5210.2
680.481	5242.97
680.671	5124.19
680.861	5257.31
681.052	5261.4
681.242	5339.23
681.432	5296.22
681.622	5181.53
681.813	5212.25
682.003	5116
682.193	5070.94
682.383	5083.23
682.573	5238.87
682.764	5042.27
682.954	5214.3
683.144	5128.28
683.334	5105.76
683.524	5048.41
683.714	5163.1
683.904	4993.12
684.094	5144.67
684.284	5036.13
684.474	5345.37
684.664	5011.55
684.854	5025.89
685.044	4991.07
685.234	5034.08
685.424	5099.61
685.614	4939.87
685.804	4921.44
685.994	5103.71
686.184	5050.46
686.374	5072.99
686.564	4894.82
686.753	5013.6
686.943	4812.9
687.133	4919.39
687.323	4921.44
687.513	4894.82
687.702	4810.85
687.892	4790.37
688.082	4837.47
688.272	4833.38
688.461	4653.16
688.651	4792.42
688.841	4665.44
689.03	4778.08
689.22	4687.97
689.41	4804.71
689.599	4720.74
689.789	4882.53
689.979	4716.64
690.168	4595.81
690.358	4681.83
690.547	4712.55
690.737	4745.31
690.926	4796.51
691.116	4528.23
691.305	4665.44
691.495	4448.36
691.684	4534.37
691.874	4493.41
692.063	4620.39
692.252	4647.01
692.442	4446.31
692.631	4386.92
692.82	4554.85
693.01	4511.85
693.199	4436.07
693.388	4305
693.578	4419.69
693.767	4313.19
693.956	4378.73
694.146	4300.91
694.335	4444.26
694.524	4382.82
694.713	4337.77
694.902	4313.19
695.092	4417.64
695.281	4423.78
695.47	4376.68
695.659	4212.84
695.848	4317.29
696.037	4305
696.226	4341.86
696.415	4184.17
696.604	4317.29
696.793	4259.95
696.982	4216.94
697.171	4190.31
697.36	4247.66
697.549	4165.74
697.738	4110.44
697.927	4155.5
698.116	4255.85
698.305	3989.61
698.494	4124.78
698.683	4280.43
698.872	4259.95
699.061	4038.77
699.25	4153.45
699.438	4210.79
699.627	4157.55
699.816	4100.2
700.005	4075.63
700.193	4092.01
700.382	4210.79
700.571	3946.61
700.76	3874.93
700.948	4100.2
701.137	4163.69
701.326	4153.45
701.514	4044.91
701.703	3954.8
701.892	4018.29
702.08	3956.85
702.269	4085.87
702.457	4030.57
702.646	3913.84
702.834	4010.09
703.023	3946.61
703.212	3944.56
703.4	3856.5
703.589	3989.61
703.777	3928.17
703.965	4001.9
704.154	3752.05
704.342	3866.74
704.531	3760.24
704.719	3838.06
704.907	3854.45
705.096	3733.62
705.284	3764.34
705.472	3774.58
705.661	3913.84
705.849	3772.53
706.037	3780.72
706.226	3754.1
706.414	3637.36
706.602	3551.35
706.79	3833.97
706.979	3821.68
707.167	3702.9
707.355	3643.51
707.543	3678.32
707.731	3620.98
707.919	3690.61
708.107	3571.83
708.296	3627.12
708.484	3580.02
708.672	3586.16
708.86	3584.12
709.048	3682.42
709.236	3362.94
709.424	3567.73
709.612	3522.68
709.8	3561.59
709.988	3555.44
710.176	3612.79
710.364	3563.64
710.551	3559.54
710.739	3487.86
710.927	3537.01
711.115	3614.84
711.303	3516.53
711.491	3412.09
711.679	3489.91
711.866	3453.05
712.054	3414.13
712.242	3385.46
712.43	3442.81
712.617	3344.5
712.805	3485.81
712.993	3395.7
713.181	3407.99
713.368	3367.03
713.556	3330.17
713.744	3270.78
713.931	3385.46
714.119	3307.64
714.306	3217.53
714.494	3240.06
714.682	3432.57
714.869	3240.06
715.057	3190.91
715.244	3356.79
715.432	3373.18
715.619	3254.39
715.807	3227.77
715.994	3289.21
716.182	3192.95
716.369	3371.13
716.556	3207.29
716.744	3129.47
716.931	3285.11
717.119	3147.9
717.306	3145.85
717.493	3127.42
717.681	3147.9
717.868	3326.07
718.055	3111.04
718.242	3078.27
718.43	3174.52
718.617	3227.77
718.804	3086.46
718.991	3068.03
719.179	3192.95
719.366	2994.3
719.553	3012.73
719.74	3045.5
719.927	3043.45
720.114	3065.98
720.301	2957.44
720.488	2865.28
720.676	3002.49
720.863	3070.08
721.05	3076.22
721.237	3039.36
721.424	2945.15
721.611	2963.58
721.798	3012.73
721.985	3039.36
722.172	2912.38
722.358	2953.34
722.545	2912.38
722.732	3010.68
722.919	2961.53
723.106	2791.55
723.293	2936.96
723.48	2697.35
723.667	2924.67
723.853	2846.85
724.04	2855.04
724.227	2930.81
724.414	2875.52
724.6	2916.48
724.787	2994.3
724.974	2971.77
725.161	2791.55
725.347	2670.72
725.534	2855.04
725.72	2705.54
725.907	2924.67
726.094	2826.37
726.28	2697.35
726.467	2748.54
726.653	2773.12
726.84	2609.28
727.027	2799.74
727.213	2762.88
727.4	2799.74
727.586	2781.31
727.773	2728.07
727.959	2775.17
728.145	2855.04
728.332	2613.38
728.518	2652.29
728.705	2625.67
728.891	2779.26
729.077	2664.58
729.264	2553.99
729.45	2683.01
729.636	2609.28
729.823	2691.2
730.009	2660.48
730.195	2605.19
730.382	2756.74
730.568	2711.68
730.754	2576.52
730.94	2461.83
731.126	2588.8
731.313	2521.22
731.499	2668.67
731.685	2465.93
731.871	2697.35
732.057	2504.84
732.243	2529.41
732.429	2543.75
732.615	2531.46
732.801	2617.47
732.987	2576.52
733.173	2619.52
733.359	2678.91
733.545	2584.71
733.731	2621.57
733.917	2678.91
734.103	2472.07
734.289	2568.32
734.475	2332.81
734.661	2447.49
734.847	2551.94
735.033	2592.9
735.219	2562.18
735.404	2478.21
735.59	2502.79
735.776	2560.13
735.962	2429.06
736.148	2603.14
736.333	2431.11
736.519	2494.6
736.705	2347.14
736.89	2347.14
737.076	2345.09
737.262	2384.01
737.447	2424.97
737.633	2392.2
737.819	2488.45
738.004	2445.45
738.19	2427.01
738.375	2396.29
738.561	2424.97
738.747	2384.01
738.932	2404.49
739.118	2379.91
739.303	2379.91
739.489	2371.72
739.674	2341
739.859	2369.67
740.045	2355.33
740.23	2261.13
740.416	2236.55
740.601	2291.85
740.786	2248.84
740.972	2177.16
741.157	2287.75
741.342	2193.55
741.528	2273.42
741.713	2216.07
741.898	2279.56
742.084	2250.89
742.269	2226.31
742.454	2259.08
742.639	2160.78
742.824	2211.98
743.01	2177.16
743.195	2142.35
743.38	2220.17
743.565	2134.15
743.75	2039.95
743.935	2173.07
744.12	2099.34
744.305	2052.24
744.49	2076.81
744.675	2144.39
744.86	1947.79
745.045	2074.76
745.23	2007.18
745.415	2062.48
745.6	2109.58
745.785	1994.89
745.97	2068.62
746.155	2009.23
746.34	1998.99
746.525	1972.36
746.71	1925.26
746.895	1876.11
747.079	1933.45
747.264	1847.44
747.449	1960.08
747.634	1814.67
747.819	2009.23
748.003	1929.36
748.188	1822.86
748.373	1810.58
748.557	1859.73
748.742	1712.27
748.927	1906.83
749.111	1783.95
749.296	1753.23
749.481	1786
749.665	1716.37
749.85	1669.27
750.034	1773.71
750.219	1765.52
750.404	1781.9
750.588	1593.49
750.773	1603.73
750.957	1683.6
751.141	1730.7
751.326	1646.74
751.51	1558.67
751.695	1560.72
751.879	1562.77
752.064	1671.31
752.248	1581.2
752.432	1652.88
752.617	1622.16
752.801	1495.19
752.985	1650.83
753.17	1527.96
753.354	1491.09
753.538	1478.8
753.722	1585.3
753.907	1544.34
754.091	1495.19
754.275	1472.66
754.459	1575.06
754.643	1505.43
754.828	1464.47
755.012	1468.56
755.196	1376.41
755.38	1384.6
755.564	1415.32
755.748	1347.73
755.932	1437.84
756.116	1364.12
756.3	1317.01
756.484	1329.3
756.668	1304.73
756.852	1253.53
757.036	1284.25
757.22	1343.64
757.404	1329.3
757.588	1261.72
757.772	1261.72
757.956	1292.44
758.14	1276.06
758.323	1228.95
758.507	1257.62
758.691	1271.96
758.875	1257.62
759.059	1265.82
759.242	1282.2
759.426	1243.29
759.61	1192.09
759.794	1159.32
759.977	1171.61
760.161	1192.09
760.345	1231
760.528	1251.48
760.712	1157.27
760.895	1126.55
761.079	1151.13
761.263	1050.78
761.446	1101.98
761.63	1114.27
761.813	1134.75
761.997	1065.11
762.18	1079.45
762.364	1085.59
762.547	1058.97
762.731	1228.95
762.914	1061.02
763.098	1028.25
763.281	1028.25
763.464	1054.87
763.648	1157.27
763.831	1081.5
764.015	1085.59
764.198	1063.07
764.381	1005.72
764.564	960.67
764.748	1020.06
764.931	1079.45
765.114	921.76
765.297	1085.59
765.481	966.81
765.664	1052.83
765.847	1020.06
766.03	956.57
766.213	950.43
766.397	1028.25
766.58	897.18
766.763	964.76
766.946	907.42
767.129	1077.4
767.312	925.85
767.495	907.42
767.678	964.76
767.861	1026.2
768.044	997.53
768.227	956.57
768.41	950.43
768.593	1003.68
768.776	903.32
768.959	964.76
769.142	950.43
769.324	995.48
769.507	921.76
769.69	909.47
769.873	921.76
770.056	1020.06
770.239	835.74
770.421	932
770.604	839.84
770.787	888.99
770.97	938.14
771.152	841.89
771.335	882.85
771.518	895.13
771.7	936.09
771.883	925.85
772.066	792.73
772.248	831.65
772.431	888.99
772.613	835.74
772.796	886.94
772.978	905.37
773.161	880.8
773.343	735.39
773.526	766.11
773.708	786.59
773.891	774.3
774.073	684.19
774.256	786.59
774.438	917.66
774.621	782.49
774.803	835.74
774.985	712.86
775.168	794.78
775.35	661.66
775.532	729.25
775.715	743.58
775.897	766.11
776.079	798.88
776.261	839.84
776.444	798.88
776.626	774.3
776.808	688.29
776.99	739.49
777.173	708.77
777.355	671.9
777.537	811.17
777.719	632.99
777.901	671.9
778.083	594.08
778.265	645.28
778.447	684.19
778.629	659.62
778.811	667.81
778.993	708.77
779.175	692.38
779.357	641.18
779.539	585.89
779.721	719.01
779.903	618.66
780.085	577.7
780.267	596.13
780.449	610.47
780.631	741.54
780.812	594.08
780.994	581.79
781.176	585.89
781.358	594.08
781.54	561.31
781.721	602.27
781.903	663.71
782.085	604.32
782.267	602.27
782.448	645.28
782.63	512.16
782.812	536.74
782.993	637.09
783.175	503.97
783.357	471.2
783.538	551.07
783.72	555.17
783.901	532.64
784.083	485.54
784.264	534.69
784.446	473.25
784.627	454.82
784.809	575.65
784.99	487.59
785.172	524.45
785.353	555.17
785.535	463.01
785.716	452.77
785.897	413.86
786.079	426.15
786.26	518.31
786.441	528.55
786.623	463.01
786.804	473.25
786.985	391.33
787.167	442.53
787.348	401.57
787.529	405.67
787.71	469.16
787.891	436.39
788.073	432.29
788.254	391.33
788.435	487.59
788.616	381.09
788.797	438.44
788.978	415.91
789.159	438.44
789.34	391.33
789.522	342.18
789.703	352.42
789.884	409.76
790.065	428.2
790.246	385.19
790.427	372.9
790.607	430.24
790.788	381.09
790.969	350.37
791.15	243.88
791.331	391.33
791.512	411.81
791.693	315.56
791.874	405.67
792.054	350.37
792.235	399.52
792.416	315.56
792.597	315.56
792.778	329.89
792.958	270.5
793.139	315.56
793.32	356.52
793.5	315.56
793.681	364.71
793.862	348.33
794.042	350.37
794.223	309.41
794.404	358.57
794.584	331.94
794.765	293.03
794.945	319.65
795.126	315.56
795.306	368.81
795.487	276.65
795.667	290.98
795.848	325.8
796.028	266.41
796.209	250.02
796.389	254.12
796.57	303.27
796.75	266.41
796.93	280.74
797.111	356.52
797.291	301.22
797.471	219.3
797.652	217.26
797.832	256.17
798.012	352.42
798.192	309.41
798.373	194.73
798.553	200.87
798.733	290.98
798.913	213.16
799.093	217.26
799.274	227.5
799.454	241.83
799.634	344.23
799.814	266.41
799.994	286.89
800.174	233.64
800.354	241.83
800.534	262.31
800.714	213.16
800.894	229.54
801.074	266.41
801.254	151.72
801.434	266.41
801.614	196.78
801.794	252.07
801.974	1026.2
802.154	207.02
802.334	288.93
802.514	145.58
802.693	268.45
802.873	235.69
803.053	295.08
803.233	215.21
803.413	241.83
803.592	170.15
803.772	192.68
803.952	168.1
804.131	188.58
804.311	182.44
804.491	180.39
804.67	141.48
804.85	225.45
805.03	243.88
805.209	184.49
805.389	186.54
805.568	147.62
805.748	202.92
805.928	241.83
806.107	225.45
806.287	129.19
806.466	159.91
806.646	188.58
806.825	229.54
807.004	192.68
807.184	194.73
807.363	114.86
807.543	204.97
807.722	176.3
807.901	217.26
808.081	166.06
808.26	65.71
808.439	237.74
808.619	178.34
808.798	180.39
808.977	217.26
809.156	196.78
809.336	178.34
809.515	233.64
809.694	153.77
809.873	159.91
810.052	202.92
810.231	231.59
810.411	227.5
810.59	106.67
810.769	145.58
810.948	213.16
811.127	153.77
811.306	213.16
811.485	184.49
811.664	233.64
811.843	196.78
812.022	127.14
812.201	155.82
812.38	147.62
812.559	114.86
812.737	102.57
812.916	84.14
813.095	102.57
813.274	196.78
813.453	151.72
813.632	69.8
813.811	159.91
813.989	153.77
814.168	161.96
814.347	96.43
814.526	215.21
814.704	194.73
814.883	168.1
815.062	39.08
815.24	129.19
815.419	94.38
815.598	129.19
815.776	67.75
815.955	129.19
816.133	61.61
816.312	102.57
816.49	94.38
816.669	102.57
816.847	159.91
817.026	118.95
817.204	204.97
817.383	102.57
817.561	67.75
817.74	49.32
817.918	137.38
818.097	145.58
818.275	65.71
818.453	198.82
818.632	164.01
818.81	153.77
818.988	131.24
819.167	51.37
819.345	108.71
819.523	118.95
819.701	129.19
819.879	123.05
820.058	106.67
820.236	133.29
820.414	129.19
820.592	100.52
820.77	73.9
820.948	94.38
821.127	102.57
821.305	102.57
821.483	28.84
821.661	217.26
821.839	137.38
822.017	104.62
822.195	102.57
822.373	96.43
822.551	37.03
822.729	61.61
822.907	135.34
823.085	143.53
823.262	94.38
823.44	112.81
823.618	65.71
823.796	41.13
823.974	30.89
824.152	59.56
824.329	94.38
824.507	102.57
824.685	172.2
824.863	82.09
825.04	143.53
825.218	110.76
825.396	90.28
825.574	28.84
825.751	135.34
825.929	141.48
826.107	77.99
826.284	86.19
826.462	34.99
826.639	39.08
826.817	-3.93
826.994	59.56
827.172	-1.88
827.349	174.25
827.527	118.95
827.704	110.76
827.882	131.24
828.059	45.23
828.237	43.18
828.414	61.61
828.591	-51.03
828.769	63.66
828.946	61.61
829.124	98.47
829.301	63.66
829.478	61.61
829.655	69.8
829.833	69.8
830.01	90.28
830.187	127.14
830.364	71.85
830.542	53.42
830.719	147.62
830.896	121
831.073	34.99
831.25	28.84
831.427	161.96
831.604	98.47
831.782	90.28
831.959	71.85
832.136	24.75
832.313	22.7
832.49	57.51
832.667	61.61
832.844	47.27
833.021	96.43
833.198	77.99
833.374	61.61
833.551	32.94
833.728	112.81
833.905	90.28
834.082	6.31
834.259	92.33
834.436	84.14
834.612	102.57
834.789	28.84
834.966	24.75
835.143	28.84
835.319	106.67
835.496	168.1
835.673	102.57
835.85	100.52
836.026	143.53
836.203	116.9
836.38	-36.69
836.556	121
836.733	37.03
836.909	116.9
837.086	53.42
837.262	-30.55
837.439	37.03
837.616	24.75
837.792	75.95
837.968	123.05
838.145	-14.17
838.321	57.51
838.498	73.9
838.674	77.99
838.851	55.47
839.027	10.41
839.203	39.08
839.38	75.95
839.556	14.51
839.732	94.38
839.909	53.42
840.085	32.94
840.261	-24.4
840.437	-10.07
840.614	34.99
840.79	24.75
840.966	-8.02
841.142	84.14
841.318	57.51
841.494	53.42
841.671	49.32
841.847	59.56
842.023	-24.4
842.199	104.62
842.375	106.67
842.551	-1.88
842.727	32.94
842.903	108.71
843.079	41.13
843.255	69.8
843.431	12.46
843.607	8.36
843.783	4.27
843.959	16.55
844.134	24.75
844.31	114.86
844.486	10.41
844.662	55.47
844.838	22.7
845.013	28.84
845.189	47.27
845.365	98.47
845.541	55.47
845.716	88.23
845.892	30.89
846.068	20.65
846.244	-3.93
846.419	98.47
846.595	28.84
846.77	-53.08
846.946	82.09
847.122	-28.5
847.297	16.55
847.473	34.99
847.648	41.13
847.824	82.09
847.999	37.03
848.175	53.42
848.35	2.22
848.526	12.46
848.701	-3.93
848.876	26.79
849.052	49.32
849.227	-16.21
849.403	12.46
849.578	16.55
849.753	28.84
849.929	61.61
850.104	-12.12
850.279	53.42
850.454	41.13
850.63	28.84
850.805	20.65
850.98	26.79
851.155	37.03
851.33	22.7
851.505	14.51
851.681	22.7
851.856	-42.84
852.031	-16.21
852.206	53.42
852.381	41.13
852.556	-12.12
852.731	80.04
852.906	16.55
853.081	65.71
853.256	37.03
853.431	-20.31
853.606	49.32
853.781	61.61
853.956	14.51
854.131	-26.45
854.305	-20.31
854.48	-1.88
854.655	-48.98
854.83	-12.12
855.005	98.47
855.18	22.7
855.354	-18.26
855.529	55.47
855.704	-61.27
855.879	96.43
856.053	-57.17
856.228	12.46
856.403	37.03
856.577	-20.31
856.752	12.46
856.926	22.7
857.101	16.55
857.276	-48.98
857.45	39.08
857.625	4.27
857.799	28.84
857.974	32.94
858.148	-1.88
858.323	26.79
858.497	-81.75
858.672	-40.79
858.846	-10.07
859.02	-44.88
859.195	-12.12
859.369	57.51
859.543	41.13
859.718	-40.79
859.892	-30.55
860.066	-77.65
860.241	-40.79
860.415	-18.26
860.589	2.22
860.763	-3.93
860.938	-28.5
861.112	-8.02
861.286	24.75
861.46	-53.08
861.634	10.41
861.808	20.65
861.982	-3.93
862.157	-12.12
862.331	-20.31
862.505	47.27
862.679	-5.97
862.853	61.61
863.027	45.23
863.201	57.51
863.375	24.75
863.549	26.79
863.722	45.23
863.896	96.43
864.07	-20.31
864.244	-12.12
864.418	-8.02
864.592	12.46
864.766	34.99
864.939	37.03
865.113	-18.26
865.287	94.38
865.461	0.17
865.634	32.94
865.808	10.41
865.982	18.6
866.156	-12.12
866.329	-12.12
866.503	30.89
866.676	45.23
866.85	14.51
867.024	-32.6
867.197	39.08
867.371	6.31
867.544	-26.45
867.718	12.46
867.891	12.46
868.065	-3.93
868.238	-26.45
868.412	47.27
868.585	14.51
868.759	34.99
868.932	-53.08
869.105	-30.55
869.279	67.75
869.452	22.7
869.625	28.84
869.799	55.47
869.972	-8.02
870.145	-18.26
870.319	22.7
870.492	-3.93
870.665	-85.84
870.838	45.23
871.011	-102.23
871.185	-10.07
871.358	22.7
871.531	28.84
871.704	-32.6
871.877	43.18
872.05	-8.02
872.223	-8.02
872.396	-67.41
872.569	4.27
872.742	34.99
872.915	16.55
873.088	0.17
873.261	-32.6
873.434	39.08
873.607	32.94
873.78	43.18
873.953	-67.41
874.126	90.28
874.299	51.37
874.471	-18.26
874.644	-18.26
874.817	86.19
874.99	30.89
875.163	4.27
875.335	32.94
875.508	-20.31
875.681	-51.03
875.853	-10.07
876.026	61.61
876.199	16.55
876.371	-51.03
876.544	14.51
876.717	18.6
876.889	39.08
877.062	12.46
877.234	-3.93
877.407	-32.6
877.579	-8.02
877.752	32.94
877.924	6.31
878.097	39.08
878.269	45.23
878.442	-3.93
878.614	47.27
878.786	39.08
878.959	-67.41
879.131	-10.07
879.303	-20.31
879.476	-30.55
879.648	-3.93
879.82	-8.02
879.993	47.27
880.165	-75.6
880.337	-1.88
880.509	-57.17
880.681	-34.64
880.854	-24.4
881.026	-1.88
881.198	61.61
881.37	-1.88
881.542	37.03
881.714	39.08
881.886	28.84
882.058	-63.32
882.23	-32.6
882.402	6.31
882.574	28.84
882.746	-51.03
882.918	-36.69
883.09	-32.6
883.262	-38.74
883.434	16.55
883.606	-20.31
883.778	77.99
883.95	45.23
884.122	45.23
884.293	-20.31
884.465	-8.02
884.637	96.43
884.809	-46.93
884.98	61.61
885.152	-83.8
885.324	14.51
885.496	-1.88
885.667	0.17
885.839	-44.88
886.011	55.47
886.182	12.46
886.354	14.51
886.525	-26.45
886.697	4.27
886.869	12.46
887.04	45.23
887.212	4.27
887.383	63.66
887.555	32.94
887.726	-12.12
887.897	-53.08
888.069	4.27
888.24	55.47
888.412	0.17
888.583	-18.26
888.754	-3.93
888.926	-44.88
889.097	12.46
889.268	-20.31
889.44	6.31
889.611	-94.04
889.782	30.89
889.953	-24.4
890.125	69.8
890.296	-59.22
890.467	-28.5
890.638	-10.07
890.809	55.47
890.98	8.36
891.151	39.08
891.323	37.03
891.494	20.65
891.665	-38.74
891.836	-77.65
892.007	-36.69
892.178	8.36
892.349	39.08
892.52	-77.65
892.691	4.27
892.862	53.42
893.032	-65.36
893.203	37.03
893.374	24.75
893.545	63.66
893.716	-44.88
893.887	28.84
894.057	-10.07
894.228	-36.69
894.399	61.61
894.57	24.75
894.74	30.89
894.911	57.51
895.082	6.31
895.253	20.65
895.423	-12.12
895.594	28.84
895.764	26.79
895.935	-48.98
896.106	53.42
896.276	-28.5
896.447	-57.17
896.617	-1.88
896.788	12.46
896.958	-48.98
897.129	-16.21
897.299	57.51
897.47	57.51
897.64	94.38
897.81	-36.69
897.981	45.23
898.151	34.99
898.322	-3.93
898.492	-20.31
898.662	-34.64
898.832	-12.12
899.003	-24.4
899.173	-48.98
899.343	-34.64
899.513	-57.17
