Data from USB4F104151__262__14-34-32-105.txt Node

Date: Thu Mar 13 14:34:32 EDT 2025
User: louis
Spectrometer: USB4F10415
Trigger mode: 4
Integration Time (sec): 2.500000E-2
Scans to average: 1
Electric dark correction enabled: true
Nonlinearity correction enabled: false
Boxcar width: 0
XAxis mode: Wavelengths
Number of Pixels in Spectrum: 3648
>>>>>Begin Spectral Data<<<<<
178.204	-124.58
178.424	-124.58
178.644	-124.58
178.864	-190.12
179.084	-124.58
179.304	-3.75
179.524	10.58
179.744	-40.62
179.964	43.35
180.184	14.68
180.404	-11.95
180.624	6.49
180.844	69.97
181.064	-11.95
181.283	20.82
181.503	-87.72
181.723	-9.9
181.943	-50.86
182.163	53.59
182.383	-52.91
182.602	86.36
182.822	49.49
183.042	45.4
183.262	-30.38
183.482	41.3
183.701	0.34
183.921	6.49
184.141	-42.67
184.361	63.83
184.58	-3.75
184.8	-11.95
185.02	-71.34
185.239	86.36
185.459	0.34
185.679	18.77
185.898	24.92
186.118	69.97
186.338	-28.33
186.557	-11.95
186.777	-20.14
186.997	90.45
187.216	-3.75
187.436	86.36
187.655	78.16
187.875	37.2
188.095	-3.75
188.314	41.3
188.534	94.55
188.753	12.63
188.973	-24.23
189.192	39.25
189.412	-11.95
189.631	151.89
189.851	72.02
190.07	86.36
190.29	72.02
190.509	78.16
190.729	22.87
190.948	59.73
191.168	98.64
191.387	-3.75
191.607	45.4
191.826	16.73
192.045	14.68
192.265	45.4
192.484	-50.86
192.704	12.63
192.923	-32.43
193.142	61.78
193.362	-44.71
193.581	24.92
193.8	-24.23
194.02	29.01
194.239	-1.71
194.458	-22.19
194.678	-3.75
194.897	45.4
195.116	26.96
195.335	53.59
195.555	45.4
195.774	33.11
195.993	4.44
196.212	-44.71
196.432	31.06
196.651	31.06
196.87	39.25
197.089	98.64
197.308	-3.75
197.528	72.02
197.747	-44.71
197.966	29.01
198.185	88.4
198.404	82.26
198.623	-1.71
198.842	49.49
199.062	12.63
199.281	78.16
199.5	6.49
199.719	-28.33
199.938	18.77
200.157	16.73
200.376	88.4
200.595	4.44
200.814	22.87
201.033	57.68
201.252	41.3
201.471	-16.04
201.69	-30.38
201.909	-11.95
202.128	16.73
202.347	49.49
202.566	41.3
202.785	29.01
203.004	-32.43
203.223	110.93
203.442	10.58
203.661	-11.95
203.879	-40.62
204.098	84.31
204.317	35.16
204.536	102.74
204.755	18.77
204.974	-32.43
205.193	6.49
205.411	29.01
205.63	6.49
205.849	47.44
206.068	-11.95
206.287	-26.28
206.505	-16.04
206.724	53.59
206.943	-28.33
207.162	31.06
207.381	-13.99
207.599	-59.05
207.818	24.92
208.037	41.3
208.255	20.82
208.474	20.82
208.693	65.88
208.911	29.01
209.13	-3.75
209.349	94.55
209.567	45.4
209.786	4.44
210.005	29.01
210.223	29.01
210.442	-32.43
210.661	53.59
210.879	49.49
211.098	33.11
211.316	-11.95
211.535	94.55
211.753	61.78
211.972	4.44
212.191	-9.9
212.409	47.44
212.628	51.54
212.846	-63.15
213.065	8.53
213.283	119.12
213.502	16.73
213.72	20.82
213.938	-28.33
214.157	39.25
214.375	78.16
214.594	41.3
214.812	45.4
215.031	-34.47
215.249	14.68
215.467	37.2
215.686	29.01
215.904	59.73
216.122	57.68
216.341	55.64
216.559	-81.58
216.778	67.92
216.996	24.92
217.214	-38.57
217.432	69.97
217.651	45.4
217.869	65.88
218.087	104.79
218.306	74.07
218.524	39.25
218.742	0.34
218.96	94.55
219.179	-13.99
219.397	61.78
219.615	90.45
219.833	112.98
220.051	18.77
220.27	47.44
220.488	0.34
220.706	-3.75
220.924	4.44
221.142	82.26
221.36	74.07
221.578	12.63
221.796	82.26
222.015	45.4
222.233	-61.1
222.451	49.49
222.669	16.73
222.887	35.16
223.105	-34.47
223.323	-9.9
223.541	16.73
223.759	-18.09
223.977	-18.09
224.195	-18.09
224.413	47.44
224.631	47.44
224.849	12.63
225.067	14.68
225.285	0.34
225.503	-44.71
225.721	-26.28
225.939	20.82
226.157	45.4
226.375	78.16
226.592	6.49
226.81	61.78
227.028	45.4
227.246	53.59
227.464	-3.75
227.682	53.59
227.9	59.73
228.117	53.59
228.335	12.63
228.553	110.93
228.771	29.01
228.989	6.49
229.206	-1.71
229.424	-30.38
229.642	0.34
229.86	39.25
230.077	29.01
230.295	-3.75
230.513	78.16
230.731	22.87
230.948	67.92
231.166	37.2
231.384	4.44
231.601	-59.05
231.819	45.4
232.037	-44.71
232.254	31.06
232.472	12.63
232.689	-75.43
232.907	72.02
233.125	96.6
233.342	4.44
233.56	29.01
233.777	41.3
233.995	78.16
234.213	80.21
234.43	-20.14
234.648	22.87
234.865	-11.95
235.083	39.25
235.3	0.34
235.518	6.49
235.735	20.82
235.953	51.54
236.17	65.88
236.388	-30.38
236.605	55.64
236.822	119.12
237.04	4.44
237.257	0.34
237.475	-44.71
237.692	-20.14
237.909	12.63
238.127	12.63
238.344	-3.75
238.562	0.34
238.779	-13.99
238.996	-9.9
239.214	45.4
239.431	35.16
239.648	-1.71
239.865	67.92
240.083	-3.75
240.3	86.36
240.517	0.34
240.735	-11.95
240.952	20.82
241.169	98.64
241.386	94.55
241.603	39.25
241.821	-13.99
242.038	102.74
242.255	35.16
242.472	-50.86
242.689	51.54
242.907	4.44
243.124	49.49
243.341	0.34
243.558	-67.24
243.775	-77.48
243.992	-11.95
244.209	39.25
244.426	29.01
244.643	-77.48
244.86	-40.62
245.078	12.63
245.295	-13.99
245.512	-32.43
245.729	12.63
245.946	37.2
246.163	4.44
246.38	63.83
246.597	37.2
246.814	0.34
247.031	-16.04
247.248	86.36
247.464	72.02
247.681	61.78
247.898	4.44
248.115	65.88
248.332	-52.91
248.549	53.59
248.766	12.63
248.983	31.06
249.2	33.11
249.417	0.34
249.633	2.39
249.85	41.3
250.067	24.92
250.284	37.2
250.501	-22.19
250.717	78.16
250.934	29.01
251.151	110.93
251.368	100.69
251.585	12.63
251.801	16.73
252.018	-7.85
252.235	104.79
252.451	-50.86
252.668	-40.62
252.885	47.44
253.102	20.82
253.318	-1.71
253.535	39.25
253.752	96.6
253.968	-57
254.185	-52.91
254.401	12.63
254.618	53.59
254.835	45.4
255.051	6.49
255.268	69.97
255.484	12.63
255.701	20.82
255.917	72.02
256.134	-24.23
256.351	45.4
256.567	-11.95
256.784	37.2
257	12.63
257.217	12.63
257.433	55.64
257.65	29.01
257.866	80.21
258.082	-11.95
258.299	-11.95
258.515	31.06
258.732	-22.19
258.948	16.73
259.165	6.49
259.381	-18.09
259.597	37.2
259.814	-11.95
260.03	39.25
260.246	-7.85
260.463	29.01
260.679	72.02
260.895	31.06
261.112	61.78
261.328	-3.75
261.544	-13.99
261.761	94.55
261.977	-20.14
262.193	2.39
262.409	-32.43
262.626	37.2
262.842	94.55
263.058	43.35
263.274	31.06
263.49	90.45
263.707	80.21
263.923	24.92
264.139	-32.43
264.355	20.82
264.571	49.49
264.787	6.49
265.004	86.36
265.22	-7.85
265.436	29.01
265.652	-36.52
265.868	49.49
266.084	55.64
266.3	31.06
266.516	12.63
266.732	76.12
266.948	4.44
267.164	69.97
267.38	-32.43
267.596	47.44
267.812	94.55
268.028	96.6
268.244	33.11
268.46	-42.67
268.676	-57
268.892	-9.9
269.108	102.74
269.324	51.54
269.54	-3.75
269.756	121.17
269.972	-36.52
270.188	-7.85
270.403	100.69
270.619	-11.95
270.835	94.55
271.051	65.88
271.267	-16.04
271.483	-52.91
271.698	53.59
271.914	53.59
272.13	33.11
272.346	31.06
272.562	53.59
272.777	90.45
272.993	-28.33
273.209	51.54
273.425	96.6
273.64	20.82
273.856	86.36
274.072	0.34
274.287	-93.87
274.503	29.01
274.719	47.44
274.934	-1.71
275.15	-24.23
275.366	20.82
275.581	0.34
275.797	65.88
276.012	22.87
276.228	4.44
276.444	86.36
276.659	41.3
276.875	16.73
277.09	29.01
277.306	-20.14
277.521	-52.91
277.737	22.87
277.952	37.2
278.168	12.63
278.383	-3.75
278.599	8.53
278.814	-36.52
279.03	29.01
279.245	135.51
279.461	20.82
279.676	33.11
279.892	37.2
280.107	-36.52
280.322	-34.47
280.538	57.68
280.753	24.92
280.969	88.4
281.184	-20.14
281.399	59.73
281.615	49.49
281.83	125.27
282.045	-18.09
282.26	12.63
282.476	33.11
282.691	0.34
282.906	61.78
283.122	20.82
283.337	47.44
283.552	4.44
283.767	-61.1
283.983	-13.99
284.198	29.01
284.413	16.73
284.628	-3.75
284.843	16.73
285.058	4.44
285.274	37.2
285.489	-28.33
285.704	49.49
285.919	-42.67
286.134	12.63
286.349	65.88
286.564	33.11
286.779	49.49
286.995	-36.52
287.21	6.49
287.425	72.02
287.64	6.49
287.855	-26.28
288.07	-38.57
288.285	110.93
288.5	0.34
288.715	127.32
288.93	-36.52
289.145	37.2
289.36	-18.09
289.575	12.63
289.79	45.4
290.004	37.2
290.219	20.82
290.434	26.96
290.649	-89.77
290.864	-36.52
291.079	43.35
291.294	-20.14
291.509	-24.23
291.724	-20.14
291.938	-9.9
292.153	-16.04
292.368	-16.04
292.583	53.59
292.798	8.53
293.012	31.06
293.227	65.88
293.442	-20.14
293.657	-5.8
293.871	63.83
294.086	-59.05
294.301	86.36
294.516	29.01
294.73	108.88
294.945	8.53
295.16	-11.95
295.374	98.64
295.589	69.97
295.804	6.49
296.018	49.49
296.233	55.64
296.447	22.87
296.662	14.68
296.877	69.97
297.091	100.69
297.306	-1.71
297.52	6.49
297.735	29.01
297.949	53.59
298.164	88.4
298.378	102.74
298.593	12.63
298.807	-20.14
299.022	45.4
299.236	12.63
299.451	41.3
299.665	39.25
299.88	53.59
300.094	-44.71
300.309	-9.9
300.523	18.77
300.737	-1.71
300.952	12.63
301.166	65.88
301.381	4.44
301.595	-42.67
301.809	-26.28
302.024	65.88
302.238	41.3
302.452	94.55
302.667	55.64
302.881	84.31
303.095	33.11
303.309	22.87
303.524	-44.71
303.738	8.53
303.952	37.2
304.166	4.44
304.381	0.34
304.595	43.35
304.809	45.4
305.023	-3.75
305.237	14.68
305.452	-26.28
305.666	94.55
305.88	-13.99
306.094	37.2
306.308	108.88
306.522	69.97
306.736	10.58
306.95	78.16
307.164	-1.71
307.379	-48.81
307.593	112.98
307.807	-11.95
308.021	37.2
308.235	39.25
308.449	-34.47
308.663	-9.9
308.877	102.74
309.091	-20.14
309.305	72.02
309.519	6.49
309.733	47.44
309.947	-24.23
310.161	37.2
310.374	4.44
310.588	41.3
310.802	-26.28
311.016	-20.14
311.23	74.07
311.444	-20.14
311.658	-20.14
311.872	86.36
312.085	-38.57
312.299	119.12
312.513	84.31
312.727	8.53
312.941	20.82
313.154	-18.09
313.368	37.2
313.582	12.63
313.796	78.16
314.009	6.49
314.223	84.31
314.437	10.58
314.651	47.44
314.864	-28.33
315.078	-16.04
315.292	-28.33
315.505	55.64
315.719	69.97
315.933	12.63
316.146	6.49
316.36	0.34
316.573	47.44
316.787	29.01
317.001	29.01
317.214	-30.38
317.428	72.02
317.641	16.73
317.855	-20.14
318.068	29.01
318.282	6.49
318.495	147.8
318.709	-16.04
318.922	45.4
319.136	69.97
319.349	94.55
319.563	4.44
319.776	20.82
319.99	10.58
320.203	41.3
320.417	14.68
320.63	-1.71
320.843	49.49
321.057	-42.67
321.27	-18.09
321.483	-13.99
321.697	63.83
321.91	4.44
322.124	31.06
322.337	55.64
322.55	-48.81
322.763	-26.28
322.977	26.96
323.19	-65.19
323.403	22.87
323.617	-20.14
323.83	-9.9
324.043	6.49
324.256	-18.09
324.469	33.11
324.683	74.07
324.896	12.63
325.109	14.68
325.322	8.53
325.535	4.44
325.748	-9.9
325.962	-11.95
326.175	39.25
326.388	63.83
326.601	6.49
326.814	45.4
327.027	-9.9
327.24	160.08
327.453	-44.71
327.666	37.2
327.879	-3.75
328.092	8.53
328.305	-16.04
328.518	39.25
328.731	-18.09
328.944	63.83
329.157	-9.9
329.37	45.4
329.583	29.01
329.796	69.97
330.009	8.53
330.222	18.77
330.435	35.16
330.648	37.2
330.861	6.49
331.073	14.68
331.286	43.35
331.499	-1.71
331.712	-44.71
331.925	-34.47
332.138	110.93
332.35	65.88
332.563	-16.04
332.776	115.03
332.989	-32.43
333.202	20.82
333.414	20.82
333.627	53.59
333.84	37.2
334.053	-20.14
334.265	-16.04
334.478	33.11
334.691	88.4
334.903	-24.23
335.116	-5.8
335.329	33.11
335.541	80.21
335.754	119.12
335.966	6.49
336.179	72.02
336.392	80.21
336.604	102.74
336.817	8.53
337.029	22.87
337.242	94.55
337.454	-3.75
337.667	-18.09
337.88	102.74
338.092	121.17
338.305	8.53
338.517	-24.23
338.729	110.93
338.942	102.74
339.154	14.68
339.367	63.83
339.579	37.2
339.792	121.17
340.004	-16.04
340.217	29.01
340.429	-1.71
340.641	20.82
340.854	37.2
341.066	-9.9
341.278	4.44
341.491	102.74
341.703	57.68
341.915	-67.24
342.128	4.44
342.34	47.44
342.552	10.58
342.764	4.44
342.977	22.87
343.189	-28.33
343.401	-28.33
343.613	6.49
343.826	88.4
344.038	-32.43
344.25	41.3
344.462	6.49
344.674	33.11
344.886	39.25
345.099	49.49
345.311	63.83
345.523	-36.52
345.735	22.87
345.947	6.49
346.159	57.68
346.371	-36.52
346.583	-44.71
346.795	164.18
347.007	86.36
347.219	20.82
347.431	6.49
347.643	12.63
347.855	14.68
348.067	29.01
348.279	4.44
348.491	53.59
348.703	16.73
348.915	22.87
349.127	-16.04
349.339	-18.09
349.551	6.49
349.763	-20.14
349.975	92.5
350.187	12.63
350.399	29.01
350.61	49.49
350.822	33.11
351.034	69.97
351.246	102.74
351.458	6.49
351.669	-11.95
351.881	8.53
352.093	72.02
352.305	8.53
352.517	55.64
352.728	4.44
352.94	33.11
353.152	86.36
353.363	16.73
353.575	31.06
353.787	72.02
353.999	33.11
354.21	-7.85
354.422	-48.81
354.633	-34.47
354.845	63.83
355.057	20.82
355.268	-28.33
355.48	2.39
355.692	-20.14
355.903	102.74
356.115	29.01
356.326	-9.9
356.538	67.92
356.749	37.2
356.961	153.94
357.172	78.16
357.384	45.4
357.595	33.11
357.807	45.4
358.018	12.63
358.23	20.82
358.441	61.78
358.653	53.59
358.864	-18.09
359.075	-32.43
359.287	76.12
359.498	88.4
359.709	51.54
359.921	12.63
360.132	-20.14
360.344	37.2
360.555	-40.62
360.766	65.88
360.977	37.2
361.189	-28.33
361.4	-61.1
361.611	135.51
361.823	53.59
362.034	-28.33
362.245	-77.48
362.456	86.36
362.667	47.44
362.879	24.92
363.09	47.44
363.301	16.73
363.512	59.73
363.723	121.17
363.935	-1.71
364.146	90.45
364.357	65.88
364.568	78.16
364.779	-28.33
364.99	14.68
365.201	-54.95
365.412	39.25
365.623	12.63
365.834	37.2
366.045	39.25
366.256	14.68
366.467	53.59
366.678	33.11
366.889	31.06
367.1	6.49
367.311	39.25
367.522	61.78
367.733	65.88
367.944	6.49
368.155	-11.95
368.366	108.88
368.577	55.64
368.788	96.6
368.999	14.68
369.209	12.63
369.42	92.5
369.631	123.22
369.842	61.78
370.053	-26.28
370.264	-20.14
370.474	6.49
370.685	29.01
370.896	96.6
371.107	-20.14
371.317	55.64
371.528	41.3
371.739	63.83
371.95	29.01
372.16	51.54
372.371	78.16
372.582	41.3
372.792	4.44
373.003	29.01
373.214	-26.28
373.424	88.4
373.635	8.53
373.846	106.84
374.056	16.73
374.267	53.59
374.477	61.78
374.688	20.82
374.898	14.68
375.109	-63.15
375.319	61.78
375.53	26.96
375.74	-3.75
375.951	55.64
376.161	98.64
376.372	4.44
376.582	65.88
376.793	55.64
377.003	53.59
377.214	55.64
377.424	29.01
377.635	39.25
377.845	12.63
378.055	-7.85
378.266	22.87
378.476	37.2
378.686	20.82
378.897	53.59
379.107	94.55
379.317	47.44
379.528	24.92
379.738	80.21
379.948	-7.85
380.158	-40.62
380.369	37.2
380.579	-11.95
380.789	-34.47
380.999	94.55
381.21	53.59
381.42	76.12
381.63	102.74
381.84	102.74
382.05	16.73
382.261	90.45
382.471	53.59
382.681	41.3
382.891	121.17
383.101	121.17
383.311	37.2
383.521	-44.71
383.731	12.63
383.941	104.79
384.151	4.44
384.361	94.55
384.571	6.49
384.781	61.78
384.991	84.31
385.201	55.64
385.411	31.06
385.621	94.55
385.831	4.44
386.041	-3.75
386.251	33.11
386.461	55.64
386.671	29.01
386.881	-3.75
387.091	-34.47
387.301	33.11
387.511	106.84
387.72	123.22
387.93	69.97
388.14	-48.81
388.35	94.55
388.56	49.49
388.769	47.44
388.979	16.73
389.189	8.53
389.399	43.35
389.609	69.97
389.818	69.97
390.028	-24.23
390.238	78.16
390.447	43.35
390.657	94.55
390.867	-9.9
391.076	12.63
391.286	14.68
391.496	41.3
391.705	37.2
391.915	84.31
392.125	69.97
392.334	16.73
392.544	57.68
392.753	63.83
392.963	-20.14
393.172	49.49
393.382	-40.62
393.591	90.45
393.801	12.63
394.01	72.02
394.22	90.45
394.429	96.6
394.639	49.49
394.848	65.88
395.058	-3.75
395.267	31.06
395.477	45.4
395.686	92.5
395.895	135.51
396.105	86.36
396.314	119.12
396.524	127.32
396.733	20.82
396.942	160.08
397.152	41.3
397.361	129.36
397.57	121.17
397.78	115.03
397.989	78.16
398.198	153.94
398.407	-18.09
398.617	49.49
398.826	41.3
399.035	125.27
399.244	102.74
399.453	18.77
399.663	49.49
399.872	119.12
400.081	86.36
400.29	110.93
400.499	31.06
400.708	90.45
400.917	98.64
401.127	14.68
401.336	151.89
401.545	162.13
401.754	102.74
401.963	131.41
402.172	67.92
402.381	78.16
402.59	69.97
402.799	69.97
403.008	129.36
403.217	178.51
403.426	104.79
403.635	110.93
403.844	45.4
404.053	119.12
404.262	147.8
404.471	213.33
404.68	90.45
404.888	135.51
405.097	74.07
405.306	160.08
405.515	235.86
405.724	176.47
405.933	80.21
406.142	170.32
406.35	233.81
406.559	166.23
406.768	41.3
406.977	176.47
407.185	213.33
407.394	172.37
407.603	162.13
407.812	151.89
408.02	225.62
408.229	201.04
408.438	178.51
408.646	137.56
408.855	196.95
409.064	229.71
409.272	135.51
409.481	270.67
409.69	198.99
409.898	172.37
410.107	186.71
410.315	268.63
410.524	282.96
410.733	262.48
410.941	237.91
411.15	430.41
411.358	303.44
411.567	323.92
411.775	356.69
411.984	293.2
412.192	405.84
412.401	303.44
412.609	368.98
412.818	422.22
413.026	471.37
413.234	381.26
413.443	422.22
413.651	446.8
413.86	471.37
414.068	555.34
414.276	555.34
414.485	473.42
414.693	555.34
414.901	547.15
415.11	553.29
415.318	569.68
415.526	565.58
415.734	643.4
415.943	608.59
416.151	643.4
416.359	620.88
416.567	655.69
416.776	717.13
416.984	758.09
417.192	809.29
417.4	852.3
417.608	835.91
417.817	797
418.025	815.43
418.233	921.93
418.441	891.21
418.649	926.02
418.857	940.36
419.065	1112.39
419.273	1093.96
419.481	1165.64
419.689	1210.69
419.897	1175.88
420.105	1171.78
420.313	1265.99
420.521	1327.43
420.729	1360.19
420.937	1341.76
421.145	1417.54
421.353	1462.59
421.561	1511.74
421.769	1661.24
421.977	1601.85
422.185	1718.59
422.393	1784.12
422.601	1898.81
422.809	1857.85
423.017	1890.62
423.224	1909.05
423.432	2095.41
423.64	2070.84
423.848	2267.44
424.056	2093.37
424.263	2267.44
424.471	2246.96
424.679	2457.9
424.887	2349.36
425.094	2621.74
425.302	2570.54
425.51	2709.8
425.718	2761
425.925	2818.35
426.133	2793.77
426.341	2976.04
426.548	3166.5
426.756	3152.17
426.964	3201.32
427.171	3273
427.379	3465.5
427.586	3445.02
427.794	3582.24
428.001	3807.52
428.209	4014.36
428.417	3838.23
428.624	4223.25
428.832	4225.3
429.039	4055.32
429.247	4215.06
429.454	4526.35
429.662	4937.99
429.869	4692.24
430.076	4870.41
430.284	4641.04
430.491	4931.85
430.699	5189.89
430.906	5257.48
431.114	5380.36
431.321	5437.7
431.528	5478.66
431.736	5943.55
431.943	6134.01
432.15	5966.07
432.358	6025.47
432.565	6246.65
432.772	6224.12
432.979	6748.4
433.187	6752.49
433.394	6664.43
433.601	7051.5
433.808	7205.1
434.016	7180.52
434.223	7487.72
434.43	7846.11
434.637	8012
434.844	8378.58
435.052	8155.35
435.259	8329.43
435.466	8372.44
435.673	8380.63
435.88	8812.75
436.087	9304.26
436.294	9314.5
436.501	9201.86
436.708	9156.81
436.915	9676.99
437.122	10023.1
437.329	10019
437.537	10399.93
437.743	10369.21
437.95	10279.1
438.157	11016.37
438.364	11327.66
438.571	10997.93
438.778	11139.24
438.985	12327.07
439.192	11526.31
439.399	12277.91
439.606	11940
439.813	12546.2
440.02	13439.11
440.227	13060.24
440.433	12916.88
440.64	13373.58
440.847	13250.7
441.054	13922.43
441.261	14671.99
441.467	14430.33
441.674	14655.61
441.881	15290.48
442.088	15149.17
442.294	15183.98
442.501	15165.55
442.708	15775.84
442.914	16150.62
443.121	16937.04
443.328	16549.98
443.534	17487.95
443.741	17029.2
443.948	16754.77
444.154	18186.3
444.361	18206.78
444.568	18159.68
444.774	18122.82
444.981	18298.94
445.187	18790.45
445.394	19777.58
445.6	19578.92
445.807	21250.07
446.013	20045.86
446.22	20770.84
446.426	21481.49
446.633	22020.1
446.839	22464.51
447.046	21501.97
447.252	22732.79
447.459	22829.05
447.665	22581.24
447.871	23441.39
448.078	24645.6
448.284	23259.12
448.491	24182.76
448.697	24958.94
448.903	25530.32
449.11	25520.08
449.316	25472.98
449.522	25661.39
449.728	26087.37
449.935	26406.85
450.141	26675.13
450.347	26937.27
450.553	26161.09
450.76	26836.92
450.966	27662.26
451.172	26961.85
451.378	27842.48
451.584	27088.82
451.791	27981.74
451.997	27580.34
452.203	28164.01
452.409	28516.26
452.615	28491.68
452.821	27213.75
453.027	26673.09
453.233	28460.96
453.44	27070.39
453.646	27459.51
453.852	27303.86
454.058	27600.82
454.264	27140.02
454.47	27635.63
454.676	27131.83
454.882	28321.7
455.088	25233.36
455.294	26017.74
455.5	26351.56
455.705	26564.54
455.911	25317.33
456.117	24547.29
456.323	24659.93
456.529	23328.75
456.735	24369.12
456.941	23535.6
457.147	23189.49
457.352	22511.61
457.558	22095.88
457.764	22317.06
457.97	21813.26
458.176	21288.98
458.381	21207.06
458.587	20320.29
458.793	20142.11
458.999	19275.82
459.204	20609.05
459.41	19982.37
459.616	18751.54
459.821	18501.69
460.027	18360.38
460.233	18294.85
460.438	17250.38
460.644	17389.64
460.85	16535.64
461.055	16191.58
461.261	16289.88
461.466	15183.98
461.672	14631.03
461.878	15513.7
462.083	14397.56
462.289	14094.46
462.494	13860.99
462.7	13469.83
462.905	13019.28
463.111	13514.89
463.316	13543.56
463.522	13326.47
463.727	13336.71
463.932	13389.96
464.138	13088.91
464.343	13068.43
464.549	12521.62
464.754	13123.73
464.959	13086.86
465.165	13078.67
465.37	12368.02
465.575	11950.24
465.781	12423.32
465.986	12476.57
466.191	12019.87
466.397	11759.78
466.602	11161.77
466.807	11620.52
467.012	11620.52
467.218	11524.26
467.423	11344.04
467.628	11423.91
467.833	11944.1
468.038	11458.73
468.244	11247.79
468.449	11454.63
468.654	11157.68
468.859	11206.83
469.064	11014.32
469.269	10657.97
469.474	10680.5
469.679	10883.25
469.885	10459.32
470.09	10617.01
470.295	10473.65
470.5	10266.81
470.705	10285.24
470.91	10182.84
471.115	10082.49
471.32	10117.31
471.525	10051.77
471.73	10072.25
471.935	9779.39
472.139	9382.09
472.344	9457.86
472.549	9566.4
472.754	9408.71
472.959	9267.4
473.164	9115.85
473.369	8773.84
473.574	9038.03
473.778	9156.81
473.983	8992.97
474.188	8968.4
474.393	8474.84
474.598	8517.84
474.802	8585.43
475.007	8603.86
475.212	8523.99
475.417	8069.34
475.621	8188.12
475.826	8255.7
476.031	7917.79
476.235	7655.65
476.44	8032.47
476.645	7805.15
476.849	7891.16
477.054	7753.95
477.259	7717.09
477.463	7782.62
477.668	7688.42
477.872	7553.25
478.077	7295.21
478.282	7205.1
478.486	7364.84
478.691	6975.72
478.895	7141.61
479.1	7024.87
479.304	6895.85
479.509	6707.44
479.713	7090.41
479.918	6795.5
480.122	6631.66
480.326	6826.22
480.531	6781.17
480.735	6494.45
480.94	6549.75
481.144	6869.23
481.348	6527.22
481.553	6588.66
481.757	6453.49
481.961	6451.44
482.166	6697.2
482.37	6549.75
482.574	6437.11
482.778	6379.76
482.983	6701.3
483.187	6492.4
483.391	6336.76
483.595	6514.93
483.8	6568.18
484.004	6451.44
484.208	6578.42
484.412	6435.06
484.616	6400.24
484.821	6385.91
485.025	6353.14
485.229	6414.58
485.433	6381.81
485.637	6453.49
485.841	6113.53
486.045	6234.36
486.249	6312.18
486.453	6545.65
486.657	6332.66
486.861	6191.35
487.065	6269.17
487.269	6459.63
487.473	6260.98
487.677	6281.46
487.881	6412.53
488.085	6439.16
488.289	6297.85
488.493	6336.76
488.697	6402.29
488.901	6412.53
489.105	6426.87
489.309	6303.99
489.512	6340.85
489.716	6349.04
489.92	6375.67
490.124	6205.69
490.328	6414.58
490.531	6275.32
490.735	6334.71
490.939	6291.7
491.143	6400.24
491.346	6258.93
491.55	6574.32
491.754	6353.14
491.958	6656.24
492.161	6402.29
492.365	6600.94
492.569	6344.95
492.772	6494.45
492.976	6404.34
493.18	6594.8
493.383	6555.89
493.587	6766.83
493.79	6656.24
493.994	6525.17
494.197	6770.93
494.401	6779.12
494.605	6619.38
494.808	6797.55
495.012	6838.51
495.215	6951.15
495.419	6863.08
495.622	7014.63
495.825	7012.59
496.029	6889.71
496.232	7135.46
496.436	7176.42
496.639	7375.08
496.843	7229.67
497.046	7467.24
497.249	7338.21
497.453	7393.51
497.656	7397.6
497.859	7379.17
498.063	7614.69
498.266	7715.04
498.469	7866.59
498.673	7590.11
498.876	7794.91
499.079	7948.51
499.282	7782.62
499.485	8022.23
499.689	7954.65
499.892	8237.27
500.095	8091.87
500.298	8534.23
500.501	8255.7
500.705	8435.92
500.908	8720.59
501.111	8777.94
501.314	8855.76
501.517	8722.64
501.72	8820.94
501.923	8646.87
502.126	9181.39
502.329	9089.23
502.532	9099.47
502.735	9287.88
502.938	9425.09
503.141	9332.93
503.344	9640.13
503.547	9459.91
503.75	9773.25
503.953	9932.99
504.156	9969.85
504.359	10043.58
504.562	10039.48
504.765	10213.56
504.968	10393.78
505.17	10457.27
505.373	10473.65
505.576	10678.45
505.779	10813.62
505.982	10827.95
506.185	11055.28
506.387	11020.46
506.59	11006.13
506.793	11124.91
506.996	11184.3
507.198	11710.63
507.401	11514.02
507.604	11493.54
507.807	11989.15
508.009	11956.38
508.212	12214.43
508.415	12214.43
508.617	12365.98
508.82	12370.07
509.022	12296.35
509.225	12865.68
509.428	12791.95
509.63	13070.48
509.833	12880.02
510.035	13291.66
510.238	13095.05
510.44	13361.29
510.643	13508.74
510.845	13754.5
511.048	13561.99
511.25	13893.76
511.453	13871.23
511.655	14542.97
511.858	14182.52
512.06	14391.42
512.262	14479.48
512.465	14676.09
512.667	14784.63
512.87	15059.06
513.072	14948.47
513.274	15321.2
513.477	15671.4
513.679	15431.79
513.881	15417.45
514.084	15941.73
514.286	15906.91
514.488	16097.38
514.69	16416.86
514.893	16556.12
515.095	16277.6
515.297	16633.94
515.499	16904.28
515.701	16930.9
515.904	17002.58
516.106	17184.85
516.308	17485.9
516.51	17586.25
516.712	17905.73
516.914	17571.91
517.116	18096.19
517.318	18163.78
517.52	17999.94
517.722	18311.23
517.925	18509.88
518.127	18825.27
518.329	19036.21
518.531	18759.74
518.733	19189.81
518.935	19144.75
519.136	19415.09
519.338	19519.53
519.54	19503.15
519.742	19646.51
519.944	19847.21
520.146	20244.51
520.348	20191.27
520.55	20387.87
520.752	20232.22
520.954	20484.12
521.155	20580.38
521.357	20643.87
521.559	20983.83
521.761	21202.96
521.963	20998.16
522.164	20832.28
522.366	21194.77
522.568	21624.84
522.77	21293.07
522.971	21760.01
523.173	21469.2
523.375	21581.84
523.576	21538.83
523.778	21751.82
523.98	21782.54
524.181	21991.43
524.383	21983.24
524.584	22177.79
524.786	22077.44
524.988	22056.96
525.189	22315.01
525.391	22401.02
525.592	22386.69
525.794	22593.53
525.995	22433.79
526.197	22208.51
526.398	22714.36
526.6	22685.69
526.801	22554.62
527.003	22593.53
527.204	22509.57
527.406	22798.33
527.607	22632.44
527.808	22792.19
528.01	22272
528.211	22560.77
528.412	22951.93
528.614	22685.69
528.815	22736.89
529.016	22632.44
529.218	22626.3
529.419	22540.29
529.62	22591.48
529.822	22378.5
530.023	22487.04
530.224	22562.81
530.425	22552.57
530.626	22226.95
530.828	22063.11
531.029	22671.36
531.23	22204.42
531.431	22452.22
531.632	22329.34
531.833	22378.5
532.035	21850.12
532.236	22286.34
532.437	21925.89
532.638	21997.57
532.839	22366.21
533.04	22020.1
533.241	21520.4
533.442	22192.13
533.643	21997.57
533.844	21905.42
534.045	21942.28
534.246	21538.83
534.447	21745.67
534.648	21755.91
534.849	21811.21
535.05	21565.45
535.251	21645.32
535.451	21614.6
535.652	21618.7
535.853	21557.26
536.054	21463.05
536.255	21585.93
536.456	20971.54
536.657	21719.05
536.857	20955.16
537.058	21372.94
537.259	21346.32
537.46	21245.97
537.66	20680.73
537.861	21078.04
538.062	20893.72
538.263	20983.83
538.463	20842.52
538.664	20748.31
538.865	20596.76
539.065	20756.5
539.266	20365.34
539.466	21110.8
539.667	20529.18
539.868	20916.25
540.068	20637.72
540.269	20998.16
540.469	20717.59
540.67	20473.88
540.87	20776.98
541.071	20574.24
541.271	20353.05
541.472	20787.22
541.672	20557.85
541.873	20166.69
542.073	20025.38
542.274	20375.58
542.474	20383.77
542.675	20095.01
542.875	20363.29
543.075	20250.66
543.276	20021.28
543.476	20486.17
543.676	20146.21
543.877	20434.97
544.077	20490.27
544.277	20340.77
544.478	20475.93
544.678	20453.41
544.878	20185.12
545.078	20432.93
545.279	20195.36
545.479	19963.94
545.679	20238.37
545.879	20156.45
546.079	20236.32
546.28	19968.04
546.48	20148.26
546.68	20256.8
546.88	20357.15
547.08	20092.96
547.28	20275.23
547.48	20058.15
547.68	20211.74
547.88	20095.01
548.081	20230.18
548.281	20297.76
548.481	20146.21
548.681	20271.14
548.881	20240.42
549.081	20119.59
549.28	20281.38
549.48	20101.15
549.68	20201.51
549.88	20676.63
550.08	20039.72
550.28	20291.62
550.48	20215.84
550.68	20453.41
550.88	20172.83
551.08	20275.23
551.279	20627.48
551.479	20078.63
551.679	20629.53
551.879	20363.29
552.079	20723.74
552.278	20494.36
552.478	20703.26
552.678	20727.83
552.878	20772.89
553.077	20819.99
553.277	20750.36
553.477	20926.49
553.676	20877.33
553.876	20717.59
554.076	20619.29
554.275	20537.37
554.475	20351.01
554.674	20932.63
554.874	20697.11
555.074	20924.44
555.273	20928.53
555.473	21463.05
555.672	20781.08
555.872	21004.31
556.071	20750.36
556.271	21141.52
556.47	20795.42
556.67	21016.6
556.869	20942.87
557.068	21012.5
557.268	21104.66
557.467	20875.29
557.667	21192.72
557.866	21217.3
558.065	21370.9
558.265	21139.47
558.464	21100.56
558.663	21112.85
558.863	21026.84
559.062	21374.99
559.261	21035.03
559.461	21409.81
559.66	21065.75
559.859	21190.67
560.058	20996.12
560.258	21190.67
560.457	21245.97
560.656	21401.61
560.855	20760.6
561.054	21243.92
561.253	21106.71
561.453	21506.06
561.652	21571.6
561.851	21266.45
562.05	21334.03
562.249	21194.77
562.448	21518.35
562.647	21233.68
562.846	21403.66
563.045	21413.9
563.244	21331.98
563.443	21540.88
563.642	21145.62
563.841	21321.74
564.04	21198.87
564.239	21383.18
564.438	20850.71
564.637	21010.45
564.836	21303.31
565.035	21116.95
565.234	21305.36
565.432	21096.47
565.631	20985.88
565.83	20996.12
566.029	21092.37
566.228	21112.85
566.427	20903.96
566.625	20559.9
566.824	20676.63
567.023	20768.79
567.222	20617.24
567.42	20791.32
567.619	20598.81
567.818	20594.72
568.016	20856.86
568.215	20826.14
568.414	20652.06
568.612	20592.67
568.811	20441.12
569.01	20656.15
569.208	20389.92
569.407	20357.15
569.605	20125.73
569.804	20320.29
570.002	20013.09
570.201	20113.44
570.4	19861.54
570.598	19650.6
570.797	19863.59
570.995	19898.41
571.193	19953.7
571.392	19933.22
571.59	19226.67
571.789	19511.34
571.987	19685.42
572.186	19732.52
572.384	19486.76
572.582	19505.2
572.781	19390.51
572.979	19238.96
573.177	19349.55
573.376	19497
573.574	18858.04
573.772	19114.03
573.971	19003.44
574.169	18702.39
574.367	18649.14
574.565	18921.52
574.763	18778.17
574.962	18485.31
575.16	18468.92
575.358	18489.4
575.556	18202.69
575.754	18403.39
575.952	18397.24
576.151	18468.92
576.349	18008.13
576.547	18118.72
576.745	18268.22
576.943	18255.93
577.141	17887.3
577.339	17940.55
577.537	17965.12
577.735	17911.88
577.933	17555.53
578.131	17891.4
578.329	17424.46
578.527	17444.94
578.725	17547.34
578.923	17573.96
579.121	17539.15
579.319	17428.56
579.516	17375.31
579.714	17166.42
579.912	17315.92
580.11	17188.94
580.308	16959.57
580.506	16906.32
580.704	16519.26
580.901	16840.79
581.099	16922.71
581.297	16572.5
581.495	16777.3
581.692	16791.64
581.89	16742.49
582.088	16693.33
582.285	16433.24
582.483	16539.74
582.681	16316.51
582.878	16476.25
583.076	16312.41
583.274	16437.34
583.471	16212.06
583.669	16341.08
583.866	16015.46
584.064	16056.42
584.262	16087.14
584.459	16091.23
584.657	16205.92
584.854	16070.75
585.052	15853.67
585.249	15743.08
585.447	15843.43
585.644	15712.36
585.841	15865.96
586.039	15890.53
586.236	15921.25
586.434	15542.38
586.631	15620.2
586.828	15736.93
587.026	15624.29
587.223	15306.86
587.42	15454.31
587.618	15628.39
587.815	15272.04
588.012	15145.07
588.21	15044.72
588.407	15286.38
588.604	15499.37
588.801	15257.71
588.999	15407.21
589.196	15321.2
589.393	15274.09
589.59	15106.16
589.787	14987.38
589.984	15198.32
590.182	15075.44
590.379	15175.79
590.576	14989.42
590.773	14874.74
590.97	15011.95
591.167	14833.78
591.364	14780.53
591.561	15259.76
591.758	15030.38
591.955	15026.29
592.152	15024.24
592.349	14958.71
592.546	14815.35
592.743	15057.01
592.94	14792.82
593.137	14688.37
593.334	14780.53
593.531	14876.79
593.727	15005.81
593.924	14880.88
594.121	14569.59
594.318	14852.21
594.515	14372.99
594.712	14962.8
594.908	14858.35
595.105	14850.16
595.302	14628.98
595.499	14882.93
595.696	14678.13
595.892	14755.96
596.089	14837.87
596.286	14948.47
596.482	14848.11
596.679	14837.87
596.876	15020.14
597.072	14962.8
597.269	14889.07
597.466	14966.9
597.662	14905.46
597.859	14876.79
598.055	14999.66
598.252	15030.38
598.448	15114.35
598.645	14846.07
598.841	14667.89
599.038	15177.84
599.234	15020.14
599.431	14927.99
599.627	15323.24
599.824	15151.21
600.02	15183.98
600.217	15224.94
600.413	15001.71
600.609	15163.5
600.806	15288.43
601.002	15153.26
601.198	15323.24
601.395	15202.41
601.591	15704.17
601.787	15642.73
601.984	15401.07
602.18	15724.65
602.376	15650.92
602.572	15636.58
602.769	15872.1
602.965	15345.77
603.161	15759.46
603.357	15837.28
603.553	15732.84
603.75	15759.46
603.946	15710.31
604.142	15929.44
604.338	15827.04
604.534	15906.91
604.73	15999.07
604.926	16089.18
605.122	16029.79
605.318	16146.53
605.514	16402.52
605.71	16191.58
605.906	16136.29
606.102	16326.75
606.298	16523.35
606.494	16529.5
606.69	16668.76
606.886	16758.87
607.082	16697.43
607.278	16719.96
607.474	16638.04
607.67	16787.54
607.866	16541.78
608.062	16871.51
608.257	16701.53
608.453	16863.32
608.649	17004.63
608.845	16664.66
609.041	16771.16
609.236	17213.52
609.432	17055.83
609.628	17117.26
609.824	17143.89
610.019	17217.61
610.215	17578.06
610.411	17442.89
610.606	17135.7
610.802	17385.55
610.998	17389.64
611.193	17430.6
611.389	17608.78
611.584	17711.18
611.78	17453.13
611.976	17725.51
612.171	17637.45
612.367	17541.19
612.562	17651.78
612.758	17496.14
612.953	17739.85
613.149	17989.7
613.344	17635.4
613.539	17928.26
613.735	17948.74
613.93	17909.83
614.126	17719.37
614.321	18219.07
614.517	17799.24
614.712	17864.77
614.907	18028.61
615.103	18532.41
615.298	18028.61
615.493	17973.32
615.688	17954.88
615.884	18501.69
616.079	18051.14
616.274	18243.65
616.47	18223.17
616.665	18407.48
616.86	17952.84
617.055	18323.52
617.25	18073.67
617.445	18128.96
617.641	17961.03
617.836	18141.25
618.031	17961.03
618.226	18235.46
618.421	17897.54
618.616	18200.64
618.811	18034.75
619.006	18038.85
619.201	17954.88
619.396	18131.01
619.591	17827.91
619.786	17791.05
619.981	17762.37
620.176	17526.86
620.371	17707.08
620.566	17625.16
620.761	17610.82
620.956	17901.64
621.151	17563.72
621.346	17410.12
621.541	17477.71
621.735	17684.55
621.93	17225.81
622.125	17291.34
622.32	16986.19
622.515	17170.51
622.709	17070.16
622.904	17107.02
623.099	16875.6
623.294	17158.22
623.488	16822.36
623.683	16848.98
623.878	16601.18
624.072	16545.88
624.267	16650.33
624.462	16451.67
624.656	16361.56
624.851	16199.77
625.046	16400.48
625.24	16105.57
625.435	16470.11
625.629	16357.47
625.824	16167.01
626.018	16191.58
626.213	15714.41
626.407	15738.98
626.602	15480.94
626.796	15958.11
626.991	15884.39
627.185	15286.38
627.38	15546.47
627.574	15478.89
627.768	15356.01
627.963	15280.24
628.157	15054.96
628.352	15286.38
628.546	14950.51
628.74	15226.99
628.935	14809.2
629.129	15077.49
629.323	14569.59
629.517	14850.16
629.712	14590.07
629.906	14821.49
630.1	14598.26
630.294	14493.82
630.489	14119.04
630.683	14211.2
630.877	14090.37
631.071	14151.81
631.265	14194.81
631.459	14037.12
631.653	13949.06
631.848	13922.43
632.042	13695.11
632.236	14006.4
632.43	13750.4
632.624	13627.53
632.818	13553.8
633.012	13363.34
633.206	13453.45
633.4	13338.76
633.594	13181.07
633.788	13152.4
633.982	13052.05
634.176	13078.67
634.369	12759.19
634.563	12828.82
634.757	12923.02
634.951	12843.15
635.145	12998.8
635.339	12777.62
635.533	12611.73
635.726	12638.36
635.92	12335.26
636.114	12533.91
636.308	12175.52
636.501	12427.42
636.695	12335.26
636.889	12026.01
637.083	12001.44
637.276	12253.34
637.47	11933.86
637.664	11849.89
637.857	11825.31
638.051	11821.22
638.244	11827.36
638.438	11800.74
638.632	11684
638.825	11481.25
639.019	11337.9
639.212	11243.69
639.406	11473.06
639.599	11182.25
639.793	11274.41
639.986	10973.36
640.18	11106.48
640.373	11034.8
640.567	11071.66
640.76	10850.48
640.954	10514.61
641.147	10672.31
641.34	10547.38
641.534	10418.36
641.727	10657.97
641.92	10557.62
642.114	10461.37
642.307	10260.66
642.5	10197.18
642.694	10064.06
642.887	10019
643.08	10242.23
643.273	9918.65
643.467	9902.27
643.66	9830.59
643.853	9687.23
644.046	9650.37
644.239	9597.12
644.432	9668.8
644.626	9457.86
644.819	9457.86
645.012	9400.52
645.205	9248.97
645.398	9285.83
645.591	9156.81
645.784	9199.82
645.977	8933.58
646.17	9197.77
646.363	9031.88
646.556	8872.14
646.749	9001.16
646.942	9052.36
647.135	8759.5
647.328	8646.87
647.521	8536.28
647.714	8456.4
647.907	8597.71
648.099	8556.75
648.292	8421.59
648.485	8446.16
648.678	8384.73
648.871	8186.07
649.064	8212.7
649.256	8247.51
649.449	8007.9
649.642	8073.43
649.835	8087.77
650.027	8098.01
650.22	8204.5
650.413	7747.81
650.605	7749.86
650.798	7712.99
650.991	7751.9
651.183	7749.86
651.376	7827.68
651.568	7473.38
651.761	7459.04
651.954	7493.86
652.146	7635.17
652.339	7569.63
652.531	7471.33
652.724	7428.32
652.916	7516.39
653.109	7389.41
653.301	7327.97
653.494	7385.32
653.686	7119.08
653.879	7180.52
654.071	7108.84
654.263	7106.79
654.456	6910.19
654.648	6994.15
654.84	6990.06
655.033	6762.73
655.225	6938.86
655.417	6772.97
655.61	6770.93
655.802	6775.02
655.994	6713.58
656.186	6824.17
656.379	6770.93
656.571	6729.97
656.763	6508.79
656.955	6549.75
657.148	6584.56
657.34	6594.8
657.532	6316.28
657.724	6402.29
657.916	6697.2
658.108	6361.33
658.3	6322.42
658.492	6256.89
658.684	6236.41
658.876	6254.84
659.068	6125.82
659.26	6158.58
659.452	6115.58
659.644	6047.99
659.836	6011.13
660.028	5904.64
660.22	6047.99
660.412	5916.92
660.604	5927.16
660.796	5740.8
660.988	5935.35
661.18	5816.57
661.372	5613.82
661.563	5794.04
661.755	5730.56
661.947	5482.75
662.139	5726.46
662.331	5738.75
662.522	5501.19
662.714	5431.55
662.906	5443.84
663.097	5468.42
663.289	5337.35
663.481	5341.44
663.673	5396.74
663.864	5357.83
664.056	5124.36
664.247	5339.4
664.439	5345.54
664.631	5288.2
664.822	5243.14
665.014	5110.02
665.205	5124.36
665.397	5189.89
665.588	5064.97
665.78	4911.37
665.971	4981
666.163	4993.29
666.354	4935.95
666.546	4944.14
666.737	4985.1
666.929	4862.22
667.12	4806.92
667.311	4886.79
667.503	4868.36
667.694	4817.16
667.885	4927.75
668.077	4757.77
668.268	4679.95
668.459	4585.74
668.651	4690.19
668.842	4657.42
669.033	4526.35
669.224	4700.43
669.416	4718.86
669.607	4534.54
669.798	4677.9
669.989	4829.45
670.18	4585.74
670.371	4454.67
670.563	4432.15
670.754	4536.59
670.945	4399.38
671.136	4442.39
671.327	4493.58
671.518	4397.33
671.709	4376.85
671.9	4423.95
672.091	4469.01
672.282	4213.01
672.473	4147.48
672.664	4440.34
672.855	4305.17
673.046	4301.08
673.237	4423.95
673.428	4186.39
673.619	4190.49
673.809	4307.22
674	4280.6
674.191	4157.72
674.382	4233.49
674.573	4170.01
674.764	4219.16
674.954	4339.99
675.145	4210.97
675.336	4127
675.527	4006.17
675.717	4276.5
675.908	4034.84
676.099	4096.28
676.289	4139.29
676.48	4141.33
676.671	4010.26
676.861	4061.46
677.052	4141.33
677.243	4116.76
677.433	4065.56
677.624	4090.13
677.814	4055.32
678.005	4176.15
678.195	4112.66
678.386	3977.5
678.576	4182.29
678.767	4141.33
678.957	3893.53
679.148	4067.61
679.338	3971.35
679.529	4086.04
679.719	3985.69
679.909	4063.51
680.1	4108.57
680.29	4061.46
680.481	3993.88
680.671	4004.12
680.861	4055.32
681.052	4006.17
681.242	3932.44
681.432	4063.51
681.622	4094.23
681.813	3920.15
682.003	4114.71
682.193	3936.54
682.383	3928.35
682.573	3961.11
682.764	4077.85
682.954	4174.1
683.144	3979.54
683.334	3938.59
683.524	4022.55
683.714	4053.27
683.904	3899.67
684.094	4061.46
684.284	3995.93
684.474	4002.07
684.664	3961.11
684.854	3989.78
685.044	3895.58
685.234	4124.95
685.424	3981.59
685.614	3846.43
685.804	3961.11
685.994	3846.43
686.184	3977.5
686.374	3977.5
686.564	3887.39
686.753	4026.65
686.943	3891.48
687.133	4043.03
687.323	3944.73
687.513	3862.81
687.702	3907.87
687.892	3881.24
688.082	3838.23
688.272	4036.89
688.461	3784.99
688.651	3985.69
688.841	3858.71
689.03	3838.23
689.22	3758.36
689.41	3889.43
689.599	3815.71
689.789	3793.18
689.979	3707.16
690.168	3715.36
690.358	3750.17
690.547	3594.53
690.737	3879.19
690.926	3682.59
691.116	3752.22
691.305	3823.9
691.495	3817.76
691.684	3682.59
691.874	3750.17
692.063	3744.03
692.252	3692.83
692.442	3625.25
692.631	3584.29
692.82	3664.16
693.01	3666.21
693.199	3688.73
693.388	3592.48
693.578	3748.12
693.767	3676.45
693.956	3703.07
694.146	3625.25
694.335	3535.14
694.524	3598.62
694.713	3698.97
694.902	3551.52
695.092	3637.53
695.281	3506.46
695.47	3715.36
695.659	3520.8
695.848	3633.44
696.037	3518.75
696.226	3498.27
696.415	3567.9
696.604	3651.87
696.793	3557.66
696.982	3420.45
697.171	3637.53
697.36	3528.99
697.549	3471.65
697.738	3520.8
697.927	3453.22
698.116	3660.06
698.305	3531.04
698.494	3572
698.683	3453.22
698.872	3526.94
699.061	3572
699.25	3514.66
699.438	3414.31
699.627	3416.35
699.816	3420.45
700.005	3424.55
700.193	3422.5
700.382	3430.69
700.571	3572
700.76	3516.7
700.948	3430.69
701.137	3465.5
701.326	3402.02
701.514	3477.79
701.703	3408.16
701.892	3420.45
702.08	3420.45
702.269	3338.53
702.457	3424.55
702.646	3379.49
702.834	3502.37
703.023	3402.02
703.212	3324.19
703.4	3348.77
703.589	3305.76
703.777	3270.95
703.965	3137.83
704.154	3309.86
704.342	3301.67
704.531	3240.23
704.719	3240.23
704.907	3383.59
705.096	3215.65
705.284	3289.38
705.472	3326.24
705.661	3203.36
705.849	3260.71
706.037	3273
706.226	3297.57
706.414	3146.02
706.602	3176.74
706.79	3180.84
706.979	3211.56
707.167	3225.89
707.355	3150.12
707.543	3178.79
707.731	3313.95
707.919	3094.82
708.107	3096.87
708.296	3080.49
708.484	3154.21
708.672	3068.2
708.86	3094.82
709.048	3002.66
709.236	3047.72
709.424	3057.96
709.612	3053.86
709.8	2978.09
709.988	3021.1
710.176	2976.04
710.364	3060.01
710.551	3014.95
710.739	2967.85
710.927	3039.53
711.115	3035.43
711.303	2971.94
711.491	2908.46
711.679	2933.03
711.866	3045.67
712.054	2982.18
712.242	2797.87
712.43	2875.69
712.617	2955.56
712.805	2840.87
712.993	2990.38
713.181	2955.56
713.368	2875.69
713.556	2957.61
713.744	2806.06
713.931	2922.79
714.119	2922.79
714.306	2892.07
714.494	2855.21
714.682	2744.62
714.869	2695.47
715.057	2900.27
715.244	2769.2
715.432	2828.59
715.619	2744.62
715.807	2781.48
715.994	2832.68
716.182	2683.18
716.369	2785.58
716.556	2908.46
716.744	2670.89
716.931	2711.85
717.119	2715.95
717.306	2765.1
717.493	2627.89
717.681	2744.62
717.868	2752.81
718.055	2556.21
718.242	2601.26
718.43	2613.55
718.617	2642.22
718.804	2785.58
718.991	2685.23
719.179	2701.61
719.366	2627.89
719.553	2597.17
719.74	2588.97
719.927	2621.74
720.114	2576.69
720.301	2593.07
720.488	2521.39
720.676	2529.58
720.863	2496.82
721.05	2588.97
721.237	2634.03
721.424	2529.58
721.611	2644.27
721.798	2457.9
721.985	2470.19
722.172	2494.77
722.358	2523.44
722.545	2554.16
722.732	2449.71
722.919	2437.42
723.106	2535.73
723.293	2482.48
723.48	2429.23
723.667	2437.42
723.853	2388.27
724.04	2492.72
724.227	2421.04
724.414	2425.14
724.6	2437.42
724.787	2332.98
724.974	2396.46
725.161	2347.31
725.347	2289.97
725.534	2396.46
725.72	2373.94
725.907	2406.7
726.094	2324.79
726.28	2418.99
726.467	2347.31
726.653	2341.17
726.84	2273.59
727.027	2357.55
727.213	2310.45
727.4	2353.46
727.586	2234.68
727.773	2277.68
727.959	2283.83
728.145	2249.01
728.332	2281.78
728.518	2251.06
728.705	2335.03
728.891	2277.68
729.077	2259.25
729.264	2203.96
729.45	2281.78
729.636	2240.82
729.823	2152.76
730.009	2226.48
730.195	2294.07
730.382	2214.2
730.568	2173.24
730.754	2218.29
730.94	2185.52
731.126	2257.2
731.313	2109.75
731.499	2083.13
731.685	2236.72
731.871	2081.08
732.057	2160.95
732.243	2199.86
732.429	2199.86
732.615	2277.68
732.801	2142.52
732.987	2029.88
733.173	2134.32
733.359	2093.37
733.545	2101.56
733.731	2117.94
733.917	2122.04
734.103	2124.08
734.289	2107.7
734.475	2089.27
734.661	2111.8
734.847	2171.19
735.033	2036.02
735.219	2087.22
735.404	2128.18
735.59	2072.89
735.776	2103.61
735.962	2122.04
736.148	2013.49
736.333	2163
736.519	2105.65
736.705	2079.03
736.89	1986.87
737.076	1993.01
737.262	2060.6
737.447	1990.97
737.633	2011.45
737.819	2015.54
738.004	1915.19
738.19	1927.48
738.375	1917.24
738.561	1999.16
738.747	1872.18
738.932	1831.23
739.118	1937.72
739.303	2036.02
739.489	1964.34
739.674	1913.14
739.859	1808.7
740.045	1968.44
740.23	1945.91
740.416	1831.23
740.601	2068.79
740.786	1921.34
740.972	1888.57
741.157	1892.66
741.342	1696.06
741.528	1780.03
741.713	1806.65
741.898	1831.23
742.084	1745.21
742.269	1777.98
742.454	1823.03
742.639	1767.74
742.824	1753.4
743.01	1769.79
743.195	1847.61
743.38	1769.79
743.565	1872.18
743.75	1863.99
743.935	1601.85
744.12	1761.59
744.305	1710.4
744.49	1677.63
744.675	1710.4
744.86	1585.47
745.045	1773.88
745.23	1728.83
745.415	1573.18
745.6	1593.66
745.785	1616.19
745.97	1685.82
746.155	1691.96
746.34	1696.06
746.525	1532.22
746.71	1659.2
746.895	1544.51
747.079	1595.71
747.264	1544.51
747.449	1564.99
747.634	1634.62
747.819	1597.76
748.003	1511.74
748.188	1481.02
748.373	1552.7
748.557	1487.17
748.742	1460.54
748.927	1497.41
749.111	1562.94
749.296	1431.87
749.481	1456.45
749.665	1450.3
749.85	1458.5
750.034	1397.06
750.219	1421.63
750.404	1446.21
750.588	1442.11
750.773	1356.1
750.957	1347.9
751.141	1388.86
751.326	1347.9
751.51	1405.25
751.695	1356.1
751.879	1298.75
752.064	1388.86
752.248	1366.34
752.432	1397.06
752.617	1251.65
752.801	1294.66
752.985	1311.04
753.17	1343.81
753.354	1270.08
753.538	1278.27
753.722	1216.83
753.907	1237.31
754.091	1151.3
754.275	1308.99
754.459	1081.67
754.643	1192.26
754.828	1200.45
755.012	1169.73
755.196	1151.3
755.38	1175.88
755.564	1159.49
755.748	1151.3
755.932	1139.01
756.116	1065.29
756.3	1169.73
756.484	1151.3
756.668	1112.39
756.852	1083.72
757.036	1134.92
757.22	1028.42
757.404	1028.42
757.588	1077.57
757.772	1096
757.956	1005.89
758.14	1087.81
758.323	995.65
758.507	1081.67
758.691	999.75
758.875	946.5
759.059	975.17
759.242	1026.37
759.426	1050.95
759.61	1005.89
759.794	973.13
759.977	938.31
760.161	1079.62
760.345	938.31
760.528	952.65
760.712	930.12
760.895	1044.81
761.079	891.21
761.263	973.13
761.446	1018.18
761.63	860.49
761.813	905.54
761.997	885.06
762.18	926.02
762.364	907.59
762.547	809.29
762.731	848.2
762.914	917.83
763.098	864.58
763.281	880.97
763.464	899.4
763.648	751.95
763.831	860.49
764.015	794.95
764.198	817.48
764.381	897.35
764.564	794.95
764.748	840.01
764.931	907.59
765.114	807.24
765.297	911.69
765.481	825.67
765.664	923.98
765.847	753.99
766.03	817.48
766.213	729.42
766.397	831.82
766.58	735.56
766.763	891.21
766.946	733.51
767.129	891.21
767.312	672.08
767.495	786.76
767.678	729.42
767.861	751.95
768.044	833.86
768.227	700.75
768.41	696.65
768.593	792.91
768.776	880.97
768.959	780.62
769.142	753.99
769.324	817.48
769.507	735.56
769.69	766.28
769.873	696.65
770.056	905.54
770.239	717.13
770.421	743.75
770.604	758.09
770.787	735.56
770.97	686.41
771.152	657.74
771.335	766.28
771.518	733.51
771.7	717.13
771.883	790.86
772.066	688.46
772.248	686.41
772.431	735.56
772.613	604.49
772.796	649.55
772.978	770.38
773.161	676.17
773.343	688.46
773.526	663.88
773.708	631.12
773.891	561.48
774.073	577.87
774.256	667.98
774.438	594.25
774.621	612.68
774.803	643.4
774.985	635.21
775.168	688.46
775.35	577.87
775.532	643.4
775.715	573.77
775.897	653.64
776.079	612.68
776.261	647.5
776.444	561.48
776.626	672.08
776.808	532.81
776.99	618.83
777.173	653.64
777.355	602.44
777.537	610.64
777.719	555.34
777.901	487.76
778.083	510.29
778.265	391.5
778.447	520.53
778.629	498
778.811	557.39
778.993	614.73
779.175	561.48
779.357	561.48
779.539	536.91
779.721	506.19
779.903	555.34
780.085	545.1
780.267	422.22
780.449	483.66
780.631	520.53
780.812	561.48
780.994	454.99
781.176	399.7
781.358	483.66
781.54	385.36
781.721	463.18
781.903	547.15
782.085	438.61
782.267	528.72
782.448	385.36
782.63	448.85
782.812	448.85
782.993	414.03
783.175	393.55
783.357	442.7
783.538	479.57
783.72	358.74
783.901	426.32
784.083	395.6
784.264	358.74
784.446	416.08
784.627	405.84
784.809	434.51
784.99	430.41
785.172	407.89
785.353	332.11
785.535	360.78
785.716	409.94
785.897	364.88
786.079	450.89
786.26	385.36
786.441	405.84
786.623	356.69
786.804	348.5
786.985	364.88
787.167	323.92
787.348	344.4
787.529	317.78
787.71	393.55
787.891	317.78
788.073	409.94
788.254	291.15
788.435	315.73
788.616	432.46
788.797	235.86
788.978	301.39
789.159	287.06
789.34	344.4
789.522	348.5
789.703	258.39
789.884	285.01
790.065	348.5
790.246	219.47
790.427	332.11
790.607	295.25
790.788	332.11
790.969	272.72
791.15	291.15
791.331	293.2
791.512	291.15
791.693	266.58
791.874	260.43
792.054	354.64
792.235	295.25
792.416	244.05
792.597	334.16
792.778	358.74
792.958	291.15
793.139	239.95
793.32	282.96
793.5	268.63
793.681	285.01
793.862	282.96
794.042	235.86
794.223	153.94
794.404	323.92
794.584	237.91
794.765	201.04
794.945	225.62
795.126	229.71
795.306	336.21
795.487	250.19
795.667	221.52
795.848	328.02
796.028	272.72
796.209	315.73
796.389	274.77
796.57	209.23
796.75	178.51
796.93	282.96
797.111	194.9
797.291	250.19
797.471	262.48
797.652	145.75
797.832	217.43
798.012	248.15
798.192	209.23
798.373	213.33
798.553	219.47
798.733	254.29
798.913	225.62
799.093	219.47
799.274	196.95
799.454	178.51
799.634	143.7
799.814	239.95
799.994	143.7
800.174	219.47
800.354	188.75
800.534	184.66
800.714	211.28
800.894	211.28
801.074	147.8
801.254	135.51
801.434	209.23
801.614	192.85
801.794	143.7
801.974	950.6
802.154	180.56
802.334	293.2
802.514	74.07
802.693	217.43
802.873	170.32
803.053	242
803.233	168.27
803.413	119.12
803.592	149.84
803.772	217.43
803.952	131.41
804.131	190.8
804.311	133.46
804.491	260.43
804.67	180.56
804.85	196.95
805.03	178.51
805.209	270.67
805.389	176.47
805.568	207.19
805.748	196.95
805.928	153.94
806.107	135.51
806.287	119.12
806.466	168.27
806.646	192.85
806.825	201.04
807.004	151.89
807.184	158.03
807.363	201.04
807.543	155.99
807.722	115.03
807.901	194.9
808.081	215.38
808.26	127.32
808.439	213.33
808.619	147.8
808.798	88.4
808.977	201.04
809.156	145.75
809.336	127.32
809.515	127.32
809.694	80.21
809.873	121.17
810.052	155.99
810.231	213.33
810.411	223.57
810.59	88.4
810.769	78.16
810.948	160.08
811.127	72.02
811.306	143.7
811.485	78.16
811.664	190.8
811.843	57.68
812.022	131.41
812.201	192.85
812.38	143.7
812.559	69.97
812.737	192.85
812.916	102.74
813.095	149.84
813.274	145.75
813.453	123.22
813.632	178.51
813.811	123.22
813.989	102.74
814.168	125.27
814.347	102.74
814.526	160.08
814.704	94.55
814.883	168.27
815.062	90.45
815.24	170.32
815.419	143.7
815.598	78.16
815.776	90.45
815.955	4.44
816.133	125.27
816.312	153.94
816.49	45.4
816.669	164.18
816.847	164.18
817.026	121.17
817.204	176.47
817.383	131.41
817.561	33.11
817.74	29.01
817.918	123.22
818.097	112.98
818.275	129.36
818.453	102.74
818.632	78.16
818.81	16.73
818.988	82.26
819.167	102.74
819.345	39.25
819.523	121.17
819.701	61.78
819.879	80.21
820.058	90.45
820.236	121.17
820.414	139.6
820.592	82.26
820.77	143.7
820.948	84.31
821.127	74.07
821.305	74.07
821.483	6.49
821.661	88.4
821.839	53.59
822.017	45.4
822.195	94.55
822.373	127.32
822.551	45.4
822.729	90.45
822.907	115.03
823.085	86.36
823.262	63.83
823.44	76.12
823.618	102.74
823.796	78.16
823.974	104.79
824.152	78.16
824.329	57.68
824.507	86.36
824.685	82.26
824.863	104.79
825.04	94.55
825.218	29.01
825.396	37.2
825.574	65.88
825.751	55.64
825.929	143.7
826.107	29.01
826.284	104.79
826.462	76.12
826.639	88.4
826.817	96.6
826.994	69.97
827.172	61.78
827.349	86.36
827.527	102.74
827.704	94.55
827.882	102.74
828.059	20.82
828.237	-3.75
828.414	69.97
828.591	20.82
828.769	131.41
828.946	20.82
829.124	84.31
829.301	133.46
829.478	45.4
829.655	63.83
829.833	127.32
830.01	72.02
830.187	45.4
830.364	100.69
830.542	88.4
830.719	166.23
830.896	88.4
831.073	88.4
831.25	82.26
831.427	100.69
831.604	14.68
831.782	-67.24
831.959	112.98
832.136	90.45
832.313	67.92
832.49	45.4
832.667	76.12
832.844	86.36
833.021	47.44
833.198	59.73
833.374	37.2
833.551	102.74
833.728	53.59
833.905	102.74
834.082	0.34
834.259	43.35
834.436	127.32
834.612	49.49
834.789	92.5
834.966	37.2
835.143	45.4
835.319	8.53
835.496	63.83
835.673	100.69
835.85	125.27
836.026	131.41
836.203	69.97
836.38	4.44
836.556	2.39
836.733	47.44
836.909	117.08
837.086	12.63
837.262	78.16
837.439	86.36
837.616	65.88
837.792	78.16
837.968	88.4
838.145	45.4
838.321	49.49
838.498	-20.14
838.674	24.92
838.851	55.64
839.027	47.44
839.203	72.02
839.38	129.36
839.556	20.82
839.732	4.44
839.909	98.64
840.085	29.01
840.261	-1.71
840.437	2.39
840.614	22.87
840.79	123.22
840.966	117.08
841.142	55.64
841.318	22.87
841.494	37.2
841.671	78.16
841.847	-52.91
842.023	49.49
842.199	24.92
842.375	127.32
842.551	59.73
842.727	49.49
842.903	102.74
843.079	-32.43
843.255	61.78
843.431	24.92
843.607	-11.95
843.783	53.59
843.959	-11.95
844.134	0.34
844.31	37.2
844.486	37.2
844.662	31.06
844.838	-11.95
845.013	86.36
845.189	53.59
845.365	12.63
845.541	6.49
845.716	12.63
845.892	22.87
846.068	29.01
846.244	-18.09
846.419	29.01
846.595	-89.77
846.77	-7.85
846.946	26.96
847.122	78.16
847.297	-3.75
847.473	102.74
847.648	0.34
847.824	53.59
847.999	6.49
848.175	-44.71
848.35	69.97
848.526	61.78
848.701	0.34
848.876	57.68
849.052	49.49
849.227	86.36
849.403	6.49
849.578	29.01
849.753	-22.19
849.929	12.63
850.104	-44.71
850.279	-11.95
850.454	8.53
850.63	-9.9
850.805	16.73
850.98	37.2
851.155	-36.52
851.33	63.83
851.505	22.87
851.681	145.75
851.856	12.63
852.031	110.93
852.206	49.49
852.381	-26.28
852.556	6.49
852.731	18.77
852.906	-20.14
853.081	-28.33
853.256	69.97
853.431	24.92
853.606	-3.75
853.781	63.83
853.956	-36.52
854.131	29.01
854.305	-42.67
854.48	-16.04
854.655	2.39
854.83	20.82
855.005	-44.71
855.18	-13.99
855.354	41.3
855.529	53.59
855.704	8.53
855.879	31.06
856.053	16.73
856.228	41.3
856.403	-63.15
856.577	37.2
856.752	57.68
856.926	37.2
857.101	53.59
857.276	14.68
857.45	-3.75
857.625	4.44
857.799	-87.72
857.974	-18.09
858.148	-52.91
858.323	-3.75
858.497	4.44
858.672	29.01
858.846	-28.33
859.02	86.36
859.195	-50.86
859.369	-1.71
859.543	49.49
859.718	78.16
859.892	108.88
860.066	-7.85
860.241	20.82
860.415	39.25
860.589	6.49
860.763	-42.67
860.938	29.01
861.112	49.49
861.286	61.78
861.46	43.35
861.634	6.49
861.808	47.44
861.982	4.44
862.157	96.6
862.331	-22.19
862.505	-52.91
862.679	-34.47
862.853	-20.14
863.027	49.49
863.201	92.5
863.375	4.44
863.549	-24.23
863.722	-24.23
863.896	55.64
864.07	-61.1
864.244	41.3
864.418	37.2
864.592	43.35
864.766	-20.14
864.939	-1.71
865.113	24.92
865.287	35.16
865.461	35.16
865.634	6.49
865.808	-26.28
865.982	-1.71
866.156	-3.75
866.329	6.49
866.503	0.34
866.676	69.97
866.85	31.06
867.024	31.06
867.197	49.49
867.371	47.44
867.544	0.34
867.718	45.4
867.891	-38.57
868.065	22.87
868.238	35.16
868.412	24.92
868.585	33.11
868.759	-16.04
868.932	-40.62
869.105	-20.14
869.279	-24.23
869.452	22.87
869.625	12.63
869.799	-3.75
869.972	-16.04
870.145	31.06
870.319	55.64
870.492	6.49
870.665	-34.47
870.838	-118.44
871.011	-69.29
871.185	12.63
871.358	-59.05
871.531	39.25
871.704	20.82
871.877	53.59
872.05	14.68
872.223	-9.9
872.396	-20.14
872.569	-69.29
872.742	47.44
872.915	76.12
873.088	33.11
873.261	-3.75
873.434	24.92
873.607	12.63
873.78	65.88
873.953	-97.96
874.126	-36.52
874.299	55.64
874.471	16.73
874.644	-9.9
874.817	45.4
874.99	82.26
875.163	-16.04
875.335	20.82
875.508	-57
875.681	55.64
875.853	-5.8
876.026	-28.33
876.199	29.01
876.371	12.63
876.544	-18.09
876.717	-40.62
876.889	41.3
877.062	0.34
877.234	-32.43
877.407	-1.71
877.579	20.82
877.752	14.68
877.924	16.73
878.097	29.01
878.269	29.01
878.442	-30.38
878.614	37.2
878.786	22.87
878.959	49.49
879.131	43.35
879.303	-75.43
879.476	69.97
879.648	33.11
879.82	45.4
879.993	24.92
880.165	31.06
880.337	39.25
880.509	51.54
880.681	-11.95
880.854	12.63
881.026	96.6
881.198	65.88
881.37	0.34
881.542	-11.95
881.714	-18.09
881.886	-28.33
882.058	51.54
882.23	20.82
882.402	16.73
882.574	29.01
882.746	41.3
882.918	49.49
883.09	61.78
883.262	43.35
883.434	39.25
883.606	4.44
883.778	41.3
883.95	31.06
884.122	33.11
884.293	45.4
884.465	12.63
884.637	-11.95
884.809	-65.19
884.98	10.58
885.152	55.64
885.324	45.4
885.496	-54.95
885.667	63.83
885.839	8.53
886.011	63.83
886.182	-18.09
886.354	-26.28
886.525	69.97
886.697	63.83
886.869	-59.05
887.04	-9.9
887.212	57.68
887.383	98.64
887.555	-44.71
887.726	41.3
887.897	-73.39
888.069	-91.82
888.24	-44.71
888.412	-11.95
888.583	14.68
888.754	-18.09
888.926	-100.01
889.097	-20.14
889.268	-18.09
889.44	4.44
889.611	-9.9
889.782	-13.99
889.953	-42.67
890.125	106.84
890.296	55.64
890.467	-16.04
890.638	18.77
890.809	-57
890.98	41.3
891.151	-28.33
891.323	102.74
891.494	-73.39
891.665	-34.47
891.836	12.63
892.007	4.44
892.178	-52.91
892.349	-34.47
892.52	-91.82
892.691	-26.28
892.862	-110.25
893.032	-9.9
893.203	16.73
893.374	24.92
893.545	8.53
893.716	37.2
893.887	37.2
894.057	-126.63
894.228	22.87
894.399	-11.95
894.57	119.12
894.74	4.44
894.911	33.11
895.082	-40.62
895.253	-34.47
895.423	12.63
895.594	24.92
895.764	31.06
895.935	-50.86
896.106	92.5
896.276	-7.85
896.447	12.63
896.617	-69.29
896.788	-77.48
896.958	39.25
897.129	59.73
897.299	-50.86
897.47	4.44
897.64	67.92
897.81	35.16
897.981	22.87
898.151	12.63
898.322	69.97
898.492	-36.52
898.662	-69.29
898.832	-3.75
899.003	-34.47
899.173	-134.82
899.343	-26.28
899.513	-22.19
