Data from USB4F104151__101__14-30-52-067.txt Node

Date: Thu Mar 13 14:30:52 EDT 2025
User: louis
Spectrometer: USB4F10415
Trigger mode: 4
Integration Time (sec): 2.500000E-2
Scans to average: 1
Electric dark correction enabled: true
Nonlinearity correction enabled: false
Boxcar width: 0
XAxis mode: Wavelengths
Number of Pixels in Spectrum: 3648
>>>>>Begin Spectral Data<<<<<
178.204	-146.26
178.424	-146.26
178.644	-146.26
178.864	-166.74
179.084	-179.03
179.304	-2.9
179.524	7.34
179.744	17.58
179.964	17.58
180.184	-82.77
180.404	11.43
180.624	-19.29
180.844	27.82
181.064	-23.38
181.283	1.19
181.503	27.82
181.723	17.58
181.943	-29.52
182.163	9.39
182.383	5.29
182.602	42.15
182.822	79.02
183.042	-31.57
183.262	17.58
183.482	27.82
183.701	42.15
183.921	46.25
184.141	9.39
184.361	66.73
184.58	-31.57
184.8	21.67
185.02	19.63
185.239	91.31
185.459	-13.14
185.679	50.35
185.898	11.43
186.118	109.74
186.338	79.02
186.557	29.87
186.777	21.67
186.997	-7
187.216	-2.9
187.436	54.44
187.655	21.67
187.875	93.35
188.095	3.24
188.314	64.68
188.534	107.69
188.753	25.77
188.973	-37.72
189.192	132.26
189.412	66.73
189.631	42.15
189.851	-11.09
190.07	66.73
190.29	-7
190.509	25.77
190.729	-7
190.948	99.5
191.168	115.88
191.387	58.54
191.607	29.87
191.826	66.73
192.045	62.63
192.265	-47.96
192.484	-27.48
192.704	109.74
192.923	17.58
193.142	134.31
193.362	60.59
193.581	146.6
193.8	50.35
194.02	74.92
194.239	44.2
194.458	66.73
194.678	33.96
194.897	42.15
195.116	33.96
195.335	27.82
195.555	27.82
195.774	-21.33
195.993	132.26
196.212	11.43
196.432	27.82
196.651	85.16
196.87	-39.76
197.089	66.73
197.308	38.06
197.528	-13.14
197.747	-11.09
197.966	25.77
198.185	138.41
198.404	50.35
198.623	1.19
198.842	21.67
199.062	31.91
199.281	87.21
199.5	3.24
199.719	105.64
199.938	66.73
200.157	74.92
200.376	58.54
200.595	42.15
200.814	17.58
201.033	27.82
201.252	44.2
201.471	27.82
201.69	66.73
201.909	66.73
202.128	21.67
202.347	52.39
202.566	72.87
202.785	-7
203.004	-31.57
203.223	72.87
203.442	33.96
203.661	19.63
203.879	31.91
204.098	50.35
204.317	15.53
204.536	60.59
204.755	50.35
204.974	44.2
205.193	68.78
205.411	11.43
205.63	25.77
205.849	91.31
206.068	42.15
206.287	1.19
206.505	11.43
206.724	33.96
206.943	-4.95
207.162	7.34
207.381	66.73
207.599	62.63
207.818	17.58
208.037	-23.38
208.255	-0.85
208.474	-2.9
208.693	58.54
208.911	23.72
209.13	66.73
209.349	83.11
209.567	-7
209.786	70.83
210.005	52.39
210.223	33.96
210.442	42.15
210.661	50.35
210.879	-15.19
211.098	-31.57
211.316	52.39
211.535	56.49
211.753	36.01
211.972	9.39
212.191	9.39
212.409	-54.1
212.628	15.53
212.846	3.24
213.065	58.54
213.283	142.5
213.502	11.43
213.72	54.44
213.938	40.11
214.157	17.58
214.375	105.64
214.594	42.15
214.812	7.34
215.031	17.58
215.249	91.31
215.467	13.48
215.686	40.11
215.904	72.87
216.122	-2.9
216.341	87.21
216.559	17.58
216.778	33.96
216.996	111.78
217.214	-19.29
217.432	-27.48
217.651	-7
217.869	101.55
218.087	72.87
218.306	79.02
218.524	74.92
218.742	-15.19
218.96	38.06
219.179	58.54
219.397	11.43
219.615	93.35
219.833	46.25
220.051	3.24
220.27	60.59
220.488	50.35
220.706	-23.38
220.924	-39.76
221.142	-54.1
221.36	-7
221.578	42.15
221.796	52.39
222.015	9.39
222.233	11.43
222.451	79.02
222.669	29.87
222.887	31.91
223.105	-15.19
223.323	-39.76
223.541	81.07
223.759	91.31
223.977	50.35
224.195	101.55
224.413	17.58
224.631	52.39
224.849	66.73
225.067	31.91
225.285	52.39
225.503	-45.91
225.721	13.48
225.939	-21.33
226.157	36.01
226.375	62.63
226.592	93.35
226.81	-11.09
227.028	87.21
227.246	85.16
227.464	36.01
227.682	-11.09
227.9	17.58
228.117	44.2
228.335	40.11
228.553	38.06
228.771	42.15
228.989	76.97
229.206	29.87
229.424	21.67
229.642	58.54
229.86	64.68
230.077	27.82
230.295	150.7
230.513	101.55
230.731	44.2
230.948	152.74
231.166	27.82
231.384	-15.19
231.601	1.19
231.819	148.65
232.037	-19.29
232.254	-68.44
232.472	42.15
232.689	25.77
232.907	93.35
233.125	-13.14
233.342	5.29
233.56	66.73
233.777	38.06
233.995	50.35
234.213	3.24
234.43	54.44
234.648	-27.48
234.865	-2.9
235.083	50.35
235.3	-4.95
235.518	-7
235.735	83.11
235.953	-15.19
236.17	-39.76
236.388	113.83
236.605	79.02
236.822	38.06
237.04	142.5
237.257	60.59
237.475	17.58
237.692	99.5
237.909	76.97
238.127	52.39
238.344	1.19
238.562	52.39
238.779	9.39
238.996	33.96
239.214	1.19
239.431	58.54
239.648	5.29
239.865	91.31
240.083	58.54
240.3	-0.85
240.517	-31.57
240.735	83.11
240.952	101.55
241.169	42.15
241.386	-7
241.603	7.34
241.821	-15.19
242.038	42.15
242.255	60.59
242.472	50.35
242.689	29.87
242.907	85.16
243.124	13.48
243.341	83.11
243.558	33.96
243.775	11.43
243.992	38.06
244.209	42.15
244.426	52.39
244.643	70.83
244.86	11.43
245.078	38.06
245.295	-25.43
245.512	74.92
245.729	25.77
245.946	36.01
246.163	42.15
246.38	62.63
246.597	33.96
246.814	-23.38
247.031	9.39
247.248	9.39
247.464	7.34
247.681	103.59
247.898	21.67
248.115	58.54
248.332	17.58
248.549	101.55
248.766	91.31
248.983	21.67
249.2	54.44
249.417	76.97
249.633	85.16
249.85	17.58
250.067	-47.96
250.284	-11.09
250.501	95.4
250.717	68.78
250.934	50.35
251.151	44.2
251.368	21.67
251.585	21.67
251.801	-13.14
252.018	1.19
252.235	66.73
252.451	70.83
252.668	76.97
252.885	85.16
253.102	87.21
253.318	74.92
253.535	36.01
253.752	15.53
253.968	31.91
254.185	5.29
254.401	54.44
254.618	58.54
254.835	-2.9
255.051	11.43
255.268	83.11
255.484	107.69
255.701	-4.95
255.917	99.5
256.134	58.54
256.351	44.2
256.567	1.19
256.784	13.48
257	25.77
257.217	50.35
257.433	97.45
257.65	25.77
257.866	87.21
258.082	17.58
258.299	36.01
258.515	1.19
258.732	3.24
258.948	42.15
259.165	50.35
259.381	50.35
259.597	33.96
259.814	83.11
260.03	54.44
260.246	33.96
260.463	58.54
260.679	119.98
260.895	23.72
261.112	72.87
261.328	111.78
261.544	17.58
261.761	115.88
261.977	3.24
262.193	-27.48
262.409	-7
262.626	68.78
262.842	-47.96
263.058	27.82
263.274	91.31
263.49	105.64
263.707	38.06
263.923	70.83
264.139	17.58
264.355	95.4
264.571	-21.33
264.787	91.31
265.004	115.88
265.22	13.48
265.436	74.92
265.652	42.15
265.868	36.01
266.084	-7
266.3	42.15
266.516	17.58
266.732	-15.19
266.948	-7
267.164	58.54
267.38	97.45
267.596	38.06
267.812	107.69
268.028	60.59
268.244	42.15
268.46	91.31
268.676	99.5
268.892	50.35
269.108	74.92
269.324	23.72
269.54	-4.95
269.756	101.55
269.972	-70.48
270.188	76.97
270.403	29.87
270.619	52.39
270.835	46.25
271.051	85.16
271.267	54.44
271.483	-15.19
271.698	-23.38
271.914	103.59
272.13	33.96
272.346	66.73
272.562	3.24
272.777	-4.95
272.993	-29.52
273.209	13.48
273.425	72.87
273.64	-23.38
273.856	81.07
274.072	17.58
274.287	46.25
274.503	85.16
274.719	46.25
274.934	-0.85
275.15	15.53
275.366	109.74
275.581	11.43
275.797	66.73
276.012	42.15
276.228	25.77
276.444	27.82
276.659	117.93
276.875	42.15
277.09	62.63
277.306	58.54
277.521	48.3
277.737	40.11
277.952	83.11
278.168	42.15
278.383	-29.52
278.599	29.87
278.814	165.03
279.03	11.43
279.245	193.7
279.461	19.63
279.676	70.83
279.892	33.96
280.107	1.19
280.322	136.36
280.538	-4.95
280.753	19.63
280.969	95.4
281.184	93.35
281.399	74.92
281.615	-7
281.83	50.35
282.045	-7
282.26	56.49
282.476	27.82
282.691	60.59
282.906	87.21
283.122	42.15
283.337	-2.9
283.552	70.83
283.767	-2.9
283.983	1.19
284.198	19.63
284.413	33.96
284.628	-39.76
284.843	33.96
285.058	-2.9
285.274	79.02
285.489	-21.33
285.704	76.97
285.919	-4.95
286.134	52.39
286.349	25.77
286.564	44.2
286.779	148.65
286.995	36.01
287.21	60.59
287.425	21.67
287.64	27.82
287.855	74.92
288.07	68.78
288.285	42.15
288.5	132.26
288.715	-15.19
288.93	9.39
289.145	25.77
289.36	103.59
289.575	7.34
289.79	50.35
290.004	122.02
290.219	29.87
290.434	60.59
290.649	11.43
290.864	46.25
291.079	23.72
291.294	83.11
291.509	42.15
291.724	17.58
291.938	-23.38
292.153	60.59
292.368	83.11
292.583	-19.29
292.798	50.35
293.012	15.53
293.227	42.15
293.442	-4.95
293.657	17.58
293.871	50.35
294.086	83.11
294.301	109.74
294.516	1.19
294.73	21.67
294.945	-27.48
295.16	50.35
295.374	5.29
295.589	130.22
295.804	-37.72
296.018	-27.48
296.233	68.78
296.447	83.11
296.662	11.43
296.877	79.02
297.091	-7
297.306	38.06
297.52	66.73
297.735	52.39
297.949	66.73
298.164	115.88
298.378	33.96
298.593	44.2
298.807	-21.33
299.022	46.25
299.236	85.16
299.451	15.53
299.665	-56.15
299.88	11.43
300.094	60.59
300.309	50.35
300.523	1.19
300.737	50.35
300.952	11.43
301.166	52.39
301.381	5.29
301.595	13.48
301.809	-19.29
302.024	68.78
302.238	19.63
302.452	46.25
302.667	42.15
302.881	70.83
303.095	74.92
303.309	68.78
303.524	50.35
303.738	33.96
303.952	54.44
304.166	66.73
304.381	-23.38
304.595	132.26
304.809	62.63
305.023	19.63
305.237	-25.43
305.452	-21.33
305.666	33.96
305.88	197.8
306.094	44.2
306.308	60.59
306.522	56.49
306.736	140.46
306.95	117.93
307.164	42.15
307.379	-7
307.593	179.37
307.807	70.83
308.021	56.49
308.235	126.12
308.449	33.96
308.663	-39.76
308.877	60.59
309.091	109.74
309.305	54.44
309.519	5.29
309.733	124.07
309.947	-29.52
310.161	140.46
310.374	25.77
310.588	101.55
310.802	11.43
311.016	58.54
311.23	70.83
311.444	-7
311.658	-15.19
311.872	87.21
312.085	91.31
312.299	74.92
312.513	40.11
312.727	85.16
312.941	21.67
313.154	85.16
313.368	-2.9
313.582	1.19
313.796	58.54
314.009	44.2
314.223	70.83
314.437	56.49
314.651	76.97
314.864	25.77
315.078	3.24
315.292	64.68
315.505	-4.95
315.719	60.59
315.933	15.53
316.146	19.63
316.36	31.91
316.573	111.78
316.787	70.83
317.001	83.11
317.214	3.24
317.428	36.01
317.641	50.35
317.855	76.97
318.068	40.11
318.282	46.25
318.495	124.07
318.709	58.54
318.922	-23.38
319.136	91.31
319.349	36.01
319.563	52.39
319.776	25.77
319.99	76.97
320.203	95.4
320.417	99.5
320.63	91.31
320.843	132.26
321.057	58.54
321.27	33.96
321.483	68.78
321.697	1.19
321.91	1.19
322.124	52.39
322.337	58.54
322.55	60.59
322.763	70.83
322.977	38.06
323.19	27.82
323.403	83.11
323.617	60.59
323.83	29.87
324.043	50.35
324.256	58.54
324.469	17.58
324.683	29.87
324.896	152.74
325.109	91.31
325.322	-11.09
325.535	42.15
325.748	62.63
325.962	117.93
326.175	1.19
326.388	21.67
326.601	119.98
326.814	58.54
327.027	25.77
327.24	107.69
327.453	9.39
327.666	74.92
327.879	111.78
328.092	-7
328.305	54.44
328.518	38.06
328.731	15.53
328.944	107.69
329.157	1.19
329.37	25.77
329.583	101.55
329.796	144.55
330.009	56.49
330.222	31.91
330.435	93.35
330.648	33.96
330.861	85.16
331.073	74.92
331.286	101.55
331.499	74.92
331.712	-29.52
331.925	9.39
332.138	124.07
332.35	160.94
332.563	33.96
332.776	17.58
332.989	13.48
333.202	87.21
333.414	68.78
333.627	126.12
333.84	62.63
334.053	115.88
334.265	70.83
334.478	-21.33
334.691	48.3
334.903	19.63
335.116	44.2
335.329	58.54
335.541	74.92
335.754	142.5
335.966	66.73
336.179	33.96
336.392	-19.29
336.604	36.01
336.817	109.74
337.029	11.43
337.242	40.11
337.454	95.4
337.667	7.34
337.88	87.21
338.092	74.92
338.305	74.92
338.517	-41.81
338.729	156.84
338.942	36.01
339.154	13.48
339.367	19.63
339.579	93.35
339.792	-52.05
340.004	66.73
340.217	11.43
340.429	50.35
340.641	33.96
340.854	44.2
341.066	79.02
341.278	50.35
341.491	58.54
341.703	-7
341.915	-29.52
342.128	109.74
342.34	50.35
342.552	42.15
342.764	33.96
342.977	-23.38
343.189	97.45
343.401	-7
343.613	-21.33
343.826	36.01
344.038	27.82
344.25	68.78
344.462	99.5
344.674	9.39
344.886	109.74
345.099	17.58
345.311	132.26
345.523	5.29
345.735	-23.38
345.947	58.54
346.159	3.24
346.371	70.83
346.583	23.72
346.795	91.31
347.007	64.68
347.219	95.4
347.431	52.39
347.643	46.25
347.855	44.2
348.067	50.35
348.279	-54.1
348.491	44.2
348.703	42.15
348.915	72.87
349.127	83.11
349.339	101.55
349.551	130.22
349.763	68.78
349.975	160.94
350.187	-15.19
350.399	68.78
350.61	79.02
350.822	44.2
351.034	91.31
351.246	99.5
351.458	48.3
351.669	91.31
351.881	70.83
352.093	38.06
352.305	64.68
352.517	85.16
352.728	48.3
352.94	83.11
353.152	66.73
353.363	79.02
353.575	76.97
353.787	124.07
353.999	-13.14
354.21	117.93
354.422	25.77
354.633	50.35
354.845	40.11
355.057	72.87
355.268	74.92
355.48	93.35
355.692	-11.09
355.903	-41.81
356.115	83.11
356.326	36.01
356.538	101.55
356.749	60.59
356.961	58.54
357.172	33.96
357.384	58.54
357.595	113.83
357.807	76.97
358.018	83.11
358.23	-23.38
358.441	95.4
358.653	33.96
358.864	27.82
359.075	93.35
359.287	85.16
359.498	54.44
359.709	83.11
359.921	167.08
360.132	-4.95
360.344	60.59
360.555	21.67
360.766	38.06
360.977	33.96
361.189	105.64
361.4	-4.95
361.611	74.92
361.823	107.69
362.034	21.67
362.245	87.21
362.456	7.34
362.667	130.22
362.879	99.5
363.09	105.64
363.301	117.93
363.512	76.97
363.723	64.68
363.935	-7
364.146	66.73
364.357	-27.48
364.568	29.87
364.779	7.34
364.99	11.43
365.201	44.2
365.412	25.77
365.623	11.43
365.834	64.68
366.045	74.92
366.256	54.44
366.467	36.01
366.678	64.68
366.889	66.73
367.1	36.01
367.311	33.96
367.522	128.17
367.733	58.54
367.944	13.48
368.155	33.96
368.366	99.5
368.577	122.02
368.788	91.31
368.999	42.15
369.209	91.31
369.42	134.31
369.631	107.69
369.842	99.5
370.053	52.39
370.264	101.55
370.474	46.25
370.685	9.39
370.896	60.59
371.107	95.4
371.317	72.87
371.528	58.54
371.739	79.02
371.95	107.69
372.16	-4.95
372.371	70.83
372.582	25.77
372.792	115.88
373.003	36.01
373.214	128.17
373.424	36.01
373.635	79.02
373.846	128.17
374.056	109.74
374.267	107.69
374.477	36.01
374.688	42.15
374.898	52.39
375.109	79.02
375.319	25.77
375.53	68.78
375.74	58.54
375.951	119.98
376.161	76.97
376.372	115.88
376.582	-64.34
376.793	42.15
377.003	50.35
377.214	17.58
377.424	70.83
377.635	44.2
377.845	17.58
378.055	126.12
378.266	52.39
378.476	91.31
378.686	85.16
378.897	38.06
379.107	111.78
379.317	44.2
379.528	13.48
379.738	136.36
379.948	42.15
380.158	140.46
380.369	7.34
380.579	33.96
380.789	3.24
380.999	124.07
381.21	103.59
381.42	132.26
381.63	60.59
381.84	33.96
382.05	44.2
382.261	85.16
382.471	132.26
382.681	50.35
382.891	175.27
383.101	74.92
383.311	27.82
383.521	83.11
383.731	103.59
383.941	107.69
384.151	81.07
384.361	17.58
384.571	126.12
384.781	115.88
384.991	33.96
385.201	83.11
385.411	177.32
385.621	148.65
385.831	107.69
386.041	99.5
386.251	95.4
386.461	107.69
386.671	91.31
386.881	66.73
387.091	36.01
387.301	156.84
387.511	93.35
387.72	31.91
387.93	109.74
388.14	27.82
388.35	66.73
388.56	50.35
388.769	50.35
388.979	107.69
389.189	54.44
389.399	50.35
389.609	76.97
389.818	87.21
390.028	76.97
390.238	115.88
390.447	42.15
390.657	27.82
390.867	11.43
391.076	21.67
391.286	124.07
391.496	144.55
391.705	76.97
391.915	85.16
392.125	36.01
392.334	81.07
392.544	107.69
392.753	58.54
392.963	36.01
393.172	124.07
393.382	36.01
393.591	103.59
393.801	79.02
394.01	185.51
394.22	132.26
394.429	117.93
394.639	85.16
394.848	93.35
395.058	93.35
395.267	81.07
395.477	134.31
395.686	52.39
395.895	173.22
396.105	173.22
396.314	144.55
396.524	183.46
396.733	107.69
396.942	138.41
397.152	109.74
397.361	79.02
397.57	117.93
397.78	173.22
397.989	99.5
398.198	205.99
398.407	101.55
398.617	201.9
398.826	95.4
399.035	83.11
399.244	87.21
399.453	148.65
399.663	115.88
399.872	167.08
400.081	115.88
400.29	158.89
400.499	124.07
400.708	175.27
400.917	210.09
401.127	238.76
401.336	83.11
401.545	267.43
401.754	195.75
401.963	158.89
402.172	119.98
402.381	146.6
402.59	228.52
402.799	201.9
403.008	140.46
403.217	167.08
403.426	173.22
403.635	177.32
403.844	185.51
404.053	185.51
404.262	156.84
404.471	242.85
404.68	214.18
404.888	130.22
405.097	199.85
405.306	171.18
405.515	230.57
405.724	214.18
405.933	267.43
406.142	292.01
406.35	283.81
406.559	181.42
406.768	220.33
406.977	240.81
407.185	324.77
407.394	251.05
407.603	263.33
407.812	249
408.02	341.16
408.229	386.21
408.438	234.66
408.646	316.58
408.855	306.34
409.064	332.97
409.272	312.49
409.481	396.45
409.69	418.98
409.898	373.92
410.107	470.18
410.315	421.03
410.524	511.14
410.733	421.03
410.941	445.6
411.15	429.22
411.358	421.03
411.567	607.39
411.775	601.25
411.984	484.52
412.192	517.28
412.401	674.98
412.609	679.07
412.818	726.18
413.026	631.97
413.234	636.06
413.443	689.31
413.651	738.46
413.86	881.82
414.068	836.77
414.276	877.73
414.485	896.16
414.693	851.1
414.901	1000.6
415.11	1010.84
415.318	922.78
415.526	922.78
415.734	1070.23
415.943	1074.33
416.151	1201.3
416.359	1074.33
416.567	1176.73
416.776	1240.22
416.984	1410.2
417.192	1387.67
417.4	1365.14
417.608	1313.94
417.817	1488.02
418.025	1477.78
418.233	1483.92
418.441	1524.88
418.649	1725.58
418.857	1762.45
419.065	1768.59
419.273	1821.84
419.481	1950.86
419.689	1993.87
419.897	1971.34
420.105	2032.78
420.313	2163.85
420.521	2210.95
420.729	2311.3
420.937	2317.45
421.145	2354.31
421.353	2395.27
421.561	2638.98
421.769	2784.38
421.977	2786.43
422.185	2925.69
422.393	2952.32
422.601	3114.11
422.809	3040.38
423.017	3056.76
423.224	3310.71
423.432	3542.13
423.64	3437.69
423.848	3736.69
424.056	3662.96
424.263	3941.49
424.471	3886.19
424.679	4007.02
424.887	4209.77
425.094	4248.68
425.302	4375.66
425.51	4404.33
425.718	4566.12
425.925	4768.87
426.133	4772.96
426.341	5170.27
426.548	5346.39
426.756	5434.46
426.964	5356.63
427.171	5751.89
427.379	5686.36
427.586	5925.97
427.794	6210.64
428.001	6360.14
428.209	6685.76
428.417	6659.14
428.624	7193.66
428.832	7103.55
429.039	7197.76
429.247	7048.26
429.454	7711.8
429.662	8143.92
429.869	7468.09
430.076	8367.15
430.284	7726.13
430.491	8318
430.699	8657.96
430.906	8666.15
431.114	8969.25
431.321	9118.75
431.528	9606.17
431.736	10087.44
431.943	10535.95
432.15	10105.87
432.358	10394.64
432.565	10976.26
432.772	10789.89
432.979	11240.45
433.187	11432.96
433.394	11580.41
433.601	12227.57
433.808	12368.88
434.016	12309.49
434.223	12891.11
434.43	13673.43
434.637	13358.05
434.844	14328.78
435.052	14433.23
435.259	14392.27
435.466	14582.73
435.673	14531.53
435.88	15193.03
436.087	16122.8
436.294	15967.16
436.501	15852.47
436.708	16042.93
436.915	16466.86
437.122	17189.8
437.329	17116.07
437.537	17664.93
437.743	17750.94
437.95	17732.51
438.157	18801.55
438.364	19139.46
438.571	19266.44
438.778	19598.21
438.985	21267.3
439.192	20501.36
439.399	21189.48
439.606	20611.95
439.813	21539.68
440.02	22944.59
440.227	22567.76
440.433	22254.42
440.64	22971.21
440.847	23012.17
441.054	23776.06
441.261	25027.37
441.467	24847.15
441.674	25449.25
441.881	26172.19
442.088	26112.8
442.294	25846.56
442.501	26770.19
442.708	27230.99
442.914	28173.05
443.121	29481.7
443.328	28517.11
443.534	30108.38
443.741	29762.28
443.948	29416.17
444.154	31494.86
444.361	31087.31
444.568	31353.55
444.774	31390.41
444.981	31748.81
445.187	32514.75
445.394	33987.24
445.6	33313.45
445.807	36690.55
446.013	34822.81
446.22	36121.22
446.426	37253.75
446.633	37556.85
446.839	38576.73
447.046	37190.26
447.252	39172.69
447.459	39207.51
447.665	39129.69
447.871	40733.25
448.078	42600.99
448.284	40309.32
448.491	41642.54
448.697	42830.37
448.903	43465.24
449.11	43987.47
449.316	43190.81
449.522	44378.63
449.728	45459.96
449.935	45314.55
450.141	45435.38
450.347	46649.83
450.553	45029.88
450.76	45595.12
450.966	47315.42
451.172	46338.54
451.378	47452.63
451.584	46545.38
451.791	47737.3
451.997	48052.69
452.203	48593.35
452.409	48277.96
452.615	47847.89
452.821	46365.16
453.027	46098.92
453.233	48257.48
453.44	46551.52
453.646	47002.08
453.852	47233.5
454.058	48288.2
454.264	46811.62
454.47	47698.39
454.676	46598.63
454.882	47929.81
455.088	43985.42
455.294	44833.28
455.5	45287.93
455.705	46047.72
455.911	44190.22
456.117	43000.35
456.323	42793.5
456.529	40520.26
456.735	42105.38
456.941	40954.43
457.147	40565.31
457.352	38978.14
457.558	38570.59
457.764	39023.19
457.97	38050.41
458.176	37284.47
458.381	37313.14
458.587	35408.53
458.793	35809.93
458.999	33532.59
459.204	35885.7
459.41	34927.25
459.616	32791.22
459.821	32662.2
460.027	32379.58
460.233	31797.96
460.438	30331.61
460.644	30698.2
460.85	29162.22
461.055	28842.74
461.261	28676.85
461.466	26815.25
461.672	25905.95
461.878	27667.2
462.083	25658.15
462.289	25281.32
462.494	25109.29
462.7	23843.65
462.905	23061.32
463.111	24017.72
463.316	24214.33
463.522	23716.67
463.727	23673.67
463.932	23438.15
464.138	23442.24
464.343	23556.93
464.549	22455.12
464.754	23470.92
464.959	23053.13
465.165	23186.25
465.37	22244.18
465.575	21465.96
465.781	22541.14
465.986	22491.99
466.191	21437.28
466.397	20964.2
466.602	19960.7
466.807	20933.48
467.012	21072.75
467.218	20753.26
467.423	20538.23
467.628	20755.31
467.833	21590.88
468.038	20857.71
468.244	20216.69
468.449	20857.71
468.654	20456.31
468.859	20405.11
469.064	19831.68
469.269	19205
469.474	19444.61
469.679	19911.55
469.885	18979.72
470.09	19379.07
470.295	19182.47
470.5	18834.32
470.705	18994.06
470.91	18138.01
471.115	18246.55
471.32	18385.81
471.525	18643.85
471.73	18021.27
471.935	17787.8
472.139	17281.95
472.344	17501.09
472.549	17363.87
472.754	17343.39
472.959	16917.42
473.164	16534.45
473.369	16288.69
473.574	16665.52
473.778	16479.15
473.983	16536.49
474.188	16270.26
474.393	15659.96
474.598	15733.69
474.802	15481.79
475.007	15590.33
475.212	15524.8
475.417	14887.88
475.621	14879.69
475.826	14951.37
476.031	14660.55
476.235	14681.03
476.44	14535.63
476.645	14033.88
476.849	14287.82
477.054	14222.29
477.259	14058.45
477.463	14132.18
477.668	13495.26
477.872	13734.87
478.077	13452.25
478.282	13229.02
478.486	12954.6
478.691	13020.13
478.895	13112.29
479.1	12815.34
479.304	12954.6
479.509	12649.45
479.713	13001.7
479.918	12542.96
480.122	12467.18
480.326	12757.99
480.531	12159.99
480.735	12305.39
480.94	11973.62
481.144	12502
481.348	12127.22
481.553	12356.59
481.757	11822.07
481.961	12162.03
482.166	12137.46
482.37	12063.73
482.574	11928.56
482.778	11920.37
482.983	12094.45
483.187	12030.96
483.391	11965.43
483.595	11961.33
483.8	11850.74
484.004	11871.22
484.208	11953.14
484.412	11850.74
484.616	11869.17
484.821	12030.96
485.025	11846.65
485.229	11920.37
485.433	12039.15
485.637	11834.36
485.841	11725.82
486.045	11734.01
486.249	11916.28
486.453	11731.96
486.657	11996.15
486.861	11908.08
487.065	11572.22
487.269	11770.87
487.473	11504.64
487.677	12002.29
487.881	11877.37
488.085	11832.31
488.289	12008.44
488.493	11604.99
488.697	11883.51
488.901	11791.35
489.105	11817.97
489.309	11920.37
489.512	11922.42
489.716	11797.49
489.92	11963.38
490.124	11973.62
490.328	12127.22
490.531	12016.63
490.735	12004.34
490.939	12018.68
491.143	11961.33
491.346	11856.89
491.55	12391.41
491.754	12178.42
491.958	12151.79
492.161	11985.91
492.365	12284.91
492.569	12170.22
492.772	12348.4
492.976	12485.61
493.18	12432.36
493.383	12354.54
493.587	12463.08
493.79	12796.9
493.994	12545
494.197	12784.62
494.401	12805.1
494.605	12872.68
494.808	12954.6
495.012	12891.11
495.215	12985.32
495.419	12981.22
495.622	13059.04
495.825	13452.25
496.029	13333.47
496.232	13824.98
496.436	13732.83
496.639	13714.39
496.843	13667.29
497.046	14046.16
497.249	14136.27
497.453	14138.32
497.656	14371.79
497.859	14592.97
498.063	14461.9
498.266	14693.32
498.469	14738.38
498.673	15035.33
498.876	15180.74
499.079	15311.81
499.282	15371.2
499.485	15797.18
499.689	15532.99
499.892	15836.09
500.095	15860.66
500.298	16532.4
500.501	15989.69
500.705	16284.59
500.908	16561.07
501.111	16987.05
501.314	17103.78
501.517	17089.45
501.72	17312.67
501.923	17114.02
502.126	17937.3
502.329	17937.3
502.532	17851.29
502.735	18215.83
502.938	18471.82
503.141	18416.53
503.344	18879.37
503.547	18865.03
503.75	18928.52
503.953	19510.14
504.156	19514.24
504.359	19723.13
504.562	19882.88
504.765	20274.04
504.968	20484.98
505.17	20503.41
505.373	20579.18
505.576	21156.71
505.779	21138.28
505.982	21322.6
506.185	21879.64
506.387	21785.44
506.59	22078.3
506.793	22379.35
506.996	22088.54
507.198	22850.38
507.401	22743.89
507.604	23073.61
507.807	23468.87
508.009	23429.96
508.212	23595.84
508.415	23954.24
508.617	24183.61
508.82	24447.8
509.022	24552.24
509.225	24967.98
509.428	25056.04
509.63	25535.27
509.833	25088.81
510.035	26157.85
510.238	25764.64
510.44	26153.76
510.643	26612.5
510.845	27034.38
511.048	26987.28
511.25	27001.61
511.453	27558.66
511.655	28035.84
511.858	28246.78
512.06	28308.22
512.262	28605.17
512.465	28508.92
512.667	28760.82
512.87	29027.06
513.072	29305.58
513.274	30044.9
513.477	30354.14
513.679	29993.7
513.881	30581.46
514.084	30859.99
514.286	30943.95
514.488	31183.57
514.69	31804.1
514.893	31906.5
515.095	32137.92
515.297	32527.03
515.499	32459.45
515.701	32854.71
515.904	33467.05
516.106	33499.82
516.308	34116.26
516.51	34022.05
516.712	33905.32
516.914	34933.4
517.116	35189.39
517.318	35082.9
517.52	35310.22
517.722	35254.93
517.925	36082.31
518.127	36274.82
518.329	36436.61
518.531	36067.97
518.733	36942.45
518.935	37237.36
519.136	36831.86
519.338	37718.64
519.54	37825.13
519.742	38197.86
519.944	38339.17
520.146	38455.9
520.348	38906.46
520.55	38777.43
520.752	39029.34
520.954	39803.47
521.155	39627.34
521.357	40081.99
521.559	40837.69
521.761	41042.49
521.963	41003.58
522.164	40876.6
522.366	40782.4
522.568	41300.53
522.77	41435.7
522.971	41880.11
523.173	41538.1
523.375	41740.85
523.576	41861.68
523.778	41876.01
523.98	42627.62
524.181	42967.58
524.383	42617.38
524.584	42734.11
524.786	42908.19
524.988	43029.02
525.189	42900
525.391	43520.53
525.592	43797.01
525.794	43637.26
525.995	44065.29
526.197	43686.42
526.398	43983.37
526.6	43725.33
526.801	44194.31
527.003	44073.48
527.204	44440.07
527.406	44562.95
527.607	44540.42
527.808	44468.74
528.01	43790.86
528.211	44302.85
528.412	45066.75
528.614	44759.55
528.815	44925.44
529.016	45087.23
529.218	44155.4
529.419	44741.12
529.62	44907.01
529.822	44753.41
530.023	44878.33
530.224	44489.22
530.425	44839.42
530.626	44526.08
530.828	44601.86
531.029	45261.3
531.23	44581.38
531.431	44329.48
531.632	44618.24
531.833	44319.24
532.035	44792.32
532.236	44554.75
532.437	44859.9
532.638	44300.81
532.839	44825.09
533.04	44644.87
533.241	44233.22
533.442	44644.87
533.643	44839.42
533.844	44481.03
534.045	44337.67
534.246	44040.71
534.447	44700.16
534.648	44286.47
534.849	44136.97
535.05	43774.48
535.251	44255.75
535.451	43776.53
535.652	44030.47
535.853	43856.4
536.054	43872.78
536.255	43964.94
536.456	43620.88
536.657	44036.62
536.857	43530.77
537.058	43282.97
537.259	44075.53
537.46	43590.16
537.66	43571.73
537.861	43242.01
538.062	43100.7
538.263	43571.73
538.463	42881.56
538.664	43452.95
538.865	43624.98
539.065	43459.09
539.266	42748.45
539.466	43498
539.667	42713.63
539.868	43254.29
540.068	43137.56
540.269	43059.74
540.469	43330.07
540.67	42840.6
540.87	42543.65
541.071	43055.64
541.271	43096.6
541.472	42961.44
541.672	42615.33
541.873	42504.74
542.073	42205.73
542.274	42932.76
542.474	42793.5
542.675	42201.64
542.875	42750.49
543.075	42619.42
543.276	42267.17
543.476	42957.34
543.676	42666.53
543.877	42695.2
544.077	42521.12
544.277	42527.27
544.478	42236.45
544.678	42365.48
544.878	42318.37
545.078	42654.24
545.279	41906.73
545.479	42228.26
545.679	42873.37
545.879	42605.09
546.079	42646.05
546.28	42263.08
546.48	42154.54
546.68	42371.62
546.88	42422.82
547.08	42365.48
547.28	42428.96
547.48	41646.64
547.68	42156.58
547.88	41996.84
548.081	42314.28
548.281	42095.14
548.481	42338.85
548.681	42617.38
548.881	42070.57
549.081	42512.93
549.28	41761.33
549.48	42334.76
549.68	41826.86
549.88	42506.79
550.08	41790
550.28	42293.8
550.48	41994.79
550.68	42797.6
550.88	42162.73
551.08	42328.61
551.279	42261.03
551.479	42013.23
551.679	42269.22
551.879	42658.34
552.079	42603.04
552.278	42127.91
552.478	42158.63
552.678	42574.37
552.878	42316.32
553.077	42711.58
553.277	41886.25
553.477	42371.62
553.676	42500.64
553.876	42408.48
554.076	42297.89
554.275	42506.79
554.475	41941.55
554.674	42379.81
554.874	42439.2
555.074	42396.2
555.273	42336.8
555.473	42740.25
555.672	42121.77
555.872	42359.33
556.071	42961.44
556.271	42539.55
556.47	42441.25
556.67	42435.11
556.869	42502.69
557.068	42631.71
557.268	42299.94
557.467	42519.07
557.667	42422.82
557.866	42402.34
558.065	42455.59
558.265	42514.98
558.464	42177.06
558.663	43174.42
558.863	41970.22
559.062	43024.92
559.261	42531.36
559.461	42965.53
559.66	42052.14
559.859	42644
560.058	42084.9
560.258	42506.79
560.457	42316.32
560.656	42519.07
560.855	42285.61
561.054	42420.77
561.253	42267.17
561.453	42232.36
561.652	42656.29
561.851	42220.07
562.05	42056.23
562.249	41945.64
562.448	42420.77
562.647	42383.91
562.846	42398.24
563.045	42414.63
563.244	41990.7
563.443	42615.33
563.642	41646.64
563.841	42226.21
564.04	41970.22
564.239	42553.89
564.438	41935.4
564.637	41859.63
564.836	42177.06
565.035	41372.21
565.234	41665.07
565.432	41505.33
565.631	41988.65
565.83	41753.13
566.029	41986.6
566.228	41228.85
566.427	41613.87
566.625	41474.61
566.824	40837.69
567.023	41529.9
567.222	40749.63
567.42	41624.11
567.619	41222.71
567.818	41218.61
568.016	40997.43
568.215	41097.78
568.414	40825.4
568.612	41318.96
568.811	40956.47
569.01	40622.65
569.208	40311.36
569.407	41032.25
569.605	40118.85
569.804	40778.3
570.002	40049.22
570.201	40360.51
570.4	39967.3
570.598	39991.88
570.797	39924.3
570.995	39950.92
571.193	39371.35
571.392	40120.9
571.59	39279.19
571.789	39049.81
571.987	39664.21
572.186	39742.03
572.384	39463.5
572.582	39539.28
572.781	39598.67
572.979	38775.39
573.177	39187.03
573.376	39164.5
573.574	38695.52
573.772	39174.74
573.971	38902.36
574.169	38941.27
574.367	38351.46
574.565	38670.94
574.763	38371.94
574.962	38324.83
575.16	37921.38
575.358	38136.42
575.556	37624.43
575.754	38064.74
575.952	37460.59
576.151	38253.15
576.349	37393.01
576.547	37333.62
576.745	37544.56
576.943	37565.04
577.141	37419.63
577.339	37378.67
577.537	37239.41
577.735	37102.2
577.933	36928.12
578.131	37061.24
578.329	36590.2
578.527	36487.81
578.725	36702.84
578.923	36729.47
579.121	36463.23
579.319	36082.31
579.516	36485.76
579.714	36670.08
579.912	36209.28
580.11	35762.82
580.308	36264.58
580.506	35637.9
580.704	35293.84
580.901	35826.31
581.099	35543.69
581.297	35363.47
581.495	35220.11
581.692	35783.3
581.89	35037.84
582.088	35263.12
582.285	35349.14
582.483	35015.32
582.681	35062.42
582.878	34955.93
583.076	34286.24
583.274	34646.68
583.471	34699.93
583.669	34632.35
583.866	34183.84
584.064	34634.39
584.262	34130.59
584.459	33882.79
584.657	33989.28
584.854	33784.49
585.052	33825.45
585.249	33798.82
585.447	33807.01
585.644	33612.46
585.841	33317.55
586.039	33970.85
586.236	33127.09
586.434	33252.02
586.631	32920.24
586.828	33114.8
587.026	33233.58
587.223	32699.06
587.42	32916.15
587.618	32967.35
587.815	32611
588.012	32817.85
588.21	32686.78
588.407	33053.36
588.604	32383.68
588.801	32430.78
588.999	32670.39
589.196	32492.22
589.393	32078.53
589.59	32359.1
589.787	32039.62
589.984	31890.12
590.182	32101.06
590.379	32150.21
590.576	31978.18
590.773	31689.42
590.97	31810.25
591.167	31668.94
591.364	31226.57
591.561	31615.69
591.758	31275.73
591.955	31363.79
592.152	31832.77
592.349	31021.78
592.546	31451.85
592.743	31455.95
592.94	31158.99
593.137	31234.77
593.334	30911.19
593.531	30810.84
593.727	31103.7
593.924	30931.67
594.121	30579.42
594.318	30804.69
594.515	30509.79
594.712	31105.74
594.908	30673.62
595.105	30857.94
595.302	30491.35
595.499	30665.43
595.696	30556.89
595.892	30380.76
596.089	30425.82
596.286	30757.59
596.482	30388.95
596.679	30276.32
596.876	30460.63
597.072	30239.45
597.269	30214.88
597.466	30149.34
597.662	29905.63
597.859	29870.82
598.055	30370.52
598.252	29762.28
598.448	29881.06
598.645	29725.41
598.841	29686.5
599.038	29764.32
599.234	29786.85
599.431	29733.6
599.627	29598.44
599.824	29731.56
600.02	29416.17
600.217	29602.53
600.413	29657.83
600.609	29831.91
600.806	29162.22
601.002	29543.14
601.198	29612.77
601.395	29506.28
601.591	29530.86
601.787	29543.14
601.984	29586.15
602.18	29969.12
602.376	29661.93
602.572	29618.92
602.769	29795.04
602.965	29317.87
603.161	29586.15
603.357	29293.29
603.553	29584.1
603.75	29364.97
603.946	29438.7
604.142	29446.89
604.338	29061.87
604.534	29496.04
604.73	29025.01
604.926	29455.08
605.122	29803.24
605.318	29332.2
605.514	29170.41
605.71	29199.09
605.906	29270.76
606.102	29702.89
606.298	29571.82
606.494	29367.02
606.69	29717.22
606.886	29655.78
607.082	29422.31
607.278	29897.44
607.474	29184.75
607.67	29526.76
607.866	29407.98
608.062	29645.54
608.257	30034.66
608.453	29649.64
608.649	29905.63
608.845	29432.55
609.041	29584.1
609.236	29858.53
609.432	29811.43
609.628	29706.98
609.824	29700.84
610.019	29715.17
610.215	30053.09
610.411	30231.26
610.606	29786.85
610.802	30024.42
610.998	29715.17
611.193	29926.11
611.389	29760.23
611.584	29819.62
611.78	29938.4
611.976	30055.14
612.171	29997.79
612.367	30075.62
612.562	29608.68
612.758	29461.23
612.953	29872.87
613.149	30225.12
613.344	29731.56
613.539	30178.01
613.735	30257.88
613.93	30323.42
614.126	30210.78
614.321	30096.1
614.517	29930.21
614.712	30096.1
614.907	29985.51
615.103	29883.11
615.298	29866.72
615.493	30126.81
615.688	29975.27
615.884	30438.11
616.079	29698.79
616.274	29989.6
616.47	29692.65
616.665	29852.39
616.86	29948.64
617.055	29844.2
617.25	29756.13
617.445	30067.42
617.641	29647.59
617.836	29876.96
618.031	29610.73
618.226	29631.21
618.421	29569.77
618.616	29862.63
618.811	29639.4
619.006	29551.34
619.201	28924.66
619.396	29375.21
619.591	29487.85
619.786	29338.35
619.981	29231.85
620.176	29348.59
620.371	28662.52
620.566	28912.37
620.761	28701.43
620.956	28949.23
621.151	28549.88
621.346	28635.89
621.541	28216.06
621.735	28359.42
621.93	27951.87
622.125	28150.53
622.32	27702.02
622.515	27941.63
622.709	27765.51
622.904	27769.6
623.099	27659.01
623.294	27618.05
623.488	27417.35
623.683	27294.47
623.878	26968.85
624.072	26852.11
624.267	27190.03
624.462	26743.57
624.656	26456.85
624.851	26221.34
625.046	26336.02
625.24	26104.6
625.435	26311.45
625.629	26077.98
625.824	26016.54
626.018	26018.59
626.213	25475.88
626.407	25504.55
626.602	25178.92
626.796	25639.72
626.991	25453.35
627.185	24996.65
627.38	25025.32
627.574	24738.61
627.768	24816.43
627.963	24593.2
628.157	24199.99
628.352	24406.84
628.546	24165.18
628.74	24189.75
628.935	23575.36
629.129	23743.3
629.323	23864.13
629.517	23612.23
629.712	23774.02
629.906	23567.17
630.1	23147.34
630.294	23429.96
630.489	23225.16
630.683	23188.3
630.877	22846.29
631.071	22868.81
631.265	22827.85
631.459	22616.91
631.653	22684.5
631.848	22309.72
632.042	22307.67
632.236	22377.3
632.43	21713.76
632.624	22471.51
632.818	21724
633.012	21623.65
633.206	21594.98
633.4	21549.92
633.594	21162.86
633.788	21502.82
633.982	21558.11
634.176	21246.82
634.369	21001.07
634.563	21062.51
634.757	20783.98
634.951	20640.62
635.145	20595.57
635.339	20611.95
635.533	20398.96
635.726	20018.04
635.92	20120.44
636.114	19975.03
636.308	19805.05
636.501	20149.11
636.695	19778.43
636.889	19710.85
637.083	19598.21
637.276	19489.67
637.47	19364.74
637.664	19067.78
637.857	19141.51
638.051	19047.3
638.244	18879.37
638.438	18910.09
638.632	18793.36
638.825	18557.84
639.019	18336.66
639.212	18254.74
639.406	18267.03
639.599	18256.79
639.793	18158.49
639.986	17916.83
640.18	18027.42
640.373	17822.62
640.567	17537.95
640.76	17525.66
640.954	17730.46
641.147	17238.95
641.34	16980.9
641.534	17247.14
641.727	16878.51
641.92	17079.21
642.114	16800.68
642.307	16911.27
642.5	16878.51
642.694	16352.18
642.887	16131
643.08	16729
643.273	16497.58
643.467	16067.51
643.66	16159.67
643.853	15950.78
644.046	15913.91
644.239	15860.66
644.432	15606.72
644.626	15446.97
644.819	15352.77
645.012	15526.85
645.205	15358.91
645.398	15451.07
645.591	15115.2
645.784	14971.85
645.977	14934.98
646.17	14977.99
646.363	14603.21
646.556	14887.88
646.749	14842.82
646.942	14748.62
647.135	14210
647.328	14341.07
647.521	14287.82
647.714	14257.11
647.907	14154.71
648.099	14187.47
648.292	14169.04
648.485	13951.96
648.678	13636.57
648.871	13816.79
649.064	13519.84
649.256	13624.28
649.449	13558.75
649.642	13421.53
649.835	13265.89
650.027	13405.15
650.22	13200.35
650.413	13069.28
650.605	13181.92
650.798	13050.85
650.991	12839.91
651.183	12962.79
651.376	12665.83
651.568	12780.52
651.761	12510.19
651.954	12461.04
652.146	12422.13
652.339	12442.6
652.531	12348.4
652.724	12264.43
652.916	12235.76
653.109	12237.81
653.301	12188.66
653.494	12207.09
653.686	12028.92
653.879	11977.72
654.071	11799.54
654.263	11738.1
654.456	12067.83
654.648	11609.08
654.84	11672.57
655.033	11600.89
655.225	11422.72
655.417	11160.58
655.61	11262.97
655.802	11478.01
655.994	11127.81
656.186	11197.44
656.379	11060.23
656.571	11039.75
656.763	11017.22
656.955	10900.48
657.148	11021.31
657.34	11002.88
657.532	10832.9
657.724	10671.11
657.916	10839.05
658.108	10789.89
658.3	10353.68
658.492	10468.36
658.684	10148.88
658.876	10376.2
659.068	10294.29
659.26	10198.03
659.452	10195.98
659.644	10204.17
659.836	10032.15
660.028	10208.27
660.22	9753.62
660.412	9896.98
660.604	9753.62
660.796	9831.44
660.988	9745.43
661.18	9634.84
661.372	9456.67
661.563	9784.34
661.755	9522.2
661.947	9501.72
662.139	9593.88
662.331	9305.12
662.522	9180.19
662.714	9301.02
662.906	9159.71
663.097	9172
663.289	9098.27
663.481	9018.4
663.673	9038.88
663.864	8911.91
664.056	8854.56
664.247	8758.31
664.439	8897.57
664.631	8825.89
664.822	8829.99
665.014	8703.01
665.205	8535.08
665.397	8508.46
665.588	8537.13
665.78	8444.97
665.971	8397.87
666.163	8234.03
666.354	8500.26
666.546	8328.24
666.737	8148.01
666.929	8299.56
667.12	8258.6
667.311	8029.23
667.503	7924.79
667.694	7978.03
667.885	8123.44
668.077	7894.07
668.268	7869.49
668.459	7816.24
668.651	7861.3
668.842	7885.87
669.033	7769.14
669.224	7701.56
669.416	7885.87
669.607	7758.9
669.798	7572.54
669.989	7775.28
670.18	7537.72
670.371	7531.58
670.563	7427.13
670.754	7644.21
670.945	7251
671.136	7517.24
671.327	7461.94
671.518	7195.71
671.709	7287.87
671.9	7472.18
672.091	7310.4
672.282	7234.62
672.473	7246.91
672.664	7074.88
672.855	7076.93
673.046	7103.55
673.237	7081.02
673.428	7234.62
673.619	7019.58
673.809	6882.37
674	6968.38
674.191	6833.22
674.382	6923.33
674.573	6931.52
674.764	6976.58
674.954	6806.59
675.145	6841.41
675.336	6876.23
675.527	6753.35
675.717	6775.88
675.908	6718.53
676.099	6614.09
676.289	6560.84
676.48	6786.12
676.671	6874.18
676.861	6759.49
677.052	6550.6
677.243	6523.98
677.433	6618.18
677.624	6583.37
677.814	6603.85
678.005	6558.79
678.195	6607.94
678.386	6532.17
678.576	6458.44
678.767	6644.81
678.957	6507.59
679.148	6544.45
679.338	6423.62
679.529	6528.07
679.719	6444.1
679.909	6452.3
680.1	6210.64
680.29	6382.67
680.481	6345.8
680.671	6235.21
680.861	6427.72
681.052	6386.76
681.242	6300.75
681.432	6384.71
681.622	6286.41
681.813	6347.85
682.003	6300.75
682.193	6245.45
682.383	6263.88
682.573	6122.57
682.764	6206.54
682.954	6202.44
683.144	6071.37
683.334	6151.24
683.524	6186.06
683.714	6210.64
683.904	6179.92
684.094	6153.29
684.284	6112.33
684.474	6251.6
684.664	6165.58
684.854	6011.98
685.044	6075.47
685.234	6079.57
685.424	5944.4
685.614	5921.87
685.804	5827.67
685.994	5897.3
686.184	6145.1
686.374	5862.48
686.564	5997.65
686.753	6022.22
686.943	5876.82
687.133	5776.47
687.323	5780.56
687.513	5876.82
687.702	5966.93
687.892	5768.27
688.082	5817.43
688.272	5784.66
688.461	5825.62
688.651	5762.13
688.841	5672.02
689.03	5747.79
689.22	5594.2
689.41	5647.44
689.599	5633.11
689.789	5573.72
689.979	5655.64
690.168	5616.72
690.358	5434.46
690.547	5491.8
690.737	5432.41
690.926	5389.4
691.116	5366.87
691.305	5502.04
691.495	5401.69
691.684	5440.6
691.874	5583.96
692.063	5383.26
692.252	5401.69
692.442	5424.22
692.631	5416.02
692.82	5407.83
693.01	5327.96
693.199	5356.63
693.388	5309.53
693.578	5383.26
693.767	5008.48
693.956	5342.3
694.146	5125.21
694.335	5194.84
694.524	5235.8
694.713	5207.13
694.902	5235.8
695.092	5225.56
695.281	5074.01
695.47	5088.35
695.659	5051.49
695.848	5014.62
696.037	5094.49
696.226	5018.72
696.415	4967.52
696.604	4938.85
696.793	4858.98
696.982	5071.97
697.171	4955.23
697.36	5170.27
697.549	4951.14
697.738	4953.18
697.927	4912.22
698.116	5084.25
698.305	4818.02
698.494	4904.03
698.683	4883.55
698.872	4924.51
699.061	4967.52
699.25	4723.81
699.438	4795.49
699.627	4723.81
699.816	4871.26
700.005	4787.3
700.193	4891.74
700.382	4809.83
700.571	4732
700.76	4676.71
700.948	4840.54
701.137	4752.48
701.326	4672.61
701.514	4666.47
701.703	4572.26
701.892	4785.25
702.08	4727.91
702.269	4635.75
702.457	4613.22
702.646	4631.65
702.834	4629.6
703.023	4519.01
703.212	4523.11
703.4	4590.69
703.589	4531.3
703.777	4715.62
703.965	4320.36
704.154	4424.81
704.342	4584.55
704.531	4465.77
704.719	4396.14
704.907	4484.2
705.096	4320.36
705.284	4494.44
705.472	4369.51
705.661	4359.27
705.849	4543.59
706.037	4424.81
706.226	4435.05
706.414	4351.08
706.602	4222.06
706.79	4400.23
706.979	4246.63
707.167	4140.14
707.355	4273.26
707.543	4244.59
707.731	4215.91
707.919	4220.01
708.107	4220.01
708.296	4242.54
708.484	4099.18
708.672	4086.89
708.86	4097.13
709.048	4033.65
709.236	4162.67
709.424	4123.76
709.612	4002.93
709.8	4127.85
709.988	4047.98
710.176	4082.8
710.364	4088.94
710.551	4064.36
710.739	4056.17
710.927	3957.87
711.115	3949.68
711.303	4058.22
711.491	3957.87
711.679	3904.62
711.866	4037.74
712.054	3875.95
712.242	3904.62
712.43	3964.01
712.617	3777.65
712.805	3943.53
712.993	3785.84
713.181	3853.42
713.368	3716.21
713.556	3902.58
713.744	3789.94
713.931	3855.47
714.119	3644.53
714.306	3730.55
714.494	3787.89
714.682	3691.63
714.869	3619.96
715.057	3806.32
715.244	3585.14
715.432	3720.31
715.619	3677.3
715.807	3718.26
715.994	3679.35
716.182	3650.67
716.369	3693.68
716.556	3632.24
716.744	3605.62
716.931	3632.24
717.119	3595.38
717.306	3607.67
717.493	3605.62
717.681	3521.65
717.868	3622
718.055	3646.58
718.242	3581.04
718.43	3589.24
718.617	3511.41
718.804	3495.03
718.991	3566.71
719.179	3507.32
719.366	3433.59
719.553	3433.59
719.74	3423.35
719.927	3495.03
720.114	3386.49
720.301	3581.04
720.488	3370.1
720.676	3466.36
720.863	3499.13
721.05	3460.21
721.237	3343.48
721.424	3169.4
721.611	3257.46
721.798	3273.85
721.985	3343.48
722.172	3208.31
722.358	3142.78
722.545	3351.67
722.732	3218.55
722.919	3361.91
723.106	3159.16
723.293	3273.85
723.48	3130.49
723.667	3019.9
723.853	3239.03
724.04	3171.45
724.227	3101.82
724.414	3187.83
724.6	3114.11
724.787	3114.11
724.974	3171.45
725.161	3083.39
725.347	3040.38
725.534	3077.24
725.72	3173.5
725.907	3144.83
726.094	3110.01
726.28	3150.97
726.467	3060.86
726.653	3046.52
726.84	2890.88
727.027	3124.35
727.213	2956.41
727.4	2987.13
727.586	2993.28
727.773	3003.52
727.959	3089.53
728.145	3114.11
728.332	2976.89
728.518	3019.9
728.705	3032.19
728.891	2972.8
729.077	3001.47
729.264	2915.45
729.45	2835.58
729.636	3036.28
729.823	2950.27
730.009	2905.21
730.195	2892.93
730.382	2903.17
730.568	2905.21
730.754	2870.4
730.94	2929.79
731.126	2899.07
731.313	2831.49
731.499	2890.88
731.685	2925.69
731.871	2899.07
732.057	2954.37
732.243	2761.86
732.429	2831.49
732.615	2966.65
732.801	2804.86
732.987	2745.47
733.173	2829.44
733.359	2776.19
733.545	2757.76
733.731	2694.27
733.917	2688.13
734.103	2722.95
734.289	2755.71
734.475	2694.27
734.661	2761.86
734.847	2813.06
735.033	2710.66
735.219	2624.64
735.404	2694.27
735.59	2661.51
735.776	2622.59
735.962	2749.57
736.148	2747.52
736.333	2704.51
736.519	2608.26
736.705	2638.98
736.89	2653.31
737.076	2647.17
737.262	2606.21
737.447	2536.58
737.633	2602.11
737.819	2610.31
738.004	2552.96
738.19	2589.83
738.375	2573.44
738.561	2524.29
738.747	2479.24
738.932	2518.15
739.118	2620.55
739.303	2518.15
739.489	2387.08
739.674	2438.28
739.859	2526.34
740.045	2532.48
740.23	2475.14
740.416	2374.79
740.601	2487.43
740.786	2452.61
740.972	2436.23
741.157	2438.28
741.342	2425.99
741.528	2370.69
741.713	2366.6
741.898	2417.8
742.084	2352.26
742.269	2321.54
742.454	2407.56
742.639	2315.4
742.824	2274.44
743.01	2274.44
743.195	2417.8
743.38	2282.63
743.565	2315.4
743.75	2090.12
743.935	2409.61
744.12	2264.2
744.305	2126.99
744.49	2229.38
744.675	2262.15
744.86	2241.67
745.045	2094.22
745.23	2151.56
745.415	2165.9
745.6	2200.71
745.785	2104.46
745.97	2081.93
746.155	2090.12
746.34	2180.23
746.525	2032.78
746.71	2024.59
746.895	2059.4
747.079	2176.14
747.264	2083.98
747.449	2163.85
747.634	1954.96
747.819	2006.16
748.003	1920.14
748.188	1809.55
748.373	1967.24
748.557	1981.58
748.742	1932.43
748.927	1821.84
749.111	1836.17
749.296	1866.89
749.481	1944.72
749.665	1844.37
749.85	1848.46
750.034	1877.13
750.219	1807.5
750.404	1830.03
750.588	1827.98
750.773	1754.26
750.957	1784.98
751.141	1754.26
751.326	1756.3
751.51	1776.78
751.695	1717.39
751.879	1870.99
752.064	1776.78
752.248	1711.25
752.432	1770.64
752.617	1674.39
752.801	1811.6
752.985	1549.46
753.17	1619.09
753.354	1713.3
753.538	1692.82
753.722	1651.86
753.907	1545.36
754.091	1580.18
754.275	1614.99
754.459	1614.99
754.643	1451.16
754.828	1461.4
755.012	1563.79
755.196	1524.88
755.38	1590.42
755.564	1434.77
755.748	1586.32
755.932	1492.12
756.116	1483.92
756.3	1453.2
756.484	1328.28
756.668	1533.08
756.852	1461.4
757.036	1508.5
757.22	1395.86
757.404	1344.66
757.588	1477.78
757.772	1434.77
757.956	1381.53
758.14	1418.39
758.323	1346.71
758.507	1375.38
758.691	1305.75
758.875	1303.7
759.059	1426.58
759.242	1301.65
759.426	1346.71
759.61	1307.8
759.794	1246.36
759.977	1293.46
760.161	1344.66
760.345	1201.3
760.528	1270.94
760.712	1287.32
760.895	1184.92
761.079	1205.4
761.263	1250.46
761.446	1217.69
761.63	1340.57
761.813	1238.17
761.997	1246.36
762.18	1186.97
762.364	1193.11
762.547	1021.08
762.731	1162.39
762.914	1152.15
763.098	1164.44
763.281	1133.72
763.464	1141.91
763.648	1123.48
763.831	1166.49
764.015	1152.15
764.198	1209.5
764.381	1168.54
764.564	1047.71
764.748	1113.24
764.931	1141.91
765.114	1035.42
765.297	1131.67
765.481	1008.8
765.664	986.27
765.847	1027.23
766.03	1070.23
766.213	1078.43
766.397	1129.63
766.58	1090.71
766.763	1119.39
766.946	1008.8
767.129	1000.6
767.312	1057.95
767.495	1070.23
767.678	1000.6
767.861	967.84
768.044	992.41
768.227	1004.7
768.41	1094.81
768.593	1019.04
768.776	1084.57
768.959	1062.04
769.142	1002.65
769.324	1084.57
769.507	947.36
769.69	963.74
769.873	873.63
770.056	1070.23
770.239	1041.56
770.421	1021.08
770.604	947.36
770.787	824.48
770.97	1008.8
771.152	947.36
771.335	971.93
771.518	939.16
771.7	1010.84
771.883	967.84
772.066	898.2
772.248	926.88
772.431	984.22
772.613	1012.89
772.796	935.07
772.978	953.5
773.161	984.22
773.343	951.45
773.526	900.25
773.708	853.15
773.891	873.63
774.073	785.57
774.256	844.96
774.438	951.45
774.621	910.49
774.803	824.48
774.985	816.29
775.168	855.2
775.35	787.61
775.532	822.43
775.715	916.64
775.897	849.05
776.079	836.77
776.261	767.13
776.444	783.52
776.626	804
776.808	699.55
776.99	791.71
777.173	754.85
777.355	683.17
777.537	730.27
777.719	789.66
777.901	756.9
778.083	681.12
778.265	705.7
778.447	795.81
778.629	763.04
778.811	660.64
778.993	730.27
779.175	791.71
779.357	722.08
779.539	730.27
779.721	681.12
779.903	634.02
780.085	709.79
780.267	650.4
780.449	705.7
780.631	689.31
780.812	730.27
780.994	658.59
781.176	691.36
781.358	691.36
781.54	611.49
781.721	689.31
781.903	685.22
782.085	586.91
782.267	652.45
782.448	681.12
782.63	631.97
782.812	609.44
782.993	578.72
783.175	582.82
783.357	609.44
783.538	568.48
783.72	554.15
783.901	541.86
784.083	631.97
784.264	582.82
784.446	591.01
784.627	566.43
784.809	599.2
784.99	550.05
785.172	568.48
785.353	566.43
785.535	484.52
785.716	513.19
785.897	492.71
786.079	517.28
786.26	519.33
786.441	523.43
786.623	507.04
786.804	558.24
786.985	545.95
787.167	480.42
787.348	492.71
787.529	531.62
787.71	529.57
787.891	394.4
788.073	418.98
788.254	402.6
788.435	502.95
788.616	390.31
788.797	386.21
788.978	386.21
789.159	461.99
789.34	457.89
789.522	431.27
789.703	378.02
789.884	396.45
790.065	476.32
790.246	433.32
790.427	404.64
790.607	482.47
790.788	439.46
790.969	423.08
791.15	478.37
791.331	427.17
791.512	429.22
791.693	425.12
791.874	451.75
792.054	449.7
792.235	365.73
792.416	345.25
792.597	390.31
792.778	412.84
792.958	394.4
793.139	353.45
793.32	386.21
793.5	275.62
793.681	343.21
793.862	341.16
794.042	349.35
794.223	414.88
794.404	353.45
794.584	304.29
794.765	304.29
794.945	402.6
795.126	388.26
795.306	496.8
795.487	363.69
795.667	347.3
795.848	345.25
796.028	388.26
796.209	289.96
796.389	337.06
796.57	246.95
796.75	259.24
796.93	349.35
797.111	296.1
797.291	244.9
797.471	386.21
797.652	304.29
797.832	343.21
798.012	328.87
798.192	289.96
798.373	283.81
798.553	277.67
798.733	287.91
798.913	296.1
799.093	357.54
799.274	232.62
799.454	378.02
799.634	308.39
799.814	302.25
799.994	337.06
800.174	322.73
800.354	289.96
800.534	253.09
800.714	343.21
800.894	345.25
801.074	218.28
801.254	279.72
801.434	296.1
801.614	242.85
801.794	156.84
801.974	914.59
802.154	228.52
802.334	320.68
802.514	275.62
802.693	289.96
802.873	189.61
803.053	371.88
803.233	310.44
803.413	242.85
803.592	232.62
803.772	210.09
803.952	287.91
804.131	214.18
804.311	232.62
804.491	312.49
804.67	251.05
804.85	142.5
805.03	193.7
805.209	296.1
805.389	263.33
805.568	230.57
805.748	152.74
805.928	228.52
806.107	257.19
806.287	222.38
806.466	214.18
806.646	222.38
806.825	251.05
807.004	242.85
807.184	318.63
807.363	298.15
807.543	242.85
807.722	251.05
807.901	253.09
808.081	261.29
808.26	152.74
808.439	292.01
808.619	216.23
808.798	169.13
808.977	234.66
809.156	289.96
809.336	205.99
809.515	179.37
809.694	134.31
809.873	156.84
810.052	232.62
810.231	201.9
810.411	173.22
810.59	281.77
810.769	201.9
810.948	197.8
811.127	195.75
811.306	187.56
811.485	214.18
811.664	271.53
811.843	195.75
812.022	99.5
812.201	146.6
812.38	140.46
812.559	249
812.737	152.74
812.916	142.5
813.095	128.17
813.274	199.85
813.453	205.99
813.632	126.12
813.811	165.03
813.989	130.22
814.168	167.08
814.347	85.16
814.526	246.95
814.704	128.17
814.883	226.47
815.062	91.31
815.24	236.71
815.419	193.7
815.598	165.03
815.776	199.85
815.955	208.04
816.133	173.22
816.312	103.59
816.49	117.93
816.669	140.46
816.847	109.74
817.026	124.07
817.204	107.69
817.383	156.84
817.561	132.26
817.74	169.13
817.918	66.73
818.097	85.16
818.275	93.35
818.453	124.07
818.632	193.7
818.81	134.31
818.988	140.46
819.167	107.69
819.345	124.07
819.523	199.85
819.701	167.08
819.879	134.31
820.058	144.55
820.236	201.9
820.414	99.5
820.592	148.65
820.77	160.94
820.948	156.84
821.127	109.74
821.305	165.03
821.483	54.44
821.661	189.61
821.839	148.65
822.017	158.89
822.195	99.5
822.373	156.84
822.551	93.35
822.729	144.55
822.907	140.46
823.085	144.55
823.262	111.78
823.44	79.02
823.618	93.35
823.796	156.84
823.974	97.45
824.152	93.35
824.329	42.15
824.507	124.07
824.685	134.31
824.863	83.11
825.04	134.31
825.218	142.5
825.396	150.7
825.574	97.45
825.751	62.63
825.929	214.18
826.107	122.02
826.284	99.5
826.462	169.13
826.639	124.07
826.817	60.59
826.994	132.26
827.172	144.55
827.349	156.84
827.527	160.94
827.704	117.93
827.882	74.92
828.059	158.89
828.237	142.5
828.414	97.45
828.591	62.63
828.769	175.27
828.946	103.59
829.124	156.84
829.301	103.59
829.478	152.74
829.655	107.69
829.833	140.46
830.01	58.54
830.187	111.78
830.364	70.83
830.542	109.74
830.719	175.27
830.896	128.17
831.073	76.97
831.25	93.35
831.427	99.5
831.604	101.55
831.782	70.83
831.959	95.4
832.136	140.46
832.313	107.69
832.49	66.73
832.667	79.02
832.844	62.63
833.021	83.11
833.198	99.5
833.374	107.69
833.551	40.11
833.728	117.93
833.905	109.74
834.082	105.64
834.259	74.92
834.436	113.83
834.612	101.55
834.789	115.88
834.966	175.27
835.143	36.01
835.319	91.31
835.496	68.78
835.673	99.5
835.85	169.13
836.026	83.11
836.203	124.07
836.38	50.35
836.556	83.11
836.733	42.15
836.909	158.89
837.086	17.58
837.262	66.73
837.439	85.16
837.616	5.29
837.792	68.78
837.968	83.11
838.145	3.24
838.321	46.25
838.498	68.78
838.674	156.84
838.851	83.11
839.027	25.77
839.203	76.97
839.38	109.74
839.556	38.06
839.732	85.16
839.909	50.35
840.085	128.17
840.261	50.35
840.437	115.88
840.614	56.49
840.79	42.15
840.966	19.63
841.142	44.2
841.318	58.54
841.494	148.65
841.671	162.98
841.847	72.87
842.023	-41.81
842.199	103.59
842.375	165.03
842.551	21.67
842.727	27.82
842.903	181.42
843.079	36.01
843.255	109.74
843.431	91.31
843.607	17.58
843.783	-37.72
843.959	66.73
844.134	60.59
844.31	132.26
844.486	-11.09
844.662	124.07
844.838	9.39
845.013	91.31
845.189	17.58
845.365	21.67
845.541	74.92
845.716	134.31
845.892	62.63
846.068	42.15
846.244	60.59
846.419	21.67
846.595	-11.09
846.77	13.48
846.946	101.55
847.122	27.82
847.297	42.15
847.473	72.87
847.648	70.83
847.824	68.78
847.999	33.96
848.175	56.49
848.35	124.07
848.526	91.31
848.701	97.45
848.876	107.69
849.052	76.97
849.227	132.26
849.403	50.35
849.578	25.77
849.753	54.44
849.929	107.69
850.104	79.02
850.279	-4.95
850.454	81.07
850.63	50.35
850.805	54.44
850.98	87.21
851.155	1.19
851.33	99.5
851.505	58.54
851.681	115.88
851.856	-45.91
852.031	66.73
852.206	-4.95
852.381	-31.57
852.556	9.39
852.731	60.59
852.906	33.96
853.081	29.87
853.256	21.67
853.431	33.96
853.606	91.31
853.781	101.55
853.956	42.15
854.131	13.48
854.305	40.11
854.48	-7
854.655	19.63
854.83	33.96
855.005	3.24
855.18	-15.19
855.354	58.54
855.529	3.24
855.704	13.48
855.879	52.39
856.053	31.91
856.228	99.5
856.403	42.15
856.577	107.69
856.752	9.39
856.926	-11.09
857.101	74.92
857.276	3.24
857.45	42.15
857.625	66.73
857.799	19.63
857.974	76.97
858.148	27.82
858.323	42.15
858.497	9.39
858.672	19.63
858.846	-17.24
859.02	33.96
859.195	103.59
859.369	62.63
859.543	72.87
859.718	99.5
859.892	119.98
860.066	-13.14
860.241	-41.81
860.415	58.54
860.589	17.58
860.763	-2.9
860.938	-11.09
861.112	76.97
861.286	1.19
861.46	70.83
861.634	66.73
861.808	50.35
861.982	-45.91
862.157	42.15
862.331	27.82
862.505	-54.1
862.679	74.92
862.853	36.01
863.027	25.77
863.201	97.45
863.375	3.24
863.549	36.01
863.722	21.67
863.896	25.77
864.07	42.15
864.244	46.25
864.418	33.96
864.592	91.31
864.766	17.58
864.939	27.82
865.113	-27.48
865.287	42.15
865.461	3.24
865.634	79.02
865.808	3.24
865.982	19.63
866.156	-0.85
866.329	9.39
866.503	3.24
866.676	38.06
866.85	-4.95
867.024	33.96
867.197	33.96
867.371	5.29
867.544	70.83
867.718	76.97
867.891	50.35
868.065	83.11
868.238	50.35
868.412	42.15
868.585	58.54
868.759	21.67
868.932	-21.33
869.105	-13.14
869.279	64.68
869.452	-23.38
869.625	9.39
869.799	13.48
869.972	46.25
870.145	-31.57
870.319	66.73
870.492	126.12
870.665	132.26
870.838	9.39
871.011	17.58
871.185	52.39
871.358	38.06
871.531	-9.05
871.704	-31.57
871.877	93.35
872.05	-2.9
872.223	-23.38
872.396	62.63
872.569	107.69
872.742	-0.85
872.915	50.35
873.088	17.58
873.261	33.96
873.434	40.11
873.607	21.67
873.78	66.73
873.953	11.43
874.126	-9.05
874.299	9.39
874.471	52.39
874.644	-0.85
874.817	-7
874.99	42.15
875.163	3.24
875.335	-21.33
875.508	1.19
875.681	109.74
875.853	-27.48
876.026	17.58
876.199	-21.33
876.371	33.96
876.544	5.29
876.717	13.48
876.889	-39.76
877.062	17.58
877.234	-68.44
877.407	68.78
877.579	-72.53
877.752	17.58
877.924	58.54
878.097	50.35
878.269	29.87
878.442	23.72
878.614	-4.95
878.786	95.4
878.959	-7
879.131	11.43
879.303	-11.09
879.476	-9.05
879.648	33.96
879.82	99.5
879.993	72.87
880.165	-15.19
880.337	-7
880.509	-27.48
880.681	9.39
880.854	52.39
881.026	-0.85
881.198	115.88
881.37	42.15
881.542	3.24
881.714	25.77
881.886	105.64
882.058	25.77
882.23	-7
882.402	17.58
882.574	5.29
882.746	33.96
882.918	-7
883.09	70.83
883.262	9.39
883.434	-45.91
883.606	-4.95
883.778	31.91
883.95	31.91
884.122	-64.34
884.293	83.11
884.465	11.43
884.637	68.78
884.809	-45.91
884.98	60.59
885.152	3.24
885.324	17.58
885.496	29.87
885.667	25.77
885.839	-4.95
886.011	33.96
886.182	89.26
886.354	25.77
886.525	44.2
886.697	60.59
886.869	5.29
887.04	9.39
887.212	13.48
887.383	42.15
887.555	-7
887.726	23.72
887.897	-45.91
888.069	-23.38
888.24	13.48
888.412	66.73
888.583	-56.15
888.754	36.01
888.926	-33.62
889.097	29.87
889.268	-15.19
889.44	50.35
889.611	-43.86
889.782	-7
889.953	-43.86
890.125	42.15
890.296	-43.86
890.467	58.54
890.638	-7
890.809	1.19
890.98	72.87
891.151	25.77
891.323	3.24
891.494	-11.09
891.665	-15.19
891.836	70.83
892.007	-21.33
892.178	-7
892.349	-17.24
892.52	25.77
892.691	-2.9
892.862	70.83
893.032	-54.1
893.203	74.92
893.374	-76.63
893.545	-2.9
893.716	33.96
893.887	38.06
894.057	-39.76
894.228	27.82
894.399	60.59
894.57	91.31
894.74	19.63
894.911	-7
895.082	64.68
895.253	1.19
895.423	-35.67
895.594	-88.92
895.764	9.39
895.935	-9.05
896.106	-50
896.276	36.01
896.447	36.01
896.617	-64.34
896.788	-2.9
896.958	54.44
897.129	-64.34
897.299	33.96
897.47	46.25
897.64	25.77
897.81	38.06
897.981	66.73
898.151	83.11
898.322	23.72
898.492	33.96
898.662	1.19
898.832	-43.86
899.003	3.24
899.173	13.48
899.343	36.01
899.513	58.54
