Data from USB4F104151__122__14-31-17-859.txt Node

Date: Thu Mar 13 14:31:17 EDT 2025
User: louis
Spectrometer: USB4F10415
Trigger mode: 4
Integration Time (sec): 2.500000E-2
Scans to average: 1
Electric dark correction enabled: true
Nonlinearity correction enabled: false
Boxcar width: 0
XAxis mode: Wavelengths
Number of Pixels in Spectrum: 3648
>>>>>Begin Spectral Data<<<<<
178.204	-205.82
178.424	-205.82
178.644	-205.82
178.864	-99.33
179.084	-201.72
179.304	-58.37
179.524	33.79
179.744	-35.84
179.964	89.09
180.184	56.32
180.404	-78.85
180.624	56.32
180.844	-31.74
181.064	7.17
181.283	-50.18
181.503	13.31
181.723	-1.02
181.943	-107.52
182.163	123.9
182.383	-5.12
182.602	91.13
182.822	7.17
183.042	91.13
183.262	-64.51
183.482	15.36
183.701	-29.7
183.921	64.51
184.141	58.37
184.361	33.79
184.58	-54.27
184.8	17.41
185.02	19.46
185.239	111.61
185.459	44.03
185.679	39.94
185.898	7.17
186.118	7.17
186.338	56.32
186.557	39.94
186.777	50.18
186.997	60.42
187.216	44.03
187.436	-13.31
187.655	68.61
187.875	44.03
188.095	44.03
188.314	66.56
188.534	115.71
188.753	31.74
188.973	138.24
189.192	123.9
189.412	15.36
189.631	48.13
189.851	46.08
190.07	-17.41
190.29	50.18
190.509	-17.41
190.729	33.79
190.948	21.5
191.168	164.86
191.387	68.61
191.607	23.55
191.826	27.65
192.045	-17.41
192.265	17.41
192.484	-3.07
192.704	-5.12
192.923	50.18
193.142	89.09
193.362	56.32
193.581	48.13
193.8	-11.26
194.02	64.51
194.239	80.89
194.458	64.51
194.678	58.37
194.897	58.37
195.116	-7.17
195.335	44.03
195.555	105.47
195.774	50.18
195.993	62.46
196.212	3.07
196.432	89.09
196.651	15.36
196.87	60.42
197.089	74.75
197.308	103.42
197.528	76.8
197.747	-39.94
197.966	64.51
198.185	31.74
198.404	-64.51
198.623	48.13
198.842	41.98
199.062	64.51
199.281	113.66
199.5	56.32
199.719	19.46
199.938	84.99
200.157	130.05
200.376	-1.02
200.595	105.47
200.814	80.89
201.033	68.61
201.252	95.23
201.471	23.55
201.69	82.94
201.909	105.47
202.128	-33.79
202.347	78.85
202.566	91.13
202.785	-23.55
203.004	72.7
203.223	138.24
203.442	7.17
203.661	23.55
203.879	27.65
204.098	84.99
204.317	41.98
204.536	93.18
204.755	62.46
204.974	70.65
205.193	48.13
205.411	82.94
205.63	54.27
205.849	39.94
206.068	97.28
206.287	48.13
206.505	84.99
206.724	64.51
206.943	-1.02
207.162	17.41
207.381	54.27
207.599	58.37
207.818	7.17
208.037	35.84
208.255	48.13
208.474	113.66
208.693	9.22
208.911	5.12
209.13	74.75
209.349	93.18
209.567	25.6
209.786	74.75
210.005	-80.89
210.223	48.13
210.442	-19.46
210.661	1.02
210.879	-27.65
211.098	15.36
211.316	31.74
211.535	74.75
211.753	9.22
211.972	25.6
212.191	35.84
212.409	97.28
212.628	7.17
212.846	15.36
213.065	84.99
213.283	60.42
213.502	-23.55
213.72	-54.27
213.938	56.32
214.157	7.17
214.375	-13.31
214.594	31.74
214.812	105.47
215.031	109.57
215.249	-33.79
215.467	33.79
215.686	66.56
215.904	64.51
216.122	-9.22
216.341	64.51
216.559	58.37
216.778	15.36
216.996	60.42
217.214	-72.7
217.432	82.94
217.651	-27.65
217.869	-46.08
218.087	37.89
218.306	33.79
218.524	80.89
218.742	31.74
218.96	64.51
219.179	52.22
219.397	13.31
219.615	168.96
219.833	80.89
220.051	25.6
220.27	35.84
220.488	115.71
220.706	7.17
220.924	50.18
221.142	7.17
221.36	80.89
221.578	23.55
221.796	7.17
222.015	41.98
222.233	89.09
222.451	130.05
222.669	31.74
222.887	41.98
223.105	27.65
223.323	-35.84
223.541	-1.02
223.759	60.42
223.977	15.36
224.195	27.65
224.413	60.42
224.631	56.32
224.849	70.65
225.067	140.29
225.285	23.55
225.503	76.8
225.721	-1.02
225.939	39.94
226.157	56.32
226.375	113.66
226.592	-13.31
226.81	52.22
227.028	37.89
227.246	101.37
227.464	27.65
227.682	80.89
227.9	56.32
228.117	56.32
228.335	123.9
228.553	31.74
228.771	5.12
228.989	17.41
229.206	15.36
229.424	76.8
229.642	-17.41
229.86	-15.36
230.077	150.53
230.295	91.13
230.513	50.18
230.731	105.47
230.948	17.41
231.166	123.9
231.384	80.89
231.601	58.37
231.819	66.56
232.037	31.74
232.254	-9.22
232.472	68.61
232.689	-33.79
232.907	121.85
233.125	19.46
233.342	46.08
233.56	58.37
233.777	-17.41
233.995	1.02
234.213	82.94
234.43	15.36
234.648	35.84
234.865	58.37
235.083	52.22
235.3	64.51
235.518	-11.26
235.735	62.46
235.953	48.13
236.17	1.02
236.388	82.94
236.605	97.28
236.822	132.09
237.04	107.52
237.257	39.94
237.475	-11.26
237.692	5.12
237.909	80.89
238.127	-25.6
238.344	56.32
238.562	48.13
238.779	23.55
238.996	39.94
239.214	39.94
239.431	19.46
239.648	-39.94
239.865	31.74
240.083	15.36
240.3	105.47
240.517	31.74
240.735	31.74
240.952	7.17
241.169	52.22
241.386	-17.41
241.603	93.18
241.821	76.8
242.038	7.17
242.255	74.75
242.472	56.32
242.689	54.27
242.907	125.95
243.124	95.23
243.341	48.13
243.558	48.13
243.775	72.7
243.992	-50.18
244.209	27.65
244.426	107.52
244.643	23.55
244.86	64.51
245.078	7.17
245.295	41.98
245.512	13.31
245.729	17.41
245.946	-3.07
246.163	130.05
246.38	70.65
246.597	15.36
246.814	1.02
247.031	-5.12
247.248	41.98
247.464	41.98
247.681	35.84
247.898	44.03
248.115	58.37
248.332	15.36
248.549	154.62
248.766	52.22
248.983	89.09
249.2	80.89
249.417	134.14
249.633	-21.5
249.85	115.71
250.067	33.79
250.284	-7.17
250.501	56.32
250.717	84.99
250.934	7.17
251.151	72.7
251.368	-1.02
251.585	68.61
251.801	68.61
252.018	66.56
252.235	105.47
252.451	-5.12
252.668	48.13
252.885	76.8
253.102	-9.22
253.318	15.36
253.535	-15.36
253.752	27.65
253.968	62.46
254.185	-48.13
254.401	66.56
254.618	72.7
254.835	72.7
255.051	64.51
255.268	39.94
255.484	46.08
255.701	44.03
255.917	99.33
256.134	-21.5
256.351	134.14
256.567	1.02
256.784	11.26
257	84.99
257.217	15.36
257.433	23.55
257.65	41.98
257.866	37.89
258.082	7.17
258.299	72.7
258.515	21.5
258.732	44.03
258.948	-54.27
259.165	15.36
259.381	-17.41
259.597	44.03
259.814	9.22
260.03	31.74
260.246	39.94
260.463	-3.07
260.679	95.23
260.895	64.51
261.112	121.85
261.328	27.65
261.544	64.51
261.761	84.99
261.977	-7.17
262.193	-1.02
262.409	58.37
262.626	74.75
262.842	3.07
263.058	-13.31
263.274	123.9
263.49	-15.36
263.707	89.09
263.923	66.56
264.139	-54.27
264.355	39.94
264.571	130.05
264.787	39.94
265.004	58.37
265.22	23.55
265.436	66.56
265.652	3.07
265.868	31.74
266.084	25.6
266.3	27.65
266.516	33.79
266.732	31.74
266.948	-13.31
267.164	23.55
267.38	64.51
267.596	52.22
267.812	89.09
268.028	142.33
268.244	17.41
268.46	84.99
268.676	56.32
268.892	91.13
269.108	1.02
269.324	113.66
269.54	17.41
269.756	80.89
269.972	-7.17
270.188	82.94
270.403	11.26
270.619	80.89
270.835	13.31
271.051	64.51
271.267	80.89
271.483	27.65
271.698	15.36
271.914	60.42
272.13	31.74
272.346	56.32
272.562	68.61
272.777	97.28
272.993	33.79
273.209	-50.18
273.425	31.74
273.64	23.55
273.856	115.71
274.072	56.32
274.287	72.7
274.503	93.18
274.719	72.7
274.934	64.51
275.15	50.18
275.366	66.56
275.581	23.55
275.797	50.18
276.012	56.32
276.228	50.18
276.444	68.61
276.659	60.42
276.875	-31.74
277.09	-17.41
277.306	44.03
277.521	89.09
277.737	1.02
277.952	52.22
278.168	84.99
278.383	101.37
278.599	105.47
278.814	68.61
279.03	33.79
279.245	50.18
279.461	29.7
279.676	58.37
279.892	3.07
280.107	-9.22
280.322	76.8
280.538	-5.12
280.753	-21.5
280.969	31.74
281.184	-19.46
281.399	58.37
281.615	44.03
281.83	68.61
282.045	15.36
282.26	101.37
282.476	80.89
282.691	50.18
282.906	46.08
283.122	-15.36
283.337	82.94
283.552	15.36
283.767	66.56
283.983	52.22
284.198	39.94
284.413	39.94
284.628	64.51
284.843	68.61
285.058	60.42
285.274	44.03
285.489	17.41
285.704	48.13
285.919	13.31
286.134	72.7
286.349	58.37
286.564	17.41
286.779	52.22
286.995	54.27
287.21	-37.89
287.425	74.75
287.64	-35.84
287.855	48.13
288.07	-5.12
288.285	35.84
288.5	62.46
288.715	62.46
288.93	58.37
289.145	52.22
289.36	35.84
289.575	50.18
289.79	138.24
290.004	19.46
290.219	105.47
290.434	27.65
290.649	48.13
290.864	93.18
291.079	41.98
291.294	80.89
291.509	58.37
291.724	56.32
291.938	17.41
292.153	64.51
292.368	17.41
292.583	23.55
292.798	150.53
293.012	44.03
293.227	97.28
293.442	66.56
293.657	66.56
293.871	199.68
294.086	72.7
294.301	84.99
294.516	64.51
294.73	31.74
294.945	21.5
295.16	-1.02
295.374	78.85
295.589	125.95
295.804	21.5
296.018	52.22
296.233	121.85
296.447	97.28
296.662	1.02
296.877	113.66
297.091	37.89
297.306	41.98
297.52	72.7
297.735	89.09
297.949	111.61
298.164	76.8
298.378	-7.17
298.593	17.41
298.807	44.03
299.022	56.32
299.236	107.52
299.451	-3.07
299.665	3.07
299.88	50.18
300.094	21.5
300.309	62.46
300.523	64.51
300.737	-11.26
300.952	82.94
301.166	76.8
301.381	31.74
301.595	17.41
301.809	48.13
302.024	7.17
302.238	-41.98
302.452	84.99
302.667	23.55
302.881	58.37
303.095	72.7
303.309	56.32
303.524	99.33
303.738	93.18
303.952	48.13
304.166	74.75
304.381	27.65
304.595	80.89
304.809	-11.26
305.023	107.52
305.237	-29.7
305.452	33.79
305.666	52.22
305.88	162.81
306.094	66.56
306.308	74.75
306.522	66.56
306.736	41.98
306.95	62.46
307.164	44.03
307.379	-41.98
307.593	-1.02
307.807	89.09
308.021	113.66
308.235	93.18
308.449	56.32
308.663	72.7
308.877	17.41
309.091	64.51
309.305	91.13
309.519	-37.89
309.733	119.81
309.947	31.74
310.161	1.02
310.374	39.94
310.588	97.28
310.802	15.36
311.016	72.7
311.23	58.37
311.444	11.26
311.658	115.71
311.872	33.79
312.085	123.9
312.299	64.51
312.513	89.09
312.727	97.28
312.941	1.02
313.154	103.42
313.368	1.02
313.582	29.7
313.796	35.84
314.009	41.98
314.223	93.18
314.437	27.65
314.651	-3.07
314.864	23.55
315.078	33.79
315.292	-7.17
315.505	-1.02
315.719	91.13
315.933	66.56
316.146	48.13
316.36	-23.55
316.573	89.09
316.787	48.13
317.001	52.22
317.214	31.74
317.428	52.22
317.641	21.5
317.855	15.36
318.068	5.12
318.282	89.09
318.495	74.75
318.709	58.37
318.922	97.28
319.136	58.37
319.349	80.89
319.563	48.13
319.776	-1.02
319.99	39.94
320.203	121.85
320.417	105.47
320.63	138.24
320.843	134.14
321.057	117.76
321.27	82.94
321.483	74.75
321.697	107.52
321.91	23.55
322.124	97.28
322.337	-23.55
322.55	82.94
322.763	11.26
322.977	123.9
323.19	-23.55
323.403	-5.12
323.617	82.94
323.83	56.32
324.043	80.89
324.256	101.37
324.469	19.46
324.683	37.89
324.896	134.14
325.109	76.8
325.322	72.7
325.535	89.09
325.748	58.37
325.962	48.13
326.175	25.6
326.388	95.23
326.601	35.84
326.814	80.89
327.027	37.89
327.24	103.42
327.453	-27.65
327.666	82.94
327.879	58.37
328.092	-1.02
328.305	72.7
328.518	84.99
328.731	11.26
328.944	66.56
329.157	80.89
329.37	41.98
329.583	121.85
329.796	50.18
330.009	15.36
330.222	105.47
330.435	97.28
330.648	87.04
330.861	87.04
331.073	76.8
331.286	39.94
331.499	89.09
331.712	31.74
331.925	99.33
332.138	25.6
332.35	140.29
332.563	-31.74
332.776	121.85
332.989	-11.26
333.202	56.32
333.414	48.13
333.627	113.66
333.84	76.8
334.053	52.22
334.265	23.55
334.478	97.28
334.691	29.7
334.903	-25.6
335.116	31.74
335.329	91.13
335.541	35.84
335.754	97.28
335.966	72.7
336.179	64.51
336.392	48.13
336.604	84.99
336.817	48.13
337.029	54.27
337.242	78.85
337.454	74.75
337.667	84.99
337.88	84.99
338.092	154.62
338.305	56.32
338.517	35.84
338.729	33.79
338.942	31.74
339.154	15.36
339.367	60.42
339.579	115.71
339.792	-33.79
340.004	136.19
340.217	56.32
340.429	25.6
340.641	48.13
340.854	27.65
341.066	-1.02
341.278	7.17
341.491	121.85
341.703	-1.02
341.915	31.74
342.128	58.37
342.34	62.46
342.552	25.6
342.764	44.03
342.977	80.89
343.189	52.22
343.401	-1.02
343.613	5.12
343.826	11.26
344.038	37.89
344.25	68.61
344.462	7.17
344.674	107.52
344.886	17.41
345.099	97.28
345.311	-9.22
345.523	-9.22
345.735	41.98
345.947	17.41
346.159	-17.41
346.371	130.05
346.583	-50.18
346.795	142.33
347.007	68.61
347.219	-9.22
347.431	101.37
347.643	117.76
347.855	74.75
348.067	89.09
348.279	15.36
348.491	91.13
348.703	99.33
348.915	37.89
349.127	46.08
349.339	56.32
349.551	7.17
349.763	158.72
349.975	64.51
350.187	99.33
350.399	54.27
350.61	138.24
350.822	78.85
351.034	117.76
351.246	105.47
351.458	93.18
351.669	113.66
351.881	97.28
352.093	101.37
352.305	125.95
352.517	152.57
352.728	107.52
352.94	89.09
353.152	82.94
353.363	48.13
353.575	84.99
353.787	113.66
353.999	72.7
354.21	105.47
354.422	41.98
354.633	41.98
354.845	89.09
355.057	115.71
355.268	74.75
355.48	62.46
355.692	19.46
355.903	146.43
356.115	52.22
356.326	7.17
356.538	66.56
356.749	-1.02
356.961	113.66
357.172	84.99
357.384	15.36
357.595	113.66
357.807	132.09
358.018	19.46
358.23	50.18
358.441	123.9
358.653	121.85
358.864	82.94
359.075	19.46
359.287	-23.55
359.498	132.09
359.709	70.65
359.921	48.13
360.132	97.28
360.344	60.42
360.555	-3.07
360.766	97.28
360.977	7.17
361.189	154.62
361.4	93.18
361.611	154.62
361.823	48.13
362.034	72.7
362.245	60.42
362.456	105.47
362.667	56.32
362.879	5.12
363.09	84.99
363.301	91.13
363.512	72.7
363.723	76.8
363.935	89.09
364.146	72.7
364.357	1.02
364.568	166.91
364.779	39.94
364.99	68.61
365.201	23.55
365.412	136.19
365.623	68.61
365.834	115.71
366.045	1.02
366.256	78.85
366.467	66.56
366.678	76.8
366.889	74.75
367.1	80.89
367.311	89.09
367.522	48.13
367.733	58.37
367.944	113.66
368.155	76.8
368.366	80.89
368.577	115.71
368.788	132.09
368.999	66.56
369.209	39.94
369.42	156.67
369.631	160.77
369.842	97.28
370.053	82.94
370.264	115.71
370.474	-29.7
370.685	39.94
370.896	66.56
371.107	97.28
371.317	109.57
371.528	11.26
371.739	132.09
371.95	107.52
372.16	7.17
372.371	27.65
372.582	44.03
372.792	3.07
373.003	66.56
373.214	66.56
373.424	146.43
373.635	48.13
373.846	162.81
374.056	130.05
374.267	99.33
374.477	60.42
374.688	33.79
374.898	76.8
375.109	89.09
375.319	78.85
375.53	58.37
375.74	146.43
375.951	84.99
376.161	105.47
376.372	123.9
376.582	31.74
376.793	-1.02
377.003	60.42
377.214	111.61
377.424	130.05
377.635	95.23
377.845	87.04
378.055	93.18
378.266	5.12
378.476	60.42
378.686	72.7
378.897	89.09
379.107	64.51
379.317	132.09
379.528	91.13
379.738	130.05
379.948	13.31
380.158	66.56
380.369	89.09
380.579	37.89
380.789	-7.17
380.999	95.23
381.21	107.52
381.42	123.9
381.63	31.74
381.84	80.89
382.05	89.09
382.261	84.99
382.471	146.43
382.681	74.75
382.891	121.85
383.101	74.75
383.311	91.13
383.521	82.94
383.731	68.61
383.941	162.81
384.151	101.37
384.361	84.99
384.571	39.94
384.781	68.61
384.991	125.95
385.201	146.43
385.411	109.57
385.621	-9.22
385.831	72.7
386.041	89.09
386.251	72.7
386.461	39.94
386.671	91.13
386.881	64.51
387.091	68.61
387.301	93.18
387.511	35.84
387.72	121.85
387.93	82.94
388.14	-15.36
388.35	82.94
388.56	146.43
388.769	105.47
388.979	146.43
389.189	109.57
389.399	105.47
389.609	97.28
389.818	84.99
390.028	146.43
390.238	84.99
390.447	23.55
390.657	91.13
390.867	140.29
391.076	27.65
391.286	181.25
391.496	97.28
391.705	121.85
391.915	183.29
392.125	68.61
392.334	140.29
392.544	148.48
392.753	119.81
392.963	109.57
393.172	179.2
393.382	91.13
393.591	132.09
393.801	64.51
394.01	105.47
394.22	132.09
394.429	95.23
394.639	150.53
394.848	191.49
395.058	128
395.267	121.85
395.477	107.52
395.686	166.91
395.895	171.01
396.105	152.57
396.314	117.76
396.524	113.66
396.733	150.53
396.942	177.15
397.152	136.19
397.361	171.01
397.57	158.72
397.78	89.09
397.989	148.48
398.198	187.39
398.407	238.59
398.617	58.37
398.826	105.47
399.035	181.25
399.244	146.43
399.453	121.85
399.663	117.76
399.872	162.81
400.081	121.85
400.29	248.83
400.499	82.94
400.708	191.49
400.917	95.23
401.127	89.09
401.336	179.2
401.545	236.54
401.754	191.49
401.963	222.2
402.172	179.2
402.381	179.2
402.59	181.25
402.799	171.01
403.008	259.07
403.217	146.43
403.426	252.92
403.635	168.96
403.844	189.44
404.053	175.1
404.262	250.88
404.471	166.91
404.68	252.92
404.888	220.16
405.097	183.29
405.306	328.7
405.515	320.51
405.724	228.35
405.933	207.87
406.142	214.01
406.35	220.16
406.559	295.93
406.768	304.12
406.977	306.17
407.185	302.08
407.394	386.04
407.603	273.4
407.812	367.61
408.02	402.43
408.229	343.03
408.438	326.65
408.646	349.18
408.855	388.09
409.064	392.19
409.272	400.38
409.481	474.1
409.69	439.29
409.898	375.8
410.107	490.49
410.315	476.15
410.524	506.87
410.733	494.58
410.941	594.93
411.15	625.65
411.358	582.65
411.567	582.65
411.775	668.66
411.984	646.13
412.192	736.24
412.401	715.77
412.609	699.38
412.818	760.82
413.026	826.36
413.234	740.34
413.443	861.17
413.651	877.55
413.86	842.74
414.068	984.05
414.276	934.9
414.485	945.14
414.693	1072.11
414.901	1139.69
415.11	1160.17
415.318	1199.09
415.526	1113.07
415.734	1162.22
415.943	1170.41
416.151	1281
416.359	1354.73
416.567	1371.12
416.776	1354.73
416.984	1473.51
417.192	1530.86
417.4	1696.74
417.608	1596.39
417.817	1637.35
418.025	1649.64
418.233	1803.24
418.441	1752.04
418.649	1919.97
418.857	1932.26
419.065	1981.41
419.273	2116.58
419.481	2071.52
419.689	2251.74
419.897	2327.52
420.105	2343.9
420.313	2450.39
420.521	2663.38
420.729	2581.46
420.937	2694.1
421.145	2749.4
421.353	2849.75
421.561	2923.48
421.769	3138.51
421.977	3234.77
422.185	3236.81
422.393	3460.04
422.601	3646.41
422.809	3570.63
423.017	3529.67
423.224	3820.49
423.432	3816.39
423.64	3875.78
423.848	4301.76
424.056	4225.98
424.263	4438.97
424.471	4504.51
424.679	4621.24
424.887	4803.51
425.094	4924.34
425.302	5012.4
425.51	5274.54
425.718	5323.69
425.925	5391.28
426.133	5637.03
426.341	5850.02
426.548	6144.93
426.756	6155.17
426.964	6169.51
427.171	6749.08
427.379	6824.86
427.586	6814.62
427.794	7297.94
428.001	7228.31
428.209	7617.42
428.417	7537.55
428.624	8090.5
428.832	8108.93
429.039	7906.18
429.247	8141.7
429.454	8952.7
429.662	9511.79
429.869	8895.35
430.076	9610.09
430.284	9339.76
430.491	9497.46
430.699	10120.04
430.906	10072.93
431.114	10353.51
431.321	10584.93
431.528	10746.72
431.736	11271
431.943	11979.59
432.15	11647.82
432.358	11570
432.565	12376.9
432.772	12299.08
432.979	13024.06
433.187	13304.63
433.394	13302.58
433.601	14234.41
433.808	14312.23
434.016	14162.73
434.223	14707.49
434.43	15760.14
434.637	15420.18
434.844	16292.62
435.052	16409.35
435.259	16497.41
435.466	16442.12
435.673	16259.85
435.88	17451.77
436.087	18354.92
436.294	18414.31
436.501	17933.04
436.708	18127.6
436.915	18860.77
437.122	19989.2
437.329	19948.24
437.537	20495.05
437.743	20392.65
437.95	20611.78
438.157	21299.9
438.364	22172.33
438.571	22413.99
438.778	22479.53
438.985	24341.13
439.192	23599.77
439.399	24011.41
439.606	23523.99
439.813	25424.51
440.02	26614.38
440.227	26079.86
440.433	25563.77
440.64	26634.86
440.847	26264.18
441.054	26956.39
441.261	28869.19
441.467	28387.92
441.674	28752.46
441.881	30134.84
442.088	29911.61
442.294	29850.17
442.501	30493.23
442.708	30896.68
442.914	32057.88
443.121	33370.63
443.328	32819.72
443.534	34695.66
443.741	33954.3
443.948	33307.14
444.154	36004.31
444.361	35805.66
444.568	35860.96
444.774	35717.6
444.981	36327.89
445.187	37507.52
445.394	38721.97
445.6	38375.86
445.807	41771.39
446.013	39924.13
446.22	40886.67
446.426	42353.02
446.633	42785.14
446.839	43774.31
447.046	42199.42
447.252	44732.76
447.459	44611.93
447.665	44675.41
447.871	46516.54
448.078	48310.56
448.284	46049.6
448.491	47194.42
448.697	48992.53
448.903	49590.54
449.11	49778.95
449.316	49330.45
449.522	50352.38
449.728	51294.45
449.935	51712.23
450.141	51724.52
450.347	52920.54
450.553	51155.19
450.76	51605.74
450.966	53434.58
451.172	52730.08
451.378	54122.69
451.584	52996.31
451.791	54558.91
451.997	54462.66
452.203	55271.6
452.409	54948.03
452.615	55095.48
452.821	52771.03
453.027	52949.21
453.233	54753.47
453.44	52750.56
453.646	53405.91
453.852	53315.79
454.058	54939.83
454.264	53111
454.47	54079.69
454.676	52981.98
454.882	54763.71
455.088	49830.15
455.294	50968.82
455.5	51593.45
455.705	52205.8
455.911	49948.93
456.117	48902.42
456.323	48763.16
456.529	46059.84
456.735	47890.73
456.941	46893.36
457.147	46055.75
457.352	44896.59
457.558	44081.5
457.764	44515.67
457.97	43731.3
458.176	42807.67
458.381	42463.61
458.587	40620.44
458.793	40120.73
458.999	38291.9
459.204	41191.82
459.41	40278.43
459.616	37181.9
459.821	37454.28
460.027	37157.32
460.233	36501.97
460.438	34830.83
460.644	35363.3
460.85	33561.09
461.055	33163.78
461.261	33133.06
461.466	30724.65
461.672	29407.81
461.878	31113.77
462.083	29719.1
462.289	29237.83
462.494	28740.17
462.7	27544.16
462.905	26954.34
463.111	27660.89
463.316	27968.09
463.522	27267.68
463.727	27173.47
463.932	27343.45
464.138	26657.39
464.343	26937.96
464.549	26225.26
464.754	26696.3
464.959	26593.9
465.165	26618.47
465.37	25240.19
465.575	24605.32
465.781	25817.72
465.986	25684.6
466.191	24693.38
466.397	24433.29
466.602	23218.85
466.807	24314.51
467.012	23872.15
467.218	23937.68
467.423	23534.23
467.628	23667.35
467.833	24754.82
468.038	23749.27
468.244	23071.39
468.449	24154.77
468.654	23347.87
468.859	22823.59
469.064	22895.27
469.269	22141.61
469.474	22016.69
469.679	22588.07
469.885	21703.35
470.09	22014.64
470.295	21889.71
470.5	21512.89
470.705	21879.47
470.91	21203.64
471.115	20978.37
471.32	21168.83
471.525	21340.86
471.73	20597.45
471.935	20581.06
472.139	19886.8
472.344	20038.35
472.549	19794.64
472.754	19765.97
472.959	19469.01
473.164	19038.94
473.369	18848.48
473.574	19419.86
473.778	19288.79
473.983	18938.59
474.188	18719.46
474.393	18051.82
474.598	18213.61
474.802	17957.61
475.007	17910.51
475.212	17695.47
475.417	17029.88
475.621	17365.75
475.826	17169.15
476.031	17304.31
476.235	16626.43
476.44	17013.5
476.645	16429.83
476.849	16593.67
477.054	16085.77
477.259	15962.89
477.463	16149.26
477.668	15780.62
477.872	15966.99
478.077	15907.6
478.282	15321.88
478.486	15055.64
478.691	15082.27
478.895	15227.67
479.1	14865.18
479.304	15078.17
479.509	14631.71
479.713	14887.71
479.918	14410.53
480.122	14414.63
480.326	14404.39
480.531	14273.32
480.735	14226.21
480.94	14179.11
481.144	14703.39
481.348	13677.36
481.553	14187.3
481.757	13810.48
481.961	13851.44
482.166	14349.09
482.37	14035.75
482.574	13658.93
482.778	13853.48
482.983	13896.49
483.187	13804.33
483.391	14011.18
483.595	13691.7
483.8	13564.72
484.004	13855.53
484.208	14086.95
484.412	13697.84
484.616	13929.26
484.821	13769.52
485.025	13611.82
485.229	13957.93
485.433	13845.29
485.637	13620.02
485.841	13632.3
486.045	13624.11
486.249	13900.59
486.453	13536.05
486.657	13673.26
486.861	13816.62
487.065	13624.11
487.269	13761.33
487.473	13318.96
487.677	13818.67
487.881	13992.75
488.085	13644.59
488.289	13888.3
488.493	13556.53
488.697	13896.49
488.901	13806.38
489.105	13796.14
489.309	13695.79
489.512	13837.1
489.716	13794.09
489.92	13835.05
490.124	13773.61
490.328	13882.16
490.531	13927.21
490.735	14002.99
490.939	14101.29
491.143	13738.8
491.346	14009.13
491.55	14195.5
491.754	14252.84
491.958	14213.93
492.161	14369.57
492.365	14187.3
492.569	14365.48
492.772	14338.85
492.976	14408.48
493.18	14574.37
493.383	14566.18
493.587	14523.17
493.79	14924.57
493.994	14600.99
494.197	14996.25
494.401	14918.43
494.605	15012.63
494.808	15219.48
495.012	15332.12
495.215	15432.47
495.419	15436.56
495.622	15424.28
495.825	15659.79
496.029	15430.42
496.232	15768.34
496.436	15737.62
496.639	16149.26
496.843	16143.11
497.046	16370.44
497.249	16554.76
497.453	16634.63
497.656	17040.12
497.859	16775.94
498.063	17093.37
498.266	17269.5
498.469	17244.92
498.673	17439.48
498.876	17783.54
499.079	17982.19
499.282	18113.26
499.485	18340.58
499.689	18555.62
499.892	18940.64
500.095	18547.43
500.298	18965.21
500.501	19030.75
500.705	19581.65
500.908	19509.97
501.111	19663.57
501.314	19983.06
501.517	19915.47
501.72	20191.95
501.923	20175.56
502.126	20636.36
502.329	20978.37
502.532	20988.61
502.735	21263.04
502.938	21494.46
503.141	21678.77
503.344	22071.98
503.547	22133.42
503.75	22645.41
503.953	22897.31
504.156	23143.07
504.359	22727.33
504.562	23151.26
504.765	23444.12
504.968	23743.13
505.17	23829.14
505.373	24085.14
505.576	24476.3
505.779	24875.65
505.982	24971.91
506.185	25436.8
506.387	25410.17
506.59	25543.29
506.793	26077.81
506.996	25895.54
507.198	26456.68
507.401	26428.01
507.604	27234.91
507.807	27380.32
508.009	27759.19
508.212	27556.44
508.415	27923.03
508.617	28600.91
508.82	28478.03
509.022	28789.32
509.225	29231.68
509.428	29434.43
509.63	29569.6
509.833	29733.43
510.035	30421.55
510.238	30382.64
510.44	30689.84
510.643	30861.87
510.845	31099.43
511.048	31203.88
511.25	32133.65
511.453	32027.16
511.655	33112.58
511.858	32418.32
512.06	33276.42
512.262	33378.82
512.465	32946.7
512.667	33600
512.87	34007.55
513.072	34218.49
513.274	34486.77
513.477	34783.73
513.679	35123.69
513.881	35707.36
514.084	35916.25
514.286	35811.81
514.488	36209.11
514.69	37347.78
514.893	36796.88
515.095	37147.08
515.297	37511.62
515.499	37753.28
515.701	37808.58
515.904	38640.05
516.106	38267.32
516.308	38951.34
516.51	39244.2
516.712	39399.85
516.914	39809.44
517.116	40151.45
517.318	40587.67
517.52	40556.95
517.722	40993.17
517.925	41701.76
518.127	41687.43
518.329	41951.62
518.531	41804.16
518.733	42680.69
518.935	42996.08
519.136	42934.64
519.338	43471.21
519.54	43331.95
519.742	43739.49
519.944	43753.83
520.146	44939.6
520.348	44906.83
520.55	44656.98
520.752	44900.69
520.954	45615.43
521.155	45379.92
521.357	45816.13
521.559	46100.8
521.761	47057.2
521.963	46801.21
522.164	46479.67
522.366	47139.12
522.568	47079.73
522.77	47386.92
522.971	47970.6
523.173	47509.8
523.375	48038.18
523.576	47917.35
523.778	47974.69
523.98	48812.31
524.181	48763.16
524.383	48744.73
524.584	48894.23
524.786	49283.34
524.988	49316.11
525.189	49606.92
525.391	49514.76
525.592	50505.98
525.794	49703.18
525.995	49965.32
526.197	49916.17
526.398	50204.93
526.6	50448.64
526.801	50944.25
527.003	50483.45
527.204	50950.39
527.406	51171.57
527.607	50592
527.808	50823.42
528.01	50712.83
528.211	50589.95
528.412	51886.31
528.614	51474.67
528.815	51390.7
529.016	51767.53
529.218	51359.98
529.419	51267.83
529.62	51476.72
529.822	51345.65
530.023	51732.71
530.224	51521.77
530.425	51441.9
530.626	51257.59
530.828	50970.87
531.029	51769.58
531.23	51278.07
531.431	51579.12
531.632	51398.9
531.833	51523.82
532.035	51304.69
532.236	51417.33
532.437	51785.96
532.638	51343.6
532.839	51630.32
533.04	51538.16
533.241	50979.06
533.442	51841.26
533.643	51902.7
533.844	51161.33
534.045	51693.8
534.246	51173.62
534.447	51435.76
534.648	50817.27
534.849	51503.34
535.05	50778.36
535.251	51101.94
535.451	50983.16
535.652	51454.19
535.853	50987.25
536.054	51253.49
536.255	51194.1
536.456	50712.83
536.657	51669.23
536.857	51065.08
537.058	50911.48
537.259	50954.49
537.46	51269.87
537.66	50981.11
537.861	51224.82
538.062	50960.63
538.263	50721.02
538.463	50663.67
538.664	50637.05
538.865	50936.05
539.065	51042.55
539.266	50503.93
539.466	50602.24
539.667	49950.98
539.868	50770.17
540.068	50546.94
540.269	50520.32
540.469	50465.02
540.67	50262.27
540.87	50096.39
541.071	50450.69
541.271	50399.49
541.472	50319.62
541.672	50221.31
541.873	49817.86
542.073	49635.59
542.274	50485.5
542.474	49834.25
542.675	49449.23
542.875	50479.36
543.075	49959.17
543.276	49338.64
543.476	50350.34
543.676	49860.87
543.877	50340.1
544.077	50149.63
544.277	49611.02
544.478	49817.86
544.678	49885.45
544.878	50413.82
545.078	50540.8
545.279	49860.87
545.479	49555.72
545.679	50229.51
545.879	49875.21
546.079	49803.53
546.28	49795.34
546.48	49150.23
546.68	50006.28
546.88	50163.97
547.08	49817.86
547.28	49699.08
547.48	49123.6
547.68	49721.61
547.88	49285.39
548.081	49871.11
548.281	49694.99
548.481	49455.37
548.681	49828.1
548.881	49697.03
549.081	49713.42
549.28	49295.63
549.48	49752.33
549.68	49236.24
549.88	50612.48
550.08	49389.84
550.28	49848.58
550.48	49942.79
550.68	50090.24
550.88	49791.24
551.08	49477.9
551.279	49938.69
551.479	49692.94
551.679	49701.13
551.879	48994.58
552.079	49826.06
552.278	49629.45
552.478	50202.88
552.678	49713.42
552.878	49828.1
553.077	49410.32
553.277	49195.28
553.477	49893.64
553.676	49531.15
553.876	49885.45
554.076	49189.14
554.275	49703.18
554.475	49391.89
554.674	49686.79
554.874	49606.92
555.074	49807.62
555.273	49692.94
555.473	50161.92
555.672	49473.81
555.872	49666.31
556.071	49574.16
556.271	50147.59
556.47	49318.16
556.67	49217.81
556.869	49498.38
557.068	49828.1
557.268	49621.26
557.467	49770.76
557.667	49733.9
557.866	49656.07
558.065	49445.13
558.265	49428.75
558.464	49451.28
558.663	49836.3
558.863	49262.86
559.062	50053.38
559.261	49367.31
559.461	49959.17
559.66	48976.15
559.859	49393.93
560.058	49092.88
560.258	49572.11
560.457	48869.65
560.656	49795.34
560.855	49266.96
561.054	49543.44
561.253	48947.48
561.453	49172.75
561.652	49529.1
561.851	49619.21
562.05	49512.72
562.249	48900.37
562.448	49324.3
562.647	49211.67
562.846	49293.58
563.045	49150.23
563.244	48888.09
563.443	49277.2
563.642	48406.81
563.841	48863.51
564.04	48759.06
564.239	49246.48
564.438	48537.88
564.637	49004.82
564.836	48537.88
565.035	48288.03
565.234	49146.13
565.432	48572.7
565.631	48433.44
565.83	48785.69
566.029	48140.58
566.228	48693.53
566.427	48443.68
566.625	48316.7
566.824	47671.59
567.023	48181.54
567.222	47305.01
567.42	48386.33
567.619	48075.04
567.818	48265.5
568.016	47915.3
568.215	48234.78
568.414	47524.14
568.612	48052.51
568.811	47419.69
569.01	47581.48
569.208	46811.45
569.407	47669.54
569.605	47292.72
569.804	47665.45
570.002	47206.7
570.201	47245.62
570.4	46940.47
570.598	46854.45
570.797	46641.46
570.995	47024.43
571.193	46485.82
571.392	46846.26
571.59	46240.06
571.789	46813.49
571.987	46295.36
572.186	46412.09
572.384	45910.34
572.582	46473.53
572.781	46455.1
572.979	45902.15
573.177	45697.35
573.376	46035.27
573.574	45490.51
573.772	45893.96
573.971	45648.2
574.169	45271.37
574.367	44990.8
574.565	45379.92
574.763	45134.16
574.962	45039.95
575.16	44605.78
575.358	45089.1
575.556	44161.37
575.754	45142.35
575.952	44015.97
576.151	44812.63
576.349	44382.55
576.547	44253.53
576.745	43966.82
576.943	44241.24
577.141	44208.48
577.339	44169.57
577.537	43981.15
577.735	43893.09
577.933	43497.83
578.131	43692.39
578.329	43305.32
578.527	43397.48
578.725	43288.94
578.923	43231.6
579.121	43243.88
579.319	42779
579.516	43295.08
579.714	42916.21
579.912	42649.97
580.11	42647.93
580.308	42389.88
580.506	42516.86
580.704	42021.25
580.901	42697.08
581.099	42160.51
581.297	41802.11
581.495	41912.7
581.692	41984.38
581.89	41679.24
582.088	42019.2
582.285	41675.14
582.483	42058.11
582.681	41490.82
582.878	41089.42
583.076	40874.38
583.274	41441.67
583.471	40849.81
583.669	41259.4
583.866	40749.46
584.064	41357.7
584.262	40618.39
584.459	40761.75
584.657	40423.83
584.854	40868.24
585.052	40173.98
585.249	40321.43
585.447	40225.18
585.644	40391.06
585.841	39821.73
586.039	40016.29
586.236	39956.89
586.434	39639.46
586.631	39487.91
586.828	39446.95
587.026	39618.98
587.223	39295.4
587.42	39614.88
587.618	39373.22
587.815	39147.95
588.012	39117.23
588.21	38889.9
588.407	39176.62
588.604	38465.97
588.801	38353.33
588.999	38179.26
589.196	38541.75
589.393	38668.72
589.59	38302.14
589.787	38291.9
589.984	38072.76
590.182	37996.99
590.379	37722.56
590.576	37464.52
590.773	38121.91
590.97	37796.29
591.167	37611.97
591.364	37288.39
591.561	37773.76
591.758	37245.38
591.955	36792.78
592.152	37274.06
592.349	37120.46
592.546	37550.53
592.743	37319.11
592.94	36506.07
593.137	36854.22
593.334	36794.83
593.531	36696.53
593.727	36581.84
593.924	36794.83
594.121	36628.95
594.318	36784.59
594.515	36497.88
594.712	36100.57
594.908	36379.09
595.105	36592.08
595.302	36100.57
595.499	36047.32
595.696	36385.24
595.892	35566.05
596.089	35863
596.286	35977.69
596.482	35572.19
596.679	35639.78
596.876	36030.94
597.072	35398.12
597.269	35686.88
597.466	35443.17
597.662	35426.79
597.859	35205.61
598.055	35377.64
598.252	35324.39
598.448	35293.67
598.645	35056.11
598.841	34867.69
599.038	34695.66
599.234	35398.12
599.431	34939.37
599.627	34834.92
599.824	35049.96
600.02	34578.93
600.217	34906.6
600.413	34623.98
600.609	34263.54
600.806	34550.26
601.002	34437.62
601.198	34687.47
601.395	34218.49
601.591	34458.1
601.787	34560.5
601.984	34142.71
602.18	34525.68
602.376	34148.85
602.572	33913.34
602.769	34066.94
602.965	33513.98
603.161	34081.27
603.357	33985.02
603.553	33886.71
603.75	33704.45
603.946	34089.46
604.142	34105.85
604.338	33507.84
604.534	33794.56
604.73	33616.38
604.926	33905.15
605.122	34066.94
605.318	33356.29
605.514	33698.3
605.71	33702.4
605.906	33548.8
606.102	33485.31
606.298	33731.07
606.494	33446.4
606.69	33540.61
606.886	33507.84
607.082	33694.21
607.278	33638.91
607.474	33362.43
607.67	33589.76
607.866	33049.1
608.062	33858.04
608.257	33301
608.453	33413.63
608.649	33509.89
608.845	33384.96
609.041	33546.75
609.236	33458.69
609.432	33161.73
609.628	33524.22
609.824	33473.03
610.019	33397.25
610.215	33384.96
610.411	33554.94
610.606	33139.21
610.802	33663.49
610.998	33489.41
611.193	33212.93
611.389	33139.21
611.584	33235.46
611.78	33145.35
611.976	33206.79
612.171	33106.44
612.367	33214.98
612.562	32920.07
612.758	32746
612.953	33272.32
613.149	33548.8
613.344	33235.46
613.539	33913.34
613.735	33208.84
613.93	33597.95
614.126	33036.81
614.321	33442.31
614.517	33151.49
614.712	32977.42
614.907	32973.32
615.103	33362.43
615.298	32961.03
615.493	33542.66
615.688	32821.77
615.884	33622.53
616.079	32815.63
616.274	33233.41
616.47	33149.45
616.665	32956.94
616.86	32844.3
617.055	32879.11
617.25	32580.11
617.445	33022.47
617.641	32207.38
617.836	32809.48
618.031	32061.97
618.226	32803.34
618.421	32504.34
618.616	32647.69
618.811	31961.62
619.006	32737.8
619.201	31889.95
619.396	32477.71
619.591	31685.15
619.786	31869.47
619.981	31334.95
620.176	31975.96
620.371	31388.19
620.566	31728.16
620.761	31287.84
620.956	31644.19
621.151	30921.26
621.346	31349.28
621.541	30937.64
621.735	31023.65
621.93	30218.8
622.125	30548.53
622.32	30200.37
622.515	30396.98
622.709	30149.17
622.904	30057.01
623.099	30018.1
623.294	30206.52
623.488	29372.99
623.683	29827.64
623.878	29110.85
624.072	29172.29
624.267	29583.93
624.462	29178.43
624.656	28652.11
624.851	28983.88
625.046	28641.87
625.24	28543.56
625.435	28473.93
625.629	28082.77
625.824	28041.81
626.018	28291.66
626.213	27650.65
626.407	27902.55
626.602	27736.66
626.796	27726.42
626.991	27615.83
627.185	27152.99
627.38	27073.12
627.574	26827.37
627.768	26827.37
627.963	26712.68
628.157	26503.79
628.352	26593.9
628.546	26036.85
628.74	26628.71
628.935	26086
629.129	26278.51
629.323	25715.32
629.517	25672.31
629.712	25512.57
629.906	25774.71
630.1	25463.42
630.294	25424.51
630.489	25379.45
630.683	25287.29
630.877	24726.15
631.071	24812.17
631.265	24992.39
631.459	24439.44
631.653	24529.55
631.848	24488.59
632.042	24224.4
632.236	24378
632.43	23712.41
632.624	23796.37
632.818	23743.13
633.012	23562.9
633.206	23501.47
633.4	23550.62
633.594	22850.21
633.788	23153.31
633.982	22973.09
634.176	22885.03
634.369	22823.59
634.563	22786.72
634.757	22518.44
634.951	22510.25
635.145	22366.89
635.339	22346.41
635.533	22225.58
635.726	22086.32
635.92	21711.54
636.114	21783.22
636.308	21600.95
636.501	21899.95
636.695	21603
636.889	21099.2
637.083	21191.36
637.276	21052.09
637.47	21140.16
637.664	20679.36
637.857	20978.37
638.051	20904.64
638.244	20548.29
638.438	20277.96
638.632	20607.69
638.825	20306.63
639.019	20216.52
639.212	19903.18
639.406	19993.29
639.599	20064.97
639.793	19665.62
639.986	19436.25
640.18	19479.25
640.373	19479.25
640.567	19057.37
640.76	19043.04
640.954	19073.76
641.147	18850.53
641.34	18713.31
641.534	18666.21
641.727	18987.74
641.92	18588.39
642.114	18361.06
642.307	18645.73
642.5	18434.79
642.694	17916.65
642.887	17748.72
643.08	18201.32
643.273	17777.39
643.467	17871.6
643.66	17715.95
643.853	17490.68
644.046	17382.13
644.239	17326.84
644.432	17185.53
644.626	16925.44
644.819	17132.28
645.012	17011.45
645.205	16919.29
645.398	16624.39
645.591	16417.54
645.784	16468.74
645.977	16384.77
646.17	16354.05
646.363	16069.39
646.556	16112.39
646.749	16210.7
646.942	16130.83
647.135	15897.36
647.328	15821.58
647.521	15747.86
647.714	15690.51
647.907	15840.01
648.099	15778.58
648.292	15362.84
648.485	15121.18
648.678	15164.18
648.871	15491.86
649.064	14945.05
649.256	15100.7
649.449	14848.8
649.642	14762.78
649.835	14783.26
650.027	14824.22
650.22	14584.61
650.413	14504.74
650.605	14459.68
650.798	14308.13
650.991	14136.1
651.183	14465.83
651.376	14023.47
651.568	14021.42
651.761	13978.41
651.954	13847.34
652.146	13962.03
652.339	13742.89
652.531	13790
652.724	13646.64
652.916	13427.51
653.109	13439.79
653.301	13642.54
653.494	13493.04
653.686	13271.86
653.879	13327.16
654.071	13368.12
654.263	13171.51
654.456	13280.05
654.648	12954.43
654.84	12731.2
655.033	12606.27
655.225	12614.46
655.417	12837.69
655.61	12567.36
655.802	12516.16
655.994	12483.39
656.186	12565.31
656.379	12337.99
656.571	12231.49
656.763	12069.7
656.955	12172.1
657.148	12192.58
657.34	12045.13
657.532	11930.44
657.724	12020.55
657.916	11985.74
658.108	11955.02
658.3	11731.79
658.492	11455.31
658.684	11582.29
658.876	11428.69
659.068	11541.33
659.26	11291.48
659.452	11492.18
659.644	11383.63
659.836	11232.08
660.028	11434.83
660.22	10912.6
660.412	11121.49
660.604	10740.57
660.796	11041.62
660.988	10746.72
661.18	10892.12
661.372	10861.4
661.563	10634.08
661.755	10306.4
661.947	10713.95
662.139	10515.3
662.331	10670.94
662.522	10275.68
662.714	10437.47
662.906	10294.11
663.097	10488.67
663.289	10275.68
663.481	10161
663.673	10191.72
663.864	9968.49
664.056	9972.58
664.247	10068.84
664.439	9599.85
664.631	9945.96
664.822	9726.83
665.014	9692.01
665.205	9464.69
665.397	9474.93
665.588	9509.74
665.78	9433.97
665.971	9612.14
666.163	9417.58
666.354	9296.75
666.546	9194.36
666.737	9122.68
666.929	9407.34
667.12	9257.84
667.311	9177.97
667.503	9167.73
667.694	9018.23
667.885	8842.11
668.077	9024.37
668.268	8952.7
668.459	9106.29
668.651	8846.2
668.842	8860.54
669.033	8739.71
669.224	8887.16
669.416	8635.26
669.607	8651.64
669.798	8502.14
669.989	8575.87
670.18	8649.6
670.371	8516.48
670.563	8379.26
670.754	8526.72
670.945	8452.99
671.136	8346.5
671.327	8252.29
671.518	8199.04
671.709	8311.68
671.9	8287.11
672.091	8295.3
672.282	8043.4
672.473	7981.96
672.664	8137.6
672.855	8182.66
673.046	8047.49
673.237	8084.36
673.428	8043.4
673.619	7869.32
673.809	7920.52
674	7834.5
674.191	7887.75
674.382	7857.03
674.573	7773.07
674.764	7928.71
674.954	7871.37
675.145	7869.32
675.336	7744.39
675.527	7738.25
675.717	7562.12
675.908	7566.22
676.099	7510.93
676.289	7646.09
676.48	7570.32
676.671	7486.35
676.861	7437.2
677.052	7365.52
677.243	7340.94
677.433	7515.02
677.624	7478.16
677.814	7478.16
678.005	7326.61
678.195	7351.18
678.386	7277.46
678.576	7252.88
678.767	7349.14
678.957	7283.6
679.148	7308.18
679.338	7175.06
679.529	7236.5
679.719	7289.74
679.909	7322.51
680.1	7132.05
680.29	7121.81
680.481	7130
680.671	7259.03
680.861	7066.52
681.052	7193.49
681.242	7277.46
681.432	7187.35
681.622	6974.36
681.813	6994.84
682.003	6988.69
682.193	6970.26
682.383	7068.56
682.573	6874.01
682.764	6921.11
682.954	6986.65
683.144	6888.34
683.334	6996.89
683.524	7007.13
683.714	6921.11
683.904	6900.63
684.094	6663.07
684.284	6945.69
684.474	6742.94
684.664	6761.37
684.854	6693.79
685.044	6794.14
685.234	6687.64
685.424	6626.2
685.614	6618.01
685.804	6634.39
685.994	6671.26
686.184	6556.57
686.374	6480.8
686.564	6538.14
686.753	6529.95
686.943	6431.65
687.133	6618.01
687.323	6450.08
687.513	6441.89
687.702	6458.27
687.892	6271.9
688.082	6273.95
688.272	6493.08
688.461	6470.56
688.651	6304.67
688.841	6085.54
689.03	6159.27
689.22	6218.66
689.41	6362.01
689.599	6185.89
689.789	6044.58
689.979	6110.11
690.168	6087.59
690.358	6015.91
690.547	5757.86
690.737	6095.78
690.926	6042.53
691.116	6011.81
691.305	5979.04
691.495	5839.78
691.684	5764.01
691.874	5946.28
692.063	5890.98
692.252	5807.02
692.442	5882.79
692.631	5792.68
692.82	5716.9
693.01	5735.34
693.199	5622.7
693.388	5622.7
693.578	5618.6
693.767	5698.47
693.956	5559.21
694.146	5561.26
694.335	5632.94
694.524	5462.96
694.713	5561.26
694.902	5393.33
695.092	5632.94
695.281	5503.92
695.47	5526.44
695.659	5536.68
695.848	5426.09
696.037	5557.16
696.226	5452.72
696.415	5448.62
696.604	5348.27
696.793	5301.17
696.982	5446.57
697.171	5383.09
697.36	5233.58
697.549	5258.16
697.738	5227.44
697.927	5194.67
698.116	5239.73
698.305	5356.46
698.494	5116.85
698.683	5112.75
698.872	5125.04
699.061	5213.1
699.25	5014.45
699.438	5137.33
699.627	5118.9
699.816	4987.83
700.005	5032.88
700.193	5125.04
700.382	5032.88
700.571	5004.21
700.76	5020.6
700.948	4973.49
701.137	5055.41
701.326	5045.17
701.514	4848.57
701.703	4864.95
701.892	4815.8
702.08	4928.44
702.269	5014.45
702.457	4850.61
702.646	4848.57
702.834	4801.46
703.023	4842.42
703.212	4803.51
703.4	4762.55
703.589	4752.31
703.777	4725.69
703.965	4725.69
704.154	4678.58
704.342	4697.02
704.531	4701.11
704.719	4662.2
704.907	4823.99
705.096	4471.74
705.284	4617.15
705.472	4643.77
705.661	4377.53
705.849	4676.54
706.037	4729.78
706.226	4518.84
706.414	4520.89
706.602	4594.62
706.79	4510.65
706.979	4426.68
707.167	4375.49
707.355	4412.35
707.543	4373.44
707.731	4486.08
707.919	4271.04
708.107	4242.37
708.296	4424.64
708.484	4369.34
708.672	4379.58
708.86	4314.05
709.048	4373.44
709.236	4238.27
709.424	4312
709.612	4217.79
709.8	4144.06
709.988	4168.64
710.176	4146.11
710.364	4152.26
710.551	4178.88
710.739	4316.09
710.927	4209.6
711.115	4209.6
711.303	4119.49
711.491	4070.34
711.679	4082.63
711.866	4086.72
712.054	4078.53
712.242	3926.98
712.43	4113.35
712.617	3886.02
712.805	3953.6
712.993	4025.28
713.181	3810.25
713.368	4053.95
713.556	3974.08
713.744	3967.94
713.931	3939.27
714.119	3931.08
714.306	4035.52
714.494	3976.13
714.682	3863.49
714.869	3851.21
715.057	3990.47
715.244	3709.9
715.432	3900.36
715.619	3767.24
715.807	3861.45
715.994	3824.58
716.182	3804.1
716.369	3855.3
716.556	3675.08
716.744	3771.33
716.931	3720.14
717.119	3738.57
717.306	3630.02
717.493	3824.58
717.681	3597.26
717.868	3615.69
718.055	3488.71
718.242	3636.17
718.43	3713.99
718.617	3589.07
718.804	3521.48
718.991	3546.06
719.179	3574.73
719.366	3578.83
719.553	3603.4
719.74	3591.11
719.927	3634.12
720.114	3564.49
720.301	3419.08
720.488	3439.56
720.676	3357.64
720.863	3521.48
721.05	3513.29
721.237	3492.81
721.424	3464.14
721.611	3351.5
721.798	3335.12
721.985	3449.8
722.172	3331.02
722.358	3234.77
722.545	3406.8
722.732	3318.73
722.919	3394.51
723.106	3210.19
723.293	3410.89
723.48	3269.58
723.667	3326.93
723.853	3230.67
724.04	3519.43
724.227	3242.96
724.414	3302.35
724.6	3210.19
724.787	3343.31
724.974	3335.12
725.161	3130.32
725.347	3130.32
725.534	3222.48
725.72	3322.83
725.907	3177.42
726.094	3152.85
726.28	3197.9
726.467	3193.81
726.653	3111.89
726.84	3279.82
727.027	3202
727.213	3070.93
727.4	3132.37
727.586	3154.9
727.773	3103.7
727.959	3132.37
728.145	3105.74
728.332	3046.35
728.518	3060.69
728.705	3072.98
728.891	3095.5
729.077	3105.74
729.264	3118.03
729.45	2954.19
729.636	3144.66
729.823	2907.09
730.009	3050.45
730.195	3021.78
730.382	3009.49
730.568	2903
730.754	3062.74
730.94	2960.34
731.126	3070.93
731.313	2995.15
731.499	2968.53
731.685	2913.24
731.871	2921.43
732.057	2974.67
732.243	2931.67
732.429	2900.95
732.615	2958.29
732.801	2991.06
732.987	2829.27
733.173	2913.24
733.359	2923.48
733.545	2767.83
733.731	2882.52
733.917	2892.76
734.103	2833.36
734.289	2872.28
734.475	2792.41
734.661	2948.05
734.847	2870.23
735.033	2804.69
735.219	2776.02
735.404	2874.32
735.59	2819.03
735.776	2700.25
735.962	2878.42
736.148	2792.41
736.333	2808.79
736.519	2776.02
736.705	2718.68
736.89	2751.45
737.076	2714.58
737.262	2630.62
737.447	2644.95
737.633	2710.49
737.819	2663.38
738.004	2665.43
738.19	2585.56
738.375	2603.99
738.561	2677.72
738.747	2620.38
738.932	2573.27
739.118	2728.92
739.303	2726.87
739.489	2567.13
739.674	2497.5
739.859	2524.12
740.045	2489.31
740.23	2653.14
740.416	2579.42
740.601	2630.62
740.786	2546.65
740.972	2450.39
741.157	2319.32
741.342	2530.27
741.528	2425.82
741.713	2522.07
741.898	2450.39
742.084	2366.43
742.269	2448.35
742.454	2446.3
742.639	2364.38
742.824	2419.68
743.01	2464.73
743.195	2386.91
743.38	2368.48
743.565	2505.69
743.75	2368.48
743.935	2300.89
744.12	2382.81
744.305	2292.7
744.49	2284.51
744.675	2259.93
744.86	2354.14
745.045	2218.97
745.23	2350.04
745.415	2192.35
745.6	2397.15
745.785	2132.96
745.97	2276.32
746.155	2173.92
746.34	2229.21
746.525	2065.38
746.71	2157.54
746.895	2081.76
747.079	2110.43
747.264	2145.25
747.449	2048.99
747.634	2038.75
747.819	2112.48
748.003	2167.77
748.188	2120.67
748.373	2042.85
748.557	1985.51
748.742	2061.28
748.927	1997.79
749.111	1948.64
749.296	1969.12
749.481	2051.04
749.665	2020.32
749.85	1917.92
750.034	1924.07
750.219	1962.98
750.404	1962.98
750.588	1891.3
750.773	1729.51
750.957	1915.87
751.141	1854.44
751.326	1868.77
751.51	1723.37
751.695	1831.91
751.879	1891.3
752.064	1905.63
752.248	1784.8
752.432	1741.8
752.617	1731.56
752.801	1760.23
752.985	1696.74
753.17	1745.89
753.354	1719.27
753.538	1723.37
753.722	1637.35
753.907	1678.31
754.091	1620.97
754.275	1637.35
754.459	1745.89
754.643	1651.69
754.828	1629.16
755.012	1450.99
755.196	1588.2
755.38	1559.53
755.564	1541.1
755.748	1438.7
755.932	1637.35
756.116	1631.21
756.3	1557.48
756.484	1485.8
756.668	1491.95
756.852	1424.36
757.036	1541.1
757.22	1418.22
757.404	1432.55
757.588	1498.09
757.772	1483.75
757.956	1483.75
758.14	1450.99
758.323	1377.26
758.507	1407.98
758.691	1362.92
758.875	1395.69
759.059	1414.12
759.242	1379.31
759.426	1383.4
759.61	1256.43
759.794	1305.58
759.977	1215.47
760.161	1330.16
760.345	1326.06
760.528	1309.68
760.712	1358.83
760.895	1293.29
761.079	1330.16
761.263	1201.13
761.446	1252.33
761.63	1186.8
761.813	1303.53
761.997	1219.57
762.18	1235.95
762.364	1278.96
762.547	1096.69
762.731	1264.62
762.914	1285.1
763.098	1244.14
763.281	1233.9
763.464	1317.87
763.648	1227.76
763.831	1149.93
764.015	1235.95
764.198	1190.89
764.381	1172.46
764.564	1188.85
764.748	1162.22
764.931	1088.5
765.114	1104.88
765.297	1166.32
765.481	1061.87
765.664	1098.74
765.847	1098.74
766.03	1166.32
766.213	1043.44
766.397	1137.65
766.58	1104.88
766.763	1233.9
766.946	1100.78
767.129	1072.11
767.312	1068.02
767.495	1065.97
767.678	1141.74
767.861	1131.5
768.044	1123.31
768.227	1090.54
768.41	1039.34
768.593	1113.07
768.776	1041.39
768.959	1090.54
769.142	1117.17
769.324	979.95
769.507	1018.86
769.69	1084.4
769.873	1059.82
770.056	1082.35
770.239	1065.97
770.421	1106.93
770.604	1049.58
770.787	1031.15
770.97	1004.53
771.152	982
771.335	1041.39
771.518	1006.58
771.7	969.71
771.883	1063.92
772.066	1002.48
772.248	1043.44
772.431	986.1
772.613	992.24
772.796	938.99
772.978	990.19
773.161	883.7
773.343	965.62
773.526	908.27
773.708	867.31
773.891	871.41
774.073	916.47
774.256	949.23
774.438	969.71
774.621	814.07
774.803	875.51
774.985	883.7
775.168	936.95
775.35	957.43
775.532	867.31
775.715	809.97
775.897	949.23
776.079	812.02
776.261	883.7
776.444	826.36
776.626	795.64
776.808	797.68
776.99	754.68
777.173	834.55
777.355	801.78
777.537	730.1
777.719	809.97
777.901	842.74
778.083	809.97
778.265	791.54
778.447	785.4
778.629	762.87
778.811	779.25
778.993	746.48
779.175	775.16
779.357	728.05
779.539	740.34
779.721	699.38
779.903	752.63
780.085	687.09
780.267	676.85
780.449	678.9
780.631	697.33
780.812	736.24
780.994	635.89
781.176	715.77
781.358	705.53
781.54	609.27
781.721	635.89
781.903	713.72
782.085	648.18
782.267	662.52
782.448	547.83
782.63	691.19
782.812	582.65
782.993	631.8
783.175	736.24
783.357	658.42
783.538	586.74
783.72	637.94
783.901	564.22
784.083	666.61
784.264	605.17
784.446	535.54
784.627	549.88
784.809	506.87
784.99	553.98
785.172	648.18
785.353	549.88
785.535	541.69
785.716	523.26
785.897	556.02
786.079	648.18
786.26	570.36
786.441	582.65
786.623	529.4
786.804	486.39
786.985	558.07
787.167	564.22
787.348	457.72
787.529	486.39
787.71	680.95
787.891	461.82
788.073	441.34
788.254	517.11
788.435	490.49
788.616	549.88
788.797	482.3
788.978	539.64
789.159	406.52
789.34	523.26
789.522	467.96
789.703	400.38
789.884	510.97
790.065	541.69
790.246	474.1
790.427	367.61
790.607	465.91
790.788	517.11
790.969	441.34
791.15	465.91
791.331	363.51
791.512	398.33
791.693	347.13
791.874	447.48
792.054	472.06
792.235	470.01
792.416	238.59
792.597	379.9
792.778	394.23
792.958	377.85
793.139	465.91
793.32	457.72
793.5	457.72
793.681	463.86
793.862	332.79
794.042	433.15
794.223	334.84
794.404	343.03
794.584	375.8
794.765	351.23
794.945	304.12
795.126	302.08
795.306	345.08
795.487	383.99
795.667	408.57
795.848	390.14
796.028	314.36
796.209	322.56
796.389	326.65
796.57	345.08
796.75	379.9
796.93	271.36
797.111	302.08
797.291	326.65
797.471	334.84
797.652	293.88
797.832	254.97
798.012	379.9
798.192	222.2
798.373	238.59
798.553	363.51
798.733	328.7
798.913	306.17
799.093	330.75
799.274	340.99
799.454	269.31
799.634	351.23
799.814	383.99
799.994	246.78
800.174	338.94
800.354	220.16
800.534	304.12
800.714	248.83
800.894	318.46
801.074	193.53
801.254	187.39
801.434	345.08
801.614	312.32
801.794	295.93
801.974	900.08
802.154	222.2
802.334	343.03
802.514	224.25
802.693	218.11
802.873	318.46
803.053	306.17
803.233	289.79
803.413	271.36
803.592	269.31
803.772	222.2
803.952	228.35
804.131	293.88
804.311	277.5
804.491	338.94
804.67	271.36
804.85	146.43
805.03	130.05
805.209	234.49
805.389	252.92
805.568	252.92
805.748	228.35
805.928	218.11
806.107	183.29
806.287	261.12
806.466	209.92
806.646	179.2
806.825	183.29
807.004	166.91
807.184	289.79
807.363	347.13
807.543	244.73
807.722	248.83
807.901	226.3
808.081	293.88
808.26	132.09
808.439	289.79
808.619	211.96
808.798	222.2
808.977	203.77
809.156	236.54
809.336	211.96
809.515	300.03
809.694	130.05
809.873	252.92
810.052	209.92
810.231	269.31
810.411	244.73
810.59	185.34
810.769	187.39
810.948	252.92
811.127	175.1
811.306	199.68
811.485	220.16
811.664	224.25
811.843	181.25
812.022	160.77
812.201	240.64
812.38	246.78
812.559	146.43
812.737	263.16
812.916	142.33
813.095	173.05
813.274	240.64
813.453	211.96
813.632	197.63
813.811	222.2
813.989	134.14
814.168	203.77
814.347	187.39
814.526	115.71
814.704	222.2
814.883	173.05
815.062	207.87
815.24	203.77
815.419	101.37
815.598	142.33
815.776	74.75
815.955	191.49
816.133	140.29
816.312	166.91
816.49	115.71
816.669	164.86
816.847	144.38
817.026	142.33
817.204	91.13
817.383	123.9
817.561	89.09
817.74	130.05
817.918	154.62
818.097	148.48
818.275	125.95
818.453	121.85
818.632	130.05
818.81	101.37
818.988	54.27
819.167	97.28
819.345	164.86
819.523	125.95
819.701	117.76
819.879	134.14
820.058	146.43
820.236	130.05
820.414	146.43
820.592	148.48
820.77	166.91
820.948	179.2
821.127	44.03
821.305	199.68
821.483	119.81
821.661	148.48
821.839	103.42
822.017	183.29
822.195	58.37
822.373	156.67
822.551	128
822.729	97.28
822.907	125.95
823.085	168.96
823.262	146.43
823.44	54.27
823.618	113.66
823.796	150.53
823.974	89.09
824.152	197.63
824.329	80.89
824.507	125.95
824.685	160.77
824.863	58.37
825.04	80.89
825.218	140.29
825.396	113.66
825.574	142.33
825.751	130.05
825.929	113.66
826.107	82.94
826.284	50.18
826.462	138.24
826.639	107.52
826.817	87.04
826.994	140.29
827.172	117.76
827.349	220.16
827.527	103.42
827.704	72.7
827.882	119.81
828.059	113.66
828.237	107.52
828.414	123.9
828.591	68.61
828.769	136.19
828.946	105.47
829.124	142.33
829.301	121.85
829.478	121.85
829.655	138.24
829.833	134.14
830.01	72.7
830.187	199.68
830.364	123.9
830.542	173.05
830.719	95.23
830.896	156.67
831.073	121.85
831.25	146.43
831.427	68.61
831.604	7.17
831.782	74.75
831.959	117.76
832.136	93.18
832.313	82.94
832.49	93.18
832.667	107.52
832.844	7.17
833.021	173.05
833.198	130.05
833.374	146.43
833.551	60.42
833.728	82.94
833.905	183.29
834.082	56.32
834.259	105.47
834.436	121.85
834.612	113.66
834.789	105.47
834.966	162.81
835.143	99.33
835.319	58.37
835.496	44.03
835.673	105.47
835.85	156.67
836.026	41.98
836.203	132.09
836.38	33.79
836.556	80.89
836.733	80.89
836.909	220.16
837.086	140.29
837.262	46.08
837.439	17.41
837.616	78.85
837.792	138.24
837.968	80.89
838.145	74.75
838.321	80.89
838.498	119.81
838.674	179.2
838.851	35.84
839.027	13.31
839.203	115.71
839.38	89.09
839.556	-39.94
839.732	123.9
839.909	72.7
840.085	48.13
840.261	54.27
840.437	25.6
840.614	89.09
840.79	33.79
840.966	74.75
841.142	25.6
841.318	84.99
841.494	39.94
841.671	60.42
841.847	17.41
842.023	25.6
842.199	41.98
842.375	89.09
842.551	33.79
842.727	-31.74
842.903	113.66
843.079	11.26
843.255	87.04
843.431	48.13
843.607	66.56
843.783	41.98
843.959	76.8
844.134	-13.31
844.31	89.09
844.486	91.13
844.662	80.89
844.838	31.74
845.013	72.7
845.189	105.47
845.365	56.32
845.541	48.13
845.716	84.99
845.892	48.13
846.068	132.09
846.244	35.84
846.419	58.37
846.595	48.13
846.77	58.37
846.946	107.52
847.122	181.25
847.297	84.99
847.473	70.65
847.648	-29.7
847.824	82.94
847.999	39.94
848.175	91.13
848.35	9.22
848.526	37.89
848.701	-37.89
848.876	117.76
849.052	121.85
849.227	105.47
849.403	89.09
849.578	5.12
849.753	89.09
849.929	121.85
850.104	35.84
850.279	58.37
850.454	93.18
850.63	76.8
850.805	50.18
850.98	72.7
851.155	-19.46
851.33	72.7
851.505	19.46
851.681	39.94
851.856	48.13
852.031	105.47
852.206	84.99
852.381	-23.55
852.556	-9.22
852.731	154.62
852.906	19.46
853.081	113.66
853.256	84.99
853.431	17.41
853.606	-17.41
853.781	-64.51
853.956	50.18
854.131	58.37
854.305	44.03
854.48	60.42
854.655	15.36
854.83	62.46
855.005	58.37
855.18	50.18
855.354	7.17
855.529	82.94
855.704	-5.12
855.879	113.66
856.053	9.22
856.228	17.41
856.403	-62.46
856.577	93.18
856.752	11.26
856.926	7.17
857.101	23.55
857.276	39.94
857.45	74.75
857.625	64.51
857.799	19.46
857.974	50.18
858.148	35.84
858.323	76.8
858.497	25.6
858.672	27.65
858.846	3.07
859.02	15.36
859.195	1.02
859.369	1.02
859.543	9.22
859.718	19.46
859.892	9.22
860.066	93.18
860.241	7.17
860.415	7.17
860.589	-37.89
860.763	17.41
860.938	39.94
861.112	31.74
861.286	19.46
861.46	74.75
861.634	-44.03
861.808	17.41
861.982	35.84
862.157	-9.22
862.331	-17.41
862.505	15.36
862.679	29.7
862.853	33.79
863.027	31.74
863.201	41.98
863.375	23.55
863.549	68.61
863.722	-33.79
863.896	117.76
864.07	56.32
864.244	15.36
864.418	39.94
864.592	58.37
864.766	15.36
864.939	44.03
865.113	-15.36
865.287	58.37
865.461	-13.31
865.634	58.37
865.808	35.84
865.982	-1.02
866.156	37.89
866.329	37.89
866.503	13.31
866.676	117.76
866.85	33.79
867.024	41.98
867.197	56.32
867.371	89.09
867.544	72.7
867.718	-78.85
867.891	64.51
868.065	72.7
868.238	80.89
868.412	11.26
868.585	72.7
868.759	13.31
868.932	-23.55
869.105	-13.31
869.279	11.26
869.452	13.31
869.625	39.94
869.799	23.55
869.972	1.02
870.145	17.41
870.319	72.7
870.492	50.18
870.665	-11.26
870.838	39.94
871.011	52.22
871.185	19.46
871.358	64.51
871.531	1.02
871.704	15.36
871.877	48.13
872.05	-27.65
872.223	3.07
872.396	-17.41
872.569	89.09
872.742	3.07
872.915	33.79
873.088	41.98
873.261	48.13
873.434	-7.17
873.607	60.42
873.78	-9.22
873.953	23.55
874.126	-1.02
874.299	44.03
874.471	33.79
874.644	27.65
874.817	29.7
874.99	64.51
875.163	-21.5
875.335	39.94
875.508	72.7
875.681	76.8
875.853	41.98
876.026	113.66
876.199	-1.02
876.371	84.99
876.544	48.13
876.717	9.22
876.889	-64.51
877.062	25.6
877.234	33.79
877.407	39.94
877.579	70.65
877.752	74.75
877.924	39.94
878.097	25.6
878.269	17.41
878.442	-31.74
878.614	15.36
878.786	-15.36
878.959	74.75
879.131	54.27
879.303	-99.33
879.476	9.22
879.648	29.7
879.82	39.94
879.993	-31.74
880.165	-25.6
880.337	-9.22
880.509	7.17
880.681	15.36
880.854	-54.27
881.026	19.46
881.198	113.66
881.37	-15.36
881.542	89.09
881.714	-1.02
881.886	3.07
882.058	17.41
882.23	-9.22
882.402	60.42
882.574	70.65
882.746	-29.7
882.918	23.55
883.09	17.41
883.262	17.41
883.434	-35.84
883.606	17.41
883.778	19.46
883.95	99.33
884.122	-11.26
884.293	62.46
884.465	-48.13
884.637	58.37
884.809	-29.7
884.98	23.55
885.152	7.17
885.324	72.7
885.496	1.02
885.667	-19.46
885.839	-35.84
886.011	41.98
886.182	82.94
886.354	33.79
886.525	-1.02
886.697	17.41
886.869	29.7
887.04	52.22
887.212	1.02
887.383	91.13
887.555	54.27
887.726	39.94
887.897	15.36
888.069	27.65
888.24	33.79
888.412	-7.17
888.583	39.94
888.754	-3.07
888.926	-48.13
889.097	-23.55
889.268	-50.18
889.44	44.03
889.611	-50.18
889.782	66.56
889.953	-48.13
890.125	72.7
890.296	46.08
890.467	25.6
890.638	3.07
890.809	-25.6
890.98	15.36
891.151	-11.26
891.323	56.32
891.494	48.13
891.665	-7.17
891.836	-41.98
892.007	-1.02
892.178	9.22
892.349	-37.89
892.52	-39.94
892.691	-39.94
892.862	-31.74
893.032	-103.42
893.203	-31.74
893.374	-9.22
893.545	48.13
893.716	13.31
893.887	89.09
894.057	56.32
894.228	-64.51
894.399	-31.74
894.57	115.71
894.74	-29.7
894.911	1.02
895.082	-41.98
895.253	9.22
895.423	21.5
895.594	-3.07
895.764	117.76
895.935	21.5
896.106	25.6
896.276	5.12
896.447	-13.31
896.617	15.36
896.788	-7.17
896.958	39.94
897.129	3.07
897.299	-91.13
897.47	52.22
897.64	84.99
897.81	5.12
897.981	-5.12
898.151	-15.36
898.322	5.12
898.492	-21.5
898.662	-23.55
898.832	31.74
899.003	31.74
899.173	-19.46
899.343	-37.89
899.513	-13.31
