Data from USB4F104151__245__14-34-12-485.txt Node

Date: Thu Mar 13 14:34:12 EDT 2025
User: louis
Spectrometer: USB4F10415
Trigger mode: 4
Integration Time (sec): 2.500000E-2
Scans to average: 1
Electric dark correction enabled: true
Nonlinearity correction enabled: false
Boxcar width: 0
XAxis mode: Wavelengths
Number of Pixels in Spectrum: 3648
>>>>>Begin Spectral Data<<<<<
178.204	-169.98
178.424	-169.98
178.644	-169.98
178.864	-137.21
179.084	-165.89
179.304	-6.14
179.524	51.2
179.744	6.14
179.964	30.72
180.184	-30.72
180.404	-63.49
180.624	18.43
180.844	14.34
181.064	-24.58
181.283	-20.48
181.503	14.34
181.723	10.24
181.943	-43.01
182.163	6.14
182.383	28.67
182.602	30.72
182.822	83.97
183.042	4.1
183.262	40.96
183.482	69.63
183.701	18.43
183.921	10.24
184.141	8.19
184.361	28.67
184.58	77.82
184.8	18.43
185.02	-28.67
185.239	71.68
185.459	-8.19
185.679	77.82
185.898	34.82
186.118	124.93
186.338	116.73
186.557	67.58
186.777	-34.82
186.997	-22.53
187.216	43.01
187.436	92.16
187.655	145.41
187.875	59.39
188.095	53.25
188.314	36.86
188.534	75.77
188.753	-10.24
188.973	83.97
189.192	28.67
189.412	-63.49
189.631	77.82
189.851	106.49
190.07	77.82
190.29	-6.14
190.509	38.91
190.729	69.63
190.948	10.24
191.168	126.97
191.387	55.3
191.607	-2.05
191.826	116.73
192.045	55.3
192.265	2.05
192.484	-8.19
192.704	34.82
192.923	26.62
193.142	86.01
193.362	18.43
193.581	67.58
193.8	-20.48
194.02	67.58
194.239	108.54
194.458	77.82
194.678	20.48
194.897	-26.62
195.116	16.38
195.335	43.01
195.555	77.82
195.774	18.43
195.993	24.58
196.212	-16.38
196.432	55.3
196.651	77.82
196.87	-47.1
197.089	131.07
197.308	-6.14
197.528	16.38
197.747	-10.24
197.966	-6.14
198.185	51.2
198.404	34.82
198.623	26.62
198.842	96.25
199.062	61.44
199.281	-14.34
199.5	67.58
199.719	59.39
199.938	96.25
200.157	67.58
200.376	47.1
200.595	102.4
200.814	26.62
201.033	-2.05
201.252	20.48
201.471	-6.14
201.69	75.77
201.909	83.97
202.128	18.43
202.347	83.97
202.566	53.25
202.785	14.34
203.004	-12.29
203.223	161.79
203.442	53.25
203.661	43.01
203.879	43.01
204.098	18.43
204.317	51.2
204.536	88.06
204.755	59.39
204.974	18.43
205.193	6.14
205.411	145.41
205.63	6.14
205.849	38.91
206.068	43.01
206.287	14.34
206.505	133.12
206.724	57.34
206.943	-18.43
207.162	51.2
207.381	34.82
207.599	12.29
207.818	34.82
208.037	98.3
208.255	16.38
208.474	-10.24
208.693	47.1
208.911	6.14
209.13	47.1
209.349	67.58
209.567	36.86
209.786	20.48
210.005	69.63
210.223	26.62
210.442	51.2
210.661	10.24
210.879	61.44
211.098	88.06
211.316	67.58
211.535	112.64
211.753	43.01
211.972	43.01
212.191	12.29
212.409	34.82
212.628	53.25
212.846	-16.38
213.065	36.86
213.283	98.3
213.502	-8.19
213.72	6.14
213.938	-8.19
214.157	71.68
214.375	4.1
214.594	-22.53
214.812	108.54
215.031	-38.91
215.249	-53.25
215.467	75.77
215.686	43.01
215.904	153.6
216.122	38.91
216.341	118.78
216.559	4.1
216.778	14.34
216.996	59.39
217.214	-10.24
217.432	-4.1
217.651	18.43
217.869	43.01
218.087	47.1
218.306	0
218.524	57.34
218.742	36.86
218.96	43.01
219.179	4.1
219.397	36.86
219.615	77.82
219.833	26.62
220.051	55.3
220.27	92.16
220.488	86.01
220.706	-20.48
220.924	-16.38
221.142	-45.06
221.36	26.62
221.578	69.63
221.796	55.3
222.015	61.44
222.233	55.3
222.451	126.97
222.669	-22.53
222.887	77.82
223.105	55.3
223.323	-18.43
223.541	-6.14
223.759	24.58
223.977	-61.44
224.195	51.2
224.413	81.92
224.631	81.92
224.849	4.1
225.067	151.55
225.285	-6.14
225.503	-47.1
225.721	24.58
225.939	32.77
226.157	-16.38
226.375	141.31
226.592	20.48
226.81	12.29
227.028	75.77
227.246	73.73
227.464	79.87
227.682	32.77
227.9	34.82
228.117	51.2
228.335	-34.82
228.553	53.25
228.771	-2.05
228.989	45.06
229.206	30.72
229.424	-71.68
229.642	18.43
229.86	14.34
230.077	10.24
230.295	75.77
230.513	20.48
230.731	18.43
230.948	12.29
231.166	100.35
231.384	61.44
231.601	-4.1
231.819	63.49
232.037	12.29
232.254	28.67
232.472	20.48
232.689	-16.38
232.907	106.49
233.125	75.77
233.342	30.72
233.56	-4.1
233.777	55.3
233.995	2.05
234.213	71.68
234.43	53.25
234.648	-28.67
234.865	0
235.083	10.24
235.3	79.87
235.518	59.39
235.735	43.01
235.953	65.54
236.17	45.06
236.388	-8.19
236.605	-22.53
236.822	-12.29
237.04	-4.1
237.257	45.06
237.475	2.05
237.692	83.97
237.909	2.05
238.127	53.25
238.344	34.82
238.562	34.82
238.779	-96.25
238.996	63.49
239.214	61.44
239.431	120.83
239.648	-55.3
239.865	14.34
240.083	88.06
240.3	55.3
240.517	-26.62
240.735	-12.29
240.952	20.48
241.169	45.06
241.386	65.54
241.603	100.35
241.821	63.49
242.038	116.73
242.255	51.2
242.472	-2.05
242.689	34.82
242.907	16.38
243.124	63.49
243.341	18.43
243.558	0
243.775	36.86
243.992	-20.48
244.209	63.49
244.426	43.01
244.643	-59.39
244.86	40.96
245.078	57.34
245.295	20.48
245.512	135.17
245.729	34.82
245.946	10.24
246.163	-6.14
246.38	4.1
246.597	-6.14
246.814	-14.34
247.031	22.53
247.248	43.01
247.464	38.91
247.681	43.01
247.898	124.93
248.115	18.43
248.332	-47.1
248.549	155.65
248.766	45.06
248.983	26.62
249.2	59.39
249.417	57.34
249.633	79.87
249.85	38.91
250.067	8.19
250.284	55.3
250.501	2.05
250.717	55.3
250.934	-55.3
251.151	75.77
251.368	34.82
251.585	88.06
251.801	4.1
252.018	49.15
252.235	45.06
252.451	-14.34
252.668	2.05
252.885	6.14
253.102	18.43
253.318	28.67
253.535	10.24
253.752	69.63
253.968	-51.2
254.185	-43.01
254.401	28.67
254.618	124.93
254.835	36.86
255.051	34.82
255.268	92.16
255.484	-22.53
255.701	38.91
255.917	59.39
256.134	-4.1
256.351	6.14
256.567	-10.24
256.784	124.93
257	20.48
257.217	67.58
257.433	108.54
257.65	94.21
257.866	-14.34
258.082	8.19
258.299	-14.34
258.515	108.54
258.732	34.82
258.948	43.01
259.165	53.25
259.381	-12.29
259.597	47.1
259.814	28.67
260.03	-26.62
260.246	126.97
260.463	104.45
260.679	-28.67
260.895	69.63
261.112	55.3
261.328	43.01
261.544	6.14
261.761	129.02
261.977	-4.1
262.193	77.82
262.409	75.77
262.626	83.97
262.842	-8.19
263.058	12.29
263.274	10.24
263.49	51.2
263.707	67.58
263.923	65.54
264.139	34.82
264.355	28.67
264.571	38.91
264.787	47.1
265.004	88.06
265.22	47.1
265.436	45.06
265.652	-26.62
265.868	57.34
266.084	-2.05
266.3	-34.82
266.516	0
266.732	73.73
266.948	79.87
267.164	-2.05
267.38	-10.24
267.596	79.87
267.812	34.82
268.028	86.01
268.244	4.1
268.46	28.67
268.676	-4.1
268.892	2.05
269.108	-22.53
269.324	-18.43
269.54	6.14
269.756	26.62
269.972	-36.86
270.188	-8.19
270.403	-22.53
270.619	83.97
270.835	-2.05
271.051	26.62
271.267	-24.58
271.483	-45.06
271.698	30.72
271.914	88.06
272.13	38.91
272.346	67.58
272.562	20.48
272.777	51.2
272.993	-55.3
273.209	38.91
273.425	22.53
273.64	-10.24
273.856	104.45
274.072	18.43
274.287	-16.38
274.503	53.25
274.719	83.97
274.934	67.58
275.15	-16.38
275.366	67.58
275.581	22.53
275.797	34.82
276.012	24.58
276.228	75.77
276.444	63.49
276.659	75.77
276.875	20.48
277.09	-20.48
277.306	43.01
277.521	75.77
277.737	43.01
277.952	18.43
278.168	34.82
278.383	90.11
278.599	38.91
278.814	4.1
279.03	-6.14
279.245	92.16
279.461	34.82
279.676	110.59
279.892	53.25
280.107	-38.91
280.322	-18.43
280.538	69.63
280.753	38.91
280.969	14.34
281.184	-34.82
281.399	38.91
281.615	34.82
281.83	-8.19
282.045	-38.91
282.26	26.62
282.476	59.39
282.691	47.1
282.906	57.34
283.122	79.87
283.337	2.05
283.552	40.96
283.767	59.39
283.983	67.58
284.198	-55.3
284.413	36.86
284.628	-2.05
284.843	-2.05
285.058	14.34
285.274	38.91
285.489	10.24
285.704	26.62
285.919	28.67
286.134	126.97
286.349	20.48
286.564	-86.01
286.779	2.05
286.995	-61.44
287.21	-26.62
287.425	-22.53
287.64	12.29
287.855	69.63
288.07	10.24
288.285	153.6
288.5	20.48
288.715	126.97
288.93	4.1
289.145	-34.82
289.36	36.86
289.575	-4.1
289.79	61.44
290.004	22.53
290.219	75.77
290.434	22.53
290.649	57.34
290.864	75.77
291.079	26.62
291.294	10.24
291.509	2.05
291.724	28.67
291.938	34.82
292.153	83.97
292.368	40.96
292.583	69.63
292.798	61.44
293.012	94.21
293.227	22.53
293.442	6.14
293.657	-14.34
293.871	108.54
294.086	106.49
294.301	51.2
294.516	98.3
294.73	102.4
294.945	-6.14
295.16	18.43
295.374	40.96
295.589	18.43
295.804	63.49
296.018	4.1
296.233	71.68
296.447	-10.24
296.662	26.62
296.877	26.62
297.091	77.82
297.306	6.14
297.52	51.2
297.735	38.91
297.949	34.82
298.164	59.39
298.378	-4.1
298.593	2.05
298.807	-28.67
299.022	24.58
299.236	34.82
299.451	12.29
299.665	4.1
299.88	34.82
300.094	47.1
300.309	14.34
300.523	61.44
300.737	26.62
300.952	126.97
301.166	51.2
301.381	-45.06
301.595	12.29
301.809	4.1
302.024	92.16
302.238	36.86
302.452	94.21
302.667	-38.91
302.881	36.86
303.095	43.01
303.309	10.24
303.524	43.01
303.738	10.24
303.952	-30.72
304.166	88.06
304.381	-38.91
304.595	83.97
304.809	102.4
305.023	-14.34
305.237	-22.53
305.452	18.43
305.666	26.62
305.88	43.01
306.094	45.06
306.308	83.97
306.522	110.59
306.736	38.91
306.95	77.82
307.164	-12.29
307.379	53.25
307.593	149.5
307.807	51.2
308.021	-65.54
308.235	190.46
308.449	6.14
308.663	57.34
308.877	98.3
309.091	30.72
309.305	-12.29
309.519	-30.72
309.733	114.69
309.947	-14.34
310.161	169.98
310.374	47.1
310.588	43.01
310.802	6.14
311.016	-20.48
311.23	77.82
311.444	51.2
311.658	45.06
311.872	30.72
312.085	59.39
312.299	79.87
312.513	126.97
312.727	59.39
312.941	14.34
313.154	59.39
313.368	59.39
313.582	24.58
313.796	61.44
314.009	43.01
314.223	10.24
314.437	69.63
314.651	112.64
314.864	10.24
315.078	94.21
315.292	67.58
315.505	10.24
315.719	59.39
315.933	20.48
316.146	4.1
316.36	45.06
316.573	92.16
316.787	-30.72
317.001	94.21
317.214	-14.34
317.428	-2.05
317.641	-4.1
317.855	-6.14
318.068	4.1
318.282	10.24
318.495	16.38
318.709	100.35
318.922	-26.62
319.136	83.97
319.349	100.35
319.563	49.15
319.776	26.62
319.99	-14.34
320.203	18.43
320.417	45.06
320.63	69.63
320.843	75.77
321.057	-26.62
321.27	59.39
321.483	92.16
321.697	75.77
321.91	26.62
322.124	36.86
322.337	16.38
322.55	34.82
322.763	47.1
322.977	92.16
323.19	-12.29
323.403	69.63
323.617	51.2
323.83	-20.48
324.043	59.39
324.256	-14.34
324.469	16.38
324.683	47.1
324.896	28.67
325.109	55.3
325.322	-8.19
325.535	92.16
325.748	57.34
325.962	-34.82
326.175	-30.72
326.388	61.44
326.601	59.39
326.814	10.24
327.027	-4.1
327.24	18.43
327.453	81.92
327.666	59.39
327.879	51.2
328.092	38.91
328.305	30.72
328.518	34.82
328.731	-32.77
328.944	28.67
329.157	4.1
329.37	47.1
329.583	55.3
329.796	34.82
330.009	63.49
330.222	75.77
330.435	67.58
330.648	57.34
330.861	59.39
331.073	59.39
331.286	45.06
331.499	26.62
331.712	14.34
331.925	63.49
332.138	100.35
332.35	79.87
332.563	49.15
332.776	106.49
332.989	-40.96
333.202	65.54
333.414	-40.96
333.627	-28.67
333.84	69.63
334.053	43.01
334.265	96.25
334.478	77.82
334.691	53.25
334.903	77.82
335.116	-47.1
335.329	36.86
335.541	100.35
335.754	88.06
335.966	120.83
336.179	38.91
336.392	18.43
336.604	-28.67
336.817	124.93
337.029	98.3
337.242	61.44
337.454	26.62
337.667	61.44
337.88	83.97
338.092	63.49
338.305	-18.43
338.517	-20.48
338.729	108.54
338.942	63.49
339.154	38.91
339.367	-6.14
339.579	38.91
339.792	73.73
340.004	92.16
340.217	45.06
340.429	38.91
340.641	-2.05
340.854	-30.72
341.066	38.91
341.278	108.54
341.491	63.49
341.703	43.01
341.915	26.62
342.128	88.06
342.34	71.68
342.552	28.67
342.764	83.97
342.977	20.48
343.189	71.68
343.401	38.91
343.613	16.38
343.826	98.3
344.038	-12.29
344.25	45.06
344.462	10.24
344.674	55.3
344.886	90.11
345.099	75.77
345.311	34.82
345.523	16.38
345.735	22.53
345.947	65.54
346.159	30.72
346.371	-10.24
346.583	26.62
346.795	30.72
347.007	86.01
347.219	32.77
347.431	-55.3
347.643	96.25
347.855	61.44
348.067	100.35
348.279	47.1
348.491	-34.82
348.703	92.16
348.915	57.34
349.127	-45.06
349.339	43.01
349.551	65.54
349.763	-47.1
349.975	16.38
350.187	16.38
350.399	75.77
350.61	38.91
350.822	34.82
351.034	55.3
351.246	14.34
351.458	40.96
351.669	53.25
351.881	53.25
352.093	124.93
352.305	71.68
352.517	67.58
352.728	43.01
352.94	45.06
353.152	92.16
353.363	59.39
353.575	83.97
353.787	79.87
353.999	47.1
354.21	73.73
354.422	36.86
354.633	83.97
354.845	67.58
355.057	79.87
355.268	49.15
355.48	73.73
355.692	-51.2
355.903	36.86
356.115	34.82
356.326	-67.58
356.538	129.02
356.749	96.25
356.961	120.83
357.172	122.88
357.384	30.72
357.595	167.93
357.807	18.43
358.018	-4.1
358.23	-28.67
358.441	77.82
358.653	145.41
358.864	59.39
359.075	34.82
359.287	51.2
359.498	10.24
359.709	-20.48
359.921	108.54
360.132	26.62
360.344	88.06
360.555	-22.53
360.766	63.49
360.977	24.58
361.189	55.3
361.4	26.62
361.611	92.16
361.823	69.63
362.034	57.34
362.245	-6.14
362.456	20.48
362.667	45.06
362.879	45.06
363.09	57.34
363.301	61.44
363.512	-36.86
363.723	71.68
363.935	-22.53
364.146	83.97
364.357	51.2
364.568	28.67
364.779	26.62
364.99	51.2
365.201	59.39
365.412	34.82
365.623	-22.53
365.834	100.35
366.045	59.39
366.256	133.12
366.467	34.82
366.678	-30.72
366.889	88.06
367.1	77.82
367.311	98.3
367.522	26.62
367.733	49.15
367.944	18.43
368.155	24.58
368.366	116.73
368.577	83.97
368.788	26.62
368.999	55.3
369.209	26.62
369.42	131.07
369.631	174.08
369.842	129.02
370.053	-38.91
370.264	90.11
370.474	59.39
370.685	106.49
370.896	2.05
371.107	92.16
371.317	59.39
371.528	141.31
371.739	18.43
371.95	67.58
372.16	51.2
372.371	-30.72
372.582	102.4
372.792	92.16
373.003	-30.72
373.214	59.39
373.424	63.49
373.635	28.67
373.846	174.08
374.056	55.3
374.267	26.62
374.477	24.58
374.688	-20.48
374.898	108.54
375.109	6.14
375.319	57.34
375.53	69.63
375.74	32.77
375.951	10.24
376.161	36.86
376.372	108.54
376.582	43.01
376.793	53.25
377.003	-14.34
377.214	55.3
377.424	67.58
377.635	102.4
377.845	51.2
378.055	141.31
378.266	8.19
378.476	67.58
378.686	88.06
378.897	86.01
379.107	22.53
379.317	10.24
379.528	-6.14
379.738	83.97
379.948	4.1
380.158	67.58
380.369	36.86
380.579	69.63
380.789	63.49
380.999	67.58
381.21	137.21
381.42	71.68
381.63	57.34
381.84	88.06
382.05	100.35
382.261	124.93
382.471	141.31
382.681	124.93
382.891	67.58
383.101	67.58
383.311	30.72
383.521	-4.1
383.731	43.01
383.941	79.87
384.151	77.82
384.361	69.63
384.571	32.77
384.781	88.06
384.991	133.12
385.201	126.97
385.411	36.86
385.621	69.63
385.831	126.97
386.041	94.21
386.251	71.68
386.461	118.78
386.671	59.39
386.881	34.82
387.091	75.77
387.301	55.3
387.511	51.2
387.72	47.1
387.93	104.45
388.14	73.73
388.35	55.3
388.56	92.16
388.769	108.54
388.979	137.21
389.189	69.63
389.399	116.73
389.609	137.21
389.818	110.59
390.028	34.82
390.238	34.82
390.447	36.86
390.657	-12.29
390.867	75.77
391.076	22.53
391.286	108.54
391.496	67.58
391.705	143.36
391.915	6.14
392.125	71.68
392.334	118.78
392.544	116.73
392.753	83.97
392.963	69.63
393.172	75.77
393.382	-12.29
393.591	141.31
393.801	71.68
394.01	149.5
394.22	51.2
394.429	8.19
394.639	61.44
394.848	141.31
395.058	86.01
395.267	59.39
395.477	188.41
395.686	61.44
395.895	141.31
396.105	137.21
396.314	61.44
396.524	69.63
396.733	88.06
396.942	100.35
397.152	110.59
397.361	122.88
397.57	122.88
397.78	83.97
397.989	86.01
398.198	182.27
398.407	100.35
398.617	94.21
398.826	53.25
399.035	178.17
399.244	104.45
399.453	120.83
399.663	108.54
399.872	153.6
400.081	88.06
400.29	167.93
400.499	100.35
400.708	116.73
400.917	161.79
401.127	100.35
401.336	116.73
401.545	174.08
401.754	77.82
401.963	215.04
402.172	71.68
402.381	141.31
402.59	129.02
402.799	79.87
403.008	63.49
403.217	186.37
403.426	83.97
403.635	55.3
403.844	61.44
404.053	157.69
404.262	104.45
404.471	235.52
404.68	145.41
404.888	202.75
405.097	149.5
405.306	157.69
405.515	176.13
405.724	217.08
405.933	227.32
406.142	215.04
406.35	188.41
406.559	172.03
406.768	192.51
406.977	251.9
407.185	223.23
407.394	174.08
407.603	249.85
407.812	237.56
408.02	235.52
408.229	303.1
408.438	323.58
408.646	176.13
408.855	333.82
409.064	251.9
409.272	305.15
409.481	378.87
409.69	301.05
409.898	325.63
410.107	346.11
410.315	321.53
410.524	370.68
410.733	417.79
410.941	405.5
411.15	487.42
411.358	419.83
411.567	421.88
411.775	403.45
411.984	378.87
412.192	444.41
412.401	567.29
412.609	550.9
412.818	614.39
413.026	450.55
413.234	585.72
413.443	571.38
413.651	579.58
413.86	632.82
414.068	667.64
414.276	749.56
414.485	673.78
414.693	796.66
414.901	886.77
415.11	745.46
415.318	784.37
415.526	831.48
415.734	817.14
415.943	886.77
416.151	952.31
416.359	1036.27
416.567	878.58
416.776	1056.75
416.984	1093.62
417.192	1140.72
417.4	1126.38
417.608	1169.39
417.817	1230.83
418.025	1284.08
418.233	1398.76
418.441	1271.79
418.649	1329.13
418.857	1495.02
419.065	1404.91
419.273	1546.22
419.481	1566.7
419.689	1607.66
419.897	1716.2
420.105	1697.77
420.313	1695.72
420.521	1822.69
420.729	1927.14
420.937	1902.56
421.145	2041.82
421.353	2156.51
421.561	2271.2
421.769	2197.47
421.977	2340.83
422.185	2328.54
422.393	2488.28
422.601	2572.25
422.809	2543.58
423.017	2576.34
423.224	2785.24
423.432	2738.13
423.64	2775
423.848	3114.96
424.056	2979.79
424.263	3299.28
424.471	3180.5
424.679	3393.48
424.887	3379.15
425.094	3667.91
425.302	3622.86
425.51	3651.53
425.718	3860.42
425.925	3794.89
426.133	4130.75
426.341	4241.34
426.548	4403.13
426.756	4335.55
426.964	4448.19
427.171	4657.08
427.379	4927.41
427.586	4976.56
427.794	5142.45
428.001	5281.71
428.209	5765.03
428.417	5529.52
428.624	5910.44
428.832	5765.03
429.039	5822.38
429.247	5793.7
429.454	6406.05
429.662	6799.26
429.869	6277.02
430.076	6948.76
430.284	6518.68
430.491	6956.95
430.699	7067.54
430.906	7290.77
431.114	7436.17
431.321	7698.31
431.528	7923.59
431.736	8150.92
431.943	8849.27
432.15	8421.25
432.358	8521.6
432.565	9076.6
432.772	9045.88
432.979	9217.91
433.187	9535.34
433.394	9494.38
433.601	10282.85
433.808	10303.33
434.016	10348.39
434.223	10579.81
434.43	11292.5
434.637	11116.37
434.844	11659.09
435.052	11878.22
435.259	11626.32
435.466	12072.78
435.673	11798.35
435.88	12644.16
436.087	13373.24
436.294	13158.2
436.501	12871.48
436.708	13285.17
436.915	13725.49
437.122	14206.76
437.329	14151.46
437.537	14808.86
437.743	14778.14
437.95	14782.24
438.157	15664.91
438.364	16185.1
438.571	15912.72
438.778	15965.96
438.985	17596.15
439.192	16832.26
439.399	17440.5
439.606	17096.44
439.813	18114.28
440.02	18953.95
440.227	18527.97
440.433	18302.7
440.64	19111.64
440.847	18837.22
441.054	19592.92
441.261	20659.91
441.467	20655.81
441.674	20993.73
441.881	21747.38
442.088	21284.54
442.294	21403.32
442.501	21741.24
442.708	22558.38
442.914	23320.22
443.121	24110.74
443.328	23432.86
443.534	25245.31
443.741	24495.75
443.948	23981.71
444.154	25958
444.361	25706.1
444.568	25652.86
444.774	25732.73
444.981	26152.56
445.187	26721.9
445.394	27887.19
445.6	27956.82
445.807	30293.55
446.013	28911.17
446.22	29390.4
446.426	30608.94
446.633	31084.07
446.839	32237.08
447.046	30510.64
447.252	32073.24
447.459	32398.87
447.665	32138.77
447.871	33758.72
448.078	35202.53
448.284	33472
448.491	34256.37
448.697	35927.52
448.903	36197.85
449.11	36273.62
449.316	35933.66
449.522	36507.09
449.728	37234.12
449.935	37664.19
450.141	37725.63
450.347	38469.04
450.553	37193.16
450.76	37692.86
450.966	38923.69
451.172	38374.84
451.378	39749.03
451.584	39210.41
451.791	39777.7
451.997	39490.98
452.203	40000.93
452.409	40367.51
452.615	40129.95
452.821	38227.38
453.027	38290.87
453.233	39886.24
453.44	38630.83
453.646	38976.94
453.852	39056.81
454.058	40015.26
454.264	38471.09
454.47	39261.61
454.676	38645.17
454.882	39923.1
455.088	36199.9
455.294	37021.13
455.5	37764.54
455.705	37518.79
455.911	35970.52
456.117	35618.27
456.323	35259.88
456.529	33201.67
456.735	35255.78
456.941	33711.61
457.147	33281.54
457.352	32194.07
457.558	32009.75
457.764	32054.81
457.97	31591.97
458.176	30783.02
458.381	30598.7
458.587	29169.22
458.793	29046.34
458.999	27586.14
459.204	29722.17
459.41	28630.6
459.616	26838.63
459.821	27002.47
460.027	26801.77
460.233	26558.06
460.438	25257.6
460.644	25120.38
460.85	23989.91
461.055	23412.38
461.261	23602.84
461.466	22077.1
461.672	21063.36
461.878	22699.69
462.083	21214.91
462.289	20817.6
462.494	20702.92
462.7	19590.87
462.905	19146.46
463.111	19797.71
463.316	19865.3
463.522	19156.7
463.727	19238.62
463.932	19314.39
464.138	18929.38
464.343	19232.47
464.549	18712.29
464.754	19177.18
464.959	19080.92
465.165	18577.12
465.37	17780.46
465.575	17690.35
465.781	18351.85
465.986	18446.05
466.191	17802.99
466.397	17106.68
466.602	16404.23
466.807	16920.32
467.012	17094.4
467.218	16971.52
467.423	16568.07
467.628	16905.98
467.833	17620.72
468.038	16846.59
468.244	16115.47
468.449	17078.01
468.654	16463.62
468.859	16140.04
469.064	16228.1
469.269	15636.24
469.474	15447.83
469.679	15908.62
469.885	15535.89
470.09	15537.94
470.295	15945.48
470.5	15243.03
470.705	15376.15
470.91	14907.16
471.115	14847.77
471.32	14960.41
471.525	14864.16
471.73	14524.19
471.935	14516
472.139	14100.26
472.344	14235.43
472.549	14032.68
472.754	13862.7
472.959	13578.03
473.164	13436.72
473.369	13018.94
473.574	14001.96
473.778	13379.38
473.983	13326.13
474.188	13461.3
474.393	12898.11
474.598	12920.63
474.802	12588.86
475.007	12228.42
475.212	12515.14
475.417	12085.06
475.621	12240.71
475.826	12191.56
476.031	11917.13
476.235	11462.48
476.44	11994.95
476.645	11775.82
476.849	11671.37
477.054	11505.49
477.259	11345.75
477.463	11536.21
477.668	10897.24
477.872	11087.7
478.077	11067.22
478.282	10725.21
478.486	10727.26
478.691	10536.8
478.895	10409.83
479.1	10336.1
479.304	10358.63
479.509	10114.92
479.713	10528.61
479.918	10141.54
480.122	10020.71
480.326	9983.85
480.531	10250.08
480.735	9971.56
480.94	9967.46
481.144	10061.67
481.348	9592.69
481.553	9975.66
481.757	9611.12
481.961	9832.3
482.166	9930.6
482.37	9854.83
482.574	9496.43
482.778	9365.36
482.983	9844.59
483.187	9680.75
483.391	9717.61
483.595	9602.93
483.8	9467.76
484.004	9527.15
484.208	9607.02
484.412	9621.36
484.616	9684.84
484.821	9695.08
485.025	9457.52
485.229	9594.73
485.433	9463.66
485.637	9561.97
485.841	9533.29
486.045	9486.19
486.249	9613.17
486.453	9635.69
486.657	9547.63
486.861	9523.05
487.065	9408.37
487.269	9506.67
487.473	9432.94
487.677	9695.08
487.881	9701.23
488.085	9447.28
488.289	9774.95
488.493	9537.39
488.697	9465.71
488.901	9545.58
489.105	9498.48
489.309	9533.29
489.512	9641.84
489.716	9717.61
489.92	9676.65
490.124	9695.08
490.328	9828.2
490.531	9660.27
490.735	9824.11
490.939	9650.03
491.143	9582.45
491.346	9670.51
491.55	9944.94
491.754	9875.31
491.958	9680.75
492.161	9742.19
492.365	9924.46
492.569	9766.76
492.772	9787.24
492.976	9924.46
493.18	9979.75
493.383	10092.39
493.587	10022.76
493.79	10305.38
493.994	9885.55
494.197	10061.67
494.401	10202.98
494.605	10383.2
494.808	10381.15
495.012	10475.36
495.215	10405.73
495.419	10635.1
495.622	10516.32
495.825	10870.62
496.029	10635.1
496.232	10905.43
496.436	10868.57
496.639	11245.4
496.843	11171.67
497.046	11323.22
497.249	11306.84
497.453	11282.26
497.656	11442
497.859	11411.28
498.063	11847.5
498.266	11884.36
498.469	11931.47
498.673	11806.54
498.876	11966.28
499.079	12298.05
499.282	12042.06
499.485	12547.9
499.689	12461.89
499.892	12621.63
500.095	12468.03
500.298	13020.99
500.501	13018.94
500.705	13276.98
500.908	13575.98
501.111	13455.15
501.314	13670.19
501.517	13711.15
501.72	13971.24
501.923	13784.88
502.126	14014.25
502.329	14593.83
502.532	14315.3
502.735	14317.35
502.938	14874.4
503.141	14763.81
503.344	15027.99
503.547	15052.57
503.75	15255.32
503.953	15271.7
504.156	15296.28
504.359	15703.82
504.562	15351.57
504.765	15677.2
504.968	16054.03
505.17	16217.86
505.373	16164.62
505.576	16736
505.779	17047.29
505.982	16787.2
506.185	17094.4
506.387	17291
506.59	17487.61
506.793	17678.07
506.996	17573.62
507.198	17944.3
507.401	18177.77
507.604	18210.54
507.807	18507.49
508.009	18700
508.212	18837.22
508.415	18890.46
508.617	19189.47
508.82	19189.47
509.022	19238.62
509.225	19766.99
509.428	20080.33
509.63	20156.11
509.833	20043.47
510.035	20704.96
510.238	20426.44
510.44	21071.55
510.643	21171.9
510.845	21456.57
511.048	21300.92
511.25	21472.95
511.453	21550.78
511.655	22183.6
511.858	21810.87
512.06	22083.25
512.262	22398.63
512.465	22363.82
512.667	22783.65
512.87	23230.11
513.072	23281.31
513.274	23809.68
513.477	23946.9
513.679	23942.8
513.881	24243.85
514.084	24903.3
514.286	24680.07
514.488	24512.14
514.69	25224.83
514.893	25411.2
515.095	25484.92
515.297	25804.41
515.499	25736.82
515.701	26136.18
515.904	26539.63
516.106	26576.49
516.308	26654.31
516.51	27405.92
516.712	27207.26
516.914	27915.86
517.116	27823.7
517.318	27670.11
517.52	27606.62
517.722	28251.73
517.925	28425.81
518.127	28925.51
518.329	28958.28
518.531	28778.06
518.733	29328.96
518.935	29720.12
519.136	29759.03
519.338	29967.93
519.54	30211.63
519.742	30395.95
519.944	30279.22
520.146	30694.96
520.348	31213.09
520.55	30750.25
520.752	31256.1
520.954	31497.76
521.155	31397.41
521.357	32255.51
521.559	32200.21
521.761	32521.74
521.963	32364.05
522.164	32611.85
522.366	32388.63
522.568	32661.01
522.77	33146.37
522.971	33388.03
523.173	33279.49
523.375	33676.8
523.576	33549.82
523.778	33728
523.98	34088.44
524.181	33879.55
524.383	34223.61
524.584	34049.53
524.786	34049.53
524.988	34051.58
525.189	34575.86
525.391	34758.13
525.592	34840.04
525.794	34717.17
525.995	34672.11
526.197	34682.35
526.398	34952.68
526.6	34835.95
526.801	35022.31
527.003	35089.9
527.204	35155.43
527.406	35106.28
527.607	35626.46
527.808	35495.39
528.01	34895.34
528.211	35089.9
528.412	35821.02
528.614	35626.46
528.815	35147.24
529.016	35313.13
529.218	35597.79
529.419	35837.41
529.62	35247.59
529.822	35544.55
530.023	35528.16
530.224	35554.79
530.425	35192.29
530.626	35352.04
530.828	35202.53
531.029	35646.94
531.23	35368.42
531.431	35436
531.632	35298.79
531.833	35788.25
532.035	35296.74
532.236	35169.77
532.437	35423.72
532.638	34854.38
532.839	35319.27
533.04	35243.49
533.241	34471.41
533.442	35233.25
533.643	35102.18
533.844	34924.01
534.045	34928.11
534.246	34747.89
534.447	34829.8
534.648	34889.2
534.849	34975.21
535.05	34653.68
535.251	34735.6
535.451	34471.41
535.652	34287.09
535.853	34104.82
536.054	34860.52
536.255	34438.64
536.456	34209.27
536.657	34815.47
536.857	34366.96
537.058	34278.9
537.259	34543.09
537.46	34319.86
537.66	34201.08
537.861	34070.01
538.062	34096.63
538.263	34102.78
538.463	33879.55
538.664	34006.52
538.865	34094.58
539.065	34131.45
539.266	34004.47
539.466	33861.12
539.667	33220.1
539.868	34098.68
540.068	33777.15
540.269	33379.84
540.469	34147.83
540.67	33586.69
540.87	33594.88
541.071	33482.24
541.271	33705.47
541.472	33719.81
541.672	33390.08
541.873	33050.12
542.073	33000.97
542.274	33500.67
542.474	33322.5
542.675	33041.93
542.875	33605.12
543.075	33580.54
543.276	33060.36
543.476	33652.22
543.676	33238.53
543.877	33181.19
544.077	33179.14
544.277	33164.81
544.478	33238.53
544.678	33701.37
544.878	33318.4
545.078	33256.96
545.279	32644.62
545.479	33392.13
545.679	33392.13
545.879	33201.67
546.079	33154.57
546.28	33261.06
546.48	32724.49
546.68	33605.12
546.88	33033.74
547.08	33027.59
547.28	33062.41
547.48	32951.82
547.68	33289.73
547.88	33129.99
548.081	33351.17
548.281	32984.58
548.481	32970.25
548.681	33195.53
548.881	33295.88
549.081	33156.61
549.28	32816.65
549.48	33261.06
549.68	33035.78
549.88	33596.93
550.08	32951.82
550.28	33207.81
550.48	33117.7
550.68	33443.33
550.88	32863.75
551.08	33111.56
551.279	33310.21
551.479	32802.32
551.679	33263.11
551.879	33259.01
552.079	33795.58
552.278	33256.96
552.478	33650.17
552.678	33506.82
552.878	33652.22
553.077	33541.63
553.277	33193.48
553.477	33535.49
553.676	33486.34
553.876	33662.46
554.076	33584.64
554.275	33564.16
554.475	33140.23
554.674	33816.06
554.874	33543.68
555.074	33611.26
555.273	33670.65
555.473	33877.5
555.672	33295.88
555.872	33865.21
556.071	33289.73
556.271	33828.35
556.47	33578.5
556.67	33652.22
556.869	33840.64
557.068	33820.16
557.268	33879.55
557.467	33617.41
557.667	33912.31
557.866	33836.54
558.065	33658.37
558.265	33687.04
558.464	33396.23
558.663	34188.79
558.863	33994.23
559.062	33603.07
559.261	33678.85
559.461	33914.36
559.66	33807.87
559.859	33670.65
560.058	33732.09
560.258	33773.05
560.457	33920.51
560.656	34012.66
560.855	33762.81
561.054	33957.37
561.253	33934.84
561.453	33777.15
561.652	33904.12
561.851	33701.37
562.05	33613.31
562.249	33881.59
562.448	33873.4
562.647	33830.4
562.846	33678.85
563.045	33805.82
563.244	33613.31
563.443	34153.97
563.642	33267.2
563.841	33543.68
564.04	33306.12
564.239	33832.44
564.438	33422.85
564.637	33527.3
564.836	33472
565.035	33285.64
565.234	33271.3
565.432	33097.22
565.631	33164.81
565.83	33494.53
566.029	33269.25
566.228	32986.63
566.427	33351.17
566.625	32867.85
566.824	32751.12
567.023	33351.17
567.222	32706.06
567.42	32980.49
567.619	32826.89
567.818	32849.42
568.016	32638.48
568.215	33029.64
568.414	32693.77
568.612	33009.16
568.811	32450.06
569.01	32581.13
569.208	32171.54
569.407	32814.6
569.605	32509.46
569.804	32589.33
570.002	31809.05
570.201	32491.02
570.4	32271.89
570.598	31645.21
570.797	32138.77
570.995	32304.66
571.193	31311.39
571.392	32130.58
571.59	31573.53
571.789	31583.77
571.987	31555.1
572.186	31456.8
572.384	31039.01
572.582	31288.87
572.781	31503.9
572.979	31104.55
573.177	31036.97
573.376	31178.28
573.574	30844.46
573.772	31016.49
573.971	30758.44
574.169	30506.54
574.367	30508.59
574.565	30641.71
574.763	30496.3
574.962	29939.26
575.16	30283.31
575.358	29898.3
575.556	29668.92
575.754	30238.26
575.952	29531.71
576.151	29937.21
576.349	29556.28
576.547	29716.03
576.745	29433.41
576.943	29683.26
577.141	29593.15
577.339	29290.05
577.537	29353.54
577.735	29234.75
577.933	28898.89
578.131	29204.03
578.329	28669.51
578.527	28892.74
578.725	28882.5
578.923	28939.85
579.121	28517.96
579.319	28536.4
579.516	28845.64
579.714	28720.71
579.912	28069.46
580.11	28159.57
580.308	28479.05
580.506	27962.97
580.704	27532.89
580.901	28186.19
581.099	27942.49
581.297	27641.43
581.495	27612.76
581.692	27760.22
581.89	27678.3
582.088	27692.63
582.285	27364.96
582.483	27803.22
582.681	27209.31
582.878	27305.57
583.076	27133.54
583.274	27211.36
583.471	26766.95
583.669	26861.16
583.866	26678.89
584.064	26850.92
584.262	26644.07
584.459	26846.82
584.657	26046.07
584.854	26652.27
585.052	26205.81
585.249	26388.08
585.447	26566.25
585.644	26001.01
585.841	26357.36
586.039	26490.48
586.236	25826.93
586.434	25886.33
586.631	25640.57
586.828	25945.72
587.026	25945.72
587.223	25712.25
587.42	25925.24
587.618	25732.73
587.815	25624.19
588.012	25372.28
588.21	25202.3
588.407	25802.36
588.604	25441.92
588.801	25650.81
588.999	25351.81
589.196	25372.28
589.393	25005.7
589.59	25296.51
589.787	25259.65
589.984	25038.47
590.182	25087.62
590.379	24966.79
590.576	24712.84
590.773	25052.8
590.97	24831.62
591.167	24909.44
591.364	24635.02
591.561	25165.44
591.758	24460.94
591.955	24569.48
592.152	24692.36
592.349	24630.92
592.546	24342.16
592.743	24635.02
592.94	24264.33
593.137	24432.27
593.334	24585.86
593.531	23758.49
593.727	24374.92
593.924	24413.84
594.121	23934.61
594.318	24245.9
594.515	23729.81
594.712	24297.1
594.908	24252.05
595.105	24385.16
595.302	23828.12
595.499	24176.27
595.696	24194.7
595.892	23998.1
596.089	24176.27
596.286	24231.57
596.482	23926.42
596.679	23981.71
596.876	23967.38
597.072	23533.21
597.269	24133.26
597.466	23590.55
597.662	23752.34
597.859	23838.36
598.055	24092.3
598.252	23643.8
598.448	23795.35
598.645	23883.41
598.841	23596.7
599.038	23838.36
599.234	23860.88
599.431	23723.67
599.627	23754.39
599.824	24127.12
600.02	23729.81
600.217	24016.53
600.413	23813.78
600.609	24018.58
600.806	23807.64
601.002	24061.58
601.198	23781.01
601.395	23807.64
601.591	23615.13
601.787	23856.79
601.984	23748.25
602.18	24252.05
602.376	24067.73
602.572	23809.68
602.769	23971.47
602.965	23893.65
603.161	24137.36
603.357	23948.95
603.553	23944.85
603.75	24014.48
603.946	23856.79
604.142	24436.36
604.338	23934.61
604.534	24026.77
604.73	23828.12
604.926	24024.72
605.122	24352.4
605.318	23994
605.514	24151.7
605.71	24153.74
605.906	23965.33
606.102	24338.06
606.298	24434.32
606.494	24247.95
606.69	24391.31
606.886	24313.49
607.082	24268.43
607.278	24540.81
607.474	24032.91
607.67	24471.18
607.866	23981.71
608.062	24497.8
608.257	24198.8
608.453	24592.01
608.649	24446.6
608.845	24612.49
609.041	24432.27
609.236	24352.4
609.432	24387.21
609.628	24706.69
609.824	24841.86
610.019	24534.67
610.215	24802.95
610.411	24987.27
610.606	24770.18
610.802	24860.29
610.998	25058.95
611.193	24886.92
611.389	25099.9
611.584	24848
611.78	24651.4
611.976	24825.48
612.171	24778.37
612.367	25167.49
612.562	25003.65
612.758	24790.66
612.953	24733.32
613.149	25181.82
613.344	25165.44
613.539	25257.6
613.735	24944.26
613.93	25220.74
614.126	25056.9
614.321	25235.07
614.517	25337.47
614.712	25171.58
614.907	25038.47
615.103	25325.18
615.298	24802.95
615.493	25405.05
615.688	24780.42
615.884	25247.36
616.079	25300.61
616.274	25454.2
616.47	25415.29
616.665	25314.94
616.86	25071.23
617.055	24968.83
617.25	25048.71
617.445	25405.05
617.641	24929.92
617.836	25353.85
618.031	24938.12
618.226	25185.92
618.421	25009.79
618.616	24917.64
618.811	24581.77
619.006	25157.25
619.201	24381.07
619.396	24952.45
619.591	24774.28
619.786	24657.54
619.981	24409.74
620.176	24821.38
620.371	24366.73
620.566	24417.93
620.761	24149.65
620.956	24473.23
621.151	23955.09
621.346	24307.34
621.541	23807.64
621.735	23922.32
621.93	23699.09
622.125	24012.43
622.32	23477.91
622.515	23654.04
622.709	23568.02
622.904	23096.99
623.099	23400.09
623.294	23271.07
623.488	22875.81
623.683	23185.05
623.878	22802.08
624.072	23066.27
624.267	22865.57
624.462	22785.7
624.656	22757.03
624.851	22361.77
625.046	22447.79
625.24	22218.41
625.435	22193.84
625.629	22120.11
625.824	21984.94
626.018	22099.63
626.213	21339.83
626.407	21731
626.602	21655.22
626.796	21599.93
626.991	21771.96
627.185	21589.69
627.38	21155.52
627.574	20969.15
627.768	21114.56
627.963	20872.9
628.157	20510.41
628.352	20862.66
628.546	20469.45
628.74	20426.44
628.935	20537.03
629.129	20543.17
629.323	20221.64
629.517	20086.48
629.712	20031.18
629.906	20231.88
630.1	19644.12
630.294	19836.63
630.489	19898.06
630.683	19883.73
630.877	19271.39
631.071	19478.23
631.265	19498.71
631.459	19381.98
631.653	19132.12
631.848	19209.95
632.042	18931.42
632.236	18884.32
632.43	18589.41
632.624	18509.54
632.818	18622.18
633.012	18476.77
633.206	18212.59
633.4	18263.79
633.594	18058.99
633.788	18368.23
633.982	18484.97
634.176	17999.6
634.369	17923.82
634.563	17735.41
634.757	17458.93
634.951	17653.49
635.145	17633.01
635.339	17702.64
635.533	17520.37
635.726	17422.07
635.92	16713.47
636.114	17213.18
636.308	16963.33
636.501	17135.35
636.695	16836.35
636.889	16715.52
637.083	16740.1
637.276	16484.1
637.47	16445.19
637.664	16543.49
637.857	16412.42
638.051	16307.98
638.244	16213.77
638.438	15914.77
638.632	15914.77
638.825	15767.31
639.019	15806.22
639.212	15503.12
639.406	15640.34
639.599	15820.56
639.793	15664.91
639.986	15335.19
640.18	15517.46
640.373	15472.4
640.567	15165.21
640.76	15060.76
640.954	14733.09
641.147	14792.48
641.34	14798.62
641.534	15054.62
641.727	14712.61
641.92	14606.11
642.114	14389.03
642.307	14321.45
642.5	14139.18
642.694	14212.9
642.887	14253.86
643.08	14231.33
643.273	14067.5
643.467	14008.11
643.66	13618.99
643.853	13764.4
644.046	13575.98
644.239	13414.2
644.432	13434.67
644.626	13403.96
644.819	13446.96
645.012	13309.75
645.205	13131.58
645.398	13170.49
645.591	12922.68
645.784	12752.7
645.977	12998.46
646.17	12910.4
646.363	12676.93
646.556	12568.38
646.749	12508.99
646.942	12627.78
647.135	12443.46
647.328	12310.34
647.521	12316.48
647.714	12171.08
647.907	12214.09
648.099	12119.88
648.292	12056.39
648.485	11833.16
648.678	11677.52
648.871	11804.49
649.064	11798.35
649.256	11863.88
649.449	11661.13
649.642	11421.52
649.835	11525.97
650.027	11366.23
650.22	11222.87
650.413	11282.26
650.605	11151.19
650.798	11171.67
650.991	11061.08
651.183	11046.74
651.376	11001.69
651.568	10899.29
651.761	10770.27
651.954	10686.3
652.146	10817.37
652.339	10803.04
652.531	10538.85
652.724	10633.05
652.916	10364.77
653.109	10348.39
653.301	10483.55
653.494	10438.5
653.686	10092.39
653.879	10340.19
654.071	10159.97
654.263	9983.85
654.456	10192.74
654.648	10231.65
654.84	9863.02
655.033	9908.07
655.225	9840.49
655.417	9643.88
655.61	9703.28
655.802	9817.96
655.994	9588.59
656.186	9729.9
656.379	9449.33
656.571	9359.22
656.763	9252.72
656.955	9279.35
657.148	9402.22
657.34	9260.91
657.532	9181.04
657.724	9086.84
657.916	9031.54
658.108	9211.76
658.3	9170.8
658.492	9101.17
658.684	9021.3
658.876	8853.37
659.068	8947.58
659.26	8851.32
659.452	8824.7
659.644	8632.19
659.836	8638.33
660.028	8617.85
660.22	8294.27
660.412	8462.21
660.604	8310.66
660.796	8451.97
660.988	8396.67
661.18	8222.59
661.372	8329.09
661.563	8198.02
661.755	8195.97
661.947	8165.25
662.139	8103.81
662.331	8009.61
662.522	7966.6
662.714	8003.46
662.906	7821.19
663.097	7708.55
663.289	7702.41
663.481	7751.56
663.673	7806.86
663.864	7571.34
664.056	7561.1
664.247	7698.31
664.439	7309.2
664.631	7581.58
664.822	7468.94
665.014	7397.26
665.205	7301.01
665.397	7374.74
665.588	7251.86
665.78	7272.34
665.971	7253.91
666.163	7079.83
666.354	7178.13
666.546	6936.47
666.737	6993.81
666.929	6856.6
667.12	7022.48
667.311	6932.37
667.503	7051.16
667.694	6915.99
667.885	6891.41
668.077	6819.74
668.268	6657.95
668.459	6690.71
668.651	6680.47
668.842	6719.39
669.033	6612.89
669.224	6616.99
669.416	6653.85
669.607	6526.88
669.798	6490.01
669.989	6508.44
670.18	6496.16
670.371	6391.71
670.563	6377.37
670.754	6367.13
670.945	6315.94
671.136	6320.03
671.327	6404
671.518	6227.87
671.709	6236.06
671.9	6322.08
672.091	6408.09
672.282	6274.98
672.473	6031.27
672.664	6074.28
672.855	5904.29
673.046	6000.55
673.237	6049.7
673.428	6176.67
673.619	5930.92
673.809	5900.2
674	6053.8
674.191	5842.85
674.382	6000.55
674.573	5920.68
674.764	5844.9
674.954	6029.22
675.145	5859.24
675.336	5863.33
675.527	5779.37
675.717	5719.98
675.908	5762.98
676.099	5674.92
676.289	5701.55
676.48	5762.98
676.671	5746.6
676.861	5769.13
677.052	5443.5
677.243	5539.76
677.433	5736.36
677.624	5730.22
677.814	5523.37
678.005	5539.76
678.195	5672.87
678.386	5509.04
678.576	5398.45
678.767	5435.31
678.957	5556.14
679.148	5578.67
679.338	5531.56
679.529	5525.42
679.719	5433.26
679.909	5552.04
680.1	5414.83
680.29	5447.6
680.481	5447.6
680.671	5482.41
680.861	5412.78
681.052	5384.11
681.242	5410.73
681.432	5228.46
681.622	5113.78
681.813	5318.57
682.003	5195.7
682.193	5287.86
682.383	5279.66
682.573	5285.81
682.764	5330.86
682.954	5265.33
683.144	5318.57
683.334	5099.44
683.524	5212.08
683.714	5162.93
683.904	5179.31
684.094	5144.5
684.284	5277.62
684.474	5377.97
684.664	5203.89
684.854	5138.35
685.044	5228.46
685.234	5121.97
685.424	5058.48
685.614	5068.72
685.804	5099.44
685.994	5040.05
686.184	5134.26
686.374	5187.5
686.564	5040.05
686.753	5042.1
686.943	4888.5
687.133	5015.48
687.323	5015.48
687.513	5015.48
687.702	4929.46
687.892	5031.86
688.082	4857.78
688.272	4868.02
688.461	5001.14
688.651	4882.36
688.841	4863.93
689.03	4888.5
689.22	4786.1
689.41	4794.29
689.599	4902.84
689.789	4741.05
689.979	4700.09
690.168	4798.39
690.358	4683.7
690.547	4642.75
690.737	4671.42
690.926	4704.18
691.116	4671.42
691.305	4741.05
691.495	4736.95
691.684	4728.76
691.874	4747.19
692.063	4616.12
692.252	4624.31
692.442	4659.13
692.631	4573.11
692.82	4591.55
693.01	4593.59
693.199	4403.13
693.388	4470.72
693.578	4495.29
693.767	4470.72
693.956	4544.44
694.146	4495.29
694.335	4429.76
694.524	4370.37
694.713	4515.77
694.902	4327.36
695.092	4423.61
695.281	4501.44
695.47	4468.67
695.659	4364.22
695.848	4270.01
696.037	4208.58
696.226	4339.65
696.415	4419.52
696.604	4292.54
696.793	4306.88
696.982	4468.67
697.171	4296.64
697.36	4169.66
697.549	4222.91
697.738	4216.77
697.927	4052.93
698.116	4351.93
698.305	4202.43
698.494	4249.54
698.683	4313.02
698.872	4081.6
699.061	4290.49
699.25	4204.48
699.438	4243.39
699.627	4208.58
699.816	4265.92
700.005	4069.31
700.193	4102.08
700.382	4204.48
700.571	4171.71
700.76	4198.34
700.948	4159.42
701.137	4145.09
701.326	4163.52
701.514	3962.82
701.703	4093.89
701.892	4032.45
702.08	3954.63
702.269	3897.28
702.457	3885
702.646	4085.7
702.834	3921.86
703.023	3899.33
703.212	3958.72
703.4	3844.04
703.589	3909.57
703.777	3966.92
703.965	3835.85
704.154	3764.17
704.342	3956.68
704.531	3762.12
704.719	3885
704.907	3878.85
705.096	3682.25
705.284	3792.84
705.472	3803.08
705.661	3735.49
705.849	3796.93
706.037	3852.23
706.226	3762.12
706.414	3624.9
706.602	3657.67
706.79	3827.65
706.979	3729.35
707.167	3674.06
707.355	3616.71
707.543	3624.9
707.731	3663.82
707.919	3796.93
708.107	3688.39
708.296	3674.06
708.484	3420.11
708.672	3622.86
708.86	3641.29
709.048	3536.84
709.236	3614.66
709.424	3553.23
709.612	3512.27
709.8	3442.64
709.988	3518.41
710.176	3622.86
710.364	3565.51
710.551	3475.4
710.739	3485.64
710.927	3469.26
711.115	3469.26
711.303	3436.49
711.491	3420.11
711.679	3512.27
711.866	3499.98
712.054	3567.56
712.242	3354.57
712.43	3526.6
712.617	3385.29
712.805	3454.92
712.993	3368.91
713.181	3250.13
713.368	3282.89
713.556	3418.06
713.744	3248.08
713.931	3489.74
714.119	3311.57
714.306	3286.99
714.494	3330
714.682	3231.69
714.869	3069.91
715.057	3254.22
715.244	3303.37
715.432	3231.69
715.619	3246.03
715.807	3250.13
715.994	3215.31
716.182	3110.86
716.369	3069.91
716.556	3168.21
716.744	3123.15
716.931	3117.01
717.119	3141.58
717.306	3188.69
717.493	3092.43
717.681	3149.78
717.868	3000.27
718.055	3114.96
718.242	3059.67
718.43	2922.45
718.617	3184.59
718.804	3155.92
718.991	2971.6
719.179	3074
719.366	3090.38
719.553	3139.54
719.74	3049.43
719.927	3028.95
720.114	2936.79
720.301	2983.89
720.488	2828.24
720.676	2920.4
720.863	2918.36
721.05	2875.35
721.237	2987.99
721.424	2942.93
721.611	2910.16
721.798	2791.38
721.985	2885.59
722.172	2854.87
722.358	2830.29
722.545	2721.75
722.732	2818.01
722.919	2889.68
723.106	2897.88
723.293	2758.61
723.48	2791.38
723.667	2770.9
723.853	2770.9
724.04	2768.85
724.227	2826.2
724.414	2807.77
724.6	2676.7
724.787	2813.91
724.974	2793.43
725.161	2813.91
725.347	2625.5
725.534	2713.56
725.72	2766.81
725.907	2734.04
726.094	2828.24
726.28	2697.17
726.467	2731.99
726.653	2645.98
726.84	2746.33
727.027	2811.86
727.213	2619.35
727.4	2639.83
727.586	2707.41
727.773	2660.31
727.959	2590.68
728.145	2609.11
728.332	2656.22
728.518	2654.17
728.705	2557.91
728.891	2574.3
729.077	2553.82
729.264	2541.53
729.45	2607.06
729.636	2609.11
729.823	2582.49
730.009	2594.78
730.195	2394.08
730.382	2549.72
730.568	2486.23
730.754	2500.57
730.94	2428.89
731.126	2572.25
731.313	2535.39
731.499	2512.86
731.685	2467.8
731.871	2469.85
732.057	2510.81
732.243	2557.91
732.429	2475.99
732.615	2475.99
732.801	2510.81
732.987	2402.27
733.173	2404.32
733.359	2367.45
733.545	2445.27
733.731	2387.93
733.917	2498.52
734.103	2447.32
734.289	2488.28
734.475	2369.5
734.661	2377.69
734.847	2353.12
735.033	2332.64
735.219	2385.88
735.404	2392.03
735.59	2342.88
735.776	2265.05
735.962	2371.55
736.148	2387.93
736.333	2363.36
736.519	2265.05
736.705	2355.16
736.89	2283.49
737.076	2351.07
737.262	2254.81
737.447	2318.3
737.633	2162.65
737.819	2320.35
738.004	2256.86
738.19	2297.82
738.375	2174.94
738.561	2361.31
738.747	2279.39
738.932	2213.85
739.118	2230.24
739.303	2205.66
739.489	2199.52
739.674	2127.84
739.859	2074.59
740.045	2062.3
740.23	2189.28
740.416	2133.98
740.601	2246.62
740.786	2131.94
740.972	2164.7
741.157	2199.52
741.342	2027.49
741.528	2021.35
741.713	2133.98
741.898	1994.72
742.084	2166.75
742.269	2131.94
742.454	2193.37
742.639	2146.27
742.824	2027.49
743.01	2031.59
743.195	2176.99
743.38	1920.99
743.565	1988.58
743.75	2000.87
743.935	2031.59
744.12	2093.02
744.305	1931.23
744.49	1982.43
744.675	1873.89
744.86	1998.82
745.045	1914.85
745.23	1959.91
745.415	1890.28
745.6	1976.29
745.785	1929.19
745.97	1732.58
746.155	1910.75
746.34	1791.97
746.525	1959.91
746.71	1949.67
746.895	1775.59
747.079	1847.27
747.264	1845.22
747.449	1877.99
747.634	1798.12
747.819	1724.39
748.003	1779.68
748.188	1738.73
748.373	1789.92
748.557	1665
748.742	1716.2
748.927	1611.75
749.111	1773.54
749.296	1617.9
749.481	1699.81
749.665	1697.77
749.85	1611.75
750.034	1558.5
750.219	1673.19
750.404	1656.81
750.588	1585.13
750.773	1589.22
750.957	1560.55
751.141	1574.89
751.326	1513.45
751.51	1566.7
751.695	1593.32
751.879	1578.98
752.064	1615.85
752.248	1583.08
752.432	1607.66
752.617	1525.74
752.801	1538.02
752.985	1503.21
753.17	1488.87
753.354	1505.26
753.538	1521.64
753.722	1394.67
753.907	1333.23
754.091	1355.76
754.275	1345.52
754.459	1337.32
754.643	1333.23
754.828	1380.33
755.012	1402.86
755.196	1331.18
755.38	1413.1
755.564	1255.4
755.748	1312.75
755.932	1282.03
756.116	1339.37
756.3	1370.09
756.484	1243.12
756.668	1320.94
756.852	1208.3
757.036	1343.47
757.22	1232.88
757.404	1120.24
757.588	1314.8
757.772	1247.21
757.956	1271.79
758.14	1333.23
758.323	1157.1
758.507	1144.81
758.691	1105.9
758.875	1249.26
759.059	1173.49
759.242	1185.77
759.426	1212.4
759.61	1095.66
759.794	1157.1
759.977	1159.15
760.161	1288.17
760.345	1153.01
760.528	1110
760.712	1120.24
760.895	1165.29
761.079	1046.51
761.263	1069.04
761.446	1089.52
761.63	993.26
761.813	1130.48
761.997	993.26
762.18	1140.72
762.364	1079.28
762.547	933.87
762.731	976.88
762.914	1134.57
763.098	1093.62
763.281	927.73
763.464	1021.94
763.648	1013.74
763.831	1007.6
764.015	1003.5
764.198	1066.99
764.381	987.12
764.564	968.69
764.748	940.02
764.931	921.59
765.114	993.26
765.297	1015.79
765.481	925.68
765.664	888.82
765.847	946.16
766.03	1001.46
766.213	944.11
766.397	899.06
766.58	866.29
766.763	987.12
766.946	1009.65
767.129	878.58
767.312	911.35
767.495	935.92
767.678	821.24
767.861	944.11
768.044	964.59
768.227	921.59
768.41	919.54
768.593	829.43
768.776	903.15
768.959	956.4
769.142	976.88
769.324	817.14
769.507	948.21
769.69	874.48
769.873	831.48
770.056	911.35
770.239	815.09
770.421	911.35
770.604	841.72
770.787	790.52
770.97	903.15
771.152	903.15
771.335	884.72
771.518	776.18
771.7	831.48
771.883	784.37
772.066	722.93
772.248	858.1
772.431	755.7
772.613	821.24
772.796	815.09
772.978	880.63
773.161	870.39
773.343	821.24
773.526	767.99
773.708	821.24
773.891	634.87
774.073	681.97
774.256	790.52
774.438	901.11
774.621	788.47
774.803	899.06
774.985	665.59
775.168	743.41
775.35	782.32
775.532	782.32
775.715	690.17
775.897	792.56
776.079	739.32
776.261	665.59
776.444	673.78
776.626	765.94
776.808	763.89
776.99	622.58
777.173	628.73
777.355	722.93
777.537	626.68
777.719	657.4
777.901	743.41
778.083	684.02
778.265	591.86
778.447	757.75
778.629	598.01
778.811	618.49
778.993	593.91
779.175	591.86
779.357	591.86
779.539	665.59
779.721	628.73
779.903	681.97
780.085	575.48
780.267	583.67
780.449	546.81
780.631	608.25
780.812	575.48
780.994	587.77
781.176	579.58
781.358	614.39
781.54	522.23
781.721	550.9
781.903	526.33
782.085	651.25
782.267	546.81
782.448	485.37
782.63	565.24
782.812	585.72
782.993	542.71
783.175	522.23
783.357	511.99
783.538	561.14
783.72	489.46
783.901	505.85
784.083	565.24
784.264	509.94
784.446	395.26
784.627	471.03
784.809	497.66
784.99	526.33
785.172	528.38
785.353	395.26
785.535	450.55
785.716	446.46
785.897	434.17
786.079	528.38
786.26	479.22
786.441	485.37
786.623	405.5
786.804	518.14
786.985	448.51
787.167	460.79
787.348	378.87
787.529	448.51
787.71	511.99
787.891	432.12
788.073	454.65
788.254	425.98
788.435	452.6
788.616	419.83
788.797	452.6
788.978	354.3
789.159	333.82
789.34	460.79
789.522	374.78
789.703	315.39
789.884	403.45
790.065	417.79
790.246	331.77
790.427	444.41
790.607	366.59
790.788	413.69
790.969	317.44
791.15	385.02
791.331	342.01
791.512	331.77
791.693	337.91
791.874	374.78
792.054	356.35
792.235	405.5
792.416	325.63
792.597	395.26
792.778	321.53
792.958	366.59
793.139	301.05
793.32	288.76
793.5	301.05
793.681	249.85
793.862	282.62
794.042	313.34
794.223	274.43
794.404	313.34
794.584	204.8
794.765	301.05
794.945	313.34
795.126	305.15
795.306	243.71
795.487	286.72
795.667	249.85
795.848	239.61
796.028	219.13
796.209	358.39
796.389	323.58
796.57	319.48
796.75	274.43
796.93	329.72
797.111	204.8
797.291	268.28
797.471	321.53
797.652	258.04
797.832	206.84
798.012	260.09
798.192	198.65
798.373	290.81
798.553	249.85
798.733	280.57
798.913	217.08
799.093	249.85
799.274	270.33
799.454	284.67
799.634	241.66
799.814	339.96
799.994	280.57
800.174	288.76
800.354	217.08
800.534	215.04
800.714	235.52
800.894	219.13
801.074	167.93
801.254	239.61
801.434	202.75
801.614	223.23
801.794	200.7
801.974	1009.65
802.154	174.08
802.334	274.43
802.514	190.46
802.693	174.08
802.873	233.47
803.053	239.61
803.233	288.76
803.413	192.51
803.592	215.04
803.772	225.28
803.952	223.23
804.131	172.03
804.311	272.38
804.491	239.61
804.67	186.37
804.85	245.76
805.03	256
805.209	157.69
805.389	135.17
805.568	231.42
805.748	186.37
805.928	256
806.107	229.37
806.287	247.8
806.466	208.89
806.646	206.84
806.825	223.23
807.004	135.17
807.184	174.08
807.363	239.61
807.543	133.12
807.722	137.21
807.901	256
808.081	210.94
808.26	110.59
808.439	202.75
808.619	153.6
808.798	86.01
808.977	217.08
809.156	192.51
809.336	190.46
809.515	174.08
809.694	172.03
809.873	178.17
810.052	165.89
810.231	266.24
810.411	145.41
810.59	280.57
810.769	88.06
810.948	124.93
811.127	61.44
811.306	227.32
811.485	182.27
811.664	208.89
811.843	165.89
812.022	112.64
812.201	231.42
812.38	210.94
812.559	174.08
812.737	190.46
812.916	67.58
813.095	69.63
813.274	190.46
813.453	102.4
813.632	151.55
813.811	190.46
813.989	120.83
814.168	143.36
814.347	167.93
814.526	145.41
814.704	155.65
814.883	161.79
815.062	135.17
815.24	176.13
815.419	155.65
815.598	217.08
815.776	120.83
815.955	145.41
816.133	18.43
816.312	165.89
816.49	133.12
816.669	126.97
816.847	114.69
817.026	192.51
817.204	131.07
817.383	153.6
817.561	116.73
817.74	129.02
817.918	192.51
818.097	151.55
818.275	137.21
818.453	174.08
818.632	145.41
818.81	126.97
818.988	83.97
819.167	100.35
819.345	118.78
819.523	131.07
819.701	77.82
819.879	141.31
820.058	122.88
820.236	141.31
820.414	143.36
820.592	110.59
820.77	67.58
820.948	118.78
821.127	59.39
821.305	114.69
821.483	83.97
821.661	90.11
821.839	126.97
822.017	65.54
822.195	108.54
822.373	139.26
822.551	71.68
822.729	141.31
822.907	137.21
823.085	176.13
823.262	51.2
823.44	45.06
823.618	47.1
823.796	151.55
823.974	100.35
824.152	151.55
824.329	51.2
824.507	143.36
824.685	83.97
824.863	180.22
825.04	116.73
825.218	167.93
825.396	79.87
825.574	20.48
825.751	108.54
825.929	178.17
826.107	147.45
826.284	83.97
826.462	86.01
826.639	61.44
826.817	43.01
826.994	79.87
827.172	30.72
827.349	120.83
827.527	120.83
827.704	30.72
827.882	102.4
828.059	112.64
828.237	71.68
828.414	124.93
828.591	-12.29
828.769	102.4
828.946	110.59
829.124	43.01
829.301	176.13
829.478	67.58
829.655	61.44
829.833	43.01
830.01	81.92
830.187	83.97
830.364	6.14
830.542	110.59
830.719	159.74
830.896	112.64
831.073	75.77
831.25	63.49
831.427	112.64
831.604	116.73
831.782	28.67
831.959	165.89
832.136	165.89
832.313	55.3
832.49	45.06
832.667	75.77
832.844	10.24
833.021	100.35
833.198	75.77
833.374	120.83
833.551	110.59
833.728	63.49
833.905	-12.29
834.082	16.38
834.259	30.72
834.436	94.21
834.612	34.82
834.789	55.3
834.966	110.59
835.143	137.21
835.319	45.06
835.496	77.82
835.673	100.35
835.85	100.35
836.026	79.87
836.203	79.87
836.38	79.87
836.556	-30.72
836.733	6.14
836.909	155.65
837.086	75.77
837.262	77.82
837.439	75.77
837.616	108.54
837.792	16.38
837.968	-6.14
838.145	34.82
838.321	106.49
838.498	26.62
838.674	108.54
838.851	77.82
839.027	6.14
839.203	51.2
839.38	51.2
839.556	51.2
839.732	141.31
839.909	45.06
840.085	102.4
840.261	14.34
840.437	145.41
840.614	94.21
840.79	167.93
840.966	86.01
841.142	131.07
841.318	0
841.494	65.54
841.671	108.54
841.847	28.67
842.023	-6.14
842.199	61.44
842.375	43.01
842.551	-65.54
842.727	-20.48
842.903	116.73
843.079	43.01
843.255	151.55
843.431	59.39
843.607	26.62
843.783	-22.53
843.959	61.44
844.134	2.05
844.31	100.35
844.486	-55.3
844.662	65.54
844.838	14.34
845.013	67.58
845.189	106.49
845.365	79.87
845.541	43.01
845.716	32.77
845.892	28.67
846.068	18.43
846.244	-69.63
846.419	77.82
846.595	20.48
846.77	73.73
846.946	2.05
847.122	75.77
847.297	83.97
847.473	96.25
847.648	-6.14
847.824	20.48
847.999	6.14
848.175	26.62
848.35	47.1
848.526	133.12
848.701	30.72
848.876	-6.14
849.052	75.77
849.227	26.62
849.403	71.68
849.578	53.25
849.753	22.53
849.929	112.64
850.104	-59.39
850.279	26.62
850.454	75.77
850.63	126.97
850.805	14.34
850.98	75.77
851.155	98.3
851.33	45.06
851.505	-22.53
851.681	114.69
851.856	67.58
852.031	53.25
852.206	-55.3
852.381	100.35
852.556	57.34
852.731	63.49
852.906	110.59
853.081	12.29
853.256	65.54
853.431	102.4
853.606	6.14
853.781	20.48
853.956	26.62
854.131	10.24
854.305	26.62
854.48	-6.14
854.655	-12.29
854.83	22.53
855.005	81.92
855.18	61.44
855.354	96.25
855.529	36.86
855.704	28.67
855.879	34.82
856.053	18.43
856.228	59.39
856.403	-20.48
856.577	55.3
856.752	-20.48
856.926	10.24
857.101	30.72
857.276	28.67
857.45	8.19
857.625	45.06
857.799	4.1
857.974	20.48
858.148	30.72
858.323	43.01
858.497	6.14
858.672	10.24
858.846	45.06
859.02	28.67
859.195	2.05
859.369	-67.58
859.543	26.62
859.718	43.01
859.892	38.91
860.066	4.1
860.241	6.14
860.415	-18.43
860.589	77.82
860.763	61.44
860.938	51.2
861.112	4.1
861.286	28.67
861.46	61.44
861.634	20.48
861.808	53.25
861.982	18.43
862.157	75.77
862.331	34.82
862.505	-14.34
862.679	-34.82
862.853	28.67
863.027	-26.62
863.201	161.79
863.375	-22.53
863.549	92.16
863.722	16.38
863.896	-6.14
864.07	-20.48
864.244	4.1
864.418	88.06
864.592	-4.1
864.766	43.01
864.939	6.14
865.113	10.24
865.287	51.2
865.461	-22.53
865.634	14.34
865.808	-26.62
865.982	-32.77
866.156	-4.1
866.329	4.1
866.503	-40.96
866.676	-2.05
866.85	-6.14
867.024	-6.14
867.197	51.2
867.371	4.1
867.544	-12.29
867.718	22.53
867.891	88.06
868.065	-6.14
868.238	43.01
868.412	34.82
868.585	-30.72
868.759	14.34
868.932	75.77
869.105	8.19
869.279	-20.48
869.452	28.67
869.625	28.67
869.799	-20.48
869.972	-10.24
870.145	-30.72
870.319	83.97
870.492	-6.14
870.665	-30.72
870.838	77.82
871.011	-73.73
871.185	10.24
871.358	-61.44
871.531	96.25
871.704	43.01
871.877	18.43
872.05	-34.82
872.223	-36.86
872.396	14.34
872.569	18.43
872.742	-36.86
872.915	118.78
873.088	12.29
873.261	12.29
873.434	-40.96
873.607	18.43
873.78	0
873.953	-61.44
874.126	24.58
874.299	36.86
874.471	-55.3
874.644	-8.19
874.817	4.1
874.99	88.06
875.163	-22.53
875.335	-14.34
875.508	-40.96
875.681	55.3
875.853	43.01
876.026	59.39
876.199	90.11
876.371	38.91
876.544	59.39
876.717	47.1
876.889	88.06
877.062	12.29
877.234	-14.34
877.407	43.01
877.579	-22.53
877.752	36.86
877.924	-12.29
878.097	2.05
878.269	2.05
878.442	-47.1
878.614	61.44
878.786	-22.53
878.959	59.39
879.131	-38.91
879.303	-90.11
879.476	45.06
879.648	53.25
879.82	92.16
879.993	-24.58
880.165	-4.1
880.337	-30.72
880.509	67.58
880.681	-22.53
880.854	12.29
881.026	2.05
881.198	57.34
881.37	59.39
881.542	-38.91
881.714	94.21
881.886	47.1
882.058	69.63
882.23	30.72
882.402	-51.2
882.574	-20.48
882.746	34.82
882.918	18.43
883.09	49.15
883.262	59.39
883.434	43.01
883.606	2.05
883.778	-34.82
883.95	61.44
884.122	-71.68
884.293	71.68
884.465	53.25
884.637	12.29
884.809	-59.39
884.98	34.82
885.152	45.06
885.324	47.1
885.496	57.34
885.667	-6.14
885.839	43.01
886.011	61.44
886.182	36.86
886.354	8.19
886.525	-20.48
886.697	38.91
886.869	-28.67
887.04	-10.24
887.212	-6.14
887.383	67.58
887.555	18.43
887.726	-47.1
887.897	20.48
888.069	43.01
888.24	-14.34
888.412	108.54
888.583	28.67
888.754	-10.24
888.926	26.62
889.097	71.68
889.268	-112.64
889.44	-2.05
889.611	-43.01
889.782	-38.91
889.953	53.25
890.125	38.91
890.296	-71.68
890.467	34.82
890.638	8.19
890.809	10.24
890.98	-30.72
891.151	40.96
891.323	45.06
891.494	34.82
891.665	-4.1
891.836	43.01
892.007	6.14
892.178	18.43
892.349	-18.43
892.52	18.43
892.691	4.1
892.862	-14.34
893.032	-28.67
893.203	-14.34
893.374	-2.05
893.545	26.62
893.716	6.14
893.887	-22.53
894.057	22.53
894.228	32.77
894.399	-59.39
894.57	83.97
894.74	-6.14
894.911	22.53
895.082	24.58
895.253	-43.01
895.423	45.06
895.594	59.39
895.764	-20.48
895.935	-61.44
896.106	-14.34
896.276	12.29
896.447	43.01
896.617	-14.34
896.788	-12.29
896.958	-43.01
897.129	51.2
897.299	-53.25
897.47	57.34
897.64	-4.1
897.81	4.1
897.981	36.86
898.151	-10.24
898.322	51.2
898.492	26.62
898.662	-20.48
898.832	30.72
899.003	14.34
899.173	73.73
899.343	-57.34
899.513	6.14
