Data from USB4F104151__263__14-34-32-504.txt Node

Date: Thu Mar 13 14:34:32 EDT 2025
User: louis
Spectrometer: USB4F10415
Trigger mode: 4
Integration Time (sec): 2.500000E-2
Scans to average: 1
Electric dark correction enabled: true
Nonlinearity correction enabled: false
Boxcar width: 0
XAxis mode: Wavelengths
Number of Pixels in Spectrum: 3648
>>>>>Begin Spectral Data<<<<<
178.204	-235.18
178.424	-235.18
178.644	-235.18
178.864	-177.83
179.084	-186.02
179.304	-57
179.524	33.11
179.744	35.16
179.964	37.2
180.184	31.06
180.404	-24.23
180.624	16.73
180.844	8.53
181.064	-46.76
181.283	18.77
181.503	-13.99
181.723	-38.57
181.943	-40.62
182.163	29.01
182.383	41.3
182.602	-24.23
182.822	92.5
183.042	61.78
183.262	-34.47
183.482	8.53
183.701	-5.8
183.921	20.82
184.141	-40.62
184.361	-16.04
184.58	-24.23
184.8	-22.19
185.02	20.82
185.239	-13.99
185.459	-57
185.679	24.92
185.898	-59.05
186.118	49.49
186.338	20.82
186.557	16.73
186.777	-5.8
186.997	-30.38
187.216	-24.23
187.436	-5.8
187.655	10.58
187.875	35.16
188.095	-16.04
188.314	33.11
188.534	53.59
188.753	-28.33
188.973	16.73
189.192	51.54
189.412	12.63
189.631	76.12
189.851	-11.95
190.07	53.59
190.29	57.68
190.509	-91.82
190.729	-32.43
190.948	47.44
191.168	53.59
191.387	-1.71
191.607	65.88
191.826	41.3
192.045	26.96
192.265	26.96
192.484	-16.04
192.704	31.06
192.923	-38.57
193.142	51.54
193.362	-34.47
193.581	61.78
193.8	-32.43
194.02	16.73
194.239	-16.04
194.458	51.54
194.678	14.68
194.897	16.73
195.116	-32.43
195.335	37.2
195.555	29.01
195.774	-16.04
195.993	16.73
196.212	74.07
196.432	-3.75
196.651	-20.14
196.87	18.77
197.089	-18.09
197.308	43.35
197.528	117.08
197.747	2.39
197.966	10.58
198.185	82.26
198.404	-32.43
198.623	0.34
198.842	51.54
199.062	26.96
199.281	18.77
199.5	31.06
199.719	-48.81
199.938	4.44
200.157	92.5
200.376	37.2
200.595	49.49
200.814	33.11
201.033	41.3
201.252	61.78
201.471	-5.8
201.69	47.44
201.909	-9.9
202.128	65.88
202.347	29.01
202.566	24.92
202.785	-59.05
203.004	12.63
203.223	90.45
203.442	18.77
203.661	-26.28
203.879	-16.04
204.098	-13.99
204.317	33.11
204.536	67.92
204.755	-54.95
204.974	24.92
205.193	-1.71
205.411	69.97
205.63	-16.04
205.849	41.3
206.068	-7.85
206.287	-32.43
206.505	26.96
206.724	-34.47
206.943	-7.85
207.162	-34.47
207.381	37.2
207.599	57.68
207.818	-30.38
208.037	53.59
208.255	-87.72
208.474	-81.58
208.693	29.01
208.911	0.34
209.13	-5.8
209.349	16.73
209.567	26.96
209.786	43.35
210.005	16.73
210.223	63.83
210.442	-16.04
210.661	39.25
210.879	-54.95
211.098	57.68
211.316	33.11
211.535	16.73
211.753	41.3
211.972	16.73
212.191	26.96
212.409	-13.99
212.628	29.01
212.846	8.53
213.065	49.49
213.283	74.07
213.502	-104.11
213.72	26.96
213.938	2.39
214.157	-57
214.375	-91.82
214.594	12.63
214.812	-20.14
215.031	4.44
215.249	-24.23
215.467	0.34
215.686	57.68
215.904	59.73
216.122	20.82
216.341	110.93
216.559	-34.47
216.778	123.22
216.996	26.96
217.214	-16.04
217.432	4.44
217.651	41.3
217.869	14.68
218.087	16.73
218.306	16.73
218.524	16.73
218.742	-5.8
218.96	-32.43
219.179	-32.43
219.397	-85.67
219.615	29.01
219.833	26.96
220.051	33.11
220.27	61.78
220.488	55.64
220.706	-18.09
220.924	37.2
221.142	24.92
221.36	-40.62
221.578	90.45
221.796	8.53
222.015	22.87
222.233	2.39
222.451	37.2
222.669	-5.8
222.887	59.73
223.105	-26.28
223.323	76.12
223.541	-32.43
223.759	47.44
223.977	-11.95
224.195	16.73
224.413	33.11
224.631	49.49
224.849	45.4
225.067	102.74
225.285	-22.19
225.503	-7.85
225.721	-61.1
225.939	33.11
226.157	-5.8
226.375	106.84
226.592	-30.38
226.81	-7.85
227.028	-30.38
227.246	92.5
227.464	26.96
227.682	92.5
227.9	10.58
228.117	18.77
228.335	-46.76
228.553	35.16
228.771	74.07
228.989	98.64
229.206	0.34
229.424	14.68
229.642	61.78
229.86	-13.99
230.077	96.6
230.295	-46.76
230.513	158.03
230.731	-16.04
230.948	18.77
231.166	106.84
231.384	-44.71
231.601	45.4
231.819	29.01
232.037	-38.57
232.254	2.39
232.472	12.63
232.689	-7.85
232.907	-57
233.125	31.06
233.342	59.73
233.56	-16.04
233.777	10.58
233.995	88.4
234.213	88.4
234.43	2.39
234.648	-38.57
234.865	31.06
235.083	4.44
235.3	6.49
235.518	45.4
235.735	43.35
235.953	10.58
236.17	-32.43
236.388	0.34
236.605	-24.23
236.822	57.68
237.04	16.73
237.257	8.53
237.475	29.01
237.692	39.25
237.909	-7.85
238.127	-61.1
238.344	4.44
238.562	16.73
238.779	-34.47
238.996	-24.23
239.214	53.59
239.431	69.97
239.648	-22.19
239.865	92.5
240.083	4.44
240.3	63.83
240.517	-16.04
240.735	-22.19
240.952	35.16
241.169	18.77
241.386	10.58
241.603	-13.99
241.821	-54.95
242.038	61.78
242.255	65.88
242.472	82.26
242.689	-5.8
242.907	-48.81
243.124	-26.28
243.341	74.07
243.558	-46.76
243.775	-106.15
243.992	-81.58
244.209	74.07
244.426	78.16
244.643	-7.85
244.86	4.44
245.078	37.2
245.295	-24.23
245.512	-26.28
245.729	-28.33
245.946	-11.95
246.163	-32.43
246.38	24.92
246.597	20.82
246.814	-106.15
247.031	2.39
247.248	10.58
247.464	-13.99
247.681	16.73
247.898	24.92
248.115	51.54
248.332	-20.14
248.549	41.3
248.766	59.73
248.983	-36.52
249.2	-5.8
249.417	51.54
249.633	41.3
249.85	57.68
250.067	8.53
250.284	-18.09
250.501	47.44
250.717	8.53
250.934	55.64
251.151	4.44
251.368	-30.38
251.585	69.97
251.801	57.68
252.018	37.2
252.235	8.53
252.451	-24.23
252.668	-44.71
252.885	-11.95
253.102	33.11
253.318	-22.19
253.535	10.58
253.752	45.4
253.968	35.16
254.185	26.96
254.401	-54.95
254.618	-77.48
254.835	-46.76
255.051	90.45
255.268	26.96
255.484	82.26
255.701	-44.71
255.917	69.97
256.134	-38.57
256.351	41.3
256.567	-40.62
256.784	63.83
257	8.53
257.217	43.35
257.433	24.92
257.65	4.44
257.866	10.58
258.082	22.87
258.299	-89.77
258.515	-32.43
258.732	8.53
258.948	-24.23
259.165	84.31
259.381	-5.8
259.597	78.16
259.814	0.34
260.03	-22.19
260.246	10.58
260.463	96.6
260.679	69.97
260.895	-5.8
261.112	-52.91
261.328	33.11
261.544	-38.57
261.761	74.07
261.977	-40.62
262.193	-32.43
262.409	33.11
262.626	-69.29
262.842	20.82
263.058	-38.57
263.274	-32.43
263.49	-32.43
263.707	49.49
263.923	-30.38
264.139	-13.99
264.355	4.44
264.571	125.27
264.787	-32.43
265.004	41.3
265.22	-16.04
265.436	29.01
265.652	-20.14
265.868	-48.81
266.084	-73.39
266.3	0.34
266.516	31.06
266.732	-54.95
266.948	74.07
267.164	-24.23
267.38	-5.8
267.596	92.5
267.812	82.26
268.028	4.44
268.244	-57
268.46	2.39
268.676	-11.95
268.892	55.64
269.108	-20.14
269.324	-24.23
269.54	8.53
269.756	84.31
269.972	-65.19
270.188	31.06
270.403	-20.14
270.619	-1.71
270.835	-13.99
271.051	24.92
271.267	-7.85
271.483	-32.43
271.698	10.58
271.914	45.4
272.13	-16.04
272.346	22.87
272.562	2.39
272.777	24.92
272.993	-63.15
273.209	-30.38
273.425	24.92
273.64	33.11
273.856	-34.47
274.072	76.12
274.287	-32.43
274.503	100.69
274.719	-40.62
274.934	-13.99
275.15	-22.19
275.366	51.54
275.581	-28.33
275.797	26.96
276.012	-3.75
276.228	8.53
276.444	-20.14
276.659	78.16
276.875	-46.76
277.09	-16.04
277.306	33.11
277.521	-20.14
277.737	63.83
277.952	12.63
278.168	-18.09
278.383	26.96
278.599	-13.99
278.814	-22.19
279.03	29.01
279.245	100.69
279.461	-26.28
279.676	61.78
279.892	-100.01
280.107	-16.04
280.322	-54.95
280.538	-28.33
280.753	-13.99
280.969	39.25
281.184	8.53
281.399	0.34
281.615	78.16
281.83	41.3
282.045	-48.81
282.26	4.44
282.476	-7.85
282.691	0.34
282.906	41.3
283.122	-36.52
283.337	61.78
283.552	-24.23
283.767	-40.62
283.983	74.07
284.198	-7.85
284.413	43.35
284.628	-48.81
284.843	14.68
285.058	47.44
285.274	16.73
285.489	-46.76
285.704	24.92
285.919	-38.57
286.134	-61.1
286.349	35.16
286.564	-7.85
286.779	16.73
286.995	-81.58
287.21	-71.34
287.425	-7.85
287.64	-16.04
287.855	33.11
288.07	-36.52
288.285	65.88
288.5	33.11
288.715	67.92
288.93	20.82
289.145	-63.15
289.36	47.44
289.575	24.92
289.79	14.68
290.004	-44.71
290.219	-5.8
290.434	0.34
290.649	-79.53
290.864	-16.04
291.079	39.25
291.294	43.35
291.509	53.59
291.724	0.34
291.938	2.39
292.153	-11.95
292.368	-11.95
292.583	33.11
292.798	45.4
293.012	-3.75
293.227	0.34
293.442	-48.81
293.657	2.39
293.871	41.3
294.086	-16.04
294.301	37.2
294.516	14.68
294.73	0.34
294.945	53.59
295.16	-13.99
295.374	41.3
295.589	12.63
295.804	-32.43
296.018	18.77
296.233	63.83
296.447	16.73
296.662	-44.71
296.877	18.77
297.091	82.26
297.306	-44.71
297.52	-16.04
297.735	-61.1
297.949	-40.62
298.164	-77.48
298.378	33.11
298.593	-24.23
298.807	-28.33
299.022	16.73
299.236	90.45
299.451	-5.8
299.665	-22.19
299.88	10.58
300.094	-13.99
300.309	55.64
300.523	90.45
300.737	2.39
300.952	18.77
301.166	8.53
301.381	-38.57
301.595	16.73
301.809	10.58
302.024	37.2
302.238	-32.43
302.452	74.07
302.667	37.2
302.881	49.49
303.095	65.88
303.309	14.68
303.524	41.3
303.738	24.92
303.952	-54.95
304.166	82.26
304.381	-52.91
304.595	98.64
304.809	24.92
305.023	14.68
305.237	-20.14
305.452	65.88
305.666	26.96
305.88	8.53
306.094	18.77
306.308	18.77
306.522	-16.04
306.736	-3.75
306.95	78.16
307.164	0.34
307.379	33.11
307.593	135.51
307.807	72.02
308.021	43.35
308.235	10.58
308.449	57.68
308.663	-30.38
308.877	106.84
309.091	2.39
309.305	2.39
309.519	-9.9
309.733	51.54
309.947	-38.57
310.161	41.3
310.374	-7.85
310.588	45.4
310.802	6.49
311.016	-16.04
311.23	51.54
311.444	-57
311.658	16.73
311.872	16.73
312.085	57.68
312.299	10.58
312.513	33.11
312.727	20.82
312.941	-24.23
313.154	82.26
313.368	-7.85
313.582	35.16
313.796	-20.14
314.009	59.73
314.223	67.92
314.437	-32.43
314.651	14.68
314.864	88.4
315.078	2.39
315.292	-112.3
315.505	-34.47
315.719	10.58
315.933	8.53
316.146	24.92
316.36	10.58
316.573	2.39
316.787	18.77
317.001	24.92
317.214	-57
317.428	24.92
317.641	43.35
317.855	43.35
318.068	41.3
318.282	33.11
318.495	-9.9
318.709	18.77
318.922	-11.95
319.136	104.79
319.349	59.73
319.563	29.01
319.776	43.35
319.99	78.16
320.203	67.92
320.417	18.77
320.63	6.49
320.843	106.84
321.057	86.36
321.27	-46.76
321.483	-11.95
321.697	22.87
321.91	2.39
322.124	-20.14
322.337	4.44
322.55	59.73
322.763	35.16
322.977	8.53
323.19	-1.71
323.403	43.35
323.617	-3.75
323.83	26.96
324.043	35.16
324.256	10.58
324.469	-24.23
324.683	-32.43
324.896	61.78
325.109	49.49
325.322	0.34
325.535	65.88
325.748	39.25
325.962	0.34
326.175	-7.85
326.388	18.77
326.601	84.31
326.814	-54.95
327.027	-18.09
327.24	98.64
327.453	-110.25
327.666	65.88
327.879	43.35
328.092	20.82
328.305	-3.75
328.518	33.11
328.731	-11.95
328.944	0.34
329.157	0.34
329.37	29.01
329.583	51.54
329.796	18.77
330.009	12.63
330.222	59.73
330.435	82.26
330.648	59.73
330.861	12.63
331.073	-7.85
331.286	86.36
331.499	-22.19
331.712	0.34
331.925	24.92
332.138	37.2
332.35	41.3
332.563	-5.8
332.776	41.3
332.989	-32.43
333.202	-50.86
333.414	-20.14
333.627	0.34
333.84	-40.62
334.053	92.5
334.265	-22.19
334.478	-20.14
334.691	-36.52
334.903	14.68
335.116	86.36
335.329	78.16
335.541	65.88
335.754	37.2
335.966	4.44
336.179	10.58
336.392	10.58
336.604	35.16
336.817	119.12
337.029	82.26
337.242	-38.57
337.454	-18.09
337.667	33.11
337.88	26.96
338.092	12.63
338.305	90.45
338.517	-16.04
338.729	98.64
338.942	112.98
339.154	26.96
339.367	2.39
339.579	43.35
339.792	-57
340.004	18.77
340.217	6.49
340.429	4.44
340.641	-16.04
340.854	115.03
341.066	-79.53
341.278	37.2
341.491	53.59
341.703	51.54
341.915	33.11
342.128	26.96
342.34	12.63
342.552	-24.23
342.764	16.73
342.977	-1.71
343.189	2.39
343.401	8.53
343.613	-67.24
343.826	65.88
344.038	12.63
344.25	16.73
344.462	-32.43
344.674	-22.19
344.886	24.92
345.099	0.34
345.311	90.45
345.523	16.73
345.735	-57
345.947	67.92
346.159	86.36
346.371	31.06
346.583	18.77
346.795	51.54
347.007	-24.23
347.219	37.2
347.431	37.2
347.643	37.2
347.855	-3.75
348.067	24.92
348.279	8.53
348.491	0.34
348.703	125.27
348.915	35.16
349.127	6.49
349.339	57.68
349.551	41.3
349.763	10.58
349.975	4.44
350.187	8.53
350.399	37.2
350.61	2.39
350.822	24.92
351.034	-61.1
351.246	43.35
351.458	12.63
351.669	18.77
351.881	-16.04
352.093	100.69
352.305	-26.28
352.517	39.25
352.728	20.82
352.94	16.73
353.152	-28.33
353.363	-20.14
353.575	88.4
353.787	82.26
353.999	2.39
354.21	26.96
354.422	4.44
354.633	20.82
354.845	4.44
355.057	-18.09
355.268	20.82
355.48	-9.9
355.692	18.77
355.903	57.68
356.115	-11.95
356.326	-5.8
356.538	67.92
356.749	67.92
356.961	51.54
357.172	45.4
357.384	0.34
357.595	90.45
357.807	33.11
358.018	-61.1
358.23	33.11
358.441	67.92
358.653	57.68
358.864	-22.19
359.075	2.39
359.287	-3.75
359.498	59.73
359.709	41.3
359.921	-5.8
360.132	20.82
360.344	-7.85
360.555	74.07
360.766	16.73
360.977	-7.85
361.189	102.74
361.4	-20.14
361.611	96.6
361.823	0.34
362.034	-20.14
362.245	-16.04
362.456	41.3
362.667	35.16
362.879	43.35
363.09	20.82
363.301	37.2
363.512	22.87
363.723	18.77
363.935	-46.76
364.146	74.07
364.357	-26.28
364.568	8.53
364.779	-28.33
364.99	-22.19
365.201	-32.43
365.412	67.92
365.623	-9.9
365.834	-28.33
366.045	-54.95
366.256	-40.62
366.467	63.83
366.678	0.34
366.889	12.63
367.1	-28.33
367.311	72.02
367.522	31.06
367.733	53.59
367.944	16.73
368.155	16.73
368.366	133.46
368.577	57.68
368.788	100.69
368.999	55.64
369.209	24.92
369.42	108.88
369.631	76.12
369.842	-13.99
370.053	16.73
370.264	24.92
370.474	18.77
370.685	2.39
370.896	-7.85
371.107	41.3
371.317	94.55
371.528	-61.1
371.739	63.83
371.95	53.59
372.16	20.82
372.371	-32.43
372.582	-57
372.792	94.55
373.003	-5.8
373.214	67.92
373.424	-20.14
373.635	-24.23
373.846	20.82
374.056	8.53
374.267	47.44
374.477	12.63
374.688	2.39
374.898	-13.99
375.109	-3.75
375.319	16.73
375.53	-20.14
375.74	49.49
375.951	18.77
376.161	8.53
376.372	43.35
376.582	31.06
376.793	88.4
377.003	12.63
377.214	8.53
377.424	29.01
377.635	-32.43
377.845	-50.86
378.055	41.3
378.266	-24.23
378.476	57.68
378.686	-7.85
378.897	35.16
379.107	26.96
379.317	67.92
379.528	20.82
379.738	59.73
379.948	20.82
380.158	24.92
380.369	90.45
380.579	39.25
380.789	2.39
380.999	16.73
381.21	18.77
381.42	74.07
381.63	-11.95
381.84	65.88
382.05	49.49
382.261	112.98
382.471	63.83
382.681	-32.43
382.891	84.31
383.101	47.44
383.311	4.44
383.521	16.73
383.731	-65.19
383.941	24.92
384.151	41.3
384.361	41.3
384.571	4.44
384.781	67.92
384.991	69.97
385.201	49.49
385.411	-7.85
385.621	45.4
385.831	41.3
386.041	76.12
386.251	-3.75
386.461	43.35
386.671	-93.87
386.881	2.39
387.091	33.11
387.301	74.07
387.511	57.68
387.72	76.12
387.93	53.59
388.14	-16.04
388.35	8.53
388.56	55.64
388.769	53.59
388.979	-5.8
389.189	16.73
389.399	2.39
389.609	76.12
389.818	84.31
390.028	-54.95
390.238	98.64
390.447	-5.8
390.657	117.08
390.867	-16.04
391.076	-9.9
391.286	57.68
391.496	8.53
391.705	41.3
391.915	37.2
392.125	35.16
392.334	6.49
392.544	96.6
392.753	-7.85
392.963	61.78
393.172	65.88
393.382	-73.39
393.591	51.54
393.801	16.73
394.01	102.74
394.22	8.53
394.429	-3.75
394.639	98.64
394.848	53.59
395.058	35.16
395.267	39.25
395.477	-26.28
395.686	24.92
395.895	29.01
396.105	115.03
396.314	26.96
396.524	10.58
396.733	90.45
396.942	8.53
397.152	29.01
397.361	129.36
397.57	12.63
397.78	45.4
397.989	37.2
398.198	172.37
398.407	41.3
398.617	33.11
398.826	49.49
399.035	16.73
399.244	76.12
399.453	39.25
399.663	131.41
399.872	33.11
400.081	37.2
400.29	16.73
400.499	-7.85
400.708	129.36
400.917	18.77
401.127	-16.04
401.336	74.07
401.545	78.16
401.754	106.84
401.963	86.36
402.172	69.97
402.381	43.35
402.59	59.73
402.799	53.59
403.008	69.97
403.217	147.8
403.426	41.3
403.635	115.03
403.844	69.97
404.053	102.74
404.262	57.68
404.471	160.08
404.68	94.55
404.888	74.07
405.097	104.79
405.306	53.59
405.515	82.26
405.724	131.41
405.933	115.03
406.142	16.73
406.35	57.68
406.559	143.7
406.768	115.03
406.977	164.18
407.185	143.7
407.394	170.32
407.603	82.26
407.812	231.76
408.02	258.39
408.229	158.03
408.438	162.13
408.646	151.89
408.855	125.27
409.064	213.33
409.272	172.37
409.481	227.67
409.69	217.43
409.898	215.38
410.107	233.81
410.315	233.81
410.524	217.43
410.733	258.39
410.941	223.57
411.15	309.58
411.358	293.2
411.567	328.02
411.775	315.73
411.984	311.63
412.192	346.45
412.401	270.67
412.609	389.46
412.818	377.17
413.026	328.02
413.234	371.02
413.443	409.94
413.651	418.13
413.86	409.94
414.068	483.66
414.276	532.81
414.485	459.09
414.693	493.9
414.901	559.44
415.11	559.44
415.318	598.35
415.526	610.64
415.734	663.88
415.943	584.01
416.151	672.08
416.359	680.27
416.567	676.17
416.776	674.12
416.984	840.01
417.192	835.91
417.4	821.58
417.608	764.23
417.817	803.15
418.025	852.3
418.233	1059.14
418.441	807.24
418.649	903.5
418.857	979.27
419.065	1040.71
419.273	1073.48
419.481	1055.05
419.689	1165.64
419.897	1239.36
420.105	1182.02
420.313	1272.13
420.521	1245.51
420.729	1261.89
420.937	1286.47
421.145	1450.3
421.353	1427.78
421.561	1569.09
421.769	1585.47
421.977	1663.29
422.185	1683.77
422.393	1679.68
422.601	1861.94
422.809	1872.18
423.017	1902.9
423.224	1868.09
423.432	2036.02
423.64	2079.03
423.848	2343.22
424.056	2105.65
424.263	2228.53
424.471	2279.73
424.679	2302.26
424.887	2457.9
425.094	2466.1
425.302	2574.64
425.51	2656.56
425.718	2763.05
425.925	2656.56
426.133	2744.62
426.341	3043.62
426.548	3039.53
426.756	3074.34
426.964	3207.46
427.171	3301.67
427.379	3352.87
427.586	3541.28
427.794	3672.35
428.001	3715.36
428.209	3801.37
428.417	3844.38
428.624	4116.76
428.832	4051.22
429.039	3961.11
429.247	4170.01
429.454	4440.34
429.662	4778.25
429.869	4448.53
430.076	4958.47
430.284	4557.07
430.491	4833.55
430.699	5187.85
430.906	5171.46
431.114	5179.65
431.321	5296.39
431.528	5488.9
431.736	5898.49
431.943	6103.29
432.15	5812.48
432.358	5902.59
432.565	6285.56
432.772	6260.98
432.979	6736.11
433.187	6699.25
433.394	6723.82
433.601	7160.04
433.808	7244.01
434.016	7184.62
434.223	7432.42
434.43	7923.93
434.637	7588.07
434.844	8024.28
435.052	8354.01
435.259	8286.42
435.466	8341.72
435.673	8306.9
435.88	8794.32
436.087	9253.06
436.294	9257.16
436.501	9093.32
436.708	9117.9
436.915	9693.38
437.122	9883.84
437.329	9961.66
437.537	10371.26
437.743	10506.42
437.95	10219.71
438.157	10772.66
438.364	11272.36
438.571	11307.18
438.778	11366.57
438.985	11983.01
439.192	11716.77
439.399	12255.39
439.606	12081.31
439.813	12757.14
440.02	13471.88
440.227	13045.9
440.433	12857.49
440.64	13310.09
440.847	13152.4
441.054	13639.81
441.261	14536.82
441.467	14403.71
441.674	14616.69
441.881	14907.51
442.088	14930.03
442.294	14913.65
442.501	15065.2
442.708	15421.55
442.914	16263.26
443.121	16867.41
443.328	16322.65
443.534	17547.34
443.741	17002.58
443.948	16691.29
444.154	18131.01
444.361	18016.32
444.568	18329.66
444.774	18231.36
444.981	18524.22
445.187	19032.11
445.394	19617.83
445.6	19441.71
445.807	21411.85
446.013	20389.92
446.22	20355.1
446.426	21274.64
446.633	21729.29
446.839	22562.81
447.046	21364.75
447.252	22738.94
447.459	22532.09
447.665	22335.49
447.871	23529.45
448.078	24524.77
448.284	23187.44
448.491	24070.12
448.697	25096.15
448.903	25374.67
449.11	25231.32
449.316	25159.64
449.522	25360.34
449.728	26173.38
449.935	26363.84
450.141	26445.76
450.347	26996.67
450.553	26021.83
450.76	26427.33
450.966	27260.85
451.172	27230.13
451.378	27692.97
451.584	27162.55
451.791	27674.54
451.997	27756.46
452.203	28104.62
452.409	28503.97
452.615	28305.32
452.821	26939.32
453.027	26812.35
453.233	28053.42
453.44	27174.84
453.646	27094.97
453.852	27305.91
454.058	27572.14
454.264	27037.62
454.47	27332.53
454.676	26714.05
454.882	27611.06
455.088	25305.04
455.294	25786.32
455.5	25991.11
455.705	26140.61
455.911	24637.41
456.117	24709.08
456.323	24532.96
456.529	23279.6
456.735	24174.56
456.941	23658.48
457.147	23185.4
457.352	22013.96
457.558	22253.57
457.764	21979.14
457.97	21643.28
458.176	21108.76
458.381	20977.69
458.587	19908.65
458.793	19873.83
458.999	18747.45
459.204	20359.2
459.41	19691.56
459.616	18491.45
459.821	18493.5
460.027	18393.15
460.233	17938.5
460.438	17279.05
460.644	17283.15
460.85	16443.48
461.055	16226.4
461.261	16050.27
461.466	15007.86
461.672	14379.13
461.878	15364.2
462.083	14418.04
462.289	14020.74
462.494	13873.28
462.7	13611.14
462.905	13009.04
463.111	13426.82
463.316	13363.34
463.522	13213.84
463.727	13142.16
463.932	13267.08
464.138	12957.84
464.343	13037.71
464.549	12558.49
464.754	12927.12
464.959	12859.54
465.165	12869.78
465.37	12202.14
465.575	11835.55
465.781	12441.75
465.986	12273.82
466.191	11919.52
466.397	11802.79
466.602	11184.3
466.807	11618.47
467.012	11505.83
467.218	11770.02
467.423	11362.47
467.628	11425.96
467.833	11858.08
468.038	11149.48
468.244	10954.93
468.449	11448.49
468.654	11380.9
468.859	10944.69
469.064	10860.72
469.269	10588.34
469.474	10494.13
469.679	10776.75
469.885	10322.1
470.09	10653.87
470.295	10487.99
470.5	10236.09
470.705	10248.38
470.91	10094.78
471.115	9980.09
471.32	9992.38
471.525	10096.83
471.73	9818.3
471.935	9658.56
472.139	9371.85
472.344	9429.19
472.549	9357.51
472.754	9382.09
472.959	9107.66
473.164	8902.86
473.369	8773.84
473.574	8968.4
473.778	8863.95
473.983	8913.1
474.188	8968.4
474.393	8532.18
474.598	8747.22
474.802	8388.82
475.007	8335.57
475.212	8519.89
475.417	8061.15
475.621	8229.08
475.826	8048.86
476.031	8118.49
476.235	7799.01
476.44	7956.7
476.645	7672.03
476.849	7700.7
477.054	7676.13
477.259	7622.88
477.463	7559.39
477.668	7307.49
477.872	7536.87
478.077	7252.2
478.282	7186.66
478.486	7084.27
478.691	7172.33
478.895	7094.51
479.1	7035.11
479.304	6983.91
479.509	6752.49
479.713	6973.67
479.918	6795.5
480.122	6668.53
480.326	6617.33
480.531	6682.86
480.735	6762.73
480.94	6668.53
481.144	6602.99
481.348	6392.05
481.553	6398.2
481.757	6367.48
481.961	6494.45
482.166	6572.27
482.37	6535.41
482.574	6308.09
482.778	6424.82
482.983	6430.96
483.187	6580.46
483.391	6414.58
483.595	6394.1
483.8	6355.19
484.004	6439.16
484.208	6463.73
484.412	6381.81
484.616	6381.81
484.821	6410.48
485.025	6252.79
485.229	6422.77
485.433	6357.24
485.637	6371.57
485.841	6463.73
486.045	6365.43
486.249	6197.49
486.453	6113.53
486.657	6295.8
486.861	6318.32
487.065	6207.73
487.269	6396.15
487.473	6101.24
487.677	6144.25
487.881	6447.35
488.085	6234.36
488.289	6357.24
488.493	6299.89
488.697	6430.96
488.901	6394.1
489.105	6162.68
489.309	6209.78
489.512	6312.18
489.716	6226.17
489.92	6269.17
490.124	6330.61
490.328	6344.95
490.531	6140.15
490.735	6433.01
490.939	6078.71
491.143	6334.71
491.346	6373.62
491.55	6299.89
491.754	6449.39
491.958	6406.39
492.161	6424.82
492.365	6525.17
492.569	6476.02
492.772	6326.52
492.976	6516.98
493.18	6435.06
493.383	6734.06
493.587	6516.98
493.79	6775.02
493.994	6623.47
494.197	6709.49
494.401	6719.73
494.605	6574.32
494.808	6777.07
495.012	6811.89
495.215	6734.06
495.419	7020.78
495.622	6709.49
495.825	6822.13
496.029	6756.59
496.232	7033.07
496.436	7051.5
496.639	7375.08
496.843	6975.72
497.046	7160.04
497.249	7291.11
497.453	7385.32
497.656	7426.28
497.859	7364.84
498.063	7555.3
498.266	7610.59
498.469	7653.6
498.673	7723.23
498.876	7688.42
499.079	7770.33
499.282	7749.86
499.485	8093.91
499.689	7954.65
499.892	8093.91
500.095	7966.94
500.298	8388.82
500.501	8098.01
500.705	8278.23
500.908	8511.7
501.111	8538.32
501.314	8577.23
501.517	8724.69
501.72	8769.74
501.923	8777.94
502.126	8995.02
502.329	9134.28
502.532	9191.63
502.735	9277.64
502.938	9584.84
503.141	9453.77
503.344	9605.31
503.547	9576.64
503.75	9513.16
503.953	9814.21
504.156	9842.88
504.359	9871.55
504.562	9928.89
504.765	10311.86
504.968	10315.96
505.17	10381.49
505.373	10375.35
505.576	10641.59
505.779	10911.92
505.982	10639.54
506.185	11047.08
506.387	11020.46
506.59	11061.42
506.793	11411.62
506.996	11294.89
507.198	11565.22
507.401	11501.73
507.604	11497.64
507.807	11747.49
508.009	11841.7
508.212	12220.57
508.415	12148.89
508.617	12150.94
508.82	12165.28
509.022	12312.73
509.225	12599.45
509.428	12509.33
509.63	12777.62
509.833	12984.46
510.035	13361.29
510.238	13181.07
510.44	13162.64
510.643	13492.36
510.845	13451.4
511.048	13303.95
511.25	14016.64
511.453	13684.87
511.655	14250.11
511.858	14061.69
512.06	14311.55
512.262	14385.27
512.465	14413.95
512.667	14919.79
512.87	14786.68
513.072	15028.34
513.274	15194.22
513.477	15337.58
513.679	15540.33
513.881	15675.49
514.084	15597.67
514.286	15597.67
514.488	16052.32
514.69	16265.31
514.893	16402.52
515.095	16519.26
515.297	16478.3
515.499	16595.03
515.701	16799.83
515.904	17061.97
516.106	17121.36
516.308	17533
516.51	17584.2
516.712	17498.19
516.914	17739.85
517.116	17731.65
517.318	17866.82
517.52	18102.34
517.722	17829.96
517.925	18393.15
518.127	18538.55
518.329	18618.43
518.531	18659.38
518.733	18526.27
518.935	19300.4
519.136	19370.03
519.338	19365.93
519.54	19400.75
519.742	19583.02
519.944	19666.99
520.146	20049.96
520.348	19802.15
520.55	19996.71
520.752	20273.18
520.954	20385.82
521.155	20279.33
521.357	20545.56
521.559	20824.09
521.761	20817.94
521.963	20951.06
522.164	20647.96
522.366	21121.04
522.568	21135.38
522.77	21176.34
522.971	21506.06
523.173	21442.57
523.375	21778.44
523.576	21694.47
523.778	21426.19
523.98	21696.52
524.181	21618.7
524.383	21712.91
524.584	21921.8
524.786	22181.89
524.988	22081.54
525.189	22022.15
525.391	22376.45
525.592	22181.89
525.794	22337.54
525.995	22315.01
526.197	22296.58
526.398	22288.39
526.6	22599.68
526.801	22562.81
527.003	22546.43
527.204	22632.44
527.406	22491.13
527.607	22267.91
527.808	22683.64
528.01	22026.25
528.211	22108.16
528.412	22708.22
528.614	22339.58
528.815	22618.11
529.016	22829.05
529.218	22179.84
529.419	22579.2
529.62	22366.21
529.822	22343.68
530.023	22323.2
530.224	22499.33
530.425	22196.23
530.626	22372.35
530.828	22167.56
531.029	22331.39
531.23	22089.73
531.431	22188.03
531.632	21899.27
531.833	22331.39
532.035	21739.53
532.236	22165.51
532.437	22093.83
532.638	21817.35
532.839	21946.37
533.04	22106.12
533.241	21741.58
533.442	22069.25
533.643	21673.99
533.844	21598.22
534.045	21796.87
534.246	21536.78
534.447	21602.32
534.648	21444.62
534.849	21469.2
535.05	21452.81
535.251	21405.71
535.451	21440.53
535.652	21512.21
535.853	21262.35
536.054	21297.17
536.255	21321.74
536.456	21194.77
536.657	21530.64
536.857	21008.4
537.058	21010.45
537.259	21299.22
537.46	20906.01
537.66	20826.14
537.861	20826.14
538.062	20588.57
538.263	20912.15
538.463	20854.81
538.664	20832.28
538.865	20801.56
539.065	20703.26
539.266	20502.56
539.466	20604.95
539.667	20439.07
539.868	20705.31
540.068	20688.92
540.269	20324.38
540.469	20561.95
540.67	20240.42
540.87	20445.21
541.071	20510.75
541.271	20604.95
541.472	20351.01
541.672	20185.12
541.873	20142.11
542.073	20039.72
542.274	20256.8
542.474	20211.74
542.675	20006.95
542.875	20389.92
543.075	20111.39
543.276	20047.91
543.476	19959.84
543.676	20111.39
543.877	20221.98
544.077	20070.44
544.277	19779.62
544.478	20144.16
544.678	19828.77
544.878	19824.68
545.078	20113.44
545.279	19943.46
545.479	19812.39
545.679	20176.93
545.879	20154.4
546.079	20195.36
546.28	19892.26
546.48	19918.89
546.68	20119.59
546.88	20244.51
547.08	20174.88
547.28	20213.79
547.48	19546.16
547.68	19871.78
547.88	19707.94
548.081	19980.32
548.281	19869.73
548.481	20154.4
548.681	20301.86
548.881	20086.82
549.081	20064.29
549.28	20103.2
549.48	20135.97
549.68	19972.13
549.88	20170.79
550.08	20146.21
550.28	20314.14
550.48	20262.94
550.68	20412.45
550.88	20123.68
551.08	20318.24
551.279	20254.75
551.479	20088.87
551.679	20152.35
551.879	20330.53
552.079	20586.52
552.278	20195.36
552.478	20205.6
552.678	20369.44
552.878	20389.92
553.077	20451.36
553.277	20455.45
553.477	20604.95
553.676	20496.41
553.876	20471.84
554.076	20289.57
554.275	20633.63
554.475	20308
554.674	20776.98
554.874	20545.56
555.074	20742.17
555.273	20832.28
555.473	20885.53
555.672	20713.5
555.872	20793.37
556.071	20885.53
556.271	20875.29
556.47	20713.5
556.67	20408.35
556.869	20942.87
557.068	20867.09
557.268	20686.87
557.467	21008.4
557.667	20879.38
557.866	20930.58
558.065	21008.4
558.265	20959.25
558.464	20830.23
558.663	21348.37
558.863	20895.77
559.062	21057.56
559.261	20979.73
559.461	21223.44
559.66	20996.12
559.859	21184.53
560.058	20957.21
560.258	21067.8
560.457	21250.07
560.656	21092.37
560.855	20998.16
561.054	21231.63
561.253	21280.78
561.453	21434.38
561.652	21409.81
561.851	21440.53
562.05	21315.6
562.249	20908.05
562.448	21473.29
562.647	21002.26
562.846	21129.23
563.045	21217.3
563.244	20977.69
563.443	21374.99
563.642	21041.17
563.841	21137.43
564.04	20840.47
564.239	21123.09
564.438	20955.16
564.637	21121.04
564.836	21057.56
565.035	20846.62
565.234	21069.84
565.432	20725.79
565.631	21086.23
565.83	21207.06
566.029	20738.07
566.228	21141.52
566.427	20500.51
566.625	20582.43
566.824	20619.29
567.023	20926.49
567.222	20533.28
567.42	20803.61
567.619	20572.19
567.818	20580.38
568.016	20537.37
568.215	20748.31
568.414	20359.2
568.612	20498.46
568.811	20416.54
569.01	20559.9
569.208	19863.59
569.407	20351.01
569.605	19927.08
569.804	19982.37
570.002	20133.92
570.201	20015.14
570.4	19742.76
570.598	19787.82
570.797	19922.98
570.995	19695.66
571.193	19718.18
571.392	19949.6
571.59	19335.21
571.789	19451.95
571.987	19615.79
572.186	19286.06
572.384	19230.77
572.582	19224.62
572.781	19263.54
572.979	18978.87
573.177	19142.71
573.376	19132.47
573.574	18853.94
573.772	19013.68
573.971	18706.49
574.169	18782.26
574.367	18632.76
574.565	18780.21
574.763	18655.29
574.962	18688.06
575.16	18405.44
575.358	18710.58
575.556	17997.89
575.754	18198.59
575.952	18018.37
576.151	18085.95
576.349	17985.6
576.547	17889.35
576.745	17907.78
576.943	17707.08
577.141	17760.33
577.339	17813.57
577.537	17528.91
577.735	17637.45
577.933	17342.54
578.131	17576.01
578.329	17442.89
578.527	17397.84
578.725	17360.97
578.923	17403.98
579.121	17094.74
579.319	17252.43
579.516	17268.81
579.714	17399.88
579.912	17092.69
580.11	16859.22
580.308	16973.91
580.506	17031.25
580.704	16429.15
580.901	16920.66
581.099	16959.57
581.297	16685.14
581.495	16390.24
581.692	16588.89
581.89	16377.95
582.088	16447.58
582.285	16595.03
582.483	16592.98
582.681	16173.15
582.878	16330.84
583.076	16232.54
583.274	16269.41
583.471	16068.7
583.669	16408.67
583.866	16074.85
584.064	16144.48
584.262	15863.91
584.459	16117.86
584.657	15775.84
584.854	15886.43
585.052	15569
585.249	15745.13
585.447	15884.39
585.644	15345.77
585.841	15612.01
586.039	15779.94
586.236	15503.46
586.434	15454.31
586.631	15339.63
586.828	15632.49
587.026	15368.3
587.223	15401.07
587.42	15450.22
587.618	15364.2
587.815	15132.78
588.012	15075.44
588.21	15112.3
588.407	15485.03
588.604	15186.03
588.801	15069.3
588.999	15138.93
589.196	15089.78
589.393	15356.01
589.59	15124.59
589.787	15050.86
589.984	15102.06
590.182	14835.83
590.379	15276.14
590.576	15069.3
590.773	14721.14
590.97	14755.96
591.167	14901.36
591.364	14637.17
591.561	14993.52
591.758	14545.02
591.955	14450.81
592.152	14856.31
592.349	14839.92
592.546	14674.04
592.743	15050.86
592.94	14608.5
593.137	14780.53
593.334	14696.57
593.531	14655.61
593.727	14796.92
593.924	14749.81
594.121	14477.43
594.318	14946.42
594.515	14606.45
594.712	14803.06
594.908	14741.62
595.105	14540.92
595.302	14661.75
595.499	14590.07
595.696	14712.95
595.892	14635.13
596.089	14956.66
596.286	14737.52
596.482	14581.88
596.679	14678.13
596.876	14862.45
597.072	14735.48
597.269	14565.5
597.466	14633.08
597.662	14866.55
597.859	14901.36
598.055	14989.42
598.252	14708.85
598.448	14907.51
598.645	14538.87
598.841	14721.14
599.038	14983.28
599.234	15075.44
599.431	14848.11
599.627	15128.69
599.824	15024.24
600.02	15069.3
600.217	15120.49
600.413	15466.6
600.609	15298.67
600.806	14958.71
601.002	15417.45
601.198	15200.37
601.395	15083.63
601.591	15206.51
601.787	15308.91
601.984	15429.74
602.18	15722.6
602.376	15263.85
602.572	15558.76
602.769	15552.62
602.965	15358.06
603.161	15544.42
603.357	15863.91
603.553	15698.02
603.75	15816.8
603.946	15614.06
604.142	16066.66
604.338	15743.08
604.534	15829.09
604.73	15947.87
604.926	15829.09
605.122	16310.36
605.318	16089.18
605.514	15994.98
605.71	16154.72
605.906	16304.22
606.102	16566.36
606.298	16302.17
606.494	16216.16
606.69	16500.83
606.886	16588.89
607.082	16427.1
607.278	16635.99
607.474	16427.1
607.67	16961.62
607.866	16533.59
608.062	16908.37
608.257	16851.03
608.453	16609.37
608.649	17035.35
608.845	16863.32
609.041	16848.98
609.236	16924.76
609.432	17178.7
609.628	17109.07
609.824	16994.39
610.019	17406.03
610.215	17244.24
610.411	17418.32
610.606	17367.12
610.802	17426.51
610.998	17614.92
611.193	17496.14
611.389	17604.68
611.584	17553.48
611.78	17451.08
611.976	17580.11
612.171	17772.61
612.367	17619.02
612.562	17659.98
612.758	17573.96
612.953	17524.81
613.149	17741.89
613.344	17739.85
613.539	18004.03
613.735	17901.64
613.93	17645.64
614.126	17649.74
614.321	18059.33
614.517	17899.59
614.712	17629.26
614.907	17825.86
615.103	18126.91
615.298	18028.61
615.493	18055.23
615.688	17760.33
615.884	18329.66
616.079	17752.13
616.274	18284.61
616.47	18063.43
616.665	17999.94
616.86	18075.71
617.055	17934.4
617.25	17891.4
617.445	18182.21
617.641	17913.92
617.836	18294.85
618.031	18006.08
618.226	17854.53
618.421	17881.16
618.616	18051.14
618.811	17868.87
619.006	18116.67
619.201	17686.6
619.396	18032.71
619.591	18020.42
619.786	18165.82
619.981	17711.18
620.176	18061.38
620.371	17371.21
620.566	17672.26
620.761	17516.62
620.956	17700.94
621.151	17473.61
621.346	17684.55
621.541	17299.53
621.735	17547.34
621.93	17039.44
622.125	17010.77
622.32	16820.31
622.515	16961.62
622.709	16711.77
622.904	17002.58
623.099	16695.38
623.294	16783.45
623.488	16840.79
623.683	16748.63
623.878	16466.01
624.072	16543.83
624.267	16498.78
624.462	16498.78
624.656	16332.89
624.851	16480.35
625.046	15956.07
625.24	15966.31
625.435	15976.55
625.629	15988.83
625.824	15851.62
626.018	16052.32
626.213	15687.78
626.407	15763.56
626.602	15671.4
626.796	15677.54
626.991	15661.16
627.185	15468.65
627.38	15321.2
627.574	15304.81
627.768	15282.28
627.963	15052.91
628.157	15210.61
628.352	15208.56
628.546	14966.9
628.74	14952.56
628.935	14970.99
629.129	14882.93
629.323	14952.56
629.517	14774.39
629.712	14618.74
629.906	14465.14
630.1	14196.86
630.294	14512.25
630.489	14319.74
630.683	14377.08
630.877	14002.3
631.071	14039.17
631.265	14203
631.459	13893.76
631.653	13979.78
631.848	13826.18
632.042	13762.69
632.236	13869.19
632.43	13598.85
632.624	13623.43
632.818	13432.97
633.012	13330.57
633.206	13197.45
633.4	13090.96
633.594	13082.77
633.788	13320.33
633.982	13181.07
634.176	13017.23
634.369	13025.42
634.563	12804.24
634.757	12865.68
634.951	13058.19
635.145	12761.23
635.339	12767.38
635.533	12554.39
635.726	12310.68
635.92	12259.48
636.114	12322.97
636.308	12189.85
636.501	12286.11
636.695	12099.74
636.889	12243.1
637.083	11847.84
637.276	11985.05
637.47	11804.83
637.664	11804.83
637.857	11774.11
638.051	11774.11
638.244	11526.31
638.438	11636.9
638.632	11159.72
638.825	11536.55
639.019	11505.83
639.212	11380.9
639.406	11280.55
639.599	11172.01
639.793	11272.36
639.986	11002.03
640.18	10930.35
640.373	10760.37
640.567	10817.71
640.76	10848.43
640.954	10592.44
641.147	10610.87
641.34	10416.31
641.534	10610.87
641.727	10479.8
641.92	10336.44
642.114	10166.46
642.307	10322.1
642.5	10191.03
642.694	9900.22
642.887	9822.4
643.08	9945.28
643.273	9971.9
643.467	9693.38
643.66	9658.56
643.853	9640.13
644.046	9652.42
644.239	9724.1
644.432	9466.05
644.626	9457.86
644.819	9556.16
645.012	9281.74
645.205	9269.45
645.398	9195.72
645.591	8972.49
645.784	9175.24
645.977	8743.12
646.17	9005.26
646.363	8917.2
646.556	8700.11
646.749	8757.46
646.942	8696.02
647.135	8673.49
647.328	8587.47
647.521	8523.99
647.714	8282.33
647.907	8548.56
648.099	8411.35
648.292	8470.74
648.485	8437.97
648.678	8233.18
648.871	8347.86
649.064	8315.09
649.256	8184.02
649.449	7905.5
649.642	7889.12
649.835	8079.58
650.027	7909.6
650.22	7897.31
650.413	7870.69
650.605	7835.87
650.798	7768.29
650.991	7956.7
651.183	7698.66
651.376	7604.45
651.568	7620.83
651.761	7471.33
651.954	7475.43
652.146	7690.46
652.339	7389.41
652.531	7383.27
652.724	7291.11
652.916	7272.68
653.109	7307.49
653.301	7241.96
653.494	7270.63
653.686	7143.66
653.879	7217.38
654.071	6893.8
654.263	7047.4
654.456	7061.74
654.648	7039.21
654.84	6926.57
655.033	6660.34
655.225	6828.27
655.417	6754.54
655.61	6934.76
655.802	6664.43
655.994	6664.43
656.186	6729.97
656.379	6496.5
656.571	6736.11
656.763	6566.13
656.955	6619.38
657.148	6349.04
657.34	6492.4
657.532	6398.2
657.724	6471.92
657.916	6168.82
658.108	6375.67
658.3	6250.74
658.492	6373.62
658.684	6277.37
658.876	6144.25
659.068	6093.05
659.26	5990.65
659.452	6025.47
659.644	6213.88
659.836	6064.38
660.028	6117.62
660.22	5622.02
660.412	5771.52
660.604	5953.79
660.796	5812.48
660.988	5808.38
661.18	5701.89
661.372	5771.52
661.563	5595.39
661.755	5636.35
661.947	5488.9
662.139	5640.45
662.331	5660.93
662.522	5347.59
662.714	5499.14
662.906	5359.88
663.097	5320.96
663.289	5269.76
663.481	5282.05
663.673	5261.57
663.864	5243.14
664.056	5148.93
664.247	5193.99
664.439	5263.62
664.631	5103.88
664.822	5273.86
665.014	5112.07
665.205	4985.1
665.397	5089.54
665.588	5110.02
665.78	4739.34
665.971	4972.81
666.163	4956.43
666.354	4927.75
666.546	4923.66
666.737	4923.66
666.929	4923.66
667.12	4858.12
667.311	4710.67
667.503	4753.68
667.694	4833.55
667.885	4778.25
668.077	4739.34
668.268	4587.79
668.459	4696.33
668.651	4722.96
668.842	4567.31
669.033	4579.6
669.224	4497.68
669.416	4581.65
669.607	4436.24
669.798	4493.58
669.989	4622.61
670.18	4571.41
670.371	4563.22
670.563	4409.62
670.754	4544.78
670.945	4321.56
671.136	4497.68
671.327	4415.76
671.518	4419.86
671.709	4497.68
671.9	4296.98
672.091	4460.82
672.282	4270.36
672.473	4151.57
672.664	4178.2
672.855	4210.97
673.046	4256.02
673.237	4309.27
673.428	4350.23
673.619	4352.27
673.809	4258.07
674	4241.68
674.191	4104.47
674.382	4194.58
674.573	4165.91
674.764	4145.43
674.954	4112.66
675.145	4161.81
675.336	4051.22
675.527	4229.4
675.717	4149.53
675.908	4077.85
676.099	4116.76
676.289	4063.51
676.48	4083.99
676.671	4086.04
676.861	4104.47
677.052	4106.52
677.243	3963.16
677.433	3948.83
677.624	4145.43
677.814	4051.22
678.005	4090.13
678.195	4139.29
678.386	4034.84
678.576	3950.87
678.767	4004.12
678.957	4100.37
679.148	3909.91
679.338	4053.27
679.529	4006.17
679.719	3971.35
679.909	3989.78
680.1	4075.8
680.29	4026.65
680.481	3975.45
680.671	3932.44
680.861	3840.28
681.052	3940.63
681.242	3952.92
681.432	3987.74
681.622	3971.35
681.813	3862.81
682.003	3963.16
682.193	3934.49
682.383	3924.25
682.573	3879.19
682.764	3991.83
682.954	3957.02
683.144	4018.46
683.334	3895.58
683.524	4006.17
683.714	4002.07
683.904	3877.15
684.094	3846.43
684.284	3832.09
684.474	3868.95
684.664	3877.15
684.854	3942.68
685.044	3969.3
685.234	3817.76
685.424	3907.87
685.614	3909.91
685.804	3950.87
685.994	3803.42
686.184	4075.8
686.374	3846.43
686.564	3741.98
686.753	4016.41
686.943	3817.76
687.133	3774.75
687.323	3748.12
687.513	3850.52
687.702	3776.8
687.892	3887.39
688.082	3772.7
688.272	3819.8
688.461	3825.95
688.651	3756.32
688.841	3770.65
689.03	3608.86
689.22	3840.28
689.41	3686.69
689.599	3750.17
689.789	3817.76
689.979	3850.52
690.168	3754.27
690.358	3748.12
690.547	3610.91
690.737	3768.6
690.926	3674.4
691.116	3572
691.305	3721.5
691.495	3713.31
691.684	3588.38
691.874	3565.85
692.063	3686.69
692.252	3784.99
692.442	3748.12
692.631	3670.3
692.82	3780.89
693.01	3533.09
693.199	3635.49
693.388	3670.3
693.578	3612.96
693.767	3684.64
693.956	3485.98
694.146	3627.29
694.335	3631.39
694.524	3604.77
694.713	3508.51
694.902	3621.15
695.092	3563.81
695.281	3518.75
695.47	3643.68
695.659	3510.56
695.848	3563.81
696.037	3494.18
696.226	3449.12
696.415	3602.72
696.604	3541.28
696.793	3508.51
696.982	3617.05
697.171	3559.71
697.36	3531.04
697.549	3569.95
697.738	3531.04
697.927	3467.55
698.116	3508.51
698.305	3531.04
698.494	3508.51
698.683	3592.48
698.872	3483.94
699.061	3483.94
699.25	3365.15
699.438	3418.4
699.627	3594.53
699.816	3506.46
700.005	3340.58
700.193	3373.35
700.382	3457.31
700.571	3430.69
700.76	3408.16
700.948	3498.27
701.137	3436.83
701.326	3424.55
701.514	3375.39
701.703	3465.5
701.892	3350.82
702.08	3506.46
702.269	3227.94
702.457	3295.52
702.646	3371.3
702.834	3266.85
703.023	3311.91
703.212	3311.91
703.4	3313.95
703.589	3229.99
703.777	3195.17
703.965	3205.41
704.154	3303.71
704.342	3273
704.531	3186.98
704.719	3125.54
704.907	3330.34
705.096	3289.38
705.284	3162.41
705.472	3227.94
705.661	3164.45
705.849	3229.99
706.037	3193.12
706.226	3113.25
706.414	3109.16
706.602	3096.87
706.79	3125.54
706.979	3180.84
707.167	3082.53
707.355	3096.87
707.543	3035.43
707.731	3223.84
707.919	3180.84
708.107	3090.73
708.296	3008.81
708.484	2965.8
708.672	2933.03
708.86	3154.21
709.048	3014.95
709.236	3014.95
709.424	2949.42
709.612	3039.53
709.8	2988.33
709.988	2973.99
710.176	2973.99
710.364	2994.47
710.551	2967.85
710.739	2984.23
710.927	3006.76
711.115	3004.71
711.303	2941.22
711.491	2994.47
711.679	2957.61
711.866	2965.8
712.054	2902.31
712.242	2908.46
712.43	3000.62
712.617	2722.09
712.805	2935.08
712.993	2797.87
713.181	2703.66
713.368	2822.44
713.556	2906.41
713.744	2890.03
713.931	2844.97
714.119	2916.65
714.306	2795.82
714.494	2781.48
714.682	2797.87
714.869	2834.73
715.057	2873.64
715.244	2681.13
715.432	2720.04
715.619	2752.81
715.807	2756.91
715.994	2793.77
716.182	2822.44
716.369	2804.01
716.556	2722.09
716.744	2720.04
716.931	2646.32
717.119	2720.04
717.306	2621.74
717.493	2795.82
717.681	2695.47
717.868	2625.84
718.055	2693.42
718.242	2679.08
718.43	2707.76
718.617	2720.04
718.804	2566.45
718.991	2650.41
719.179	2584.88
719.366	2707.76
719.553	2638.13
719.74	2515.25
719.927	2509.1
720.114	2552.11
720.301	2689.32
720.488	2488.62
720.676	2558.25
720.863	2550.06
721.05	2574.64
721.237	2607.41
721.424	2574.64
721.611	2468.14
721.798	2345.27
721.985	2445.62
722.172	2418.99
722.358	2507.06
722.545	2517.29
722.732	2416.94
722.919	2457.9
723.106	2433.33
723.293	2408.75
723.48	2455.86
723.667	2423.09
723.853	2449.71
724.04	2521.39
724.227	2457.9
724.414	2351.41
724.6	2468.14
724.787	2398.51
724.974	2425.14
725.161	2367.79
725.347	2332.98
725.534	2306.35
725.72	2242.87
725.907	2289.97
726.094	2281.78
726.28	2375.99
726.467	2433.33
726.653	2240.82
726.84	2332.98
727.027	2441.52
727.213	2318.64
727.4	2341.17
727.586	2347.31
727.773	2228.53
727.959	2160.95
728.145	2404.66
728.332	2316.59
728.518	2226.48
728.705	2279.73
728.891	2330.93
729.077	2152.76
729.264	2124.08
729.45	2183.48
729.636	2187.57
729.823	2263.35
730.009	2283.83
730.195	2130.23
730.382	2267.44
730.568	2289.97
730.754	2154.8
730.94	2242.87
731.126	2240.82
731.313	2119.99
731.499	2093.37
731.685	2199.86
731.871	2138.42
732.057	2236.72
732.243	2191.67
732.429	2072.89
732.615	2242.87
732.801	1984.82
732.987	2036.02
733.173	2027.83
733.359	2027.83
733.545	2093.37
733.731	2097.46
733.917	2081.08
734.103	2117.94
734.289	2056.5
734.475	2033.97
734.661	2128.18
734.847	2146.61
735.033	2165.04
735.219	2048.31
735.404	2031.93
735.59	2048.31
735.776	2046.26
735.962	2009.4
736.148	2156.85
736.333	2076.98
736.519	2015.54
736.705	2044.21
736.89	1941.82
737.076	1855.8
737.262	2081.08
737.447	1941.82
737.633	1964.34
737.819	2023.73
738.004	1970.49
738.19	1904.95
738.375	1868.09
738.561	1976.63
738.747	1851.71
738.932	1757.5
739.118	2009.4
739.303	1915.19
739.489	1927.48
739.674	1925.43
739.859	1923.38
740.045	1810.75
740.23	1851.71
740.416	1792.31
740.601	1896.76
740.786	1851.71
740.972	1909.05
741.157	1800.51
741.342	1853.75
741.528	1749.31
741.713	1769.79
741.898	1794.36
742.084	1732.92
742.269	1825.08
742.454	1814.84
742.639	1851.71
742.824	1747.26
743.01	1720.64
743.195	1855.8
743.38	1835.32
743.565	1739.07
743.75	1716.54
743.935	1663.29
744.12	1669.44
744.305	1763.64
744.49	1681.72
744.675	1694.01
744.86	1663.29
745.045	1696.06
745.23	1632.57
745.415	1630.52
745.6	1646.91
745.785	1605.95
745.97	1687.87
746.155	1634.62
746.34	1528.13
746.525	1648.96
746.71	1583.42
746.895	1616.19
747.079	1583.42
747.264	1511.74
747.449	1646.91
747.634	1569.09
747.819	1433.92
748.003	1435.97
748.188	1509.69
748.373	1425.73
748.557	1478.97
748.742	1515.84
748.927	1507.65
749.111	1478.97
749.296	1401.15
749.481	1329.47
749.665	1462.59
749.85	1392.96
750.034	1421.63
750.219	1349.95
750.404	1431.87
750.588	1376.58
750.773	1335.62
750.957	1368.38
751.141	1300.8
751.326	1294.66
751.51	1327.43
751.695	1339.71
751.879	1345.86
752.064	1352
752.248	1218.88
752.432	1231.17
752.617	1331.52
752.801	1292.61
752.985	1319.23
753.17	1272.13
753.354	1220.93
753.538	1276.23
753.722	1237.31
753.907	1214.79
754.091	1227.07
754.275	1304.9
754.459	1179.97
754.643	1159.49
754.828	1139.01
755.012	1126.72
755.196	1155.4
755.38	1089.86
755.564	1116.48
755.748	1139.01
755.932	1157.44
756.116	1091.91
756.3	1069.38
756.484	1161.54
756.668	1114.44
756.852	1085.76
757.036	1110.34
757.22	1050.95
757.404	1034.57
757.588	1053
757.772	1081.67
757.956	1055.05
758.14	1065.29
758.323	1003.85
758.507	985.41
758.691	893.26
758.875	1114.44
759.059	1007.94
759.242	934.22
759.426	1048.9
759.61	1036.61
759.794	966.98
759.977	885.06
760.161	1040.71
760.345	956.74
760.528	1001.8
760.712	928.07
760.895	1007.94
761.079	997.7
761.263	895.3
761.446	917.83
761.63	950.6
761.813	919.88
761.997	958.79
762.18	864.58
762.364	874.82
762.547	917.83
762.731	876.87
762.914	854.34
763.098	840.01
763.281	831.82
763.464	831.82
763.648	903.5
763.831	799.05
764.015	764.23
764.198	919.88
764.381	903.5
764.564	854.34
764.748	827.72
764.931	774.47
765.114	725.32
765.297	829.77
765.481	788.81
765.664	794.95
765.847	706.89
766.03	893.26
766.213	780.62
766.397	860.49
766.58	733.51
766.763	774.47
766.946	772.43
767.129	821.58
767.312	762.19
767.495	747.85
767.678	737.61
767.861	770.38
768.044	778.57
768.227	747.85
768.41	825.67
768.593	762.19
768.776	713.03
768.959	700.75
769.142	760.14
769.324	704.84
769.507	762.19
769.69	764.23
769.873	674.12
770.056	747.85
770.239	790.86
770.421	753.99
770.604	672.08
770.787	682.31
770.97	698.7
771.152	647.5
771.335	756.04
771.518	631.12
771.7	780.62
771.883	676.17
772.066	721.23
772.248	721.23
772.431	721.23
772.613	653.64
772.796	735.56
772.978	641.36
773.161	706.89
773.343	692.55
773.526	665.93
773.708	557.39
773.891	598.35
774.073	663.88
774.256	629.07
774.438	696.65
774.621	534.86
774.803	624.97
774.985	631.12
775.168	678.22
775.35	565.58
775.532	635.21
775.715	569.68
775.897	567.63
776.079	567.63
776.261	627.02
776.444	618.83
776.626	594.25
776.808	624.97
776.99	518.48
777.173	618.83
777.355	602.44
777.537	622.92
777.719	622.92
777.901	543.05
778.083	549.2
778.265	424.27
778.447	475.47
778.629	512.33
778.811	512.33
778.993	452.94
779.175	481.61
779.357	479.57
779.539	450.89
779.721	418.13
779.903	561.48
780.085	442.7
780.267	493.9
780.449	518.48
780.631	459.09
780.812	475.47
780.994	483.66
781.176	471.37
781.358	405.84
781.54	418.13
781.721	557.39
781.903	481.61
782.085	432.46
782.267	467.28
782.448	403.79
782.63	401.74
782.812	403.79
782.993	467.28
783.175	385.36
783.357	444.75
783.538	459.09
783.72	387.41
783.901	426.32
784.083	457.04
784.264	442.7
784.446	305.49
784.627	401.74
784.809	383.31
784.99	444.75
785.172	360.78
785.353	354.64
785.535	414.03
785.716	360.78
785.897	256.34
786.079	377.17
786.26	297.3
786.441	375.12
786.623	299.34
786.804	315.73
786.985	385.36
787.167	332.11
787.348	491.85
787.529	422.22
787.71	346.45
787.891	450.89
788.073	276.82
788.254	397.65
788.435	403.79
788.616	278.87
788.797	237.91
788.978	330.06
789.159	323.92
789.34	377.17
789.522	192.85
789.703	266.58
789.884	293.2
790.065	311.63
790.246	434.51
790.427	258.39
790.607	338.26
790.788	364.88
790.969	246.1
791.15	336.21
791.331	338.26
791.512	305.49
791.693	217.43
791.874	315.73
792.054	379.22
792.235	317.78
792.416	291.15
792.597	201.04
792.778	293.2
792.958	262.48
793.139	321.87
793.32	311.63
793.5	174.42
793.681	325.97
793.862	299.34
794.042	248.15
794.223	289.1
794.404	248.15
794.584	235.86
794.765	203.09
794.945	311.63
795.126	254.29
795.306	272.72
795.487	192.85
795.667	233.81
795.848	268.63
796.028	258.39
796.209	203.09
796.389	211.28
796.57	207.19
796.75	213.33
796.93	192.85
797.111	207.19
797.291	196.95
797.471	213.33
797.652	160.08
797.832	158.03
798.012	237.91
798.192	123.22
798.373	135.51
798.553	217.43
798.733	158.03
798.913	155.99
799.093	231.76
799.274	239.95
799.454	203.09
799.634	217.43
799.814	201.04
799.994	260.43
800.174	213.33
800.354	250.19
800.534	125.27
800.714	231.76
800.894	196.95
801.074	196.95
801.254	168.27
801.434	223.57
801.614	262.48
801.794	180.56
801.974	1036.61
802.154	168.27
802.334	158.03
802.514	164.18
802.693	104.79
802.873	133.46
803.053	250.19
803.233	207.19
803.413	164.18
803.592	172.37
803.772	131.41
803.952	194.9
804.131	147.8
804.311	190.8
804.491	246.1
804.67	172.37
804.85	178.51
805.03	98.64
805.209	131.41
805.389	119.12
805.568	139.6
805.748	201.04
805.928	162.13
806.107	133.46
806.287	164.18
806.466	201.04
806.646	102.74
806.825	180.56
807.004	135.51
807.184	158.03
807.363	151.89
807.543	166.23
807.722	90.45
807.901	256.34
808.081	155.99
808.26	117.08
808.439	115.03
808.619	172.37
808.798	92.5
808.977	98.64
809.156	35.16
809.336	115.03
809.515	223.57
809.694	49.49
809.873	125.27
810.052	158.03
810.231	135.51
810.411	108.88
810.59	155.99
810.769	117.08
810.948	139.6
811.127	147.8
811.306	90.45
811.485	119.12
811.664	137.56
811.843	151.89
812.022	108.88
812.201	123.22
812.38	82.26
812.559	123.22
812.737	174.42
812.916	84.31
813.095	155.99
813.274	100.69
813.453	127.32
813.632	110.93
813.811	123.22
813.989	41.3
814.168	141.65
814.347	45.4
814.526	74.07
814.704	174.42
814.883	147.8
815.062	86.36
815.24	74.07
815.419	57.68
815.598	74.07
815.776	59.73
815.955	102.74
816.133	37.2
816.312	115.03
816.49	65.88
816.669	139.6
816.847	98.64
817.026	125.27
817.204	59.73
817.383	102.74
817.561	45.4
817.74	125.27
817.918	131.41
818.097	98.64
818.275	119.12
818.453	115.03
818.632	53.59
818.81	117.08
818.988	47.44
819.167	80.21
819.345	82.26
819.523	76.12
819.701	115.03
819.879	102.74
820.058	65.88
820.236	31.06
820.414	53.59
820.592	45.4
820.77	76.12
820.948	33.11
821.127	43.35
821.305	92.5
821.483	51.54
821.661	129.36
821.839	86.36
822.017	131.41
822.195	61.78
822.373	82.26
822.551	51.54
822.729	168.27
822.907	72.02
823.085	151.89
823.262	24.92
823.44	108.88
823.618	0.34
823.796	51.54
823.974	98.64
824.152	65.88
824.329	69.97
824.507	57.68
824.685	96.6
824.863	0.34
825.04	76.12
825.218	82.26
825.396	35.16
825.574	-5.8
825.751	80.21
825.929	86.36
826.107	33.11
826.284	53.59
826.462	90.45
826.639	86.36
826.817	2.39
826.994	24.92
827.172	31.06
827.349	92.5
827.527	90.45
827.704	92.5
827.882	35.16
828.059	43.35
828.237	53.59
828.414	33.11
828.591	-54.95
828.769	10.58
828.946	26.96
829.124	133.46
829.301	131.41
829.478	45.4
829.655	76.12
829.833	53.59
830.01	24.92
830.187	8.53
830.364	35.16
830.542	18.77
830.719	39.25
830.896	57.68
831.073	-7.85
831.25	153.94
831.427	98.64
831.604	47.44
831.782	-16.04
831.959	45.4
832.136	67.92
832.313	51.54
832.49	-7.85
832.667	4.44
832.844	63.83
833.021	145.75
833.198	61.78
833.374	106.84
833.551	67.92
833.728	123.22
833.905	51.54
834.082	-16.04
834.259	20.82
834.436	61.78
834.612	-28.33
834.789	29.01
834.966	35.16
835.143	59.73
835.319	-16.04
835.496	51.54
835.673	31.06
835.85	-3.75
836.026	-16.04
836.203	51.54
836.38	57.68
836.556	33.11
836.733	24.92
836.909	90.45
837.086	-1.71
837.262	49.49
837.439	102.74
837.616	49.49
837.792	10.58
837.968	16.73
838.145	-7.85
838.321	65.88
838.498	-48.81
838.674	96.6
838.851	104.79
839.027	-11.95
839.203	61.78
839.38	125.27
839.556	2.39
839.732	24.92
839.909	-22.19
840.085	24.92
840.261	-44.71
840.437	4.44
840.614	61.78
840.79	4.44
840.966	-9.9
841.142	12.63
841.318	-22.19
841.494	16.73
841.671	90.45
841.847	-16.04
842.023	29.01
842.199	10.58
842.375	-16.04
842.551	-48.81
842.727	-18.09
842.903	4.44
843.079	16.73
843.255	69.97
843.431	41.3
843.607	76.12
843.783	-16.04
843.959	45.4
844.134	84.31
844.31	115.03
844.486	39.25
844.662	-44.71
844.838	-7.85
845.013	98.64
845.189	90.45
845.365	49.49
845.541	22.87
845.716	16.73
845.892	-40.62
846.068	-65.19
846.244	-40.62
846.419	59.73
846.595	-7.85
846.77	2.39
846.946	-57
847.122	63.83
847.297	-11.95
847.473	49.49
847.648	24.92
847.824	2.39
847.999	-77.48
848.175	8.53
848.35	2.39
848.526	26.96
848.701	43.35
848.876	8.53
849.052	-5.8
849.227	41.3
849.403	65.88
849.578	-5.8
849.753	18.77
849.929	31.06
850.104	26.96
850.279	0.34
850.454	10.58
850.63	18.77
850.805	-34.47
850.98	65.88
851.155	4.44
851.33	82.26
851.505	-65.19
851.681	31.06
851.856	51.54
852.031	-28.33
852.206	67.92
852.381	-5.8
852.556	26.96
852.731	43.35
852.906	-11.95
853.081	29.01
853.256	-24.23
853.431	-1.71
853.606	35.16
853.781	33.11
853.956	0.34
854.131	14.68
854.305	-24.23
854.48	-46.76
854.655	-34.47
854.83	43.35
855.005	53.59
855.18	57.68
855.354	-20.14
855.529	51.54
855.704	16.73
855.879	8.53
856.053	0.34
856.228	74.07
856.403	-120.49
856.577	49.49
856.752	-57
856.926	69.97
857.101	2.39
857.276	-16.04
857.45	-46.76
857.625	47.44
857.799	20.82
857.974	4.44
858.148	-57
858.323	49.49
858.497	49.49
858.672	-48.81
858.846	-65.19
859.02	37.2
859.195	-16.04
859.369	-93.87
859.543	-1.71
859.718	57.68
859.892	-3.75
860.066	-7.85
860.241	35.16
860.415	-13.99
860.589	-24.23
860.763	-36.52
860.938	-22.19
861.112	-7.85
861.286	-13.99
861.46	43.35
861.634	37.2
861.808	35.16
861.982	-40.62
862.157	-13.99
862.331	22.87
862.505	8.53
862.679	-28.33
862.853	-5.8
863.027	-30.38
863.201	57.68
863.375	12.63
863.549	4.44
863.722	-5.8
863.896	24.92
864.07	-97.96
864.244	-20.14
864.418	6.49
864.592	4.44
864.766	16.73
864.939	53.59
865.113	0.34
865.287	-32.43
865.461	-24.23
865.634	41.3
865.808	-28.33
865.982	29.01
866.156	-3.75
866.329	-46.76
866.503	-28.33
866.676	90.45
866.85	-28.33
867.024	-16.04
867.197	4.44
867.371	-3.75
867.544	39.25
867.718	-48.81
867.891	20.82
868.065	-16.04
868.238	-28.33
868.412	2.39
868.585	-22.19
868.759	-52.91
868.932	-24.23
869.105	24.92
869.279	0.34
869.452	8.53
869.625	-24.23
869.799	-28.33
869.972	16.73
870.145	-32.43
870.319	6.49
870.492	0.34
870.665	45.4
870.838	-59.05
871.011	-16.04
871.185	-24.23
871.358	-54.95
871.531	33.11
871.704	-24.23
871.877	8.53
872.05	-48.81
872.223	-32.43
872.396	4.44
872.569	8.53
872.742	-89.77
872.915	65.88
873.088	-81.58
873.261	-57
873.434	53.59
873.607	0.34
873.78	74.07
873.953	-40.62
874.126	20.82
874.299	-26.28
874.471	10.58
874.644	8.53
874.817	4.44
874.99	94.55
875.163	-13.99
875.335	12.63
875.508	-40.62
875.681	-38.57
875.853	35.16
876.026	-7.85
876.199	-69.29
876.371	-3.75
876.544	-24.23
876.717	-34.47
876.889	-38.57
877.062	24.92
877.234	-73.39
877.407	0.34
877.579	0.34
877.752	-24.23
877.924	16.73
878.097	24.92
878.269	-52.91
878.442	-24.23
878.614	-65.19
878.786	2.39
878.959	-48.81
879.131	-44.71
879.303	-38.57
879.476	-22.19
879.648	-32.43
879.82	41.3
879.993	-73.39
880.165	37.2
880.337	-124.58
880.509	-13.99
880.681	-71.34
880.854	-97.96
881.026	49.49
881.198	117.08
881.37	2.39
881.542	-3.75
881.714	10.58
881.886	-16.04
882.058	-24.23
882.23	20.82
882.402	-22.19
882.574	10.58
882.746	39.25
882.918	-13.99
883.09	55.64
883.262	-22.19
883.434	20.82
883.606	-87.72
883.778	51.54
883.95	49.49
884.122	-24.23
884.293	82.26
884.465	2.39
884.637	33.11
884.809	-40.62
884.98	-46.76
885.152	35.16
885.324	26.96
885.496	-57
885.667	39.25
885.839	24.92
886.011	-5.8
886.182	-30.38
886.354	41.3
886.525	12.63
886.697	-65.19
886.869	-57
887.04	14.68
887.212	2.39
887.383	16.73
887.555	-36.52
887.726	33.11
887.897	-65.19
888.069	-1.71
888.24	-30.38
888.412	-32.43
888.583	-57
888.754	-65.19
888.926	-65.19
889.097	4.44
889.268	-20.14
889.44	10.58
889.611	-22.19
889.782	-52.91
889.953	-36.52
890.125	59.73
890.296	-97.96
890.467	-59.05
890.638	-44.71
890.809	-46.76
890.98	-1.71
891.151	-11.95
891.323	-22.19
891.494	59.73
891.665	-30.38
891.836	-44.71
892.007	-34.47
892.178	-7.85
892.349	-30.38
892.52	-3.75
892.691	18.77
892.862	12.63
893.032	18.77
893.203	-42.67
893.374	-13.99
893.545	-5.8
893.716	-87.72
893.887	33.11
894.057	-38.57
894.228	8.53
894.399	29.01
894.57	57.68
894.74	-65.19
894.911	29.01
895.082	-93.87
895.253	-9.9
895.423	12.63
895.594	41.3
895.764	-97.96
895.935	16.73
896.106	20.82
896.276	8.53
896.447	-52.91
896.617	-69.29
896.788	-89.77
896.958	49.49
897.129	-89.77
897.299	-50.86
897.47	41.3
897.64	10.58
897.81	-11.95
897.981	2.39
898.151	-59.05
898.322	10.58
898.492	63.83
898.662	-85.67
898.832	-38.57
899.003	-5.8
899.173	-13.99
899.343	-97.96
899.513	8.53
