Data from USB4F104151__271__14-34-38-778.txt Node

Date: Thu Mar 13 14:34:38 EDT 2025
User: louis
Spectrometer: USB4F10415
Trigger mode: 4
Integration Time (sec): 2.500000E-2
Scans to average: 1
Electric dark correction enabled: true
Nonlinearity correction enabled: false
Boxcar width: 0
XAxis mode: Wavelengths
Number of Pixels in Spectrum: 3648
>>>>>Begin Spectral Data<<<<<
178.204	-232.96
178.424	-232.96
178.644	-232.96
178.864	-210.43
179.084	-189.95
179.304	-50.69
179.524	-108.03
179.744	8.7
179.964	2.56
180.184	16.9
180.404	16.9
180.624	68.09
180.844	2.56
181.064	-48.64
181.283	43.52
181.503	-34.3
181.723	82.43
181.943	-99.84
182.163	55.81
182.383	10.75
182.602	49.66
182.822	51.71
183.042	14.85
183.262	53.76
183.482	-7.68
183.701	-26.11
183.921	-73.21
184.141	59.9
184.361	82.43
184.58	27.14
184.8	64
185.02	55.81
185.239	82.43
185.459	47.62
185.679	64
185.898	-75.26
186.118	55.81
186.338	-15.87
186.557	33.28
186.777	-7.68
186.997	-17.92
187.216	64
187.436	43.52
187.655	35.33
187.875	6.66
188.095	-17.92
188.314	33.28
188.534	102.91
188.753	-5.63
188.973	-40.45
189.192	43.52
189.412	18.94
189.631	-26.11
189.851	6.66
190.07	104.96
190.29	-11.78
190.509	-1.54
190.729	49.66
190.948	-3.58
191.168	88.57
191.387	-5.63
191.607	-17.92
191.826	31.23
192.045	-9.73
192.265	-40.45
192.484	49.66
192.704	23.04
192.923	-15.87
193.142	133.63
193.362	20.99
193.581	39.42
193.8	66.05
194.02	53.76
194.239	31.23
194.458	8.7
194.678	84.48
194.897	47.62
195.116	-42.5
195.335	23.04
195.555	-3.58
195.774	14.85
195.993	31.23
196.212	14.85
196.432	6.66
196.651	55.81
196.87	-9.73
197.089	80.38
197.308	88.57
197.528	12.8
197.747	-1.54
197.966	18.94
198.185	92.67
198.404	-1.54
198.623	-46.59
198.842	20.99
199.062	57.86
199.281	98.81
199.5	27.14
199.719	-48.64
199.938	-50.69
200.157	68.09
200.376	39.42
200.595	180.73
200.814	-17.92
201.033	-17.92
201.252	88.57
201.471	-56.83
201.69	84.48
201.909	-15.87
202.128	104.96
202.347	-9.73
202.566	98.81
202.785	-58.88
203.004	-15.87
203.223	141.82
203.442	14.85
203.661	-81.41
203.879	35.33
204.098	90.62
204.317	115.2
204.536	80.38
204.755	-26.11
204.974	39.42
205.193	29.18
205.411	141.82
205.63	49.66
205.849	59.9
206.068	-11.78
206.287	88.57
206.505	92.67
206.724	8.7
206.943	-5.63
207.162	31.23
207.381	27.14
207.599	16.9
207.818	-5.63
208.037	47.62
208.255	-32.26
208.474	14.85
208.693	31.23
208.911	45.57
209.13	-42.5
209.349	41.47
209.567	47.62
209.786	39.42
210.005	29.18
210.223	31.23
210.442	-71.17
210.661	12.8
210.879	-83.45
211.098	-7.68
211.316	39.42
211.535	72.19
211.753	-5.63
211.972	31.23
212.191	41.47
212.409	-26.11
212.628	-38.4
212.846	-34.3
213.065	4.61
213.283	31.23
213.502	-17.92
213.72	31.23
213.938	39.42
214.157	66.05
214.375	47.62
214.594	14.85
214.812	37.38
215.031	10.75
215.249	-1.54
215.467	23.04
215.686	14.85
215.904	59.9
216.122	49.66
216.341	14.85
216.559	39.42
216.778	41.47
216.996	31.23
217.214	-9.73
217.432	-17.92
217.651	27.14
217.869	-42.5
218.087	68.09
218.306	0.51
218.524	43.52
218.742	8.7
218.96	-1.54
219.179	55.81
219.397	6.66
219.615	113.15
219.833	2.56
220.051	29.18
220.27	74.24
220.488	20.99
220.706	82.43
220.924	-1.54
221.142	33.28
221.36	16.9
221.578	39.42
221.796	-1.54
222.015	78.33
222.233	-9.73
222.451	39.42
222.669	18.94
222.887	41.47
223.105	27.14
223.323	-17.92
223.541	-58.88
223.759	14.85
223.977	6.66
224.195	68.09
224.413	14.85
224.631	66.05
224.849	8.7
225.067	94.72
225.285	14.85
225.503	4.61
225.721	-24.06
225.939	55.81
226.157	35.33
226.375	82.43
226.592	-28.16
226.81	-40.45
227.028	88.57
227.246	109.05
227.464	49.66
227.682	33.28
227.9	14.85
228.117	-3.58
228.335	-9.73
228.553	6.66
228.771	14.85
228.989	-26.11
229.206	31.23
229.424	39.42
229.642	76.29
229.86	41.47
230.077	31.23
230.295	25.09
230.513	76.29
230.731	33.28
230.948	55.81
231.166	158.21
231.384	-28.16
231.601	-34.3
231.819	82.43
232.037	-26.11
232.254	-15.87
232.472	6.66
232.689	-28.16
232.907	10.75
233.125	-58.88
233.342	-7.68
233.56	6.66
233.777	-9.73
233.995	-1.54
234.213	47.62
234.43	18.94
234.648	27.14
234.865	-24.06
235.083	-5.63
235.3	80.38
235.518	64
235.735	76.29
235.953	27.14
236.17	41.47
236.388	-34.3
236.605	-1.54
236.822	80.38
237.04	59.9
237.257	88.57
237.475	-54.78
237.692	31.23
237.909	49.66
238.127	4.61
238.344	-13.82
238.562	20.99
238.779	-1.54
238.996	82.43
239.214	-7.68
239.431	102.91
239.648	-28.16
239.865	80.38
240.083	78.33
240.3	2.56
240.517	-17.92
240.735	27.14
240.952	43.52
241.169	35.33
241.386	-1.54
241.603	-46.59
241.821	-34.3
242.038	88.57
242.255	90.62
242.472	37.38
242.689	47.62
242.907	76.29
243.124	-3.58
243.341	6.66
243.558	18.94
243.775	-26.11
243.992	-38.4
244.209	-32.26
244.426	76.29
244.643	53.76
244.86	31.23
245.078	-7.68
245.295	-15.87
245.512	31.23
245.729	-36.35
245.946	-36.35
246.163	23.04
246.38	6.66
246.597	64
246.814	33.28
247.031	70.14
247.248	23.04
247.464	72.19
247.681	14.85
247.898	37.38
248.115	18.94
248.332	-24.06
248.549	-7.68
248.766	76.29
248.983	82.43
249.2	23.04
249.417	64
249.633	-1.54
249.85	41.47
250.067	37.38
250.284	41.47
250.501	-34.3
250.717	39.42
250.934	74.24
251.151	-7.68
251.368	-54.78
251.585	53.76
251.801	-9.73
252.018	-71.17
252.235	18.94
252.451	37.38
252.668	14.85
252.885	0.51
253.102	-44.54
253.318	-9.73
253.535	-22.02
253.752	59.9
253.968	-22.02
254.185	-38.4
254.401	23.04
254.618	98.81
254.835	-71.17
255.051	31.23
255.268	-22.02
255.484	59.9
255.701	25.09
255.917	27.14
256.134	-50.69
256.351	-1.54
256.567	47.62
256.784	31.23
257	2.56
257.217	6.66
257.433	-5.63
257.65	80.38
257.866	-15.87
258.082	-5.63
258.299	-11.78
258.515	78.33
258.732	33.28
258.948	-46.59
259.165	49.66
259.381	41.47
259.597	-11.78
259.814	35.33
260.03	39.42
260.246	-32.26
260.463	20.99
260.679	64
260.895	29.18
261.112	70.14
261.328	6.66
261.544	-26.11
261.761	64
261.977	57.86
262.193	-50.69
262.409	-58.88
262.626	16.9
262.842	27.14
263.058	-60.93
263.274	20.99
263.49	55.81
263.707	55.81
263.923	-42.5
264.139	-7.68
264.355	41.47
264.571	113.15
264.787	90.62
265.004	6.66
265.22	18.94
265.436	-13.82
265.652	-17.92
265.868	-11.78
266.084	-58.88
266.3	64
266.516	29.18
266.732	-11.78
266.948	37.38
267.164	6.66
267.38	90.62
267.596	-17.92
267.812	94.72
268.028	-56.83
268.244	-58.88
268.46	10.75
268.676	-99.84
268.892	2.56
269.108	6.66
269.324	-38.4
269.54	14.85
269.756	-28.16
269.972	-58.88
270.188	41.47
270.403	66.05
270.619	12.8
270.835	84.48
271.051	-17.92
271.267	-11.78
271.483	14.85
271.698	4.61
271.914	-1.54
272.13	-13.82
272.346	2.56
272.562	53.76
272.777	102.91
272.993	68.09
273.209	-19.97
273.425	23.04
273.64	-38.4
273.856	53.76
274.072	8.7
274.287	-75.26
274.503	-1.54
274.719	47.62
274.934	90.62
275.15	-17.92
275.366	-26.11
275.581	55.81
275.797	14.85
276.012	-15.87
276.228	64
276.444	43.52
276.659	23.04
276.875	55.81
277.09	-48.64
277.306	55.81
277.521	23.04
277.737	47.62
277.952	104.96
278.168	16.9
278.383	59.9
278.599	20.99
278.814	72.19
279.03	-34.3
279.245	84.48
279.461	-19.97
279.676	31.23
279.892	0.51
280.107	74.24
280.322	-30.21
280.538	47.62
280.753	4.61
280.969	14.85
281.184	-1.54
281.399	80.38
281.615	104.96
281.83	96.77
282.045	0.51
282.26	51.71
282.476	23.04
282.691	107.01
282.906	96.77
283.122	59.9
283.337	-22.02
283.552	64
283.767	-50.69
283.983	66.05
284.198	-30.21
284.413	88.57
284.628	-32.26
284.843	33.28
285.058	47.62
285.274	66.05
285.489	-1.54
285.704	98.81
285.919	-42.5
286.134	72.19
286.349	-77.31
286.564	-30.21
286.779	47.62
286.995	39.42
287.21	-81.41
287.425	35.33
287.64	25.09
287.855	43.52
288.07	-19.97
288.285	55.81
288.5	123.39
288.715	23.04
288.93	31.23
289.145	-30.21
289.36	68.09
289.575	31.23
289.79	-7.68
290.004	4.61
290.219	59.9
290.434	39.42
290.649	-9.73
290.864	-62.98
291.079	-19.97
291.294	53.76
291.509	64
291.724	-30.21
291.938	23.04
292.153	2.56
292.368	-1.54
292.583	57.86
292.798	88.57
293.012	6.66
293.227	55.81
293.442	0.51
293.657	0.51
293.871	27.14
294.086	66.05
294.301	27.14
294.516	-11.78
294.73	-42.5
294.945	23.04
295.16	2.56
295.374	47.62
295.589	16.9
295.804	27.14
296.018	70.14
296.233	80.38
296.447	31.23
296.662	0.51
296.877	47.62
297.091	-24.06
297.306	41.47
297.52	59.9
297.735	66.05
297.949	96.77
298.164	74.24
298.378	41.47
298.593	18.94
298.807	-52.74
299.022	49.66
299.236	16.9
299.451	-9.73
299.665	39.42
299.88	88.57
300.094	47.62
300.309	12.8
300.523	23.04
300.737	-3.58
300.952	10.75
301.166	16.9
301.381	4.61
301.595	-24.06
301.809	-9.73
302.024	-9.73
302.238	59.9
302.452	84.48
302.667	-32.26
302.881	70.14
303.095	43.52
303.309	8.7
303.524	0.51
303.738	39.42
303.952	-13.82
304.166	2.56
304.381	-24.06
304.595	68.09
304.809	76.29
305.023	0.51
305.237	39.42
305.452	49.66
305.666	-24.06
305.88	92.67
306.094	39.42
306.308	25.09
306.522	31.23
306.736	88.57
306.95	2.56
307.164	49.66
307.379	-40.45
307.593	88.57
307.807	43.52
308.021	80.38
308.235	-15.87
308.449	-15.87
308.663	2.56
308.877	111.1
309.091	2.56
309.305	57.86
309.519	-7.68
309.733	10.75
309.947	12.8
310.161	55.81
310.374	-1.54
310.588	74.24
310.802	39.42
311.016	-30.21
311.23	76.29
311.444	29.18
311.658	2.56
311.872	107.01
312.085	33.28
312.299	57.86
312.513	-1.54
312.727	96.77
312.941	-42.5
313.154	-1.54
313.368	2.56
313.582	-22.02
313.796	64
314.009	31.23
314.223	0.51
314.437	-26.11
314.651	25.09
314.864	-1.54
315.078	-30.21
315.292	66.05
315.505	74.24
315.719	47.62
315.933	0.51
316.146	51.71
316.36	-34.3
316.573	41.47
316.787	31.23
317.001	43.52
317.214	-54.78
317.428	31.23
317.641	2.56
317.855	31.23
318.068	-7.68
318.282	-30.21
318.495	94.72
318.709	33.28
318.922	90.62
319.136	113.15
319.349	55.81
319.563	90.62
319.776	49.66
319.99	2.56
320.203	-22.02
320.417	90.62
320.63	23.04
320.843	74.24
321.057	-5.63
321.27	-1.54
321.483	43.52
321.697	72.19
321.91	33.28
322.124	-9.73
322.337	16.9
322.55	-32.26
322.763	-3.58
322.977	10.75
323.19	61.95
323.403	55.81
323.617	64
323.83	35.33
324.043	-15.87
324.256	47.62
324.469	31.23
324.683	0.51
324.896	-30.21
325.109	33.28
325.322	6.66
325.535	72.19
325.748	8.7
325.962	16.9
326.175	113.15
326.388	29.18
326.601	12.8
326.814	51.71
327.027	16.9
327.24	76.29
327.453	-7.68
327.666	59.9
327.879	6.66
328.092	-17.92
328.305	94.72
328.518	49.66
328.731	-7.68
328.944	16.9
329.157	55.81
329.37	-22.02
329.583	100.86
329.796	47.62
330.009	-26.11
330.222	92.67
330.435	64
330.648	6.66
330.861	2.56
331.073	-3.58
331.286	18.94
331.499	59.9
331.712	-67.07
331.925	14.85
332.138	-30.21
332.35	64
332.563	14.85
332.776	57.86
332.989	-15.87
333.202	41.47
333.414	39.42
333.627	47.62
333.84	10.75
334.053	2.56
334.265	27.14
334.478	-15.87
334.691	29.18
334.903	55.81
335.116	-52.74
335.329	88.57
335.541	64
335.754	98.81
335.966	88.57
336.179	41.47
336.392	51.71
336.604	31.23
336.817	72.19
337.029	-1.54
337.242	55.81
337.454	16.9
337.667	10.75
337.88	72.19
338.092	100.86
338.305	64
338.517	6.66
338.729	35.33
338.942	64
339.154	6.66
339.367	20.99
339.579	35.33
339.792	43.52
340.004	8.7
340.217	18.94
340.429	35.33
340.641	-62.98
340.854	8.7
341.066	31.23
341.278	51.71
341.491	127.49
341.703	-17.92
341.915	31.23
342.128	23.04
342.34	80.38
342.552	14.85
342.764	31.23
342.977	49.66
343.189	59.9
343.401	66.05
343.613	-34.3
343.826	72.19
344.038	8.7
344.25	31.23
344.462	18.94
344.674	4.61
344.886	-5.63
345.099	33.28
345.311	39.42
345.523	-26.11
345.735	-22.02
345.947	-1.54
346.159	18.94
346.371	-50.69
346.583	0.51
346.795	88.57
347.007	-11.78
347.219	49.66
347.431	14.85
347.643	64
347.855	14.85
348.067	70.14
348.279	-50.69
348.491	61.95
348.703	129.53
348.915	-38.4
349.127	23.04
349.339	49.66
349.551	-22.02
349.763	72.19
349.975	-17.92
350.187	100.86
350.399	10.75
350.61	39.42
350.822	-9.73
351.034	-5.63
351.246	2.56
351.458	-7.68
351.669	39.42
351.881	49.66
352.093	137.73
352.305	96.77
352.517	68.09
352.728	59.9
352.94	-24.06
353.152	107.01
353.363	51.71
353.575	33.28
353.787	31.23
353.999	23.04
354.21	49.66
354.422	74.24
354.633	20.99
354.845	14.85
355.057	37.38
355.268	-56.83
355.48	119.29
355.692	-69.12
355.903	33.28
356.115	-1.54
356.326	-32.26
356.538	29.18
356.749	64
356.961	55.81
357.172	0.51
357.384	10.75
357.595	68.09
357.807	51.71
358.018	23.04
358.23	-34.3
358.441	64
358.653	162.3
358.864	-11.78
359.075	31.23
359.287	23.04
359.498	-15.87
359.709	-28.16
359.921	49.66
360.132	64
360.344	96.77
360.555	39.42
360.766	59.9
360.977	-1.54
361.189	88.57
361.4	88.57
361.611	104.96
361.823	98.81
362.034	-15.87
362.245	-54.78
362.456	72.19
362.667	100.86
362.879	31.23
363.09	14.85
363.301	80.38
363.512	-42.5
363.723	-7.68
363.935	49.66
364.146	74.24
364.357	10.75
364.568	31.23
364.779	39.42
364.99	27.14
365.201	92.67
365.412	104.96
365.623	-38.4
365.834	55.81
366.045	16.9
366.256	33.28
366.467	18.94
366.678	-11.78
366.889	35.33
367.1	25.09
367.311	8.7
367.522	-15.87
367.733	35.33
367.944	113.15
368.155	78.33
368.366	59.9
368.577	35.33
368.788	47.62
368.999	47.62
369.209	-26.11
369.42	104.96
369.631	76.29
369.842	31.23
370.053	57.86
370.264	31.23
370.474	59.9
370.685	31.23
370.896	-9.73
371.107	76.29
371.317	64
371.528	14.85
371.739	72.19
371.95	102.91
372.16	43.52
372.371	-26.11
372.582	6.66
372.792	53.76
373.003	76.29
373.214	-13.82
373.424	57.86
373.635	18.94
373.846	14.85
374.056	31.23
374.267	55.81
374.477	72.19
374.688	-19.97
374.898	29.18
375.109	2.56
375.319	-56.83
375.53	129.53
375.74	98.81
375.951	23.04
376.161	27.14
376.372	27.14
376.582	10.75
376.793	88.57
377.003	10.75
377.214	74.24
377.424	66.05
377.635	33.28
377.845	51.71
378.055	66.05
378.266	43.52
378.476	92.67
378.686	49.66
378.897	31.23
379.107	80.38
379.317	49.66
379.528	27.14
379.738	66.05
379.948	-22.02
380.158	66.05
380.369	12.8
380.579	96.77
380.789	59.9
380.999	55.81
381.21	51.71
381.42	121.34
381.63	31.23
381.84	55.81
382.05	104.96
382.261	96.77
382.471	66.05
382.681	-5.63
382.891	109.05
383.101	25.09
383.311	-24.06
383.521	29.18
383.731	33.28
383.941	57.86
384.151	4.61
384.361	88.57
384.571	102.91
384.781	43.52
384.991	100.86
385.201	150.01
385.411	82.43
385.621	35.33
385.831	55.81
386.041	57.86
386.251	41.47
386.461	45.57
386.671	-32.26
386.881	68.09
387.091	6.66
387.301	23.04
387.511	35.33
387.72	74.24
387.93	4.61
388.14	33.28
388.35	66.05
388.56	27.14
388.769	96.77
388.979	86.53
389.189	-9.73
389.399	-13.82
389.609	59.9
389.818	43.52
390.028	55.81
390.238	-24.06
390.447	-30.21
390.657	14.85
390.867	80.38
391.076	25.09
391.286	131.58
391.496	64
391.705	-46.59
391.915	115.2
392.125	49.66
392.334	2.56
392.544	88.57
392.753	59.9
392.963	47.62
393.172	43.52
393.382	23.04
393.591	100.86
393.801	88.57
394.01	139.77
394.22	90.62
394.429	53.76
394.639	43.52
394.848	43.52
395.058	-17.92
395.267	147.97
395.477	158.21
395.686	18.94
395.895	158.21
396.105	164.35
396.314	78.33
396.524	109.05
396.733	145.92
396.942	84.48
397.152	12.8
397.361	-38.4
397.57	4.61
397.78	123.39
397.989	64
398.198	137.73
398.407	72.19
398.617	109.05
398.826	90.62
399.035	23.04
399.244	64
399.453	27.14
399.663	80.38
399.872	64
400.081	23.04
400.29	68.09
400.499	109.05
400.708	131.58
400.917	55.81
401.127	23.04
401.336	18.94
401.545	203.26
401.754	90.62
401.963	88.57
402.172	109.05
402.381	57.86
402.59	47.62
402.799	100.86
403.008	100.86
403.217	139.77
403.426	137.73
403.635	109.05
403.844	96.77
404.053	96.77
404.262	113.15
404.471	121.34
404.68	113.15
404.888	145.92
405.097	117.25
405.306	145.92
405.515	156.16
405.724	170.49
405.933	188.93
406.142	107.01
406.35	88.57
406.559	137.73
406.768	199.16
406.977	188.93
407.185	170.49
407.394	236.03
407.603	107.01
407.812	193.02
408.02	248.32
408.229	227.84
408.438	182.78
408.646	178.69
408.855	219.64
409.064	240.12
409.272	266.75
409.481	279.04
409.69	231.93
409.898	317.95
410.107	338.43
410.315	279.04
410.524	301.56
410.733	287.23
410.941	334.33
411.15	403.96
411.358	342.52
411.567	352.76
411.775	354.81
411.984	365.05
412.192	424.44
412.401	315.9
412.609	457.21
412.818	461.3
413.026	446.97
413.234	516.6
413.443	516.6
413.651	475.64
413.86	502.26
414.068	582.14
414.276	598.52
414.485	571.9
414.693	672.25
414.901	670.2
415.11	627.19
415.318	653.81
415.526	696.82
415.734	719.35
415.943	768.5
416.151	754.16
416.359	748.02
416.567	764.4
416.776	846.32
416.984	920.05
417.192	977.39
417.4	883.19
417.608	948.72
417.817	881.14
418.025	1049.07
418.233	1085.94
418.441	950.77
418.649	975.35
418.857	1122.8
419.065	1231.34
419.273	1155.57
419.481	1264.11
419.689	1255.92
419.897	1329.64
420.105	1423.85
420.313	1386.99
420.521	1513.96
420.729	1567.21
420.937	1575.4
421.145	1602.02
421.353	1690.09
421.561	1696.23
421.769	1714.66
421.977	2019.81
422.185	2009.57
422.393	2095.58
422.601	2056.67
422.809	2114.02
423.017	2095.58
423.224	2175.45
423.432	2288.09
423.64	2400.73
423.848	2603.48
424.056	2447.83
424.263	2550.23
424.471	2574.81
424.679	2712.02
424.887	2771.41
425.094	2873.81
425.302	3006.93
425.51	2998.74
425.718	3074.51
425.925	3097.04
426.133	3238.35
426.341	3523.02
426.548	3551.69
426.756	3660.23
426.964	3660.23
427.171	3854.79
427.379	4028.87
427.586	3957.19
427.794	4024.77
428.001	4448.7
428.209	4483.52
428.417	4563.39
428.624	4901.3
428.832	4590.01
429.039	4688.31
429.247	4639.16
429.454	5071.28
429.662	5589.42
429.869	5241.26
430.076	5429.68
430.284	5269.94
430.491	5573.03
430.699	5904.81
430.906	5843.37
431.114	5964.2
431.321	6052.26
431.528	6386.08
431.736	6717.85
431.943	6799.77
432.15	6857.11
432.358	6859.16
432.565	7158.16
432.772	7260.56
432.979	7403.92
433.187	7698.83
433.394	7758.22
433.601	8329.6
433.808	8327.55
434.016	8339.84
434.223	8477.05
434.43	9017.72
434.637	8925.56
434.844	9394.54
435.052	9529.71
435.259	9681.26
435.466	9648.49
435.673	9515.37
435.88	10129.77
436.087	10684.76
436.294	10617.18
436.501	10412.39
436.708	10582.37
436.915	10985.82
437.122	11518.29
437.329	11383.12
437.537	11831.63
437.743	12085.58
437.95	11878.73
438.157	12448.07
438.364	12833.08
438.571	12931.39
438.778	12853.56
438.985	13967.66
439.192	13474.1
439.399	14108.97
439.606	13943.08
439.813	14799.13
440.02	15284.5
440.227	15028.51
440.433	14829.85
440.64	15530.26
440.847	15085.85
441.054	15601.94
441.261	16894.21
441.467	16445.7
441.674	16789.76
441.881	17344.76
442.088	17088.76
442.294	17156.35
442.501	17735.92
442.708	18102.51
442.914	18829.54
443.121	19495.13
443.328	18602.21
443.534	20170.96
443.741	19628.24
443.948	19333.34
444.154	20711.62
444.361	20854.98
444.568	20660.42
444.774	20920.51
444.981	21215.42
445.187	21452.98
445.394	22372.52
445.6	22423.72
445.807	24471.69
446.013	23367.84
446.22	23836.82
446.426	24850.56
446.633	25194.62
446.839	25878.65
447.046	24639.62
447.252	26132.59
447.459	26067.06
447.665	26079.35
447.871	27105.38
448.078	28211.28
448.284	26988.64
448.491	27566.17
448.697	28616.78
448.903	29378.62
449.11	29411.39
449.316	28842.06
449.522	29589.56
449.728	30216.24
449.935	30462
450.141	30079.03
450.347	31250.47
450.553	30113.84
450.76	30367.79
450.966	31488.03
451.172	31238.18
451.378	32055.32
451.584	31119.4
451.791	31907.87
451.997	31823.9
452.203	32600.08
452.409	32653.33
452.615	32477.2
452.821	31064.1
453.027	30763.05
453.233	32294.93
453.44	31219.75
453.646	31211.56
453.852	31776.8
454.058	32114.71
454.264	31096.87
454.47	31813.66
454.676	31090.73
454.882	32032.79
455.088	29354.05
455.294	29698.11
455.5	30253.11
455.705	30003.25
455.911	29405.25
456.117	28702.79
456.323	28008.53
456.529	26437.74
456.735	27875.41
456.941	27160.67
457.147	26656.87
457.352	25608.31
457.558	25624.7
457.764	25548.92
457.97	25264.25
458.176	24719.49
458.381	24391.82
458.587	23441.56
458.793	23169.18
458.999	22261.93
459.204	23429.27
459.41	22775.97
459.616	21385.4
459.821	21401.79
460.027	21598.39
460.233	21297.34
460.438	19837.14
460.644	20144.33
460.85	19300.57
461.055	18710.75
461.261	18864.35
461.466	17369.33
461.672	16572.68
461.878	18022.64
462.083	16623.87
462.289	16558.34
462.494	16204.04
462.7	15581.46
462.905	15216.92
463.111	15622.42
463.316	15661.33
463.522	15421.72
463.727	15300.89
463.932	15186.2
464.138	15079.71
464.343	15139.1
464.549	14817.57
464.754	15063.32
464.959	14885.15
465.165	14879
465.37	14268.71
465.575	13850.92
465.781	14580
465.986	14420.26
466.191	13973.8
466.397	13863.21
466.602	13193.53
466.807	13502.77
467.012	13400.37
467.218	13404.47
467.423	13273.4
467.628	13521.2
467.833	13844.78
468.038	13334.84
468.244	12851.52
468.449	13236.53
468.654	13185.33
468.859	12761.41
469.064	12695.87
469.269	12282.18
469.474	12345.67
469.679	12503.36
469.885	12179.78
470.09	12247.37
470.295	12355.91
470.5	12118.34
470.705	12196.17
470.91	11772.24
471.115	11692.37
471.32	11686.22
471.525	12050.76
471.73	11510.1
471.935	11219.28
472.139	11075.93
472.344	10963.29
472.549	10991.96
472.754	10901.85
472.959	10815.83
473.164	10658.14
473.369	10269.03
473.574	10664.29
473.778	10707.29
473.983	10498.4
474.188	10666.33
474.393	9947.5
474.598	10097
474.802	9847.15
475.007	9849.19
475.212	9754.99
475.417	9437.55
475.621	9460.08
475.826	9402.74
476.031	9511.28
476.235	9013.62
476.44	9339.25
476.645	9124.21
476.849	9079.16
477.054	8968.57
477.259	8825.21
477.463	9093.49
477.668	8657.28
477.872	8812.92
478.077	8616.32
478.282	8421.76
478.486	8239.49
478.691	8223.11
478.895	8221.06
479.1	8171.91
479.304	8335.74
479.509	7881.1
479.713	8057.22
479.918	7905.67
480.122	7698.83
480.326	8069.51
480.531	7973.25
480.735	7862.66
480.94	7612.81
481.144	7897.48
481.348	7559.56
481.553	7750.03
481.757	7584.14
481.961	7752.07
482.166	7784.84
482.37	7453.07
482.574	7510.41
482.778	7510.41
482.983	7854.47
483.187	7494.03
483.391	7674.25
483.595	7403.92
483.8	7401.87
484.004	7491.98
484.208	7600.52
484.412	7494.03
484.616	7668.11
484.821	7512.46
485.025	7436.69
485.229	7700.87
485.433	7487.89
485.637	7547.28
485.841	7233.94
486.045	7395.73
486.249	7473.55
486.453	7344.53
486.657	7440.78
486.861	7322
487.065	7358.86
487.269	7530.89
487.473	7350.67
487.677	7399.82
487.881	7608.72
488.085	7256.47
488.289	7346.58
488.493	7424.4
488.697	7561.61
488.901	7625.1
489.105	7578
489.309	7489.93
489.512	7442.83
489.716	7395.73
489.92	7532.94
490.124	7395.73
490.328	7514.51
490.531	7414.16
490.735	7504.27
490.939	7567.76
491.143	7633.29
491.346	7485.84
491.55	7625.1
491.754	7625.1
491.958	7528.85
492.161	7684.49
492.365	7885.19
492.569	7580.04
492.772	7674.25
492.976	7793.03
493.18	7733.64
493.383	7784.84
493.587	7870.86
493.79	7797.13
493.994	7717.26
494.197	7874.95
494.401	8085.89
494.605	8053.13
494.808	8198.53
495.012	7731.59
495.215	8083.84
495.419	8415.62
495.622	8085.89
495.825	8247.68
496.029	8214.91
496.232	8419.71
496.436	8325.5
496.639	8726.91
496.843	8575.36
497.046	8591.74
497.249	8690.04
497.453	8698.24
497.656	8987
497.859	8831.35
498.063	9093.49
498.266	9181.56
498.469	9027.96
498.673	9226.61
498.876	9232.76
499.079	9390.45
499.282	9498.99
499.485	9453.94
499.689	9656.68
499.892	9800.04
500.095	9515.37
500.298	10068.33
500.501	9918.82
500.705	10023.27
500.908	10189.16
501.111	10273.12
501.314	10303.84
501.517	10498.4
501.72	10582.37
501.923	10658.14
502.126	10824.03
502.329	10828.12
502.532	11020.63
502.735	10996.06
502.938	11176.28
503.141	11286.87
503.344	11389.27
503.547	11585.87
503.75	11589.97
503.953	11714.89
504.156	11921.74
504.359	11934.03
504.562	12134.73
504.765	12212.55
504.968	12351.81
505.17	12427.59
505.373	12622.14
505.576	12716.35
505.779	12663.1
505.982	12671.29
506.185	13250.87
506.387	13191.48
506.59	13211.96
506.793	13513.01
506.996	13635.89
507.198	13857.07
507.401	13687.09
507.604	13834.54
507.807	14410.02
508.009	14532.9
508.212	14240.04
508.415	14440.74
508.617	14733.6
508.82	14780.7
509.022	14864.67
509.225	15173.91
509.428	15417.62
509.63	15474.96
509.833	15593.75
510.035	15933.71
510.238	15784.21
510.44	16017.68
510.643	16009.48
510.845	16621.83
511.048	16247.05
511.25	16636.16
511.453	16517.38
511.655	17260.79
511.858	17000.7
512.06	17012.99
512.262	17340.66
512.465	17133.82
512.667	17602.8
512.87	17918.19
513.072	17823.98
513.274	18399.46
513.477	18385.13
513.679	18604.26
513.881	18677.99
514.084	18757.86
514.286	18862.3
514.488	18989.28
514.69	19761.36
514.893	19484.89
515.095	19640.53
515.297	19691.73
515.499	19837.14
515.701	20338.89
515.904	20232.4
516.106	20506.82
516.308	20926.66
516.51	20969.66
516.712	21031.1
516.914	21106.88
517.116	21196.99
517.318	21643.45
517.52	21688.5
517.722	21706.93
517.925	22182.06
518.127	22098.09
518.329	22481.06
518.531	21928.11
518.733	22724.77
518.935	22759.59
519.136	23097.5
519.338	23247.01
519.54	23171.23
519.742	23322.78
519.944	23500.95
520.146	23986.32
520.348	23447.71
520.55	24101.01
520.752	24248.46
520.954	24637.58
521.155	24117.39
521.357	24793.22
521.559	24707.21
521.761	25032.83
521.963	25055.36
522.164	25133.18
522.366	25139.33
522.568	25260.16
522.77	25550.97
522.971	26065.01
523.173	25573.5
523.375	25872.5
523.576	25884.79
523.778	25907.32
523.98	26048.63
524.181	25788.53
524.383	26366.06
524.584	26476.65
524.786	26327.15
524.988	25983.09
525.189	26656.87
525.391	26671.21
525.592	26632.3
525.794	26628.2
525.995	26789.99
526.197	26585.19
526.398	26564.71
526.6	26792.04
526.801	27244.64
527.003	26714.22
527.204	26851.43
527.406	27076.71
527.607	27033.7
527.808	26949.73
528.01	26882.15
528.211	26808.42
528.412	27242.59
528.614	27299.94
528.815	27037.8
529.016	27261.02
529.218	26837.09
529.419	27132
529.62	27463.77
529.822	26824.81
530.023	27431.01
530.224	26914.92
530.425	27005.03
530.626	26769.51
530.828	26644.59
531.029	27277.41
531.23	26501.23
531.431	26990.69
531.632	27080.8
531.833	26902.63
532.035	26974.31
532.236	26765.42
532.437	26931.3
532.638	26421.36
532.839	26714.22
533.04	26757.22
533.241	26433.64
533.442	26990.69
533.643	26515.56
533.844	26204.27
534.045	26671.21
534.246	26280.05
534.447	26470.51
534.648	26206.32
534.849	26124.4
535.05	26112.11
535.251	26384.49
535.451	26054.77
535.652	26052.72
535.853	26304.62
536.054	25901.17
536.255	26185.84
536.456	25880.69
536.657	26148.98
536.857	25866.36
537.058	25962.61
537.259	25809.01
537.46	25718.9
537.66	25696.38
537.861	25776.25
538.062	25729.14
538.263	25630.84
538.463	25620.6
538.664	25319.55
538.865	25440.38
539.065	25673.85
539.266	25286.78
539.466	25614.46
539.667	25100.42
539.868	25477.24
540.068	25079.94
540.269	25581.69
540.469	25405.56
540.67	25378.94
540.87	25372.8
541.071	25137.28
541.271	25297.02
541.472	24965.25
541.672	25084.03
541.873	25159.81
542.073	24516.75
542.274	25165.95
542.474	24752.26
542.675	25030.79
542.875	25172.1
543.075	25161.86
543.276	24633.48
543.476	25114.75
543.676	24909.96
543.877	25106.56
544.077	24776.84
544.277	25008.26
544.478	24828.04
544.678	25104.51
544.878	24998.02
545.078	24944.77
545.279	24524.94
545.479	24828.04
545.679	24836.23
545.879	24723.59
546.079	24965.25
546.28	24813.7
546.48	24858.76
546.68	24881.28
546.88	24795.27
547.08	24897.67
547.28	24912
547.48	25026.69
547.68	25014.4
547.88	24916.1
548.081	25233.53
548.281	24666.25
548.481	24856.71
548.681	25028.74
548.881	25178.24
549.081	25010.31
549.28	24498.31
549.48	25153.66
549.68	25163.9
549.88	25032.83
550.08	24948.87
550.28	25120.9
550.48	24856.71
550.68	25133.18
550.88	24877.19
551.08	25241.73
551.279	25155.71
551.479	24791.17
551.679	25059.46
551.879	24899.72
552.079	25243.77
552.278	25163.9
552.478	25170.05
552.678	25239.68
552.878	25569.4
553.077	25086.08
553.277	24807.56
553.477	25673.85
553.676	25409.66
553.876	25596.03
554.076	25364.6
554.275	25571.45
554.475	25176.19
554.674	25536.63
554.874	24950.92
555.074	25530.49
555.273	25372.8
555.473	25495.67
555.672	25100.42
555.872	25739.38
556.071	25698.42
556.271	25755.77
556.47	25489.53
556.67	25344.13
556.869	25743.48
557.068	25507.96
557.268	25434.24
557.467	25567.35
557.667	25831.54
557.866	25747.58
558.065	25694.33
558.265	25950.32
558.464	25575.55
558.663	25811.06
558.863	25507.96
559.062	25974.9
559.261	25825.4
559.461	26329.2
559.66	25454.72
559.859	26124.4
560.058	25440.38
560.258	25852.02
560.457	25847.93
560.656	25985.14
560.855	25671.8
561.054	25782.39
561.253	25696.38
561.453	26122.35
561.652	26177.65
561.851	25890.93
562.05	26017.91
562.249	25985.14
562.448	26179.7
562.647	25544.83
562.846	25598.07
563.045	26161.26
563.244	25735.29
563.443	26015.86
563.642	25565.31
563.841	25966.71
564.04	25643.13
564.239	25958.52
564.438	25620.6
564.637	25651.32
564.836	25747.58
565.035	25395.32
565.234	25710.71
565.432	25335.93
565.631	25305.21
565.83	25712.76
566.029	25428.09
566.228	25505.91
566.427	25362.56
566.625	25221.25
566.824	24830.09
567.023	25477.24
567.222	24928.39
567.42	25081.99
567.619	25135.23
567.818	24926.34
568.016	25243.77
568.215	25573.5
568.414	24965.25
568.612	24598.66
568.811	24666.25
569.01	24688.78
569.208	24623.24
569.407	24717.45
569.605	24479.88
569.804	24907.91
570.002	24526.99
570.201	24615.05
570.4	24651.91
570.598	24373.39
570.797	24227.98
570.995	24379.53
571.193	23931.03
571.392	24479.88
571.59	24062.1
571.789	24258.7
571.987	24123.54
572.186	23820.44
572.384	23550.1
572.582	23898.26
572.781	23769.24
572.979	23355.55
573.177	23535.77
573.376	23650.46
573.574	23361.69
573.772	23355.55
573.971	23359.64
574.169	23109.79
574.367	23031.97
574.565	23236.77
574.763	22948
574.962	22986.91
575.16	22735.01
575.358	22933.67
575.556	22427.82
575.754	22870.18
575.952	22405.29
576.151	22792.36
576.349	22390.95
576.547	22333.61
576.745	22448.3
576.943	22417.58
577.141	22218.92
577.339	22517.93
577.537	21973.17
577.735	21903.54
577.933	21831.86
578.131	22116.53
578.329	21829.81
578.527	21754.04
578.725	21600.44
578.923	21713.08
579.121	21776.56
579.319	21420.22
579.516	22003.89
579.714	21295.29
579.912	21266.62
580.11	20977.86
580.308	21264.57
580.506	21000.38
580.704	20814.02
580.901	21123.26
581.099	21000.38
581.297	20795.59
581.495	20795.59
581.692	21043.39
581.89	20625.61
582.088	20789.44
582.285	20388.04
582.483	20826.31
582.681	20771.01
582.878	20291.79
583.076	20457.67
583.274	20568.26
583.471	20347.08
583.669	20166.86
583.866	20181.2
584.064	20299.98
584.262	19865.81
584.459	20125.9
584.657	20019.41
584.854	20060.37
585.052	19771.6
585.249	19925.2
585.447	19787.99
585.644	19521.75
585.841	19896.53
586.039	19824.85
586.236	19656.92
586.434	19431.64
586.631	19613.91
586.828	19570.9
587.026	19486.93
587.223	19613.91
587.42	19249.37
587.618	19450.07
587.815	19210.46
588.012	19153.12
588.21	19321.05
588.407	19067.1
588.604	18944.22
588.801	18995.42
588.999	19056.86
589.196	18757.86
589.393	18825.44
589.59	18890.98
589.787	18938.08
589.984	18610.4
590.182	18833.63
590.379	18946.27
590.576	18829.54
590.773	18872.54
590.97	18921.7
591.167	18866.4
591.364	18610.4
591.561	18643.17
591.758	18639.08
591.955	18786.53
592.152	18698.47
592.349	18596.07
592.546	18372.84
592.743	18327.78
592.94	18288.87
593.137	18460.9
593.334	18655.46
593.531	18346.22
593.727	18634.98
593.924	18598.12
594.121	18168.04
594.318	18344.17
594.515	18206.95
594.712	18399.46
594.908	18290.92
595.105	18196.71
595.302	18069.74
595.499	18264.3
595.696	18338.02
595.892	18249.96
596.089	18118.89
596.286	18421.99
596.482	18317.54
596.679	18149.61
596.876	18467.05
597.072	18372.84
597.269	18338.02
597.466	18120.94
597.662	18331.88
597.859	18278.63
598.055	18241.77
598.252	18252.01
598.448	18348.26
598.645	18421.99
598.841	17981.68
599.038	18381.03
599.234	18602.21
599.431	18075.88
599.627	18303.21
599.824	18456.81
600.02	18309.35
600.217	18485.48
600.413	18174.19
600.609	18565.35
600.806	18571.49
601.002	18757.86
601.198	18454.76
601.395	18274.54
601.591	18534.63
601.787	18514.15
601.984	18716.9
602.18	18845.92
602.376	18600.16
602.572	18733.28
602.769	18673.89
602.965	18555.11
603.161	18798.82
603.357	18911.46
603.553	18858.21
603.75	18962.65
603.946	18884.83
604.142	19003.61
604.338	18862.3
604.534	19157.21
604.73	18759.91
604.926	18895.07
605.122	19036.38
605.318	19011.81
605.514	19030.24
605.71	19140.83
605.906	19187.93
606.102	19175.64
606.298	19339.48
606.494	19437.78
606.69	19339.48
606.886	19550.42
607.082	19345.62
607.278	19618
607.474	19380.44
607.67	19433.69
607.866	19742.93
608.062	19699.92
608.257	19626.2
608.453	19744.98
608.649	19826.9
608.845	19521.75
609.041	19794.13
609.236	19962.06
609.432	19902.67
609.628	19968.21
609.824	19726.55
610.019	20252.87
610.215	19994.83
610.411	20236.49
610.606	20136.14
610.802	20293.83
610.998	20369.61
611.193	20293.83
611.389	20322.51
611.584	20547.78
611.78	20062.41
611.976	20490.44
612.171	20474.06
612.367	20648.13
612.562	20377.8
612.758	20265.16
612.953	20441.29
613.149	20830.4
613.344	20404.42
613.539	20957.38
613.735	20500.68
613.93	20482.25
614.126	20801.73
614.321	20629.7
614.517	20541.64
614.712	20676.8
614.907	20539.59
615.103	20852.93
615.298	20945.09
615.493	21250.24
615.688	20650.18
615.884	21258.43
616.079	20736.2
616.274	21123.26
616.47	20992.19
616.665	20809.92
616.86	20897.99
617.055	20580.55
617.25	20799.68
617.445	21280.96
617.641	20869.31
617.836	20830.4
618.031	20596.93
618.226	20986.05
618.421	20691.14
618.616	20676.8
618.811	20506.82
619.006	20885.7
619.201	20224.2
619.396	20957.38
619.591	20136.14
619.786	20631.75
619.981	20304.07
620.176	20537.54
620.371	20306.12
620.566	20453.58
620.761	20097.23
620.956	20453.58
621.151	20193.48
621.346	20142.28
621.541	19933.39
621.735	20121.8
621.93	19833.04
622.125	20216.01
622.32	19587.29
622.515	19802.32
622.709	19704.02
622.904	19441.88
623.099	19302.62
623.294	19517.65
623.488	19151.07
623.683	19247.32
623.878	18907.36
624.072	19253.47
624.267	19069.15
624.462	18893.02
624.656	18714.85
624.851	18768.1
625.046	18505.96
625.24	18551.01
625.435	18305.26
625.629	18458.85
625.824	18157.8
626.018	18180.33
626.213	17963.25
626.407	18153.71
626.602	17883.38
626.796	18012.4
626.991	18043.12
627.185	17895.66
627.38	17453.3
627.574	17570.04
627.768	17602.8
627.963	17471.73
628.157	17324.28
628.352	17441.01
628.546	16879.87
628.74	17266.94
628.935	17084.67
629.129	17172.73
629.323	16875.77
629.517	16963.84
629.712	16945.41
629.906	16843.01
630.1	16654.59
630.294	16732.42
630.489	16351.49
630.683	16484.61
630.877	16120.07
631.071	16017.68
631.265	16193.8
631.459	16136.46
631.653	16005.39
631.848	15857.93
632.042	15739.15
632.236	15982.86
632.43	15591.7
632.624	15771.92
632.818	15581.46
633.012	15683.86
633.206	15538.45
633.4	15165.72
633.594	15485.2
633.788	15333.65
633.982	15395.09
634.176	14895.39
634.369	15036.7
634.563	14879
634.757	14788.89
634.951	14999.84
635.145	14571.81
635.339	14575.91
635.533	14610.72
635.726	14530.85
635.92	14227.75
636.114	14420.26
636.308	14166.31
636.501	14385.44
636.695	14260.52
636.889	13723.95
637.083	13766.96
637.276	13869.36
637.47	13590.83
637.664	13500.72
637.857	13556.02
638.051	13662.51
638.244	13451.57
638.438	13338.93
638.632	13441.33
638.825	13025.59
639.019	12947.77
639.212	12874.04
639.406	13103.42
639.599	12904.76
639.793	12775.74
639.986	12417.35
640.18	12632.38
640.373	12519.74
640.567	12618.05
640.76	12499.27
640.954	12013.9
641.147	12278.08
641.34	12110.15
641.534	12222.79
641.727	11919.69
641.92	11907.4
642.114	11886.92
642.307	11647.31
642.5	11778.38
642.694	11729.23
642.887	11450.71
643.08	11465.04
643.273	11542.86
643.467	11237.72
643.66	11090.26
643.853	11184.47
644.046	11280.72
644.239	11260.24
644.432	11204.95
644.626	10994.01
644.819	11000.15
645.012	10815.83
645.205	11034.97
645.398	10838.36
645.591	10662.24
645.784	10402.15
645.977	10355.04
646.17	10484.06
646.363	10412.39
646.556	10412.39
646.749	10232.16
646.942	10252.64
647.135	10109.29
647.328	10101.09
647.521	10103.14
647.714	9836.91
647.907	10058.09
648.099	9800.04
648.292	10070.37
648.485	9666.92
648.678	9843.05
648.871	9492.85
649.064	9472.37
649.256	9619.82
649.449	9417.07
649.642	9335.15
649.835	9396.59
650.027	9329.01
650.22	9218.42
650.413	9159.03
650.605	9273.71
650.798	9101.69
650.991	8870.26
651.183	8862.07
651.376	8798.59
651.568	8907.13
651.761	8790.39
651.954	8864.12
652.146	8835.45
652.339	8800.63
652.531	8599.93
652.724	8481.15
652.916	8472.96
653.109	8599.93
653.301	8370.56
653.494	8677.76
653.686	8485.25
653.879	8233.35
654.071	8214.91
654.263	8149.38
654.456	8073.6
654.648	8180.1
654.84	7887.24
655.033	8051.08
655.225	7946.63
655.417	7745.93
655.61	7821.7
655.802	7985.54
655.994	7965.06
656.186	7690.63
656.379	7715.21
656.571	7641.48
656.763	7799.18
656.955	7653.77
657.148	7621
657.34	7661.96
657.532	7491.98
657.724	7448.97
657.916	7358.86
658.108	7534.99
658.3	7291.28
658.492	7233.94
658.684	7260.56
658.876	7260.56
659.068	7014.8
659.26	7086.48
659.452	7156.11
659.644	7096.72
659.836	6924.69
660.028	7043.48
660.22	6865.3
660.412	6887.83
660.604	6891.93
660.796	6855.06
660.988	6719.9
661.18	6832.54
661.372	6459.81
661.563	6635.93
661.755	6558.11
661.947	6566.3
662.139	6715.8
662.331	6431.13
662.522	6285.73
662.714	6396.32
662.906	6480.29
663.097	6304.16
663.289	6240.67
663.481	6306.21
663.673	6285.73
663.864	6021.54
664.056	6125.99
664.247	6171.04
664.439	6027.68
664.631	6101.41
664.822	6029.73
665.014	6187.43
665.205	5876.13
665.397	5947.81
665.588	5880.23
665.78	5753.26
665.971	5888.42
666.163	5798.31
666.354	5781.93
666.546	5757.35
666.737	5618.09
666.929	5759.4
667.12	5462.44
667.311	5560.75
667.503	5392.81
667.694	5620.14
667.885	5487.02
668.077	5585.32
668.268	5423.53
668.459	5534.12
668.651	5362.09
668.842	5433.77
669.033	5335.47
669.224	5259.7
669.416	5382.57
669.607	5325.23
669.798	5257.65
669.989	5366.19
670.18	5233.07
670.371	5167.54
670.563	5251.5
670.754	5134.77
670.945	5069.23
671.136	5044.66
671.327	5163.44
671.518	5188.02
671.709	5118.39
671.9	5134.77
672.091	5138.87
672.282	5063.09
672.473	5056.95
672.664	5009.84
672.855	4960.69
673.046	4909.49
673.237	4889.01
673.428	4966.84
673.619	4862.39
673.809	4891.06
674	4823.48
674.191	4940.21
674.382	4874.68
674.573	4770.23
674.764	4712.89
674.954	4854.2
675.145	4899.25
675.336	4725.18
675.527	4864.44
675.717	4841.91
675.908	4637.11
676.099	4657.59
676.289	4825.53
676.48	4735.42
676.671	4661.69
676.861	4735.42
677.052	4618.68
677.243	4602.3
677.433	4755.9
677.624	4663.74
677.814	4614.59
678.005	4651.45
678.195	4520.38
678.386	4684.22
678.576	4622.78
678.767	4612.54
678.957	4667.83
679.148	4598.2
679.338	4645.31
679.529	4573.63
679.719	4590.01
679.909	4536.76
680.1	4544.95
680.29	4512.19
680.481	4637.11
680.671	4458.94
680.861	4598.2
681.052	4676.02
681.242	4585.91
681.432	4590.01
681.622	4536.76
681.813	4499.9
682.003	4626.87
682.193	4338.11
682.383	4602.3
682.573	4520.38
682.764	4440.51
682.954	4471.23
683.144	4499.9
683.334	4510.14
683.524	4368.83
683.714	4368.83
683.904	4504
684.094	4530.62
684.284	4604.35
684.474	4542.91
684.664	4487.61
684.854	4504
685.044	4248
685.234	4420.03
685.424	4413.88
685.614	4200.9
685.804	4368.83
685.994	4372.93
686.184	4424.12
686.374	4319.68
686.564	4346.3
686.753	4499.9
686.943	4407.74
687.133	4293.05
687.323	4430.27
687.513	4401.6
687.702	4329.92
687.892	4207.04
688.082	4321.73
688.272	4327.87
688.461	4213.18
688.651	4411.84
688.841	4276.67
689.03	4364.73
689.22	4260.29
689.41	4110.79
689.599	4254.14
689.789	4274.62
689.979	4252.1
690.168	4215.23
690.358	4215.23
690.547	4282.81
690.737	4155.84
690.926	4190.66
691.116	4026.82
691.305	4241.86
691.495	4110.79
691.684	3930.56
691.874	4127.17
692.063	4143.55
692.252	4102.59
692.442	4082.11
692.631	4065.73
692.82	4043.2
693.01	4125.12
693.199	4045.25
693.388	3963.33
693.578	3951.04
693.767	3998.15
693.956	3899.84
694.146	4139.46
694.335	3987.91
694.524	3918.28
694.713	3965.38
694.902	3885.51
695.092	3885.51
695.281	3901.89
695.47	4004.29
695.659	3809.73
695.848	3918.28
696.037	3922.37
696.226	3860.93
696.415	3942.85
696.604	4037.06
696.793	3824.07
696.982	3895.75
697.171	3893.7
697.36	3891.65
697.549	3873.22
697.738	3754.44
697.927	3910.08
698.116	3891.65
698.305	3809.73
698.494	3733.96
698.683	3766.73
698.872	3742.15
699.061	3701.19
699.25	3840.45
699.438	3865.03
699.627	3787.21
699.816	3643.85
700.005	3799.49
700.193	3561.93
700.382	3793.35
700.571	3856.84
700.76	3643.85
700.948	3680.71
701.137	3742.15
701.326	3635.66
701.514	3766.73
701.703	3772.87
701.892	3690.95
702.08	3658.18
702.269	3629.51
702.457	3594.7
702.646	3592.65
702.834	3506.63
703.023	3758.53
703.212	3553.74
703.4	3621.32
703.589	3445.2
703.777	3668.42
703.965	3516.87
704.154	3553.74
704.342	3545.55
704.531	3531.21
704.719	3488.2
704.907	3451.34
705.096	3492.3
705.284	3398.09
705.472	3430.86
705.661	3527.11
705.849	3385.8
706.037	3410.38
706.226	3480.01
706.414	3445.2
706.602	3523.02
706.79	3441.1
706.979	3402.19
707.167	3389.9
707.355	3305.93
707.543	3443.15
707.731	3545.55
707.919	3441.1
708.107	3332.56
708.296	3277.26
708.484	3353.04
708.672	3357.13
708.86	3275.21
709.048	3146.19
709.236	3201.49
709.424	3271.12
709.612	3224.01
709.8	3258.83
709.988	3162.58
710.176	3176.91
710.364	3279.31
710.551	3209.68
710.739	3189.2
710.927	3195.34
711.115	3162.58
711.303	3162.58
711.491	3138
711.679	3064.27
711.866	3258.83
712.054	3138
712.242	3199.44
712.43	3250.64
712.617	3131.86
712.805	3099.09
712.993	3201.49
713.181	3004.88
713.368	3066.32
713.556	3127.76
713.744	3056.08
713.931	3068.37
714.119	3201.49
714.306	3094.99
714.494	3015.12
714.682	3074.51
714.869	2947.54
715.057	3017.17
715.244	2949.59
715.432	3094.99
715.619	2976.21
715.807	2965.97
715.994	2855.38
716.182	3033.55
716.369	3013.07
716.556	3070.42
716.744	2908.63
716.931	2800.09
717.119	2974.16
717.306	2898.39
717.493	2906.58
717.681	2861.52
717.868	2890.2
718.055	2877.91
718.242	2931.16
718.43	2871.76
718.617	2933.2
718.804	2869.72
718.991	2714.07
719.179	2855.38
719.366	2884.05
719.553	2769.37
719.74	2783.7
719.927	2748.89
720.114	2714.07
720.301	2746.84
720.488	2636.25
720.676	2777.56
720.863	2687.45
721.05	2726.36
721.237	2816.47
721.424	2744.79
721.611	2640.34
721.798	2669.02
721.985	2611.67
722.172	2636.25
722.358	2705.88
722.545	2636.25
722.732	2638.3
722.919	2671.06
723.106	2642.39
723.293	2587.1
723.48	2558.42
723.667	2566.62
723.853	2640.34
724.04	2636.25
724.227	2554.33
724.414	2509.27
724.6	2550.23
724.787	2564.57
724.974	2656.73
725.161	2550.23
725.347	2537.95
725.534	2542.04
725.72	2501.08
725.907	2451.93
726.094	2671.06
726.28	2529.75
726.467	2408.92
726.653	2480.6
726.84	2480.6
727.027	2507.23
727.213	2458.07
727.4	2384.35
727.586	2611.67
727.773	2425.31
727.959	2572.76
728.145	2439.64
728.332	2378.2
728.518	2402.78
728.705	2472.41
728.891	2341.34
729.077	2417.12
729.264	2408.92
729.45	2294.24
729.636	2417.12
729.823	2343.39
730.009	2415.07
730.195	2314.72
730.382	2333.15
730.568	2417.12
730.754	2376.16
730.94	2240.99
731.126	2406.88
731.313	2415.07
731.499	2251.23
731.685	2300.38
731.871	2374.11
732.057	2263.52
732.243	2277.85
732.429	2314.72
732.615	2316.76
732.801	2263.52
732.987	2234.85
733.173	2284
733.359	2212.32
733.545	2136.54
733.731	2228.7
733.917	2259.42
734.103	2251.23
734.289	2197.98
734.475	2150.88
734.661	2308.57
734.847	2243.04
735.033	2292.19
735.219	2136.54
735.404	2218.46
735.59	2265.57
735.776	2265.57
735.962	2177.5
736.148	2185.69
736.333	2152.93
736.519	2171.36
736.705	2140.64
736.89	2101.73
737.076	2103.78
737.262	2130.4
737.447	2058.72
737.633	2128.35
737.819	2034.14
738.004	2007.52
738.19	2097.63
738.375	2185.69
738.561	2138.59
738.747	2093.54
738.932	2091.49
739.118	2230.75
739.303	2042.34
739.489	2077.15
739.674	2038.24
739.859	2015.71
740.045	2122.21
740.23	2046.43
740.416	1800.68
740.601	2046.43
740.786	2013.67
740.972	1892.84
741.157	2085.34
741.342	1980.9
741.528	2013.67
741.713	1966.56
741.898	2005.47
742.084	1997.28
742.269	2028
742.454	1870.31
742.639	2087.39
742.824	2005.47
743.01	1825.25
743.195	1898.98
743.38	1901.03
743.565	1819.11
743.75	1817.06
743.935	1720.81
744.12	1796.58
744.305	1753.57
744.49	1837.54
744.675	1792.48
744.86	1808.87
745.045	1790.44
745.23	1761.77
745.415	1685.99
745.6	1743.33
745.785	1681.89
745.97	1784.29
746.155	1751.53
746.34	1821.16
746.525	1612.26
746.71	1737.19
746.895	1731.05
747.079	1696.23
747.264	1675.75
747.449	1733.09
747.634	1642.98
747.819	1579.5
748.003	1567.21
748.188	1577.45
748.373	1620.46
748.557	1565.16
748.742	1542.63
748.927	1604.07
749.111	1677.8
749.296	1581.54
749.481	1573.35
749.665	1556.97
749.85	1495.53
750.034	1579.5
750.219	1403.37
750.404	1462.76
750.588	1468.91
750.773	1391.08
750.957	1477.1
751.141	1429.99
751.326	1429.99
751.51	1395.18
751.695	1350.12
751.879	1321.45
752.064	1432.04
752.248	1358.32
752.432	1384.94
752.617	1403.37
752.801	1374.7
752.985	1325.55
753.17	1300.97
753.354	1407.47
753.538	1341.93
753.722	1313.26
753.907	1300.97
754.091	1423.85
754.275	1368.56
754.459	1253.87
754.643	1268.2
754.828	1188.33
755.012	1270.25
755.196	1255.92
755.38	1223.15
755.564	1120.75
755.748	1300.97
755.932	1239.53
756.116	1137.13
756.3	1204.72
756.484	1124.85
756.668	1122.8
756.852	1153.52
757.036	1206.77
757.22	1133.04
757.404	1163.76
757.588	1186.29
757.772	1180.14
757.956	1171.95
758.14	1104.37
758.323	1057.26
758.507	1081.84
758.691	1055.22
758.875	1071.6
759.059	1149.42
759.242	1118.7
759.426	975.35
759.61	1042.93
759.794	1055.22
759.977	1083.89
760.161	1174
760.345	977.39
760.528	1071.6
760.712	1038.83
760.895	1071.6
761.079	956.91
761.263	973.3
761.446	924.15
761.63	1006.06
761.813	954.87
761.997	821.75
762.18	1006.06
762.364	950.77
762.547	1008.11
762.731	1026.54
762.914	905.71
763.098	934.39
763.281	866.8
763.464	899.57
763.648	934.39
763.831	954.87
764.015	901.62
764.198	975.35
764.381	936.43
764.564	885.23
764.748	932.34
764.931	858.61
765.114	813.56
765.297	866.8
765.481	838.13
765.664	887.28
765.847	842.23
766.03	905.71
766.213	866.8
766.397	795.12
766.58	860.66
766.763	934.39
766.946	846.32
767.129	741.88
767.312	729.59
767.495	821.75
767.678	797.17
767.861	829.94
768.044	862.71
768.227	901.62
768.41	858.61
768.593	834.04
768.776	866.8
768.959	756.21
769.142	768.5
769.324	817.65
769.507	907.76
769.69	858.61
769.873	737.78
770.056	915.95
770.239	719.35
770.421	768.5
770.604	862.71
770.787	752.12
770.97	788.98
771.152	737.78
771.335	791.03
771.518	754.16
771.7	850.42
771.883	758.26
772.066	768.5
772.248	786.93
772.431	707.06
772.613	786.93
772.796	647.67
772.978	725.49
773.161	752.12
773.343	752.12
773.526	723.44
773.708	645.62
773.891	711.16
774.073	670.2
774.256	664.05
774.438	694.77
774.621	735.73
774.803	707.06
774.985	674.29
775.168	729.59
775.35	678.39
775.532	719.35
775.715	551.42
775.897	696.82
776.079	676.34
776.261	662.01
776.444	639.48
776.626	711.16
776.808	586.23
776.99	639.48
777.173	639.48
777.355	625.14
777.537	651.77
777.719	633.33
777.901	590.33
778.083	582.14
778.265	510.46
778.447	578.04
778.629	547.32
778.811	629.24
778.993	565.75
779.175	555.51
779.357	555.51
779.539	498.17
779.721	571.9
779.903	600.57
780.085	555.51
780.267	596.47
780.449	465.4
780.631	547.32
780.812	520.7
780.994	434.68
781.176	483.83
781.358	485.88
781.54	559.61
781.721	557.56
781.903	489.98
782.085	498.17
782.267	455.16
782.448	424.44
782.63	516.6
782.812	571.9
782.993	567.8
783.175	442.87
783.357	494.07
783.538	426.49
783.72	475.64
783.901	449.02
784.083	475.64
784.264	436.73
784.446	465.4
784.627	446.97
784.809	379.39
784.99	395.77
785.172	457.21
785.353	457.21
785.535	498.17
785.716	446.97
785.897	397.82
786.079	440.83
786.26	375.29
786.441	459.26
786.623	354.81
786.804	426.49
786.985	375.29
787.167	489.98
787.348	465.4
787.529	403.96
787.71	369.15
787.891	422.39
788.073	363
788.254	336.38
788.435	424.44
788.616	410.11
788.797	268.8
788.978	324.09
789.159	317.95
789.34	383.48
789.522	344.57
789.703	322.04
789.884	410.11
790.065	365.05
790.246	326.14
790.427	406.01
790.607	469.5
790.788	338.43
790.969	295.42
791.15	297.47
791.331	293.37
791.512	276.99
791.693	293.37
791.874	385.53
792.054	360.95
792.235	385.53
792.416	295.42
792.597	244.22
792.778	344.57
792.958	387.58
793.139	195.07
793.32	334.33
793.5	283.13
793.681	350.71
793.862	248.32
794.042	309.76
794.223	145.92
794.404	258.56
794.584	215.55
794.765	334.33
794.945	285.18
795.126	272.89
795.306	279.04
795.487	311.8
795.667	229.88
795.848	287.23
796.028	217.6
796.209	289.28
796.389	219.64
796.57	252.41
796.75	182.78
796.93	272.89
797.111	203.26
797.291	258.56
797.471	285.18
797.652	270.84
797.832	264.7
798.012	285.18
798.192	233.98
798.373	227.84
798.553	238.08
798.733	117.25
798.913	272.89
799.093	195.07
799.274	223.74
799.454	213.5
799.634	244.22
799.814	244.22
799.994	195.07
800.174	244.22
800.354	205.31
800.534	205.31
800.714	217.6
800.894	109.05
801.074	180.73
801.254	244.22
801.434	174.59
801.614	195.07
801.794	180.73
801.974	965.11
802.154	164.35
802.334	186.88
802.514	231.93
802.693	188.93
802.873	213.5
803.053	207.36
803.233	174.59
803.413	178.69
803.592	190.97
803.772	143.87
803.952	219.64
804.131	203.26
804.311	172.54
804.491	227.84
804.67	180.73
804.85	174.59
805.03	162.3
805.209	164.35
805.389	170.49
805.568	197.12
805.748	131.58
805.928	236.03
806.107	209.4
806.287	164.35
806.466	186.88
806.646	231.93
806.825	184.83
807.004	154.11
807.184	219.64
807.363	217.6
807.543	147.97
807.722	178.69
807.901	172.54
808.081	154.11
808.26	94.72
808.439	180.73
808.619	162.3
808.798	16.9
808.977	223.74
809.156	233.98
809.336	170.49
809.515	139.77
809.694	133.63
809.873	84.48
810.052	162.3
810.231	242.17
810.411	227.84
810.59	129.53
810.769	139.77
810.948	119.29
811.127	82.43
811.306	172.54
811.485	203.26
811.664	178.69
811.843	100.86
812.022	80.38
812.201	227.84
812.38	170.49
812.559	129.53
812.737	141.82
812.916	123.39
813.095	109.05
813.274	127.49
813.453	115.2
813.632	180.73
813.811	137.73
813.989	125.44
814.168	193.02
814.347	92.67
814.526	166.4
814.704	121.34
814.883	197.12
815.062	10.75
815.24	104.96
815.419	133.63
815.598	195.07
815.776	96.77
815.955	115.2
816.133	55.81
816.312	74.24
816.49	137.73
816.669	100.86
816.847	123.39
817.026	64
817.204	152.06
817.383	102.91
817.561	72.19
817.74	115.2
817.918	178.69
818.097	156.16
818.275	66.05
818.453	121.34
818.632	115.2
818.81	96.77
818.988	90.62
819.167	123.39
819.345	121.34
819.523	121.34
819.701	84.48
819.879	72.19
820.058	78.33
820.236	80.38
820.414	139.77
820.592	41.47
820.77	121.34
820.948	35.33
821.127	14.85
821.305	88.57
821.483	57.86
821.661	141.82
821.839	68.09
822.017	49.66
822.195	84.48
822.373	109.05
822.551	6.66
822.729	72.19
822.907	80.38
823.085	76.29
823.262	92.67
823.44	92.67
823.618	64
823.796	96.77
823.974	109.05
824.152	100.86
824.329	113.15
824.507	113.15
824.685	104.96
824.863	98.81
825.04	51.71
825.218	131.58
825.396	49.66
825.574	141.82
825.751	98.81
825.929	57.86
826.107	39.42
826.284	39.42
826.462	92.67
826.639	88.57
826.817	39.42
826.994	113.15
827.172	64
827.349	125.44
827.527	88.57
827.704	76.29
827.882	119.29
828.059	31.23
828.237	39.42
828.414	57.86
828.591	2.56
828.769	90.62
828.946	82.43
829.124	100.86
829.301	123.39
829.478	90.62
829.655	64
829.833	43.52
830.01	96.77
830.187	121.34
830.364	76.29
830.542	125.44
830.719	88.57
830.896	125.44
831.073	82.43
831.25	137.73
831.427	121.34
831.604	68.09
831.782	51.71
831.959	72.19
832.136	18.94
832.313	-13.82
832.49	127.49
832.667	100.86
832.844	6.66
833.021	70.14
833.198	35.33
833.374	76.29
833.551	80.38
833.728	57.86
833.905	74.24
834.082	55.81
834.259	80.38
834.436	86.53
834.612	-48.64
834.789	166.4
834.966	49.66
835.143	6.66
835.319	-40.45
835.496	68.09
835.673	78.33
835.85	74.24
836.026	90.62
836.203	49.66
836.38	41.47
836.556	88.57
836.733	55.81
836.909	109.05
837.086	86.53
837.262	51.71
837.439	70.14
837.616	123.39
837.792	31.23
837.968	27.14
838.145	31.23
838.321	49.66
838.498	94.72
838.674	27.14
838.851	16.9
839.027	31.23
839.203	117.25
839.38	139.77
839.556	6.66
839.732	66.05
839.909	-15.87
840.085	49.66
840.261	66.05
840.437	-5.63
840.614	31.23
840.79	115.2
840.966	31.23
841.142	100.86
841.318	51.71
841.494	18.94
841.671	6.66
841.847	20.99
842.023	51.71
842.199	43.52
842.375	23.04
842.551	39.42
842.727	25.09
842.903	109.05
843.079	-22.02
843.255	96.77
843.431	10.75
843.607	33.28
843.783	-108.03
843.959	25.09
844.134	-7.68
844.31	66.05
844.486	-13.82
844.662	-13.82
844.838	0.51
845.013	84.48
845.189	72.19
845.365	4.61
845.541	92.67
845.716	4.61
845.892	-15.87
846.068	88.57
846.244	-26.11
846.419	55.81
846.595	-48.64
846.77	55.81
846.946	31.23
847.122	2.56
847.297	18.94
847.473	88.57
847.648	33.28
847.824	14.85
847.999	-44.54
848.175	16.9
848.35	27.14
848.526	41.47
848.701	2.56
848.876	0.51
849.052	98.81
849.227	-1.54
849.403	74.24
849.578	55.81
849.753	82.43
849.929	145.92
850.104	6.66
850.279	6.66
850.454	6.66
850.63	49.66
850.805	49.66
850.98	-17.92
851.155	-17.92
851.33	45.57
851.505	-1.54
851.681	33.28
851.856	-7.68
852.031	20.99
852.206	39.42
852.381	-67.07
852.556	66.05
852.731	57.86
852.906	68.09
853.081	14.85
853.256	47.62
853.431	-9.73
853.606	37.38
853.781	-7.68
853.956	2.56
854.131	31.23
854.305	72.19
854.48	31.23
854.655	98.81
854.83	-11.78
855.005	31.23
855.18	6.66
855.354	-62.98
855.529	27.14
855.704	14.85
855.879	133.63
856.053	41.47
856.228	66.05
856.403	35.33
856.577	64
856.752	-38.4
856.926	16.9
857.101	18.94
857.276	14.85
857.45	18.94
857.625	18.94
857.799	47.62
857.974	23.04
858.148	-30.21
858.323	23.04
858.497	-42.5
858.672	-42.5
858.846	-1.54
859.02	47.62
859.195	-58.88
859.369	-34.3
859.543	39.42
859.718	-7.68
859.892	-38.4
860.066	57.86
860.241	27.14
860.415	37.38
860.589	-7.68
860.763	31.23
860.938	-32.26
861.112	72.19
861.286	-17.92
861.46	8.7
861.634	47.62
861.808	107.01
861.982	-11.78
862.157	-46.59
862.331	2.56
862.505	-65.02
862.679	-17.92
862.853	-7.68
863.027	-5.63
863.201	72.19
863.375	-34.3
863.549	-56.83
863.722	-30.21
863.896	80.38
864.07	8.7
864.244	16.9
864.418	47.62
864.592	-24.06
864.766	27.14
864.939	6.66
865.113	61.95
865.287	33.28
865.461	-22.02
865.634	27.14
865.808	27.14
865.982	-26.11
866.156	-38.4
866.329	31.23
866.503	68.09
866.676	8.7
866.85	66.05
867.024	14.85
867.197	55.81
867.371	39.42
867.544	-7.68
867.718	-42.5
867.891	53.76
868.065	-24.06
868.238	-1.54
868.412	14.85
868.585	-54.78
868.759	-3.58
868.932	-46.59
869.105	-65.02
869.279	-32.26
869.452	16.9
869.625	27.14
869.799	72.19
869.972	39.42
870.145	45.57
870.319	18.94
870.492	31.23
870.665	-13.82
870.838	-9.73
871.011	-87.55
871.185	18.94
871.358	-9.73
871.531	-73.21
871.704	-15.87
871.877	8.7
872.05	-34.3
872.223	-15.87
872.396	6.66
872.569	-7.68
872.742	29.18
872.915	-17.92
873.088	-17.92
873.261	8.7
873.434	0.51
873.607	31.23
873.78	6.66
873.953	-67.07
874.126	-34.3
874.299	57.86
874.471	12.8
874.644	-1.54
874.817	-9.73
874.99	66.05
875.163	0.51
875.335	68.09
875.508	0.51
875.681	55.81
875.853	57.86
876.026	29.18
876.199	86.53
876.371	-9.73
876.544	2.56
876.717	31.23
876.889	96.77
877.062	76.29
877.234	-67.07
877.407	-1.54
877.579	-34.3
877.752	39.42
877.924	43.52
878.097	12.8
878.269	-15.87
878.442	-62.98
878.614	18.94
878.786	64
878.959	-3.58
879.131	-38.4
879.303	-52.74
879.476	-9.73
879.648	84.48
879.82	-87.55
879.993	27.14
880.165	0.51
880.337	-83.45
880.509	6.66
880.681	-30.21
880.854	47.62
881.026	14.85
881.198	49.66
881.37	-32.26
881.542	23.04
881.714	64
881.886	49.66
882.058	51.71
882.23	31.23
882.402	-30.21
882.574	-32.26
882.746	-17.92
882.918	68.09
883.09	0.51
883.262	-1.54
883.434	43.52
883.606	14.85
883.778	31.23
883.95	31.23
884.122	39.42
884.293	6.66
884.465	47.62
884.637	31.23
884.809	-79.36
884.98	-38.4
885.152	27.14
885.324	88.57
885.496	-13.82
885.667	-15.87
885.839	-1.54
886.011	-1.54
886.182	66.05
886.354	55.81
886.525	-13.82
886.697	-1.54
886.869	0.51
887.04	31.23
887.212	27.14
887.383	33.28
887.555	-89.6
887.726	-13.82
887.897	-17.92
888.069	45.57
888.24	18.94
888.412	72.19
888.583	-17.92
888.754	-40.45
888.926	-38.4
889.097	-48.64
889.268	23.04
889.44	23.04
889.611	-77.31
889.782	-17.92
889.953	-9.73
890.125	39.42
890.296	16.9
890.467	-32.26
890.638	-101.89
890.809	43.52
890.98	-28.16
891.151	31.23
891.323	8.7
891.494	-46.59
891.665	16.9
891.836	-1.54
892.007	-38.4
892.178	18.94
892.349	88.57
892.52	14.85
892.691	2.56
892.862	0.51
893.032	-87.55
893.203	72.19
893.374	6.66
893.545	41.47
893.716	14.85
893.887	64
894.057	-155.13
894.228	20.99
894.399	6.66
894.57	0.51
894.74	-13.82
894.911	104.96
895.082	-24.06
895.253	-5.63
895.423	33.28
895.594	82.43
895.764	25.09
895.935	23.04
896.106	-46.59
896.276	-124.41
896.447	68.09
896.617	-1.54
896.788	-32.26
896.958	57.86
897.129	59.9
897.299	-97.79
897.47	-11.78
897.64	-5.63
897.81	-7.68
897.981	-58.88
898.151	-62.98
898.322	-15.87
898.492	-24.06
898.662	-1.54
898.832	-56.83
899.003	0.51
899.173	33.28
899.343	-17.92
899.513	0.51
