Data from USB4F104151__68__14-30-15-377.txt Node

Date: Thu Mar 13 14:30:15 EDT 2025
User: louis
Spectrometer: USB4F10415
Trigger mode: 4
Integration Time (sec): 2.500000E-2
Scans to average: 1
Electric dark correction enabled: true
Nonlinearity correction enabled: false
Boxcar width: 0
XAxis mode: Wavelengths
Number of Pixels in Spectrum: 3648
>>>>>Begin Spectral Data<<<<<
178.204	-101.2
178.424	-101.2
178.644	-101.2
178.864	-121.68
179.084	-125.78
179.304	58.54
179.524	38.06
179.744	-9.05
179.964	23.72
180.184	46.25
180.404	56.49
180.624	52.39
180.844	-7
181.064	-68.44
181.283	-41.81
181.503	-66.39
181.723	-82.77
181.943	-39.76
182.163	66.73
182.383	-21.33
182.602	109.74
182.822	42.15
183.042	38.06
183.262	38.06
183.482	60.59
183.701	29.87
183.921	42.15
184.141	27.82
184.361	103.59
184.58	25.77
184.8	95.4
185.02	-7
185.239	87.21
185.459	46.25
185.679	66.73
185.898	-72.53
186.118	50.35
186.338	25.77
186.557	62.63
186.777	36.01
186.997	21.67
187.216	21.67
187.436	160.94
187.655	87.21
187.875	144.55
188.095	-23.38
188.314	70.83
188.534	162.98
188.753	31.91
188.973	38.06
189.192	58.54
189.412	89.26
189.631	-19.29
189.851	79.02
190.07	21.67
190.29	-7
190.509	60.59
190.729	66.73
190.948	31.91
191.168	140.46
191.387	150.7
191.607	46.25
191.826	79.02
192.045	21.67
192.265	40.11
192.484	-27.48
192.704	40.11
192.923	5.29
193.142	81.07
193.362	9.39
193.581	46.25
193.8	48.3
194.02	72.87
194.239	38.06
194.458	64.68
194.678	-15.19
194.897	103.59
195.116	11.43
195.335	56.49
195.555	13.48
195.774	64.68
195.993	66.73
196.212	48.3
196.432	54.44
196.651	46.25
196.87	64.68
197.089	95.4
197.308	111.78
197.528	27.82
197.747	-33.62
197.966	54.44
198.185	21.67
198.404	107.69
198.623	48.3
198.842	36.01
199.062	95.4
199.281	79.02
199.5	70.83
199.719	29.87
199.938	56.49
200.157	103.59
200.376	-66.39
200.595	17.58
200.814	85.16
201.033	5.29
201.252	54.44
201.471	19.63
201.69	48.3
201.909	103.59
202.128	72.87
202.347	31.91
202.566	-21.33
202.785	-0.85
203.004	25.77
203.223	113.83
203.442	13.48
203.661	9.39
203.879	15.53
204.098	36.01
204.317	-11.09
204.536	42.15
204.755	38.06
204.974	36.01
205.193	91.31
205.411	76.97
205.63	103.59
205.849	62.63
206.068	13.48
206.287	-19.29
206.505	76.97
206.724	5.29
206.943	64.68
207.162	-29.52
207.381	87.21
207.599	11.43
207.818	54.44
208.037	-41.81
208.255	62.63
208.474	62.63
208.693	54.44
208.911	-17.24
209.13	25.77
209.349	-4.95
209.567	101.55
209.786	111.78
210.005	15.53
210.223	52.39
210.442	25.77
210.661	44.2
210.879	79.02
211.098	36.01
211.316	11.43
211.535	103.59
211.753	-0.85
211.972	-4.95
212.191	56.49
212.409	50.35
212.628	83.11
212.846	36.01
213.065	70.83
213.283	119.98
213.502	-2.9
213.72	97.45
213.938	42.15
214.157	9.39
214.375	38.06
214.594	58.54
214.812	25.77
215.031	-31.57
215.249	21.67
215.467	25.77
215.686	74.92
215.904	95.4
216.122	48.3
216.341	105.64
216.559	5.29
216.778	119.98
216.996	64.68
217.214	87.21
217.432	-9.05
217.651	29.87
217.869	27.82
218.087	56.49
218.306	-7
218.524	124.07
218.742	29.87
218.96	72.87
219.179	-25.43
219.397	-25.43
219.615	83.11
219.833	15.53
220.051	21.67
220.27	70.83
220.488	64.68
220.706	60.59
220.924	23.72
221.142	54.44
221.36	60.59
221.578	54.44
221.796	62.63
222.015	27.82
222.233	-64.34
222.451	152.74
222.669	-15.19
222.887	5.29
223.105	23.72
223.323	97.45
223.541	5.29
223.759	-9.05
223.977	56.49
224.195	50.35
224.413	93.35
224.631	70.83
224.849	25.77
225.067	115.88
225.285	50.35
225.503	50.35
225.721	-29.52
225.939	107.69
226.157	40.11
226.375	48.3
226.592	5.29
226.81	42.15
227.028	79.02
227.246	119.98
227.464	54.44
227.682	-45.91
227.9	103.59
228.117	54.44
228.335	-27.48
228.553	-47.96
228.771	-27.48
228.989	42.15
229.206	9.39
229.424	62.63
229.642	52.39
229.86	25.77
230.077	33.96
230.295	-2.9
230.513	109.74
230.731	38.06
230.948	128.17
231.166	33.96
231.384	68.78
231.601	-0.85
231.819	136.36
232.037	23.72
232.254	25.77
232.472	31.91
232.689	40.11
232.907	23.72
233.125	113.83
233.342	21.67
233.56	-50
233.777	48.3
233.995	66.73
234.213	70.83
234.43	60.59
234.648	62.63
234.865	-21.33
235.083	87.21
235.3	38.06
235.518	21.67
235.735	89.26
235.953	68.78
236.17	1.19
236.388	23.72
236.605	46.25
236.822	44.2
237.04	-13.14
237.257	64.68
237.475	50.35
237.692	44.2
237.909	54.44
238.127	29.87
238.344	62.63
238.562	56.49
238.779	29.87
238.996	27.82
239.214	62.63
239.431	-31.57
239.648	-2.9
239.865	128.17
240.083	7.34
240.3	21.67
240.517	7.34
240.735	13.48
240.952	87.21
241.169	83.11
241.386	66.73
241.603	79.02
241.821	25.77
242.038	38.06
242.255	122.02
242.472	13.48
242.689	54.44
242.907	79.02
243.124	101.55
243.341	40.11
243.558	-27.48
243.775	5.29
243.992	-9.05
244.209	38.06
244.426	31.91
244.643	93.35
244.86	29.87
245.078	25.77
245.295	-9.05
245.512	42.15
245.729	13.48
245.946	25.77
246.163	7.34
246.38	9.39
246.597	38.06
246.814	7.34
247.031	72.87
247.248	25.77
247.464	36.01
247.681	54.44
247.898	25.77
248.115	95.4
248.332	-11.09
248.549	15.53
248.766	177.32
248.983	83.11
249.2	7.34
249.417	33.96
249.633	52.39
249.85	-2.9
250.067	-19.29
250.284	-4.95
250.501	-13.14
250.717	105.64
250.934	62.63
251.151	25.77
251.368	31.91
251.585	113.83
251.801	-27.48
252.018	46.25
252.235	70.83
252.451	31.91
252.668	74.92
252.885	54.44
253.102	95.4
253.318	79.02
253.535	-25.43
253.752	-7
253.968	33.96
254.185	9.39
254.401	62.63
254.618	42.15
254.835	-11.09
255.051	21.67
255.268	3.24
255.484	95.4
255.701	17.58
255.917	72.87
256.134	-29.52
256.351	46.25
256.567	23.72
256.784	81.07
257	-33.62
257.217	70.83
257.433	9.39
257.65	79.02
257.866	64.68
258.082	17.58
258.299	36.01
258.515	83.11
258.732	46.25
258.948	66.73
259.165	38.06
259.381	60.59
259.597	119.98
259.814	-11.09
260.03	7.34
260.246	25.77
260.463	46.25
260.679	87.21
260.895	15.53
261.112	62.63
261.328	54.44
261.544	-17.24
261.761	148.65
261.977	70.83
262.193	27.82
262.409	56.49
262.626	33.96
262.842	15.53
263.058	5.29
263.274	56.49
263.49	1.19
263.707	25.77
263.923	79.02
264.139	-27.48
264.355	36.01
264.571	52.39
264.787	33.96
265.004	70.83
265.22	95.4
265.436	64.68
265.652	5.29
265.868	87.21
266.084	48.3
266.3	38.06
266.516	-7
266.732	64.68
266.948	46.25
267.164	56.49
267.38	128.17
267.596	81.07
267.812	48.3
268.028	50.35
268.244	38.06
268.46	54.44
268.676	97.45
268.892	15.53
269.108	-35.67
269.324	5.29
269.54	13.48
269.756	33.96
269.972	-25.43
270.188	85.16
270.403	13.48
270.619	91.31
270.835	33.96
271.051	38.06
271.267	31.91
271.483	23.72
271.698	62.63
271.914	89.26
272.13	-11.09
272.346	25.77
272.562	87.21
272.777	93.35
272.993	29.87
273.209	33.96
273.425	29.87
273.64	50.35
273.856	111.78
274.072	54.44
274.287	-27.48
274.503	56.49
274.719	111.78
274.934	44.2
275.15	21.67
275.366	-27.48
275.581	-2.9
275.797	31.91
276.012	13.48
276.228	21.67
276.444	21.67
276.659	46.25
276.875	21.67
277.09	60.59
277.306	-2.9
277.521	91.31
277.737	38.06
277.952	85.16
278.168	56.49
278.383	70.83
278.599	29.87
278.814	62.63
279.03	-11.09
279.245	79.02
279.461	74.92
279.676	93.35
279.892	1.19
280.107	15.53
280.322	58.54
280.538	103.59
280.753	33.96
280.969	56.49
281.184	46.25
281.399	74.92
281.615	-2.9
281.83	31.91
282.045	23.72
282.26	48.3
282.476	25.77
282.691	40.11
282.906	31.91
283.122	23.72
283.337	29.87
283.552	79.02
283.767	62.63
283.983	11.43
284.198	79.02
284.413	87.21
284.628	15.53
284.843	62.63
285.058	132.26
285.274	89.26
285.489	1.19
285.704	-2.9
285.919	29.87
286.134	66.73
286.349	29.87
286.564	33.96
286.779	56.49
286.995	-41.81
287.21	64.68
287.425	33.96
287.64	42.15
287.855	17.58
288.07	7.34
288.285	19.63
288.5	72.87
288.715	54.44
288.93	-25.43
289.145	-41.81
289.36	54.44
289.575	3.24
289.79	79.02
290.004	29.87
290.219	23.72
290.434	48.3
290.649	103.59
290.864	191.66
291.079	97.45
291.294	42.15
291.509	-21.33
291.724	62.63
291.938	15.53
292.153	11.43
292.368	68.78
292.583	103.59
292.798	5.29
293.012	81.07
293.227	38.06
293.442	54.44
293.657	89.26
293.871	95.4
294.086	15.53
294.301	119.98
294.516	99.5
294.73	62.63
294.945	-2.9
295.16	97.45
295.374	128.17
295.589	76.97
295.804	-11.09
296.018	79.02
296.233	99.5
296.447	29.87
296.662	52.39
296.877	62.63
297.091	70.83
297.306	62.63
297.52	54.44
297.735	-0.85
297.949	-4.95
298.164	70.83
298.378	91.31
298.593	38.06
298.807	-52.05
299.022	95.4
299.236	74.92
299.451	115.88
299.665	-43.86
299.88	27.82
300.094	56.49
300.309	21.67
300.523	36.01
300.737	64.68
300.952	64.68
301.166	54.44
301.381	33.96
301.595	81.07
301.809	70.83
302.024	29.87
302.238	17.58
302.452	31.91
302.667	-27.48
302.881	48.3
303.095	62.63
303.309	70.83
303.524	-60.24
303.738	87.21
303.952	54.44
304.166	13.48
304.381	-7
304.595	103.59
304.809	54.44
305.023	23.72
305.237	54.44
305.452	29.87
305.666	19.63
305.88	138.41
306.094	42.15
306.308	89.26
306.522	126.12
306.736	103.59
306.95	54.44
307.164	33.96
307.379	81.07
307.593	124.07
307.807	62.63
308.021	95.4
308.235	83.11
308.449	29.87
308.663	25.77
308.877	183.46
309.091	79.02
309.305	13.48
309.519	9.39
309.733	62.63
309.947	-82.77
310.161	76.97
310.374	83.11
310.588	70.83
310.802	-72.53
311.016	5.29
311.23	-0.85
311.444	64.68
311.658	13.48
311.872	1.19
312.085	74.92
312.299	132.26
312.513	97.45
312.727	56.49
312.941	11.43
313.154	15.53
313.368	70.83
313.582	9.39
313.796	25.77
314.009	103.59
314.223	42.15
314.437	29.87
314.651	54.44
314.864	62.63
315.078	42.15
315.292	-52.05
315.505	46.25
315.719	62.63
315.933	25.77
316.146	46.25
316.36	15.53
316.573	46.25
316.787	13.48
317.001	29.87
317.214	23.72
317.428	29.87
317.641	11.43
317.855	46.25
318.068	21.67
318.282	70.83
318.495	52.39
318.709	-7
318.922	5.29
319.136	117.93
319.349	-19.29
319.563	68.78
319.776	-11.09
319.99	48.3
320.203	54.44
320.417	46.25
320.63	136.36
320.843	48.3
321.057	115.88
321.27	87.21
321.483	107.69
321.697	72.87
321.91	91.31
322.124	33.96
322.337	-17.24
322.55	87.21
322.763	107.69
322.977	111.78
323.19	-35.67
323.403	50.35
323.617	91.31
323.83	171.18
324.043	-9.05
324.256	74.92
324.469	-27.48
324.683	103.59
324.896	99.5
325.109	-13.14
325.322	-11.09
325.535	38.06
325.748	109.74
325.962	-2.9
326.175	-17.24
326.388	48.3
326.601	124.07
326.814	48.3
327.027	36.01
327.24	72.87
327.453	1.19
327.666	113.83
327.879	212.14
328.092	113.83
328.305	72.87
328.518	-23.38
328.731	29.87
328.944	70.83
329.157	64.68
329.37	79.02
329.583	89.26
329.796	128.17
330.009	19.63
330.222	105.64
330.435	97.45
330.648	40.11
330.861	79.02
331.073	13.48
331.286	70.83
331.499	72.87
331.712	56.49
331.925	38.06
332.138	-0.85
332.35	111.78
332.563	38.06
332.776	-11.09
332.989	-15.19
333.202	38.06
333.414	13.48
333.627	21.67
333.84	29.87
334.053	99.5
334.265	81.07
334.478	85.16
334.691	31.91
334.903	27.82
335.116	46.25
335.329	38.06
335.541	87.21
335.754	107.69
335.966	74.92
336.179	17.58
336.392	-35.67
336.604	46.25
336.817	70.83
337.029	54.44
337.242	23.72
337.454	79.02
337.667	42.15
337.88	144.55
338.092	142.5
338.305	50.35
338.517	21.67
338.729	113.83
338.942	72.87
339.154	33.96
339.367	-15.19
339.579	56.49
339.792	48.3
340.004	25.77
340.217	15.53
340.429	87.21
340.641	-35.67
340.854	-29.52
341.066	-19.29
341.278	79.02
341.491	72.87
341.703	54.44
341.915	-0.85
342.128	56.49
342.34	56.49
342.552	-9.05
342.764	23.72
342.977	50.35
343.189	21.67
343.401	95.4
343.613	21.67
343.826	54.44
344.038	-52.05
344.25	56.49
344.462	40.11
344.674	72.87
344.886	15.53
345.099	111.78
345.311	-17.24
345.523	40.11
345.735	3.24
345.947	76.97
346.159	128.17
346.371	107.69
346.583	46.25
346.795	103.59
347.007	50.35
347.219	48.3
347.431	62.63
347.643	72.87
347.855	40.11
348.067	107.69
348.279	111.78
348.491	23.72
348.703	-19.29
348.915	33.96
349.127	54.44
349.339	128.17
349.551	89.26
349.763	119.98
349.975	-52.05
350.187	119.98
350.399	171.18
350.61	3.24
350.822	44.2
351.034	87.21
351.246	-2.9
351.458	79.02
351.669	-11.09
351.881	148.65
352.093	74.92
352.305	62.63
352.517	113.83
352.728	74.92
352.94	105.64
353.152	66.73
353.363	95.4
353.575	23.72
353.787	17.58
353.999	83.11
354.21	113.83
354.422	48.3
354.633	74.92
354.845	70.83
355.057	54.44
355.268	62.63
355.48	46.25
355.692	17.58
355.903	105.64
356.115	66.73
356.326	70.83
356.538	95.4
356.749	115.88
356.961	52.39
357.172	56.49
357.384	42.15
357.595	117.93
357.807	58.54
358.018	74.92
358.23	68.78
358.441	115.88
358.653	70.83
358.864	40.11
359.075	91.31
359.287	74.92
359.498	107.69
359.709	21.67
359.921	74.92
360.132	66.73
360.344	54.44
360.555	17.58
360.766	42.15
360.977	95.4
361.189	85.16
361.4	91.31
361.611	56.49
361.823	46.25
362.034	70.83
362.245	-17.24
362.456	89.26
362.667	79.02
362.879	42.15
363.09	54.44
363.301	48.3
363.512	62.63
363.723	38.06
363.935	70.83
364.146	62.63
364.357	72.87
364.568	1.19
364.779	5.29
364.99	87.21
365.201	87.21
365.412	119.98
365.623	29.87
365.834	62.63
366.045	33.96
366.256	115.88
366.467	119.98
366.678	46.25
366.889	21.67
367.1	7.34
367.311	115.88
367.522	5.29
367.733	132.26
367.944	79.02
368.155	-35.67
368.366	68.78
368.577	54.44
368.788	83.11
368.999	25.77
369.209	38.06
369.42	103.59
369.631	132.26
369.842	58.54
370.053	95.4
370.264	25.77
370.474	38.06
370.685	48.3
370.896	124.07
371.107	83.11
371.317	70.83
371.528	95.4
371.739	62.63
371.95	103.59
372.16	70.83
372.371	-11.09
372.582	70.83
372.792	83.11
373.003	46.25
373.214	13.48
373.424	95.4
373.635	-43.86
373.846	50.35
374.056	33.96
374.267	89.26
374.477	101.55
374.688	33.96
374.898	72.87
375.109	25.77
375.319	38.06
375.53	113.83
375.74	64.68
375.951	46.25
376.161	9.39
376.372	79.02
376.582	-27.48
376.793	29.87
377.003	70.83
377.214	79.02
377.424	97.45
377.635	31.91
377.845	68.78
378.055	136.36
378.266	74.92
378.476	-17.24
378.686	29.87
378.897	36.01
379.107	54.44
379.317	48.3
379.528	148.65
379.738	140.46
379.948	-11.09
380.158	119.98
380.369	105.64
380.579	111.78
380.789	95.4
380.999	185.51
381.21	81.07
381.42	119.98
381.63	-11.09
381.84	38.06
382.05	95.4
382.261	42.15
382.471	93.35
382.681	-13.14
382.891	81.07
383.101	113.83
383.311	40.11
383.521	13.48
383.731	62.63
383.941	130.22
384.151	33.96
384.361	79.02
384.571	38.06
384.781	91.31
384.991	93.35
385.201	56.49
385.411	79.02
385.621	91.31
385.831	156.84
386.041	136.36
386.251	95.4
386.461	15.53
386.671	64.68
386.881	31.91
387.091	40.11
387.301	60.59
387.511	87.21
387.72	56.49
387.93	70.83
388.14	-9.05
388.35	95.4
388.56	60.59
388.769	99.5
388.979	97.45
389.189	21.67
389.399	72.87
389.609	38.06
389.818	17.58
390.028	72.87
390.238	105.64
390.447	21.67
390.657	89.26
390.867	31.91
391.076	42.15
391.286	128.17
391.496	19.63
391.705	111.78
391.915	103.59
392.125	50.35
392.334	31.91
392.544	56.49
392.753	23.72
392.963	36.01
393.172	169.13
393.382	87.21
393.591	165.03
393.801	115.88
394.01	111.78
394.22	136.36
394.429	62.63
394.639	46.25
394.848	169.13
395.058	70.83
395.267	113.83
395.477	89.26
395.686	85.16
395.895	146.6
396.105	199.85
396.314	105.64
396.524	119.98
396.733	44.2
396.942	193.7
397.152	95.4
397.361	189.61
397.57	148.65
397.78	81.07
397.989	128.17
398.198	201.9
398.407	111.78
398.617	152.74
398.826	66.73
399.035	46.25
399.244	122.02
399.453	105.64
399.663	124.07
399.872	29.87
400.081	38.06
400.29	156.84
400.499	97.45
400.708	144.55
400.917	124.07
401.127	132.26
401.336	119.98
401.545	128.17
401.754	171.18
401.963	81.07
402.172	113.83
402.381	130.22
402.59	128.17
402.799	171.18
403.008	36.01
403.217	234.66
403.426	185.51
403.635	152.74
403.844	169.13
404.053	99.5
404.262	165.03
404.471	234.66
404.68	148.65
404.888	201.9
405.097	234.66
405.306	238.76
405.515	228.52
405.724	169.13
405.933	187.56
406.142	294.05
406.35	314.53
406.559	253.09
406.768	294.05
406.977	226.47
407.185	240.81
407.394	220.33
407.603	187.56
407.812	279.72
408.02	287.91
408.229	296.1
408.438	205.99
408.646	255.14
408.855	314.53
409.064	298.15
409.272	332.97
409.481	335.01
409.69	361.64
409.898	394.4
410.107	441.51
410.315	398.5
410.524	386.21
410.733	439.46
410.941	451.75
411.15	521.38
411.358	523.43
411.567	564.39
411.775	535.71
411.984	539.81
412.192	531.62
412.401	558.24
412.609	685.22
412.818	550.05
413.026	636.06
413.234	660.64
413.443	636.06
413.651	705.7
413.86	779.42
414.068	724.13
414.276	808.09
414.485	758.94
414.693	760.99
414.901	785.57
415.11	853.15
415.318	873.63
415.526	910.49
415.734	926.88
415.943	1055.9
416.151	1129.63
416.359	1107.1
416.567	982.17
416.776	1066.14
416.984	1164.44
417.192	1178.78
417.4	1209.5
417.608	1146.01
417.817	1320.09
418.025	1299.61
418.233	1426.58
418.441	1285.27
418.649	1430.68
418.857	1643.67
419.065	1512.6
419.273	1668.24
419.481	1711.25
419.689	1848.46
419.897	1860.75
420.105	1842.32
420.313	1946.76
420.521	2069.64
420.729	2022.54
420.937	2188.43
421.145	2274.44
421.353	2210.95
421.561	2380.93
421.769	2368.65
421.977	2550.92
422.185	2507.91
422.393	2700.42
422.601	2839.68
422.809	2790.53
423.017	2765.95
423.224	2905.21
423.432	3191.93
423.64	3181.69
423.848	3390.58
424.056	3247.23
424.263	3503.22
424.471	3560.56
424.679	3693.68
424.887	3736.69
425.094	3945.58
425.302	3949.68
425.51	4088.94
425.718	4256.87
425.925	4269.16
426.133	4226.15
426.341	4689
426.548	4963.42
426.756	4850.78
426.964	5010.53
427.171	5309.53
427.379	5315.67
427.586	5465.18
427.794	5547.09
428.001	5870.67
428.209	6050.89
428.417	5833.81
428.624	6634.57
428.832	6364.23
429.039	6526.02
429.247	6495.3
429.454	7083.07
429.662	7502.9
429.869	6919.23
430.076	7425.08
430.284	7234.62
430.491	7504.95
430.699	8078.38
430.906	7965.75
431.114	8066.1
431.321	8264.75
431.528	8465.45
431.736	9024.54
431.943	9542.68
432.15	9208.86
432.358	9393.18
432.565	9892.88
432.772	9999.38
432.979	10208.27
433.187	10247.18
433.394	10492.94
433.601	11228.16
433.808	11244.54
434.016	11111.43
434.223	11693.05
434.43	12338.16
434.637	12035.06
434.844	12706.79
435.052	13054.95
435.259	12911.59
435.466	13138.91
435.673	12952.55
435.88	13669.34
436.087	14554.06
436.294	14586.83
436.501	14201.81
436.708	14328.78
436.915	14820.3
437.122	15498.17
437.329	15588.28
437.537	15954.87
437.743	16479.15
437.95	16087.99
438.157	16915.37
438.364	17552.29
438.571	17499.04
438.778	17818.52
438.985	19274.63
439.192	18580.37
439.399	18979.72
439.606	18535.31
439.813	19716.99
440.02	20845.42
440.227	20542.32
440.433	20388.72
440.64	21050.22
440.847	20800.37
441.054	21287.78
441.261	22530.9
441.467	22244.18
441.674	22903.63
441.881	23403.33
442.088	23669.57
442.294	23573.31
442.501	23970.62
442.708	24124.22
442.914	25508.65
443.121	26600.21
443.328	26002.21
443.534	27599.62
443.741	26557.21
443.948	26182.43
444.154	28467.96
444.361	28134.14
444.568	27994.88
444.774	28140.29
444.981	28590.84
445.187	29397.74
445.394	30903
445.6	30327.52
445.807	33030.83
446.013	31824.58
446.22	32170.69
446.426	33585.83
446.633	33778.34
446.839	35371.66
447.046	33735.34
447.252	35441.29
447.459	35658.38
447.665	35492.49
447.871	37089.91
448.078	38558.3
448.284	36457.09
448.491	37646.96
448.697	39103.06
448.903	39801.42
449.11	39957.06
449.316	38971.99
449.522	40073.8
449.728	41032.25
449.935	41142.84
450.141	41081.4
450.347	42226.21
450.553	40813.12
450.76	41478.71
450.966	42789.41
451.172	42373.67
451.378	43477.52
451.584	42045.99
451.791	43532.82
451.997	43321.88
452.203	44042.76
452.409	43989.52
452.615	43756.05
452.821	42297.89
453.027	41720.37
453.233	44139.02
453.44	42238.5
453.646	42928.67
453.852	43092.51
454.058	43584.02
454.264	42215.97
454.47	43086.36
454.676	42072.62
454.882	43803.15
455.088	39852.62
455.294	40487.49
455.5	40774.2
455.705	41763.37
455.911	40055.37
456.117	38881.88
456.323	38201.96
456.529	36530.81
456.735	37966.44
456.941	37317.23
457.147	36393.6
457.352	35330.7
457.558	35007.12
457.764	34923.16
457.97	34122.4
458.176	33766.06
458.381	33508.01
458.587	31961.79
458.793	31955.65
458.999	30370.52
459.204	32660.15
459.41	31742.66
459.616	29565.67
459.821	29641.45
460.027	29326.06
460.233	28844.79
460.438	27130.64
460.644	27542.28
460.85	26503.96
461.055	26170.14
461.261	25670.43
461.466	23931.71
461.672	23194.44
461.878	24845.1
462.083	23554.88
462.289	22532.95
462.494	22471.51
462.7	21732.19
462.905	21113.7
463.111	21576.55
463.316	21887.84
463.522	21322.6
463.727	21085.03
463.932	21058.41
464.138	21379.94
464.343	21093.22
464.549	20626.29
464.754	21359.46
464.959	20671.34
465.165	20757.36
465.37	19770.24
465.575	19651.45
465.781	19972.99
465.986	20243.32
466.191	19516.29
466.397	19151.75
466.602	18219.92
466.807	19092.36
467.012	18887.56
467.218	18566.03
467.423	18457.49
467.628	18568.08
467.833	19346.31
468.038	18488.21
468.244	17830.81
468.449	18678.67
468.654	18015.13
468.859	18054.04
469.064	17779.61
469.269	17195.94
469.474	17175.46
469.679	17714.08
469.885	16851.88
470.09	17585.05
470.295	17245.09
470.5	16812.97
470.705	16837.55
470.91	16524.21
471.115	16159.67
471.32	16382.9
471.525	16495.53
471.73	16180.15
471.935	16024.5
472.139	15360.96
472.344	15619
472.549	15709.11
472.754	15520.7
472.959	15057.86
473.164	14707.66
473.369	14617.55
473.574	15264.71
473.778	14740.43
473.983	14734.28
474.188	14783.43
474.393	14103.51
474.598	14343.12
474.802	13851.61
475.007	13761.5
475.212	13835.22
475.417	13452.25
475.621	13349.85
475.826	13435.87
476.031	13312.99
476.235	13081.57
476.44	13118.43
476.645	12637.16
476.849	12862.44
477.054	12807.14
477.259	12483.56
477.463	12575.72
477.668	12436.46
477.872	12270.58
478.077	12116.98
478.282	11799.54
478.486	11584.51
478.691	11797.49
478.895	11588.6
479.1	11615.23
479.304	11611.13
479.509	11170.82
479.713	11379.71
479.918	10900.48
480.122	11181.06
480.326	11056.13
480.531	11287.55
480.735	11095.04
480.94	10851.33
481.144	11392
481.348	10802.18
481.553	10896.39
481.757	10867.72
481.961	10671.11
482.166	10953.73
482.37	10884.1
482.574	10603.53
482.778	10593.29
482.983	10880
483.187	10693.64
483.391	10767.37
483.595	10482.7
483.8	10378.25
484.004	10732.55
484.208	10976.26
484.412	10515.47
484.616	10648.58
484.821	10531.85
485.025	10269.71
485.229	10677.26
485.433	10556.43
485.637	10540.04
485.841	10363.92
486.045	10517.51
486.249	10779.65
486.453	10544.14
486.657	10474.51
486.861	10793.99
487.065	10216.46
487.269	10501.13
487.473	10394.64
487.677	10607.62
487.881	10724.36
488.085	10347.53
488.289	10462.22
488.493	10394.64
488.697	10613.77
488.901	10656.78
489.105	10566.67
489.309	10456.08
489.512	10718.22
489.716	10535.95
489.92	10707.98
490.124	10474.51
490.328	10849.29
490.531	10759.17
490.735	10779.65
490.939	10648.58
491.143	10583.05
491.346	10648.58
491.55	10941.44
491.754	10720.26
491.958	11119.62
492.161	10826.76
492.365	10955.78
492.569	11009.03
492.772	10988.55
492.976	11111.43
493.18	11285.5
493.383	11273.21
493.587	11187.2
493.79	11117.57
493.994	11246.59
494.197	11424.76
494.401	11465.72
494.605	11320.32
494.808	11703.29
495.012	11527.16
495.215	11654.14
495.419	11840.5
495.622	11768.82
495.825	11793.4
496.029	12004.34
496.232	12127.22
496.436	12090.35
496.639	12321.77
496.843	12289.01
497.046	12497.9
497.249	12671.98
497.453	12528.62
497.656	12815.34
497.859	12958.69
498.063	12794.86
498.266	13288.42
498.469	13241.31
498.673	13333.47
498.876	13523.93
499.079	13487.07
499.282	13499.36
499.485	14066.64
499.689	14066.64
499.892	14187.47
500.095	13960.15
500.298	14404.56
500.501	14242.77
500.705	14920.65
500.908	14840.78
501.111	15096.77
501.314	15033.29
501.517	15225.79
501.72	15481.79
501.923	15197.12
502.126	15643.58
502.329	16065.46
502.532	15926.2
502.735	16380.85
502.938	16370.61
503.141	16540.59
503.344	16618.41
503.547	16690.09
503.75	16700.33
503.953	17267.62
504.156	17396.64
504.359	17634.21
504.562	17666.97
504.765	18254.74
504.968	18191.25
505.17	18477.97
505.373	18299.8
505.576	18516.88
505.779	18789.26
505.982	19006.34
506.185	18971.53
506.387	19155.85
506.59	19655.55
506.793	19835.77
506.996	19673.98
507.198	20339.57
507.401	19909.5
507.604	20509.55
507.807	20726.64
508.009	20937.58
508.212	21283.69
508.415	21384.04
508.617	21517.15
508.82	21451.62
509.022	21678.94
509.225	22350.68
509.428	22182.74
509.63	22510.42
509.833	22621.01
510.035	22844.24
510.238	23337.8
510.44	23475.01
510.643	23794.5
510.845	23724.86
511.048	23788.35
511.25	24113.98
511.453	24499
511.655	24955.69
511.858	24773.42
512.06	25086.76
512.262	25482.02
512.465	25418.53
512.667	25637.67
512.87	26082.08
513.072	25867.04
513.274	26247.96
513.477	26458.9
513.679	26796.82
513.881	27181.84
514.084	27470.6
514.286	27351.82
514.488	27341.58
514.69	28435.19
514.893	28560.12
515.095	28297.98
515.297	28809.97
515.499	29102.83
515.701	29483.75
515.904	29514.47
516.106	29364.97
516.308	30261.98
516.51	30866.13
516.712	30431.96
516.914	30530.26
517.116	31253.2
517.318	31089.36
517.52	31279.82
517.722	31433.42
517.925	31894.21
518.127	31918.79
518.329	32631.48
518.531	32369.34
518.733	33073.84
518.935	33170.1
519.136	33137.33
519.338	33335.98
519.54	33723.05
519.742	34202.27
519.944	33899.17
520.146	34560.67
520.348	34785.94
520.55	34865.81
520.752	34761.37
520.954	35433.1
521.155	34972.31
521.357	35449.49
521.559	35916.42
521.761	36139.65
521.963	36303.49
522.164	36147.84
522.366	36323.97
522.568	36629.12
522.77	36729.47
522.971	37114.48
523.173	37163.64
523.375	37339.76
523.576	37132.92
523.778	37491.31
523.98	37706.35
524.181	38337.12
524.383	38130.28
524.584	38486.62
524.786	38726.24
524.988	38330.98
525.189	38548.06
525.391	38711.9
525.592	38632.03
525.794	38787.67
525.995	38722.14
526.197	38646.36
526.398	38904.41
526.6	39287.38
526.801	39131.73
527.003	39424.59
527.204	39604.81
527.406	39666.25
527.607	39518.8
527.808	39877.19
528.01	39381.59
528.211	39262.8
528.412	40221.25
528.614	39846.47
528.815	39797.32
529.016	40045.13
529.218	39580.24
529.419	39877.19
529.62	40223.3
529.822	39709.26
530.023	39658.06
530.224	39766.6
530.425	39586.38
530.626	39400.02
530.828	39406.16
531.029	39967.3
531.23	39510.61
531.431	39531.09
531.632	39776.84
531.833	39686.73
532.035	39303.76
532.236	39373.39
532.437	39879.24
532.638	39158.36
532.839	39873.1
533.04	39899.72
533.241	39068.25
533.442	39944.78
533.643	39379.54
533.844	39881.29
534.045	39490.13
534.246	39078.49
534.447	39475.79
534.648	39320.15
534.849	39121.49
535.05	38533.73
535.251	39252.56
535.451	39217.75
535.652	39486.03
535.853	38822.49
536.054	38914.65
536.255	39357.01
536.456	38503.01
536.657	39275.09
536.857	38716
537.058	38609.5
537.259	38928.98
537.46	39103.06
537.66	38840.92
537.861	38824.54
538.062	38738.52
538.263	38716
538.463	38115.94
538.664	38468.19
538.865	38052.45
539.065	38697.56
539.266	38175.33
539.466	38693.47
539.667	37804.65
539.868	38894.17
540.068	38142.56
540.269	38060.65
540.469	38490.72
540.67	38216.29
540.87	38234.72
541.071	38269.54
541.271	38427.23
541.472	38193.76
541.672	38158.95
541.873	38128.23
542.073	37388.91
542.274	38177.38
542.474	38015.59
542.675	37499.5
542.875	38089.32
543.075	37948.01
543.276	37606
543.476	38181.48
543.676	37503.6
543.877	37927.53
544.077	37843.56
544.277	38019.69
544.478	37798.51
544.678	37804.65
544.878	37726.83
545.078	38197.86
545.279	37462.64
545.479	37350
545.679	37730.92
545.879	37829.23
546.079	37984.87
546.28	37505.65
546.48	37747.31
546.68	37675.63
546.88	37767.79
547.08	37886.57
547.28	37505.65
547.48	37216.88
547.68	37692.01
547.88	37431.92
548.081	37818.99
548.281	37571.18
548.481	37499.5
548.681	37628.52
548.881	37692.01
549.081	37626.48
549.28	37407.34
549.48	37847.66
549.68	37399.15
549.88	38134.37
550.08	37274.23
550.28	37972.58
550.48	37716.59
550.68	37757.55
550.88	37526.13
551.08	37612.14
551.279	37806.7
551.479	37409.39
551.679	37628.52
551.879	37567.09
552.079	37948.01
552.278	37587.57
552.478	37272.18
552.678	37528.17
552.878	37886.57
553.077	37765.74
553.277	37917.29
553.477	38339.17
553.676	37560.94
553.876	37962.34
554.076	37716.59
554.275	37784.17
554.475	37636.72
554.674	37972.58
554.874	37929.58
555.074	37530.22
555.273	37909.1
555.473	37999.21
555.672	37284.47
555.872	38052.45
556.071	37759.59
556.271	38455.9
556.47	37642.86
556.67	38048.36
556.869	38036.07
557.068	37821.03
557.268	38152.8
557.467	37610.09
557.667	38056.55
557.866	38230.63
558.065	37935.72
558.265	37649
558.464	37874.28
558.663	37880.42
558.863	37616.24
559.062	38509.15
559.261	37775.98
559.461	38214.24
559.66	37778.03
559.859	38095.46
560.058	37831.27
560.258	37976.68
560.457	37786.22
560.656	37909.1
560.855	37646.96
561.054	37933.67
561.253	37829.23
561.453	38283.87
561.652	38181.48
561.851	37796.46
562.05	37745.26
562.249	37337.71
562.448	38161
562.647	37669.48
562.846	37921.38
563.045	38140.52
563.244	37401.2
563.443	38206.05
563.642	37335.66
563.841	37667.44
564.04	37429.87
564.239	37702.25
564.438	37530.22
564.637	37354.1
564.836	37659.24
565.035	37290.61
565.234	37462.64
565.432	37481.07
565.631	37335.66
565.83	37358.19
566.029	37403.25
566.228	37237.36
566.427	37255.79
566.625	36977.27
566.824	36600.44
567.023	37091.96
567.222	36274.82
567.42	37030.52
567.619	36627.07
567.818	36436.61
568.016	36921.98
568.215	37134.96
568.414	36774.52
568.612	37096.05
568.811	36203.14
569.01	36432.51
569.208	36377.22
569.407	36496
569.605	35953.29
569.804	36483.71
570.002	36291.2
570.201	36469.37
570.4	35965.57
570.598	35457.68
570.797	35598.99
570.995	35906.18
571.193	35611.28
571.392	36078.21
571.59	35570.32
571.789	35719.82
571.987	35015.32
572.186	35386
572.384	34984.6
572.582	35461.77
572.781	35275.41
572.979	34699.93
573.177	35119.76
573.376	35000.98
573.574	34871.96
573.772	35295.89
573.971	34579.1
574.169	34585.24
574.367	34517.66
574.565	34618.01
574.763	34470.56
574.962	34636.44
575.16	33776.3
575.358	34081.44
575.556	33594.03
575.754	34302.62
575.952	33692.33
576.151	34106.02
576.349	33751.72
576.547	33583.79
576.745	33440.43
576.943	33686.18
577.141	33215.15
577.339	33106.61
577.537	33159.86
577.735	33116.85
577.933	32971.44
578.131	33442.48
578.329	32811.7
578.527	32600.76
578.725	32721.59
578.923	33043.12
579.121	32441.02
579.319	32668.34
579.516	32633.53
579.714	32725.69
579.912	32488.12
580.11	32443.07
580.308	32195.26
580.506	32127.68
580.704	31656.65
580.901	31984.32
581.099	31902.4
581.297	31765.19
581.495	32027.33
581.692	31722.18
581.89	31343.31
582.088	31507.15
582.285	31361.74
582.483	31806.15
582.681	31443.66
582.878	31380.17
583.076	31027.92
583.274	31308.49
583.471	31066.83
583.669	30722.77
583.866	30907.09
584.064	30845.65
584.262	30489.31
584.459	30939.86
584.657	30280.41
584.854	30532.31
585.052	30163.68
585.249	30208.73
585.447	30542.55
585.644	29993.7
585.841	29950.69
586.039	30528.22
586.236	29528.81
586.434	29737.7
586.631	29561.58
586.828	29928.16
587.026	29752.04
587.223	29762.28
587.42	29373.16
587.618	29649.64
587.815	29151.98
588.012	29164.27
588.21	29618.92
588.407	29549.29
588.604	29068.02
588.801	28771.06
588.999	28947.18
589.196	28926.71
589.393	29045.49
589.59	28769.01
589.787	28906.23
589.984	28758.77
590.182	28404.47
590.379	28766.96
590.576	28633.85
590.773	28476.15
590.97	28338.94
591.167	28480.25
591.364	28058.37
591.561	28650.23
591.758	28275.45
591.955	28029.69
592.152	28394.23
592.349	28074.75
592.546	28144.38
592.743	27919.1
592.94	27783.94
593.137	27892.48
593.334	27960.06
593.531	27433.74
593.727	27988.74
593.924	27724.55
594.121	27573
594.318	27706.12
594.515	27536.13
594.712	28160.76
594.908	27519.75
595.105	27681.54
595.302	27171.6
595.499	27372.3
595.696	27339.53
595.892	27374.34
596.089	27454.22
596.286	27425.54
596.482	27249.42
596.679	27464.46
596.876	27421.45
597.072	27218.7
597.269	26909.46
597.466	26934.03
597.662	27169.55
597.859	27214.6
598.055	27343.63
598.252	26786.58
598.448	26981.13
598.645	27212.56
598.841	26737.43
599.038	26929.94
599.234	26899.22
599.431	26446.62
599.627	26741.52
599.824	27040.53
600.02	26848.02
600.217	27110.16
600.413	26958.61
600.609	26659.6
600.806	26508.05
601.002	27071.25
601.198	26497.81
601.395	26751.76
601.591	26499.86
601.787	26780.43
601.984	26489.62
602.18	26823.44
602.376	26358.55
602.572	26426.14
602.769	26614.55
602.965	26604.31
603.161	26843.92
603.357	26581.78
603.553	26452.76
603.75	26585.88
603.946	26485.53
604.142	26981.13
604.338	26133.28
604.534	26735.38
604.73	26516.25
604.926	26516.25
605.122	26854.16
605.318	26571.54
605.514	26348.31
605.71	26434.33
605.906	26764.05
606.102	26858.26
606.298	26784.53
606.494	26716.95
606.69	26708.76
606.886	26813.2
607.082	26331.93
607.278	26745.62
607.474	26424.09
607.67	27015.95
607.866	26471.19
608.062	27280.14
608.257	26768.15
608.453	26837.78
608.649	27120.4
608.845	26575.64
609.041	26915.6
609.236	26819.35
609.432	26841.87
609.628	26936.08
609.824	26764.05
610.019	27050.77
610.215	26929.94
610.411	27360.01
610.606	26925.84
610.802	27325.19
610.998	26868.5
611.193	27253.51
611.389	27101.97
611.584	27046.67
611.78	26913.55
611.976	27167.5
612.171	27122.44
612.367	26833.68
612.562	26893.07
612.758	26716.95
612.953	27149.07
613.149	27200.27
613.344	26901.26
613.539	27652.87
613.735	27009.81
613.93	27671.3
614.126	27276.04
614.321	27527.94
614.517	27466.5
614.712	27435.78
614.907	27314.95
615.103	27325.19
615.298	27323.15
615.493	27544.33
615.688	27065.1
615.884	27740.93
616.079	27022.09
616.274	27710.21
616.47	27153.16
616.665	27558.66
616.86	27165.45
617.055	27462.41
617.25	27153.16
617.445	27353.87
617.641	27206.41
617.836	27233.04
618.031	26999.57
618.226	27486.98
618.421	27310.86
618.616	27542.28
618.811	26696.47
619.006	27353.87
619.201	26694.42
619.396	26979.09
619.591	26602.26
619.786	26823.44
619.981	26661.65
620.176	26542.87
620.371	26428.18
620.566	26708.76
620.761	26258.2
620.956	26491.67
621.151	26098.46
621.346	26444.57
621.541	25740.07
621.735	26155.8
621.93	25357.1
622.125	25953.05
622.32	25393.96
622.515	25506.6
622.709	25387.82
622.904	25123.63
623.099	24859.44
623.294	25066.28
623.488	24697.65
623.683	25094.96
623.878	24437.56
624.072	24734.51
624.267	24566.58
624.462	24550.2
624.656	24187.71
624.851	24179.51
625.046	23962.43
625.24	24179.51
625.435	23835.45
625.629	23780.16
625.824	23845.69
626.018	24068.92
626.213	23255.88
626.407	23411.53
626.602	22999.88
626.796	23313.22
626.991	23450.44
627.185	23198.54
627.38	22696.78
627.574	22903.63
627.768	22543.19
627.963	22793.04
628.157	21982.04
628.352	22340.44
628.546	22156.12
628.74	22494.04
628.935	21805.92
629.129	22086.49
629.323	21427.04
629.517	21826.4
629.712	21609.31
629.906	21500.77
630.1	21171.05
630.294	21580.64
630.489	21185.38
630.683	21197.67
630.877	20888.43
631.071	20867.95
631.265	21099.37
631.459	20673.39
631.653	20364.15
631.848	20687.73
632.042	20384.63
632.236	20597.62
632.43	20128.63
632.624	20175.73
632.818	19962.75
633.012	20099.96
633.206	19768.19
633.4	20028.28
633.594	19555.2
633.788	19598.21
633.982	19417.99
634.176	19440.51
634.369	19141.51
634.563	19178.37
634.757	18973.58
634.951	19202.95
635.145	18955.15
635.339	18961.29
635.533	18832.27
635.726	18432.91
635.92	18461.58
636.114	18635.66
636.308	18105.24
636.501	18082.71
636.695	18013.08
636.889	18201.49
637.083	17916.83
637.276	17847.19
637.47	18004.89
637.664	17628.06
637.857	17695.64
638.051	17537.95
638.244	17339.3
638.438	17267.62
638.632	17290.15
638.825	17005.48
639.019	17036.2
639.212	17109.93
639.406	16913.32
639.599	16702.38
639.793	16907.18
639.986	16219.06
640.18	16462.77
640.373	16274.35
640.567	15936.44
640.76	16307.12
640.954	15893.43
641.147	15901.62
641.34	15958.97
641.534	15684.54
641.727	15778.75
641.92	15752.12
642.114	15342.53
642.307	15363.01
642.5	15541.18
642.694	15184.83
642.887	15041.48
643.08	15184.83
643.273	14914.5
643.467	15025.09
643.66	14769.1
643.853	14830.54
644.046	14560.2
644.239	14566.35
644.432	14629.84
644.626	14445.52
644.819	14195.67
645.012	14214.1
645.205	14017.49
645.398	14154.71
645.591	13853.66
645.784	14101.46
645.977	13695.96
646.17	13839.32
646.363	13685.72
646.556	13495.26
646.749	13431.77
646.942	13390.81
647.135	13745.11
647.328	13505.5
647.521	13368.29
647.714	13016.04
647.907	12977.12
648.099	12878.82
648.292	13061.09
648.485	12741.61
648.678	12768.23
648.871	12641.26
649.064	12770.28
649.256	12717.03
649.449	12483.56
649.642	12538.86
649.835	12471.28
650.027	12198.9
650.22	12254.19
650.413	12008.44
650.605	12047.35
650.798	12055.54
650.991	11801.59
651.183	11897.85
651.376	11744.25
651.568	11803.64
651.761	11625.47
651.954	11740.15
652.146	11584.51
652.339	11617.27
652.531	11494.4
652.724	11375.61
652.916	11162.62
653.109	11228.16
653.301	11217.92
653.494	10998.79
653.686	10900.48
653.879	11148.29
654.071	11049.99
654.263	11054.08
654.456	10720.26
654.648	10820.61
654.84	10566.67
655.033	10757.13
655.225	10562.57
655.417	10372.11
655.61	10689.54
655.802	10568.71
655.994	10413.07
656.186	10591.24
656.379	10273.81
656.571	10095.63
656.763	10040.34
656.955	10144.78
657.148	10101.78
657.34	10198.03
657.532	9950.23
657.724	9997.33
657.916	9843.73
658.108	9819.16
658.3	9688.09
658.492	9745.43
658.684	9657.37
658.876	9661.46
659.068	9565.21
659.26	9419.8
659.452	9436.19
659.644	9538.59
659.836	9325.6
660.028	9450.52
660.22	9110.56
660.412	9364.51
660.604	9053.22
660.796	9155.61
660.988	8993.83
661.18	8916
661.372	8971.3
661.563	8825.89
661.755	8987.68
661.947	8729.64
662.139	8614.95
662.331	8660.01
662.522	8588.33
662.714	8590.38
662.906	8584.23
663.097	8723.49
663.289	8387.63
663.481	8393.77
663.673	8440.87
663.864	8221.74
664.056	8201.26
664.247	8420.39
664.439	8207.41
664.631	8123.44
664.822	8203.31
665.014	7988.27
665.205	7947.31
665.397	7914.55
665.588	7943.22
665.78	7926.83
665.971	7783.48
666.163	7959.6
666.354	7773.24
666.546	7726.13
666.737	7578.68
666.929	7810.1
667.12	7775.28
667.311	7562.3
667.503	7468.09
667.694	7584.82
667.885	7453.75
668.077	7394.36
668.268	7402.55
668.459	7443.51
668.651	7404.6
668.842	7214.14
669.033	7226.43
669.224	7234.62
669.416	7162.94
669.607	7195.71
669.798	7023.68
669.989	7222.33
670.18	7101.5
670.371	7066.69
670.563	7050.3
670.754	6888.51
670.945	6954.05
671.136	6894.66
671.327	7005.25
671.518	6894.66
671.709	6853.7
671.9	6970.43
672.091	6900.8
672.282	6775.88
672.473	6708.29
672.664	6814.79
672.855	6653
673.046	6710.34
673.237	6612.04
673.428	6581.32
673.619	6657.09
673.809	6454.34
674	6636.61
674.191	6583.37
674.382	6419.53
674.573	6552.65
674.764	6519.88
674.954	6579.27
675.145	6450.25
675.336	6302.79
675.527	6362.19
675.717	6487.11
675.908	6173.77
676.099	6198.35
676.289	6253.64
676.48	6165.58
676.671	6253.64
676.861	6222.92
677.052	6257.74
677.243	6190.16
677.433	6263.88
677.624	6386.76
677.814	6124.62
678.005	6116.43
678.195	6186.06
678.386	6069.33
678.576	5942.35
678.767	5911.63
678.957	6116.43
679.148	6128.72
679.338	6106.19
679.529	6128.72
679.719	5917.78
679.909	6061.13
680.1	5921.87
680.29	5952.59
680.481	5960.78
680.671	6034.51
680.861	5895.25
681.052	5825.62
681.242	6046.8
681.432	5977.17
681.622	5829.71
681.813	5936.21
682.003	5809.23
682.193	5919.82
682.383	5917.78
682.573	5844.05
682.764	5932.11
682.954	5829.71
683.144	5979.22
683.334	5889.1
683.524	5780.56
683.714	5872.72
683.904	5727.32
684.094	5731.41
684.284	5817.43
684.474	5776.47
684.664	5639.25
684.854	5618.77
685.044	5723.22
685.234	5633.11
685.424	5690.45
685.614	5381.21
685.804	5559.38
685.994	5581.91
686.184	5635.16
686.374	5508.18
686.564	5418.07
686.753	5518.42
686.943	5444.7
687.133	5624.92
687.323	5422.17
687.513	5510.23
687.702	5479.51
687.892	5502.04
688.082	5340.25
688.272	5438.55
688.461	5413.98
688.651	5549.14
688.841	5354.58
689.03	5452.89
689.22	5207.13
689.41	5354.58
689.599	5287
689.789	5313.63
689.979	5172.32
690.168	5104.73
690.358	5239.9
690.547	5133.4
690.737	5282.91
690.926	5364.82
691.116	5133.4
691.305	5141.6
691.495	5069.92
691.684	5096.54
691.874	5198.94
692.063	4920.42
692.252	5108.83
692.442	5104.73
692.631	5022.81
692.82	5086.3
693.01	4865.12
693.199	5078.11
693.388	4906.08
693.578	4834.4
693.767	4998.24
693.956	5000.29
694.146	4797.54
694.335	4717.67
694.524	4963.42
694.713	4838.5
694.902	4822.11
695.092	4809.83
695.281	4703.33
695.47	4736.1
695.659	4781.15
695.848	4715.62
696.037	4727.91
696.226	4844.64
696.415	4781.15
696.604	4895.84
696.793	4748.39
696.982	4645.99
697.171	4617.32
697.36	4580.45
697.549	4684.9
697.738	4660.32
697.927	4592.74
698.116	4652.13
698.305	4465.77
698.494	4580.45
698.683	4461.67
698.872	4701.28
699.061	4459.62
699.25	4461.67
699.438	4443.24
699.627	4404.33
699.816	4449.38
700.005	4439.14
700.193	4498.53
700.382	4373.61
700.571	4480.1
700.76	4367.46
700.948	4562.02
701.137	4447.33
701.326	4449.38
701.514	4252.78
701.703	4297.83
701.892	4420.71
702.08	4275.31
702.269	4277.35
702.457	4267.11
702.646	4334.7
702.834	4215.91
703.023	4197.48
703.212	4342.89
703.4	4211.82
703.589	4138.09
703.777	4248.68
703.965	4177
704.154	4117.61
704.342	4166.76
704.531	4035.69
704.719	4011.12
704.907	4127.85
705.096	4144.24
705.284	4158.57
705.472	4170.86
705.661	4144.24
705.849	3990.64
706.037	4207.72
706.226	4043.88
706.414	4002.93
706.602	3939.44
706.79	3968.11
706.979	3953.77
707.167	3984.49
707.355	3841.14
707.543	3912.81
707.731	3929.2
707.919	3945.58
708.107	4015.21
708.296	3880.05
708.484	3912.81
708.672	3878
708.86	3945.58
709.048	3853.42
709.236	3800.18
709.424	3724.4
709.612	3789.94
709.8	3751.03
709.988	3802.22
710.176	3851.38
710.364	3787.89
710.551	3878
710.739	3613.81
710.927	3708.02
711.115	3708.02
711.303	3652.72
711.491	3601.52
711.679	3742.83
711.866	3609.72
712.054	3724.4
712.242	3599.48
712.43	3730.55
712.617	3593.33
712.805	3488.89
712.993	3650.67
713.181	3562.61
713.368	3716.21
713.556	3495.03
713.744	3429.49
713.931	3576.95
714.119	3535.99
714.306	3497.08
714.494	3499.13
714.682	3556.47
714.869	3482.74
715.057	3560.56
715.244	3409.01
715.432	3527.8
715.619	3540.08
715.807	3384.44
715.994	3388.53
716.182	3396.73
716.369	3441.78
716.556	3511.41
716.744	3452.02
716.931	3316.86
717.119	3431.54
717.306	3368.06
717.493	3226.75
717.681	3273.85
717.868	3261.56
718.055	3433.59
718.242	3251.32
718.43	3349.62
718.617	3185.79
718.804	3187.83
718.991	3232.89
719.179	3200.12
719.366	3150.97
719.553	3267.7
719.74	3087.48
719.927	3120.25
720.114	3282.04
720.301	3105.92
720.488	3042.43
720.676	3075.2
720.863	3323
721.05	3126.39
721.237	3163.26
721.424	3161.21
721.611	3062.91
721.798	3179.64
721.985	3136.63
722.172	3183.74
722.358	3124.35
722.545	3032.19
722.732	3093.63
722.919	3150.97
723.106	2923.65
723.293	2995.32
723.48	2978.94
723.667	3038.33
723.853	2995.32
724.04	3017.85
724.227	2974.85
724.414	2899.07
724.6	2911.36
724.787	3011.71
724.974	2991.23
725.161	2923.65
725.347	2763.9
725.534	2964.61
725.72	2970.75
725.907	2835.58
726.094	2911.36
726.28	2823.3
726.467	2864.25
726.653	2798.72
726.84	2866.3
727.027	2956.41
727.213	2747.52
727.4	2962.56
727.586	2931.84
727.773	2714.75
727.959	2815.1
728.145	2802.82
728.332	2806.91
728.518	2815.1
728.705	2849.92
728.891	2843.78
729.077	2858.11
729.264	2716.8
729.45	2733.18
729.636	2759.81
729.823	2724.99
730.009	2768
730.195	2718.85
730.382	2856.06
730.568	2638.98
730.754	2698.37
730.94	2634.88
731.126	2733.18
731.313	2747.52
731.499	2495.62
731.685	2681.99
731.871	2636.93
732.057	2643.07
732.243	2651.27
732.429	2587.78
732.615	2735.23
732.801	2518.15
732.987	2720.9
733.173	2659.46
733.359	2653.31
733.545	2645.12
733.731	2643.07
733.917	2561.16
734.103	2516.1
734.289	2591.88
734.475	2536.58
734.661	2528.39
734.847	2505.86
735.033	2491.52
735.219	2634.88
735.404	2538.63
735.59	2577.54
735.776	2555.01
735.962	2540.68
736.148	2659.46
736.333	2438.28
736.519	2460.81
736.705	2364.55
736.89	2423.94
737.076	2421.89
737.262	2520.2
737.447	2401.41
737.633	2368.65
737.819	2499.72
738.004	2448.52
738.19	2430.09
738.375	2430.09
738.561	2360.45
738.747	2432.13
738.932	2376.84
739.118	2563.2
739.303	2319.5
739.489	2319.5
739.674	2335.88
739.859	2327.69
740.045	2268.3
740.23	2342.02
740.416	2223.24
740.601	2299.02
740.786	2235.53
740.972	2374.79
741.157	2294.92
741.342	2213
741.528	2227.34
741.713	2256.01
741.898	2262.15
742.084	2237.58
742.269	2284.68
742.454	2233.48
742.639	2186.38
742.824	2274.44
743.01	2143.37
743.195	2321.54
743.38	2118.79
743.565	2045.07
743.75	2149.51
743.935	2079.88
744.12	2043.02
744.305	2069.64
744.49	2139.27
744.675	2034.83
744.86	2065.55
745.045	2073.74
745.23	2016.4
745.415	1995.92
745.6	2088.07
745.785	2036.88
745.97	1965.2
746.155	2012.3
746.34	2020.49
746.525	1977.48
746.71	2069.64
746.895	1825.93
747.079	1911.95
747.264	1891.47
747.449	1959.05
747.634	1946.76
747.819	1959.05
748.003	1758.35
748.188	1842.32
748.373	1848.46
748.557	1791.12
748.742	1836.17
748.927	1811.6
749.111	1789.07
749.296	1727.63
749.481	1805.46
749.665	1844.37
749.85	1760.4
750.034	1836.17
750.219	1758.35
750.404	1711.25
750.588	1680.53
750.773	1709.2
750.957	1684.62
751.141	1594.51
751.326	1705.1
751.51	1723.54
751.695	1701.01
751.879	1735.82
752.064	1694.86
752.248	1633.43
752.432	1639.57
752.617	1696.91
752.801	1651.86
752.985	1660.05
753.17	1635.47
753.354	1602.71
753.538	1627.28
753.722	1619.09
753.907	1479.83
754.091	1516.69
754.275	1526.93
754.459	1447.06
754.643	1442.96
754.828	1522.84
755.012	1498.26
755.196	1436.82
755.38	1348.76
755.564	1412.25
755.748	1479.83
755.932	1459.35
756.116	1385.62
756.3	1315.99
756.484	1449.11
756.668	1471.64
756.852	1299.61
757.036	1275.03
757.22	1297.56
757.404	1336.47
757.588	1332.37
757.772	1391.77
757.956	1266.84
758.14	1293.46
758.323	1268.89
758.507	1195.16
758.691	1291.41
758.875	1270.94
759.059	1291.41
759.242	1234.07
759.426	1193.11
759.61	1225.88
759.794	1244.31
759.977	1254.55
760.161	1270.94
760.345	1111.19
760.528	1250.46
760.712	1105.05
760.895	1178.78
761.079	1154.2
761.263	1105.05
761.446	1170.58
761.63	1168.54
761.813	1191.06
761.997	1160.34
762.18	1193.11
762.364	1146.01
762.547	1090.71
762.731	1119.39
762.914	1031.32
763.098	1094.81
763.281	1014.94
763.464	1062.04
763.648	1103
763.831	1080.47
764.015	1043.61
764.198	1084.57
764.381	1062.04
764.564	1062.04
764.748	1113.24
764.931	1002.65
765.114	1023.13
765.297	1088.67
765.481	1023.13
765.664	1008.8
765.847	1014.94
766.03	1152.15
766.213	1053.85
766.397	1057.95
766.58	982.17
766.763	1090.71
766.946	951.45
767.129	853.15
767.312	1004.7
767.495	1037.47
767.678	998.56
767.861	984.22
768.044	965.79
768.227	947.36
768.41	969.88
768.593	963.74
768.776	865.44
768.959	1037.47
769.142	945.31
769.324	943.26
769.507	976.03
769.69	910.49
769.873	916.64
770.056	971.93
770.239	965.79
770.421	939.16
770.604	890.01
770.787	939.16
770.97	957.6
771.152	947.36
771.335	1004.7
771.518	865.44
771.7	853.15
771.883	902.3
772.066	867.49
772.248	865.44
772.431	834.72
772.613	890.01
772.796	812.19
772.978	750.75
773.161	969.88
773.343	820.38
773.526	840.86
773.708	791.71
773.891	769.18
774.073	812.19
774.256	767.13
774.438	851.1
774.621	697.5
774.803	853.15
774.985	857.25
775.168	832.67
775.35	849.05
775.532	801.95
775.715	736.42
775.897	752.8
776.079	724.13
776.261	793.76
776.444	769.18
776.626	750.75
776.808	734.37
776.99	756.9
777.173	779.42
777.355	715.94
777.537	730.27
777.719	789.66
777.901	695.46
778.083	717.98
778.265	687.26
778.447	677.02
778.629	750.75
778.811	689.31
778.993	654.5
779.175	629.92
779.357	734.37
779.539	619.68
779.721	615.59
779.903	666.78
780.085	685.22
780.267	695.46
780.449	662.69
780.631	586.91
780.812	595.11
780.994	582.82
781.176	588.96
781.358	591.01
781.54	519.33
781.721	605.35
781.903	621.73
782.085	613.54
782.267	599.2
782.448	627.87
782.63	533.67
782.812	545.95
782.993	603.3
783.175	580.77
783.357	504.99
783.538	513.19
783.72	468.13
783.901	586.91
784.083	570.53
784.264	521.38
784.446	486.56
784.627	431.27
784.809	486.56
784.99	539.81
785.172	480.42
785.353	541.86
785.535	554.15
785.716	591.01
785.897	480.42
786.079	353.45
786.26	574.63
786.441	498.85
786.623	414.88
786.804	392.36
786.985	441.51
787.167	496.8
787.348	439.46
787.529	496.8
787.71	586.91
787.891	517.28
788.073	423.08
788.254	482.47
788.435	480.42
788.616	398.5
788.797	525.47
788.978	382.12
789.159	470.18
789.34	408.74
789.522	406.69
789.703	429.22
789.884	406.69
790.065	431.27
790.246	437.41
790.427	406.69
790.607	363.69
790.788	414.88
790.969	373.92
791.15	373.92
791.331	343.21
791.512	406.69
791.693	357.54
791.874	418.98
792.054	439.46
792.235	361.64
792.416	292.01
792.597	332.97
792.778	357.54
792.958	373.92
793.139	421.03
793.32	353.45
793.5	246.95
793.681	418.98
793.862	341.16
794.042	312.49
794.223	242.85
794.404	375.97
794.584	326.82
794.765	316.58
794.945	238.76
795.126	326.82
795.306	365.73
795.487	337.06
795.667	242.85
795.848	337.06
796.028	294.05
796.209	324.77
796.389	310.44
796.57	302.25
796.75	193.7
796.93	285.86
797.111	279.72
797.291	318.63
797.471	289.96
797.652	275.62
797.832	298.15
798.012	259.24
798.192	287.91
798.373	234.66
798.553	298.15
798.733	316.58
798.913	249
799.093	267.43
799.274	283.81
799.454	361.64
799.634	296.1
799.814	300.2
799.994	312.49
800.174	275.62
800.354	261.29
800.534	195.75
800.714	324.77
800.894	292.01
801.074	300.2
801.254	236.71
801.434	242.85
801.614	228.52
801.794	210.09
801.974	865.44
802.154	236.71
802.334	283.81
802.514	162.98
802.693	277.67
802.873	292.01
803.053	267.43
803.233	195.75
803.413	201.9
803.592	185.51
803.772	181.42
803.952	236.71
804.131	279.72
804.311	185.51
804.491	322.73
804.67	212.14
804.85	234.66
805.03	205.99
805.209	324.77
805.389	197.8
805.568	251.05
805.748	238.76
805.928	277.67
806.107	261.29
806.287	228.52
806.466	232.62
806.646	249
806.825	191.66
807.004	177.32
807.184	214.18
807.363	300.2
807.543	177.32
807.722	222.38
807.901	214.18
808.081	251.05
808.26	169.13
808.439	162.98
808.619	267.43
808.798	285.86
808.977	136.36
809.156	218.28
809.336	181.42
809.515	218.28
809.694	165.03
809.873	199.85
810.052	251.05
810.231	251.05
810.411	195.75
810.59	281.77
810.769	212.14
810.948	222.38
811.127	136.36
811.306	111.78
811.485	201.9
811.664	185.51
811.843	261.29
812.022	162.98
812.201	185.51
812.38	197.8
812.559	152.74
812.737	136.36
812.916	132.26
813.095	162.98
813.274	177.32
813.453	185.51
813.632	232.62
813.811	242.85
813.989	175.27
814.168	81.07
814.347	154.79
814.526	154.79
814.704	222.38
814.883	275.62
815.062	181.42
815.24	162.98
815.419	103.59
815.598	181.42
815.776	201.9
815.955	122.02
816.133	146.6
816.312	214.18
816.49	156.84
816.669	175.27
816.847	205.99
817.026	142.5
817.204	119.98
817.383	117.93
817.561	91.31
817.74	144.55
817.918	226.47
818.097	132.26
818.275	111.78
818.453	169.13
818.632	160.94
818.81	91.31
818.988	160.94
819.167	165.03
819.345	97.45
819.523	109.74
819.701	128.17
819.879	128.17
820.058	85.16
820.236	148.65
820.414	117.93
820.592	154.79
820.77	109.74
820.948	124.07
821.127	74.92
821.305	91.31
821.483	52.39
821.661	162.98
821.839	165.03
822.017	103.59
822.195	167.08
822.373	189.61
822.551	119.98
822.729	128.17
822.907	222.38
823.085	160.94
823.262	144.55
823.44	130.22
823.618	132.26
823.796	154.79
823.974	42.15
824.152	93.35
824.329	64.68
824.507	144.55
824.685	197.8
824.863	105.64
825.04	56.49
825.218	83.11
825.396	105.64
825.574	146.6
825.751	93.35
825.929	136.36
826.107	38.06
826.284	144.55
826.462	160.94
826.639	173.22
826.817	128.17
826.994	107.69
827.172	40.11
827.349	115.88
827.527	132.26
827.704	87.21
827.882	122.02
828.059	95.4
828.237	95.4
828.414	79.02
828.591	79.02
828.769	119.98
828.946	79.02
829.124	138.41
829.301	126.12
829.478	169.13
829.655	68.78
829.833	97.45
830.01	13.48
830.187	154.79
830.364	76.97
830.542	103.59
830.719	111.78
830.896	70.83
831.073	83.11
831.25	138.41
831.427	177.32
831.604	79.02
831.782	52.39
831.959	42.15
832.136	52.39
832.313	31.91
832.49	154.79
832.667	46.25
832.844	83.11
833.021	103.59
833.198	181.42
833.374	38.06
833.551	103.59
833.728	74.92
833.905	119.98
834.082	29.87
834.259	136.36
834.436	83.11
834.612	21.67
834.789	107.69
834.966	13.48
835.143	52.39
835.319	58.54
835.496	105.64
835.673	115.88
835.85	142.5
836.026	126.12
836.203	50.35
836.38	72.87
836.556	48.3
836.733	109.74
836.909	162.98
837.086	83.11
837.262	31.91
837.439	54.44
837.616	119.98
837.792	54.44
837.968	54.44
838.145	-0.85
838.321	93.35
838.498	152.74
838.674	87.21
838.851	107.69
839.027	97.45
839.203	62.63
839.38	113.83
839.556	64.68
839.732	95.4
839.909	40.11
840.085	113.83
840.261	50.35
840.437	46.25
840.614	5.29
840.79	74.92
840.966	91.31
841.142	79.02
841.318	25.77
841.494	146.6
841.671	70.83
841.847	83.11
842.023	72.87
842.199	130.22
842.375	91.31
842.551	29.87
842.727	-0.85
842.903	42.15
843.079	-25.43
843.255	160.94
843.431	5.29
843.607	66.73
843.783	7.34
843.959	3.24
844.134	31.91
844.31	79.02
844.486	42.15
844.662	74.92
844.838	87.21
845.013	81.07
845.189	91.31
845.365	56.49
845.541	46.25
845.716	5.29
845.892	79.02
846.068	31.91
846.244	9.39
846.419	48.3
846.595	-21.33
846.77	9.39
846.946	-4.95
847.122	64.68
847.297	-15.19
847.473	132.26
847.648	-27.48
847.824	33.96
847.999	9.39
848.175	89.26
848.35	-7
848.526	87.21
848.701	105.64
848.876	58.54
849.052	162.98
849.227	17.58
849.403	56.49
849.578	105.64
849.753	21.67
849.929	48.3
850.104	54.44
850.279	66.73
850.454	-35.67
850.63	50.35
850.805	21.67
850.98	19.63
851.155	58.54
851.33	62.63
851.505	-19.29
851.681	70.83
851.856	40.11
852.031	79.02
852.206	93.35
852.381	5.29
852.556	54.44
852.731	101.55
852.906	46.25
853.081	25.77
853.256	79.02
853.431	-11.09
853.606	-11.09
853.781	42.15
853.956	-19.29
854.131	25.77
854.305	111.78
854.48	54.44
854.655	-47.96
854.83	15.53
855.005	13.48
855.18	79.02
855.354	40.11
855.529	64.68
855.704	17.58
855.879	33.96
856.053	-60.24
856.228	103.59
856.403	-35.67
856.577	42.15
856.752	9.39
856.926	40.11
857.101	13.48
857.276	9.39
857.45	46.25
857.625	111.78
857.799	103.59
857.974	119.98
858.148	15.53
858.323	15.53
858.497	46.25
858.672	52.39
858.846	1.19
859.02	81.07
859.195	-11.09
859.369	62.63
859.543	79.02
859.718	46.25
859.892	9.39
860.066	21.67
860.241	33.96
860.415	5.29
860.589	44.2
860.763	19.63
860.938	-58.2
861.112	42.15
861.286	23.72
861.46	29.87
861.634	31.91
861.808	48.3
861.982	-33.62
862.157	15.53
862.331	79.02
862.505	38.06
862.679	7.34
862.853	46.25
863.027	-23.38
863.201	91.31
863.375	-7
863.549	79.02
863.722	70.83
863.896	48.3
864.07	-7
864.244	25.77
864.418	40.11
864.592	-52.05
864.766	46.25
864.939	158.89
865.113	54.44
865.287	31.91
865.461	11.43
865.634	9.39
865.808	21.67
865.982	-33.62
866.156	17.58
866.329	-52.05
866.503	-25.43
866.676	62.63
866.85	33.96
867.024	-35.67
867.197	56.49
867.371	95.4
867.544	38.06
867.718	40.11
867.891	19.63
868.065	48.3
868.238	-35.67
868.412	42.15
868.585	13.48
868.759	15.53
868.932	15.53
869.105	23.72
869.279	15.53
869.452	13.48
869.625	-2.9
869.799	91.31
869.972	-23.38
870.145	95.4
870.319	87.21
870.492	-37.72
870.665	23.72
870.838	-33.62
871.011	-60.24
871.185	1.19
871.358	-43.86
871.531	48.3
871.704	-43.86
871.877	-2.9
872.05	-58.2
872.223	-35.67
872.396	58.54
872.569	56.49
872.742	33.96
872.915	58.54
873.088	-15.19
873.261	31.91
873.434	58.54
873.607	27.82
873.78	50.35
873.953	-27.48
874.126	-76.63
874.299	21.67
874.471	44.2
874.644	62.63
874.817	58.54
874.99	40.11
875.163	70.83
875.335	1.19
875.508	31.91
875.681	25.77
875.853	38.06
876.026	5.29
876.199	54.44
876.371	19.63
876.544	-56.15
876.717	70.83
876.889	66.73
877.062	29.87
877.234	-64.34
877.407	31.91
877.579	-2.9
877.752	5.29
877.924	31.91
878.097	31.91
878.269	74.92
878.442	9.39
878.614	21.67
878.786	91.31
878.959	-2.9
879.131	-13.14
879.303	1.19
879.476	64.68
879.648	48.3
879.82	1.19
879.993	-2.9
880.165	23.72
880.337	-68.44
880.509	44.2
880.681	38.06
880.854	21.67
881.026	42.15
881.198	99.5
881.37	5.29
881.542	-0.85
881.714	-19.29
881.886	5.29
882.058	58.54
882.23	-9.05
882.402	-43.86
882.574	38.06
882.746	13.48
882.918	79.02
883.09	-19.29
883.262	-7
883.434	-45.91
883.606	-15.19
883.778	17.58
883.95	99.5
884.122	79.02
884.293	46.25
884.465	58.54
884.637	83.11
884.809	29.87
884.98	21.67
885.152	46.25
885.324	29.87
885.496	-15.19
885.667	42.15
885.839	13.48
886.011	79.02
886.182	25.77
886.354	38.06
886.525	-43.86
886.697	-9.05
886.869	-9.05
887.04	50.35
887.212	42.15
887.383	-19.29
887.555	-2.9
887.726	21.67
887.897	-7
888.069	-0.85
888.24	11.43
888.412	21.67
888.583	-9.05
888.754	13.48
888.926	-35.67
889.097	38.06
889.268	-2.9
889.44	1.19
889.611	-45.91
889.782	-0.85
889.953	17.58
890.125	56.49
890.296	-66.39
890.467	1.19
890.638	38.06
890.809	-56.15
890.98	-25.43
891.151	46.25
891.323	79.02
891.494	40.11
891.665	-19.29
891.836	17.58
892.007	52.39
892.178	89.26
892.349	-27.48
892.52	-9.05
892.691	7.34
892.862	13.48
893.032	-93.01
893.203	72.87
893.374	46.25
893.545	62.63
893.716	-52.05
893.887	87.21
894.057	29.87
894.228	-33.62
894.399	-52.05
894.57	9.39
894.74	-4.95
894.911	9.39
895.082	-23.38
895.253	21.67
895.423	-7
895.594	62.63
895.764	58.54
895.935	-23.38
896.106	13.48
896.276	-35.67
896.447	21.67
896.617	23.72
896.788	-39.76
896.958	-0.85
897.129	17.58
897.299	-35.67
897.47	83.11
897.64	-7
897.81	9.39
897.981	111.78
898.151	50.35
898.322	-9.05
898.492	87.21
898.662	17.58
898.832	33.96
899.003	5.29
899.173	-4.95
899.343	46.25
899.513	21.67
