Data from USB4F104151__36__14-29-44-437.txt Node

Date: Thu Mar 13 14:29:44 EDT 2025
User: louis
Spectrometer: USB4F10415
Trigger mode: 4
Integration Time (sec): 2.500000E-2
Scans to average: 1
Electric dark correction enabled: true
Nonlinearity correction enabled: false
Boxcar width: 0
XAxis mode: Wavelengths
Number of Pixels in Spectrum: 3648
>>>>>Begin Spectral Data<<<<<
178.204	-99.16
178.424	-99.16
178.644	-99.16
178.864	-125.78
179.084	-84.82
179.304	-11.09
179.524	-11.09
179.744	13.48
179.964	44.2
180.184	23.72
180.404	9.39
180.624	13.48
180.844	-25.43
181.064	-7
181.283	-60.24
181.503	-43.86
181.723	54.44
181.943	-7
182.163	93.35
182.383	7.34
182.602	29.87
182.822	81.07
183.042	103.59
183.262	97.45
183.482	79.02
183.701	5.29
183.921	52.39
184.141	-54.1
184.361	27.82
184.58	15.53
184.8	-35.67
185.02	46.25
185.239	76.97
185.459	38.06
185.679	33.96
185.898	-25.43
186.118	17.58
186.338	70.83
186.557	97.45
186.777	79.02
186.997	15.53
187.216	-19.29
187.436	115.88
187.655	-0.85
187.875	25.77
188.095	-15.19
188.314	62.63
188.534	46.25
188.753	13.48
188.973	103.59
189.192	93.35
189.412	66.73
189.631	5.29
189.851	7.34
190.07	56.49
190.29	15.53
190.509	15.53
190.729	-60.24
190.948	48.3
191.168	177.32
191.387	17.58
191.607	13.48
191.826	70.83
192.045	38.06
192.265	70.83
192.484	33.96
192.704	29.87
192.923	62.63
193.142	95.4
193.362	-68.44
193.581	140.46
193.8	91.31
194.02	40.11
194.239	103.59
194.458	81.07
194.678	79.02
194.897	89.26
195.116	46.25
195.335	89.26
195.555	72.87
195.774	44.2
195.993	58.54
196.212	70.83
196.432	-33.62
196.651	1.19
196.87	29.87
197.089	54.44
197.308	21.67
197.528	40.11
197.747	44.2
197.966	-11.09
198.185	62.63
198.404	7.34
198.623	83.11
198.842	111.78
199.062	52.39
199.281	50.35
199.5	-15.19
199.719	50.35
199.938	50.35
200.157	128.17
200.376	107.69
200.595	-7
200.814	50.35
201.033	-35.67
201.252	-17.24
201.471	64.68
201.69	119.98
201.909	42.15
202.128	46.25
202.347	74.92
202.566	1.19
202.785	17.58
203.004	46.25
203.223	103.59
203.442	5.29
203.661	54.44
203.879	70.83
204.098	38.06
204.317	36.01
204.536	62.63
204.755	21.67
204.974	13.48
205.193	62.63
205.411	79.02
205.63	79.02
205.849	85.16
206.068	89.26
206.287	23.72
206.505	81.07
206.724	-31.57
206.943	46.25
207.162	40.11
207.381	13.48
207.599	5.29
207.818	29.87
208.037	85.16
208.255	46.25
208.474	62.63
208.693	13.48
208.911	81.07
209.13	46.25
209.349	54.44
209.567	27.82
209.786	115.88
210.005	33.96
210.223	31.91
210.442	-2.9
210.661	-45.91
210.879	46.25
211.098	21.67
211.316	60.59
211.535	40.11
211.753	42.15
211.972	-9.05
212.191	9.39
212.409	7.34
212.628	-15.19
212.846	-2.9
213.065	70.83
213.283	115.88
213.502	-52.05
213.72	-33.62
213.938	74.92
214.157	40.11
214.375	111.78
214.594	7.34
214.812	83.11
215.031	7.34
215.249	36.01
215.467	-27.48
215.686	40.11
215.904	119.98
216.122	48.3
216.341	50.35
216.559	146.6
216.778	54.44
216.996	46.25
217.214	56.49
217.432	5.29
217.651	-27.48
217.869	109.74
218.087	15.53
218.306	83.11
218.524	58.54
218.742	-43.86
218.96	19.63
219.179	97.45
219.397	1.19
219.615	60.59
219.833	40.11
220.051	-2.9
220.27	21.67
220.488	5.29
220.706	13.48
220.924	33.96
221.142	-33.62
221.36	-7
221.578	-9.05
221.796	31.91
222.015	56.49
222.233	40.11
222.451	70.83
222.669	13.48
222.887	70.83
223.105	-58.2
223.323	-27.48
223.541	19.63
223.759	1.19
223.977	46.25
224.195	97.45
224.413	50.35
224.631	79.02
224.849	7.34
225.067	87.21
225.285	-11.09
225.503	46.25
225.721	-11.09
225.939	36.01
226.157	21.67
226.375	95.4
226.592	-4.95
226.81	9.39
227.028	62.63
227.246	89.26
227.464	38.06
227.682	21.67
227.9	119.98
228.117	83.11
228.335	58.54
228.553	40.11
228.771	79.02
228.989	46.25
229.206	56.49
229.424	91.31
229.642	33.96
229.86	-9.05
230.077	56.49
230.295	-7
230.513	103.59
230.731	76.97
230.948	83.11
231.166	130.22
231.384	1.19
231.601	48.3
231.819	7.34
232.037	89.26
232.254	13.48
232.472	72.87
232.689	70.83
232.907	83.11
233.125	72.87
233.342	-68.44
233.56	70.83
233.777	50.35
233.995	81.07
234.213	29.87
234.43	46.25
234.648	107.69
234.865	23.72
235.083	21.67
235.3	7.34
235.518	95.4
235.735	72.87
235.953	130.22
236.17	25.77
236.388	56.49
236.605	5.29
236.822	38.06
237.04	58.54
237.257	42.15
237.475	-50
237.692	103.59
237.909	62.63
238.127	-9.05
238.344	27.82
238.562	160.94
238.779	-11.09
238.996	-15.19
239.214	-43.86
239.431	130.22
239.648	-19.29
239.865	70.83
240.083	-9.05
240.3	40.11
240.517	-0.85
240.735	44.2
240.952	52.39
241.169	7.34
241.386	54.44
241.603	40.11
241.821	31.91
242.038	21.67
242.255	48.3
242.472	42.15
242.689	72.87
242.907	130.22
243.124	9.39
243.341	97.45
243.558	46.25
243.775	-52.05
243.992	7.34
244.209	-23.38
244.426	132.26
244.643	107.69
244.86	97.45
245.078	115.88
245.295	54.44
245.512	111.78
245.729	13.48
245.946	97.45
246.163	103.59
246.38	21.67
246.597	13.48
246.814	74.92
247.031	66.73
247.248	-15.19
247.464	103.59
247.681	54.44
247.898	23.72
248.115	13.48
248.332	48.3
248.549	87.21
248.766	-9.05
248.983	74.92
249.2	-17.24
249.417	38.06
249.633	109.74
249.85	148.65
250.067	40.11
250.284	33.96
250.501	64.68
250.717	70.83
250.934	-33.62
251.151	46.25
251.368	54.44
251.585	203.94
251.801	-17.24
252.018	99.5
252.235	15.53
252.451	23.72
252.668	54.44
252.885	95.4
253.102	-11.09
253.318	23.72
253.535	-52.05
253.752	64.68
253.968	29.87
254.185	23.72
254.401	-15.19
254.618	56.49
254.835	40.11
255.051	54.44
255.268	36.01
255.484	91.31
255.701	-68.44
255.917	62.63
256.134	21.67
256.351	81.07
256.567	-27.48
256.784	-4.95
257	-2.9
257.217	-19.29
257.433	64.68
257.65	130.22
257.866	101.55
258.082	62.63
258.299	21.67
258.515	54.44
258.732	33.96
258.948	-2.9
259.165	48.3
259.381	70.83
259.597	105.64
259.814	50.35
260.03	11.43
260.246	25.77
260.463	48.3
260.679	7.34
260.895	-11.09
261.112	95.4
261.328	-27.48
261.544	27.82
261.761	64.68
261.977	48.3
262.193	89.26
262.409	36.01
262.626	31.91
262.842	48.3
263.058	-2.9
263.274	19.63
263.49	-47.96
263.707	54.44
263.923	21.67
264.139	-9.05
264.355	33.96
264.571	50.35
264.787	54.44
265.004	87.21
265.22	7.34
265.436	-60.24
265.652	21.67
265.868	-2.9
266.084	-7
266.3	-15.19
266.516	3.24
266.732	64.68
266.948	72.87
267.164	85.16
267.38	21.67
267.596	95.4
267.812	23.72
268.028	13.48
268.244	68.78
268.46	38.06
268.676	31.91
268.892	89.26
269.108	50.35
269.324	23.72
269.54	42.15
269.756	72.87
269.972	9.39
270.188	1.19
270.403	40.11
270.619	48.3
270.835	70.83
271.051	93.35
271.267	1.19
271.483	38.06
271.698	48.3
271.914	72.87
272.13	-25.43
272.346	5.29
272.562	79.02
272.777	25.77
272.993	15.53
273.209	27.82
273.425	-2.9
273.64	5.29
273.856	62.63
274.072	-23.38
274.287	38.06
274.503	138.41
274.719	7.34
274.934	21.67
275.15	-47.96
275.366	119.98
275.581	-11.09
275.797	33.96
276.012	74.92
276.228	-7
276.444	29.87
276.659	46.25
276.875	27.82
277.09	119.98
277.306	23.72
277.521	99.5
277.737	-27.48
277.952	122.02
278.168	21.67
278.383	97.45
278.599	79.02
278.814	38.06
279.03	62.63
279.245	83.11
279.461	40.11
279.676	95.4
279.892	-23.38
280.107	19.63
280.322	-15.19
280.538	87.21
280.753	-4.95
280.969	70.83
281.184	38.06
281.399	70.83
281.615	-35.67
281.83	48.3
282.045	74.92
282.26	29.87
282.476	29.87
282.691	70.83
282.906	-9.05
283.122	66.73
283.337	31.91
283.552	38.06
283.767	38.06
283.983	79.02
284.198	21.67
284.413	89.26
284.628	-78.68
284.843	31.91
285.058	66.73
285.274	50.35
285.489	15.53
285.704	72.87
285.919	25.77
286.134	-33.62
286.349	64.68
286.564	64.68
286.779	23.72
286.995	15.53
287.21	29.87
287.425	95.4
287.64	-52.05
287.855	109.74
288.07	38.06
288.285	38.06
288.5	62.63
288.715	13.48
288.93	79.02
289.145	-13.14
289.36	50.35
289.575	19.63
289.79	74.92
290.004	7.34
290.219	48.3
290.434	33.96
290.649	-19.29
290.864	66.73
291.079	29.87
291.294	46.25
291.509	62.63
291.724	42.15
291.938	81.07
292.153	-0.85
292.368	85.16
292.583	9.39
292.798	29.87
293.012	87.21
293.227	-23.38
293.442	13.48
293.657	9.39
293.871	81.07
294.086	29.87
294.301	52.39
294.516	-15.19
294.73	70.83
294.945	15.53
295.16	-31.57
295.374	-27.48
295.589	91.31
295.804	21.67
296.018	103.59
296.233	74.92
296.447	62.63
296.662	21.67
296.877	105.64
297.091	-9.05
297.306	62.63
297.52	85.16
297.735	31.91
297.949	11.43
298.164	113.83
298.378	79.02
298.593	5.29
298.807	33.96
299.022	25.77
299.236	46.25
299.451	42.15
299.665	87.21
299.88	13.48
300.094	79.02
300.309	54.44
300.523	81.07
300.737	38.06
300.952	54.44
301.166	-4.95
301.381	68.78
301.595	9.39
301.809	91.31
302.024	21.67
302.238	9.39
302.452	64.68
302.667	50.35
302.881	169.13
303.095	115.88
303.309	119.98
303.524	29.87
303.738	105.64
303.952	48.3
304.166	56.49
304.381	-41.81
304.595	42.15
304.809	107.69
305.023	48.3
305.237	33.96
305.452	23.72
305.666	42.15
305.88	89.26
306.094	99.5
306.308	40.11
306.522	31.91
306.736	25.77
306.95	50.35
307.164	5.29
307.379	23.72
307.593	93.35
307.807	62.63
308.021	66.73
308.235	87.21
308.449	11.43
308.663	40.11
308.877	95.4
309.091	66.73
309.305	66.73
309.519	27.82
309.733	38.06
309.947	66.73
310.161	29.87
310.374	99.5
310.588	97.45
310.802	66.73
311.016	87.21
311.23	140.46
311.444	-25.43
311.658	-0.85
311.872	48.3
312.085	36.01
312.299	15.53
312.513	40.11
312.727	95.4
312.941	54.44
313.154	66.73
313.368	56.49
313.582	103.59
313.796	42.15
314.009	23.72
314.223	31.91
314.437	74.92
314.651	87.21
314.864	29.87
315.078	-2.9
315.292	15.53
315.505	23.72
315.719	124.07
315.933	40.11
316.146	87.21
316.36	-17.24
316.573	38.06
316.787	83.11
317.001	83.11
317.214	40.11
317.428	36.01
317.641	27.82
317.855	19.63
318.068	62.63
318.282	13.48
318.495	97.45
318.709	87.21
318.922	33.96
319.136	136.36
319.349	169.13
319.563	46.25
319.776	38.06
319.99	54.44
320.203	119.98
320.417	74.92
320.63	29.87
320.843	62.63
321.057	66.73
321.27	68.78
321.483	64.68
321.697	79.02
321.91	56.49
322.124	79.02
322.337	56.49
322.55	31.91
322.763	76.97
322.977	42.15
323.19	-2.9
323.403	79.02
323.617	29.87
323.83	64.68
324.043	42.15
324.256	9.39
324.469	-17.24
324.683	23.72
324.896	-11.09
325.109	66.73
325.322	-27.48
325.535	15.53
325.748	107.69
325.962	5.29
326.175	66.73
326.388	-4.95
326.601	50.35
326.814	3.24
327.027	-19.29
327.24	103.59
327.453	-0.85
327.666	29.87
327.879	42.15
328.092	70.83
328.305	7.34
328.518	38.06
328.731	25.77
328.944	56.49
329.157	111.78
329.37	27.82
329.583	46.25
329.796	56.49
330.009	-2.9
330.222	70.83
330.435	70.83
330.648	64.68
330.861	13.48
331.073	76.97
331.286	56.49
331.499	54.44
331.712	-11.09
331.925	-9.05
332.138	-33.62
332.35	105.64
332.563	3.24
332.776	79.02
332.989	15.53
333.202	79.02
333.414	-17.24
333.627	25.77
333.84	-31.57
334.053	124.07
334.265	-19.29
334.478	25.77
334.691	115.88
334.903	9.39
335.116	54.44
335.329	29.87
335.541	66.73
335.754	46.25
335.966	11.43
336.179	83.11
336.392	31.91
336.604	87.21
336.817	103.59
337.029	-29.52
337.242	105.64
337.454	83.11
337.667	48.3
337.88	148.65
338.092	97.45
338.305	126.12
338.517	87.21
338.729	13.48
338.942	95.4
339.154	33.96
339.367	29.87
339.579	-7
339.792	13.48
340.004	89.26
340.217	21.67
340.429	87.21
340.641	64.68
340.854	21.67
341.066	13.48
341.278	74.92
341.491	54.44
341.703	46.25
341.915	-2.9
342.128	68.78
342.34	29.87
342.552	33.96
342.764	31.91
342.977	31.91
343.189	21.67
343.401	31.91
343.613	-80.72
343.826	74.92
344.038	-9.05
344.25	79.02
344.462	56.49
344.674	23.72
344.886	54.44
345.099	66.73
345.311	15.53
345.523	13.48
345.735	25.77
345.947	72.87
346.159	31.91
346.371	21.67
346.583	93.35
346.795	119.98
347.007	29.87
347.219	54.44
347.431	-7
347.643	93.35
347.855	83.11
348.067	38.06
348.279	-39.76
348.491	54.44
348.703	40.11
348.915	19.63
349.127	83.11
349.339	48.3
349.551	40.11
349.763	91.31
349.975	7.34
350.187	99.5
350.399	124.07
350.61	62.63
350.822	33.96
351.034	113.83
351.246	128.17
351.458	72.87
351.669	103.59
351.881	36.01
352.093	72.87
352.305	70.83
352.517	58.54
352.728	124.07
352.94	99.5
353.152	52.39
353.363	64.68
353.575	72.87
353.787	50.35
353.999	79.02
354.21	29.87
354.422	111.78
354.633	173.22
354.845	-11.09
355.057	70.83
355.268	62.63
355.48	62.63
355.692	99.5
355.903	62.63
356.115	64.68
356.326	15.53
356.538	103.59
356.749	48.3
356.961	70.83
357.172	-43.86
357.384	13.48
357.595	144.55
357.807	23.72
358.018	60.59
358.23	70.83
358.441	124.07
358.653	9.39
358.864	33.96
359.075	56.49
359.287	33.96
359.498	21.67
359.709	87.21
359.921	105.64
360.132	72.87
360.344	50.35
360.555	11.43
360.766	103.59
360.977	33.96
361.189	72.87
361.4	42.15
361.611	79.02
361.823	91.31
362.034	81.07
362.245	-23.38
362.456	62.63
362.667	62.63
362.879	70.83
363.09	19.63
363.301	23.72
363.512	70.83
363.723	128.17
363.935	38.06
364.146	136.36
364.357	66.73
364.568	62.63
364.779	54.44
364.99	72.87
365.201	-7
365.412	21.67
365.623	23.72
365.834	124.07
366.045	95.4
366.256	42.15
366.467	62.63
366.678	68.78
366.889	23.72
367.1	-17.24
367.311	52.39
367.522	15.53
367.733	54.44
367.944	62.63
368.155	95.4
368.366	72.87
368.577	105.64
368.788	95.4
368.999	-15.19
369.209	23.72
369.42	160.94
369.631	89.26
369.842	46.25
370.053	81.07
370.264	146.6
370.474	44.2
370.685	58.54
370.896	3.24
371.107	58.54
371.317	72.87
371.528	50.35
371.739	128.17
371.95	5.29
372.16	50.35
372.371	-19.29
372.582	13.48
372.792	107.69
373.003	44.2
373.214	101.55
373.424	31.91
373.635	68.78
373.846	56.49
374.056	58.54
374.267	40.11
374.477	54.44
374.688	56.49
374.898	33.96
375.109	122.02
375.319	31.91
375.53	105.64
375.74	-41.81
375.951	-31.57
376.161	54.44
376.372	160.94
376.582	89.26
376.793	113.83
377.003	7.34
377.214	50.35
377.424	23.72
377.635	58.54
377.845	7.34
378.055	115.88
378.266	-7
378.476	72.87
378.686	56.49
378.897	56.49
379.107	132.26
379.317	122.02
379.528	23.72
379.738	107.69
379.948	101.55
380.158	91.31
380.369	79.02
380.579	13.48
380.789	50.35
380.999	91.31
381.21	70.83
381.42	115.88
381.63	138.41
381.84	95.4
382.05	91.31
382.261	70.83
382.471	144.55
382.681	126.12
382.891	115.88
383.101	64.68
383.311	7.34
383.521	5.29
383.731	72.87
383.941	111.78
384.151	23.72
384.361	154.79
384.571	89.26
384.781	46.25
384.991	58.54
385.201	111.78
385.411	87.21
385.621	95.4
385.831	136.36
386.041	33.96
386.251	44.2
386.461	144.55
386.671	111.78
386.881	85.16
387.091	91.31
387.301	74.92
387.511	72.87
387.72	-7
387.93	74.92
388.14	83.11
388.35	101.55
388.56	95.4
388.769	132.26
388.979	130.22
389.189	-9.05
389.399	-0.85
389.609	11.43
389.818	38.06
390.028	95.4
390.238	103.59
390.447	115.88
390.657	46.25
390.867	68.78
391.076	56.49
391.286	95.4
391.496	154.79
391.705	52.39
391.915	115.88
392.125	99.5
392.334	64.68
392.544	107.69
392.753	25.77
392.963	66.73
393.172	46.25
393.382	62.63
393.591	64.68
393.801	124.07
394.01	58.54
394.22	66.73
394.429	42.15
394.639	48.3
394.848	115.88
395.058	95.4
395.267	132.26
395.477	85.16
395.686	91.31
395.895	54.44
396.105	175.27
396.314	171.18
396.524	142.5
396.733	89.26
396.942	175.27
397.152	171.18
397.361	199.85
397.57	66.73
397.78	132.26
397.989	124.07
398.198	177.32
398.407	95.4
398.617	72.87
398.826	56.49
399.035	89.26
399.244	179.37
399.453	158.89
399.663	113.83
399.872	138.41
400.081	70.83
400.29	79.02
400.499	50.35
400.708	111.78
400.917	140.46
401.127	177.32
401.336	54.44
401.545	179.37
401.754	111.78
401.963	97.45
402.172	146.6
402.381	128.17
402.59	83.11
402.799	154.79
403.008	97.45
403.217	136.36
403.426	152.74
403.635	152.74
403.844	62.63
404.053	111.78
404.262	107.69
404.471	165.03
404.68	175.27
404.888	173.22
405.097	189.61
405.306	177.32
405.515	171.18
405.724	144.55
405.933	218.28
406.142	185.51
406.35	185.51
406.559	232.62
406.768	242.85
406.977	341.16
407.185	234.66
407.394	205.99
407.603	169.13
407.812	212.14
408.02	294.05
408.229	193.7
408.438	220.33
408.646	283.81
408.855	267.43
409.064	357.54
409.272	169.13
409.481	289.96
409.69	285.86
409.898	238.76
410.107	365.73
410.315	263.33
410.524	287.91
410.733	339.11
410.941	335.01
411.15	386.21
411.358	373.92
411.567	447.65
411.775	392.36
411.984	406.69
412.192	476.32
412.401	435.36
412.609	457.89
412.818	521.38
413.026	498.85
413.234	562.34
413.443	539.81
413.651	554.15
413.86	599.2
414.068	660.64
414.276	674.98
414.485	617.63
414.693	826.53
414.901	711.84
415.11	709.79
415.318	750.75
415.526	744.61
415.734	828.57
415.943	818.33
416.151	908.44
416.359	894.11
416.567	865.44
416.776	939.16
416.984	1053.85
417.192	969.88
417.4	988.32
417.608	996.51
417.817	1055.9
418.025	1176.73
418.233	1272.98
418.441	1221.78
418.649	1258.65
418.857	1213.59
419.065	1379.48
419.273	1303.7
419.481	1481.88
419.689	1488.02
419.897	1488.02
420.105	1658
420.313	1623.19
420.521	1571.99
420.729	1737.87
420.937	1750.16
421.145	1692.82
421.353	1901.71
421.561	2061.45
421.769	2143.37
421.977	2249.86
422.185	2143.37
422.393	2137.23
422.601	2473.09
422.809	2423.94
423.017	2331.78
423.224	2581.64
423.432	2608.26
423.64	2503.81
423.848	2841.73
424.056	2765.95
424.263	3064.96
424.471	2983.04
424.679	3054.72
424.887	3191.93
425.094	3159.16
425.302	3269.75
425.51	3331.19
425.718	3564.66
425.925	3626.1
426.133	3677.3
426.341	3845.23
426.548	4099.18
426.756	4134
426.964	4121.71
427.171	4394.09
427.379	4449.38
427.586	4420.71
427.794	4693.09
428.001	4871.26
428.209	4994.14
428.417	4965.47
428.624	5348.44
428.832	5307.48
429.039	5129.31
429.247	5274.71
429.454	5805.14
429.662	6179.92
429.869	5772.37
430.076	6255.69
430.284	5983.31
430.491	6173.77
430.699	6583.37
430.906	6493.26
431.114	6814.79
431.321	7042.11
431.528	7306.3
431.736	7666.74
431.943	7853.11
432.15	7343.16
432.358	7566.39
432.565	8256.56
432.772	8055.86
432.979	8510.5
433.187	8731.69
433.394	8617
433.601	9155.61
433.808	9255.97
434.016	8985.63
434.223	9372.7
434.43	10214.41
434.637	9866.26
434.844	10628.1
435.052	10525.71
435.259	10581
435.466	11041.79
435.673	10607.62
435.88	11594.75
436.087	12010.48
436.294	12004.34
436.501	11631.61
436.708	11959.28
436.915	12319.73
437.122	12776.42
437.329	12811.24
437.537	13646.81
437.743	13646.81
437.95	13073.38
438.157	13951.96
438.364	14420.94
438.571	14418.89
438.778	14447.57
438.985	15748.03
439.192	15107.01
439.399	15686.59
439.606	15459.26
439.813	16135.09
440.02	17058.73
440.227	16833.45
440.433	16688.04
440.64	17253.28
440.847	16939.94
441.054	17374.11
441.261	18727.82
441.467	18271.12
441.674	18813.84
441.881	19671.93
442.088	19317.64
442.294	19288.96
442.501	19864.44
442.708	20310.9
442.914	20863.85
443.121	21674.85
443.328	20771.69
443.534	22557.52
443.741	22068.06
443.948	21531.49
444.154	23458.63
444.361	23411.53
444.568	23614.27
444.774	23380.81
444.981	23481.16
445.187	24238.9
445.394	25199.4
445.6	24863.54
445.807	27261.71
446.013	26211.1
446.22	26618.64
446.426	27636.48
446.633	27724.55
446.839	28680.95
447.046	27566.85
447.252	29442.79
447.459	29297.39
447.665	28791.54
447.871	30331.61
448.078	31337.16
448.284	29977.31
448.491	30833.36
448.697	32047.81
448.903	32682.68
449.11	32961.2
449.316	32060.1
449.522	32776.89
449.728	33780.39
449.935	34171.55
450.141	34167.46
450.347	34392.73
450.553	33508.01
450.76	34007.72
450.966	34931.35
451.172	34548.38
451.378	35338.9
451.584	34921.11
451.791	36018.82
451.997	35437.2
452.203	35916.42
452.409	36205.19
452.615	35920.52
452.821	34874.01
453.027	34409.12
453.233	35773.06
453.44	34544.28
453.646	34775.7
453.852	35074.71
454.058	35758.73
454.264	34720.41
454.47	35154.58
454.676	34329.25
454.882	35574.41
455.088	32107.2
455.294	33131.19
455.5	33247.92
455.705	33669.8
455.911	32459.45
456.117	31892.16
456.323	31507.15
456.529	29594.34
456.735	30948.05
456.941	29668.07
457.147	29166.32
457.352	28549.88
457.558	28158.72
457.764	28398.33
457.97	27644.68
458.176	27329.29
458.381	26944.27
458.587	25793.31
458.793	25715.49
458.999	24425.27
459.204	26346.26
459.41	25404.2
459.616	23769.92
459.821	23755.58
460.027	23661.38
460.233	23184.2
460.438	22147.93
460.644	22291.29
460.85	21396.32
461.055	20775.79
461.261	20765.55
461.466	19200.9
461.672	18621.33
461.878	19745.66
462.083	18594.7
462.289	18326.42
462.494	18092.95
462.7	17200.04
462.905	16987.05
463.111	17603.49
463.316	17318.82
463.522	17028.01
463.727	17013.67
463.932	17013.67
464.138	16903.08
464.343	16905.13
464.549	16014.26
464.754	17001.38
464.959	16520.11
465.165	16554.93
465.37	15877.05
465.575	15469.5
465.781	16120.76
465.986	16348.08
466.191	15698.88
466.397	15147.97
466.602	14394.32
466.807	14900.17
467.012	14980.04
467.218	14791.62
467.423	14697.42
467.628	14887.88
467.833	15125.44
468.038	14713.8
468.244	14324.69
468.449	14951.37
468.654	14154.71
468.859	14506.96
469.064	14050.26
469.269	13671.39
469.474	13792.22
469.679	14095.32
469.885	13695.96
470.09	14023.64
470.295	13747.16
470.5	13362.14
470.705	13399.01
470.91	13104.1
471.115	12907.49
471.32	13282.27
471.525	13030.37
471.73	12813.29
471.935	12686.31
472.139	12243.95
472.344	12246
472.549	12223.47
472.754	12278.77
472.959	11715.58
473.164	11711.48
473.369	11437.05
473.574	11762.68
473.778	11701.24
473.983	11688.95
474.188	11453.44
474.393	11271.17
474.598	11125.76
474.802	11056.13
475.007	11121.66
475.212	11119.62
475.417	10474.51
475.621	10570.76
475.826	10462.22
476.031	10351.63
476.235	10169.36
476.44	10331.15
476.645	9964.56
476.849	10179.6
477.054	9962.51
477.259	9810.96
477.463	9661.46
477.668	9817.11
477.872	9624.6
478.077	9339.93
478.282	9045.02
478.486	9401.37
478.691	9073.7
478.895	9348.12
479.1	9139.23
479.304	9266.21
479.509	8862.76
479.713	9073.7
479.918	8727.59
480.122	8735.78
480.326	8770.6
480.531	8821.8
480.735	8743.97
480.94	8623.14
481.144	8832.04
481.348	8461.35
481.553	8502.31
481.757	8455.21
481.961	8510.5
482.166	8641.57
482.37	8508.46
482.574	8338.48
482.778	8477.74
482.983	8487.98
483.187	8457.26
483.391	8524.84
483.595	8451.11
483.8	8406.06
484.004	8404.01
484.208	8571.94
484.412	8477.74
484.616	8225.84
484.821	8545.32
485.025	8330.28
485.229	8373.29
485.433	8236.08
485.637	8344.62
485.841	8160.3
486.045	8371.24
486.249	8369.19
486.453	8176.69
486.657	8272.94
486.861	8334.38
487.065	8156.21
487.269	8332.33
487.473	8289.32
487.677	8193.07
487.881	8391.72
488.085	8240.17
488.289	8297.52
488.493	8088.62
488.697	8322.09
488.901	8387.63
489.105	8176.69
489.309	8209.45
489.512	8238.12
489.716	8389.67
489.92	8426.54
490.124	8213.55
490.328	8502.31
490.531	8287.28
490.735	8369.19
490.939	8217.65
491.143	8180.78
491.346	8385.58
491.55	8592.42
491.754	8469.55
491.958	8694.82
492.161	8576.04
492.365	8690.73
492.569	8504.36
492.772	8684.58
492.976	8596.52
493.18	8569.9
493.383	8557.61
493.587	8799.27
493.79	8850.47
493.994	8735.78
494.197	8778.79
494.401	8793.12
494.605	8883.24
494.808	9165.85
495.012	8926.24
495.215	9065.5
495.419	9147.42
495.622	9028.64
495.825	9221.15
496.029	9219.1
496.232	9554.97
496.436	9413.66
496.639	9485.34
496.843	9452.57
497.046	9753.62
497.249	10023.95
497.453	10058.77
497.656	9982.99
497.859	9956.37
498.063	10130.45
498.266	10302.48
498.469	10120.21
498.673	10312.72
498.876	10484.75
499.079	10484.75
499.282	10730.5
499.485	11049.99
499.689	10777.61
499.892	10904.58
500.095	10902.53
500.298	10970.12
500.501	11105.28
500.705	11043.84
500.908	11580.41
501.111	11633.66
501.314	11510.78
501.517	11793.4
501.72	11879.41
501.923	11881.46
502.126	12215.28
502.329	12313.58
502.532	12352.49
502.735	12084.21
502.938	12547.05
503.141	12573.67
503.344	12671.98
503.547	12946.41
503.75	12770.28
503.953	13226.98
504.156	13177.83
504.359	13296.61
504.562	13476.83
504.765	13794.26
504.968	13677.53
505.17	13845.46
505.373	13884.37
505.576	14291.92
505.779	14244.82
505.982	14336.98
506.185	14549.96
506.387	14705.61
506.59	14699.47
506.793	14969.8
506.996	14808.01
507.198	15477.69
507.401	15455.17
507.604	15612.86
507.807	15883.19
508.009	16022.45
508.212	16102.32
508.415	16196.53
508.617	16434.1
508.82	16495.53
509.022	16602.03
509.225	16767.91
509.428	17210.28
509.63	17150.88
509.833	17626.01
510.035	17814.43
510.238	17578.91
510.44	17810.33
510.643	18144.15
510.845	18131.86
511.048	17978.26
511.25	18535.31
511.453	18633.61
511.655	19125.13
511.858	18695.05
512.06	19006.34
512.262	19063.69
512.465	19075.98
512.667	19297.16
512.87	19692.41
513.072	19911.55
513.274	20315
513.477	20470.64
513.679	20228.98
513.881	20616.05
514.084	20915.05
514.286	20861.8
514.488	21052.27
514.69	21519.2
514.893	21695.33
515.095	21719.9
515.297	22104.92
515.499	22010.71
515.701	22537.04
515.904	22621.01
516.106	22743.89
516.308	22960.97
516.51	22924.11
516.712	23270.22
516.914	23788.35
517.116	23561.03
517.318	23761.73
517.52	23923.52
517.722	24138.55
517.925	24298.3
518.127	24544.05
518.329	24757.04
518.531	24187.71
518.733	25129.77
518.935	25533.22
519.136	25377.58
519.338	25611.04
519.54	25688.87
519.742	25781.03
519.944	26020.64
520.146	26569.49
520.348	26336.02
520.55	26479.38
520.752	26510.1
520.954	26770.19
521.155	26950.42
521.357	27167.5
521.559	27351.82
521.761	27742.98
521.963	27755.27
522.164	27317
522.366	27755.27
522.568	27792.13
522.77	28201.72
522.971	28222.2
523.173	27876.1
523.375	28556.02
523.576	28283.64
523.778	28197.63
523.98	28504.82
524.181	28879.6
524.383	28584.69
524.584	29027.06
524.786	29145.84
524.988	28537.59
525.189	29102.83
525.391	29084.4
525.592	29174.51
525.794	29524.71
525.995	29293.29
526.197	29258.48
526.398	29287.15
526.6	29524.71
526.801	29588.2
527.003	29723.37
527.204	29379.31
527.406	29829.86
527.607	29903.59
527.808	30022.37
528.01	29426.41
528.211	29651.69
528.412	30243.55
528.614	29758.18
528.815	29793
529.016	30116.58
529.218	29473.51
529.419	29704.93
529.62	29934.31
529.822	29543.14
530.023	30001.89
530.224	29770.47
530.425	29661.93
530.626	29326.06
530.828	29586.15
531.029	29985.51
531.23	29412.07
531.431	29604.58
531.632	29577.96
531.833	29319.92
532.035	29407.98
532.236	29238
532.437	29584.1
532.638	29059.82
532.839	29457.13
533.04	29281
533.241	29307.63
533.442	29428.46
533.643	29354.73
533.844	29293.29
534.045	29262.57
534.246	28873.46
534.447	29389.55
534.648	29016.82
534.849	29068.02
535.05	28646.13
535.251	29068.02
535.451	28764.92
535.652	29207.28
535.853	28670.71
536.054	28938.99
536.255	28797.68
536.456	28596.98
536.657	29002.48
536.857	28449.53
537.058	28822.26
537.259	28537.59
537.46	29059.82
537.66	28539.64
537.861	28394.23
538.062	28467.96
538.263	28320.51
538.463	28236.54
538.664	28527.35
538.865	28279.55
539.065	28478.2
539.266	28259.07
539.466	28470.01
539.667	28236.54
539.868	28441.34
540.068	28265.21
540.269	28259.07
540.469	28068.61
540.67	27822.85
540.87	27945.73
541.071	28029.69
541.271	28355.32
541.472	28168.96
541.672	27921.15
541.873	27581.19
542.073	27749.12
542.274	27966.21
542.474	28050.17
542.675	27544.33
542.875	28297.98
543.075	27990.78
543.276	27755.27
543.476	27869.95
543.676	27644.68
543.877	27984.64
544.077	27876.1
544.277	27880.19
544.478	27665.16
544.678	27828.99
544.878	27656.96
545.078	27640.58
545.279	27304.71
545.479	27550.47
545.679	27394.82
545.879	27728.64
546.079	27671.3
546.28	27478.79
546.48	27554.57
546.68	27937.54
546.88	27933.44
547.08	27495.18
547.28	27874.05
547.48	27198.22
547.68	27831.04
547.88	27310.86
548.081	27613.96
548.281	27951.87
548.481	27523.85
548.681	27607.81
548.881	27435.78
549.081	27763.46
549.28	27425.54
549.48	27968.26
549.68	27765.51
549.88	28107.52
550.08	27628.29
550.28	27974.4
550.48	27605.77
550.68	27968.26
550.88	27245.32
551.08	27609.86
551.279	27579.14
551.479	27226.89
551.679	27521.8
551.879	27554.57
552.079	27777.79
552.278	27564.81
552.478	27939.58
552.678	27882.24
552.878	27919.1
553.077	27990.78
553.277	27149.07
553.477	28119.81
553.676	27773.7
553.876	27810.56
554.076	27837.19
554.275	27607.81
554.475	27443.98
554.674	27857.67
554.874	27788.03
555.074	27833.09
555.273	27880.19
555.473	28162.81
555.672	27736.84
555.872	27994.88
556.071	28269.31
556.271	28166.91
556.47	28394.23
556.67	27941.63
556.869	27974.4
557.068	28164.86
557.268	27804.42
557.467	28357.37
557.667	28029.69
557.866	27863.81
558.065	27865.86
558.265	28076.8
558.464	27921.15
558.663	28181.24
558.863	27865.86
559.062	28187.39
559.261	27970.3
559.461	28619.51
559.66	28023.55
559.859	28416.76
560.058	27892.48
560.258	28058.37
560.457	27919.1
560.656	27970.3
560.855	27917.06
561.054	28160.76
561.253	27833.09
561.453	27900.67
561.652	28355.32
561.851	28064.51
562.05	28068.61
562.249	27939.58
562.448	28183.29
562.647	27831.04
562.846	28138.24
563.045	28048.13
563.244	27798.27
563.443	27974.4
563.642	27734.79
563.841	27898.62
564.04	27501.32
564.239	28035.84
564.438	27458.31
564.637	27992.83
564.836	28252.92
565.035	27472.65
565.234	27714.31
565.432	27575.05
565.631	27501.32
565.83	27413.26
566.029	27548.42
566.228	27421.45
566.427	27472.65
566.625	27300.62
566.824	27378.44
567.023	27222.8
567.222	26686.23
567.42	27820.8
567.619	27489.03
567.818	27249.42
568.016	27167.5
568.215	27163.4
568.414	27280.14
568.612	27089.68
568.811	26821.39
569.01	27069.2
569.208	26635.03
569.407	26936.08
569.605	26708.76
569.804	26964.75
570.002	26596.12
570.201	26735.38
570.4	26452.76
570.598	26327.83
570.797	26389.27
570.995	26479.38
571.193	26059.55
571.392	26284.83
571.59	26012.45
571.789	26037.02
571.987	25905.95
572.186	26325.78
572.384	26278.68
572.582	26338.07
572.781	25547.56
572.979	25703.2
573.177	25676.58
573.376	25449.25
573.574	25617.19
573.772	25768.74
573.971	25621.28
574.169	25297.7
574.367	25205.55
574.565	25365.29
574.763	25103.15
574.962	25023.28
575.16	24910.64
575.358	25441.06
575.556	24705.84
575.754	24902.45
575.952	24693.55
576.151	24603.44
576.349	24595.25
576.547	24486.71
576.745	24355.64
576.943	24318.78
577.141	24308.54
577.339	24656.69
577.537	24369.97
577.735	24503.09
577.933	24210.23
578.131	24243
578.329	23640.9
578.527	23663.43
578.725	23944
578.923	23917.37
579.121	23677.76
579.319	23653.19
579.516	23825.22
579.714	23636.8
579.912	23483.2
580.11	23438.15
580.308	23354.18
580.506	23472.96
580.704	22813.52
580.901	23057.23
581.099	23485.25
581.297	22915.92
581.495	23120.71
581.692	23100.23
581.89	22868.81
582.088	22752.08
582.285	22731.6
582.483	22725.46
582.681	22819.66
582.878	22647.63
583.076	22436.69
583.274	22455.12
583.471	22289.24
583.669	22227.8
583.866	22260.57
584.064	22532.95
584.262	21996.38
584.459	22342.49
584.657	22074.2
584.854	22049.63
585.052	21996.38
585.249	22002.52
585.447	22055.77
585.644	21748.57
585.841	21689.18
586.039	22127.45
586.236	21928.8
586.434	21683.04
586.631	21777.25
586.828	21760.86
587.026	21465.96
587.223	21683.04
587.42	21281.64
587.618	21246.82
587.815	21275.49
588.012	21349.22
588.21	21066.6
588.407	21420.9
588.604	21363.56
588.801	21070.7
588.999	21089.13
589.196	21037.93
589.393	21201.77
589.59	20943.72
589.787	20937.58
589.984	21128.04
590.182	20915.05
590.379	20532.08
590.576	20659.06
590.773	20595.57
590.97	20722.54
591.167	20765.55
591.364	20603.76
591.561	20493.17
591.758	20351.86
591.955	20607.86
592.152	20378.48
592.349	20204.41
592.546	20341.62
592.743	20388.72
592.94	20409.2
593.137	20233.08
593.334	20280.18
593.531	20136.82
593.727	20147.06
593.924	20237.17
594.121	20157.3
594.318	20192.12
594.515	20097.91
594.712	20122.49
594.908	20011.9
595.105	20190.07
595.302	20173.69
595.499	19911.55
595.696	20196.21
595.892	19809.15
596.089	19952.51
596.286	20001.66
596.482	20063.1
596.679	19788.67
596.876	19917.69
597.072	20288.37
597.269	19790.72
597.466	19839.87
597.662	19915.64
597.859	19700.61
598.055	19788.67
598.252	19803
598.448	19929.98
598.645	19757.95
598.841	19739.52
599.038	19956.6
599.234	19862.4
599.431	19563.39
599.627	19616.64
599.824	20042.62
600.02	19692.41
600.217	19864.44
600.413	19846.01
600.609	19919.74
600.806	19807.1
601.002	19950.46
601.198	19749.76
601.395	19667.84
601.591	20091.77
601.787	20003.71
601.984	19993.47
602.18	20054.9
602.376	19725.18
602.572	19927.93
602.769	19977.08
602.965	19907.45
603.161	20269.94
603.357	19893.12
603.553	19991.42
603.75	20472.69
603.946	20036.47
604.142	20349.81
604.338	20142.97
604.534	20347.76
604.73	20161.4
604.926	20104.06
605.122	20614
605.318	20280.18
605.514	20247.41
605.71	20233.08
605.906	20482.93
606.102	20708.21
606.298	20802.41
606.494	20650.86
606.69	20624.24
606.886	20644.72
607.082	20609.9
607.278	20564.85
607.474	20628.34
607.67	21031.79
607.866	20786.03
608.062	21273.45
608.257	20693.87
608.453	20808.56
608.649	21265.25
608.845	20892.52
609.041	21105.51
609.236	21209.96
609.432	21054.31
609.628	21107.56
609.824	21187.43
610.019	21023.59
610.215	21318.5
610.411	21705.57
610.606	21328.74
610.802	21578.59
610.998	21476.19
611.193	21324.65
611.389	21400.42
611.584	21326.69
611.78	21160.81
611.976	21568.35
612.171	21746.53
612.367	21728.1
612.562	21437.28
612.758	21488.48
612.953	21615.46
613.149	21822.3
613.344	21277.54
613.539	21984.09
613.735	21998.43
613.93	22039.39
614.126	21805.92
614.321	22207.32
614.517	21928.8
614.712	22035.29
614.907	21963.61
615.103	22272.85
615.298	21955.42
615.493	22254.42
615.688	21936.99
615.884	22446.93
616.079	21877.6
616.274	22373.21
616.47	22033.24
616.665	22092.63
616.86	22078.3
617.055	22365.01
617.25	22137.69
617.445	22365.01
617.641	21803.87
617.836	22238.04
618.031	21861.21
618.226	22258.52
618.421	21963.61
618.616	22207.32
618.811	21781.34
619.006	22326.1
619.201	21814.11
619.396	21902.17
619.591	21433.19
619.786	21820.25
619.981	21504.87
620.176	21801.82
620.371	21488.48
620.566	21943.13
620.761	21492.58
620.956	21513.06
621.151	21267.3
621.346	21508.96
621.541	21160.81
621.735	21490.53
621.93	20984.68
622.125	20933.48
622.32	20716.4
622.515	20992.87
622.709	20505.46
622.904	20845.42
623.099	20681.58
623.294	20882.28
623.488	20640.62
623.683	20634.48
623.878	20181.88
624.072	20165.49
624.267	20603.76
624.462	19964.79
624.656	19905.4
624.851	19932.03
625.046	19854.2
625.24	19975.03
625.435	19676.03
625.629	19755.9
625.824	19411.84
626.018	19764.09
626.213	18905.99
626.407	19258.24
626.602	19094.41
626.796	19200.9
626.991	19321.73
627.185	18942.86
627.38	18721.68
627.574	18584.46
627.768	18514.83
627.963	18420.63
628.157	18680.72
628.352	18645.9
628.546	18289.56
628.74	18463.63
628.935	17970.07
629.129	18373.52
629.323	17775.52
629.517	17920.92
629.712	17691.55
629.906	17931.16
630.1	17460.13
630.294	17544.09
630.489	17406.88
630.683	17613.73
630.877	17087.4
631.071	17408.93
631.265	17419.17
631.459	17138.6
631.653	17241
631.848	16978.86
632.042	16976.81
632.236	17025.96
632.43	16845.74
632.624	16716.72
632.818	16503.73
633.012	16384.94
633.206	16313.27
633.4	16348.08
633.594	16249.78
633.788	16425.9
633.982	15981.49
634.176	15793.08
634.369	15827.9
634.563	15891.38
634.757	15547.33
634.951	15686.59
635.145	15676.35
635.339	15729.59
635.533	15518.65
635.726	15168.45
635.92	15068.1
636.114	15381.44
636.308	15086.53
636.501	15010.76
636.695	15131.59
636.889	14857.16
637.083	14611.4
637.276	14543.82
637.47	14664.65
637.664	14525.39
637.857	14425.04
638.051	14599.12
638.244	14300.11
638.438	14369.74
638.632	14367.7
638.825	14111.7
639.019	14144.47
639.212	13722.59
639.406	13657.05
639.599	13568.99
639.793	13878.23
639.986	13507.55
640.18	13548.51
640.373	13374.43
640.567	13392.86
640.76	13507.55
640.954	13165.54
641.147	13194.21
641.34	13071.33
641.534	12997.6
641.727	12968.93
641.92	12809.19
642.114	12538.86
642.307	12547.05
642.5	12520.43
642.694	12360.69
642.887	12092.4
643.08	12491.76
643.273	12450.8
643.467	12088.31
643.66	12043.25
643.853	12063.73
644.046	11947
644.239	11912.18
644.432	11951.09
644.626	11779.06
644.819	11596.79
645.012	11564.03
645.205	11547.64
645.398	11555.83
645.591	11418.62
645.784	11344.89
645.977	11396.09
646.17	11359.23
646.363	11092.99
646.556	10810.37
646.749	11131.9
646.942	11076.61
647.135	10935.3
647.328	11062.27
647.521	10826.76
647.714	10648.58
647.907	10707.98
648.099	10691.59
648.292	10599.43
648.485	10443.79
648.678	10269.71
648.871	10298.38
649.064	10249.23
649.256	10136.59
649.449	10042.39
649.642	10124.3
649.835	10114.06
650.027	9991.19
650.22	9790.49
650.413	9698.33
650.605	9884.69
650.798	9712.66
650.991	9354.27
651.183	9528.35
651.376	9376.8
651.568	9501.72
651.761	9475.1
651.954	9456.67
652.146	9364.51
652.339	9376.8
652.531	9505.82
652.724	9188.38
652.916	9155.61
653.109	9268.25
653.301	9077.79
653.494	8999.97
653.686	8868.9
653.879	9237.53
654.071	8938.53
654.263	8860.71
654.456	8807.46
654.648	8735.78
654.84	8729.64
655.033	8690.73
655.225	8651.81
655.417	8465.45
655.61	8721.45
655.802	8664.1
655.994	8348.72
656.186	8641.57
656.379	8410.15
656.571	8447.02
656.763	8238.12
656.955	8018.99
657.148	8246.32
657.34	8043.57
657.532	7842.87
657.724	8160.3
657.916	8074.29
658.108	7887.92
658.3	7748.66
658.492	7910.45
658.684	7593.01
658.876	7885.87
659.068	7640.12
659.26	7693.37
659.452	7832.63
659.644	7844.91
659.836	7511.1
660.028	7652.41
660.22	7498.81
660.412	7537.72
660.604	7330.87
660.796	7412.79
660.988	7216.19
661.18	7234.62
661.372	7029.82
661.563	7238.72
661.755	7052.35
661.947	6988.86
662.139	6952
662.331	7070.78
662.522	6943.81
662.714	7001.15
662.906	6913.09
663.097	6814.79
663.289	6870.08
663.481	6569.03
663.673	6761.54
663.864	6620.23
664.056	6575.17
664.247	6616.13
664.439	6562.89
664.631	6739.01
664.822	6632.52
665.014	6433.86
665.205	6497.35
665.397	6397
665.588	6427.72
665.78	6384.71
665.971	6353.99
666.163	6370.38
666.354	6124.62
666.546	6280.27
666.737	6235.21
666.929	6095.95
667.12	6124.62
667.311	6014.03
667.503	6016.08
667.694	6034.51
667.885	6024.27
668.077	6020.17
668.268	6030.41
668.459	5938.26
668.651	5925.97
668.842	5848.15
669.033	5710.93
669.224	5792.85
669.416	5885.01
669.607	5512.28
669.798	5764.18
669.989	5792.85
670.18	5700.69
670.371	5702.74
670.563	5543
670.754	5534.81
670.945	5477.46
671.136	5735.51
671.327	5561.43
671.518	5635.16
671.709	5610.58
671.9	5610.58
672.091	5543
672.282	5317.72
672.473	5430.36
672.664	5563.48
672.855	5364.82
673.046	5350.49
673.237	5258.33
673.428	5272.67
673.619	5307.48
673.809	5336.15
674	5280.86
674.191	5250.14
674.382	5248.09
674.573	5125.21
674.764	5215.32
674.954	5315.67
675.145	5194.84
675.336	5162.08
675.527	5289.05
675.717	5258.33
675.908	5243.99
676.099	5065.82
676.289	5020.77
676.48	4947.04
676.671	5137.5
676.861	5061.73
677.052	5043.29
677.243	4977.76
677.433	5092.44
677.624	5069.92
677.814	4977.76
678.005	5018.72
678.195	5010.53
678.386	5100.64
678.576	4865.12
678.767	5086.3
678.957	4887.65
679.148	5080.16
679.338	4947.04
679.529	4920.42
679.719	5047.39
679.909	4981.85
680.1	4953.18
680.29	4963.42
680.481	4791.39
680.671	4775.01
680.861	4961.37
681.052	4838.5
681.242	4988
681.432	4969.57
681.622	4834.4
681.813	4809.83
682.003	4893.79
682.193	4895.84
682.383	4779.11
682.573	4789.35
682.764	4961.37
682.954	4809.83
683.144	4861.02
683.334	4875.36
683.524	4742.24
683.714	4813.92
683.904	4725.86
684.094	4772.96
684.284	4670.56
684.474	4736.1
684.664	4699.23
684.854	4965.47
685.044	4650.08
685.234	4781.15
685.424	4703.33
685.614	4674.66
685.804	4713.57
685.994	4590.69
686.184	4830.3
686.374	4777.06
686.564	4758.63
686.753	4596.84
686.943	4703.33
687.133	4562.02
687.323	4617.32
687.513	4621.41
687.702	4713.57
687.892	4590.69
688.082	4670.56
688.272	4541.54
688.461	4508.77
688.651	4484.2
688.841	4535.4
689.03	4553.83
689.22	4459.62
689.41	4596.84
689.599	4564.07
689.789	4430.95
689.979	4562.02
690.168	4457.57
690.358	4349.03
690.547	4437.09
690.737	4332.65
690.926	4433
691.116	4389.99
691.305	4449.38
691.495	4334.7
691.684	4340.84
691.874	4482.15
692.063	4459.62
692.252	4381.8
692.442	4353.13
692.631	4396.14
692.82	4269.16
693.01	4322.41
693.199	4174.95
693.388	4299.88
693.578	4281.45
693.767	4351.08
693.956	4211.82
694.146	4101.23
694.335	4179.05
694.524	4277.35
694.713	4191.34
694.902	4027.5
695.092	4150.38
695.281	4191.34
695.47	4119.66
695.659	4029.55
695.848	4240.49
696.037	4109.42
696.226	4129.9
696.415	4043.88
696.604	4187.24
696.793	4019.31
696.982	3955.82
697.171	4117.61
697.36	4097.13
697.549	3961.97
697.738	3880.05
697.927	4031.6
698.116	3996.78
698.305	4029.55
698.494	4117.61
698.683	3949.68
698.872	4027.5
699.061	3912.81
699.25	3955.82
699.438	3898.48
699.627	3943.53
699.816	4035.69
700.005	3904.62
700.193	3748.98
700.382	3994.73
700.571	3904.62
700.76	3896.43
700.948	3855.47
701.137	3959.92
701.326	3923.05
701.514	3884.14
701.703	3830.9
701.892	3859.57
702.08	3972.21
702.269	3896.43
702.457	3740.79
702.646	3683.44
702.834	3753.07
703.023	3769.46
703.212	3933.29
703.4	3791.98
703.589	3669.11
703.777	3875.95
703.965	3773.55
704.154	3753.07
704.342	3710.07
704.531	3781.74
704.719	3603.57
704.907	3669.11
705.096	3642.48
705.284	3634.29
705.472	3652.72
705.661	3566.71
705.849	3701.87
706.037	3634.29
706.226	3658.87
706.414	3628.15
706.602	3687.54
706.79	3535.99
706.979	3576.95
707.167	3560.56
707.355	3556.47
707.543	3628.15
707.731	3480.69
707.919	3470.45
708.107	3452.02
708.296	3433.59
708.484	3490.93
708.672	3470.45
708.86	3472.5
709.048	3472.5
709.236	3431.54
709.424	3439.73
709.612	3474.55
709.8	3288.18
709.988	3368.06
710.176	3320.95
710.364	3415.16
710.551	3247.23
710.739	3421.3
710.927	3306.62
711.115	3308.66
711.303	3394.68
711.491	3255.42
711.679	3316.86
711.866	3130.49
712.054	3320.95
712.242	3218.55
712.43	3288.18
712.617	3202.17
712.805	3376.25
712.993	3189.88
713.181	3132.54
713.368	3269.75
713.556	3208.31
713.744	3112.06
713.931	3226.75
714.119	3351.67
714.306	3239.03
714.494	3150.97
714.682	3026.04
714.869	3118.2
715.057	3150.97
715.244	3085.44
715.432	3187.83
715.619	3019.9
715.807	3093.63
715.994	3112.06
716.182	3067
716.369	3073.15
716.556	3069.05
716.744	2919.55
716.931	2901.12
717.119	3077.24
717.306	3052.67
717.493	3028.09
717.681	2962.56
717.868	3046.52
718.055	2884.73
718.242	3077.24
718.43	2899.07
718.617	2993.28
718.804	2851.97
718.991	2964.61
719.179	3069.05
719.366	2825.34
719.553	2972.8
719.74	2847.87
719.927	2978.94
720.114	2825.34
720.301	2860.16
720.488	2741.38
720.676	2735.23
720.863	2829.44
721.05	2708.61
721.237	2720.9
721.424	2757.76
721.611	2821.25
721.798	2688.13
721.985	2706.56
722.172	2702.47
722.358	2692.23
722.545	2671.75
722.732	2700.42
722.919	2708.61
723.106	2727.04
723.293	2731.14
723.48	2700.42
723.667	2598.02
723.853	2555.01
724.04	2638.98
724.227	2618.5
724.414	2675.84
724.6	2516.1
724.787	2663.55
724.974	2710.66
725.161	2626.69
725.347	2505.86
725.534	2686.08
725.72	2602.11
725.907	2684.03
726.094	2565.25
726.28	2514.05
726.467	2456.71
726.653	2544.77
726.84	2602.11
727.027	2690.18
727.213	2505.86
727.4	2544.77
727.586	2516.1
727.773	2477.19
727.959	2448.52
728.145	2497.67
728.332	2399.37
728.518	2407.56
728.705	2464.9
728.891	2413.7
729.077	2374.79
729.264	2430.09
729.45	2540.68
729.636	2536.58
729.823	2475.14
730.009	2430.09
730.195	2481.28
730.382	2432.13
730.568	2417.8
730.754	2282.63
730.94	2391.17
731.126	2342.02
731.313	2399.37
731.499	2411.65
731.685	2266.25
731.871	2327.69
732.057	2233.48
732.243	2194.57
732.429	2389.13
732.615	2370.69
732.801	2233.48
732.987	2296.97
733.173	2360.45
733.359	2227.34
733.545	2266.25
733.731	2256.01
733.917	2274.44
734.103	2241.67
734.289	2294.92
734.475	2176.14
734.661	2245.77
734.847	2241.67
735.033	2188.43
735.219	2167.95
735.404	2315.4
735.59	2163.85
735.776	2253.96
735.962	2184.33
736.148	2208.9
736.333	2200.71
736.519	2202.76
736.705	2167.95
736.89	2151.56
737.076	2149.51
737.262	2073.74
737.447	2126.99
737.633	2110.6
737.819	2077.83
738.004	2047.12
738.19	2180.23
738.375	2094.22
738.561	2196.62
738.747	2126.99
738.932	2038.92
739.118	2036.88
739.303	2159.75
739.489	2126.99
739.674	2000.01
739.859	2028.68
740.045	2100.36
740.23	2057.36
740.416	1977.48
740.601	1983.63
740.786	2026.64
740.972	1987.72
741.157	1932.43
741.342	1856.65
741.528	1918.09
741.713	1963.15
741.898	1967.24
742.084	1926.29
742.269	1866.89
742.454	1905.81
742.639	1926.29
742.824	1893.52
743.01	1997.96
743.195	1914
743.38	1885.33
743.565	1856.65
743.75	1883.28
743.935	1864.85
744.12	1744.02
744.305	1860.75
744.49	1873.04
744.675	1827.98
744.86	1791.12
745.045	1840.27
745.23	1764.5
745.415	1856.65
745.6	1860.75
745.785	1782.93
745.97	1721.49
746.155	1721.49
746.34	1830.03
746.525	1729.68
746.71	1787.02
746.895	1623.19
747.079	1655.95
747.264	1676.43
747.449	1623.19
747.634	1664.15
747.819	1676.43
748.003	1606.8
748.188	1582.23
748.373	1569.94
748.557	1590.42
748.742	1555.6
748.927	1643.67
749.111	1571.99
749.296	1447.06
749.481	1451.16
749.665	1619.09
749.85	1471.64
750.034	1565.84
750.219	1428.63
750.404	1563.79
750.588	1528.98
750.773	1543.32
750.957	1555.6
751.141	1432.72
751.326	1471.64
751.51	1418.39
751.695	1389.72
751.879	1465.49
752.064	1414.29
752.248	1373.33
752.432	1432.72
752.617	1340.57
752.801	1373.33
752.985	1379.48
753.17	1318.04
753.354	1340.57
753.538	1299.61
753.722	1242.26
753.907	1277.08
754.091	1315.99
754.275	1227.93
754.459	1299.61
754.643	1148.06
754.828	1275.03
755.012	1166.49
755.196	1203.35
755.38	1229.98
755.564	1270.94
755.748	1193.11
755.932	1203.35
756.116	1205.4
756.3	1207.45
756.484	1211.54
756.668	1141.91
756.852	1123.48
757.036	1103
757.22	1086.62
757.404	1250.46
757.588	1154.2
757.772	1107.1
757.956	1156.25
758.14	1162.39
758.323	1070.23
758.507	1037.47
758.691	998.56
758.875	1205.4
759.059	1080.47
759.242	1074.33
759.426	1029.27
759.61	1111.19
759.794	996.51
759.977	992.41
760.161	1053.85
760.345	1078.43
760.528	1016.99
760.712	1037.47
760.895	1072.28
761.079	1141.91
761.263	933.02
761.446	988.32
761.63	1031.32
761.813	1002.65
761.997	924.83
762.18	965.79
762.364	980.12
762.547	930.97
762.731	937.12
762.914	947.36
763.098	933.02
763.281	963.74
763.464	982.17
763.648	971.93
763.831	976.03
764.015	930.97
764.198	865.44
764.381	910.49
764.564	877.73
764.748	922.78
764.931	914.59
765.114	949.4
765.297	914.59
765.481	904.35
765.664	922.78
765.847	924.83
766.03	902.3
766.213	894.11
766.397	941.21
766.58	933.02
766.763	900.25
766.946	873.63
767.129	875.68
767.312	797.85
767.495	760.99
767.678	808.09
767.861	875.68
768.044	750.75
768.227	791.71
768.41	902.3
768.593	840.86
768.776	873.63
768.959	881.82
769.142	896.16
769.324	748.7
769.507	775.33
769.69	810.14
769.873	785.57
770.056	881.82
770.239	834.72
770.421	875.68
770.604	834.72
770.787	767.13
770.97	818.33
771.152	758.94
771.335	820.38
771.518	734.37
771.7	758.94
771.883	758.94
772.066	806.05
772.248	795.81
772.431	736.42
772.613	804
772.796	826.53
772.978	717.98
773.161	801.95
773.343	709.79
773.526	771.23
773.708	652.45
773.891	689.31
774.073	681.12
774.256	767.13
774.438	638.11
774.621	631.97
774.803	763.04
774.985	644.26
775.168	670.88
775.35	736.42
775.532	658.59
775.715	656.54
775.897	582.82
776.079	648.35
776.261	693.41
776.444	681.12
776.626	705.7
776.808	603.3
776.99	621.73
777.173	609.44
777.355	685.22
777.537	578.72
777.719	652.45
777.901	554.15
778.083	621.73
778.265	558.24
778.447	613.54
778.629	595.11
778.811	603.3
778.993	693.41
779.175	566.43
779.357	564.39
779.539	545.95
779.721	597.15
779.903	619.68
780.085	572.58
780.267	572.58
780.449	611.49
780.631	629.92
780.812	586.91
780.994	519.33
781.176	537.76
781.358	529.57
781.54	486.56
781.721	537.76
781.903	476.32
782.085	548
782.267	625.83
782.448	480.42
782.63	504.99
782.812	496.8
782.993	572.58
783.175	537.76
783.357	537.76
783.538	474.28
783.72	388.26
783.901	421.03
784.083	441.51
784.264	488.61
784.446	371.88
784.627	459.94
784.809	388.26
784.99	484.52
785.172	451.75
785.353	570.53
785.535	455.84
785.716	443.56
785.897	382.12
786.079	523.43
786.26	457.89
786.441	447.65
786.623	464.04
786.804	359.59
786.985	457.89
787.167	484.52
787.348	400.55
787.529	455.84
787.71	494.76
787.891	361.64
788.073	400.55
788.254	318.63
788.435	339.11
788.616	439.46
788.797	367.78
788.978	418.98
789.159	423.08
789.34	369.83
789.522	310.44
789.703	357.54
789.884	279.72
790.065	400.55
790.246	347.3
790.427	357.54
790.607	328.87
790.788	433.32
790.969	341.16
791.15	441.51
791.331	326.82
791.512	324.77
791.693	285.86
791.874	349.35
792.054	468.13
792.235	335.01
792.416	332.97
792.597	298.15
792.778	351.4
792.958	310.44
793.139	302.25
793.32	375.97
793.5	275.62
793.681	371.88
793.862	357.54
794.042	277.67
794.223	234.66
794.404	242.85
794.584	267.43
794.765	341.16
794.945	292.01
795.126	294.05
795.306	328.87
795.487	269.48
795.667	275.62
795.848	302.25
796.028	283.81
796.209	314.53
796.389	369.83
796.57	218.28
796.75	251.05
796.93	283.81
797.111	302.25
797.291	269.48
797.471	259.24
797.652	230.57
797.832	308.39
798.012	283.81
798.192	261.29
798.373	218.28
798.553	271.53
798.733	292.01
798.913	205.99
799.093	224.42
799.274	281.77
799.454	253.09
799.634	265.38
799.814	234.66
799.994	275.62
800.174	230.57
800.354	234.66
800.534	185.51
800.714	281.77
800.894	193.7
801.074	236.71
801.254	220.33
801.434	281.77
801.614	255.14
801.794	230.57
801.974	851.1
802.154	234.66
802.334	240.81
802.514	242.85
802.693	193.7
802.873	193.7
803.053	193.7
803.233	267.43
803.413	226.47
803.592	234.66
803.772	160.94
803.952	255.14
804.131	189.61
804.311	179.37
804.491	251.05
804.67	214.18
804.85	171.18
805.03	177.32
805.209	261.29
805.389	171.18
805.568	214.18
805.748	175.27
805.928	251.05
806.107	246.95
806.287	214.18
806.466	195.75
806.646	167.08
806.825	218.28
807.004	201.9
807.184	193.7
807.363	122.02
807.543	140.46
807.722	146.6
807.901	185.51
808.081	136.36
808.26	136.36
808.439	185.51
808.619	156.84
808.798	138.41
808.977	148.65
809.156	89.26
809.336	165.03
809.515	193.7
809.694	185.51
809.873	187.56
810.052	128.17
810.231	193.7
810.411	142.5
810.59	210.09
810.769	105.64
810.948	212.14
811.127	111.78
811.306	154.79
811.485	212.14
811.664	197.8
811.843	132.26
812.022	144.55
812.201	165.03
812.38	165.03
812.559	203.94
812.737	195.75
812.916	81.07
813.095	148.65
813.274	138.41
813.453	234.66
813.632	156.84
813.811	140.46
813.989	109.74
814.168	228.52
814.347	136.36
814.526	111.78
814.704	154.79
814.883	162.98
815.062	31.91
815.24	93.35
815.419	126.12
815.598	152.74
815.776	64.68
815.955	111.78
816.133	36.01
816.312	169.13
816.49	132.26
816.669	40.11
816.847	189.61
817.026	220.33
817.204	87.21
817.383	46.25
817.561	89.26
817.74	113.83
817.918	113.83
818.097	99.5
818.275	97.45
818.453	117.93
818.632	136.36
818.81	173.22
818.988	105.64
819.167	79.02
819.345	148.65
819.523	105.64
819.701	152.74
819.879	54.44
820.058	185.51
820.236	154.79
820.414	152.74
820.592	95.4
820.77	109.74
820.948	70.83
821.127	81.07
821.305	144.55
821.483	148.65
821.661	103.59
821.839	89.26
822.017	70.83
822.195	111.78
822.373	177.32
822.551	171.18
822.729	177.32
822.907	128.17
823.085	173.22
823.262	167.08
823.44	132.26
823.618	152.74
823.796	158.89
823.974	54.44
824.152	124.07
824.329	154.79
824.507	95.4
824.685	79.02
824.863	142.5
825.04	111.78
825.218	103.59
825.396	99.5
825.574	140.46
825.751	113.83
825.929	81.07
826.107	48.3
826.284	185.51
826.462	162.98
826.639	74.92
826.817	70.83
826.994	74.92
827.172	119.98
827.349	212.14
827.527	87.21
827.704	70.83
827.882	201.9
828.059	126.12
828.237	23.72
828.414	212.14
828.591	95.4
828.769	113.83
828.946	56.49
829.124	52.39
829.301	74.92
829.478	173.22
829.655	81.07
829.833	54.44
830.01	54.44
830.187	79.02
830.364	95.4
830.542	111.78
830.719	122.02
830.896	99.5
831.073	33.96
831.25	29.87
831.427	152.74
831.604	140.46
831.782	56.49
831.959	58.54
832.136	142.5
832.313	7.34
832.49	54.44
832.667	64.68
832.844	-19.29
833.021	87.21
833.198	95.4
833.374	62.63
833.551	79.02
833.728	119.98
833.905	79.02
834.082	109.74
834.259	107.69
834.436	122.02
834.612	38.06
834.789	83.11
834.966	76.97
835.143	64.68
835.319	40.11
835.496	87.21
835.673	89.26
835.85	152.74
836.026	152.74
836.203	160.94
836.38	56.49
836.556	1.19
836.733	95.4
836.909	21.67
837.086	105.64
837.262	5.29
837.439	99.5
837.616	89.26
837.792	40.11
837.968	95.4
838.145	-35.67
838.321	62.63
838.498	70.83
838.674	74.92
838.851	72.87
839.027	62.63
839.203	29.87
839.38	42.15
839.556	29.87
839.732	103.59
839.909	60.59
840.085	29.87
840.261	29.87
840.437	60.59
840.614	72.87
840.79	122.02
840.966	50.35
841.142	52.39
841.318	74.92
841.494	173.22
841.671	103.59
841.847	58.54
842.023	-9.05
842.199	58.54
842.375	48.3
842.551	50.35
842.727	130.22
842.903	160.94
843.079	25.77
843.255	111.78
843.431	56.49
843.607	103.59
843.783	21.67
843.959	21.67
844.134	95.4
844.31	52.39
844.486	29.87
844.662	31.91
844.838	38.06
845.013	23.72
845.189	95.4
845.365	111.78
845.541	-13.14
845.716	95.4
845.892	101.55
846.068	5.29
846.244	1.19
846.419	56.49
846.595	70.83
846.77	-2.9
846.946	87.21
847.122	-17.24
847.297	-11.09
847.473	62.63
847.648	13.48
847.824	46.25
847.999	17.58
848.175	56.49
848.35	46.25
848.526	36.01
848.701	89.26
848.876	17.58
849.052	113.83
849.227	103.59
849.403	5.29
849.578	-15.19
849.753	29.87
849.929	58.54
850.104	1.19
850.279	23.72
850.454	50.35
850.63	83.11
850.805	46.25
850.98	38.06
851.155	101.55
851.33	48.3
851.505	56.49
851.681	85.16
851.856	-2.9
852.031	79.02
852.206	48.3
852.381	72.87
852.556	-19.29
852.731	113.83
852.906	58.54
853.081	9.39
853.256	62.63
853.431	46.25
853.606	7.34
853.781	76.97
853.956	-23.38
854.131	33.96
854.305	29.87
854.48	62.63
854.655	38.06
854.83	19.63
855.005	76.97
855.18	64.68
855.354	25.77
855.529	38.06
855.704	93.35
855.879	126.12
856.053	60.59
856.228	31.91
856.403	13.48
856.577	56.49
856.752	76.97
856.926	5.29
857.101	21.67
857.276	48.3
857.45	17.58
857.625	68.78
857.799	66.73
857.974	83.11
858.148	15.53
858.323	46.25
858.497	13.48
858.672	1.19
858.846	-9.05
859.02	81.07
859.195	-11.09
859.369	-2.9
859.543	54.44
859.718	-9.05
859.892	40.11
860.066	56.49
860.241	-33.62
860.415	62.63
860.589	54.44
860.763	38.06
860.938	42.15
861.112	128.17
861.286	52.39
861.46	21.67
861.634	13.48
861.808	87.21
861.982	-19.29
862.157	56.49
862.331	-11.09
862.505	13.48
862.679	-64.34
862.853	40.11
863.027	29.87
863.201	79.02
863.375	95.4
863.549	103.59
863.722	19.63
863.896	29.87
864.07	87.21
864.244	-11.09
864.418	50.35
864.592	-39.76
864.766	31.91
864.939	81.07
865.113	-25.43
865.287	83.11
865.461	7.34
865.634	36.01
865.808	-11.09
865.982	42.15
866.156	31.91
866.329	40.11
866.503	-11.09
866.676	21.67
866.85	83.11
867.024	33.96
867.197	46.25
867.371	58.54
867.544	50.35
867.718	-62.29
867.891	56.49
868.065	5.29
868.238	60.59
868.412	87.21
868.585	58.54
868.759	9.39
868.932	21.67
869.105	-37.72
869.279	5.29
869.452	-33.62
869.625	-37.72
869.799	87.21
869.972	-35.67
870.145	46.25
870.319	74.92
870.492	46.25
870.665	-74.58
870.838	54.44
871.011	-2.9
871.185	74.92
871.358	-50
871.531	72.87
871.704	17.58
871.877	66.73
872.05	-2.9
872.223	-60.24
872.396	54.44
872.569	38.06
872.742	3.24
872.915	46.25
873.088	-62.29
873.261	13.48
873.434	-2.9
873.607	29.87
873.78	66.73
873.953	-2.9
874.126	87.21
874.299	46.25
874.471	1.19
874.644	1.19
874.817	81.07
874.99	83.11
875.163	-11.09
875.335	83.11
875.508	46.25
875.681	95.4
875.853	-13.14
876.026	11.43
876.199	-15.19
876.371	40.11
876.544	-35.67
876.717	38.06
876.889	7.34
877.062	33.96
877.234	70.83
877.407	9.39
877.579	7.34
877.752	-93.01
877.924	-39.76
878.097	66.73
878.269	-19.29
878.442	-27.48
878.614	46.25
878.786	56.49
878.959	56.49
879.131	15.53
879.303	-125.78
879.476	52.39
879.648	95.4
879.82	29.87
879.993	13.48
880.165	-27.48
880.337	-68.44
880.509	-80.72
880.681	33.96
880.854	-7
881.026	-31.57
881.198	91.31
881.37	-31.57
881.542	-0.85
881.714	50.35
881.886	70.83
882.058	9.39
882.23	-9.05
882.402	66.73
882.574	7.34
882.746	70.83
882.918	66.73
883.09	-2.9
883.262	-33.62
883.434	-13.14
883.606	17.58
883.778	-4.95
883.95	119.98
884.122	9.39
884.293	40.11
884.465	-11.09
884.637	46.25
884.809	-19.29
884.98	54.44
885.152	60.59
885.324	64.68
885.496	-7
885.667	-17.24
885.839	7.34
886.011	87.21
886.182	-13.14
886.354	25.77
886.525	-7
886.697	29.87
886.869	5.29
887.04	56.49
887.212	13.48
887.383	70.83
887.555	25.77
887.726	50.35
887.897	31.91
888.069	27.82
888.24	33.96
888.412	-2.9
888.583	21.67
888.754	13.48
888.926	-0.85
889.097	-33.62
889.268	29.87
889.44	25.77
889.611	23.72
889.782	-17.24
889.953	-11.09
890.125	79.02
890.296	-35.67
890.467	-43.86
890.638	15.53
890.809	21.67
890.98	-2.9
891.151	-35.67
891.323	25.77
891.494	101.55
891.665	-27.48
891.836	-21.33
892.007	9.39
892.178	21.67
892.349	-23.38
892.52	13.48
892.691	19.63
892.862	-56.15
893.032	-58.2
893.203	40.11
893.374	52.39
893.545	17.58
893.716	-35.67
893.887	1.19
894.057	-31.57
894.228	52.39
894.399	-11.09
894.57	46.25
894.74	66.73
894.911	15.53
895.082	-25.43
895.253	48.3
895.423	-21.33
895.594	58.54
895.764	23.72
895.935	31.91
896.106	54.44
896.276	31.91
896.447	23.72
896.617	3.24
896.788	-11.09
896.958	-19.29
897.129	-68.44
897.299	-11.09
897.47	66.73
897.64	74.92
897.81	5.29
897.981	70.83
898.151	40.11
898.322	29.87
898.492	48.3
898.662	95.4
898.832	-25.43
899.003	-2.9
899.173	21.67
899.343	46.25
899.513	-52.05
