Data from USB4F104151__112__14-31-08-987.txt Node

Date: Thu Mar 13 14:31:08 EDT 2025
User: louis
Spectrometer: USB4F10415
Trigger mode: 4
Integration Time (sec): 2.500000E-2
Scans to average: 1
Electric dark correction enabled: true
Nonlinearity correction enabled: false
Boxcar width: 0
XAxis mode: Wavelengths
Number of Pixels in Spectrum: 3648
>>>>>Begin Spectral Data<<<<<
178.204	-156.16
178.424	-156.16
178.644	-156.16
178.864	-109.05
179.084	-117.25
179.304	5.63
179.524	-47.62
179.744	-57.86
179.964	-49.66
180.184	-0.51
180.404	42.5
180.624	54.78
180.844	-47.62
181.064	5.63
181.283	50.69
181.503	-27.14
181.723	71.17
181.943	-35.33
182.163	108.03
182.383	22.02
182.602	75.26
182.822	46.59
183.042	38.4
183.262	38.4
183.482	11.78
183.701	5.63
183.921	17.92
184.141	-6.66
184.361	30.21
184.58	101.89
184.8	5.63
185.02	48.64
185.239	48.64
185.459	54.78
185.679	89.6
185.898	-37.38
186.118	95.74
186.338	48.64
186.557	56.83
186.777	38.4
186.997	24.06
187.216	7.68
187.436	42.5
187.655	-0.51
187.875	93.69
188.095	30.21
188.314	26.11
188.534	77.31
188.753	46.59
188.973	48.64
189.192	79.36
189.412	-43.52
189.631	26.11
189.851	-35.33
190.07	136.7
190.29	-33.28
190.509	-41.47
190.729	30.21
190.948	30.21
191.168	97.79
191.387	34.3
191.607	42.5
191.826	60.93
192.045	73.21
192.265	-27.14
192.484	50.69
192.704	-18.94
192.923	91.65
193.142	114.17
193.362	99.84
193.581	83.45
193.8	22.02
194.02	46.59
194.239	71.17
194.458	103.93
194.678	-74.24
194.897	26.11
195.116	48.64
195.335	97.79
195.555	42.5
195.774	-14.85
195.993	62.98
196.212	5.63
196.432	19.97
196.651	46.59
196.87	32.26
197.089	71.17
197.308	60.93
197.528	52.74
197.747	24.06
197.966	15.87
198.185	110.08
198.404	32.26
198.623	30.21
198.842	75.26
199.062	79.36
199.281	120.32
199.5	54.78
199.719	81.41
199.938	44.54
200.157	118.27
200.376	-2.56
200.595	79.36
200.814	5.63
201.033	114.17
201.252	71.17
201.471	-10.75
201.69	40.45
201.909	3.58
202.128	54.78
202.347	24.06
202.566	79.36
202.785	-27.14
203.004	-16.9
203.223	118.27
203.442	32.26
203.661	54.78
203.879	9.73
204.098	50.69
204.317	9.73
204.536	38.4
204.755	103.93
204.974	67.07
205.193	50.69
205.411	159.23
205.63	22.02
205.849	75.26
206.068	19.97
206.287	50.69
206.505	5.63
206.724	75.26
206.943	-10.75
207.162	48.64
207.381	93.69
207.599	-6.66
207.818	95.74
208.037	93.69
208.255	-35.33
208.474	87.55
208.693	73.21
208.911	46.59
209.13	73.21
209.349	62.98
209.567	48.64
209.786	54.78
210.005	48.64
210.223	22.02
210.442	-27.14
210.661	56.83
210.879	26.11
211.098	-41.47
211.316	71.17
211.535	-59.9
211.753	-25.09
211.972	54.78
212.191	5.63
212.409	58.88
212.628	3.58
212.846	-25.09
213.065	79.36
213.283	144.89
213.502	9.73
213.72	73.21
213.938	71.17
214.157	3.58
214.375	54.78
214.594	34.3
214.812	73.21
215.031	-16.9
215.249	42.5
215.467	26.11
215.686	116.22
215.904	44.54
216.122	9.73
216.341	69.12
216.559	34.3
216.778	65.02
216.996	62.98
217.214	77.31
217.432	101.89
217.651	9.73
217.869	30.21
218.087	11.78
218.306	-25.09
218.524	24.06
218.742	-10.75
218.96	81.41
219.179	11.78
219.397	116.22
219.615	138.75
219.833	99.84
220.051	5.63
220.27	103.93
220.488	54.78
220.706	13.82
220.924	42.5
221.142	5.63
221.36	28.16
221.578	38.4
221.796	81.41
222.015	54.78
222.233	7.68
222.451	75.26
222.669	-10.75
222.887	17.92
223.105	-33.28
223.323	60.93
223.541	32.26
223.759	75.26
223.977	30.21
224.195	103.93
224.413	95.74
224.631	128.51
224.849	62.98
225.067	30.21
225.285	13.82
225.503	-43.52
225.721	22.02
225.939	97.79
226.157	5.63
226.375	155.13
226.592	75.26
226.81	-0.51
227.028	48.64
227.246	101.89
227.464	-25.09
227.682	30.21
227.9	91.65
228.117	87.55
228.335	52.74
228.553	65.02
228.771	67.07
228.989	19.97
229.206	28.16
229.424	-4.61
229.642	22.02
229.86	13.82
230.077	50.69
230.295	112.13
230.513	67.07
230.731	97.79
230.948	67.07
231.166	112.13
231.384	-4.61
231.601	9.73
231.819	38.4
232.037	-10.75
232.254	32.26
232.472	54.78
232.689	-12.8
232.907	50.69
233.125	26.11
233.342	-76.29
233.56	54.78
233.777	38.4
233.995	62.98
234.213	67.07
234.43	3.58
234.648	71.17
234.865	46.59
235.083	48.64
235.3	-20.99
235.518	85.5
235.735	42.5
235.953	138.75
236.17	30.21
236.388	1.54
236.605	13.82
236.822	103.93
237.04	7.68
237.257	19.97
237.475	34.3
237.692	5.63
237.909	-43.52
238.127	19.97
238.344	50.69
238.562	58.88
238.779	9.73
238.996	97.79
239.214	30.21
239.431	81.41
239.648	77.31
239.865	79.36
240.083	22.02
240.3	7.68
240.517	38.4
240.735	128.51
240.952	32.26
241.169	32.26
241.386	44.54
241.603	81.41
241.821	-41.47
242.038	132.61
242.255	54.78
242.472	-35.33
242.689	-6.66
242.907	206.33
243.124	99.84
243.341	-8.7
243.558	40.45
243.775	3.58
243.992	48.64
244.209	95.74
244.426	58.88
244.643	71.17
244.86	38.4
245.078	95.74
245.295	48.64
245.512	81.41
245.729	19.97
245.946	124.41
246.163	99.84
246.38	24.06
246.597	65.02
246.814	30.21
247.031	-39.42
247.248	103.93
247.464	48.64
247.681	-18.94
247.898	83.45
248.115	99.84
248.332	50.69
248.549	116.22
248.766	116.22
248.983	71.17
249.2	-10.75
249.417	89.6
249.633	19.97
249.85	87.55
250.067	-2.56
250.284	3.58
250.501	110.08
250.717	15.87
250.934	-49.66
251.151	108.03
251.368	7.68
251.585	73.21
251.801	19.97
252.018	22.02
252.235	30.21
252.451	30.21
252.668	-43.52
252.885	97.79
253.102	95.74
253.318	124.41
253.535	103.93
253.752	48.64
253.968	71.17
254.185	67.07
254.401	79.36
254.618	-8.7
254.835	48.64
255.051	114.17
255.268	38.4
255.484	50.69
255.701	69.12
255.917	56.83
256.134	46.59
256.351	54.78
256.567	-43.52
256.784	54.78
257	-35.33
257.217	32.26
257.433	42.5
257.65	9.73
257.866	71.17
258.082	65.02
258.299	30.21
258.515	112.13
258.732	30.21
258.948	13.82
259.165	15.87
259.381	17.92
259.597	24.06
259.814	48.64
260.03	32.26
260.246	46.59
260.463	89.6
260.679	44.54
260.895	62.98
261.112	58.88
261.328	22.02
261.544	-14.85
261.761	120.32
261.977	-0.51
262.193	26.11
262.409	71.17
262.626	22.02
262.842	22.02
263.058	112.13
263.274	19.97
263.49	81.41
263.707	130.56
263.923	91.65
264.139	38.4
264.355	-27.14
264.571	30.21
264.787	54.78
265.004	71.17
265.22	40.45
265.436	62.98
265.652	95.74
265.868	62.98
266.084	22.02
266.3	30.21
266.516	-43.52
266.732	54.78
266.948	-0.51
267.164	153.09
267.38	32.26
267.596	110.08
267.812	128.51
268.028	-4.61
268.244	62.98
268.46	97.79
268.676	1.54
268.892	22.02
269.108	38.4
269.324	13.82
269.54	22.02
269.756	54.78
269.972	65.02
270.188	79.36
270.403	108.03
270.619	30.21
270.835	9.73
271.051	17.92
271.267	40.45
271.483	34.3
271.698	-6.66
271.914	81.41
272.13	93.69
272.346	38.4
272.562	26.11
272.777	40.45
272.993	19.97
273.209	38.4
273.425	15.87
273.64	83.45
273.856	1.54
274.072	75.26
274.287	1.54
274.503	13.82
274.719	108.03
274.934	26.11
275.15	112.13
275.366	26.11
275.581	-10.75
275.797	38.4
276.012	95.74
276.228	-6.66
276.444	103.93
276.659	75.26
276.875	30.21
277.09	79.36
277.306	105.98
277.521	54.78
277.737	77.31
277.952	67.07
278.168	65.02
278.383	22.02
278.599	50.69
278.814	62.98
279.03	-57.86
279.245	157.18
279.461	54.78
279.676	99.84
279.892	-0.51
280.107	24.06
280.322	5.63
280.538	62.98
280.753	95.74
280.969	67.07
281.184	5.63
281.399	87.55
281.615	26.11
281.83	87.55
282.045	1.54
282.26	81.41
282.476	95.74
282.691	-6.66
282.906	81.41
283.122	79.36
283.337	42.5
283.552	62.98
283.767	24.06
283.983	157.18
284.198	3.58
284.413	81.41
284.628	1.54
284.843	171.52
285.058	50.69
285.274	-18.94
285.489	19.97
285.704	89.6
285.919	38.4
286.134	40.45
286.349	30.21
286.564	79.36
286.779	79.36
286.995	81.41
287.21	36.35
287.425	48.64
287.64	-35.33
287.855	40.45
288.07	-35.33
288.285	83.45
288.5	83.45
288.715	71.17
288.93	79.36
289.145	54.78
289.36	77.31
289.575	-43.52
289.79	122.37
290.004	30.21
290.219	54.78
290.434	-18.94
290.649	120.32
290.864	13.82
291.079	26.11
291.294	48.64
291.509	-10.75
291.724	32.26
291.938	13.82
292.153	103.93
292.368	46.59
292.583	67.07
292.798	112.13
293.012	79.36
293.227	-20.99
293.442	34.3
293.657	69.12
293.871	95.74
294.086	46.59
294.301	169.47
294.516	26.11
294.73	30.21
294.945	40.45
295.16	65.02
295.374	138.75
295.589	75.26
295.804	-35.33
296.018	75.26
296.233	163.33
296.447	5.63
296.662	67.07
296.877	81.41
297.091	50.69
297.306	46.59
297.52	165.37
297.735	128.51
297.949	89.6
298.164	89.6
298.378	89.6
298.593	60.93
298.807	42.5
299.022	62.98
299.236	103.93
299.451	50.69
299.665	105.98
299.88	73.21
300.094	50.69
300.309	46.59
300.523	87.55
300.737	38.4
300.952	67.07
301.166	99.84
301.381	34.3
301.595	89.6
301.809	122.37
302.024	77.31
302.238	5.63
302.452	-0.51
302.667	-29.18
302.881	42.5
303.095	75.26
303.309	-6.66
303.524	17.92
303.738	7.68
303.952	40.45
304.166	95.74
304.381	15.87
304.595	97.79
304.809	48.64
305.023	32.26
305.237	-39.42
305.452	50.69
305.666	48.64
305.88	103.93
306.094	46.59
306.308	116.22
306.522	83.45
306.736	36.35
306.95	40.45
307.164	-0.51
307.379	-18.94
307.593	60.93
307.807	65.02
308.021	73.21
308.235	40.45
308.449	13.82
308.663	85.5
308.877	136.7
309.091	95.74
309.305	19.97
309.519	26.11
309.733	85.5
309.947	71.17
310.161	30.21
310.374	-0.51
310.588	56.83
310.802	19.97
311.016	34.3
311.23	-18.94
311.444	79.36
311.658	69.12
311.872	75.26
312.085	83.45
312.299	101.89
312.513	124.41
312.727	101.89
312.941	48.64
313.154	110.08
313.368	-6.66
313.582	148.99
313.796	40.45
314.009	34.3
314.223	81.41
314.437	13.82
314.651	30.21
314.864	46.59
315.078	24.06
315.292	-33.28
315.505	22.02
315.719	81.41
315.933	71.17
316.146	13.82
316.36	105.98
316.573	103.93
316.787	60.93
317.001	114.17
317.214	60.93
317.428	32.26
317.641	-4.61
317.855	46.59
318.068	-25.09
318.282	54.78
318.495	40.45
318.709	112.13
318.922	5.63
319.136	79.36
319.349	26.11
319.563	26.11
319.776	46.59
319.99	46.59
320.203	30.21
320.417	65.02
320.63	73.21
320.843	103.93
321.057	65.02
321.27	42.5
321.483	138.75
321.697	89.6
321.91	91.65
322.124	105.98
322.337	40.45
322.55	19.97
322.763	40.45
322.977	-14.85
323.19	54.78
323.403	87.55
323.617	46.59
323.83	24.06
324.043	50.69
324.256	30.21
324.469	5.63
324.683	97.79
324.896	44.54
325.109	28.16
325.322	36.35
325.535	50.69
325.748	42.5
325.962	26.11
326.175	52.74
326.388	153.09
326.601	62.98
326.814	124.41
327.027	34.3
327.24	62.98
327.453	1.54
327.666	130.56
327.879	112.13
328.092	79.36
328.305	58.88
328.518	50.69
328.731	140.8
328.944	46.59
329.157	56.83
329.37	13.82
329.583	132.61
329.796	32.26
330.009	-2.56
330.222	62.98
330.435	99.84
330.648	87.55
330.861	87.55
331.073	-25.09
331.286	87.55
331.499	65.02
331.712	-0.51
331.925	30.21
332.138	71.17
332.35	83.45
332.563	71.17
332.776	95.74
332.989	3.58
333.202	65.02
333.414	32.26
333.627	91.65
333.84	-4.61
334.053	24.06
334.265	42.5
334.478	26.11
334.691	24.06
334.903	36.35
335.116	13.82
335.329	54.78
335.541	99.84
335.754	89.6
335.966	9.73
336.179	124.41
336.392	85.5
336.604	38.4
336.817	95.74
337.029	65.02
337.242	122.37
337.454	128.51
337.667	30.21
337.88	79.36
338.092	114.17
338.305	46.59
338.517	13.82
338.729	81.41
338.942	118.27
339.154	32.26
339.367	42.5
339.579	32.26
339.792	71.17
340.004	85.5
340.217	3.58
340.429	1.54
340.641	-35.33
340.854	75.26
341.066	17.92
341.278	56.83
341.491	54.78
341.703	65.02
341.915	108.03
342.128	89.6
342.34	46.59
342.552	-0.51
342.764	87.55
342.977	48.64
343.189	83.45
343.401	54.78
343.613	-2.56
343.826	89.6
344.038	15.87
344.25	65.02
344.462	9.73
344.674	-2.56
344.886	-16.9
345.099	114.17
345.311	-25.09
345.523	89.6
345.735	38.4
345.947	58.88
346.159	46.59
346.371	103.93
346.583	28.16
346.795	173.57
347.007	-20.99
347.219	108.03
347.431	24.06
347.643	62.98
347.855	50.69
348.067	81.41
348.279	-16.9
348.491	87.55
348.703	50.69
348.915	40.45
349.127	-8.7
349.339	62.98
349.551	118.27
349.763	112.13
349.975	65.02
350.187	32.26
350.399	65.02
350.61	32.26
350.822	83.45
351.034	105.98
351.246	48.64
351.458	-25.09
351.669	5.63
351.881	116.22
352.093	48.64
352.305	116.22
352.517	93.69
352.728	40.45
352.94	105.98
353.152	26.11
353.363	65.02
353.575	15.87
353.787	62.98
353.999	46.59
354.21	108.03
354.422	42.5
354.633	62.98
354.845	83.45
355.057	91.65
355.268	108.03
355.48	105.98
355.692	17.92
355.903	58.88
356.115	46.59
356.326	-27.14
356.538	136.7
356.749	50.69
356.961	116.22
357.172	97.79
357.384	71.17
357.595	136.7
357.807	28.16
358.018	163.33
358.23	58.88
358.441	95.74
358.653	81.41
358.864	15.87
359.075	48.64
359.287	36.35
359.498	105.98
359.709	56.83
359.921	19.97
360.132	46.59
360.344	30.21
360.555	34.3
360.766	22.02
360.977	56.83
361.189	79.36
361.4	-23.04
361.611	62.98
361.823	136.7
362.034	46.59
362.245	17.92
362.456	95.74
362.667	144.89
362.879	67.07
363.09	89.6
363.301	42.5
363.512	60.93
363.723	73.21
363.935	-10.75
364.146	97.79
364.357	58.88
364.568	9.73
364.779	13.82
364.99	112.13
365.201	81.41
365.412	89.6
365.623	54.78
365.834	108.03
366.045	5.63
366.256	116.22
366.467	62.98
366.678	56.83
366.889	136.7
367.1	65.02
367.311	103.93
367.522	83.45
367.733	99.84
367.944	159.23
368.155	-27.14
368.366	22.02
368.577	62.98
368.788	73.21
368.999	30.21
369.209	67.07
369.42	171.52
369.631	146.94
369.842	38.4
370.053	1.54
370.264	91.65
370.474	9.73
370.685	69.12
370.896	32.26
371.107	153.09
371.317	24.06
371.528	56.83
371.739	124.41
371.95	79.36
372.16	67.07
372.371	-18.94
372.582	30.21
372.792	99.84
373.003	146.94
373.214	77.31
373.424	95.74
373.635	95.74
373.846	65.02
374.056	112.13
374.267	114.17
374.477	62.98
374.688	95.74
374.898	118.27
375.109	58.88
375.319	36.35
375.53	48.64
375.74	79.36
375.951	32.26
376.161	46.59
376.372	50.69
376.582	30.21
376.793	91.65
377.003	32.26
377.214	26.11
377.424	62.98
377.635	83.45
377.845	22.02
378.055	105.98
378.266	-18.94
378.476	79.36
378.686	79.36
378.897	-49.66
379.107	97.79
379.317	108.03
379.528	42.5
379.738	24.06
379.948	130.56
380.158	48.64
380.369	48.64
380.579	87.55
380.789	124.41
380.999	75.26
381.21	97.79
381.42	114.17
381.63	17.92
381.84	79.36
382.05	38.4
382.261	83.45
382.471	120.32
382.681	54.78
382.891	189.95
383.101	138.75
383.311	-25.09
383.521	-18.94
383.731	99.84
383.941	126.46
384.151	67.07
384.361	89.6
384.571	81.41
384.781	101.89
384.991	128.51
385.201	103.93
385.411	52.74
385.621	93.69
385.831	112.13
386.041	144.89
386.251	73.21
386.461	153.09
386.671	116.22
386.881	87.55
387.091	67.07
387.301	163.33
387.511	108.03
387.72	112.13
387.93	171.52
388.14	93.69
388.35	93.69
388.56	179.71
388.769	148.99
388.979	75.26
389.189	83.45
389.399	26.11
389.609	95.74
389.818	87.55
390.028	97.79
390.238	151.04
390.447	71.17
390.657	62.98
390.867	116.22
391.076	22.02
391.286	112.13
391.496	40.45
391.705	54.78
391.915	58.88
392.125	118.27
392.334	144.89
392.544	130.56
392.753	105.98
392.963	54.78
393.172	140.8
393.382	105.98
393.591	202.24
393.801	159.23
394.01	138.75
394.22	103.93
394.429	54.78
394.639	114.17
394.848	159.23
395.058	46.59
395.267	73.21
395.477	210.43
395.686	124.41
395.895	146.94
396.105	120.32
396.314	60.93
396.524	128.51
396.733	75.26
396.942	189.95
397.152	185.85
397.361	155.13
397.57	132.61
397.78	148.99
397.989	81.41
398.198	206.33
398.407	132.61
398.617	87.55
398.826	128.51
399.035	169.47
399.244	130.56
399.453	200.19
399.663	140.8
399.872	202.24
400.081	103.93
400.29	157.18
400.499	189.95
400.708	179.71
400.917	169.47
401.127	99.84
401.336	122.37
401.545	161.28
401.754	194.05
401.963	177.66
402.172	189.95
402.381	210.43
402.59	116.22
402.799	112.13
403.008	210.43
403.217	228.86
403.426	224.76
403.635	116.22
403.844	194.05
404.053	214.52
404.262	128.51
404.471	271.87
404.68	185.85
404.888	235
405.097	169.47
405.306	218.62
405.515	222.72
405.724	194.05
405.933	304.64
406.142	280.06
406.35	218.62
406.559	245.24
406.768	218.62
406.977	269.82
407.185	292.35
407.394	261.63
407.603	161.28
407.812	308.73
408.02	300.54
408.229	302.59
408.438	278.01
408.646	243.2
408.855	368.12
409.064	341.5
409.272	292.35
409.481	400.89
409.69	361.98
409.898	374.27
410.107	431.61
410.315	357.88
410.524	384.51
410.733	415.23
410.941	425.47
411.15	523.77
411.358	515.58
411.567	538.1
411.775	529.91
411.984	554.49
412.192	605.69
412.401	591.35
412.609	568.82
412.818	638.45
413.026	654.84
413.234	636.41
413.443	671.22
413.651	648.69
413.86	726.52
414.068	767.48
414.276	869.87
414.485	816.63
414.693	941.55
414.901	896.5
415.11	996.85
415.318	906.74
415.526	984.56
415.734	953.84
415.943	1052.14
416.151	1035.76
416.359	1097.2
416.567	1091.06
416.776	1209.84
416.984	1269.23
417.192	1308.14
417.4	1154.54
417.608	1388.01
417.817	1349.1
418.025	1308.14
418.233	1476.07
418.441	1463.79
418.649	1580.52
418.857	1695.21
419.065	1687.01
419.273	1738.21
419.481	1754.6
419.689	1924.58
419.897	1889.76
420.105	1957.35
420.313	2078.18
420.521	2086.37
420.729	2217.44
420.937	2188.77
421.145	2397.66
421.353	2557.4
421.561	2600.41
421.769	2561.5
421.977	2629.08
422.185	2749.91
422.393	2883.03
422.601	3089.87
422.809	2966.99
423.017	2926.04
423.224	3096.02
423.432	3284.43
423.64	3278.29
423.848	3493.32
424.056	3556.81
424.263	3714.5
424.471	3710.41
424.679	3825.09
424.887	4122.05
425.094	4177.34
425.302	4220.35
425.51	4144.58
425.718	4408.76
425.925	4466.11
426.133	4740.54
426.341	4928.95
426.548	5088.69
426.756	5039.54
426.964	5248.43
427.171	5483.95
427.379	5690.79
427.586	5690.79
427.794	5871.01
428.001	6215.07
428.209	6458.78
428.417	6215.07
428.624	6733.21
428.832	6804.89
429.039	6667.67
429.247	6790.55
429.454	7290.26
429.662	7902.6
429.869	7331.22
430.076	8095.11
430.284	7642.51
430.491	8082.82
430.699	8344.96
430.906	8353.15
431.114	8560
431.321	8895.86
431.528	9180.53
431.736	9594.22
431.943	10237.28
432.15	9764.2
432.358	9903.46
432.565	10329.44
432.772	10278.24
432.979	10859.87
433.187	10937.69
433.394	11072.86
433.601	11672.91
433.808	11963.72
434.016	11881.8
434.223	12399.94
434.43	12926.27
434.637	12703.04
434.844	13542.71
435.052	13962.54
435.259	13710.64
435.466	13681.97
435.673	13753.65
435.88	14552.35
436.087	15172.89
436.294	15217.94
436.501	15234.33
436.708	15271.19
436.915	15760.66
437.122	16446.73
437.329	16454.92
437.537	17065.21
437.743	17044.73
437.95	17028.35
438.157	17956.08
438.364	18545.89
438.571	18388.2
438.778	18779.36
438.985	20337.87
439.192	19512.53
439.399	20282.57
439.606	19557.59
439.813	21236.92
440.02	22029.49
440.227	21730.48
440.433	21421.24
440.64	22174.89
440.847	22095.02
441.054	22621.35
441.261	24312.97
441.467	23835.8
441.674	24071.31
441.881	25056.39
442.088	25027.71
442.294	24773.77
442.501	25547.9
442.708	25902.2
442.914	27073.63
443.121	28122.19
443.328	27487.32
443.534	29283.39
443.741	28486.73
443.948	27841.62
444.154	30245.94
444.361	30194.74
444.568	29875.26
444.774	30286.9
444.981	30659.63
445.187	31292.45
445.394	32689.17
445.6	32326.67
445.807	35269.61
446.013	33530.88
446.22	33860.6
446.426	35576.8
446.633	36113.37
446.839	37149.64
447.046	35673.06
447.252	37583.81
447.459	37684.16
447.665	37454.79
447.871	39017.39
448.078	40942.48
448.284	39287.72
448.491	40305.56
448.697	41259.91
448.903	42072.96
449.11	42269.56
449.316	41501.57
449.522	42285.95
449.728	43318.12
449.935	43717.48
450.141	43797.35
450.347	44497.75
450.553	43166.57
450.76	43918.18
450.966	45316.94
451.172	44614.49
451.378	46021.44
451.584	44956.5
451.791	46084.93
451.997	45880.13
452.203	46895.92
452.409	47018.8
452.615	46598.97
452.821	44647.25
453.027	44444.51
453.233	46369.6
453.44	44802.9
453.646	45003.6
453.852	45087.57
454.058	46148.42
454.264	44505.94
454.47	45509.45
454.676	44413.79
454.882	45560.65
455.088	42175.36
455.294	43125.61
455.5	43369.32
455.705	43567.98
455.911	41986.94
456.117	41178
456.323	40455.06
456.529	38808.5
456.735	40168.35
456.941	39160.75
457.147	38532.02
457.352	37469.12
457.558	37176.26
457.764	37147.59
457.97	36430.8
458.176	35726.3
458.381	35308.52
458.587	33997.82
458.793	33680.38
458.999	32189.46
459.204	34243.57
459.41	33453.06
459.616	31239.2
459.821	31433.76
460.027	31292.45
460.233	30719.02
460.438	29191.23
460.644	29424.7
460.85	28073.04
461.055	27626.59
461.261	27311.2
461.466	25625.72
461.672	24769.67
461.878	26211.44
462.083	24761.48
462.289	24413.32
462.494	24259.73
462.7	22871.2
462.905	22420.65
463.111	23389.34
463.316	23157.92
463.522	22516.9
463.727	22768.8
463.932	22592.68
464.138	22506.66
464.343	22602.92
464.549	22035.63
464.754	22684.84
464.959	22181.04
465.165	22287.53
465.37	21009.6
465.575	20892.87
465.781	21415.1
465.986	21535.93
466.191	20796.61
466.397	20372.68
466.602	19266.78
466.807	20014.29
467.012	20042.96
467.218	19971.28
467.423	19719.38
467.628	19936.46
467.833	20673.73
468.038	19649.75
468.244	19250.39
468.449	20317.39
468.654	19365.08
468.859	19115.23
469.064	19125.47
469.269	18511.08
469.474	18539.75
469.679	18826.46
469.885	18609.38
470.09	18650.34
470.295	18412.78
470.5	17767.66
470.705	18042.09
470.91	17814.77
471.115	17761.52
471.32	18025.71
471.525	17626.36
471.73	17216.76
471.935	17257.72
472.139	16860.41
472.344	17116.41
472.549	16526.6
472.754	16717.06
472.959	16350.47
473.164	15789.33
473.369	15731.98
473.574	16078.09
473.778	16166.15
473.983	15652.11
474.188	15777.04
474.393	15234.33
474.598	15418.64
474.802	15154.46
475.007	14820.64
475.212	15064.35
475.417	14507.3
475.621	14329.13
475.826	14476.58
476.031	14236.97
476.235	14112.04
476.44	14267.69
476.645	13815.09
476.849	13948.2
477.054	14011.69
477.259	13655.34
477.463	13630.77
477.668	13387.06
477.872	13411.64
478.077	13296.95
478.282	12721.47
478.486	12887.36
478.691	12526.91
478.895	12735.81
479.1	12631.36
479.304	12582.21
479.509	12189
479.713	12481.86
479.918	12436.8
480.122	12180.81
480.326	12191.05
480.531	12182.85
480.735	11728.21
480.94	12025.16
481.144	12348.74
481.348	11785.55
481.553	11795.79
481.757	11609.42
481.961	12053.83
482.166	11869.51
482.37	12012.87
482.574	11547.98
482.778	11566.42
482.983	11875.66
483.187	11728.21
483.391	11715.92
483.595	11728.21
483.8	11593.04
484.004	11670.86
484.208	11785.55
484.412	11488.59
484.616	11814.22
484.821	11867.47
485.025	11574.61
485.229	11816.27
485.433	11298.13
485.637	11752.78
485.841	11607.37
486.045	11447.63
486.249	11597.14
486.453	11380.05
486.657	11750.73
486.861	11597.14
487.065	11265.36
487.269	11513.17
487.473	11509.07
487.677	11539.79
487.881	11634
488.085	11476.3
488.289	11449.68
488.493	11709.77
488.697	11695.44
488.901	11619.66
489.105	11754.83
489.309	11693.39
489.512	11683.15
489.716	11623.76
489.92	11836.75
490.124	11736.4
490.328	11730.25
490.531	11828.56
490.735	11896.14
490.939	11871.56
491.143	11844.94
491.346	11771.21
491.55	11902.28
491.754	12043.59
491.958	12092.74
492.161	12148.04
492.365	12084.55
492.569	11998.54
492.772	12100.94
492.976	12412.23
493.18	12195.14
493.383	12283.2
493.587	12408.13
493.79	12539.2
493.994	12365.12
494.197	12698.94
494.401	12731.71
494.605	12711.23
494.808	12815.68
495.012	13100.34
495.215	12985.66
495.419	13178.17
495.622	13219.13
495.825	13149.5
496.029	13350.2
496.232	13557.04
496.436	13362.48
496.639	13466.93
496.843	13684.02
497.046	13964.59
497.249	14118.18
497.453	14245.16
497.656	14247.21
497.859	14189.86
498.063	14570.79
498.266	14656.8
498.469	14955.8
498.673	14597.41
498.876	15154.46
499.079	15357.21
499.282	15279.38
499.485	15488.28
499.689	15758.61
499.892	15650.07
500.095	15826.19
500.298	16241.93
500.501	15871.25
500.705	16663.81
500.908	16409.86
501.111	16848.13
501.314	16815.36
501.517	16962.81
501.72	17323.26
501.923	17450.23
502.126	17405.17
502.329	18003.18
502.532	17808.62
502.735	17931.5
502.938	18400.49
503.141	18289.9
503.344	18791.65
503.547	18615.52
503.75	19135.71
503.953	19360.98
504.156	19463.38
504.359	19612.88
504.562	19610.84
504.765	20251.85
504.968	20475.08
505.17	20540.61
505.373	20702.4
505.576	20937.92
505.779	20929.73
505.982	21427.39
506.185	21603.51
506.387	21853.36
506.59	21873.84
506.793	22242.48
506.996	22111.41
507.198	22578.34
507.401	22883.49
507.604	23057.57
507.807	23258.27
508.009	23327.9
508.212	23981.2
508.415	24194.19
508.617	24155.28
508.82	24181.9
509.022	24392.84
509.225	24978.56
509.428	25140.35
509.63	25277.57
509.833	25689.21
510.035	26291.31
510.238	25789.56
510.44	26496.11
510.643	26475.63
510.845	26719.34
511.048	26483.82
511.25	26657.9
511.453	27346.01
511.655	28243.03
511.858	27755.61
512.06	27907.16
512.262	28208.21
512.465	28374.1
512.667	28728.39
512.87	29047.88
513.072	29213.76
513.274	29881.4
513.477	29731.9
513.679	30227.51
513.881	30415.92
514.084	30843.95
514.286	30635.05
514.488	30663.72
514.69	31659.04
514.893	31704.09
515.095	31853.59
515.297	32042.01
515.499	32181.27
515.701	32701.45
515.904	32855.05
516.106	33229.83
516.308	33604.61
516.51	34073.59
516.712	34067.45
516.914	34243.57
517.116	34624.5
517.318	34913.26
517.52	34825.2
517.722	35013.61
517.925	35570.66
518.127	35714.02
518.329	36078.55
518.531	36121.56
518.733	36686.8
518.935	36877.26
519.136	36721.62
519.338	37225.42
519.54	37223.37
519.742	37690.3
519.944	37868.48
520.146	38329.27
520.348	38468.53
520.55	38693.81
520.752	38423.48
520.954	39429.03
521.155	39089.07
521.357	39699.36
521.559	39865.25
521.761	40237.98
521.963	40551.32
522.164	40336.28
522.366	40414.1
522.568	40543.13
522.77	41182.09
522.971	41227.15
523.173	41204.62
523.375	41481.1
523.576	41347.98
523.778	41454.47
523.98	41849.73
524.181	42236.8
524.383	42242.94
524.584	42781.56
524.786	42711.92
524.988	42453.88
525.189	43242.35
525.391	43002.74
525.592	43209.58
525.794	43146.09
525.995	43469.67
526.197	43510.63
526.398	43316.08
526.6	43666.28
526.801	43522.92
527.003	43602.79
527.204	43989.86
527.406	44057.44
527.607	44174.17
527.808	44399.45
528.01	43379.56
528.211	44010.34
528.412	44604.25
528.614	44149.6
528.815	44774.23
529.016	44755.8
529.218	44393.31
529.419	44520.28
529.62	44585.82
529.822	44612.44
530.023	44551
530.224	44616.54
530.425	44503.9
530.626	44266.33
530.828	44075.87
531.029	45294.41
531.23	44016.48
531.431	44616.54
531.632	44563.29
531.833	44616.54
532.035	44434.27
532.236	44594.01
532.437	44993.36
532.638	44573.53
532.839	44591.96
533.04	44680.02
533.241	44378.97
533.442	44911.44
533.643	44548.95
533.844	44473.18
534.045	44710.74
534.246	43983.71
534.447	45122.38
534.648	44143.45
534.849	44618.58
535.05	44352.35
535.251	44211.04
535.451	44129.12
535.652	44481.37
535.853	44096.35
536.054	44313.44
536.255	44419.93
536.456	44026.72
536.657	44395.35
536.857	44063.58
537.058	44034.91
537.259	44467.03
537.46	44346.2
537.66	43834.21
537.861	44036.96
538.062	44051.3
538.263	43893.6
538.463	43834.21
538.664	44362.59
538.865	43748.2
539.065	43903.84
539.266	43801.44
539.466	44237.66
539.667	43524.97
539.868	44139.36
540.068	43940.71
540.269	43752.29
540.469	44059.49
540.67	43682.66
540.87	43631.46
541.071	43617.13
541.271	44012.38
541.472	43772.77
541.672	43254.64
541.873	43250.54
542.073	42988.4
542.274	43561.83
542.474	43854.69
542.675	42963.82
542.875	43877.22
543.075	43209.58
543.276	43244.4
543.476	43670.37
543.676	43006.83
543.877	43684.71
544.077	43295.6
544.277	43023.22
544.478	43076.46
544.678	43672.42
544.878	43637.61
545.078	43791.2
545.279	42789.75
545.479	43328.36
545.679	43230.06
545.879	43324.27
546.079	42806.13
546.28	43205.48
546.48	42904.43
546.68	43160.43
546.88	43185.01
547.08	43223.92
547.28	42996.59
547.48	43027.31
547.68	43139.95
547.88	42658.68
548.081	43383.66
548.281	43385.71
548.481	43178.86
548.681	43049.84
548.881	43275.12
549.081	43064.17
549.28	43006.83
549.48	43346.79
549.68	42781.56
549.88	43531.11
550.08	42795.89
550.28	43305.84
550.48	42873.71
550.68	43250.54
550.88	42785.65
551.08	43418.47
551.279	43434.86
551.479	43000.69
551.679	43529.06
551.879	43336.55
552.079	42994.54
552.278	42685.3
552.478	42935.15
552.678	43156.33
552.878	43352.94
553.077	43000.69
553.277	43199.34
553.477	43430.76
553.676	43213.68
553.876	43207.53
554.076	43137.9
554.275	43002.74
554.475	42357.63
554.674	43195.24
554.874	43139.95
555.074	43006.83
555.273	43195.24
555.473	43785.06
555.672	43240.3
555.872	43305.84
556.071	43121.52
556.271	44045.15
556.47	43168.62
556.67	42832.75
556.869	43158.38
557.068	43682.66
557.268	43350.89
557.467	43428.71
557.667	43408.23
557.866	43060.08
558.065	43049.84
558.265	42853.23
558.464	43021.17
558.663	43633.51
558.863	42904.43
559.062	43883.36
559.261	43152.24
559.461	43185.01
559.66	42867.57
559.859	43025.26
560.058	42615.67
560.258	42941.3
560.457	42984.3
560.656	43352.94
560.855	43072.37
561.054	43123.57
561.253	43010.93
561.453	43217.77
561.652	43137.9
561.851	43279.21
562.05	43334.51
562.249	42879.86
562.448	43582.31
562.647	43094.89
562.846	43285.36
563.045	42902.39
563.244	42398.59
563.443	43109.23
563.642	42836.85
563.841	42855.28
564.04	42722.16
564.239	43109.23
564.438	42826.61
564.637	43131.76
564.836	42836.85
565.035	42404.73
565.234	42617.72
565.432	42285.95
565.631	42197.88
565.83	43000.69
566.029	42304.38
566.228	42247.04
566.427	41986.94
566.625	42273.66
566.824	41866.11
567.023	42197.88
567.222	41442.18
567.42	42429.3
567.619	42025.85
567.818	41974.66
568.016	41902.98
568.215	41872.26
568.414	42079.1
568.612	42249.08
568.811	41677.7
569.01	41778.05
569.208	41694.08
569.407	41882.5
569.605	41157.52
569.804	41563.01
570.002	40952.72
570.201	41759.62
570.4	41300.87
570.598	41218.96
570.797	40864.66
570.995	41436.04
571.193	40600.47
571.392	40973.2
571.59	40549.27
571.789	40676.24
571.987	40639.38
572.186	40620.95
572.384	40303.51
572.582	40868.75
572.781	40555.41
572.979	39953.31
573.177	40283.03
573.376	40293.27
573.574	39615.4
573.772	40590.23
573.971	39560.1
574.169	39746.47
574.367	39363.5
574.565	40194.97
574.763	39238.57
574.962	39230.38
575.16	38890.41
575.358	39582.63
575.556	39003.05
575.754	39330.73
575.952	38679.47
576.151	39508.9
576.349	38761.39
576.547	39136.17
576.745	39056.3
576.943	38935.47
577.141	38556.6
577.339	39052.2
577.537	38577.08
577.735	38527.92
577.933	38298.55
578.131	38579.12
578.329	38048.7
578.527	38120.38
578.725	38083.51
578.923	38224.82
579.121	37692.35
579.319	38366.13
579.516	38398.9
579.714	37448.64
579.912	37788.61
580.11	37362.63
580.308	37526.47
580.506	37536.71
580.704	36611.03
580.901	37299.14
581.099	37354.44
581.297	36584.4
581.495	37419.97
581.692	36854.73
581.89	36955.08
582.088	36690.9
582.285	36719.57
582.483	36920.27
582.681	36451.28
582.878	36580.31
583.076	36113.37
583.274	36604.88
583.471	35931.1
583.669	36236.25
583.866	35531.75
584.064	36436.95
584.262	35664.86
584.459	35881.95
584.657	35740.64
584.854	35886.04
585.052	34960.36
585.249	35685.34
585.447	35402.72
585.644	35210.21
585.841	35206.12
586.039	35273.7
586.236	34907.12
586.434	34675.69
586.631	35068.9
586.828	35083.24
587.026	34800.62
587.223	34608.11
587.42	34511.86
587.618	34477.04
587.815	34251.77
588.012	34366.45
588.21	34038.78
588.407	34583.54
588.604	34216.95
588.801	33649.66
588.999	33915.9
589.196	33729.53
589.393	33860.6
589.59	33846.27
589.787	33797.12
589.984	33633.28
590.182	33590.27
590.379	33606.66
590.576	33317.89
590.773	33338.37
590.97	32953.35
591.167	33457.15
591.364	32646.16
591.561	33149.96
591.758	32578.57
591.955	32711.69
592.152	33164.29
592.349	32627.73
592.546	33100.81
592.743	32945.16
592.94	32707.6
593.137	32584.72
593.334	33043.46
593.531	32277.52
593.727	32449.55
593.924	32517.14
594.121	31923.22
594.318	32312.34
594.515	31759.39
594.712	32068.63
594.908	32177.17
595.105	31976.47
595.302	31554.59
595.499	31802.39
595.696	31781.92
595.892	31403.04
596.089	31902.75
596.286	31640.61
596.482	31384.61
596.679	31523.87
596.876	31384.61
597.072	31667.23
597.269	31716.38
597.466	31104.04
597.662	31198.24
597.859	31118.37
598.055	31378.47
598.252	30872.62
598.448	31249.44
598.645	30948.39
598.841	31126.57
599.038	31173.67
599.234	30960.68
599.431	30604.33
599.627	30845.99
599.824	31175.72
600.02	30487.6
600.217	30784.55
600.413	30645.29
600.609	30428.21
600.806	30370.86
601.002	30616.62
601.198	30481.45
601.395	30368.82
601.591	30577.71
601.787	30532.65
601.984	30131.25
602.18	30913.58
602.376	30630.96
602.572	30567.47
602.769	30585.9
602.965	29991.99
603.161	30649.39
603.357	29795.39
603.553	30295.09
603.75	30428.21
603.946	29908.02
604.142	30295.09
604.338	29717.56
604.534	30569.52
604.73	29971.51
604.926	30139.44
605.122	30000.18
605.318	29688.89
605.514	30223.41
605.71	29860.92
605.906	29953.08
606.102	29967.41
606.298	30002.23
606.494	30108.72
606.69	30006.33
606.886	30075.96
607.082	29711.42
607.278	30290.99
607.474	29518.91
607.67	29697.08
607.866	29623.36
608.062	30331.95
608.257	29883.45
608.453	29848.63
608.649	30008.37
608.845	29938.74
609.041	30032.95
609.236	30026.81
609.432	29867.06
609.628	29848.63
609.824	30159.92
610.019	29664.32
610.215	30157.88
610.411	30305.33
610.606	29764.67
610.802	30030.9
610.998	30307.38
611.193	30043.19
611.389	30135.35
611.584	30024.76
611.78	29735.99
611.976	30092.34
612.171	30004.28
612.367	30041.14
612.562	30106.68
612.758	29494.33
612.953	29355.07
613.149	30229.55
613.344	30002.23
613.539	30272.56
613.735	29729.85
613.93	29791.29
614.126	29846.58
614.321	30299.19
614.517	30352.43
614.712	29680.7
614.907	29621.31
615.103	29725.75
615.298	29785.15
615.493	29928.5
615.688	29531.2
615.884	30108.72
616.079	29695.03
616.274	29735.99
616.47	29975.61
616.665	29572.16
616.86	29733.95
617.055	29506.62
617.25	29346.88
617.445	29768.76
617.641	29135.94
617.836	29523.01
618.031	29039.68
618.226	29604.92
618.421	29692.99
618.616	29701.18
618.811	29117.51
619.006	29486.14
619.201	28808.26
619.396	29344.83
619.591	28595.28
619.786	28925
619.981	28474.45
620.176	29090.88
620.371	28472.4
620.566	28585.04
620.761	28656.71
620.956	28832.84
621.151	28333.14
621.346	28318.8
621.541	27903.06
621.735	27999.32
621.93	27868.25
622.125	27552.86
622.32	27479.13
622.515	27493.47
622.709	27546.72
622.904	27440.22
623.099	27063.4
623.294	27364.45
623.488	27026.53
623.683	26813.54
623.878	26489.96
624.072	26678.38
624.267	26643.56
624.462	26610.79
624.656	26150
624.851	26106.99
625.046	26104.95
625.24	25982.07
625.435	25656.44
625.629	25998.45
625.824	25533.56
626.018	25498.75
626.213	24892.55
626.407	25470.08
626.602	24966.28
626.796	25201.79
626.991	24941.7
627.185	24679.56
627.38	24583.3
627.574	24382.6
627.768	24485
627.963	24272.01
628.157	23776.41
628.352	24306.83
628.546	23739.54
628.74	24245.39
628.935	23708.82
629.129	23432.35
629.323	23544.98
629.517	23153.82
629.712	23133.34
629.906	23102.62
630.1	22871.2
630.294	22863.01
630.489	22936.74
630.683	23153.82
630.877	22670.5
631.071	22414.51
631.265	22469.8
631.459	22181.04
631.653	22410.41
631.848	22099.12
632.042	21845.17
632.236	22068.4
632.43	21908.66
632.624	21953.71
632.818	21566.65
633.012	21032.13
633.206	21509.3
633.4	21540.02
633.594	20706.5
633.788	21044.41
633.982	20798.66
634.176	21007.55
634.369	20960.45
634.563	20661.44
634.757	20309.19
634.951	20886.72
635.145	20475.08
635.339	20325.58
635.533	20085.97
635.726	20116.69
635.92	19918.03
636.114	19838.16
636.308	19780.82
636.501	19805.39
636.695	19373.27
636.889	19410.14
637.083	19449.05
637.276	19315.93
637.47	19195.1
637.664	19016.93
637.857	18986.21
638.051	18867.42
638.244	18695.39
638.438	18439.4
638.632	18472.17
638.825	18515.17
639.019	18511.08
639.212	18484.45
639.406	18369.77
639.599	18232.55
639.793	18003.18
639.986	17769.71
640.18	18001.13
640.373	18031.85
640.567	17403.13
640.76	17546.48
640.954	17374.45
641.147	17458.42
641.34	17175.8
641.534	17425.65
641.727	17034.49
641.92	16768.26
642.114	16831.74
642.307	17020.16
642.5	16667.91
642.694	16387.33
642.887	16542.98
643.08	16358.66
643.273	16250.12
643.467	16289.03
643.66	16213.26
643.853	15922.45
644.046	15899.92
644.239	15789.33
644.432	15881.49
644.626	15682.83
644.819	15631.63
645.012	15441.17
645.205	15494.42
645.398	15455.51
645.591	15211.8
645.784	15066.39
645.977	15039.77
646.17	15062.3
646.363	14992.67
646.556	14849.31
646.749	14837.02
646.942	14595.36
647.135	14679.33
647.328	14349.61
647.521	14583.07
647.714	14300.45
647.907	14177.58
648.099	14286.12
648.292	14220.58
648.485	14361.89
648.678	13878.57
648.871	14179.62
649.064	13907.24
649.256	13718.83
649.449	13847.85
649.642	13679.92
649.835	13387.06
650.027	13473.07
650.22	13442.35
650.413	13495.6
650.605	13440.31
650.798	13262.13
650.991	13284.66
651.183	12999.99
651.376	12881.21
651.568	13051.19
651.761	12952.89
651.954	12744
652.146	12789.05
652.339	12479.81
652.531	12711.23
652.724	12813.63
652.916	12432.71
653.109	12287.3
653.301	12391.75
653.494	12326.21
653.686	12197.19
653.879	12266.82
654.071	11984.2
654.263	12062.02
654.456	11976.01
654.648	12000.58
654.84	11533.65
655.033	11842.89
655.225	11662.67
655.417	11402.58
655.61	11625.81
655.802	11480.4
655.994	11511.12
656.186	11285.84
656.379	11441.49
656.571	11040.09
656.763	11337.04
656.955	11130.2
657.148	11236.69
657.34	10923.35
657.532	10960.22
657.724	10816.86
657.916	11074.9
658.108	10782.04
658.3	10610.01
658.492	10868.06
658.684	10749.28
658.876	10564.96
659.068	10593.63
659.26	10466.66
659.452	10583.39
659.644	10462.56
659.836	10397.03
660.028	10280.29
660.22	10175.84
660.412	9954.66
660.604	10102.12
660.796	10079.59
660.988	10059.11
661.18	9860.46
661.372	9815.4
661.563	9983.34
661.755	9715.05
661.947	9643.37
662.139	9737.58
662.331	9678.19
662.522	9561.45
662.714	9483.63
662.906	9528.69
663.097	9420.14
663.289	9223.54
663.481	9301.36
663.673	9327.99
663.864	9270.64
664.056	9139.57
664.247	9182.58
664.439	9012.6
664.631	9112.95
664.822	8861.05
665.014	8983.93
665.205	8775.03
665.397	8836.47
665.588	8815.99
665.78	8658.3
665.971	8811.9
666.163	8807.8
666.354	8596.86
666.546	8562.05
666.737	8603
666.929	8574.33
667.12	8666.49
667.311	8484.22
667.503	8336.77
667.694	8379.78
667.885	8322.43
668.077	8140.16
668.268	8039.81
668.459	8136.07
668.651	8265.09
668.842	8031.62
669.033	8164.74
669.224	8160.64
669.416	8185.22
669.607	7849.35
669.798	7914.89
669.989	7968.13
670.18	7835.02
670.371	7923.08
670.563	7617.93
670.754	7624.08
670.945	7632.27
671.136	7669.13
671.327	7406.99
671.518	7521.68
671.709	7542.16
671.9	7542.16
672.091	7495.05
672.282	7437.71
672.473	7495.05
672.664	7576.97
672.855	7394.7
673.046	7239.06
673.237	7251.35
673.428	7304.59
673.619	7329.17
673.809	7212.43
674	7140.76
674.191	7175.57
674.382	6974.87
674.573	7112.08
674.764	7126.42
674.954	7103.89
675.145	7165.33
675.336	6935.96
675.527	7079.32
675.717	7075.22
675.908	7087.51
676.099	7077.27
676.289	6933.91
676.48	6878.62
676.671	6847.9
676.861	6995.35
677.052	6813.08
677.243	6802.84
677.433	6841.75
677.624	6856.09
677.814	6913.43
678.005	6626.71
678.195	6839.7
678.386	6682.01
678.576	6675.87
678.767	6555.04
678.957	6682.01
679.148	6718.87
679.338	6649.24
679.529	6692.25
679.719	6571.42
679.909	6743.45
680.1	6608.28
680.29	6583.71
680.481	6565.28
680.671	6514.08
680.861	6485.41
681.052	6495.64
681.242	6235.55
681.432	6534.56
681.622	6448.54
681.813	6331.81
682.003	6305.18
682.193	6280.61
682.383	6460.83
682.573	6419.87
682.764	6327.71
682.954	6296.99
683.144	6313.38
683.334	6296.99
683.524	6215.07
683.714	6329.76
683.904	6223.27
684.094	6366.62
684.284	6079.91
684.474	6436.25
684.664	6229.41
684.854	5973.41
685.044	6020.52
685.234	6112.67
685.424	6026.66
685.614	6069.67
685.804	6059.43
685.994	6129.06
686.184	5997.99
686.374	6057.38
686.564	6026.66
686.753	6071.72
686.943	5842.34
687.133	6120.87
687.323	5834.15
687.513	5789.1
687.702	5643.69
687.892	5901.73
688.082	5746.09
688.272	5934.5
688.461	5756.33
688.651	5793.19
688.841	5617.07
689.03	5701.03
689.22	5553.58
689.41	5707.18
689.599	5481.9
689.789	5774.76
689.979	5606.83
690.168	5629.35
690.358	5512.62
690.547	5369.26
690.737	5486
690.926	5549.48
691.116	5213.62
691.305	5361.07
691.495	5473.71
691.684	5344.69
691.874	5414.32
692.063	5447.08
692.252	5313.97
692.442	5377.45
692.631	5162.42
692.82	5266.86
693.01	5248.43
693.199	5174.71
693.388	5041.59
693.578	5258.67
693.767	5223.86
693.956	5215.66
694.146	5053.87
694.335	5328.3
694.524	5055.92
694.713	5090.74
694.902	5115.31
695.092	5004.72
695.281	4900.28
695.47	5006.77
695.659	4955.57
695.848	4949.43
696.037	4844.98
696.226	4965.81
696.415	4922.8
696.604	4976.05
696.793	5029.3
696.982	4986.29
697.171	4887.99
697.36	4949.43
697.549	4812.21
697.738	4847.03
697.927	4769.21
698.116	4871.61
698.305	4703.67
698.494	4847.03
698.683	4617.66
698.872	4781.5
699.061	4652.47
699.25	4797.88
699.438	4617.66
699.627	4537.79
699.816	4675
700.005	4507.07
700.193	4646.33
700.382	4871.61
700.571	4541.88
700.76	4511.16
700.948	4568.51
701.137	4656.57
701.326	4537.79
701.514	4484.54
701.703	4597.18
701.892	4406.72
702.08	4627.9
702.269	4343.23
702.457	4263.36
702.646	4337.09
702.834	4249.02
703.023	4396.48
703.212	4431.29
703.4	4355.52
703.589	4283.84
703.777	4197.82
703.965	4294.08
704.154	4251.07
704.342	4257.22
704.531	4228.54
704.719	4324.8
704.907	4373.95
705.096	4203.97
705.284	4115.91
705.472	4087.23
705.661	4193.73
705.849	4101.57
706.037	4089.28
706.226	4138.43
706.414	4177.34
706.602	4038.08
706.79	4150.72
706.979	4007.36
707.167	4013.51
707.355	3937.73
707.543	3988.93
707.731	4017.6
707.919	3900.87
708.107	3978.69
708.296	3843.53
708.484	3800.52
708.672	4144.58
708.86	3907.01
709.048	3843.53
709.236	3868.1
709.424	3765.7
709.612	3859.91
709.8	3823.05
709.988	3851.72
710.176	3878.34
710.364	3691.98
710.551	3835.33
710.739	3773.89
710.927	3786.18
711.115	3802.57
711.303	3724.74
711.491	3571.15
711.679	3626.44
711.866	3702.22
712.054	3708.36
712.242	3755.46
712.43	3673.54
712.617	3749.32
712.805	3757.51
712.993	3671.5
713.181	3511.75
713.368	3577.29
713.556	3720.65
713.744	3409.36
713.931	3630.54
714.119	3583.43
714.306	3495.37
714.494	3618.25
714.682	3397.07
714.869	3306.96
715.057	3442.12
715.244	3458.51
715.432	3536.33
715.619	3458.51
715.807	3438.03
715.994	3331.53
716.182	3298.77
716.369	3440.08
716.556	3440.08
716.744	3263.95
716.931	3208.66
717.119	3266
717.306	3429.84
717.493	3311.05
717.681	3300.81
717.868	3245.52
718.055	3278.29
718.242	3319.25
718.43	3171.79
718.617	3282.38
718.804	3233.23
718.991	3317.2
719.179	3233.23
719.366	3096.02
719.553	3222.99
719.74	3186.13
719.927	3139.02
720.114	3151.31
720.301	3106.26
720.488	3128.78
720.676	3134.93
720.863	3139.02
721.05	3102.16
721.237	3130.83
721.424	3077.59
721.611	3151.31
721.798	2930.13
721.985	3007.95
722.172	3014.1
722.358	3065.3
722.545	3169.74
722.732	2987.47
722.919	3005.91
723.106	2995.67
723.293	2926.04
723.48	2807.25
723.667	2848.21
723.853	2878.93
724.04	2891.22
724.227	2792.92
724.414	2819.54
724.6	2782.68
724.787	2915.8
724.974	2883.03
725.161	2811.35
725.347	2897.36
725.534	2801.11
725.72	2717.14
725.907	2852.31
726.094	2915.8
726.28	2823.64
726.467	2794.97
726.653	2729.43
726.84	2899.41
727.027	2876.88
727.213	2756.05
727.4	2713.05
727.586	2790.87
727.773	2672.09
727.959	2643.42
728.145	2794.97
728.332	2643.42
728.518	2725.33
728.705	2678.23
728.891	2749.91
729.077	2643.42
729.264	2610.65
729.45	2647.51
729.636	2770.39
729.823	2586.07
730.009	2596.31
730.195	2741.72
730.382	2635.22
730.568	2463.19
730.754	2604.5
730.94	2471.39
731.126	2569.69
731.313	2541.02
731.499	2653.66
731.685	2506.2
731.871	2483.67
732.057	2602.46
732.243	2471.39
732.429	2500.06
732.615	2647.51
732.801	2577.88
732.987	2598.36
733.173	2530.78
733.359	2536.92
733.545	2541.02
733.731	2440.67
733.917	2600.41
734.103	2520.54
734.289	2577.88
734.475	2426.33
734.661	2491.87
734.847	2436.57
735.033	2561.5
735.219	2407.9
735.404	2364.89
735.59	2422.24
735.776	2403.8
735.962	2446.81
736.148	2381.28
736.333	2471.39
736.519	2459.1
736.705	2364.89
736.89	2373.08
737.076	2287.07
737.262	2295.26
737.447	2254.3
737.633	2227.68
737.819	2307.55
738.004	2307.55
738.19	2313.69
738.375	2334.17
738.561	2352.6
738.747	2323.93
738.932	2313.69
739.118	2407.9
739.303	2332.12
739.489	2366.94
739.674	2131.42
739.859	2262.49
740.045	2188.77
740.23	2090.46
740.416	2186.72
740.601	2262.49
740.786	2117.09
740.972	2139.62
741.157	2194.91
741.342	2119.14
741.528	2127.33
741.713	2184.67
741.898	2074.08
742.084	2033.12
742.269	2115.04
742.454	2119.14
742.639	2061.79
742.824	2016.74
743.01	2145.76
743.195	2031.07
743.38	2088.42
743.565	2035.17
743.75	2147.81
743.935	1986.02
744.12	2123.23
744.305	1975.78
744.49	1938.91
744.675	1957.35
744.86	1967.59
745.045	1920.48
745.23	1965.54
745.415	1928.67
745.6	1967.59
745.785	1914.34
745.97	1857
746.155	1897.96
746.34	1910.24
746.525	1922.53
746.71	1916.39
746.895	1736.17
747.079	1793.51
747.264	1799.65
747.449	1922.53
747.634	1842.66
747.819	1934.82
748.003	1791.46
748.188	1750.5
748.373	1754.6
748.557	1687.01
748.742	1758.69
748.927	1766.89
749.111	1684.97
749.296	1705.45
749.481	1668.58
749.665	1672.68
749.85	1687.01
750.034	1730.02
750.219	1750.5
750.404	1549.8
750.588	1660.39
750.773	1693.16
750.957	1629.67
751.141	1584.62
751.326	1557.99
751.51	1486.31
751.695	1541.61
751.879	1500.65
752.064	1617.38
752.248	1457.64
752.432	1539.56
752.617	1512.94
752.801	1547.75
752.985	1404.39
753.17	1437.16
753.354	1514.98
753.538	1381.87
753.722	1361.39
753.907	1428.97
754.091	1340.91
754.275	1449.45
754.459	1340.91
754.643	1353.2
754.828	1408.49
755.012	1447.4
755.196	1326.57
755.38	1269.23
755.564	1388.01
755.748	1285.61
755.932	1353.2
756.116	1377.77
756.3	1271.28
756.484	1291.76
756.668	1308.14
756.852	1357.29
757.036	1271.28
757.22	1164.78
757.404	1242.61
757.588	1213.93
757.772	1195.5
757.956	1189.36
758.14	1291.76
758.323	1199.6
758.507	1244.65
758.691	1177.07
758.875	1261.04
759.059	1261.04
759.242	1185.26
759.426	1187.31
759.61	1205.74
759.794	1179.12
759.977	1152.49
760.161	1228.27
760.345	1183.21
760.528	1115.63
760.712	1228.27
760.895	1205.74
761.079	1111.54
761.263	1064.43
761.446	1076.72
761.63	1226.22
761.813	1160.69
761.997	1005.04
762.18	1062.38
762.364	1015.28
762.547	984.56
762.731	1007.09
762.914	996.85
763.098	1033.71
763.281	1091.06
763.464	990.7
763.648	980.47
763.831	996.85
764.015	1011.18
764.198	955.89
764.381	1005.04
764.564	1005.04
764.748	898.55
764.931	974.32
765.114	1089.01
765.297	1000.94
765.481	908.79
765.664	919.03
765.847	894.45
766.03	1009.14
766.213	990.7
766.397	992.75
766.58	941.55
766.763	927.22
766.946	914.93
767.129	990.7
767.312	914.93
767.495	984.56
767.678	873.97
767.861	992.75
768.044	966.13
768.227	980.47
768.41	933.36
768.593	980.47
768.776	910.83
768.959	914.93
769.142	861.68
769.324	736.76
769.507	951.79
769.69	812.53
769.873	849.4
770.056	1007.09
770.239	787.96
770.421	873.97
770.604	896.5
770.787	814.58
770.97	884.21
771.152	822.77
771.335	845.3
771.518	759.28
771.7	818.68
771.883	882.16
772.066	861.68
772.248	835.06
772.431	871.92
772.613	847.35
772.796	820.72
772.978	892.4
773.161	798.2
773.343	833.01
773.526	814.58
773.708	751.09
773.891	857.59
774.073	853.49
774.256	816.63
774.438	841.2
774.621	816.63
774.803	847.35
774.985	656.89
775.168	781.81
775.35	783.86
775.532	742.9
775.715	783.86
775.897	845.3
776.079	685.56
776.261	654.84
776.444	734.71
776.626	687.61
776.808	687.61
776.99	744.95
777.173	685.56
777.355	736.76
777.537	638.45
777.719	736.76
777.901	695.8
778.083	636.41
778.265	585.21
778.447	654.84
778.629	749.04
778.811	656.89
778.993	638.45
779.175	759.28
779.357	726.52
779.539	611.83
779.721	685.56
779.903	620.02
780.085	628.21
780.267	642.55
780.449	677.37
780.631	671.22
780.812	654.84
780.994	620.02
781.176	636.41
781.358	603.64
781.54	554.49
781.721	579.06
781.903	665.08
782.085	564.73
782.267	607.73
782.448	552.44
782.63	529.91
782.812	523.77
782.993	599.54
783.175	529.91
783.357	540.15
783.538	579.06
783.72	509.43
783.901	497.14
784.083	595.45
784.264	624.12
784.446	497.14
784.627	562.68
784.809	534.01
784.99	523.77
785.172	482.81
785.353	415.23
785.535	450.04
785.716	456.19
785.897	484.86
786.079	447.99
786.26	423.42
786.441	464.38
786.623	482.81
786.804	454.14
786.985	411.13
787.167	470.52
787.348	421.37
787.529	484.86
787.71	464.38
787.891	439.8
788.073	382.46
788.254	321.02
788.435	431.61
788.616	396.79
788.797	390.65
788.978	392.7
789.159	407.03
789.34	474.62
789.522	415.23
789.703	417.27
789.884	409.08
790.065	456.19
790.246	407.03
790.427	374.27
790.607	480.76
790.788	359.93
790.969	353.79
791.15	382.46
791.331	390.65
791.512	390.65
791.693	335.35
791.874	398.84
792.054	386.55
792.235	409.08
792.416	361.98
792.597	292.35
792.778	368.12
792.958	407.03
793.139	429.56
793.32	366.07
793.5	296.44
793.681	327.16
793.862	407.03
794.042	374.27
794.223	366.07
794.404	302.59
794.584	316.92
794.765	292.35
794.945	374.27
795.126	384.51
795.306	286.2
795.487	286.2
795.667	329.21
795.848	329.21
796.028	316.92
796.209	349.69
796.389	273.92
796.57	187.9
796.75	290.3
796.93	413.18
797.111	280.06
797.291	247.29
797.471	374.27
797.652	359.93
797.832	245.24
798.012	359.93
798.192	282.11
798.373	312.83
798.553	298.49
798.733	318.97
798.913	257.53
799.093	226.81
799.274	290.3
799.454	261.63
799.634	294.4
799.814	325.12
799.994	243.2
800.174	288.25
800.354	261.63
800.534	230.91
800.714	261.63
800.894	275.96
801.074	325.12
801.254	235
801.434	235
801.614	200.19
801.794	196.09
801.974	792.05
802.154	259.58
802.334	286.2
802.514	247.29
802.693	255.48
802.873	308.73
803.053	325.12
803.233	218.62
803.413	228.86
803.592	271.87
803.772	300.54
803.952	202.24
804.131	251.39
804.311	321.02
804.491	235
804.67	245.24
804.85	155.13
805.03	263.68
805.209	323.07
805.389	243.2
805.568	204.28
805.748	169.47
805.928	265.72
806.107	343.55
806.287	251.39
806.466	196.09
806.646	196.09
806.825	136.7
807.004	235
807.184	202.24
807.363	259.58
807.543	218.62
807.722	122.37
807.901	284.16
808.081	194.05
808.26	142.85
808.439	267.77
808.619	222.72
808.798	173.57
808.977	253.44
809.156	275.96
809.336	255.48
809.515	204.28
809.694	148.99
809.873	175.61
810.052	179.71
810.231	222.72
810.411	198.14
810.59	140.8
810.769	173.57
810.948	235
811.127	171.52
811.306	161.28
811.485	185.85
811.664	196.09
811.843	235
812.022	151.04
812.201	167.42
812.38	269.82
812.559	224.76
812.737	255.48
812.916	128.51
813.095	146.94
813.274	171.52
813.453	169.47
813.632	222.72
813.811	222.72
813.989	169.47
814.168	167.42
814.347	187.9
814.526	169.47
814.704	212.48
814.883	214.52
815.062	120.32
815.24	202.24
815.419	157.18
815.598	146.94
815.776	103.93
815.955	157.18
816.133	81.41
816.312	132.61
816.49	210.43
816.669	87.55
816.847	187.9
817.026	165.37
817.204	144.89
817.383	122.37
817.561	122.37
817.74	210.43
817.918	175.61
818.097	144.89
818.275	46.59
818.453	165.37
818.632	112.13
818.81	144.89
818.988	89.6
819.167	142.85
819.345	87.55
819.523	67.07
819.701	124.41
819.879	116.22
820.058	151.04
820.236	198.14
820.414	97.79
820.592	97.79
820.77	132.61
820.948	130.56
821.127	181.76
821.305	185.85
821.483	81.41
821.661	136.7
821.839	122.37
822.017	69.12
822.195	75.26
822.373	179.71
822.551	118.27
822.729	93.69
822.907	169.47
823.085	237.05
823.262	128.51
823.44	155.13
823.618	134.65
823.796	146.94
823.974	153.09
824.152	99.84
824.329	79.36
824.507	173.57
824.685	108.03
824.863	95.74
825.04	173.57
825.218	144.89
825.396	157.18
825.574	116.22
825.751	103.93
825.929	71.17
826.107	130.56
826.284	79.36
826.462	136.7
826.639	58.88
826.817	157.18
826.994	163.33
827.172	17.92
827.349	103.93
827.527	69.12
827.704	103.93
827.882	56.83
828.059	62.98
828.237	134.65
828.414	87.55
828.591	46.59
828.769	153.09
828.946	-14.85
829.124	128.51
829.301	239.1
829.478	95.74
829.655	189.95
829.833	46.59
830.01	54.78
830.187	103.93
830.364	105.98
830.542	99.84
830.719	136.7
830.896	161.28
831.073	153.09
831.25	89.6
831.427	67.07
831.604	124.41
831.782	103.93
831.959	161.28
832.136	91.65
832.313	163.33
832.49	130.56
832.667	108.03
832.844	95.74
833.021	130.56
833.198	93.69
833.374	65.02
833.551	116.22
833.728	52.74
833.905	89.6
834.082	26.11
834.259	36.35
834.436	159.23
834.612	52.74
834.789	101.89
834.966	69.12
835.143	42.5
835.319	118.27
835.496	132.61
835.673	54.78
835.85	142.85
836.026	36.35
836.203	54.78
836.38	93.69
836.556	13.82
836.733	62.98
836.909	177.66
837.086	26.11
837.262	5.63
837.439	112.13
837.616	30.21
837.792	128.51
837.968	38.4
838.145	9.73
838.321	42.5
838.498	112.13
838.674	52.74
838.851	87.55
839.027	40.45
839.203	103.93
839.38	116.22
839.556	71.17
839.732	40.45
839.909	103.93
840.085	56.83
840.261	-10.75
840.437	73.21
840.614	56.83
840.79	54.78
840.966	79.36
841.142	40.45
841.318	87.55
841.494	15.87
841.671	67.07
841.847	22.02
842.023	42.5
842.199	46.59
842.375	124.41
842.551	46.59
842.727	58.88
842.903	142.85
843.079	34.3
843.255	138.75
843.431	56.83
843.607	40.45
843.783	-6.66
843.959	87.55
844.134	48.64
844.31	103.93
844.486	71.17
844.662	7.68
844.838	58.88
845.013	105.98
845.189	144.89
845.365	-8.7
845.541	87.55
845.716	75.26
845.892	95.74
846.068	79.36
846.244	60.93
846.419	91.65
846.595	5.63
846.77	-6.66
846.946	65.02
847.122	50.69
847.297	44.54
847.473	79.36
847.648	-14.85
847.824	30.21
847.999	71.17
848.175	50.69
848.35	46.59
848.526	108.03
848.701	-2.56
848.876	108.03
849.052	87.55
849.227	38.4
849.403	17.92
849.578	62.98
849.753	62.98
849.929	58.88
850.104	40.45
850.279	56.83
850.454	130.56
850.63	99.84
850.805	48.64
850.98	17.92
851.155	22.02
851.33	56.83
851.505	26.11
851.681	71.17
851.856	81.41
852.031	128.51
852.206	38.4
852.381	-10.75
852.556	-51.71
852.731	34.3
852.906	5.63
853.081	103.93
853.256	81.41
853.431	103.93
853.606	108.03
853.781	-10.75
853.956	1.54
854.131	103.93
854.305	-0.51
854.48	48.64
854.655	30.21
854.83	40.45
855.005	128.51
855.18	-23.04
855.354	19.97
855.529	81.41
855.704	89.6
855.879	58.88
856.053	15.87
856.228	50.69
856.403	32.26
856.577	79.36
856.752	-8.7
856.926	105.98
857.101	22.02
857.276	62.98
857.45	30.21
857.625	56.83
857.799	-27.14
857.974	58.88
858.148	-35.33
858.323	-35.33
858.497	56.83
858.672	13.82
858.846	7.68
859.02	42.5
859.195	65.02
859.369	103.93
859.543	83.45
859.718	38.4
859.892	97.79
860.066	122.37
860.241	38.4
860.415	-0.51
860.589	52.74
860.763	7.68
860.938	28.16
861.112	-8.7
861.286	50.69
861.46	-16.9
861.634	15.87
861.808	169.47
861.982	-25.09
862.157	120.32
862.331	67.07
862.505	-47.62
862.679	7.68
862.853	-16.9
863.027	17.92
863.201	169.47
863.375	58.88
863.549	-6.66
863.722	5.63
863.896	67.07
864.07	54.78
864.244	17.92
864.418	-2.56
864.592	40.45
864.766	-55.81
864.939	15.87
865.113	-10.75
865.287	44.54
865.461	54.78
865.634	30.21
865.808	26.11
865.982	30.21
866.156	65.02
866.329	-0.51
866.503	-10.75
866.676	87.55
866.85	38.4
867.024	38.4
867.197	28.16
867.371	26.11
867.544	95.74
867.718	-6.66
867.891	62.98
868.065	-27.14
868.238	-35.33
868.412	50.69
868.585	52.74
868.759	54.78
868.932	-39.42
869.105	-4.61
869.279	58.88
869.452	46.59
869.625	79.36
869.799	-0.51
869.972	11.78
870.145	22.02
870.319	99.84
870.492	22.02
870.665	30.21
870.838	-18.94
871.011	-59.9
871.185	30.21
871.358	9.73
871.531	85.5
871.704	22.02
871.877	15.87
872.05	79.36
872.223	-39.42
872.396	26.11
872.569	60.93
872.742	-35.33
872.915	34.3
873.088	13.82
873.261	-117.25
873.434	108.03
873.607	40.45
873.78	81.41
873.953	-61.95
874.126	-14.85
874.299	28.16
874.471	73.21
874.644	15.87
874.817	-2.56
874.99	7.68
875.163	67.07
875.335	32.26
875.508	9.73
875.681	40.45
875.853	17.92
876.026	-2.56
876.199	54.78
876.371	32.26
876.544	-12.8
876.717	54.78
876.889	17.92
877.062	40.45
877.234	13.82
877.407	40.45
877.579	38.4
877.752	15.87
877.924	103.93
878.097	7.68
878.269	5.63
878.442	40.45
878.614	142.85
878.786	87.55
878.959	-35.33
879.131	40.45
879.303	-18.94
879.476	19.97
879.648	3.58
879.82	122.37
879.993	54.78
880.165	38.4
880.337	-45.57
880.509	79.36
880.681	-57.86
880.854	67.07
881.026	30.21
881.198	105.98
881.37	22.02
881.542	-18.94
881.714	-43.52
881.886	32.26
882.058	26.11
882.23	13.82
882.402	-0.51
882.574	-27.14
882.746	26.11
882.918	32.26
883.09	67.07
883.262	22.02
883.434	40.45
883.606	-70.14
883.778	7.68
883.95	105.98
884.122	22.02
884.293	73.21
884.465	22.02
884.637	22.02
884.809	-2.56
884.98	95.74
885.152	38.4
885.324	19.97
885.496	-33.28
885.667	11.78
885.839	22.02
886.011	91.65
886.182	22.02
886.354	81.41
886.525	89.6
886.697	114.17
886.869	13.82
887.04	-49.66
887.212	7.68
887.383	114.17
887.555	5.63
887.726	-31.23
887.897	65.02
888.069	91.65
888.24	-39.42
888.412	-23.04
888.583	40.45
888.754	34.3
888.926	9.73
889.097	-80.38
889.268	-8.7
889.44	46.59
889.611	-23.04
889.782	-4.61
889.953	11.78
890.125	87.55
890.296	-2.56
890.467	-39.42
890.638	1.54
890.809	17.92
890.98	42.5
891.151	144.89
891.323	77.31
891.494	-23.04
891.665	28.16
891.836	7.68
892.007	-82.43
892.178	-14.85
892.349	30.21
892.52	-51.71
892.691	5.63
892.862	-49.66
893.032	-25.09
893.203	-6.66
893.374	-35.33
893.545	56.83
893.716	17.92
893.887	-18.94
894.057	34.3
894.228	-64
894.399	-49.66
894.57	50.69
894.74	30.21
894.911	28.16
895.082	-6.66
895.253	13.82
895.423	65.02
895.594	58.88
895.764	17.92
895.935	-0.51
896.106	38.4
896.276	48.64
896.447	5.63
896.617	30.21
896.788	-51.71
896.958	-0.51
897.129	9.73
897.299	-27.14
897.47	91.65
897.64	-2.56
897.81	-41.47
897.981	5.63
898.151	-23.04
898.322	24.06
898.492	9.73
898.662	-14.85
898.832	32.26
899.003	26.11
899.173	36.35
899.343	-43.52
899.513	-49.66
