Data from USB4F104151__123__14-31-18-259.txt Node

Date: Thu Mar 13 14:31:18 EDT 2025
User: louis
Spectrometer: USB4F10415
Trigger mode: 4
Integration Time (sec): 2.500000E-2
Scans to average: 1
Electric dark correction enabled: true
Nonlinearity correction enabled: false
Boxcar width: 0
XAxis mode: Wavelengths
Number of Pixels in Spectrum: 3648
>>>>>Begin Spectral Data<<<<<
178.204	-122.71
178.424	-122.71
178.644	-122.71
178.864	-171.86
179.084	-137.04
179.304	28.84
179.524	-12.12
179.744	18.6
179.964	-24.4
180.184	24.75
180.404	22.7
180.624	-38.74
180.844	39.08
181.064	-34.64
181.283	20.65
181.503	-18.26
181.723	-26.45
181.943	-81.75
182.163	110.76
182.383	63.66
182.602	104.62
182.822	-1.88
183.042	65.71
183.262	12.46
183.482	14.51
183.701	28.84
183.921	4.27
184.141	-51.03
184.361	24.75
184.58	14.51
184.8	24.75
185.02	-20.31
185.239	30.89
185.459	86.19
185.679	26.79
185.898	12.46
186.118	137.38
186.338	39.08
186.557	55.47
186.777	16.55
186.997	37.03
187.216	71.85
187.436	102.57
187.655	104.62
187.875	57.51
188.095	45.23
188.314	118.95
188.534	53.42
188.753	12.46
188.973	37.03
189.192	86.19
189.412	37.03
189.631	37.03
189.851	6.31
190.07	47.27
190.29	-22.36
190.509	22.7
190.729	-36.69
190.948	63.66
191.168	110.76
191.387	92.33
191.607	47.27
191.826	47.27
192.045	-61.27
192.265	43.18
192.484	12.46
192.704	53.42
192.923	-69.46
193.142	94.38
193.362	24.75
193.581	61.61
193.8	69.8
194.02	86.19
194.239	-5.97
194.458	28.84
194.678	80.04
194.897	80.04
195.116	-44.88
195.335	16.55
195.555	39.08
195.774	86.19
195.993	30.89
196.212	53.42
196.432	51.37
196.651	-1.88
196.87	-16.21
197.089	151.72
197.308	82.09
197.528	59.56
197.747	32.94
197.966	39.08
198.185	57.51
198.404	28.84
198.623	77.99
198.842	80.04
199.062	84.14
199.281	102.57
199.5	20.65
199.719	77.99
199.938	80.04
200.157	110.76
200.376	118.95
200.595	45.23
200.814	123.05
201.033	32.94
201.252	73.9
201.471	24.75
201.69	123.05
201.909	75.95
202.128	55.47
202.347	-3.93
202.566	16.55
202.785	8.36
203.004	61.61
203.223	176.3
203.442	65.71
203.661	0.17
203.879	-24.4
204.098	30.89
204.317	4.27
204.536	145.58
204.755	8.36
204.974	131.24
205.193	4.27
205.411	80.04
205.63	14.51
205.849	77.99
206.068	116.9
206.287	32.94
206.505	77.99
206.724	12.46
206.943	4.27
207.162	69.8
207.381	106.67
207.599	12.46
207.818	22.7
208.037	-69.46
208.255	45.23
208.474	77.99
208.693	77.99
208.911	61.61
209.13	-1.88
209.349	43.18
209.567	71.85
209.786	94.38
210.005	39.08
210.223	2.22
210.442	-14.17
210.661	-10.07
210.879	16.55
211.098	118.95
211.316	53.42
211.535	104.62
211.753	4.27
211.972	82.09
212.191	-3.93
212.409	37.03
212.628	53.42
212.846	94.38
213.065	20.65
213.283	61.61
213.502	39.08
213.72	84.14
213.938	73.9
214.157	-53.08
214.375	12.46
214.594	41.13
214.812	102.57
215.031	37.03
215.249	77.99
215.467	88.23
215.686	-30.55
215.904	61.61
216.122	61.61
216.341	61.61
216.559	63.66
216.778	102.57
216.996	80.04
217.214	-20.31
217.432	28.84
217.651	110.76
217.869	61.61
218.087	-16.21
218.306	22.7
218.524	71.85
218.742	75.95
218.96	77.99
219.179	32.94
219.397	20.65
219.615	141.48
219.833	67.75
220.051	24.75
220.27	55.47
220.488	61.61
220.706	4.27
220.924	28.84
221.142	12.46
221.36	-34.64
221.578	16.55
221.796	53.42
222.015	86.19
222.233	34.99
222.451	147.62
222.669	57.51
222.887	47.27
223.105	-8.02
223.323	69.8
223.541	8.36
223.759	47.27
223.977	2.22
224.195	147.62
224.413	51.37
224.631	75.95
224.849	-1.88
225.067	41.13
225.285	53.42
225.503	30.89
225.721	-51.03
225.939	16.55
226.157	18.6
226.375	125.1
226.592	30.89
226.81	28.84
227.028	32.94
227.246	139.43
227.464	20.65
227.682	-44.88
227.9	125.1
228.117	69.8
228.335	14.51
228.553	49.32
228.771	53.42
228.989	14.51
229.206	106.67
229.424	110.76
229.642	39.08
229.86	39.08
230.077	139.43
230.295	8.36
230.513	37.03
230.731	104.62
230.948	45.23
231.166	49.32
231.384	39.08
231.601	22.7
231.819	53.42
232.037	6.31
232.254	-8.02
232.472	37.03
232.689	118.95
232.907	32.94
233.125	53.42
233.342	59.56
233.56	-32.6
233.777	51.37
233.995	55.47
234.213	69.8
234.43	22.7
234.648	20.65
234.865	53.42
235.083	8.36
235.3	80.04
235.518	77.99
235.735	96.43
235.953	75.95
236.17	63.66
236.388	-10.07
236.605	53.42
236.822	6.31
237.04	39.08
237.257	28.84
237.475	-26.45
237.692	63.66
237.909	30.89
238.127	47.27
238.344	118.95
238.562	-28.5
238.779	2.22
238.996	20.65
239.214	67.75
239.431	135.34
239.648	-3.93
239.865	143.53
240.083	88.23
240.3	20.65
240.517	-1.88
240.735	65.71
240.952	65.71
241.169	65.71
241.386	8.36
241.603	55.47
241.821	41.13
242.038	53.42
242.255	39.08
242.472	37.03
242.689	67.75
242.907	45.23
243.124	16.55
243.341	24.75
243.558	-48.98
243.775	28.84
243.992	12.46
244.209	37.03
244.426	159.91
244.643	102.57
244.86	37.03
245.078	77.99
245.295	55.47
245.512	127.14
245.729	-12.12
245.946	12.46
246.163	63.66
246.38	69.8
246.597	0.17
246.814	73.9
247.031	106.67
247.248	63.66
247.464	63.66
247.681	65.71
247.898	45.23
248.115	20.65
248.332	37.03
248.549	71.85
248.766	116.9
248.983	90.28
249.2	71.85
249.417	28.84
249.633	39.08
249.85	65.71
250.067	28.84
250.284	110.76
250.501	129.19
250.717	106.67
250.934	22.7
251.151	71.85
251.368	39.08
251.585	16.55
251.801	24.75
252.018	65.71
252.235	0.17
252.451	65.71
252.668	28.84
252.885	98.47
253.102	94.38
253.318	12.46
253.535	20.65
253.752	20.65
253.968	34.99
254.185	61.61
254.401	49.32
254.618	77.99
254.835	-26.45
255.051	45.23
255.268	67.75
255.484	-30.55
255.701	18.6
255.917	82.09
256.134	28.84
256.351	86.19
256.567	45.23
256.784	18.6
257	-16.21
257.217	28.84
257.433	65.71
257.65	82.09
257.866	71.85
258.082	18.6
258.299	4.27
258.515	47.27
258.732	20.65
258.948	41.13
259.165	30.89
259.381	45.23
259.597	75.95
259.814	20.65
260.03	-1.88
260.246	92.33
260.463	49.32
260.679	118.95
260.895	92.33
261.112	94.38
261.328	53.42
261.544	22.7
261.761	174.25
261.977	63.66
262.193	-16.21
262.409	102.57
262.626	28.84
262.842	45.23
263.058	-24.4
263.274	77.99
263.49	34.99
263.707	118.95
263.923	86.19
264.139	-51.03
264.355	57.51
264.571	69.8
264.787	82.09
265.004	30.89
265.22	12.46
265.436	-3.93
265.652	32.94
265.868	135.34
266.084	39.08
266.3	37.03
266.516	61.61
266.732	4.27
266.948	55.47
267.164	47.27
267.38	118.95
267.596	49.32
267.812	98.47
268.028	37.03
268.244	14.51
268.46	127.14
268.676	77.99
268.892	71.85
269.108	49.32
269.324	12.46
269.54	-10.07
269.756	149.67
269.972	20.65
270.188	82.09
270.403	-18.26
270.619	86.19
270.835	18.6
271.051	73.9
271.267	14.51
271.483	-24.4
271.698	61.61
271.914	22.7
272.13	-22.36
272.346	37.03
272.562	75.95
272.777	34.99
272.993	88.23
273.209	16.55
273.425	98.47
273.64	37.03
273.856	133.29
274.072	118.95
274.287	-18.26
274.503	88.23
274.719	75.95
274.934	47.27
275.15	16.55
275.366	80.04
275.581	53.42
275.797	61.61
276.012	-20.31
276.228	37.03
276.444	32.94
276.659	118.95
276.875	63.66
277.09	67.75
277.306	28.84
277.521	41.13
277.737	8.36
277.952	69.8
278.168	59.56
278.383	-12.12
278.599	-67.41
278.814	118.95
279.03	-8.02
279.245	88.23
279.461	63.66
279.676	121
279.892	41.13
280.107	51.37
280.322	106.67
280.538	98.47
280.753	12.46
280.969	37.03
281.184	65.71
281.399	82.09
281.615	18.6
281.83	-5.97
282.045	-18.26
282.26	30.89
282.476	39.08
282.691	57.51
282.906	94.38
283.122	63.66
283.337	82.09
283.552	71.85
283.767	-3.93
283.983	20.65
284.198	43.18
284.413	116.9
284.628	39.08
284.843	32.94
285.058	106.67
285.274	47.27
285.489	-10.07
285.704	94.38
285.919	82.09
286.134	4.27
286.349	63.66
286.564	-12.12
286.779	143.53
286.995	69.8
287.21	-8.02
287.425	12.46
287.64	-53.08
287.855	51.37
288.07	8.36
288.285	86.19
288.5	-18.26
288.715	57.51
288.93	-12.12
289.145	45.23
289.36	77.99
289.575	43.18
289.79	102.57
290.004	61.61
290.219	127.14
290.434	96.43
290.649	63.66
290.864	53.42
291.079	8.36
291.294	57.51
291.509	-22.36
291.724	34.99
291.938	65.71
292.153	102.57
292.368	12.46
292.583	98.47
292.798	135.34
293.012	102.57
293.227	75.95
293.442	73.9
293.657	88.23
293.871	80.04
294.086	57.51
294.301	75.95
294.516	47.27
294.73	39.08
294.945	28.84
295.16	47.27
295.374	118.95
295.589	61.61
295.804	20.65
296.018	110.76
296.233	61.61
296.447	41.13
296.662	65.71
296.877	71.85
297.091	65.71
297.306	45.23
297.52	16.55
297.735	20.65
297.949	84.14
298.164	110.76
298.378	45.23
298.593	20.65
298.807	32.94
299.022	65.71
299.236	53.42
299.451	45.23
299.665	37.03
299.88	4.27
300.094	43.18
300.309	30.89
300.523	102.57
300.737	80.04
300.952	26.79
301.166	49.32
301.381	-5.97
301.595	133.29
301.809	102.57
302.024	39.08
302.238	-46.93
302.452	110.76
302.667	86.19
302.881	98.47
303.095	90.28
303.309	49.32
303.524	73.9
303.738	12.46
303.952	61.61
304.166	30.89
304.381	6.31
304.595	112.81
304.809	106.67
305.023	28.84
305.237	94.38
305.452	86.19
305.666	63.66
305.88	49.32
306.094	98.47
306.308	8.36
306.522	30.89
306.736	77.99
306.95	65.71
307.164	-10.07
307.379	55.47
307.593	92.33
307.807	71.85
308.021	110.76
308.235	77.99
308.449	16.55
308.663	88.23
308.877	159.91
309.091	73.9
309.305	112.81
309.519	16.55
309.733	77.99
309.947	-5.97
310.161	73.9
310.374	49.32
310.588	43.18
310.802	-14.17
311.016	65.71
311.23	49.32
311.444	18.6
311.658	139.43
311.872	45.23
312.085	32.94
312.299	118.95
312.513	53.42
312.727	73.9
312.941	-26.45
313.154	121
313.368	-8.02
313.582	45.23
313.796	63.66
314.009	26.79
314.223	112.81
314.437	110.76
314.651	69.8
314.864	-22.36
315.078	55.47
315.292	61.61
315.505	12.46
315.719	75.95
315.933	73.9
316.146	39.08
316.36	45.23
316.573	77.99
316.787	94.38
317.001	65.71
317.214	51.37
317.428	67.75
317.641	47.27
317.855	-28.5
318.068	-3.93
318.282	37.03
318.495	88.23
318.709	123.05
318.922	77.99
319.136	223.4
319.349	139.43
319.563	30.89
319.776	2.22
319.99	63.66
320.203	102.57
320.417	65.71
320.63	69.8
320.843	131.24
321.057	37.03
321.27	118.95
321.483	45.23
321.697	121
321.91	82.09
322.124	45.23
322.337	143.53
322.55	2.22
322.763	30.89
322.977	49.32
323.19	41.13
323.403	118.95
323.617	28.84
323.83	106.67
324.043	123.05
324.256	55.47
324.469	86.19
324.683	110.76
324.896	37.03
325.109	49.32
325.322	6.31
325.535	32.94
325.748	73.9
325.962	28.84
326.175	90.28
326.388	-1.88
326.601	90.28
326.814	22.7
327.027	53.42
327.24	139.43
327.453	-42.84
327.666	86.19
327.879	108.71
328.092	67.75
328.305	59.56
328.518	102.57
328.731	90.28
328.944	94.38
329.157	67.75
329.37	71.85
329.583	172.2
329.796	121
330.009	49.32
330.222	106.67
330.435	61.61
330.648	57.51
330.861	94.38
331.073	80.04
331.286	116.9
331.499	41.13
331.712	75.95
331.925	37.03
332.138	32.94
332.35	151.72
332.563	71.85
332.776	43.18
332.989	12.46
333.202	55.47
333.414	57.51
333.627	86.19
333.84	22.7
334.053	45.23
334.265	45.23
334.478	20.65
334.691	39.08
334.903	30.89
335.116	53.42
335.329	6.31
335.541	96.43
335.754	24.75
335.966	12.46
336.179	28.84
336.392	45.23
336.604	61.61
336.817	14.51
337.029	59.56
337.242	37.03
337.454	133.29
337.667	86.19
337.88	37.03
338.092	61.61
338.305	37.03
338.517	30.89
338.729	153.77
338.942	61.61
339.154	14.51
339.367	55.47
339.579	129.19
339.792	88.23
340.004	88.23
340.217	-16.21
340.429	88.23
340.641	-3.93
340.854	22.7
341.066	-1.88
341.278	118.95
341.491	174.25
341.703	45.23
341.915	32.94
342.128	57.51
342.34	102.57
342.552	14.51
342.764	-42.84
342.977	94.38
343.189	114.86
343.401	4.27
343.613	84.14
343.826	106.67
344.038	37.03
344.25	41.13
344.462	4.27
344.674	125.1
344.886	39.08
345.099	69.8
345.311	90.28
345.523	90.28
345.735	57.51
345.947	118.95
346.159	51.37
346.371	45.23
346.583	8.36
346.795	55.47
347.007	30.89
347.219	65.71
347.431	47.27
347.643	106.67
347.855	-10.07
348.067	102.57
348.279	12.46
348.491	69.8
348.703	112.81
348.915	61.61
349.127	114.86
349.339	45.23
349.551	47.27
349.763	65.71
349.975	-18.26
350.187	161.96
350.399	92.33
350.61	45.23
350.822	96.43
351.034	159.91
351.246	37.03
351.458	118.95
351.669	63.66
351.881	102.57
352.093	73.9
352.305	63.66
352.517	94.38
352.728	135.34
352.94	112.81
353.152	135.34
353.363	-12.12
353.575	137.38
353.787	80.04
353.999	-3.93
354.21	86.19
354.422	37.03
354.633	43.18
354.845	16.55
355.057	45.23
355.268	129.19
355.48	143.53
355.692	37.03
355.903	26.79
356.115	20.65
356.326	-1.88
356.538	114.86
356.749	94.38
356.961	121
357.172	88.23
357.384	26.79
357.595	96.43
357.807	67.75
358.018	47.27
358.23	125.1
358.441	123.05
358.653	135.34
358.864	118.95
359.075	82.09
359.287	22.7
359.498	96.43
359.709	16.55
359.921	53.42
360.132	116.9
360.344	135.34
360.555	26.79
360.766	104.62
360.977	118.95
361.189	104.62
361.4	16.55
361.611	123.05
361.823	77.99
362.034	39.08
362.245	53.42
362.456	82.09
362.667	28.84
362.879	96.43
363.09	61.61
363.301	127.14
363.512	28.84
363.723	55.47
363.935	77.99
364.146	63.66
364.357	116.9
364.568	73.9
364.779	12.46
364.99	55.47
365.201	102.57
365.412	102.57
365.623	69.8
365.834	49.32
366.045	41.13
366.256	71.85
366.467	37.03
366.678	77.99
366.889	16.55
367.1	92.33
367.311	127.14
367.522	110.76
367.733	161.96
367.944	153.77
368.155	106.67
368.366	69.8
368.577	82.09
368.788	110.76
368.999	37.03
369.209	84.14
369.42	129.19
369.631	92.33
369.842	65.71
370.053	100.52
370.264	94.38
370.474	37.03
370.685	127.14
370.896	108.71
371.107	116.9
371.317	69.8
371.528	92.33
371.739	102.57
371.95	71.85
372.16	63.66
372.371	30.89
372.582	53.42
372.792	114.86
373.003	61.61
373.214	121
373.424	77.99
373.635	65.71
373.846	116.9
374.056	75.95
374.267	125.1
374.477	86.19
374.688	69.8
374.898	69.8
375.109	121
375.319	80.04
375.53	153.77
375.74	110.76
375.951	69.8
376.161	129.19
376.372	73.9
376.582	86.19
376.793	53.42
377.003	28.84
377.214	16.55
377.424	86.19
377.635	102.57
377.845	51.37
378.055	118.95
378.266	96.43
378.476	135.34
378.686	71.85
378.897	65.71
379.107	90.28
379.317	147.62
379.528	77.99
379.738	86.19
379.948	49.32
380.158	37.03
380.369	26.79
380.579	143.53
380.789	6.31
380.999	129.19
381.21	166.06
381.42	217.26
381.63	96.43
381.84	129.19
382.05	86.19
382.261	147.62
382.471	114.86
382.681	37.03
382.891	57.51
383.101	123.05
383.311	16.55
383.521	102.57
383.731	127.14
383.941	127.14
384.151	28.84
384.361	73.9
384.571	102.57
384.781	77.99
384.991	147.62
385.201	82.09
385.411	80.04
385.621	116.9
385.831	53.42
386.041	22.7
386.251	57.51
386.461	53.42
386.671	43.18
386.881	80.04
387.091	55.47
387.301	53.42
387.511	153.77
387.72	65.71
387.93	71.85
388.14	45.23
388.35	84.14
388.56	127.14
388.769	86.19
388.979	77.99
389.189	86.19
389.399	75.95
389.609	94.38
389.818	61.61
390.028	164.01
390.238	86.19
390.447	43.18
390.657	92.33
390.867	24.75
391.076	61.61
391.286	123.05
391.496	80.04
391.705	104.62
391.915	110.76
392.125	114.86
392.334	80.04
392.544	137.38
392.753	157.86
392.963	94.38
393.172	178.34
393.382	127.14
393.591	104.62
393.801	129.19
394.01	145.58
394.22	168.1
394.429	110.76
394.639	123.05
394.848	186.54
395.058	121
395.267	63.66
395.477	161.96
395.686	186.54
395.895	137.38
396.105	121
396.314	143.53
396.524	77.99
396.733	149.67
396.942	147.62
397.152	155.82
397.361	143.53
397.57	75.95
397.78	61.61
397.989	159.91
398.198	118.95
398.407	71.85
398.617	176.3
398.826	200.87
399.035	127.14
399.244	190.63
399.453	200.87
399.663	151.72
399.872	110.76
400.081	159.91
400.29	186.54
400.499	155.82
400.708	164.01
400.917	172.2
401.127	159.91
401.336	180.39
401.545	268.45
401.754	155.82
401.963	192.68
402.172	235.69
402.381	200.87
402.59	135.34
402.799	168.1
403.008	315.56
403.217	161.96
403.426	321.7
403.635	235.69
403.844	250.02
404.053	164.01
404.262	241.83
404.471	272.55
404.68	233.64
404.888	233.64
405.097	290.98
405.306	266.41
405.515	192.68
405.724	215.21
405.933	266.41
406.142	313.51
406.35	311.46
406.559	266.41
406.768	301.22
406.977	372.9
407.185	278.69
407.394	325.8
407.603	260.26
407.812	284.84
408.02	358.57
408.229	315.56
408.438	393.38
408.646	352.42
408.855	399.52
409.064	389.28
409.272	399.52
409.481	450.72
409.69	407.72
409.898	444.58
410.107	442.53
410.315	487.59
410.524	524.45
410.733	495.78
410.941	538.79
411.15	598.18
411.358	585.89
411.567	604.32
411.775	680.1
411.984	637.09
412.192	708.77
412.401	780.45
412.609	684.19
412.818	692.38
413.026	680.1
413.234	759.97
413.443	852.13
413.651	809.12
413.86	891.04
414.068	915.61
414.276	995.48
414.485	919.71
414.693	1161.37
414.901	1073.31
415.11	1112.22
415.318	1077.4
415.526	1169.56
415.734	1243.29
415.943	1269.91
416.151	1319.06
416.359	1290.39
416.567	1306.77
416.776	1347.73
416.984	1476.76
417.192	1630.35
417.4	1577.11
417.608	1593.49
417.817	1570.96
418.025	1570.96
418.233	1822.86
418.441	1726.61
418.649	1896.59
418.857	2072.72
419.065	2017.42
419.273	2054.28
419.481	2097.29
419.689	2203.79
419.897	2381.96
420.105	2404.49
420.313	2396.29
420.521	2418.82
420.729	2515.08
420.937	2740.35
421.145	2797.7
421.353	2707.59
421.561	3008.64
421.769	2945.15
421.977	3149.95
422.185	3223.67
422.393	3373.18
422.601	3604.6
422.809	3575.92
423.017	3758.19
423.224	3733.62
423.432	3879.02
423.64	4020.33
423.848	4083.82
424.056	4233.32
424.263	4685.92
424.471	4501.61
424.679	4454.5
424.887	4825.19
425.094	4890.72
425.302	5181.53
425.51	5103.71
425.718	5306.46
425.925	5535.83
426.133	5560.41
426.341	5863.51
426.548	6053.97
426.756	5986.38
426.964	6201.42
427.171	6746.18
427.379	6500.42
427.586	6768.71
427.794	7229.5
428.001	7419.96
428.209	7710.77
428.417	7682.1
428.624	8228.91
428.832	7964.72
429.039	8114.22
429.247	8013.87
429.454	8900.64
429.662	9398.3
429.869	8779.81
430.076	9281.57
430.284	9209.89
430.491	9418.78
430.699	10080.27
430.906	9949.2
431.114	10147.86
431.321	10549.26
431.528	10770.44
431.736	11554.81
431.943	11802.61
432.15	11685.88
432.358	11663.35
432.565	12439.53
432.772	12242.93
432.979	13017.06
433.187	12963.81
433.394	13260.77
433.601	13998.04
433.808	14389.2
434.016	13965.27
434.223	14585.8
434.43	15722.43
434.637	15388.61
434.844	16109.49
435.052	16469.94
435.259	16586.67
435.466	16594.86
435.673	16359.35
435.88	17418.14
436.087	18515.86
436.294	18233.24
436.501	17997.72
436.708	18089.88
436.915	18925.45
437.122	19470.21
437.329	19607.42
437.537	20453.23
437.743	20682.61
437.95	20225.91
438.157	21432.16
438.364	22179.67
438.571	22161.24
438.778	22335.32
438.985	24397.62
439.192	23385.93
439.399	24049.47
439.606	23668.55
439.813	24991.53
440.02	26277.66
440.227	25966.37
440.433	25685.79
440.64	26697.49
440.847	26269.47
441.054	26863.38
441.261	28581.62
441.467	28323.58
441.674	28983.02
441.881	30260.96
442.088	29605.61
442.294	29464.3
442.501	29982.43
442.708	30940.88
442.914	32233.15
443.121	33715.88
443.328	32575.16
443.534	34797.21
443.741	33808.04
443.948	33298.09
444.154	35837.58
444.361	35489.42
444.568	35784.33
444.774	35681.93
444.981	36349.57
445.187	37060.21
445.394	38655.58
445.6	38370.91
445.807	41428.53
446.013	40119.88
446.22	40711.74
446.426	42427.94
446.633	42501.67
446.839	43806.22
447.046	42145.32
447.252	44596.74
447.459	44568.07
447.665	44688.9
447.871	46257.64
448.078	47990.22
448.284	46155.24
448.491	47144.41
448.697	48760.26
448.903	49931.7
449.11	49923.5
449.316	49327.55
449.522	49911.22
449.728	51275.16
449.935	52039.06
450.141	52059.54
450.347	53013.89
450.553	51228.06
450.76	51594.65
450.966	53265.79
451.172	52688.26
451.378	54328.69
451.584	53476.73
451.791	54377.84
451.997	54209.9
452.203	55295.33
452.409	55192.93
452.615	55158.11
452.821	52665.74
453.027	52141.46
453.233	55035.23
453.44	52675.97
453.646	53405.05
453.852	53419.39
454.058	54568.3
454.264	52176.27
454.47	54154.61
454.676	52936.07
454.882	54646.12
455.088	50159.02
455.294	50845.09
455.5	51821.97
455.705	51602.84
455.911	50032.05
456.117	49241.53
456.323	48717.25
456.529	45909.49
456.735	47732.18
456.941	46257.64
457.147	46032.36
457.352	44623.36
457.558	44250.63
457.764	44697.09
457.97	43447.83
458.176	42587.68
458.381	42642.98
458.587	40203.85
458.793	40382.02
458.999	38551.13
459.204	40990.27
459.41	40195.65
459.616	37805.67
459.821	37316.21
460.027	37531.25
460.233	36558.46
460.438	35100.31
460.644	34950.81
460.85	33892.01
461.055	33009.33
461.261	33093.3
461.466	30377.69
461.672	29128.43
461.878	31407.82
462.083	29689.57
462.289	29099.76
462.494	28563.19
462.7	27481.86
462.905	27023.12
463.111	27600.65
463.316	27473.67
463.522	27139.85
463.727	27029.26
463.932	27098.89
464.138	26392.34
464.343	27107.09
464.549	25968.41
464.754	26846.99
464.959	26640.15
465.165	26486.55
465.37	25136.94
465.575	24516.4
465.781	25546.53
465.986	25433.89
466.191	24805.17
466.397	24432.44
466.602	23129.93
466.807	23988.03
467.012	24037.18
467.218	24047.42
467.423	23598.91
467.628	23672.64
467.833	24778.54
468.038	23703.36
468.244	23179.08
468.449	23863.1
468.654	23078.73
468.859	22519.64
469.064	22726.48
469.269	22202.2
469.474	22093.66
469.679	22466.39
469.885	21911.39
470.09	22124.38
470.295	21778.27
470.5	21659.49
470.705	21770.08
470.91	20993.9
471.115	20928.36
471.32	21417.83
471.525	20918.12
471.73	20780.91
471.935	20526.96
472.139	19715.97
472.344	20260.73
472.549	19820.41
472.754	19937.15
472.959	19390.34
473.164	18567.06
473.369	18896.78
473.574	19384.19
473.778	19109.77
473.983	18925.45
474.188	18904.97
474.393	18315.16
474.598	18223
474.802	17878.94
475.007	18044.82
475.212	17903.51
475.417	17223.59
475.621	17235.88
475.826	17143.72
476.031	16965.54
476.235	16637.87
476.44	16871.34
476.645	16576.43
476.849	16385.97
477.054	16328.63
477.259	15896.5
477.463	16160.69
477.668	15605.69
477.872	15814.59
478.077	15546.3
478.282	15435.71
478.486	15290.31
478.691	15067.08
478.895	15108.04
479.1	14757.83
479.304	15167.43
479.509	14473.17
479.713	14809.03
479.918	14464.97
480.122	14299.09
480.326	14475.21
480.531	14702.54
480.735	14215.12
480.94	14235.6
481.144	14620.62
481.348	13918.17
481.553	14186.45
481.757	13826.01
481.961	13873.11
482.166	14389.2
482.37	13852.63
482.574	13721.56
482.778	13787.1
482.983	14055.38
483.187	13955.03
483.391	14125.01
483.595	13701.08
483.8	13561.82
484.004	13866.97
484.208	13971.41
484.412	13899.73
484.616	13938.65
484.821	13809.62
485.025	13807.58
485.229	13817.82
485.433	13627.35
485.637	13797.34
485.841	13676.51
486.045	13463.52
486.249	13828.06
486.453	13496.28
486.657	13688.79
486.861	13844.44
487.065	13430.75
487.269	13690.84
487.473	13357.02
487.677	13660.12
487.881	13842.39
488.085	13672.41
488.289	13823.96
488.493	13565.92
488.697	13897.69
488.901	13817.82
489.105	13834.2
489.309	13651.93
489.512	13844.44
489.716	13815.77
489.92	13940.69
490.124	13662.17
490.328	14112.72
490.531	13762.52
490.735	13998.04
490.939	13905.88
491.143	14057.43
491.346	13885.4
491.55	14088.15
491.754	14135.25
491.958	14514.13
492.161	14120.92
492.365	14139.35
492.569	14219.22
492.772	14030.8
492.976	14483.41
493.18	14684.11
493.383	14667.72
493.587	14852.04
493.79	15040.45
493.994	14849.99
494.197	14686.15
494.401	15048.65
494.605	14708.68
494.808	15124.42
495.012	15048.65
495.215	15112.13
495.419	15425.47
495.622	15402.94
495.825	15564.73
496.029	15577.02
496.232	15667.13
496.436	15708.09
496.639	16476.08
496.843	16392.11
497.046	16287.67
497.249	16795.56
497.453	16629.68
497.656	16998.31
497.859	16895.91
498.063	17026.98
498.266	17242.02
498.469	17297.31
498.673	17581.98
498.876	17584.03
499.079	17694.62
499.282	17846.17
499.485	18415.51
499.689	18399.12
499.892	18616.21
500.095	18585.49
500.298	18878.35
500.501	19091.34
500.705	19552.13
500.908	19627.9
501.111	19627.9
501.314	19881.85
501.517	20137.85
501.72	20410.23
501.923	19967.87
502.126	20623.22
502.329	20979.56
502.532	21137.26
502.735	21266.28
502.938	21786.46
503.141	21606.24
503.344	22159.19
503.547	22030.17
503.75	22533.97
503.953	22540.11
504.156	22671.18
504.359	23261
504.562	23236.42
504.765	23654.21
504.968	23938.88
505.17	24094.52
505.373	24250.17
505.576	24403.77
505.779	24907.57
505.982	24790.83
506.185	25462.57
506.387	25599.78
506.59	25560.87
506.793	26007.33
506.996	25966.37
507.198	26799.89
507.401	26658.58
507.604	27119.37
507.807	27307.79
508.009	27326.22
508.212	27449.1
508.415	28038.91
508.617	28225.28
508.82	28600.05
509.022	28323.58
509.225	29441.77
509.428	29232.88
509.63	29603.56
509.833	29585.13
510.035	30144.22
510.238	29859.56
510.44	30385.88
510.643	30967.51
510.845	31469.26
511.048	31061.71
511.25	31641.29
511.453	31784.65
511.655	32857.78
511.858	32714.42
512.06	32773.81
512.262	33060.53
512.465	33011.38
512.667	33814.18
512.87	34307.74
513.072	34324.13
513.274	34571.93
513.477	34911.89
513.679	34983.57
513.881	35540.62
514.084	35710.6
514.286	35841.67
514.488	35974.79
514.69	36943.48
514.893	36621.95
515.095	37031.54
515.297	37834.35
515.499	37682.8
515.701	37994.09
515.904	38231.65
516.106	38469.22
516.308	38831.71
516.51	39513.68
516.712	39503.44
516.914	40025.67
517.116	40375.87
517.318	40154.69
517.52	40351.3
517.722	40728.13
517.925	40982.07
518.127	41614.9
518.329	41817.64
518.531	41651.76
518.733	42653.22
518.935	42673.7
519.136	42651.17
519.338	43081.24
519.54	42896.92
519.742	43849.23
519.944	43826.7
520.146	44328.45
520.348	44670.47
520.55	44860.93
520.752	44879.36
520.954	45659.63
521.155	45053.44
521.357	45796.85
521.559	45946.35
521.761	46509.54
521.963	46327.27
522.164	46708.19
522.366	46876.13
522.568	47261.15
522.77	47191.51
522.971	47791.57
523.173	47842.77
523.375	48111.05
523.576	47607.25
523.778	48096.72
523.98	48700.87
524.181	48586.18
524.383	48475.59
524.584	49397.18
524.786	49227.2
524.988	48952.77
525.189	49509.82
525.391	49550.77
525.592	49796.53
525.794	49890.74
525.995	49851.83
526.197	50054.57
526.398	50226.6
526.6	50617.77
526.801	50316.71
527.003	50478.5
527.204	50816.42
527.406	51250.59
527.607	50879.91
527.808	51457.43
528.01	50757.03
528.211	51215.77
528.412	51803.54
528.614	51441.05
528.815	51164.57
529.016	51971.47
529.218	51193.25
529.419	51561.88
529.62	51545.5
529.822	51201.44
530.023	51387.8
530.224	51662.23
530.425	51445.15
530.626	51017.12
530.828	51082.66
531.029	52028.82
531.23	51148.19
531.431	51350.94
531.632	51336.6
531.833	51688.85
532.035	51328.41
532.236	51885.46
532.437	51549.59
532.638	51232.16
532.839	51627.41
533.04	51758.48
533.241	51258.78
533.442	51791.25
533.643	51791.25
533.844	51264.92
534.045	51797.4
534.246	51277.21
534.447	51242.4
534.648	51084.7
534.849	51545.5
535.05	51385.75
535.251	51223.97
535.451	50857.38
535.652	51279.26
535.853	51066.27
536.054	50957.73
536.255	51178.91
536.456	51037.6
536.657	51439
536.857	51258.78
537.058	50415.02
537.259	51297.69
537.46	51291.55
537.66	50816.42
537.861	50496.94
538.062	50585
538.263	51185.05
538.463	50630.05
538.664	50316.71
538.865	50675.11
539.065	50955.68
539.266	50017.71
539.466	50795.94
539.667	50009.52
539.868	51019.17
540.068	50251.18
540.269	50560.42
540.469	50595.24
540.67	49986.99
540.87	50144.69
541.071	49946.03
541.271	50113.97
541.472	50320.81
541.672	49894.83
541.873	50167.21
542.073	49401.27
542.274	50281.9
542.474	49757.62
542.675	49665.46
542.875	50511.27
543.075	49694.13
543.276	49438.14
543.476	50507.18
543.676	50066.86
543.877	50011.57
544.077	50103.73
544.277	49655.22
544.478	49313.21
544.678	49884.59
544.878	49927.6
545.078	49276.35
545.279	49497.53
545.479	49397.18
545.679	49800.63
545.879	49909.17
546.079	50150.83
546.28	49550.77
546.48	49305.02
546.68	50140.59
546.88	49800.63
547.08	49726.9
547.28	49601.97
547.48	49042.88
547.68	49524.15
547.88	49300.92
548.081	49786.29
548.281	49501.62
548.481	49837.49
548.681	49788.34
548.881	49604.02
549.081	49642.93
549.28	49202.62
549.48	49677.75
549.68	49749.43
549.88	50048.43
550.08	49509.82
550.28	49374.65
550.48	49513.91
550.68	49616.31
550.88	49513.91
551.08	49497.53
551.279	49604.02
551.479	49325.5
551.679	49229.24
551.879	49286.59
552.079	49679.8
552.278	49358.27
552.478	49929.65
552.678	49690.04
552.878	49614.26
553.077	49847.73
553.277	48930.24
553.477	49814.96
553.676	49675.7
553.876	49855.92
554.076	49601.97
554.275	49366.46
554.475	49147.32
554.674	49411.51
554.874	49751.48
555.074	49583.54
555.273	49599.93
555.473	49821.11
555.672	49317.31
555.872	49505.72
556.071	50021.81
556.271	49413.56
556.47	49204.67
556.67	49460.66
556.869	49718.71
557.068	49595.83
557.268	49401.27
557.467	49634.74
557.667	49421.75
557.866	49679.8
558.065	49511.86
558.265	49522.1
558.464	49604.02
558.663	49667.51
558.863	48645.57
559.062	49669.56
559.261	49515.96
559.461	49468.86
559.66	49092.03
559.859	49071.55
560.058	49149.37
560.258	49077.69
560.457	49102.27
560.656	49501.62
560.855	49124.8
561.054	49382.84
561.253	48577.99
561.453	49380.79
561.652	49528.25
561.851	49857.97
562.05	48958.91
562.249	49202.62
562.448	49436.09
562.647	49104.32
562.846	48793.03
563.045	49051.07
563.244	48844.23
563.443	49446.33
563.642	48842.18
563.841	48737.73
564.04	48496.07
564.239	49128.89
564.438	48776.64
564.637	48967.1
564.836	48899.52
565.035	48137.68
565.234	48514.5
565.432	48580.04
565.631	48373.19
565.83	48655.81
566.029	48401.86
566.228	48160.2
566.427	48229.83
566.625	48367.05
566.824	47400.41
567.023	48338.38
567.222	47746.51
567.42	48149.96
567.619	48053.71
567.818	47859.15
568.016	47568.34
568.215	48715.2
568.414	47494.61
568.612	48031.18
568.811	47736.27
569.01	47640.02
569.208	47054.3
569.407	47560.15
569.605	46829.02
569.804	47431.13
570.002	46765.54
570.201	47263.19
570.4	46646.75
570.598	46847.46
570.797	46700
570.995	47123.93
571.193	46515.68
571.392	46700
571.59	45774.32
571.789	46341.61
571.987	46265.83
572.186	46020.08
572.384	45891.05
572.582	46290.41
572.781	46122.47
572.979	45327.86
573.177	45835.76
573.376	46265.83
573.574	45579.76
573.772	45725.17
573.971	45565.43
574.169	45051.39
574.367	45174.27
574.565	45383.16
574.763	44871.17
574.962	45336.05
575.16	44506.63
575.358	44475.91
575.556	44219.91
575.754	44996.09
575.952	44254.73
576.151	44551.68
576.349	44092.94
576.547	43814.41
576.745	44287.49
576.943	44047.88
577.141	44525.06
577.339	43951.63
577.537	43640.34
577.735	43767.31
577.933	43298.33
578.131	43812.37
578.329	43058.71
578.527	43208.22
578.725	43210.26
578.923	43228.7
579.121	43085.34
579.319	42739.23
579.516	43140.63
579.714	42952.22
579.912	42284.58
580.11	42415.65
580.308	42403.36
580.506	42405.41
580.704	41676.33
580.901	42163.75
581.099	42419.75
581.297	41649.71
581.495	42075.69
581.692	41864.75
581.89	41877.04
582.088	41489.97
582.285	41561.65
582.483	41979.43
582.681	41453.11
582.878	41494.07
583.076	41084.47
583.274	41477.68
583.471	40736.32
583.669	41082.42
583.866	40697.41
584.064	41076.28
584.262	40310.34
584.459	40468.03
584.657	40410.69
584.854	40447.55
585.052	39902.79
585.249	39986.76
585.447	40322.63
585.644	39427.67
585.841	40234.56
586.039	40281.67
586.236	39343.7
586.434	39755.34
586.631	39657.04
586.828	39657.04
587.026	39796.3
587.223	39130.71
587.42	38985.3
587.618	39605.84
587.815	39009.88
588.012	38725.21
588.21	38987.35
588.407	39186
588.604	38405.73
588.801	38370.91
588.999	38354.53
589.196	38270.56
589.393	38430.3
589.59	38299.23
589.787	38258.27
589.984	37928.55
590.182	37717.61
590.379	37924.46
590.576	37781.1
590.773	38121.06
590.97	37510.77
591.167	37955.18
591.364	37174.9
591.561	37500.53
591.758	37191.28
591.955	37287.54
592.152	37348.98
592.349	37258.87
592.546	37117.56
592.743	37013.11
592.94	36515.45
593.137	37002.87
593.334	36869.75
593.531	36368
593.727	36748.92
593.924	36617.85
594.121	36275.84
594.318	36574.84
594.515	36030.08
594.712	36669.05
594.908	36222.59
595.105	36071.04
595.302	35733.13
595.499	36187.78
595.696	35886.73
595.892	35759.75
596.089	36025.99
596.286	35989.13
596.482	35458.7
596.679	35700.36
596.876	36036.23
597.072	35653.26
597.269	35581.58
597.466	35006.1
597.662	35124.88
597.859	35247.76
598.055	35630.73
598.252	35260.05
598.448	35243.66
598.645	35075.73
598.841	35022.48
599.038	34961.05
599.234	34698.91
599.431	34733.72
599.627	35038.87
599.824	34860.69
600.02	34922.13
600.217	34948.76
600.413	34571.93
600.609	34356.89
600.806	34373.28
601.002	34391.71
601.198	34457.24
601.395	34219.68
601.591	34287.26
601.787	34434.72
601.984	34184.87
602.18	34688.67
602.376	34182.82
602.572	34137.76
602.769	34193.06
602.965	33842.85
603.161	34262.69
603.357	33748.65
603.553	33939.11
603.75	33828.52
603.946	33697.45
604.142	33732.26
604.338	33388.21
604.534	33732.26
604.73	33625.77
604.926	33910.44
605.122	33765.03
605.318	33337.01
605.514	33724.07
605.71	33355.44
605.906	33674.92
606.102	33472.17
606.298	33849
606.494	33599.15
606.69	33277.61
606.886	34127.52
607.082	33461.93
607.278	33433.26
607.474	33371.82
607.67	33558.19
607.866	33263.28
608.062	33337.01
608.257	33250.99
608.453	33410.73
608.649	33564.33
608.845	32773.81
609.041	33134.26
609.236	33644.2
609.432	33672.87
609.628	33787.56
609.824	33222.32
610.019	33261.23
610.215	33361.58
610.411	33478.32
610.606	33244.85
610.802	33599.15
610.998	33298.09
611.193	33308.33
611.389	33169.07
611.584	33140.4
611.78	33031.86
611.976	33164.98
612.171	33093.3
612.367	33181.36
612.562	33124.02
612.758	32743.1
612.953	33136.31
613.149	33283.76
613.344	33207.98
613.539	33277.61
613.735	33226.42
613.93	33404.59
614.126	33193.65
614.321	33222.32
614.517	33064.63
614.712	33044.15
614.907	32769.72
615.103	33152.69
615.298	33111.73
615.493	33412.78
615.688	32532.15
615.884	33404.59
616.079	32718.52
616.274	32956.08
616.47	33244.85
616.665	32997.04
616.86	32646.84
617.055	32634.55
617.25	32704.18
617.445	32958.13
617.641	32097.98
617.836	32517.82
618.031	32087.75
618.226	32808.63
618.421	32276.16
618.616	32990.9
618.811	31827.65
619.006	32554.68
619.201	31876.8
619.396	32407.23
619.591	31579.85
619.786	32050.88
619.981	31473.35
620.176	32005.83
620.371	31401.68
620.566	31397.58
620.761	31684.3
620.956	31688.39
621.151	31135.44
621.346	31338.19
621.541	30709.46
621.735	30877.4
621.93	30611.16
622.125	30959.31
622.32	30170.85
622.515	30328.54
622.709	30299.87
622.904	29968.1
623.099	30287.58
623.294	30123.74
623.488	29603.56
623.683	29740.77
623.878	29230.83
624.072	29144.81
624.267	28972.78
624.462	28989.17
624.656	28720.88
624.851	28794.61
625.046	28733.17
625.24	28387.07
625.435	28126.97
625.629	28313.34
625.824	27776.77
626.018	28032.77
626.213	27645.7
626.407	27776.77
626.602	27531.01
626.796	27655.94
626.991	27313.93
627.185	27225.87
627.38	27039.5
627.574	27006.73
627.768	26660.63
627.963	26810.13
628.157	26404.63
628.352	26498.84
628.546	26074.91
628.74	26386.2
628.935	25937.69
629.129	25921.31
629.323	25636.64
629.517	25708.32
629.712	25839.39
629.906	25462.57
630.1	24901.42
630.294	25474.85
630.489	25268.01
630.683	25042.73
630.877	24735.54
631.071	24581.94
631.265	24932.14
631.459	24547.12
631.653	24377.14
631.848	24313.66
632.042	24108.86
632.236	24047.42
632.43	24024.89
632.624	23961.41
632.818	23478.08
633.012	23396.17
633.206	23514.95
633.4	23316.29
633.594	23347.01
633.788	23037.77
633.982	23058.25
634.176	22947.66
634.369	22587.22
634.563	22722.38
634.757	22302.55
634.951	22605.65
635.145	22554.45
635.339	22073.18
635.533	22198.1
635.726	22157.14
635.92	21929.82
636.114	21827.42
636.308	21514.08
636.501	22034.27
636.695	21616.48
636.889	21256.04
637.083	21198.7
637.276	21172.07
637.47	21106.54
637.664	21059.43
637.857	20932.46
638.051	20549.49
638.244	20551.54
638.438	20639.6
638.632	20375.41
638.825	20178.81
639.019	20002.68
639.212	19904.38
639.406	19865.47
639.599	20197.24
639.793	19746.69
639.986	19386.24
640.18	19539.84
640.373	19543.94
640.567	19343.24
640.76	19265.41
640.954	18941.83
641.147	19013.51
641.34	18747.28
641.534	18771.85
641.727	18864.01
641.92	18421.65
642.114	18364.31
642.307	18356.11
642.5	18565.01
642.694	17835.93
642.887	17885.08
643.08	18110.36
643.273	17858.46
643.467	17807.26
643.66	17395.62
643.853	17555.36
644.046	17242.02
644.239	17352.61
644.432	17045.41
644.626	17045.41
644.819	17115.05
645.012	16885.67
645.205	17043.37
645.398	16770.99
645.591	16881.58
645.784	16572.33
645.977	16418.74
646.17	16455.6
646.363	16195.51
646.556	16392.11
646.749	16119.73
646.942	16336.82
647.135	15765.43
647.328	15724.47
647.521	15839.16
647.714	15605.69
647.907	15851.45
648.099	15785.91
648.292	15441.86
648.485	15314.88
648.678	15296.45
648.871	15022.02
649.064	15044.55
649.256	15089.6
649.449	15216.58
649.642	14841.8
649.835	14671.82
650.027	14831.56
650.22	14657.48
650.413	14481.36
650.605	14458.83
650.798	14407.63
650.991	14260.18
651.183	14378.96
651.376	14061.52
651.568	14041.04
651.761	14114.77
651.954	13965.27
652.146	13823.96
652.339	13809.62
652.531	13721.56
652.724	13787.1
652.916	13512.67
653.109	13506.52
653.301	13187.04
653.494	13647.83
653.686	13201.38
653.879	13225.95
654.071	13041.64
654.263	13012.96
654.456	13184.99
654.648	12742.63
654.84	12601.32
655.033	12824.55
655.225	12562.41
655.417	12673
655.61	12713.96
655.802	12650.47
655.994	12486.64
656.186	12550.12
656.379	12308.46
656.571	12374
656.763	12382.19
656.955	12132.34
657.148	12314.61
657.34	11999.22
657.532	11917.3
657.724	11894.77
657.916	11966.45
658.108	11786.23
658.3	11751.42
658.492	11757.56
658.684	11433.98
658.876	11630.59
659.068	11380.73
659.26	11333.63
659.452	11378.69
659.644	11433.98
659.836	11186.18
660.028	11180.03
660.22	11161.6
660.412	11194.37
660.604	11067.39
660.796	10965
660.988	10973.19
661.18	10776.58
661.372	10739.72
661.563	10764.29
661.755	10606.6
661.947	10641.42
662.139	10385.42
662.331	10403.85
662.522	10428.43
662.714	10381.32
662.906	10350.6
663.097	10440.72
663.289	10201.1
663.481	10033.17
663.673	10164.24
663.864	9992.21
664.056	9965.59
664.247	9801.75
664.439	9631.77
664.631	9732.12
664.822	9773.08
665.014	9633.82
665.205	9682.97
665.397	9582.62
665.588	9609.24
665.78	9531.42
665.971	9433.11
666.163	9418.78
666.354	9402.4
666.546	9416.73
666.737	9302.04
666.929	9306.14
667.12	9254.94
667.311	9158.69
667.503	9078.82
667.694	9109.54
667.885	8978.47
668.077	9087.01
668.268	8857.64
668.459	9039.9
668.651	8894.5
668.842	8742.95
669.033	8716.33
669.224	8773.67
669.416	8679.46
669.607	8554.54
669.798	8556.58
669.989	8695.85
670.18	8689.7
670.371	8370.22
670.563	8417.32
670.754	8339.5
670.945	8372.27
671.136	8400.94
671.327	8351.79
671.518	8261.68
671.709	8208.43
671.9	8290.35
672.091	8171.57
672.282	8310.83
672.473	8093.74
672.664	8114.22
672.855	7761.97
673.046	7921.71
673.237	8138.8
673.428	8022.06
673.619	7854.13
673.809	7856.18
674	7753.78
674.191	7852.08
674.382	7880.75
674.573	7921.71
674.764	7847.99
674.954	7936.05
675.145	7661.62
675.336	7704.63
675.527	7731.25
675.717	7680.05
675.908	7534.65
676.099	7718.96
676.289	7635
676.48	7665.72
676.671	7442.49
676.861	7579.7
677.052	7442.49
677.243	7409.72
677.433	7215.16
677.624	7415.87
677.814	7356.47
678.005	7589.94
678.195	7389.24
678.386	7344.19
678.576	7352.38
678.767	7417.91
678.957	7387.19
679.148	7389.24
679.338	7157.82
679.529	7159.87
679.719	7043.14
679.909	7299.13
680.1	7200.83
680.29	7118.91
680.481	7000.13
680.671	7147.58
680.861	7153.73
681.052	7202.88
681.242	7004.22
681.432	7024.7
681.622	6918.21
681.813	7053.38
682.003	6887.49
682.193	6877.25
682.383	6889.54
682.573	6897.73
682.764	6942.78
682.954	6967.36
683.144	6844.48
683.334	6918.21
683.524	6809.67
683.714	6805.57
683.904	6821.95
684.094	6813.76
684.284	6889.54
684.474	6754.37
684.664	6858.82
684.854	6701.12
685.044	6746.18
685.234	6705.22
685.424	6641.73
685.614	6658.12
685.804	6635.59
685.994	6672.45
686.184	6594.63
686.374	6490.18
686.564	6531.14
686.753	6570.05
686.943	6701.12
687.133	6385.74
687.323	6395.98
687.513	6541.38
687.702	6299.72
687.892	6250.57
688.082	6344.78
688.272	6256.72
688.461	6512.71
688.651	6275.15
688.841	6492.23
689.03	6275.15
689.22	6090.83
689.41	6236.24
689.599	6189.13
689.789	6271.05
689.979	6172.75
690.168	6107.21
690.358	6180.94
690.547	5945.42
690.737	5947.47
690.926	6056.01
691.116	5795.92
691.305	6111.31
691.495	6006.86
691.684	5900.37
691.874	5810.26
692.063	5881.94
692.252	5900.37
692.442	5873.75
692.631	5767.25
692.82	5697.62
693.01	5763.15
693.199	5689.43
693.388	5699.67
693.578	5636.18
693.767	5777.49
693.956	5840.98
694.146	5673.04
694.335	5589.08
694.524	5566.55
694.713	5595.22
694.902	5621.84
695.092	5566.55
695.281	5480.54
695.47	5476.44
695.659	5376.09
695.848	5437.53
696.037	5410.9
696.226	5275.74
696.415	5443.67
696.604	5570.65
696.793	5341.27
696.982	5404.76
697.171	5320.79
697.36	5353.56
697.549	5267.55
697.738	5281.88
697.927	5294.17
698.116	5382.23
698.305	5263.45
698.494	5109.85
698.683	5304.41
698.872	5181.53
699.061	5128.28
699.25	5060.7
699.438	5042.27
699.627	5019.74
699.816	5109.85
700.005	5011.55
700.193	5027.93
700.382	4903.01
700.571	4935.78
700.76	5052.51
700.948	4960.35
701.137	4954.21
701.326	4997.21
701.514	4931.68
701.703	5044.32
701.892	4847.71
702.08	4917.34
702.269	4751.46
702.457	4915.3
702.646	4900.96
702.834	4722.79
703.023	4806.75
703.212	4812.9
703.4	4724.83
703.589	4776.03
703.777	4653.16
703.965	4601.96
704.154	4755.55
704.342	4522.09
704.531	4780.13
704.719	4604
704.907	4685.92
705.096	4661.35
705.284	4696.16
705.472	4542.57
705.661	4616.29
705.849	4624.48
706.037	4665.44
706.226	4550.76
706.414	4470.89
706.602	4493.41
706.79	4485.22
706.979	4522.09
707.167	4429.93
707.355	4401.26
707.543	4507.75
707.731	4464.74
707.919	4319.34
708.107	4399.21
708.296	4348.01
708.484	4247.66
708.672	4333.67
708.86	4270.19
709.048	4302.95
709.236	4339.82
709.424	4227.18
709.612	4427.88
709.8	4225.13
709.988	4266.09
710.176	4305
710.364	4167.79
710.551	4206.7
710.739	4055.15
710.927	4067.44
711.115	4173.93
711.303	4100.2
711.491	4167.79
711.679	4165.74
711.866	4059.24
712.054	4087.92
712.242	4001.9
712.43	4157.55
712.617	4020.33
712.805	4001.9
712.993	4044.91
713.181	3936.37
713.368	3930.22
713.556	3995.76
713.744	3870.83
713.931	4001.9
714.119	3958.89
714.306	4042.86
714.494	3823.73
714.682	3719.28
714.869	3948.65
715.057	3819.63
715.244	3788.91
715.432	3907.7
715.619	3870.83
715.807	3850.35
715.994	3764.34
716.182	3758.19
716.369	3809.39
716.556	3807.34
716.744	3889.26
716.931	3666.03
717.119	3776.63
717.306	3717.23
717.493	3661.94
717.681	3717.23
717.868	3682.42
718.055	3762.29
718.242	3655.79
718.43	3659.89
718.617	3602.55
718.804	3723.38
718.991	3690.61
719.179	3600.5
719.366	3487.86
719.553	3668.08
719.74	3571.83
719.927	3571.83
720.114	3494.01
720.301	3500.15
720.488	3465.33
720.676	3485.81
720.863	3553.4
721.05	3674.23
721.237	3448.95
721.424	3412.09
721.611	3502.2
721.798	3420.28
721.985	3407.99
722.172	3387.51
722.358	3266.68
722.545	3412.09
722.732	3346.55
722.919	3381.37
723.106	3444.85
723.293	3285.11
723.48	3223.67
723.667	3289.21
723.853	3346.55
724.04	3391.61
724.227	3358.84
724.414	3242.11
724.6	3268.73
724.787	3362.94
724.974	3444.85
725.161	3319.93
725.347	3076.22
725.534	3346.55
725.72	3207.29
725.907	3240.06
726.094	3258.49
726.28	3125.37
726.467	3125.37
726.653	3129.47
726.84	3207.29
727.027	3195
727.213	3104.89
727.4	3170.43
727.586	3260.54
727.773	3115.13
727.959	3141.75
728.145	3182.71
728.332	3100.8
728.518	3053.69
728.705	3045.5
728.891	3027.07
729.077	3045.5
729.264	3170.43
729.45	2996.35
729.636	2975.87
729.823	2990.21
730.009	2977.92
730.195	3035.26
730.382	3051.64
730.568	2973.82
730.754	2965.63
730.94	3047.55
731.126	3004.54
731.313	2920.57
731.499	2975.87
731.685	2945.15
731.871	2830.46
732.057	3043.45
732.243	2785.41
732.429	2969.73
732.615	3012.73
732.801	2971.77
732.987	2879.61
733.173	2855.04
733.359	2861.18
733.545	2824.32
733.731	2914.43
733.917	2883.71
734.103	2889.85
734.289	2912.38
734.475	2699.39
734.661	2846.85
734.847	2732.16
735.033	2746.5
735.219	2822.27
735.404	2873.47
735.59	2822.27
735.776	2666.63
735.962	2779.26
736.148	2789.5
736.333	2648.19
736.519	2838.66
736.705	2685.06
736.89	2769.02
737.076	2701.44
737.262	2564.23
737.447	2848.9
737.633	2715.78
737.819	2748.54
738.004	2652.29
738.19	2576.52
738.375	2672.77
738.561	2650.24
738.747	2601.09
738.932	2474.12
739.118	2723.97
739.303	2680.96
739.489	2601.09
739.674	2603.14
739.859	2447.49
740.045	2736.26
740.23	2551.94
740.416	2510.98
740.601	2496.64
740.786	2498.69
740.972	2519.17
741.157	2437.25
741.342	2429.06
741.528	2535.56
741.713	2513.03
741.898	2408.58
742.084	2429.06
742.269	2453.64
742.454	2410.63
742.639	2398.34
742.824	2297.99
743.01	2539.65
743.195	2453.64
743.38	2259.08
743.565	2416.77
743.75	2306.18
743.935	2343.05
744.12	2379.91
744.305	2330.76
744.49	2338.95
744.675	2300.04
744.86	2314.38
745.045	2291.85
745.23	2234.5
745.415	2191.5
745.6	2281.61
745.785	2285.7
745.97	2248.84
746.155	2142.35
746.34	2234.5
746.525	2136.2
746.71	2236.55
746.895	2140.3
747.079	2181.26
747.264	2173.07
747.449	2025.61
747.634	2089.1
747.819	2021.52
748.003	2048.14
748.188	2011.28
748.373	2168.97
748.557	1902.73
748.742	2060.43
748.927	2082.95
749.111	2101.39
749.296	1945.74
749.481	1990.8
749.665	1904.78
749.85	1943.69
750.034	2027.66
750.219	1931.41
750.404	2021.52
750.588	1890.45
750.773	1824.91
750.957	1884.3
751.141	1814.67
751.326	1792.14
751.51	1859.73
751.695	1814.67
751.879	1753.23
752.064	1824.91
752.248	1749.14
752.432	1835.15
752.617	1792.14
752.801	1759.38
752.985	1704.08
753.17	1720.46
753.354	1679.51
753.538	1673.36
753.722	1695.89
753.907	1644.69
754.091	1583.25
754.275	1661.07
754.459	1702.03
754.643	1626.26
754.828	1568.91
755.012	1671.31
755.196	1515.67
755.38	1595.54
755.564	1546.39
755.748	1466.52
755.932	1618.07
756.116	1505.43
756.3	1495.19
756.484	1497.24
756.668	1448.08
756.852	1435.8
757.036	1579.15
757.22	1478.8
757.404	1517.72
757.588	1478.8
757.772	1519.76
757.956	1503.38
758.14	1380.5
758.323	1284.25
758.507	1314.97
758.691	1429.65
758.875	1468.56
759.059	1355.93
759.242	1282.2
759.426	1394.84
759.61	1308.82
759.794	1347.73
759.977	1278.1
760.161	1396.89
760.345	1396.89
760.528	1314.97
760.712	1292.44
760.895	1288.34
761.079	1288.34
761.263	1204.38
761.446	1269.91
761.63	1214.62
761.813	1267.86
761.997	1259.67
762.18	1306.77
762.364	1298.58
762.547	1177.75
762.731	1183.9
762.914	1155.23
763.098	1155.23
763.281	1144.99
763.464	1177.75
763.648	1212.57
763.831	1228.95
764.015	1159.32
764.198	1235.1
764.381	1142.94
764.564	1235.1
764.748	1165.46
764.931	1224.86
765.114	1167.51
765.297	1159.32
765.481	1061.02
765.664	1063.07
765.847	1134.75
766.03	1134.75
766.213	1200.28
766.397	1147.03
766.58	1171.61
766.763	1128.6
766.946	1028.25
767.129	1126.55
767.312	1032.35
767.495	1089.69
767.678	1179.8
767.861	1128.6
768.044	1106.07
768.227	1077.4
768.41	1024.16
768.593	1085.59
768.776	1083.55
768.959	1085.59
769.142	1126.55
769.324	1022.11
769.507	1054.87
769.69	1093.79
769.873	1126.55
770.056	1071.26
770.239	991.39
770.421	1020.06
770.604	1038.49
770.787	1022.11
770.97	1011.87
771.152	1056.92
771.335	1020.06
771.518	913.56
771.7	966.81
771.883	1011.87
772.066	981.15
772.248	919.71
772.431	872.61
772.613	1001.63
772.796	962.72
772.978	946.33
773.161	1020.06
773.343	948.38
773.526	936.09
773.708	868.51
773.891	895.13
774.073	825.5
774.256	946.33
774.438	944.28
774.621	850.08
774.803	956.57
774.985	848.03
775.168	921.76
775.35	874.65
775.532	891.04
775.715	815.26
775.897	856.22
776.079	856.22
776.261	954.52
776.444	897.18
776.626	786.59
776.808	794.78
776.99	807.07
777.173	735.39
777.355	815.26
777.537	741.54
777.719	858.27
777.901	821.41
778.083	798.88
778.265	704.67
778.447	743.58
778.629	749.73
778.811	700.58
778.993	690.34
779.175	757.92
779.357	708.77
779.539	759.97
779.721	735.39
779.903	655.52
780.085	704.67
780.267	727.2
780.449	682.14
780.631	635.04
780.812	778.4
780.994	684.19
781.176	671.9
781.358	684.19
781.54	659.62
781.721	782.49
781.903	690.34
782.085	594.08
782.267	667.81
782.448	581.79
782.63	676
782.812	741.54
782.993	741.54
783.175	612.51
783.357	655.52
783.538	612.51
783.72	544.93
783.901	643.23
784.083	573.6
784.264	614.56
784.446	538.79
784.627	526.5
784.809	661.66
784.99	563.36
785.172	526.5
785.353	561.31
785.535	608.42
785.716	573.6
785.897	454.82
786.079	622.75
786.26	469.16
786.441	555.17
786.623	446.63
786.804	528.55
786.985	506.02
787.167	626.85
787.348	413.86
787.529	528.55
787.71	479.4
787.891	450.72
788.073	403.62
788.254	450.72
788.435	520.35
788.616	405.67
788.797	481.44
788.978	432.29
789.159	407.72
789.34	458.92
789.522	491.68
789.703	522.4
789.884	452.77
790.065	456.87
790.246	479.4
790.427	463.01
790.607	497.83
790.788	448.68
790.969	413.86
791.15	448.68
791.331	442.53
791.512	438.44
791.693	377
791.874	471.2
792.054	438.44
792.235	491.68
792.416	407.72
792.597	426.15
792.778	483.49
792.958	456.87
793.139	417.96
793.32	374.95
793.5	399.52
793.681	446.63
793.862	389.28
794.042	307.37
794.223	299.17
794.404	403.62
794.584	311.46
794.765	370.85
794.945	385.19
795.126	381.09
795.306	385.19
795.487	333.99
795.667	377
795.848	340.13
796.028	389.28
796.209	342.18
796.389	399.52
796.57	377
796.75	336.04
796.93	381.09
797.111	389.28
797.291	276.65
797.471	319.65
797.652	319.65
797.832	325.8
798.012	405.67
798.192	245.93
798.373	331.94
798.553	235.69
798.733	309.41
798.913	315.56
799.093	354.47
799.274	391.33
799.454	303.27
799.634	342.18
799.814	356.52
799.994	319.65
800.174	260.26
800.354	278.69
800.534	221.35
800.714	336.04
800.894	262.31
801.074	295.08
801.254	262.31
801.434	299.17
801.614	282.79
801.794	319.65
801.974	774.3
802.154	295.08
802.334	250.02
802.514	293.03
802.693	219.3
802.873	221.35
803.053	307.37
803.233	315.56
803.413	331.94
803.592	305.32
803.772	295.08
803.952	243.88
804.131	225.45
804.311	250.02
804.491	235.69
804.67	258.21
804.85	143.53
805.03	338.09
805.209	286.89
805.389	229.54
805.568	305.32
805.748	276.65
805.928	270.5
806.107	262.31
806.287	301.22
806.466	266.41
806.646	219.3
806.825	315.56
807.004	209.06
807.184	286.89
807.363	274.6
807.543	293.03
807.722	221.35
807.901	307.37
808.081	243.88
808.26	233.64
808.439	217.26
808.619	196.78
808.798	161.96
808.977	268.45
809.156	237.74
809.336	262.31
809.515	239.78
809.694	219.3
809.873	184.49
810.052	192.68
810.231	266.41
810.411	252.07
810.59	260.26
810.769	184.49
810.948	266.41
811.127	137.38
811.306	217.26
811.485	172.2
811.664	250.02
811.843	200.87
812.022	211.11
812.201	223.4
812.38	258.21
812.559	280.74
812.737	135.34
812.916	182.44
813.095	172.2
813.274	108.71
813.453	184.49
813.632	196.78
813.811	227.5
813.989	137.38
814.168	131.24
814.347	129.19
814.526	168.1
814.704	217.26
814.883	243.88
815.062	186.54
815.24	178.34
815.419	131.24
815.598	102.57
815.776	164.01
815.955	155.82
816.133	202.92
816.312	143.53
816.49	200.87
816.669	204.97
816.847	168.1
817.026	209.06
817.204	194.73
817.383	153.77
817.561	45.23
817.74	106.67
817.918	168.1
818.097	168.1
818.275	180.39
818.453	227.5
818.632	192.68
818.81	145.58
818.988	233.64
819.167	151.72
819.345	219.3
819.523	88.23
819.701	141.48
819.879	127.14
820.058	139.43
820.236	200.87
820.414	184.49
820.592	104.62
820.77	137.38
820.948	243.88
821.127	161.96
821.305	102.57
821.483	94.38
821.661	121
821.839	172.2
822.017	96.43
822.195	82.09
822.373	137.38
822.551	180.39
822.729	250.02
822.907	143.53
823.085	204.97
823.262	69.8
823.44	151.72
823.618	71.85
823.796	151.72
823.974	131.24
824.152	172.2
824.329	108.71
824.507	63.66
824.685	77.99
824.863	102.57
825.04	133.29
825.218	118.95
825.396	188.58
825.574	178.34
825.751	139.43
825.929	151.72
826.107	102.57
826.284	102.57
826.462	102.57
826.639	94.38
826.817	102.57
826.994	96.43
827.172	41.13
827.349	159.91
827.527	188.58
827.704	123.05
827.882	127.14
828.059	112.81
828.237	131.24
828.414	143.53
828.591	18.6
828.769	143.53
828.946	75.95
829.124	94.38
829.301	135.34
829.478	84.14
829.655	135.34
829.833	172.2
830.01	6.31
830.187	159.91
830.364	129.19
830.542	118.95
830.719	161.96
830.896	157.86
831.073	176.3
831.25	86.19
831.427	176.3
831.604	147.62
831.782	147.62
831.959	94.38
832.136	41.13
832.313	102.57
832.49	80.04
832.667	127.14
832.844	96.43
833.021	172.2
833.198	139.43
833.374	77.99
833.551	172.2
833.728	118.95
833.905	143.53
834.082	53.42
834.259	112.81
834.436	37.03
834.612	18.6
834.789	151.72
834.966	121
835.143	114.86
835.319	65.71
835.496	90.28
835.673	200.87
835.85	151.72
836.026	170.15
836.203	53.42
836.38	112.81
836.556	86.19
836.733	28.84
836.909	147.62
837.086	86.19
837.262	114.86
837.439	71.85
837.616	94.38
837.792	45.23
837.968	135.34
838.145	10.41
838.321	112.81
838.498	55.47
838.674	118.95
838.851	102.57
839.027	102.57
839.203	98.47
839.38	110.76
839.556	92.33
839.732	102.57
839.909	92.33
840.085	135.34
840.261	6.31
840.437	88.23
840.614	84.14
840.79	73.9
840.966	86.19
841.142	98.47
841.318	96.43
841.494	77.99
841.671	73.9
841.847	86.19
842.023	4.27
842.199	41.13
842.375	143.53
842.551	61.61
842.727	-24.4
842.903	69.8
843.079	63.66
843.255	184.49
843.431	45.23
843.607	110.76
843.783	77.99
843.959	77.99
844.134	-81.75
844.31	116.9
844.486	69.8
844.662	161.96
844.838	49.32
845.013	135.34
845.189	82.09
845.365	73.9
845.541	-1.88
845.716	129.19
845.892	98.47
846.068	61.61
846.244	77.99
846.419	96.43
846.595	94.38
846.77	20.65
846.946	143.53
847.122	51.37
847.297	86.19
847.473	94.38
847.648	16.55
847.824	77.99
847.999	-16.21
848.175	125.1
848.35	49.32
848.526	63.66
848.701	82.09
848.876	73.9
849.052	49.32
849.227	135.34
849.403	-20.31
849.578	43.18
849.753	37.03
849.929	45.23
850.104	8.36
850.279	69.8
850.454	90.28
850.63	28.84
850.805	77.99
850.98	90.28
851.155	-3.93
851.33	63.66
851.505	-3.93
851.681	71.85
851.856	4.27
852.031	82.09
852.206	86.19
852.381	102.57
852.556	-36.69
852.731	127.14
852.906	39.08
853.081	127.14
853.256	71.85
853.431	53.42
853.606	61.61
853.781	39.08
853.956	30.89
854.131	92.33
854.305	-40.79
854.48	73.9
854.655	20.65
854.83	71.85
855.005	16.55
855.18	45.23
855.354	20.65
855.529	63.66
855.704	37.03
855.879	45.23
856.053	14.51
856.228	71.85
856.403	0.17
856.577	110.76
856.752	53.42
856.926	86.19
857.101	57.51
857.276	18.6
857.45	28.84
857.625	61.61
857.799	55.47
857.974	110.76
858.148	-40.79
858.323	32.94
858.497	-36.69
858.672	-1.88
858.846	-24.4
859.02	55.47
859.195	77.99
859.369	39.08
859.543	61.61
859.718	30.89
859.892	45.23
860.066	71.85
860.241	65.71
860.415	-20.31
860.589	22.7
860.763	47.27
860.938	-3.93
861.112	4.27
861.286	53.42
861.46	73.9
861.634	14.51
861.808	80.04
861.982	4.27
862.157	32.94
862.331	20.65
862.505	-42.84
862.679	22.7
862.853	28.84
863.027	-1.88
863.201	82.09
863.375	0.17
863.549	73.9
863.722	77.99
863.896	63.66
864.07	-24.4
864.244	20.65
864.418	63.66
864.592	86.19
864.766	94.38
864.939	69.8
865.113	26.79
865.287	37.03
865.461	-8.02
865.634	47.27
865.808	-22.36
865.982	-10.07
866.156	55.47
866.329	-1.88
866.503	18.6
866.676	110.76
866.85	57.51
867.024	28.84
867.197	86.19
867.371	22.7
867.544	16.55
867.718	-44.88
867.891	96.43
868.065	-3.93
868.238	41.13
868.412	77.99
868.585	20.65
868.759	30.89
868.932	0.17
869.105	22.7
869.279	86.19
869.452	-8.02
869.625	37.03
869.799	84.14
869.972	14.51
870.145	22.7
870.319	88.23
870.492	-3.93
870.665	39.08
870.838	-18.26
871.011	-26.45
871.185	55.47
871.358	30.89
871.531	4.27
871.704	63.66
871.877	28.84
872.05	4.27
872.223	4.27
872.396	69.8
872.569	10.41
872.742	-53.08
872.915	4.27
873.088	22.7
873.261	-48.98
873.434	-1.88
873.607	4.27
873.78	45.23
873.953	-28.5
874.126	110.76
874.299	20.65
874.471	0.17
874.644	-44.88
874.817	86.19
874.99	135.34
875.163	-16.21
875.335	112.81
875.508	8.36
875.681	43.18
875.853	24.75
876.026	53.42
876.199	-14.17
876.371	37.03
876.544	-30.55
876.717	-16.21
876.889	-44.88
877.062	4.27
877.234	110.76
877.407	32.94
877.579	-10.07
877.752	24.75
877.924	28.84
878.097	16.55
878.269	20.65
878.442	16.55
878.614	47.27
878.786	71.85
878.959	69.8
879.131	80.04
879.303	-34.64
879.476	10.41
879.648	32.94
879.82	-3.93
879.993	-42.84
880.165	24.75
880.337	-36.69
880.509	28.84
880.681	-44.88
880.854	12.46
881.026	30.89
881.198	20.65
881.37	28.84
881.542	20.65
881.714	41.13
881.886	-26.45
882.058	-3.93
882.23	34.99
882.402	37.03
882.574	-34.64
882.746	4.27
882.918	-36.69
883.09	30.89
883.262	39.08
883.434	22.7
883.606	-26.45
883.778	-34.64
883.95	96.43
884.122	26.79
884.293	34.99
884.465	61.61
884.637	106.67
884.809	-24.4
884.98	16.55
885.152	20.65
885.324	92.33
885.496	63.66
885.667	49.32
885.839	24.75
886.011	77.99
886.182	-53.08
886.354	80.04
886.525	-20.31
886.697	10.41
886.869	-96.08
887.04	16.55
887.212	102.57
887.383	30.89
887.555	20.65
887.726	-34.64
887.897	98.47
888.069	12.46
888.24	14.51
888.412	12.46
888.583	22.7
888.754	55.47
888.926	28.84
889.097	-44.88
889.268	-18.26
889.44	121
889.611	-16.21
889.782	-8.02
889.953	-51.03
890.125	45.23
890.296	-40.79
890.467	22.7
890.638	12.46
890.809	41.13
890.98	57.51
891.151	16.55
891.323	37.03
891.494	4.27
891.665	-42.84
891.836	55.47
892.007	-3.93
892.178	86.19
892.349	37.03
892.52	6.31
892.691	32.94
892.862	14.51
893.032	-61.27
893.203	12.46
893.374	39.08
893.545	71.85
893.716	8.36
893.887	49.32
894.057	-8.02
894.228	37.03
894.399	-30.55
894.57	12.46
894.74	-85.84
894.911	61.61
895.082	80.04
895.253	-12.12
895.423	10.41
895.594	39.08
895.764	8.36
895.935	-61.27
896.106	39.08
896.276	-1.88
896.447	28.84
896.617	-3.93
896.788	28.84
896.958	6.31
897.129	4.27
897.299	30.89
897.47	57.51
897.64	-3.93
897.81	24.75
897.981	-10.07
898.151	20.65
898.322	61.61
898.492	30.89
898.662	26.79
898.832	-20.31
899.003	69.8
899.173	-28.5
899.343	-18.26
899.513	41.13
