Data from USB4F104151__167__14-32-22-341.txt Node

Date: Thu Mar 13 14:32:22 EDT 2025
User: louis
Spectrometer: USB4F10415
Trigger mode: 4
Integration Time (sec): 2.500000E-2
Scans to average: 1
Electric dark correction enabled: true
Nonlinearity correction enabled: false
Boxcar width: 0
XAxis mode: Wavelengths
Number of Pixels in Spectrum: 3648
>>>>>Begin Spectral Data<<<<<
178.204	-194.39
178.424	-194.39
178.644	-194.39
178.864	-135
179.084	-218.96
179.304	-55.12
179.524	26.79
179.744	45.23
179.964	22.7
180.184	-26.45
180.404	-12.12
180.624	6.31
180.844	24.75
181.064	-59.22
181.283	63.66
181.503	-32.6
181.723	-3.93
181.943	-120.66
182.163	53.42
182.383	-30.55
182.602	88.23
182.822	26.79
183.042	-12.12
183.262	-28.5
183.482	18.6
183.701	47.27
183.921	0.17
184.141	-75.6
184.361	71.85
184.58	-14.17
184.8	-30.55
185.02	-75.6
185.239	55.47
185.459	39.08
185.679	-51.03
185.898	4.27
186.118	75.95
186.338	2.22
186.557	-26.45
186.777	-36.69
186.997	-44.88
187.216	-53.08
187.436	51.37
187.655	-1.88
187.875	-10.07
188.095	45.23
188.314	59.56
188.534	-12.12
188.753	102.57
188.973	-40.79
189.192	43.18
189.412	-38.74
189.631	18.6
189.851	-57.17
190.07	53.42
190.29	-34.64
190.509	2.22
190.729	55.47
190.948	10.41
191.168	164.01
191.387	47.27
191.607	-30.55
191.826	59.56
192.045	10.41
192.265	-10.07
192.484	-46.93
192.704	-59.22
192.923	-42.84
193.142	104.62
193.362	-1.88
193.581	20.65
193.8	4.27
194.02	53.42
194.239	-18.26
194.458	-55.12
194.678	43.18
194.897	10.41
195.116	43.18
195.335	-5.97
195.555	12.46
195.774	59.56
195.993	-100.18
196.212	28.84
196.432	37.03
196.651	-22.36
196.87	-38.74
197.089	75.95
197.308	-10.07
197.528	108.71
197.747	-106.32
197.966	28.84
198.185	-3.93
198.404	-53.08
198.623	-22.36
198.842	51.37
199.062	100.52
199.281	94.38
199.5	-10.07
199.719	4.27
199.938	-3.93
200.157	-3.93
200.376	18.6
200.595	63.66
200.814	2.22
201.033	26.79
201.252	67.75
201.471	4.27
201.69	34.99
201.909	47.27
202.128	-1.88
202.347	-63.32
202.566	2.22
202.785	-55.12
203.004	-36.69
203.223	61.61
203.442	-22.36
203.661	-3.93
203.879	-14.17
204.098	12.46
204.317	6.31
204.536	41.13
204.755	18.6
204.974	14.51
205.193	41.13
205.411	53.42
205.63	-30.55
205.849	2.22
206.068	57.51
206.287	12.46
206.505	94.38
206.724	-104.28
206.943	39.08
207.162	18.6
207.381	-30.55
207.599	20.65
207.818	65.71
208.037	-118.61
208.255	-16.21
208.474	-3.93
208.693	34.99
208.911	0.17
209.13	12.46
209.349	-55.12
209.567	51.37
209.786	73.9
210.005	-14.17
210.223	-1.88
210.442	16.55
210.661	-14.17
210.879	-26.45
211.098	-22.36
211.316	-22.36
211.535	45.23
211.753	-63.32
211.972	53.42
212.191	2.22
212.409	28.84
212.628	0.17
212.846	-18.26
213.065	-28.5
213.283	55.47
213.502	10.41
213.72	-20.31
213.938	51.37
214.157	53.42
214.375	24.75
214.594	-18.26
214.812	65.71
215.031	-57.17
215.249	-67.41
215.467	4.27
215.686	10.41
215.904	112.81
216.122	-16.21
216.341	-14.17
216.559	2.22
216.778	18.6
216.996	65.71
217.214	-36.69
217.432	-22.36
217.651	10.41
217.869	-48.98
218.087	59.56
218.306	14.51
218.524	49.32
218.742	-24.4
218.96	10.41
219.179	0.17
219.397	-51.03
219.615	34.99
219.833	80.04
220.051	10.41
220.27	63.66
220.488	-14.17
220.706	26.79
220.924	71.85
221.142	-20.31
221.36	-26.45
221.578	67.75
221.796	12.46
222.015	-46.93
222.233	51.37
222.451	22.7
222.669	-69.46
222.887	-51.03
223.105	-1.88
223.323	-16.21
223.541	-79.7
223.759	-20.31
223.977	14.51
224.195	100.52
224.413	24.75
224.631	47.27
224.849	30.89
225.067	67.75
225.285	2.22
225.503	-5.97
225.721	-38.74
225.939	-14.17
226.157	-3.93
226.375	-3.93
226.592	14.51
226.81	-38.74
227.028	20.65
227.246	71.85
227.464	-10.07
227.682	53.42
227.9	51.37
228.117	-42.84
228.335	20.65
228.553	2.22
228.771	51.37
228.989	57.51
229.206	-22.36
229.424	-3.93
229.642	-20.31
229.86	-20.31
230.077	45.23
230.295	12.46
230.513	-5.97
230.731	28.84
230.948	43.18
231.166	-3.93
231.384	-59.22
231.601	55.47
231.819	67.75
232.037	-26.45
232.254	-30.55
232.472	55.47
232.689	-20.31
232.907	18.6
233.125	-22.36
233.342	-10.07
233.56	-26.45
233.777	-63.32
233.995	2.22
234.213	34.99
234.43	-38.74
234.648	-40.79
234.865	18.6
235.083	77.99
235.3	-46.93
235.518	-36.69
235.735	71.85
235.953	18.6
236.17	4.27
236.388	26.79
236.605	-3.93
236.822	100.52
237.04	47.27
237.257	-22.36
237.475	26.79
237.692	-1.88
237.909	-12.12
238.127	75.95
238.344	-3.93
238.562	-20.31
238.779	-75.6
238.996	-18.26
239.214	-51.03
239.431	2.22
239.648	-42.84
239.865	24.75
240.083	112.81
240.3	18.6
240.517	-81.75
240.735	-53.08
240.952	-12.12
241.169	69.8
241.386	67.75
241.603	-22.36
241.821	2.22
242.038	26.79
242.255	43.18
242.472	-22.36
242.689	-18.26
242.907	12.46
243.124	-30.55
243.341	-20.31
243.558	-63.32
243.775	-24.4
243.992	-30.55
244.209	69.8
244.426	51.37
244.643	53.42
244.86	-16.21
245.078	32.94
245.295	82.09
245.512	-1.88
245.729	18.6
245.946	-46.93
246.163	-8.02
246.38	28.84
246.597	-28.5
246.814	39.08
247.031	-22.36
247.248	-59.22
247.464	28.84
247.681	-22.36
247.898	16.55
248.115	-18.26
248.332	-32.6
248.549	-5.97
248.766	133.29
248.983	-14.17
249.2	-42.84
249.417	59.56
249.633	43.18
249.85	-5.97
250.067	-73.56
250.284	45.23
250.501	-38.74
250.717	2.22
250.934	-67.41
251.151	10.41
251.368	16.55
251.585	61.61
251.801	28.84
252.018	-5.97
252.235	30.89
252.451	-10.07
252.668	10.41
252.885	-28.5
253.102	18.6
253.318	18.6
253.535	-5.97
253.752	-3.93
253.968	-55.12
254.185	-34.64
254.401	-38.74
254.618	28.84
254.835	55.47
255.051	59.56
255.268	53.42
255.484	71.85
255.701	12.46
255.917	-14.17
256.134	-44.88
256.351	10.41
256.567	-36.69
256.784	-28.5
257	10.41
257.217	67.75
257.433	53.42
257.65	4.27
257.866	92.33
258.082	-14.17
258.299	-26.45
258.515	-42.84
258.732	43.18
258.948	-30.55
259.165	65.71
259.381	14.51
259.597	18.6
259.814	-46.93
260.03	59.56
260.246	43.18
260.463	86.19
260.679	26.79
260.895	-55.12
261.112	26.79
261.328	-5.97
261.544	59.56
261.761	18.6
261.977	2.22
262.193	-18.26
262.409	94.38
262.626	106.67
262.842	18.6
263.058	-32.6
263.274	34.99
263.49	12.46
263.707	10.41
263.923	-10.07
264.139	-63.32
264.355	-12.12
264.571	20.65
264.787	34.99
265.004	90.28
265.22	55.47
265.436	-48.98
265.652	-16.21
265.868	-30.55
266.084	-22.36
266.3	-10.07
266.516	-40.79
266.732	88.23
266.948	43.18
267.164	4.27
267.38	75.95
267.596	14.51
267.812	75.95
268.028	6.31
268.244	-100.18
268.46	14.51
268.676	-87.89
268.892	18.6
269.108	-5.97
269.324	-87.89
269.54	-55.12
269.756	10.41
269.972	-22.36
270.188	20.65
270.403	-63.32
270.619	-22.36
270.835	-8.02
271.051	43.18
271.267	-79.7
271.483	18.6
271.698	14.51
271.914	55.47
272.13	18.6
272.346	67.75
272.562	61.61
272.777	-18.26
272.993	18.6
273.209	0.17
273.425	26.79
273.64	-55.12
273.856	10.41
274.072	-10.07
274.287	59.56
274.503	-22.36
274.719	-14.17
274.934	51.37
275.15	-14.17
275.366	-16.21
275.581	34.99
275.797	10.41
276.012	77.99
276.228	39.08
276.444	4.27
276.659	94.38
276.875	20.65
277.09	-1.88
277.306	37.03
277.521	71.85
277.737	-16.21
277.952	10.41
278.168	39.08
278.383	49.32
278.599	34.99
278.814	86.19
279.03	34.99
279.245	75.95
279.461	-48.98
279.676	-3.93
279.892	-55.12
280.107	-22.36
280.322	-91.99
280.538	59.56
280.753	-18.26
280.969	65.71
281.184	-20.31
281.399	108.71
281.615	8.36
281.83	14.51
282.045	30.89
282.26	-5.97
282.476	18.6
282.691	28.84
282.906	-14.17
283.122	18.6
283.337	-24.4
283.552	14.51
283.767	18.6
283.983	34.99
284.198	-89.94
284.413	49.32
284.628	-18.26
284.843	-14.17
285.058	43.18
285.274	2.22
285.489	-3.93
285.704	34.99
285.919	4.27
286.134	-26.45
286.349	-36.69
286.564	-18.26
286.779	53.42
286.995	18.6
287.21	-53.08
287.425	84.14
287.64	-53.08
287.855	94.38
288.07	-16.21
288.285	-10.07
288.5	-3.93
288.715	39.08
288.93	49.32
289.145	-1.88
289.36	-20.31
289.575	10.41
289.79	26.79
290.004	-14.17
290.219	39.08
290.434	6.31
290.649	-42.84
290.864	20.65
291.079	41.13
291.294	63.66
291.509	71.85
291.724	-22.36
291.938	-63.32
292.153	71.85
292.368	45.23
292.583	-28.5
292.798	26.79
293.012	43.18
293.227	-8.02
293.442	-5.97
293.657	69.8
293.871	4.27
294.086	37.03
294.301	114.86
294.516	59.56
294.73	-12.12
294.945	-22.36
295.16	-46.93
295.374	75.95
295.589	-38.74
295.804	-69.46
296.018	45.23
296.233	45.23
296.447	-5.97
296.662	-3.93
296.877	20.65
297.091	51.37
297.306	47.27
297.52	26.79
297.735	2.22
297.949	-18.26
298.164	10.41
298.378	41.13
298.593	20.65
298.807	-73.56
299.022	41.13
299.236	61.61
299.451	55.47
299.665	12.46
299.88	-14.17
300.094	-20.31
300.309	18.6
300.523	16.55
300.737	-30.55
300.952	-1.88
301.166	82.09
301.381	-18.26
301.595	-36.69
301.809	-32.6
302.024	14.51
302.238	0.17
302.452	-5.97
302.667	-55.12
302.881	59.56
303.095	26.79
303.309	10.41
303.524	14.51
303.738	4.27
303.952	-46.93
304.166	-30.55
304.381	-85.84
304.595	61.61
304.809	10.41
305.023	-28.5
305.237	45.23
305.452	-14.17
305.666	2.22
305.88	84.14
306.094	-5.97
306.308	77.99
306.522	22.7
306.736	34.99
306.95	59.56
307.164	14.51
307.379	12.46
307.593	39.08
307.807	-18.26
308.021	49.32
308.235	41.13
308.449	20.65
308.663	10.41
308.877	45.23
309.091	-3.93
309.305	6.31
309.519	39.08
309.733	32.94
309.947	-73.56
310.161	41.13
310.374	30.89
310.588	26.79
310.802	2.22
311.016	-77.65
311.23	59.56
311.444	10.41
311.658	71.85
311.872	45.23
312.085	61.61
312.299	51.37
312.513	34.99
312.727	6.31
312.941	-65.36
313.154	-34.64
313.368	18.6
313.582	-20.31
313.796	28.84
314.009	-46.93
314.223	53.42
314.437	39.08
314.651	14.51
314.864	12.46
315.078	-1.88
315.292	-96.08
315.505	-71.51
315.719	18.6
315.933	-20.31
316.146	20.65
316.36	-3.93
316.573	67.75
316.787	65.71
317.001	-30.55
317.214	12.46
317.428	108.71
317.641	-106.32
317.855	-38.74
318.068	24.75
318.282	-44.88
318.495	26.79
318.709	-38.74
318.922	18.6
319.136	43.18
319.349	61.61
319.563	61.61
319.776	-8.02
319.99	-94.04
320.203	-3.93
320.417	26.79
320.63	61.61
320.843	-3.93
321.057	-51.03
321.27	-34.64
321.483	18.6
321.697	6.31
321.91	41.13
322.124	55.47
322.337	26.79
322.55	47.27
322.763	-3.93
322.977	0.17
323.19	14.51
323.403	-1.88
323.617	-36.69
323.83	51.37
324.043	6.31
324.256	-20.31
324.469	-22.36
324.683	84.14
324.896	12.46
325.109	10.41
325.322	-87.89
325.535	-20.31
325.748	104.62
325.962	18.6
326.175	34.99
326.388	43.18
326.601	59.56
326.814	69.8
327.027	22.7
327.24	59.56
327.453	-63.32
327.666	28.84
327.879	-34.64
328.092	43.18
328.305	-38.74
328.518	20.65
328.731	30.89
328.944	18.6
329.157	-38.74
329.37	22.7
329.583	49.32
329.796	43.18
330.009	18.6
330.222	41.13
330.435	-10.07
330.648	59.56
330.861	2.22
331.073	20.65
331.286	61.61
331.499	26.79
331.712	-26.45
331.925	69.8
332.138	10.41
332.35	-32.6
332.563	34.99
332.776	-38.74
332.989	-30.55
333.202	-63.32
333.414	45.23
333.627	-3.93
333.84	0.17
334.053	-10.07
334.265	-18.26
334.478	26.79
334.691	-38.74
334.903	4.27
335.116	-40.79
335.329	34.99
335.541	30.89
335.754	61.61
335.966	-22.36
336.179	18.6
336.392	-30.55
336.604	-96.08
336.817	4.27
337.029	84.14
337.242	55.47
337.454	12.46
337.667	-46.93
337.88	104.62
338.092	-20.31
338.305	-46.93
338.517	-53.08
338.729	-16.21
338.942	41.13
339.154	14.51
339.367	-83.8
339.579	61.61
339.792	-42.84
340.004	30.89
340.217	12.46
340.429	4.27
340.641	45.23
340.854	63.66
341.066	-46.93
341.278	20.65
341.491	-16.21
341.703	14.51
341.915	-38.74
342.128	43.18
342.34	34.99
342.552	61.61
342.764	-30.55
342.977	41.13
343.189	80.04
343.401	10.41
343.613	-16.21
343.826	51.37
344.038	-3.93
344.25	10.41
344.462	18.6
344.674	34.99
344.886	2.22
345.099	-14.17
345.311	34.99
345.523	12.46
345.735	20.65
345.947	12.46
346.159	30.89
346.371	24.75
346.583	-22.36
346.795	92.33
347.007	-38.74
347.219	77.99
347.431	59.56
347.643	88.23
347.855	-46.93
348.067	75.95
348.279	4.27
348.491	34.99
348.703	69.8
348.915	43.18
349.127	-46.93
349.339	47.27
349.551	-14.17
349.763	-5.97
349.975	28.84
350.187	43.18
350.399	26.79
350.61	4.27
350.822	6.31
351.034	47.27
351.246	67.75
351.458	61.61
351.669	8.36
351.881	26.79
352.093	75.95
352.305	63.66
352.517	24.75
352.728	63.66
352.94	34.99
353.152	45.23
353.363	10.41
353.575	-42.84
353.787	100.52
353.999	-18.26
354.21	77.99
354.422	2.22
354.633	-48.98
354.845	20.65
355.057	12.46
355.268	4.27
355.48	24.75
355.692	-116.56
355.903	51.37
356.115	61.61
356.326	-55.12
356.538	145.58
356.749	4.27
356.961	67.75
357.172	-63.32
357.384	18.6
357.595	47.27
357.807	-12.12
358.018	16.55
358.23	-8.02
358.441	67.75
358.653	12.46
358.864	32.94
359.075	-36.69
359.287	-24.4
359.498	28.84
359.709	12.46
359.921	28.84
360.132	-10.07
360.344	-30.55
360.555	-20.31
360.766	59.56
360.977	34.99
361.189	-18.26
361.4	18.6
361.611	4.27
361.823	84.14
362.034	18.6
362.245	-34.64
362.456	41.13
362.667	96.43
362.879	2.22
363.09	-14.17
363.301	6.31
363.512	-36.69
363.723	-1.88
363.935	-40.79
364.146	16.55
364.357	6.31
364.568	-3.93
364.779	20.65
364.99	96.43
365.201	0.17
365.412	75.95
365.623	20.65
365.834	10.41
366.045	-20.31
366.256	55.47
366.467	84.14
366.678	12.46
366.889	37.03
367.1	-53.08
367.311	63.66
367.522	26.79
367.733	92.33
367.944	-30.55
368.155	26.79
368.366	-22.36
368.577	22.7
368.788	51.37
368.999	-34.64
369.209	71.85
369.42	82.09
369.631	116.9
369.842	-102.23
370.053	59.56
370.264	6.31
370.474	10.41
370.685	10.41
370.896	-5.97
371.107	59.56
371.317	-5.97
371.528	30.89
371.739	-34.64
371.95	53.42
372.16	55.47
372.371	34.99
372.582	10.41
372.792	155.82
373.003	47.27
373.214	51.37
373.424	67.75
373.635	-34.64
373.846	37.03
374.056	96.43
374.267	63.66
374.477	34.99
374.688	10.41
374.898	10.41
375.109	4.27
375.319	12.46
375.53	110.76
375.74	20.65
375.951	-16.21
376.161	-1.88
376.372	39.08
376.582	-22.36
376.793	55.47
377.003	-36.69
377.214	-32.6
377.424	-5.97
377.635	10.41
377.845	18.6
378.055	92.33
378.266	-55.12
378.476	63.66
378.686	8.36
378.897	-18.26
379.107	51.37
379.317	30.89
379.528	-87.89
379.738	2.22
379.948	-14.17
380.158	92.33
380.369	-87.89
380.579	22.7
380.789	-48.98
380.999	102.57
381.21	32.94
381.42	69.8
381.63	45.23
381.84	18.6
382.05	51.37
382.261	86.19
382.471	73.9
382.681	55.47
382.891	22.7
383.101	22.7
383.311	-53.08
383.521	16.55
383.731	10.41
383.941	41.13
384.151	37.03
384.361	-30.55
384.571	26.79
384.781	51.37
384.991	77.99
385.201	92.33
385.411	84.14
385.621	34.99
385.831	6.31
386.041	51.37
386.251	53.42
386.461	92.33
386.671	20.65
386.881	37.03
387.091	24.75
387.301	65.71
387.511	47.27
387.72	8.36
387.93	51.37
388.14	-1.88
388.35	2.22
388.56	116.9
388.769	47.27
388.979	67.75
389.189	18.6
389.399	-36.69
389.609	-42.84
389.818	34.99
390.028	51.37
390.238	75.95
390.447	30.89
390.657	28.84
390.867	-3.93
391.076	-22.36
391.286	59.56
391.496	73.9
391.705	-32.6
391.915	92.33
392.125	84.14
392.334	2.22
392.544	-8.02
392.753	26.79
392.963	0.17
393.172	26.79
393.382	-46.93
393.591	104.62
393.801	30.89
394.01	157.86
394.22	53.42
394.429	43.18
394.639	26.79
394.848	59.56
395.058	37.03
395.267	121
395.477	16.55
395.686	37.03
395.895	139.43
396.105	86.19
396.314	37.03
396.524	59.56
396.733	-44.88
396.942	106.67
397.152	-46.93
397.361	116.9
397.57	43.18
397.78	100.52
397.989	118.95
398.198	174.25
398.407	30.89
398.617	49.32
398.826	77.99
399.035	-18.26
399.244	116.9
399.453	104.62
399.663	84.14
399.872	67.75
400.081	6.31
400.29	153.77
400.499	137.38
400.708	104.62
400.917	8.36
401.127	77.99
401.336	96.43
401.545	82.09
401.754	77.99
401.963	43.18
402.172	22.7
402.381	100.52
402.59	34.99
402.799	51.37
403.008	198.82
403.217	14.51
403.426	73.9
403.635	84.14
403.844	59.56
404.053	116.9
404.262	71.85
404.471	178.34
404.68	116.9
404.888	75.95
405.097	137.38
405.306	149.67
405.515	137.38
405.724	141.48
405.933	166.06
406.142	108.71
406.35	227.5
406.559	174.25
406.768	149.67
406.977	235.69
407.185	102.57
407.394	243.88
407.603	135.34
407.812	145.58
408.02	266.41
408.229	264.36
408.438	182.44
408.646	250.02
408.855	186.54
409.064	192.68
409.272	176.3
409.481	252.07
409.69	174.25
409.898	264.36
410.107	278.69
410.315	290.98
410.524	256.17
410.733	354.47
410.941	235.69
411.15	239.78
411.358	293.03
411.567	379.04
411.775	340.13
411.984	309.41
412.192	358.57
412.401	389.28
412.609	448.68
412.818	444.58
413.026	438.44
413.234	401.57
413.443	426.15
413.651	469.16
413.86	450.72
414.068	544.93
414.276	536.74
414.485	463.01
414.693	501.92
414.901	616.61
415.11	698.53
415.318	682.14
415.526	714.91
415.734	723.1
415.943	714.91
416.151	745.63
416.359	673.95
416.567	821.41
416.776	837.79
416.984	841.89
417.192	952.48
417.4	948.38
417.608	989.34
417.817	975
418.025	1061.02
418.233	1108.12
418.441	1038.49
418.649	1104.03
418.857	1132.7
419.065	1175.7
419.273	1206.42
419.481	1255.58
419.689	1329.3
419.897	1407.13
420.105	1403.03
420.313	1421.46
420.521	1575.06
420.729	1616.02
420.937	1435.8
421.145	1519.76
421.353	1665.17
421.561	1714.32
421.769	1804.43
421.977	1806.48
422.185	1869.97
422.393	2087.05
422.601	2177.16
422.809	2152.59
423.017	2164.87
423.224	2121.87
423.432	2341
423.64	2353.29
423.848	2459.78
424.056	2435.21
424.263	2510.98
424.471	2644.1
424.679	2748.54
424.887	2900.09
425.094	3053.69
425.302	2861.18
425.51	3108.99
425.718	3037.31
425.925	3125.37
426.133	3203.19
426.341	3438.71
426.548	3553.4
426.756	3563.64
426.964	3618.93
427.171	3803.25
427.379	4014.19
427.586	3926.13
427.794	4077.68
428.001	4372.58
428.209	4517.99
428.417	4417.64
428.624	4884.58
428.832	4638.82
429.039	4663.4
429.247	4773.99
429.454	5169.24
429.662	5619.8
429.869	5132.38
430.076	5515.35
430.284	5310.55
430.491	5714
430.699	5924.94
430.906	5910.61
431.114	6056.01
431.321	6295.63
431.528	6412.36
431.736	6717.51
431.943	6969.41
432.15	6991.94
432.358	6996.03
432.565	7315.52
432.772	7186.49
432.979	7665.72
433.187	7665.72
433.394	7739.44
433.601	8247.34
433.808	8409.13
434.016	8294.44
434.223	8460.33
434.43	9041.95
434.637	9064.48
434.844	9512.99
435.052	9740.31
435.259	9760.79
435.466	9998.35
435.673	9617.43
435.88	10217.49
436.087	10801.16
436.294	10682.38
436.501	10188.82
436.708	10729.48
436.915	11184.13
437.122	11577.34
437.329	11581.43
437.537	11964.4
437.743	12378.09
437.95	11999.22
438.157	12552.17
438.364	13203.43
438.571	12998.63
438.778	13121.51
438.985	14391.25
439.192	13762.52
439.399	14036.95
439.606	13772.76
439.813	14778.31
440.02	15611.84
440.227	15359.94
440.433	15001.54
440.64	15601.6
440.847	15382.46
441.054	15925.18
441.261	16893.86
441.467	16590.77
441.674	17174.44
441.881	17520.54
442.088	17602.46
442.294	17622.94
442.501	17846.17
442.708	18163.61
442.914	18923.4
443.121	19593.09
443.328	19081.1
443.534	20371.32
443.741	19867.52
443.948	19625.86
444.154	21311.33
444.361	21006.19
444.568	21075.82
444.774	20594.54
444.981	21233.51
445.187	21755.74
445.394	22902.61
445.6	22587.22
445.807	25014.06
446.013	23514.95
446.22	24018.75
446.426	25163.56
446.633	25188.14
446.839	26072.86
447.046	25198.38
447.252	26324.76
447.459	26341.14
447.665	26165.02
447.871	27510.53
448.078	28403.45
448.284	27318.03
448.491	28317.43
448.697	28849.91
448.903	29476.58
449.11	29966.05
449.316	29066.99
449.522	29763.3
449.728	30602.97
449.935	30772.95
450.141	30934.74
450.347	31424.2
450.553	30299.87
450.76	30861.01
450.966	31819.46
451.172	31610.57
451.378	32427.71
451.584	31731.4
451.791	32394.94
451.997	32304.83
452.203	32933.56
452.409	33031.86
452.615	32513.72
452.821	31119.06
453.027	30828.24
453.233	32536.25
453.44	31295.18
453.646	31463.11
453.852	31885
454.058	32483
454.264	31035.09
454.47	32061.12
454.676	31311.56
454.882	32104.13
455.088	29374.19
455.294	29761.25
455.5	30242.53
455.705	30430.94
455.911	29470.44
456.117	28671.73
456.323	28184.32
456.529	27051.79
456.735	28114.69
456.941	27524.87
457.147	26959.63
457.352	26226.46
457.558	25708.32
457.764	25726.75
457.97	25519.91
458.176	24776.5
458.381	24686.39
458.587	23686.98
458.793	23521.09
458.999	22081.37
459.204	23691.07
459.41	23279.43
459.616	21575.52
459.821	21817.18
460.027	21716.83
460.233	21235.56
460.438	20219.77
460.644	20418.42
460.85	19335.04
461.055	18964.36
461.261	19138.44
461.466	17571.74
461.672	17196.96
461.878	18296.72
462.083	16986.02
462.289	16824.23
462.494	16508.85
462.7	16086.97
462.905	15415.23
463.111	15996.85
463.316	16230.32
463.522	15632.32
463.727	15892.41
463.932	15830.97
464.138	15169.48
464.343	15409.09
464.549	14827.46
464.754	15368.13
464.959	15583.16
465.165	15189.95
465.37	14649.29
465.575	14481.36
465.781	14903.24
465.986	14913.48
466.191	14520.27
466.397	14403.53
466.602	13404.13
466.807	14071.76
467.012	13823.96
467.218	13811.67
467.423	13625.31
467.628	13918.17
467.833	14116.82
468.038	13725.66
468.244	13268.96
468.449	13715.42
468.654	13633.5
468.859	13221.86
469.064	13094.88
469.269	12738.54
469.474	12765.16
469.679	13096.93
469.885	12642.28
470.09	12838.89
470.295	12662.76
470.5	12320.75
470.705	12398.57
470.91	12193.78
471.115	12060.66
471.32	12349.42
471.525	12339.18
471.73	12019.7
471.935	11745.27
472.139	11546.62
472.344	11810.81
472.549	11743.22
472.754	11317.25
472.959	11390.97
473.164	10815.49
473.369	10745.86
473.574	11233.28
473.778	11077.63
473.983	10921.99
474.188	10842.12
474.393	10500.11
474.598	10453
474.802	10326.03
475.007	10348.56
475.212	10545.16
475.417	9922.58
475.621	9951.25
475.826	9908.24
476.031	9826.32
476.235	9631.77
476.44	9685.01
476.645	9472.03
476.849	9537.56
477.054	9408.54
477.259	9353.24
477.463	9310.24
477.668	9021.47
477.872	9277.47
478.077	8841.25
478.282	8833.06
478.486	8730.66
478.691	8855.59
478.895	8734.76
479.1	8646.69
479.304	8788
479.509	8423.47
479.713	8368.17
479.918	8243.24
480.122	8073.26
480.326	8323.12
480.531	8312.88
480.735	8212.53
480.94	8185.9
481.144	8480.81
481.348	8020.02
481.553	8290.35
481.757	7991.34
481.961	8042.54
482.166	8296.49
482.37	8294.44
482.574	8005.68
482.778	8044.59
482.983	8226.86
483.187	7964.72
483.391	8030.26
483.595	7907.38
483.8	7940.15
484.004	7895.09
484.208	8046.64
484.412	8073.26
484.616	8208.43
484.821	7999.54
485.025	7903.28
485.229	7958.58
485.433	7874.61
485.637	8132.65
485.841	8005.68
486.045	7893.04
486.249	8007.73
486.453	8042.54
486.657	7931.95
486.861	7858.23
487.065	7858.23
487.269	7845.94
487.473	7729.2
487.677	8020.02
487.881	8116.27
488.085	7915.57
488.289	8048.69
488.493	7954.48
488.697	8114.22
488.901	7964.72
489.105	7841.84
489.309	7909.43
489.512	8093.74
489.716	8097.84
489.92	8095.79
490.124	8075.31
490.328	7968.82
490.531	8013.87
490.735	8222.77
490.939	8321.07
491.143	8196.14
491.346	8106.03
491.55	8185.9
491.754	8308.78
491.958	8177.71
492.161	8140.85
492.365	8366.12
492.569	8292.4
492.772	8400.94
492.976	8472.62
493.18	8532.01
493.383	8515.62
493.587	8523.82
493.79	8480.81
493.994	8474.67
494.197	8538.15
494.401	8683.56
494.605	8724.52
494.808	8927.27
495.012	8773.67
495.215	8742.95
495.419	9013.28
495.622	8857.64
495.825	9000.99
496.029	8964.13
496.232	9195.55
496.436	9007.14
496.639	9429.02
496.843	9324.57
497.046	9668.63
497.249	9500.7
497.453	9752.6
497.656	9627.67
497.859	9672.73
498.063	9904.15
498.266	10199.06
498.469	9898
498.673	10244.11
498.876	10283.02
499.079	10391.56
499.282	10162.19
499.485	10629.13
499.689	10594.31
499.892	10809.35
500.095	10770.44
500.298	10850.31
500.501	10897.41
500.705	11194.37
500.908	11433.98
501.111	11372.54
501.314	11462.65
501.517	11603.96
501.72	11683.83
501.923	11761.66
502.126	12036.08
502.329	12015.6
502.532	11966.45
502.735	12265.46
502.938	12468.2
503.141	12773.35
503.344	12716.01
503.547	12990.44
503.75	12984.29
503.953	12965.86
504.156	13232.1
504.359	13340.64
504.562	13342.69
504.765	13559.77
504.968	13666.27
505.17	13975.51
505.373	14047.19
505.576	14174.16
505.779	14462.93
505.982	14436.3
506.185	14733.26
506.387	14503.89
506.59	14931.91
506.793	15120.32
506.996	15001.54
507.198	15568.83
507.401	15501.25
507.604	15357.89
507.807	15808.44
508.009	15658.94
508.212	15904.7
508.415	16373.68
508.617	16431.02
508.82	16504.75
509.022	16383.92
509.225	16818.09
509.428	16863.15
509.63	17137.57
509.833	17270.69
510.035	17635.23
510.238	17373.09
510.44	17768.35
510.643	17971.1
510.845	17956.76
511.048	18425.75
511.25	18171.8
511.453	18646.93
511.655	19109.77
511.858	18775.95
512.06	19064.71
512.262	19222.41
512.465	19257.22
512.667	19498.88
512.87	19398.53
513.072	19748.73
513.274	20182.9
513.477	20143.99
513.679	20606.83
513.881	20756.33
514.084	20762.48
514.286	21071.72
514.488	21213.03
514.69	21665.63
514.893	21808.99
515.095	21626.72
515.297	21940.06
515.499	21974.88
515.701	22196.06
515.904	22468.44
516.106	22558.55
516.308	22875.98
516.51	23211.85
516.712	23203.66
516.914	23254.86
517.116	23498.56
517.318	23701.31
517.52	23836.48
517.722	24092.48
517.925	24172.35
518.127	24420.15
518.329	24448.82
518.531	24213.31
518.733	25128.75
518.935	24876.85
519.136	24821.55
519.338	25446.18
519.54	25628.45
519.742	25956.13
519.944	26038.05
520.146	26310.43
520.348	26337.05
520.55	26068.76
520.752	26478.36
520.954	26986.25
521.155	27012.88
521.357	27199.24
521.559	27414.28
521.761	27764.48
521.963	27846.4
522.164	27684.61
522.366	27657.99
522.568	28059.39
522.77	27823.87
522.971	28049.15
523.173	28106.49
523.375	28550.9
523.576	28456.7
523.778	28407.55
523.98	28858.1
524.181	28735.22
524.383	28919.54
524.584	29380.33
524.786	29058.8
524.988	28770.04
525.189	29427.43
525.391	29587.18
525.592	29445.87
525.794	29146.86
525.995	29505.26
526.197	29570.79
526.398	29337.32
526.6	29796.07
526.801	29877.99
527.003	29906.66
527.204	29734.63
527.406	29845.22
527.607	29681.38
527.808	30181.09
528.01	29535.98
528.211	29859.56
528.412	30351.07
528.614	30181.09
528.815	29748.96
529.016	30572.25
529.218	30283.48
529.419	29826.79
529.62	30328.54
529.822	30537.43
530.023	29945.57
530.224	30291.68
530.425	30365.4
530.626	29974.24
530.828	29990.63
531.029	30486.23
531.23	30297.82
531.431	29943.52
531.632	30015.2
531.833	30078.69
532.035	30004.96
532.236	30285.53
532.437	30119.65
532.638	30064.35
532.839	30000.86
533.04	30281.44
533.241	29918.95
533.442	30205.66
533.643	29814.5
533.844	29794.02
534.045	29880.03
534.246	29804.26
534.447	29667.05
534.648	29605.61
534.849	29630.18
535.05	29191.92
535.251	29636.33
535.451	29419.24
535.652	29740.77
535.853	29468.39
536.054	29617.89
536.255	29449.96
536.456	29173.49
536.657	29499.11
536.857	29423.34
537.058	29558.5
537.259	29476.58
537.46	29538.02
537.66	29619.94
537.861	29574.89
538.062	29400.81
538.263	29378.28
538.463	29286.12
538.664	29185.77
538.865	29318.89
539.065	29398.76
539.266	28598.01
539.466	29169.39
539.667	29052.66
539.868	29468.39
540.068	29161.2
540.269	29019.89
540.469	29429.48
540.67	28890.87
540.87	28942.07
541.071	28892.91
541.271	29185.77
541.472	29048.56
541.672	28729.08
541.873	28974.83
542.073	28780.28
542.274	28878.58
542.474	28884.72
542.675	28475.13
542.875	29048.56
543.075	28708.6
543.276	28542.71
543.476	28995.31
543.676	28645.11
543.877	28880.63
544.077	28724.98
544.277	28657.4
544.478	28700.4
544.678	28425.98
544.878	28780.28
545.078	28460.79
545.279	28301.05
545.479	28462.84
545.679	28436.22
545.879	28276.48
546.079	28708.6
546.28	28499.7
546.48	28516.09
546.68	29165.29
546.88	28686.07
547.08	28614.39
547.28	28667.64
547.48	28313.34
547.68	28862.19
547.88	28227.32
548.081	28524.28
548.281	28532.47
548.481	28800.76
548.681	28507.9
548.881	28636.92
549.081	28507.9
549.28	28432.12
549.48	28747.51
549.68	28489.46
549.88	28886.77
550.08	28507.9
550.28	28655.35
550.48	28442.36
550.68	28634.87
550.88	28636.92
551.08	28477.18
551.279	28960.5
551.479	28669.69
551.679	28491.51
551.879	28620.53
552.079	28849.91
552.278	28606.2
552.478	28940.02
552.678	28931.83
552.878	28808.95
553.077	28659.45
553.277	28657.4
553.477	29140.72
553.676	28753.65
553.876	29101.81
554.076	28729.08
554.275	29032.18
554.475	28675.83
554.674	28823.28
554.874	29050.61
555.074	29175.53
555.273	28821.23
555.473	28950.26
555.672	28888.82
555.872	28530.42
556.071	28921.59
556.271	28862.19
556.47	28739.32
556.67	28614.39
556.869	29046.51
557.068	28964.59
557.268	28854
557.467	28884.72
557.667	29159.15
557.866	29030.13
558.065	28913.39
558.265	29208.3
558.464	28600.05
558.663	29251.31
558.863	28655.35
559.062	29167.34
559.261	28616.44
559.461	29239.02
559.66	28454.65
559.859	28780.28
560.058	28847.86
560.258	29071.09
560.457	28757.75
560.656	28849.91
560.855	28854
561.054	28915.44
561.253	28593.91
561.453	28559.09
561.652	29011.7
561.851	29040.37
562.05	28817.14
562.249	28546.81
562.448	29112.05
562.647	28772.08
562.846	28868.34
563.045	28647.16
563.244	28243.71
563.443	28702.45
563.642	28612.34
563.841	28802.8
564.04	28784.37
564.239	28886.77
564.438	28628.73
564.637	28372.73
564.836	28583.67
565.035	28385.02
565.234	28714.74
565.432	28626.68
565.631	28493.56
565.83	28784.37
566.029	28401.4
566.228	28247.8
566.427	28405.5
566.625	28204.8
566.824	27844.35
567.023	28346.11
567.222	27864.83
567.42	28346.11
567.619	27913.98
567.818	28059.39
568.016	28108.54
568.215	28102.4
568.414	27870.98
568.612	28020.48
568.811	27916.03
569.01	27901.7
569.208	27672.32
569.407	28030.72
569.605	27455.24
569.804	27612.93
570.002	27445
570.201	27709.19
570.4	27381.51
570.598	27340.55
570.797	27326.22
570.995	27148.04
571.193	26924.82
571.392	27393.8
571.59	27053.84
571.789	27180.81
571.987	26914.58
572.186	26961.68
572.384	26799.89
572.582	26996.49
572.781	26808.08
572.979	26564.37
573.177	27051.79
573.376	26388.25
573.574	26165.02
573.772	26554.13
573.971	26289.95
574.169	26263.32
574.367	26210.07
574.565	26373.91
574.763	26177.31
574.962	26095.39
575.16	25759.52
575.358	26033.95
575.556	25726.75
575.754	25902.88
575.952	25392.94
576.151	25812.77
576.349	25392.94
576.547	25274.15
576.745	25661.22
576.943	25431.85
577.141	25347.88
577.339	25591.59
577.537	25157.42
577.735	25233.19
577.933	25175.85
578.131	24999.73
578.329	24702.77
578.527	24770.35
578.725	24661.81
578.923	24651.57
579.121	24479.54
579.319	24399.67
579.516	24629.04
579.714	24250.17
579.912	24487.73
580.11	24475.45
580.308	24182.59
580.506	24399.67
580.704	24072
580.901	24082.24
581.099	24221.5
581.297	24002.36
581.495	24147.77
581.692	23981.88
581.89	23564.1
582.088	23902.01
582.285	23596.87
582.483	23596.87
582.681	23723.84
582.878	23654.21
583.076	23261
583.274	23600.96
583.471	23269.19
583.669	23195.46
583.866	23086.92
584.064	23301.96
584.262	23091.02
584.459	23334.73
584.657	23058.25
584.854	23361.35
585.052	22818.64
585.249	22861.65
585.447	22759.25
585.644	22589.27
585.841	22583.12
586.039	22806.35
586.236	22619.99
586.434	22761.3
586.631	22611.79
586.828	22431.57
587.026	22251.35
587.223	22425.43
587.42	22222.68
587.618	22181.72
587.815	21960.54
588.012	22153.05
588.21	21837.66
588.407	22083.42
588.604	22171.48
588.801	21591.91
588.999	21931.87
589.196	21862.24
589.393	21839.71
589.59	21647.2
589.787	21624.67
589.984	21366.63
590.182	21622.62
590.379	21587.81
590.576	21444.45
590.773	21974.88
590.97	21155.69
591.167	21378.92
591.364	21090.15
591.561	21530.47
591.758	21180.26
591.955	21260.13
592.152	21368.68
592.349	21167.98
592.546	21299.05
592.743	21104.49
592.94	21088.1
593.137	21217.13
593.334	20967.27
593.531	20776.81
593.727	21147.5
593.924	21112.68
594.121	20772.72
594.318	20969.32
594.515	20698.99
594.712	20909.93
594.908	20660.08
595.105	20873.07
595.302	20379.51
595.499	20791.15
595.696	20889.45
595.892	20436.85
596.089	20731.76
596.286	20715.37
596.482	20529.01
596.679	20795.25
596.876	20483.95
597.072	20658.03
597.269	20373.36
597.466	20436.85
597.662	20486
597.859	20461.43
598.055	20356.98
598.252	20201.33
598.448	20191.09
598.645	20371.32
598.841	20377.46
599.038	20301.68
599.234	20404.08
599.431	20707.18
599.627	20660.08
599.824	20313.97
600.02	20131.7
600.217	20266.87
600.413	20453.23
600.609	20146.04
600.806	20305.78
601.002	20344.69
601.198	20305.78
601.395	20256.63
601.591	20100.98
601.787	20375.41
601.984	20295.54
602.18	20524.91
602.376	20451.19
602.572	20195.19
602.769	20399.99
602.965	20021.11
603.161	20346.74
603.357	20270.97
603.553	20412.28
603.75	20189.05
603.946	20041.59
604.142	20467.57
604.338	19918.71
604.534	20268.92
604.73	20150.14
604.926	20111.22
605.122	20776.81
605.318	20172.66
605.514	20207.48
605.71	20146.04
605.906	20494.19
606.102	20371.32
606.298	20164.47
606.494	20416.37
606.69	20285.3
606.886	20283.25
607.082	20131.7
607.278	20379.51
607.474	20393.84
607.67	20445.04
607.866	20227.96
608.062	20610.93
608.257	20137.85
608.453	20594.54
608.649	20385.65
608.845	20365.17
609.041	20520.82
609.236	20627.31
609.432	20385.65
609.628	20524.91
609.824	20578.16
610.019	20273.01
610.215	20598.64
610.411	20721.52
610.606	20467.57
610.802	20690.8
610.998	20780.91
611.193	20735.85
611.389	20531.06
611.584	20785.01
611.78	20383.6
611.976	20848.49
612.171	20959.08
612.367	20701.04
612.562	20496.24
612.758	20510.58
612.953	20594.54
613.149	20809.58
613.344	20594.54
613.539	20977.51
613.735	20875.12
613.93	20830.06
614.126	20660.08
614.321	20977.51
614.517	20838.25
614.712	20778.86
614.907	20742
615.103	20916.08
615.298	20752.24
615.493	20995.95
615.688	20336.5
615.884	20997.99
616.079	20602.74
616.274	20799.34
616.47	21038.95
616.665	20928.36
616.86	20590.45
617.055	20916.08
617.25	20486
617.445	20678.51
617.641	20449.14
617.836	20674.42
618.031	20363.12
618.226	20698.99
618.421	20191.09
618.616	20873.07
618.811	20502.39
619.006	20535.15
619.201	20422.52
619.396	20256.63
619.591	20057.98
619.786	20512.63
619.981	19922.81
620.176	20105.08
620.371	19842.94
620.566	19974.01
620.761	19763.07
620.956	20215.67
621.151	19548.03
621.346	20125.56
621.541	19767.17
621.735	19697.53
621.93	19634.05
622.125	19638.14
622.32	19212.17
622.515	19376
622.709	19398.53
622.904	19005.32
623.099	18972.55
623.294	19130.25
623.488	18849.68
623.683	18581.39
623.878	18403.22
624.072	18573.2
624.267	18687.89
624.462	18603.92
624.656	18263.96
624.851	18237.33
625.046	18161.56
625.24	18300.82
625.435	18055.06
625.629	18083.73
625.824	17999.77
626.018	18274.2
626.213	17543.07
626.407	17731.48
626.602	17739.68
626.796	17639.33
626.991	17680.28
627.185	17444.77
627.38	17381.28
627.574	17336.23
627.768	17153.96
627.963	16689.07
628.157	17057.7
628.352	16777.13
628.546	16615.34
628.74	17031.08
628.935	16521.13
629.129	16775.08
629.323	16451.5
629.517	16488.37
629.712	16187.32
629.906	16275.38
630.1	15994.81
630.294	16123.83
630.489	16029.62
630.683	16162.74
630.877	15841.21
631.071	15740.86
631.265	15886.26
631.459	15339.46
631.653	15609.79
631.848	15472.57
632.042	15402.94
632.236	15370.18
632.43	15245.25
632.624	15275.97
632.818	15159.24
633.012	15077.32
633.206	14931.91
633.4	14919.62
633.594	14626.76
633.788	14690.25
633.982	14733.26
634.176	14395.34
634.369	14424.01
634.563	14403.53
634.757	14485.45
634.951	14118.87
635.145	14211.03
635.339	14266.32
635.533	13998.04
635.726	14198.74
635.92	13813.72
636.114	13727.71
636.308	13971.41
636.501	13879.25
636.695	13674.46
636.889	13592.54
637.083	13619.16
637.276	13506.52
637.47	13338.59
637.664	13154.27
637.857	13379.55
638.051	13101.03
638.244	13021.16
638.438	13228
638.632	13033.44
638.825	12855.27
639.019	12750.82
639.212	12560.36
639.406	12707.82
639.599	12523.5
639.793	12515.31
639.986	12273.65
640.18	12388.33
640.373	12333.04
640.567	12191.73
640.76	12388.33
640.954	12058.61
641.147	12068.85
641.34	11864.05
641.534	11925.49
641.727	11939.83
641.92	11868.15
642.114	11735.03
642.307	11644.92
642.5	11696.12
642.694	11401.21
642.887	11343.87
643.08	11452.41
643.273	11284.48
643.467	11241.47
643.66	11186.18
643.853	11114.5
644.046	10934.28
644.239	11102.21
644.432	10948.61
644.626	10764.29
644.819	10899.46
645.012	10809.35
645.205	10608.65
645.398	10606.6
645.591	10610.7
645.784	10557.45
645.977	10154
646.17	10553.35
646.363	10397.71
646.556	10160.14
646.749	10270.73
646.942	10072.08
647.135	10033.17
647.328	9955.35
647.521	9924.63
647.714	9676.82
647.907	9750.55
648.099	9734.17
648.292	9637.91
648.485	9807.89
648.678	9496.6
648.871	9570.33
649.064	9560.09
649.256	9445.4
649.449	9420.83
649.642	9355.29
649.835	9062.43
650.027	9148.45
650.22	9211.93
650.413	9123.87
650.605	9050.14
650.798	9037.86
650.991	8804.39
651.183	8853.54
651.376	9013.28
651.568	8851.49
651.761	8738.85
651.954	8738.85
652.146	8679.46
652.339	8718.37
652.531	8579.11
652.724	8540.2
652.916	8439.85
653.109	8620.07
653.301	8392.75
653.494	8470.57
653.686	8482.86
653.879	8546.34
654.071	8245.29
654.263	8179.76
654.456	8237.1
654.648	8050.74
654.84	7977.01
655.033	8054.83
655.225	8046.64
655.417	8017.97
655.61	7911.47
655.802	8020.02
655.994	7772.21
656.186	7809.08
656.379	7940.15
656.571	7761.97
656.763	7606.33
656.955	7843.89
657.148	7522.36
657.34	7616.57
657.532	7548.98
657.724	7618.61
657.916	7452.73
658.108	7215.16
658.3	7442.49
658.492	7354.43
658.684	7286.84
658.876	7174.21
659.068	7059.52
659.26	7235.64
659.452	7055.42
659.644	6993.98
659.836	7063.61
660.028	6922.31
660.22	6899.78
660.412	6887.49
660.604	6824
660.796	6891.59
660.988	6901.83
661.18	6674.5
661.372	6611.01
661.563	6805.57
661.755	6559.81
661.947	6527.05
662.139	6387.79
662.331	6426.7
662.522	6514.76
662.714	6481.99
662.906	6506.57
663.097	6342.73
663.289	6408.26
663.481	6486.09
663.673	6297.67
663.864	6215.76
664.056	6191.18
664.247	6109.26
664.439	6121.55
664.631	6248.52
664.822	6201.42
665.014	6029.39
665.205	5961.81
665.397	5818.45
665.588	5996.62
665.78	5945.42
665.971	5777.49
666.163	5896.27
666.354	5840.98
666.546	5785.68
666.737	5806.16
666.929	5777.49
667.12	5736.53
667.311	5584.98
667.503	5582.93
667.694	5699.67
667.885	5539.93
668.077	5605.46
668.268	5482.58
668.459	5546.07
668.651	5599.32
668.842	5498.97
669.033	5294.17
669.224	5382.23
669.416	5548.12
669.607	5310.55
669.798	5507.16
669.989	5371.99
670.18	5245.02
670.371	5228.63
670.563	5191.77
670.754	5294.17
670.945	5097.56
671.136	5185.63
671.327	5099.61
671.518	4962.4
671.709	5138.52
671.9	5220.44
672.091	5007.45
672.282	5015.65
672.473	4995.17
672.664	5068.89
672.855	4909.15
673.046	5064.8
673.237	4943.97
673.428	4976.73
673.619	4939.87
673.809	4681.83
674	4925.54
674.191	4827.23
674.382	4929.63
674.573	4905.06
674.764	4857.95
674.954	4853.86
675.145	4753.51
675.336	4771.94
675.527	4839.52
675.717	4878.43
675.908	4698.21
676.099	4720.74
676.289	4556.9
676.48	4837.47
676.671	4786.27
676.861	4597.86
677.052	4626.53
677.243	4561
677.433	4565.09
677.624	4792.42
677.814	4610.15
678.005	4704.35
678.195	4651.11
678.386	4612.2
678.576	4610.15
678.767	4540.52
678.957	4622.44
679.148	4505.7
679.338	4612.2
679.529	4528.23
679.719	4458.6
679.909	4710.5
680.1	4517.99
680.29	4429.93
680.481	4407.4
680.671	4395.11
680.861	4438.12
681.052	4581.48
681.242	4339.82
681.432	4401.26
681.622	4401.26
681.813	4391.02
682.003	4343.91
682.193	4466.79
682.383	4450.41
682.573	4356.2
682.764	4393.06
682.954	4507.75
683.144	4313.19
683.334	4376.68
683.524	4286.57
683.714	4384.87
683.904	4288.62
684.094	4266.09
684.284	4315.24
684.474	4323.43
684.664	4288.62
684.854	4354.15
685.044	4348.01
685.234	4223.08
685.424	4237.42
685.614	4294.76
685.804	4247.66
685.994	4204.65
686.184	4175.98
686.374	4102.25
686.564	4315.24
686.753	4098.16
686.943	4268.14
687.133	4247.66
687.323	4081.77
687.513	4159.6
687.702	4034.67
687.892	4112.49
688.082	4153.45
688.272	4102.25
688.461	4180.07
688.651	4008.05
688.841	4083.82
689.03	4053.1
689.22	3987.57
689.41	3985.52
689.599	4028.53
689.789	4018.29
689.979	3969.13
690.168	3915.89
690.358	3827.82
690.547	3917.93
690.737	3829.87
690.926	3926.13
691.116	3850.35
691.305	3852.4
691.495	3741.81
691.684	3780.72
691.874	3807.34
692.063	3815.54
692.252	3889.26
692.442	3682.42
692.631	3713.14
692.82	3625.08
693.01	3868.78
693.199	3844.21
693.388	3643.51
693.578	3698.8
693.767	3647.6
693.956	3776.63
694.146	3627.12
694.335	3715.19
694.524	3537.01
694.713	3584.12
694.902	3491.96
695.092	3418.23
695.281	3483.77
695.47	3608.69
695.659	3620.98
695.848	3479.67
696.037	3551.35
696.226	3567.73
696.415	3559.54
696.604	3545.2
696.793	3465.33
696.982	3600.5
697.171	3451
697.36	3424.37
697.549	3557.49
697.738	3461.24
697.927	3444.85
698.116	3393.65
698.305	3516.53
698.494	3313.78
698.683	3373.18
698.872	3340.41
699.061	3262.58
699.25	3336.31
699.438	3262.58
699.627	3287.16
699.816	3278.97
700.005	3180.67
700.193	3174.52
700.382	3295.35
700.571	3274.87
700.76	3262.58
700.948	3264.63
701.137	3197.05
701.326	3264.63
701.514	3199.1
701.703	3281.02
701.892	3270.78
702.08	3176.57
702.269	3207.29
702.457	3172.47
702.646	3186.81
702.834	3045.5
703.023	3104.89
703.212	3070.08
703.4	3053.69
703.589	3156.09
703.777	3027.07
703.965	2963.58
704.154	3125.37
704.342	3035.26
704.531	3131.51
704.719	2934.91
704.907	2990.21
705.096	2959.49
705.284	2982.01
705.472	3035.26
705.661	2912.38
705.849	3014.78
706.037	2969.73
706.226	3041.4
706.414	3025.02
706.602	2852.99
706.79	3016.83
706.979	2775.17
707.167	2900.09
707.355	2746.5
707.543	2912.38
707.731	2885.76
707.919	2848.9
708.107	2795.65
708.296	2779.26
708.484	2885.76
708.672	2766.98
708.86	2785.41
709.048	2699.39
709.236	2723.97
709.424	2926.72
709.612	2660.48
709.8	2713.73
709.988	2779.26
710.176	2781.31
710.364	2805.89
710.551	2803.84
710.739	2699.39
710.927	2674.82
711.115	2740.35
711.303	2650.24
711.491	2687.11
711.679	2629.76
711.866	2709.63
712.054	2699.39
712.242	2627.71
712.43	2828.42
712.617	2605.19
712.805	2502.79
712.993	2627.71
713.181	2560.13
713.368	2601.09
713.556	2558.08
713.744	2533.51
713.931	2644.1
714.119	2568.32
714.306	2611.33
714.494	2562.18
714.682	2465.93
714.869	2533.51
715.057	2558.08
715.244	2537.6
715.432	2467.97
715.619	2603.14
715.807	2443.4
715.994	2566.28
716.182	2404.49
716.369	2451.59
716.556	2451.59
716.744	2422.92
716.931	2361.48
717.119	2459.78
717.306	2373.77
717.493	2394.25
717.681	2320.52
717.868	2347.14
718.055	2472.07
718.242	2244.74
718.43	2369.67
718.617	2246.79
718.804	2263.18
718.991	2404.49
719.179	2293.9
719.366	2308.23
719.553	2334.86
719.74	2275.46
719.927	2381.96
720.114	2312.33
720.301	2281.61
720.488	2271.37
720.676	2285.7
720.863	2295.94
721.05	2345.09
721.237	2287.75
721.424	2230.41
721.611	2289.8
721.798	2130.06
721.985	2226.31
722.172	2203.79
722.358	2254.98
722.545	2125.96
722.732	2115.72
722.919	2119.82
723.106	2189.45
723.293	2103.43
723.48	2099.34
723.667	2099.34
723.853	2158.73
724.04	2097.29
724.227	2134.15
724.414	2125.96
724.6	2080.91
724.787	2166.92
724.974	2220.17
725.161	2037.9
725.347	2023.56
725.534	2021.52
725.72	2035.85
725.907	1931.41
726.094	2136.2
726.28	1845.39
726.467	1992.84
726.653	2019.47
726.84	2048.14
727.027	2009.23
727.213	2027.66
727.4	1984.65
727.586	1984.65
727.773	1937.55
727.959	2027.66
728.145	1992.84
728.332	1929.36
728.518	1837.2
728.705	2031.76
728.891	1857.68
729.077	1953.93
729.264	1863.82
729.45	1841.29
729.636	1882.25
729.823	1941.65
730.009	1935.5
730.195	1894.54
730.382	2027.66
730.568	1775.76
730.754	1955.98
730.94	1788.05
731.126	1884.3
731.313	1882.25
731.499	1931.41
731.685	1910.93
731.871	1826.96
732.057	1755.28
732.243	1896.59
732.429	1740.94
732.615	1861.77
732.801	1771.66
732.987	1829.01
733.173	1935.5
733.359	1749.14
733.545	1816.72
733.731	1808.53
733.917	1749.14
734.103	1781.9
734.289	1779.86
734.475	1757.33
734.661	1837.2
734.847	1771.66
735.033	1755.28
735.219	1738.9
735.404	1730.7
735.59	1755.28
735.776	1798.29
735.962	1720.46
736.148	1804.43
736.333	1742.99
736.519	1708.18
736.705	1730.7
736.89	1745.04
737.076	1642.64
737.262	1702.03
737.447	1618.07
737.633	1530
737.819	1568.91
738.004	1644.69
738.19	1734.8
738.375	1695.89
738.561	1683.6
738.747	1661.07
738.932	1570.96
739.118	1640.59
739.303	1609.87
739.489	1575.06
739.674	1540.24
739.859	1525.91
740.045	1587.35
740.23	1521.81
740.416	1487
740.601	1505.43
740.786	1579.15
740.972	1521.81
741.157	1560.72
741.342	1476.76
741.528	1435.8
741.713	1452.18
741.898	1493.14
742.084	1546.39
742.269	1525.91
742.454	1470.61
742.639	1544.34
742.824	1454.23
743.01	1558.67
743.195	1536.15
743.38	1548.44
743.565	1405.08
743.75	1468.56
743.935	1480.85
744.12	1419.41
744.305	1362.07
744.49	1396.89
744.675	1489.04
744.86	1443.99
745.045	1394.84
745.23	1421.46
745.415	1372.31
745.6	1411.22
745.785	1271.96
745.97	1329.3
746.155	1364.12
746.34	1415.32
746.525	1321.11
746.71	1364.12
746.895	1257.62
747.079	1345.69
747.264	1290.39
747.449	1214.62
747.634	1382.55
747.819	1208.47
748.003	1284.25
748.188	1259.67
748.373	1276.06
748.557	1286.3
748.742	1233.05
748.927	1212.57
749.111	1259.67
749.296	1253.53
749.481	1222.81
749.665	1247.38
749.85	1202.33
750.034	1228.95
750.219	1181.85
750.404	1165.46
750.588	1159.32
750.773	1073.31
750.957	1122.46
751.141	1173.66
751.326	1108.12
751.51	1022.11
751.695	1095.83
751.879	1020.06
752.064	1165.46
752.248	1018.01
752.432	1091.74
752.617	1069.21
752.801	1210.52
752.985	1114.27
753.17	1046.68
753.354	1067.16
753.538	1001.63
753.722	993.44
753.907	1067.16
754.091	987.29
754.275	1042.59
754.459	968.86
754.643	944.28
754.828	1058.97
755.012	987.29
755.196	932
755.38	923.8
755.564	981.15
755.748	960.67
755.932	1048.73
756.116	845.98
756.3	934.04
756.484	899.23
756.668	948.38
756.852	940.19
757.036	940.19
757.22	899.23
757.404	932
757.588	891.04
757.772	850.08
757.956	895.13
758.14	886.94
758.323	829.6
758.507	886.94
758.691	825.5
758.875	921.76
759.059	878.75
759.242	725.15
759.426	725.15
759.61	829.6
759.794	741.54
759.977	809.12
760.161	960.67
760.345	805.02
760.528	780.45
760.712	747.68
760.895	776.35
761.079	776.35
761.263	762.02
761.446	823.45
761.63	682.14
761.813	743.58
761.997	764.06
762.18	716.96
762.364	805.02
762.547	751.78
762.731	794.78
762.914	727.2
763.098	692.38
763.281	772.25
763.464	721.06
763.648	661.66
763.831	655.52
764.015	723.1
764.198	719.01
764.381	743.58
764.564	714.91
764.748	651.42
764.931	731.3
765.114	624.8
765.297	667.81
765.481	583.84
765.664	682.14
765.847	637.09
766.03	712.86
766.213	688.29
766.397	651.42
766.58	667.81
766.763	632.99
766.946	620.71
767.129	723.1
767.312	700.58
767.495	766.11
767.678	628.9
767.861	616.61
768.044	700.58
768.227	536.74
768.41	544.93
768.593	624.8
768.776	700.58
768.959	610.47
769.142	669.86
769.324	618.66
769.507	618.66
769.69	567.46
769.873	632.99
770.056	635.04
770.239	583.84
770.421	649.38
770.604	583.84
770.787	592.03
770.97	608.42
771.152	665.76
771.335	661.66
771.518	514.21
771.7	667.81
771.883	651.42
772.066	526.5
772.248	526.5
772.431	643.23
772.613	571.55
772.796	612.51
772.978	661.66
773.161	610.47
773.343	538.79
773.526	463.01
773.708	526.5
773.891	497.83
774.073	489.64
774.256	559.27
774.438	561.31
774.621	452.77
774.803	569.51
774.985	444.58
775.168	534.69
775.35	559.27
775.532	493.73
775.715	452.77
775.897	471.2
776.079	481.44
776.261	503.97
776.444	514.21
776.626	493.73
776.808	483.49
776.99	542.88
777.173	477.35
777.355	471.2
777.537	446.63
777.719	471.2
777.901	495.78
778.083	450.72
778.265	432.29
778.447	493.73
778.629	475.3
778.811	524.45
778.993	530.59
779.175	477.35
779.357	432.29
779.539	458.92
779.721	465.06
779.903	387.24
780.085	411.81
780.267	452.77
780.449	508.07
780.631	432.29
780.812	436.39
780.994	409.76
781.176	424.1
781.358	463.01
781.54	403.62
781.721	383.14
781.903	501.92
782.085	356.52
782.267	370.85
782.448	424.1
782.63	430.24
782.812	432.29
782.993	383.14
783.175	391.33
783.357	387.24
783.538	405.67
783.72	319.65
783.901	338.09
784.083	346.28
784.264	360.61
784.446	280.74
784.627	379.04
784.809	336.04
784.99	374.95
785.172	338.09
785.353	325.8
785.535	422.05
785.716	268.45
785.897	272.55
786.079	364.71
786.26	299.17
786.441	366.76
786.623	278.69
786.804	338.09
786.985	340.13
787.167	354.47
787.348	272.55
787.529	278.69
787.71	280.74
787.891	305.32
788.073	219.3
788.254	231.59
788.435	336.04
788.616	301.22
788.797	231.59
788.978	223.4
789.159	231.59
789.34	260.26
789.522	233.64
789.703	190.63
789.884	252.07
790.065	229.54
790.246	223.4
790.427	256.17
790.607	258.21
790.788	317.61
790.969	192.68
791.15	258.21
791.331	180.39
791.512	215.21
791.693	268.45
791.874	305.32
792.054	247.97
792.235	196.78
792.416	231.59
792.597	235.69
792.778	297.13
792.958	247.97
793.139	184.49
793.32	221.35
793.5	190.63
793.681	276.65
793.862	233.64
794.042	207.02
794.223	231.59
794.404	194.73
794.584	186.54
794.765	243.88
794.945	219.3
795.126	268.45
795.306	215.21
795.487	186.54
795.667	192.68
795.848	149.67
796.028	166.06
796.209	256.17
796.389	239.78
796.57	276.65
796.75	166.06
796.93	184.49
797.111	215.21
797.291	121
797.471	241.83
797.652	194.73
797.832	219.3
798.012	182.44
798.192	137.38
798.373	104.62
798.553	217.26
798.733	174.25
798.913	135.34
799.093	184.49
799.274	202.92
799.454	174.25
799.634	182.44
799.814	264.36
799.994	129.19
800.174	190.63
800.354	157.86
800.534	80.04
800.714	153.77
800.894	153.77
801.074	106.67
801.254	116.9
801.434	202.92
801.614	157.86
801.794	88.23
801.974	823.45
802.154	131.24
802.334	61.61
802.514	90.28
802.693	186.54
802.873	96.43
803.053	290.98
803.233	196.78
803.413	123.05
803.592	135.34
803.772	151.72
803.952	172.2
804.131	84.14
804.311	116.9
804.491	182.44
804.67	108.71
804.85	151.72
805.03	102.57
805.209	92.33
805.389	131.24
805.568	125.1
805.748	127.14
805.928	106.67
806.107	57.51
806.287	168.1
806.466	137.38
806.646	86.19
806.825	131.24
807.004	88.23
807.184	110.76
807.363	153.77
807.543	75.95
807.722	141.48
807.901	133.29
808.081	149.67
808.26	47.27
808.439	188.58
808.619	141.48
808.798	151.72
808.977	157.86
809.156	161.96
809.336	104.62
809.515	137.38
809.694	110.76
809.873	18.6
810.052	51.37
810.231	75.95
810.411	88.23
810.59	127.14
810.769	141.48
810.948	75.95
811.127	18.6
811.306	90.28
811.485	116.9
811.664	157.86
811.843	82.09
812.022	137.38
812.201	129.19
812.38	127.14
812.559	133.29
812.737	137.38
812.916	59.56
813.095	71.85
813.274	96.43
813.453	92.33
813.632	127.14
813.811	129.19
813.989	59.56
814.168	125.1
814.347	24.75
814.526	49.32
814.704	110.76
814.883	112.81
815.062	30.89
815.24	112.81
815.419	-1.88
815.598	110.76
815.776	96.43
815.955	45.23
816.133	30.89
816.312	47.27
816.49	71.85
816.669	26.79
816.847	47.27
817.026	145.58
817.204	84.14
817.383	112.81
817.561	110.76
817.74	116.9
817.918	123.05
818.097	77.99
818.275	116.9
818.453	77.99
818.632	112.81
818.81	49.32
818.988	43.18
819.167	61.61
819.345	26.79
819.523	55.47
819.701	139.43
819.879	2.22
820.058	24.75
820.236	116.9
820.414	53.42
820.592	16.55
820.77	129.19
820.948	53.42
821.127	67.75
821.305	137.38
821.483	20.65
821.661	96.43
821.839	34.99
822.017	34.99
822.195	67.75
822.373	149.67
822.551	51.37
822.729	161.96
822.907	77.99
823.085	63.66
823.262	59.56
823.44	43.18
823.618	14.51
823.796	51.37
823.974	61.61
824.152	67.75
824.329	-14.17
824.507	18.6
824.685	51.37
824.863	127.14
825.04	24.75
825.218	118.95
825.396	51.37
825.574	92.33
825.751	26.79
825.929	37.03
826.107	-30.55
826.284	75.95
826.462	39.08
826.639	100.52
826.817	-14.17
826.994	-5.97
827.172	34.99
827.349	53.42
827.527	100.52
827.704	61.61
827.882	34.99
828.059	37.03
828.237	16.55
828.414	75.95
828.591	26.79
828.769	55.47
828.946	67.75
829.124	71.85
829.301	86.19
829.478	53.42
829.655	135.34
829.833	55.47
830.01	12.46
830.187	-12.12
830.364	55.47
830.542	34.99
830.719	108.71
830.896	100.52
831.073	51.37
831.25	108.71
831.427	26.79
831.604	88.23
831.782	18.6
831.959	45.23
832.136	34.99
832.313	-22.36
832.49	18.6
832.667	55.47
832.844	18.6
833.021	71.85
833.198	59.56
833.374	80.04
833.551	45.23
833.728	-36.69
833.905	116.9
834.082	6.31
834.259	69.8
834.436	-28.5
834.612	-51.03
834.789	92.33
834.966	43.18
835.143	-44.88
835.319	-18.26
835.496	69.8
835.673	10.41
835.85	75.95
836.026	51.37
836.203	32.94
836.38	-14.17
836.556	59.56
836.733	28.84
836.909	18.6
837.086	12.46
837.262	-65.36
837.439	20.65
837.616	2.22
837.792	51.37
837.968	26.79
838.145	-22.36
838.321	-3.93
838.498	59.56
838.674	133.29
838.851	-1.88
839.027	39.08
839.203	37.03
839.38	63.66
839.556	-30.55
839.732	118.95
839.909	77.99
840.085	116.9
840.261	20.65
840.437	39.08
840.614	75.95
840.79	-53.08
840.966	39.08
841.142	43.18
841.318	12.46
841.494	14.51
841.671	-3.93
841.847	30.89
842.023	43.18
842.199	6.31
842.375	30.89
842.551	-8.02
842.727	-14.17
842.903	39.08
843.079	43.18
843.255	37.03
843.431	-5.97
843.607	65.71
843.783	-61.27
843.959	-14.17
844.134	-57.17
844.31	12.46
844.486	-30.55
844.662	-20.31
844.838	-5.97
845.013	20.65
845.189	47.27
845.365	6.31
845.541	12.46
845.716	45.23
845.892	37.03
846.068	55.47
846.244	-28.5
846.419	53.42
846.595	-91.99
846.77	10.41
846.946	22.7
847.122	4.27
847.297	-16.21
847.473	100.52
847.648	6.31
847.824	59.56
847.999	-108.37
848.175	26.79
848.35	-16.21
848.526	-1.88
848.701	49.32
848.876	100.52
849.052	12.46
849.227	-38.74
849.403	69.8
849.578	18.6
849.753	-1.88
849.929	26.79
850.104	-75.6
850.279	-57.17
850.454	-22.36
850.63	26.79
850.805	10.41
850.98	121
851.155	2.22
851.33	-12.12
851.505	37.03
851.681	77.99
851.856	-48.98
852.031	14.51
852.206	-94.04
852.381	-28.5
852.556	2.22
852.731	-5.97
852.906	20.65
853.081	22.7
853.256	26.79
853.431	-59.22
853.606	10.41
853.781	65.71
853.956	-51.03
854.131	-10.07
854.305	-10.07
854.48	-100.18
854.655	34.99
854.83	-5.97
855.005	30.89
855.18	69.8
855.354	-116.56
855.529	18.6
855.704	-5.97
855.879	-12.12
856.053	-10.07
856.228	-36.69
856.403	-30.55
856.577	28.84
856.752	-128.85
856.926	12.46
857.101	-14.17
857.276	-42.84
857.45	20.65
857.625	61.61
857.799	26.79
857.974	-53.08
858.148	-55.12
858.323	82.09
858.497	-36.69
858.672	-5.97
858.846	-30.55
859.02	45.23
859.195	-77.65
859.369	26.79
859.543	-5.97
859.718	37.03
859.892	-8.02
860.066	39.08
860.241	-26.45
860.415	-20.31
860.589	-28.5
860.763	73.9
860.938	-42.84
861.112	-10.07
861.286	-24.4
861.46	26.79
861.634	6.31
861.808	53.42
861.982	-69.46
862.157	2.22
862.331	-14.17
862.505	2.22
862.679	-59.22
862.853	-34.64
863.027	-10.07
863.201	-12.12
863.375	-22.36
863.549	6.31
863.722	-30.55
863.896	59.56
864.07	-55.12
864.244	-36.69
864.418	-3.93
864.592	-18.26
864.766	28.84
864.939	51.37
865.113	-51.03
865.287	2.22
865.461	-48.98
865.634	-38.74
865.808	-22.36
865.982	-1.88
866.156	-53.08
866.329	-14.17
866.503	-63.32
866.676	-14.17
866.85	10.41
867.024	-14.17
867.197	4.27
867.371	-44.88
867.544	43.18
867.718	-16.21
867.891	30.89
868.065	-20.31
868.238	-30.55
868.412	67.75
868.585	-34.64
868.759	-20.31
868.932	34.99
869.105	37.03
869.279	10.41
869.452	-63.32
869.625	26.79
869.799	-36.69
869.972	28.84
870.145	32.94
870.319	22.7
870.492	-5.97
870.665	-22.36
870.838	-5.97
871.011	-67.41
871.185	-14.17
871.358	-46.93
871.531	-79.7
871.704	4.27
871.877	18.6
872.05	-10.07
872.223	-5.97
872.396	-10.07
872.569	-34.64
872.742	-36.69
872.915	47.27
873.088	-71.51
873.261	30.89
873.434	18.6
873.607	34.99
873.78	34.99
873.953	-79.7
874.126	-32.6
874.299	-20.31
874.471	-22.36
874.644	-69.46
874.817	18.6
874.99	28.84
875.163	-77.65
875.335	-55.12
875.508	4.27
875.681	-20.31
875.853	6.31
876.026	-67.41
876.199	28.84
876.371	-55.12
876.544	12.46
876.717	-87.89
876.889	-126.8
877.062	4.27
877.234	-57.17
877.407	-26.45
877.579	-69.46
877.752	-67.41
877.924	-20.31
878.097	-20.31
878.269	-79.7
878.442	-79.7
878.614	-26.45
878.786	-1.88
878.959	-20.31
879.131	-28.5
879.303	51.37
879.476	-36.69
879.648	-10.07
879.82	-38.74
879.993	-104.28
880.165	39.08
880.337	-110.42
880.509	51.37
880.681	-104.28
880.854	-34.64
881.026	43.18
881.198	37.03
881.37	-20.31
881.542	10.41
881.714	-51.03
881.886	-10.07
882.058	-63.32
882.23	-63.32
882.402	37.03
882.574	-5.97
882.746	2.22
882.918	61.61
883.09	-53.08
883.262	-18.26
883.434	-28.5
883.606	-48.98
883.778	-22.36
883.95	59.56
884.122	-20.31
884.293	45.23
884.465	26.79
884.637	20.65
884.809	-87.89
884.98	-22.36
885.152	-5.97
885.324	2.22
885.496	-24.4
885.667	-65.36
885.839	2.22
886.011	12.46
886.182	26.79
886.354	-16.21
886.525	26.79
886.697	-12.12
886.869	-28.5
887.04	-18.26
887.212	102.57
887.383	49.32
887.555	-26.45
887.726	-61.27
887.897	-42.84
888.069	-65.36
888.24	-18.26
888.412	-65.36
888.583	-28.5
888.754	-8.02
888.926	-1.88
889.097	-79.7
889.268	-51.03
889.44	14.51
889.611	-48.98
889.782	-79.7
889.953	-96.08
890.125	-26.45
890.296	-28.5
890.467	-46.93
890.638	-32.6
890.809	6.31
890.98	-26.45
891.151	-44.88
891.323	0.17
891.494	-36.69
891.665	-53.08
891.836	26.79
892.007	-44.88
892.178	18.6
892.349	28.84
892.52	-1.88
892.691	-10.07
892.862	18.6
893.032	-71.51
893.203	-77.65
893.374	6.31
893.545	2.22
893.716	-42.84
893.887	4.27
894.057	53.42
894.228	-20.31
894.399	-46.93
894.57	37.03
894.74	-12.12
894.911	-26.45
895.082	-53.08
895.253	-36.69
895.423	-1.88
895.594	-1.88
895.764	88.23
895.935	2.22
896.106	-38.74
896.276	-30.55
896.447	-12.12
896.617	28.84
896.788	-73.56
896.958	4.27
897.129	-36.69
897.299	-30.55
897.47	43.18
897.64	-42.84
897.81	-5.97
897.981	-42.84
898.151	-42.84
898.322	22.7
898.492	16.55
898.662	-22.36
898.832	-30.55
899.003	-3.93
899.173	-10.07
899.343	-75.6
899.513	-53.08
