Data from USB4F104151__80__14-30-33-498.txt Node

Date: Thu Mar 13 14:30:33 EDT 2025
User: louis
Spectrometer: USB4F10415
Trigger mode: 4
Integration Time (sec): 2.500000E-2
Scans to average: 1
Electric dark correction enabled: true
Nonlinearity correction enabled: false
Boxcar width: 0
XAxis mode: Wavelengths
Number of Pixels in Spectrum: 3648
>>>>>Begin Spectral Data<<<<<
178.204	-120.15
178.424	-120.15
178.644	-120.15
178.864	-128.34
179.084	-85.33
179.304	-40.28
179.524	15.02
179.744	-19.8
179.964	58.03
180.184	-3.41
180.404	17.07
180.624	-7.51
180.844	2.73
181.064	-52.56
181.283	-40.28
181.503	8.87
181.723	62.12
181.943	-27.99
182.163	51.88
182.383	33.45
182.602	76.46
182.822	-25.94
183.042	19.11
183.262	78.51
183.482	17.07
183.701	8.87
183.921	2.73
184.141	-40.28
184.361	23.21
184.58	43.69
184.8	66.22
185.02	35.5
185.239	-7.51
185.459	19.11
185.679	109.23
185.898	41.64
186.118	17.07
186.338	31.4
186.557	45.74
186.777	25.26
186.997	-48.47
187.216	76.46
187.436	94.89
187.655	27.31
187.875	58.03
188.095	66.22
188.314	66.22
188.534	109.23
188.753	37.55
188.973	35.5
189.192	94.89
189.412	25.26
189.631	10.92
189.851	-27.99
190.07	101.03
190.29	-44.37
190.509	66.22
190.729	-13.65
190.948	111.27
191.168	187.05
191.387	74.41
191.607	-56.66
191.826	8.87
192.045	4.78
192.265	2.73
192.484	0.68
192.704	-32.08
192.923	-7.51
193.142	70.31
193.362	82.6
193.581	86.7
193.8	10.92
194.02	53.93
194.239	35.5
194.458	84.65
194.678	29.35
194.897	115.37
195.116	12.97
195.335	62.12
195.555	90.79
195.774	-13.65
195.993	51.88
196.212	-3.41
196.432	15.02
196.651	92.84
196.87	101.03
197.089	86.7
197.308	82.6
197.528	17.07
197.747	-19.8
197.966	-44.37
198.185	148.14
198.404	68.27
198.623	25.26
198.842	2.73
199.062	43.69
199.281	62.12
199.5	98.99
199.719	2.73
199.938	8.87
200.157	82.6
200.376	0.68
200.595	78.51
200.814	23.21
201.033	12.97
201.252	8.87
201.471	94.89
201.69	86.7
201.909	47.79
202.128	-56.66
202.347	43.69
202.566	101.03
202.785	6.83
203.004	21.16
203.223	107.18
203.442	-17.75
203.661	43.69
203.879	35.5
204.098	47.79
204.317	-23.89
204.536	25.26
204.755	78.51
204.974	47.79
205.193	33.45
205.411	107.18
205.63	-3.41
205.849	-7.51
206.068	51.88
206.287	94.89
206.505	-17.75
206.724	92.84
206.943	-7.51
207.162	41.64
207.381	25.26
207.599	78.51
207.818	76.46
208.037	27.31
208.255	53.93
208.474	0.68
208.693	37.55
208.911	125.61
209.13	-23.89
209.349	53.93
209.567	-32.08
209.786	88.75
210.005	105.13
210.223	19.11
210.442	-60.76
210.661	68.27
210.879	62.12
211.098	-3.41
211.316	66.22
211.535	94.89
211.753	92.84
211.972	82.6
212.191	51.88
212.409	0.68
212.628	41.64
212.846	-7.51
213.065	60.07
213.283	92.84
213.502	27.31
213.72	41.64
213.938	82.6
214.157	8.87
214.375	39.59
214.594	21.16
214.812	17.07
215.031	27.31
215.249	29.35
215.467	39.59
215.686	-34.13
215.904	45.74
216.122	0.68
216.341	131.75
216.559	43.69
216.778	74.41
216.996	68.27
217.214	101.03
217.432	82.6
217.651	-21.84
217.869	-15.7
218.087	53.93
218.306	55.98
218.524	19.11
218.742	41.64
218.96	2.73
219.179	0.68
219.397	101.03
219.615	103.08
219.833	98.99
220.051	29.35
220.27	12.97
220.488	35.5
220.706	123.56
220.924	-23.89
221.142	15.02
221.36	41.64
221.578	107.18
221.796	49.83
222.015	45.74
222.233	37.55
222.451	123.56
222.669	49.83
222.887	37.55
223.105	-85.33
223.323	37.55
223.541	15.02
223.759	33.45
223.977	23.21
224.195	125.61
224.413	37.55
224.631	82.6
224.849	45.74
225.067	53.93
225.285	66.22
225.503	-46.42
225.721	-64.85
225.939	58.03
226.157	8.87
226.375	82.6
226.592	-3.41
226.81	-52.56
227.028	66.22
227.246	193.19
227.464	17.07
227.682	66.22
227.9	123.56
228.117	29.35
228.335	-23.89
228.553	8.87
228.771	86.7
228.989	150.18
229.206	58.03
229.424	41.64
229.642	4.78
229.86	-54.61
230.077	98.99
230.295	94.89
230.513	62.12
230.731	25.26
230.948	64.17
231.166	21.16
231.384	25.26
231.601	-40.28
231.819	12.97
232.037	31.4
232.254	-32.08
232.472	6.83
232.689	66.22
232.907	84.65
233.125	43.69
233.342	8.87
233.56	-32.08
233.777	62.12
233.995	4.78
234.213	94.89
234.43	43.69
234.648	-23.89
234.865	74.41
235.083	101.03
235.3	90.79
235.518	17.07
235.735	84.65
235.953	133.8
236.17	82.6
236.388	35.5
236.605	92.84
236.822	107.18
237.04	25.26
237.257	-15.7
237.475	2.73
237.692	60.07
237.909	41.64
238.127	88.75
238.344	78.51
238.562	19.11
238.779	-32.08
238.996	43.69
239.214	37.55
239.431	76.46
239.648	-36.18
239.865	41.64
240.083	55.98
240.3	19.11
240.517	17.07
240.735	10.92
240.952	107.18
241.169	82.6
241.386	-40.28
241.603	78.51
241.821	17.07
242.038	98.99
242.255	154.28
242.472	-7.51
242.689	84.65
242.907	180.9
243.124	8.87
243.341	33.45
243.558	-11.61
243.775	55.98
243.992	-13.65
244.209	58.03
244.426	6.83
244.643	86.7
244.86	62.12
245.078	107.18
245.295	70.31
245.512	8.87
245.729	96.94
245.946	0.68
246.163	37.55
246.38	-30.04
246.597	-13.65
246.814	21.16
247.031	90.79
247.248	66.22
247.464	19.11
247.681	90.79
247.898	66.22
248.115	64.17
248.332	66.22
248.549	115.37
248.766	78.51
248.983	90.79
249.2	-13.65
249.417	84.65
249.633	39.59
249.85	17.07
250.067	62.12
250.284	62.12
250.501	8.87
250.717	19.11
250.934	53.93
251.151	33.45
251.368	-5.46
251.585	68.27
251.801	39.59
252.018	25.26
252.235	105.13
252.451	41.64
252.668	8.87
252.885	76.46
253.102	76.46
253.318	49.83
253.535	-42.32
253.752	8.87
253.968	21.16
254.185	43.69
254.401	19.11
254.618	92.84
254.835	53.93
255.051	55.98
255.268	43.69
255.484	10.92
255.701	-42.32
255.917	49.83
256.134	-23.89
256.351	84.65
256.567	-15.7
256.784	-13.65
257	25.26
257.217	64.17
257.433	66.22
257.65	4.78
257.866	74.41
258.082	41.64
258.299	62.12
258.515	70.31
258.732	12.97
258.948	68.27
259.165	88.75
259.381	8.87
259.597	-19.8
259.814	21.16
260.03	84.65
260.246	72.36
260.463	43.69
260.679	82.6
260.895	21.16
261.112	76.46
261.328	8.87
261.544	25.26
261.761	156.33
261.977	58.03
262.193	-7.51
262.409	6.83
262.626	33.45
262.842	17.07
263.058	-3.41
263.274	62.12
263.49	107.18
263.707	78.51
263.923	45.74
264.139	58.03
264.355	0.68
264.571	58.03
264.787	-13.65
265.004	53.93
265.22	60.07
265.436	-15.7
265.652	76.46
265.868	74.41
266.084	78.51
266.3	43.69
266.516	19.11
266.732	37.55
266.948	49.83
267.164	90.79
267.38	90.79
267.596	41.64
267.812	105.13
268.028	27.31
268.244	29.35
268.46	74.41
268.676	45.74
268.892	60.07
269.108	-36.18
269.324	41.64
269.54	29.35
269.756	90.79
269.972	-5.46
270.188	74.41
270.403	25.26
270.619	17.07
270.835	70.31
271.051	10.92
271.267	35.5
271.483	25.26
271.698	90.79
271.914	117.42
272.13	58.03
272.346	-5.46
272.562	41.64
272.777	78.51
272.993	123.56
273.209	35.5
273.425	31.4
273.64	25.26
273.856	80.55
274.072	96.94
274.287	-46.42
274.503	92.84
274.719	68.27
274.934	35.5
275.15	82.6
275.366	84.65
275.581	8.87
275.797	90.79
276.012	39.59
276.228	12.97
276.444	53.93
276.659	76.46
276.875	25.26
277.09	51.88
277.306	49.83
277.521	8.87
277.737	41.64
277.952	66.22
278.168	137.9
278.383	33.45
278.599	107.18
278.814	90.79
279.03	49.83
279.245	86.7
279.461	27.31
279.676	45.74
279.892	-11.61
280.107	-19.8
280.322	51.88
280.538	-3.41
280.753	29.35
280.969	25.26
281.184	17.07
281.399	68.27
281.615	49.83
281.83	74.41
282.045	62.12
282.26	33.45
282.476	78.51
282.691	19.11
282.906	-7.51
283.122	90.79
283.337	6.83
283.552	86.7
283.767	-11.61
283.983	43.69
284.198	-40.28
284.413	86.7
284.628	43.69
284.843	66.22
285.058	43.69
285.274	74.41
285.489	72.36
285.704	-7.51
285.919	29.35
286.134	0.68
286.349	94.89
286.564	12.97
286.779	84.65
286.995	4.78
287.21	25.26
287.425	31.4
287.64	-15.7
287.855	49.83
288.07	10.92
288.285	17.07
288.5	43.69
288.715	90.79
288.93	58.03
289.145	74.41
289.36	84.65
289.575	8.87
289.79	58.03
290.004	90.79
290.219	70.31
290.434	90.79
290.649	-40.28
290.864	10.92
291.079	0.68
291.294	27.31
291.509	37.55
291.724	19.11
291.938	29.35
292.153	51.88
292.368	53.93
292.583	58.03
292.798	148.14
293.012	74.41
293.227	4.78
293.442	17.07
293.657	78.51
293.871	76.46
294.086	74.41
294.301	66.22
294.516	25.26
294.73	-19.8
294.945	-7.51
295.16	27.31
295.374	49.83
295.589	66.22
295.804	35.5
296.018	68.27
296.233	33.45
296.447	74.41
296.662	-21.84
296.877	88.75
297.091	51.88
297.306	49.83
297.52	47.79
297.735	101.03
297.949	47.79
298.164	133.8
298.378	-3.41
298.593	-7.51
298.807	45.74
299.022	12.97
299.236	53.93
299.451	62.12
299.665	-13.65
299.88	-36.18
300.094	66.22
300.309	33.45
300.523	35.5
300.737	33.45
300.952	86.7
301.166	101.03
301.381	-56.66
301.595	94.89
301.809	101.03
302.024	88.75
302.238	74.41
302.452	2.73
302.667	29.35
302.881	76.46
303.095	39.59
303.309	8.87
303.524	29.35
303.738	103.08
303.952	98.99
304.166	41.64
304.381	15.02
304.595	119.46
304.809	66.22
305.023	33.45
305.237	64.17
305.452	-27.99
305.666	98.99
305.88	68.27
306.094	19.11
306.308	29.35
306.522	127.66
306.736	123.56
306.95	84.65
307.164	111.27
307.379	37.55
307.593	72.36
307.807	8.87
308.021	49.83
308.235	51.88
308.449	-13.65
308.663	43.69
308.877	148.14
309.091	90.79
309.305	68.27
309.519	25.26
309.733	111.27
309.947	-5.46
310.161	62.12
310.374	101.03
310.588	168.62
310.802	-32.08
311.016	47.79
311.23	58.03
311.444	17.07
311.658	33.45
311.872	23.21
312.085	2.73
312.299	98.99
312.513	0.68
312.727	92.84
312.941	0.68
313.154	12.97
313.368	60.07
313.582	72.36
313.796	2.73
314.009	49.83
314.223	70.31
314.437	90.79
314.651	72.36
314.864	-3.41
315.078	72.36
315.292	101.03
315.505	-36.18
315.719	19.11
315.933	74.41
316.146	107.18
316.36	-17.75
316.573	119.46
316.787	8.87
317.001	17.07
317.214	51.88
317.428	92.84
317.641	19.11
317.855	-34.13
318.068	33.45
318.282	29.35
318.495	107.18
318.709	92.84
318.922	37.55
319.136	131.75
319.349	53.93
319.563	51.88
319.776	68.27
319.99	53.93
320.203	15.02
320.417	35.5
320.63	35.5
320.843	107.18
321.057	41.64
321.27	39.59
321.483	45.74
321.697	123.56
321.91	21.16
322.124	29.35
322.337	70.31
322.55	92.84
322.763	68.27
322.977	-64.85
323.19	-3.41
323.403	-23.89
323.617	0.68
323.83	49.83
324.043	25.26
324.256	45.74
324.469	-11.61
324.683	115.37
324.896	74.41
325.109	64.17
325.322	31.4
325.535	123.56
325.748	55.98
325.962	-13.65
326.175	70.31
326.388	0.68
326.601	64.17
326.814	23.21
327.027	12.97
327.24	121.51
327.453	17.07
327.666	41.64
327.879	86.7
328.092	35.5
328.305	37.55
328.518	101.03
328.731	35.5
328.944	72.36
329.157	45.74
329.37	62.12
329.583	33.45
329.796	139.94
330.009	-32.08
330.222	82.6
330.435	33.45
330.648	29.35
330.861	90.79
331.073	115.37
331.286	49.83
331.499	74.41
331.712	-11.61
331.925	43.69
332.138	33.45
332.35	45.74
332.563	-5.46
332.776	111.27
332.989	45.74
333.202	35.5
333.414	101.03
333.627	66.22
333.84	0.68
334.053	78.51
334.265	-19.8
334.478	103.08
334.691	-7.51
334.903	33.45
335.116	2.73
335.329	41.64
335.541	82.6
335.754	66.22
335.966	25.26
336.179	119.46
336.392	43.69
336.604	33.45
336.817	86.7
337.029	-13.65
337.242	45.74
337.454	103.08
337.667	19.11
337.88	94.89
338.092	58.03
338.305	74.41
338.517	62.12
338.729	33.45
338.942	82.6
339.154	-42.32
339.367	-48.47
339.579	29.35
339.792	90.79
340.004	117.42
340.217	66.22
340.429	123.56
340.641	74.41
340.854	8.87
341.066	35.5
341.278	74.41
341.491	125.61
341.703	45.74
341.915	17.07
342.128	43.69
342.34	94.89
342.552	70.31
342.764	41.64
342.977	41.64
343.189	137.9
343.401	74.41
343.613	21.16
343.826	62.12
344.038	33.45
344.25	43.69
344.462	29.35
344.674	15.02
344.886	37.55
345.099	127.66
345.311	98.99
345.523	70.31
345.735	33.45
345.947	111.27
346.159	53.93
346.371	139.94
346.583	117.42
346.795	176.81
347.007	27.31
347.219	135.85
347.431	62.12
347.643	68.27
347.855	17.07
348.067	74.41
348.279	66.22
348.491	98.99
348.703	33.45
348.915	37.55
349.127	41.64
349.339	4.78
349.551	8.87
349.763	66.22
349.975	107.18
350.187	133.8
350.399	94.89
350.61	-44.37
350.822	41.64
351.034	58.03
351.246	76.46
351.458	35.5
351.669	58.03
351.881	86.7
352.093	86.7
352.305	62.12
352.517	17.07
352.728	152.23
352.94	60.07
353.152	23.21
353.363	8.87
353.575	90.79
353.787	53.93
353.999	109.23
354.21	76.46
354.422	80.55
354.633	25.26
354.845	90.79
355.057	68.27
355.268	78.51
355.48	47.79
355.692	-52.56
355.903	29.35
356.115	49.83
356.326	-32.08
356.538	82.6
356.749	51.88
356.961	133.8
357.172	35.5
357.384	39.59
357.595	115.37
357.807	-30.04
358.018	4.78
358.23	-15.7
358.441	182.95
358.653	49.83
358.864	49.83
359.075	60.07
359.287	72.36
359.498	96.94
359.709	74.41
359.921	90.79
360.132	111.27
360.344	66.22
360.555	94.89
360.766	90.79
360.977	98.99
361.189	90.79
361.4	31.4
361.611	125.61
361.823	62.12
362.034	76.46
362.245	10.92
362.456	62.12
362.667	66.22
362.879	62.12
363.09	123.56
363.301	58.03
363.512	58.03
363.723	45.74
363.935	146.09
364.146	74.41
364.357	51.88
364.568	68.27
364.779	-7.51
364.99	158.38
365.201	60.07
365.412	148.14
365.623	-46.42
365.834	92.84
366.045	111.27
366.256	27.31
366.467	94.89
366.678	41.64
366.889	74.41
367.1	68.27
367.311	74.41
367.522	60.07
367.733	133.8
367.944	51.88
368.155	78.51
368.366	0.68
368.577	168.62
368.788	109.23
368.999	33.45
369.209	70.31
369.42	123.56
369.631	189.1
369.842	84.65
370.053	86.7
370.264	98.99
370.474	-21.84
370.685	86.7
370.896	74.41
371.107	49.83
371.317	94.89
371.528	76.46
371.739	70.31
371.95	49.83
372.16	146.09
372.371	-40.28
372.582	0.68
372.792	94.89
373.003	17.07
373.214	92.84
373.424	94.89
373.635	-5.46
373.846	205.48
374.056	98.99
374.267	66.22
374.477	41.64
374.688	80.55
374.898	60.07
375.109	94.89
375.319	-5.46
375.53	119.46
375.74	115.37
375.951	68.27
376.161	84.65
376.372	58.03
376.582	72.36
376.793	33.45
377.003	64.17
377.214	25.26
377.424	86.7
377.635	51.88
377.845	64.17
378.055	139.94
378.266	2.73
378.476	66.22
378.686	107.18
378.897	141.99
379.107	53.93
379.317	58.03
379.528	98.99
379.738	148.14
379.948	27.31
380.158	80.55
380.369	29.35
380.579	98.99
380.789	119.46
380.999	70.31
381.21	37.55
381.42	150.18
381.63	78.51
381.84	92.84
382.05	0.68
382.261	137.9
382.471	152.23
382.681	58.03
382.891	66.22
383.101	58.03
383.311	88.75
383.521	74.41
383.731	117.42
383.941	111.27
384.151	107.18
384.361	41.64
384.571	17.07
384.781	74.41
384.991	101.03
385.201	160.42
385.411	66.22
385.621	82.6
385.831	66.22
386.041	49.83
386.251	25.26
386.461	62.12
386.671	98.99
386.881	135.85
387.091	51.88
387.301	66.22
387.511	105.13
387.72	164.52
387.93	51.88
388.14	117.42
388.35	51.88
388.56	49.83
388.769	105.13
388.979	41.64
389.189	135.85
389.399	37.55
389.609	98.99
389.818	107.18
390.028	98.99
390.238	152.23
390.447	25.26
390.657	98.99
390.867	55.98
391.076	29.35
391.286	66.22
391.496	82.6
391.705	84.65
391.915	68.27
392.125	168.62
392.334	119.46
392.544	121.51
392.753	60.07
392.963	-3.41
393.172	90.79
393.382	68.27
393.591	189.1
393.801	76.46
394.01	182.95
394.22	8.87
394.429	58.03
394.639	58.03
394.848	49.83
395.058	94.89
395.267	70.31
395.477	121.51
395.686	207.53
395.895	76.46
396.105	174.76
396.314	162.47
396.524	109.23
396.733	51.88
396.942	185
397.152	84.65
397.361	205.48
397.57	207.53
397.78	84.65
397.989	164.52
398.198	215.72
398.407	84.65
398.617	148.14
398.826	92.84
399.035	125.61
399.244	117.42
399.453	150.18
399.663	92.84
399.872	66.22
400.081	168.62
400.29	156.33
400.499	49.83
400.708	139.94
400.917	131.75
401.127	125.61
401.336	172.71
401.545	176.81
401.754	182.95
401.963	125.61
402.172	168.62
402.381	156.33
402.59	74.41
402.799	144.04
403.008	195.24
403.217	172.71
403.426	144.04
403.635	168.62
403.844	213.67
404.053	107.18
404.262	103.08
404.471	195.24
404.68	209.58
404.888	131.75
405.097	277.16
405.306	195.24
405.515	205.48
405.724	230.06
405.933	238.25
406.142	207.53
406.35	258.73
406.559	215.72
406.768	164.52
406.977	271.01
407.185	205.48
407.394	307.88
407.603	189.1
407.812	277.16
408.02	361.13
408.229	279.21
408.438	336.55
408.646	213.67
408.855	316.07
409.064	295.59
409.272	348.84
409.481	248.49
409.69	375.46
409.898	397.99
410.107	352.93
410.315	348.84
410.524	445.09
410.733	377.51
410.941	461.48
411.15	539.3
411.358	467.62
411.567	486.05
411.775	443.04
411.984	549.54
412.192	512.67
412.401	572.07
412.609	606.88
412.818	672.42
413.026	668.32
413.234	633.5
413.443	674.46
413.651	676.51
413.86	766.62
414.068	641.7
414.276	830.11
414.485	795.29
414.693	772.77
414.901	869.02
415.11	934.56
415.318	871.07
415.526	1026.71
415.734	959.13
415.943	957.08
416.151	1041.05
416.359	1077.91
416.567	1073.82
416.776	1082.01
416.984	1256.09
417.192	1307.29
417.4	1264.28
417.608	1315.48
417.817	1315.48
418.025	1462.93
418.233	1411.73
418.441	1444.5
418.649	1446.55
418.857	1575.57
419.065	1602.19
419.273	1585.81
419.481	1696.4
419.689	1712.78
419.897	1817.23
420.105	1933.97
420.313	1938.06
420.521	2042.51
420.729	2081.42
420.937	2169.48
421.145	2136.71
421.353	2306.7
421.561	2376.33
421.769	2359.94
421.977	2564.74
422.185	2497.16
422.393	2626.18
422.601	2933.37
422.809	2904.7
423.017	2851.46
423.224	2916.99
423.432	3115.64
423.64	3052.16
423.848	3412.6
424.056	3228.28
424.263	3484.28
424.471	3558
424.679	3644.02
424.887	3760.75
425.094	3932.78
425.302	4002.41
425.51	4100.72
425.718	4203.11
425.925	4303.47
426.133	4387.43
426.341	4465.25
426.548	4928.1
426.756	4893.28
426.964	4907.62
427.171	5163.61
427.379	5294.68
427.586	5423.7
427.794	5491.29
428.001	5857.87
428.209	5935.7
428.417	6021.71
428.624	6464.07
428.832	6351.43
429.039	6416.97
429.247	6326.86
429.454	7064.13
429.662	7475.77
429.869	6910.53
430.076	7307.84
430.284	7209.53
430.491	7543.35
430.699	7817.78
430.906	7998
431.114	8225.33
431.321	8444.46
431.528	8544.81
431.736	9011.75
431.943	9511.45
432.15	9196.06
432.358	9411.1
432.565	9781.78
432.772	9576.98
432.979	10088.98
433.187	10379.79
433.394	10498.57
433.601	11094.53
433.808	11266.56
434.016	11176.45
434.223	11563.51
434.43	12378.61
434.637	12083.7
434.844	12988.9
435.052	13066.72
435.259	12837.35
435.466	13150.69
435.673	12857.83
435.88	13695.45
436.087	14578.12
436.294	14541.26
436.501	14193.11
436.708	14320.08
436.915	14586.32
437.122	15616.44
437.329	15057.35
437.537	16030.13
437.743	16138.68
437.95	16279.99
438.157	16818.6
438.364	17459.62
438.571	17373.6
438.778	17445.28
438.985	19069.32
439.192	18508.18
439.399	18631.05
439.606	18514.32
439.813	19714.43
440.02	20623.73
440.227	20330.87
440.433	20214.13
440.64	21152.1
440.847	20578.67
441.054	21182.82
441.261	22589.78
441.467	22221.14
441.674	22944.08
441.881	23769.41
442.088	23576.9
442.294	23327.05
442.501	23867.71
442.708	24299.83
442.914	25293.1
443.121	26460.44
443.328	25721.12
443.534	27400.46
443.741	26566.93
443.948	26032.41
444.154	28508.41
444.361	28373.24
444.568	28381.43
444.774	27965.7
444.981	28745.97
445.187	29434.09
445.394	30800.08
445.6	30380.25
445.807	32891.06
446.013	31776.97
446.22	32198.85
446.426	33650.86
446.633	33800.36
446.839	34789.53
447.046	33652.91
447.252	35195.03
447.459	35326.1
447.665	34836.63
447.871	36866.17
448.078	38666.33
448.284	36477.05
448.491	37054.58
448.697	38924.38
448.903	39315.54
449.11	39960.65
449.316	39129.17
449.522	39600.21
449.728	41031.74
449.935	41197.62
450.141	41218.1
450.347	41826.35
450.553	40667.2
450.76	41496.63
450.966	42227.75
451.172	41850.92
451.378	43280.41
451.584	42203.17
451.791	43143.19
451.997	43202.58
452.203	43655.18
452.409	43591.7
452.615	43399.19
452.821	41826.35
453.027	41207.86
453.233	43321.37
453.44	41652.27
453.646	42493.99
453.852	42418.21
454.058	43415.57
454.264	41990.19
454.47	43153.43
454.676	41680.94
454.882	43268.12
455.088	39454.8
455.294	40097.86
455.5	40718.4
455.705	40513.6
455.911	39067.73
456.117	38781.02
456.323	38309.99
456.529	35969.16
456.735	37388.4
456.941	36331.65
457.147	35952.77
457.352	34732.18
457.558	34738.33
457.764	34558.11
457.97	33915.05
458.176	33355.95
458.381	33038.51
458.587	31551.69
458.793	31652.04
458.999	29788.39
459.204	32131.26
459.41	31326.41
459.616	29282.54
459.821	28934.39
460.027	29122.8
460.233	28383.48
460.438	26636.56
460.644	27386.12
460.85	26153.24
461.055	25479.46
461.261	25415.97
461.466	23642.43
461.672	22831.44
461.878	24465.72
462.083	23316.81
462.289	22374.74
462.494	22260.06
462.7	21420.39
462.905	20736.37
463.111	21678.43
463.316	21506.4
463.522	21137.77
463.727	20984.17
463.932	20842.86
464.138	20629.87
464.343	20693.36
464.549	20222.33
464.754	21076.33
464.959	20457.84
465.165	20674.93
465.37	19601.79
465.575	19184.01
465.781	19857.79
465.986	20011.39
466.191	19548.54
466.397	18948.49
466.602	17815.96
466.807	18620.81
467.012	18497.94
467.218	18702.73
467.423	18491.79
467.628	18229.65
467.833	19038.6
468.038	18309.52
468.244	18084.25
468.449	18698.64
468.654	17938.84
468.859	17897.88
469.064	17707.42
469.269	17240.48
469.474	17220
469.679	17670.56
469.885	17035.69
470.09	17224.1
470.295	16990.63
470.5	16894.38
470.705	16724.4
470.91	16499.12
471.115	16048.57
471.32	16435.63
471.525	16353.71
471.73	16148.92
471.935	15745.47
472.139	15450.56
472.344	15569.34
472.549	15468.99
472.754	15133.12
472.959	14758.35
473.164	14610.89
473.369	14680.52
473.574	15153.6
473.778	14916.04
473.983	14633.42
474.188	14496.21
474.393	14033.36
474.598	14197.2
474.802	13902.29
475.007	13871.57
475.212	13760.98
475.417	13107.68
475.621	13246.94
475.826	13253.09
476.031	13070.82
476.235	13015.52
476.44	13007.33
476.645	12687.85
476.849	12988.9
477.054	12454.38
477.259	12413.42
477.463	12560.88
477.668	12116.47
477.872	12222.96
478.077	12067.31
478.282	11536.89
478.486	11758.07
478.691	11436.54
478.895	11428.35
479.1	11497.98
479.304	11655.67
479.509	11135.49
479.713	11469.31
479.918	11166.21
480.122	10842.63
480.326	11205.12
480.531	11248.13
480.735	10961.41
480.94	10822.15
481.144	11254.27
481.348	10875.4
481.553	10682.89
481.757	10594.82
481.961	10764.81
482.166	11012.61
482.37	10879.49
482.574	10783.24
482.778	10416.65
482.983	10955.27
483.187	10580.49
483.391	10779.14
483.595	10701.32
483.8	10545.67
484.004	10844.68
484.208	10836.49
484.412	10576.39
484.616	10437.13
484.821	10701.32
485.025	10357.26
485.229	10775.05
485.433	10381.84
485.637	10699.27
485.841	10422.8
486.045	10394.12
486.249	10557.96
486.453	10582.54
486.657	10564.11
486.861	10789.38
487.065	10371.6
487.269	10570.25
487.473	10453.52
487.677	10635.78
487.881	10664.46
488.085	10609.16
488.289	10717.7
488.493	10650.12
488.697	10613.26
488.901	10670.6
489.105	10625.54
489.309	10582.54
489.512	10502.67
489.716	10740.23
489.92	10699.27
490.124	10674.7
490.328	10928.64
490.531	10582.54
490.735	10881.54
490.939	10818.05
491.143	10816.01
491.346	10750.47
491.55	11133.44
491.754	10779.14
491.958	11072
492.161	10981.89
492.365	11022.85
492.569	10936.84
492.772	11043.33
492.976	11145.73
493.18	11278.85
493.383	11395.58
493.587	11526.65
493.79	11432.44
493.994	11280.89
494.197	11368.96
494.401	11360.77
494.605	11598.33
494.808	11551.23
495.012	11586.04
495.215	11821.56
495.419	11872.76
495.622	11856.37
495.825	11870.71
496.029	11948.53
496.232	12317.17
496.436	12233.2
496.639	12550.64
496.843	12386.8
497.046	12687.85
497.249	12929.51
497.453	12683.75
497.656	12966.37
497.859	12935.65
498.063	13085.15
498.266	13259.23
498.469	13447.65
498.673	13234.66
498.876	13623.77
499.079	13502.94
499.282	13574.62
499.485	14035.41
499.689	14154.19
499.892	14369.23
500.095	14315.98
500.298	14694.86
500.501	14352.85
500.705	14803.4
500.908	14983.62
501.111	15022.53
501.314	15319.49
501.517	15585.72
501.72	15624.64
501.923	15454.65
502.126	15770.04
502.329	16257.46
502.532	16234.93
502.735	16257.46
502.938	16599.47
503.141	16445.87
503.344	16908.71
503.547	16847.27
503.75	17086.89
503.953	17523.1
504.156	17623.45
504.359	17711.52
504.562	17703.32
504.765	18301.33
504.968	18268.56
505.17	18571.66
505.373	18442.64
505.576	18928.01
505.779	18977.16
505.982	19190.15
506.185	19448.19
506.387	19495.3
506.59	19542.4
506.793	19757.44
506.996	20173.17
507.198	20640.11
507.401	20124.02
507.604	20605.3
507.807	20996.46
508.009	21100.9
508.212	20918.64
508.415	21598.56
508.617	21621.09
508.82	21776.73
509.022	21825.89
509.225	22534.48
509.428	22776.14
509.63	22704.46
509.833	22757.71
510.035	23390.53
510.238	23298.38
510.44	23646.53
510.643	23843.13
510.845	24043.84
511.048	23882.05
511.25	24478.01
511.453	24293.69
511.655	25168.17
511.858	24994.09
512.06	25030.96
512.262	25495.85
512.465	25776.42
512.667	26091.8
512.87	25829.66
513.072	26231.07
513.274	26937.62
513.477	27201.8
513.679	27210
513.881	27738.37
514.084	28064
514.286	28072.19
514.488	27834.63
514.69	28905.71
514.893	28901.62
515.095	28696.82
515.297	29165.81
515.499	29219.05
515.701	29606.12
515.904	29798.63
516.106	30085.34
516.308	30142.69
516.51	30769.37
516.712	30578.9
516.914	31377.61
517.116	31516.87
517.318	31355.08
517.52	31518.92
517.722	31617.22
517.925	32446.65
518.127	32725.18
518.329	32381.12
518.531	32420.03
518.733	33001.65
518.935	33339.57
519.136	32991.41
519.338	34027.68
519.54	33945.76
519.742	34351.26
519.944	34214.05
520.146	34967.7
520.348	34834.58
520.55	34828.44
520.752	35090.58
520.954	35537.04
521.155	35494.03
521.357	35874.95
521.559	35821.7
521.761	36604.03
521.963	36087.94
522.164	36401.28
522.366	36427.9
522.568	37179.51
522.77	36964.47
522.971	37455.98
523.173	37195.89
523.375	37738.6
523.576	37429.36
523.778	37554.29
523.98	38402.14
524.181	38015.08
524.383	38488.16
524.584	38627.42
524.786	38396
524.988	38553.69
525.189	38891.61
525.391	39030.87
525.592	39026.78
525.794	39012.44
525.995	39215.19
526.197	39108.69
526.398	38989.91
526.6	39229.52
526.801	39475.28
527.003	39762
527.204	39620.69
527.406	39950.41
527.607	39929.93
527.808	40073.29
528.01	39745.61
528.211	39555.15
528.412	40468.55
528.614	40007.75
528.815	39983.18
529.016	40374.34
529.218	39841.87
529.419	40151.11
529.62	39905.35
529.822	40040.52
530.023	40153.16
530.224	40075.34
530.425	40411.2
530.626	39600.21
530.828	39577.68
531.029	40472.64
531.23	39954.5
531.431	40302.66
531.632	39587.92
531.833	40085.57
532.035	39831.63
532.236	39852.11
532.437	40257.6
532.638	39843.91
532.839	39710.8
533.04	39970.89
533.241	39430.22
533.442	40319.04
533.643	39981.13
533.844	39465.04
534.045	40106.05
534.246	39702.6
534.447	39936.07
534.648	39276.63
534.849	39936.07
535.05	39309.39
535.251	39370.83
535.451	39049.3
535.652	39632.97
535.853	39118.93
536.054	39544.91
536.255	39186.52
536.456	38869.08
536.657	39313.49
536.857	38916.18
537.058	38422.62
537.259	39379.03
537.46	39192.66
537.66	38727.77
537.861	38834.27
538.062	38946.9
538.263	38965.34
538.463	38611.04
538.664	38572.13
538.865	38385.76
539.065	39086.17
539.266	38125.67
539.466	38924.38
539.667	38778.97
539.868	38994.01
540.068	38740.06
540.269	38539.36
540.469	38574.17
540.67	38293.6
540.87	38627.42
541.071	38727.77
541.271	38809.69
541.472	38125.67
541.672	37943.4
541.873	38189.16
542.073	38045.8
542.274	38453.34
542.474	38406.24
542.675	38299.75
542.875	38475.87
543.075	38238.31
543.276	37843.05
543.476	38475.87
543.676	38217.83
543.877	38322.27
544.077	38250.59
544.277	37953.64
544.478	38533.21
544.678	38154.34
544.878	38180.96
545.078	38056.04
545.279	37961.83
545.479	38062.18
545.679	38273.12
545.879	37900.39
546.079	38260.83
546.28	37916.78
546.48	37894.25
546.68	38033.51
546.88	38180.96
547.08	38242.4
547.28	38031.46
547.48	37707.88
547.68	38174.82
547.88	37943.4
548.081	38037.61
548.281	37937.26
548.481	38213.73
548.681	38197.35
548.881	37836.91
549.081	38217.83
549.28	37783.66
549.48	38713.44
549.68	38097
549.88	38379.62
550.08	37685.36
550.28	37943.4
550.48	38074.47
550.68	38295.65
550.88	37978.22
551.08	38047.85
551.279	38258.79
551.479	38168.68
551.679	38439.01
551.879	38199.4
552.079	38479.97
552.278	38234.21
552.478	38283.36
552.678	38029.41
552.878	38420.58
553.077	38338.66
553.277	37978.22
553.477	38211.68
553.676	38676.57
553.876	38479.97
554.076	38166.63
554.275	38223.97
554.475	38019.17
554.674	38404.19
554.874	38344.8
555.074	38043.75
555.273	38295.65
555.473	38238.31
555.672	38361.19
555.872	38176.87
556.071	38744.16
556.271	38465.63
556.47	38242.4
556.67	38316.13
556.869	38428.77
557.068	38412.38
557.268	38035.56
557.467	38490.21
557.667	38277.22
557.866	38615.13
558.065	38455.39
558.265	38215.78
558.464	38168.68
558.663	38799.45
558.863	37961.83
559.062	38994.01
559.261	38023.27
559.461	39022.68
559.66	38144.1
559.859	38498.4
560.058	38099.05
560.258	38410.34
560.457	37947.5
560.656	38506.59
560.855	38258.79
561.054	38684.76
561.253	38133.86
561.453	38502.5
561.652	38168.68
561.851	38140
562.05	38295.65
562.249	38105.19
562.448	38316.13
562.647	38406.24
562.846	37884.01
563.045	38699.1
563.244	38049.89
563.443	38508.64
563.642	37515.37
563.841	38420.58
564.04	38201.44
564.239	38146.15
564.438	37738.6
564.637	38162.53
564.836	38117.48
565.035	37664.88
565.234	38006.89
565.432	37505.13
565.631	37720.17
565.83	38049.89
566.029	37695.6
566.228	37763.18
566.427	37460.08
566.625	37238.9
566.824	37044.34
567.023	37757.03
567.222	36769.91
567.42	37359.73
567.619	37218.42
567.818	37498.99
568.016	37302.39
568.215	37474.41
568.414	37032.05
568.612	37681.26
568.811	36763.77
569.01	36649.08
569.208	36487.29
569.407	37023.86
569.605	36499.58
569.804	37034.1
570.002	36343.94
570.201	36665.47
570.4	36243.59
570.598	36098.18
570.797	35981.45
570.995	36444.29
571.193	35995.78
571.392	36296.83
571.59	35661.96
571.789	35948.68
571.987	35745.93
572.186	35969.16
572.384	35418.25
572.582	35733.64
572.781	35641.48
572.979	35119.25
573.177	35360.91
573.376	35743.88
573.574	35219.6
573.772	35174.55
573.971	35084.44
574.169	34975.89
574.367	34556.06
574.565	34887.83
574.763	34242.72
574.962	34779.29
575.16	34336.93
575.358	34424.99
575.556	33894.57
575.754	34654.36
575.952	34334.88
576.151	34207.9
576.349	33808.55
576.547	34103.46
576.745	34316.45
576.943	33976.48
577.141	33638.57
577.339	34005.16
577.537	33396.91
577.735	33597.61
577.933	33282.22
578.131	33568.94
578.329	33245.36
578.527	33052.85
578.725	32940.21
578.923	33237.17
579.121	32837.81
579.319	33253.55
579.516	33118.39
579.714	32991.41
579.912	32604.35
580.11	32387.26
580.308	32422.08
580.506	32475.32
580.704	32415.93
580.901	32411.84
581.099	32422.08
581.297	32243.9
581.495	31824.07
581.692	32243.9
581.89	31697.09
582.088	32151.74
582.285	31797.45
582.483	32116.93
582.681	31705.29
582.878	31361.23
583.076	31367.37
583.274	31557.83
583.471	31174.86
583.669	31432.91
583.866	30853.33
584.064	31420.62
584.262	30834.9
584.459	31133.9
584.657	30791.89
584.854	31133.9
585.052	30306.52
585.249	30918.87
585.447	30413.02
585.644	30308.57
585.841	30548.18
586.039	30740.69
586.236	30288.09
586.434	30290.14
586.631	30185.69
586.828	30177.5
587.026	30415.07
587.223	30091.49
587.42	30093.54
587.618	30353.63
587.815	29675.75
588.012	29726.95
588.21	29714.66
588.407	30267.61
588.604	29436.14
588.801	29391.08
588.999	29655.27
589.196	29470.95
589.393	29419.75
589.59	29335.79
589.787	29346.03
589.984	29245.68
590.182	29047.02
590.379	29167.85
590.576	28850.42
590.773	29094.13
590.97	28610.81
591.167	29094.13
591.364	28608.76
591.561	28657.91
591.758	28555.51
591.955	28586.23
592.152	28807.41
592.349	28252.41
592.546	28469.5
592.743	28668.15
592.94	27801.86
593.137	28166.4
593.334	28623.09
593.531	27818.24
593.727	28051.71
593.924	28371.19
594.121	28004.61
594.318	28436.73
594.515	27691.27
594.712	28289.27
594.908	27820.29
595.105	28336.38
595.302	27748.61
595.499	28143.87
595.696	27891.97
595.892	27623.69
596.089	27801.86
596.286	27947.26
596.482	27795.71
596.679	27664.64
596.876	27644.16
597.072	27693.32
597.269	27590.92
597.466	27427.08
597.662	27336.97
597.859	27418.89
598.055	27578.63
598.252	27285.77
598.448	27281.67
598.645	27623.69
598.841	27240.72
599.038	27695.36
599.234	27476.23
599.431	27144.46
599.627	27011.34
599.824	27476.23
600.02	26853.65
600.217	27459.85
600.413	27210
600.609	27207.95
600.806	27115.79
601.002	27320.59
601.198	27193.61
601.395	27128.08
601.591	27302.15
601.787	27126.03
601.984	27199.76
602.18	27244.81
602.376	26994.96
602.572	27183.37
602.769	26980.62
602.965	26929.42
603.161	27363.59
603.357	27066.64
603.553	27316.49
603.75	27244.81
603.946	26935.57
604.142	27275.53
604.338	26474.77
604.534	26960.14
604.73	26945.81
604.926	27076.88
605.122	27394.31
605.318	26980.62
605.514	27234.57
605.71	27091.21
605.906	27367.69
606.102	27160.84
606.298	27164.94
606.494	27402.5
606.69	27545.86
606.886	27449.61
607.082	27195.66
607.278	27728.13
607.474	27175.18
607.67	27525.38
607.866	27033.87
608.062	27396.36
608.257	27314.44
608.453	27146.51
608.649	27248.91
608.845	27595.01
609.041	27283.72
609.236	27808
609.432	27357.45
609.628	27363.59
609.824	27588.87
610.019	27420.94
610.215	27683.08
610.411	27920.64
610.606	27476.23
610.802	27533.57
610.998	27853.06
611.193	27797.76
611.389	27539.72
611.584	27558.15
611.78	27322.63
611.976	27433.22
612.171	27572.49
612.367	27533.57
612.562	27539.72
612.758	27267.34
612.953	27439.37
613.149	28121.34
613.344	27750.66
613.539	28158.2
613.735	27939.07
613.93	28096.77
614.126	27574.53
614.321	28512.5
614.517	27824.39
614.712	27822.34
614.907	27863.3
615.103	28182.78
615.298	27840.77
615.493	27961.6
615.688	27584.77
615.884	28369.15
616.079	27580.68
616.274	27742.47
616.47	27654.4
616.665	27879.68
616.86	27455.75
617.055	27783.43
617.25	27701.51
617.445	28051.71
617.641	27347.21
617.836	28000.51
618.031	27431.18
618.226	27818.24
618.421	27552.01
618.616	27703.56
618.811	27328.78
619.006	27709.7
619.201	27345.16
619.396	27619.59
619.591	27136.27
619.786	27597.06
619.981	26931.47
620.176	27390.22
620.371	27164.94
620.566	26892.56
620.761	26960.14
620.956	26949.9
621.151	26411.29
621.346	26818.83
621.541	26253.59
621.735	26521.88
621.93	26286.36
622.125	26263.83
622.32	25725.22
622.515	26095.9
622.709	25665.83
622.904	25772.32
623.099	25741.6
623.294	25852.19
623.488	25303.34
623.683	25172.27
623.878	24748.34
624.072	25006.38
624.267	25137.45
624.462	24850.74
624.656	24729.91
624.851	24850.74
625.046	24525.11
625.24	24435
625.435	24060.22
625.629	24336.7
625.824	24138.04
626.018	23818.56
626.213	23263.56
626.407	23927.1
626.602	23640.39
626.796	23785.79
626.991	23554.37
627.185	23353.67
627.38	23298.38
627.574	22923.6
627.768	22874.45
627.963	22686.03
628.157	22731.09
628.352	22655.31
628.546	22489.43
628.74	22710.61
628.935	22358.36
629.129	22346.07
629.323	22176.09
629.517	22114.65
629.712	21918.04
629.906	21868.89
630.1	21678.43
630.294	21692.77
630.489	21426.53
630.683	21373.28
630.877	21102.95
631.071	21287.27
631.265	21297.51
631.459	21227.88
631.653	21223.78
631.848	20799.85
632.042	20849
632.236	20785.52
632.43	20408.69
632.624	20554.1
632.818	20259.19
633.012	20048.25
633.206	20277.62
633.4	20404.6
633.594	19595.65
633.788	19745.15
633.982	19739.01
634.176	19609.98
634.369	19698.05
634.563	19376.51
634.757	19120.52
634.951	19399.04
635.145	19040.65
635.339	19249.54
635.533	19087.75
635.726	18993.54
635.92	18639.25
636.114	18770.32
636.308	18485.65
636.501	18524.56
636.695	18358.67
636.889	18223.51
637.083	18317.72
637.276	17996.18
637.47	18092.44
637.664	18012.57
637.857	17906.07
638.051	17609.12
638.244	17617.31
638.438	17637.79
638.632	17580.45
638.825	17336.74
639.019	17154.47
639.212	17013.16
639.406	17074.6
639.599	17039.78
639.793	16798.12
639.986	16732.59
640.18	16712.11
640.373	16830.89
640.567	16224.69
640.76	16249.27
640.954	16386.48
641.147	16083.38
641.34	16050.61
641.534	16314.8
641.727	15972.79
641.92	16138.68
642.114	15653.31
642.307	15698.36
642.5	15704.51
642.694	15327.68
642.887	15266.24
643.08	15417.79
643.273	15313.35
643.467	15221.19
643.66	15215.04
643.853	14856.65
644.046	14930.37
644.239	14948.81
644.432	14598.6
644.626	14637.52
644.819	14354.9
645.012	14305.74
645.205	14373.33
645.398	14291.41
645.591	14197.2
645.784	14197.2
645.977	13851.1
646.17	13783.51
646.363	13959.64
646.556	13689.31
646.749	13836.76
646.942	13830.62
647.135	13414.88
647.328	13439.45
647.521	13666.78
647.714	13267.42
647.907	13511.13
648.099	13066.72
648.292	13337.06
648.485	12988.9
648.678	12863.97
648.871	12984.8
649.064	12823.01
649.256	12804.58
649.449	12462.57
649.642	12546.54
649.835	12519.92
650.027	12534.25
650.22	12329.45
650.413	12476.91
650.605	12278.26
650.798	12335.6
650.991	12294.64
651.183	12282.35
651.376	11960.82
651.568	11938.29
651.761	11768.31
651.954	11524.6
652.146	11846.13
652.339	11780.6
652.531	11792.89
652.724	11573.75
652.916	11348.48
653.109	11469.31
653.301	11387.39
653.494	11534.84
653.686	11018.75
653.879	11219.46
654.071	11266.56
654.263	11102.72
654.456	11227.65
654.648	11301.37
654.84	11010.56
655.033	10691.08
655.225	10766.85
655.417	10803.72
655.61	10764.81
655.802	10709.51
655.994	10603.02
656.186	10592.78
656.379	10662.41
656.571	10476.04
656.763	10500.62
656.955	10316.3
657.148	10385.93
657.34	10375.69
657.532	10215.95
657.724	10254.86
657.916	10056.21
658.108	9970.19
658.3	9896.47
658.492	9908.76
658.684	9830.93
658.876	9933.33
659.068	9562.65
659.26	9695.77
659.452	9622.04
659.644	9859.6
659.836	9560.6
660.028	9595.42
660.22	9441.82
660.412	9234.97
660.604	9191.97
660.796	9382.43
660.988	9026.08
661.18	8981.03
661.372	9062.94
661.563	9202.21
661.755	8989.22
661.947	8993.31
662.139	8948.26
662.331	8978.98
662.522	8888.87
662.714	8864.29
662.906	8565.29
663.097	8784.42
663.289	8555.05
663.481	8395.31
663.673	8548.9
663.864	8368.68
664.056	8487.47
664.247	8399.4
664.439	8178.22
664.631	8297
664.822	8200.75
665.014	8358.44
665.205	8155.69
665.397	8143.41
665.588	8051.25
665.78	8081.97
665.971	8167.98
666.163	8032.82
666.354	7889.46
666.546	7993.9
666.737	7842.35
666.929	7844.4
667.12	7762.48
667.311	7672.37
667.503	7629.37
667.694	7653.94
667.885	7762.48
668.077	7672.37
668.268	7615.03
668.459	7352.89
668.651	7463.48
668.842	7383.61
669.033	7297.6
669.224	7293.5
669.416	7240.25
669.607	7307.84
669.798	7258.68
669.989	7258.68
670.18	7113.28
670.371	7078.46
670.563	7203.39
670.754	7129.66
670.945	7070.27
671.136	7201.34
671.327	6900.29
671.518	6935.1
671.709	6947.39
671.9	6931.01
672.091	6814.27
672.282	6840.9
672.473	6627.91
672.664	6838.85
672.855	6857.28
673.046	6709.83
673.237	6865.47
673.428	6697.54
673.619	6713.92
673.809	6677.06
674	6636.1
674.191	6685.25
674.382	6500.94
674.573	6509.13
674.764	6498.89
674.954	6578.76
675.145	6443.59
675.336	6492.74
675.527	6314.57
675.717	6386.25
675.908	6462.02
676.099	6416.97
676.289	6341.19
676.48	6365.77
676.671	6206.03
676.861	6281.8
677.052	6144.59
677.243	6302.28
677.433	6087.25
677.624	6292.04
677.814	6216.27
678.005	6462.02
678.195	6201.93
678.386	6283.85
678.576	6050.38
678.767	6111.82
678.957	6160.97
679.148	6185.55
679.338	6070.86
679.529	6222.41
679.719	5915.22
679.909	6124.11
680.1	6070.86
680.29	6206.03
680.481	5982.8
680.671	6111.82
680.861	5872.21
681.052	5898.83
681.242	5909.07
681.432	6128.21
681.622	5974.61
681.813	6007.38
682.003	5859.92
682.193	6046.29
682.383	6034
682.573	5909.07
682.764	5864.02
682.954	5868.11
683.144	5849.68
683.334	5722.71
683.524	5761.62
683.714	5759.57
683.904	5818.96
684.094	5747.28
684.284	5857.87
684.474	5753.43
684.664	5667.41
684.854	5571.16
685.044	5812.82
685.234	5605.97
685.424	5710.42
685.614	5737.04
685.804	5677.65
685.994	5608.02
686.184	5608.02
686.374	5456.47
686.564	5640.79
686.753	5442.14
686.943	5438.04
687.133	5587.54
687.323	5485.14
687.513	5530.2
687.702	5390.94
687.892	5384.79
688.082	5167.71
688.272	5474.9
688.461	5349.98
688.651	5294.68
688.841	5313.11
689.03	5515.86
689.22	5513.81
689.41	5321.31
689.599	5204.57
689.789	5280.35
689.979	5198.43
690.168	5276.25
690.358	5212.76
690.547	5202.52
690.737	5241.43
690.926	5122.65
691.116	5180
691.305	5182.04
691.495	5130.84
691.684	5139.04
691.874	5104.22
692.063	5079.65
692.252	5167.71
692.442	5282.39
692.631	4844.13
692.82	5022.3
693.01	4936.29
693.199	4893.28
693.388	4866.66
693.578	4930.14
693.767	4842.08
693.956	4909.66
694.146	4883.04
694.335	4868.7
694.524	4907.62
694.713	4622.95
694.902	4751.97
695.092	4899.42
695.281	4655.72
695.47	4829.79
695.659	4776.55
695.848	4754.02
696.037	4817.51
696.226	4784.74
696.415	4702.82
696.604	4823.65
696.793	4713.06
696.982	4645.48
697.171	4774.5
697.36	4520.55
697.549	4538.98
697.738	4629.09
697.927	4498.02
698.116	4588.13
698.305	4524.65
698.494	4504.17
698.683	4598.37
698.872	4579.94
699.061	4481.64
699.25	4498.02
699.438	4450.92
699.627	4352.62
699.816	4457.06
700.005	4321.9
700.193	4393.58
700.382	4377.19
700.571	4434.53
700.76	4352.62
700.948	4506.21
701.137	4383.34
701.326	4391.53
701.514	4319.85
701.703	4276.84
701.892	4209.26
702.08	4248.17
702.269	4385.38
702.457	4278.89
702.646	4166.25
702.834	4215.4
703.023	4276.84
703.212	4215.4
703.4	4196.97
703.589	4070
703.777	4045.42
703.965	3992.17
704.154	4047.47
704.342	3975.79
704.531	4180.59
704.719	3988.08
704.907	4106.86
705.096	4010.61
705.284	3983.98
705.472	4164.2
705.661	3799.66
705.849	3949.17
706.037	4024.94
706.226	4065.9
706.414	3961.45
706.602	3891.82
706.79	3981.93
706.979	3918.45
707.167	3920.49
707.355	3672.69
707.543	3861.1
707.731	3924.59
707.919	3795.57
708.107	3672.69
708.296	3730.03
708.484	3803.76
708.672	3744.37
708.86	3848.82
709.048	3662.45
709.236	3768.95
709.424	3666.55
709.612	3740.27
709.8	3707.51
709.988	3590.77
710.176	3680.88
710.364	3584.63
710.551	3658.35
710.739	3701.36
710.927	3680.88
711.115	3617.4
711.303	3531.38
711.491	3490.42
711.679	3596.92
711.866	3447.41
712.054	3588.72
712.242	3416.69
712.43	3443.32
712.617	3461.75
712.805	3465.85
712.993	3412.6
713.181	3302.01
713.368	3482.23
713.556	3400.31
713.744	3312.25
713.931	3404.41
714.119	3375.74
714.306	3385.98
714.494	3291.77
714.682	3426.93
714.869	3144.31
715.057	3195.51
715.244	3263.1
715.432	3277.43
715.619	3306.1
715.807	3238.52
715.994	3207.8
716.182	3263.1
716.369	3236.47
716.556	3148.41
716.744	3195.51
716.931	3234.43
717.119	3250.81
717.306	3181.18
717.493	3058.3
717.681	3185.27
717.868	3146.36
718.055	3109.5
718.242	3101.31
718.43	3105.4
718.617	3148.41
718.804	3066.49
718.991	3097.21
719.179	2941.57
719.366	2966.14
719.553	2921.09
719.74	3068.54
719.927	3000.96
720.114	2781.82
720.301	3048.06
720.488	2933.37
720.676	2800.26
720.863	2888.32
721.05	2966.14
721.237	2994.81
721.424	2880.13
721.611	2951.81
721.798	2933.37
721.985	2904.7
722.172	2966.14
722.358	2787.97
722.545	2953.85
722.732	2769.54
722.919	2839.17
723.106	2777.73
723.293	2925.18
723.48	2781.82
723.667	2622.08
723.853	2845.31
724.04	2747.01
724.227	2738.82
724.414	2646.66
724.6	2710.15
724.787	2781.82
724.974	2681.47
725.161	2656.9
725.347	2822.78
725.534	2714.24
725.72	2755.2
725.907	2765.44
726.094	2663.04
726.28	2679.43
726.467	2622.08
726.653	2554.5
726.84	2617.99
727.027	2634.37
727.213	2566.79
727.4	2589.32
727.586	2679.43
727.773	2476.68
727.959	2638.47
728.145	2523.78
728.332	2548.36
728.518	2550.4
728.705	2609.79
728.891	2599.56
729.077	2613.89
729.264	2427.53
729.45	2495.11
729.636	2699.91
729.823	2478.72
730.009	2484.87
730.195	2552.45
730.382	2435.72
730.568	2499.2
730.754	2511.49
730.94	2425.48
731.126	2470.53
731.313	2405
731.499	2542.21
731.685	2493.06
731.871	2388.61
732.057	2394.76
732.243	2468.49
732.429	2433.67
732.615	2450.05
732.801	2409.09
732.987	2400.9
733.173	2431.62
733.359	2392.71
733.545	2376.33
733.731	2263.69
733.917	2392.71
734.103	2316.94
734.289	2290.31
734.475	2151.05
734.661	2306.7
734.847	2273.93
735.033	2192.01
735.219	2251.4
735.404	2179.72
735.59	2210.44
735.776	2241.16
735.962	2206.35
736.148	2202.25
736.333	2230.92
736.519	2230.92
736.705	2167.43
736.89	2208.39
737.076	2099.85
737.262	2155.15
737.447	2144.91
737.633	2163.34
737.819	2255.5
738.004	2052.75
738.19	2163.34
738.375	2097.8
738.561	2132.62
738.747	2142.86
738.932	2044.56
739.118	2091.66
739.303	2056.84
739.489	2140.81
739.674	2126.47
739.859	2038.41
740.045	1999.5
740.23	2151.05
740.416	2015.88
740.601	2132.62
740.786	2022.03
740.972	1983.12
741.157	2052.75
741.342	1962.64
741.528	1999.5
741.713	2001.55
741.898	1972.88
742.084	1974.92
742.269	2067.08
742.454	1966.73
742.639	1993.36
742.824	2044.56
743.01	1974.92
743.195	1976.97
743.38	1960.59
743.565	1933.97
743.75	1999.5
743.935	1927.82
744.12	1905.29
744.305	1788.56
744.49	1852.05
744.675	1815.18
744.86	1774.22
745.045	1927.82
745.23	1737.36
745.415	1733.26
745.6	1847.95
745.785	1712.78
745.97	1733.26
746.155	1673.87
746.34	1682.06
746.525	1741.46
746.71	1743.5
746.895	1665.68
747.079	1700.5
747.264	1704.59
747.449	1757.84
747.634	1686.16
747.819	1725.07
748.003	1561.23
748.188	1604.24
748.373	1614.48
748.557	1587.86
748.742	1614.48
748.927	1503.89
749.111	1501.84
749.296	1499.8
749.481	1596.05
749.665	1516.18
749.85	1499.8
750.034	1473.17
750.219	1487.51
750.404	1524.37
750.588	1479.32
750.773	1507.99
750.957	1518.23
751.141	1557.14
751.326	1548.95
751.51	1458.84
751.695	1424.02
751.879	1401.49
752.064	1450.64
752.248	1426.07
752.432	1417.88
752.617	1405.59
752.801	1395.35
752.985	1450.64
753.17	1338.01
753.354	1411.73
753.538	1340.05
753.722	1319.57
753.907	1368.73
754.091	1288.86
754.275	1231.51
754.459	1270.42
754.643	1251.99
754.828	1295
755.012	1352.34
755.196	1229.46
755.38	1204.89
755.564	1270.42
755.748	1381.01
755.932	1284.76
756.116	1239.7
756.3	1249.94
756.484	1196.7
756.668	1221.27
756.852	1211.03
757.036	1202.84
757.22	1196.7
757.404	1131.16
757.588	1186.46
757.772	1118.87
757.956	1118.87
758.14	1215.13
758.323	1151.64
758.507	1139.35
758.691	1061.53
758.875	1098.39
759.059	1194.65
759.242	1110.68
759.426	1043.1
759.61	1028.76
759.794	1098.39
759.977	1174.17
760.161	1071.77
760.345	1039
760.528	1114.78
760.712	1057.43
760.895	1000.09
761.079	963.23
761.263	1122.97
761.446	1049.24
761.63	950.94
761.813	1049.24
761.997	1004.19
762.18	955.04
762.364	1059.48
762.547	909.98
762.731	959.13
762.914	948.89
763.098	985.76
763.281	969.37
763.464	975.52
763.648	955.04
763.831	887.45
764.015	901.79
764.198	1026.71
764.381	873.12
764.564	961.18
764.748	862.88
764.931	842.4
765.114	873.12
765.297	985.76
765.481	854.69
765.664	934.56
765.847	881.31
766.03	1008.28
766.213	922.27
766.397	952.99
766.58	869.02
766.763	934.56
766.946	903.84
767.129	901.79
767.312	987.8
767.495	873.12
767.678	864.93
767.861	926.36
768.044	836.25
768.227	963.23
768.41	840.35
768.593	791.2
768.776	885.41
768.959	834.21
769.142	914.08
769.324	854.69
769.507	918.17
769.69	873.12
769.873	852.64
770.056	871.07
770.239	787.1
770.421	860.83
770.604	797.34
770.787	803.49
770.97	830.11
771.152	772.77
771.335	897.69
771.518	815.77
771.7	836.25
771.883	860.83
772.066	832.16
772.248	811.68
772.431	862.88
772.613	873.12
772.796	758.43
772.978	836.25
773.161	778.91
773.343	600.74
773.526	772.77
773.708	688.8
773.891	717.47
774.073	707.23
774.256	696.99
774.438	742.05
774.621	713.38
774.803	758.43
774.985	778.91
775.168	725.66
775.35	705.18
775.532	729.76
775.715	680.61
775.897	694.94
776.079	641.7
776.261	647.84
776.444	574.11
776.626	629.41
776.808	694.94
776.99	680.61
777.173	688.8
777.355	639.65
777.537	666.27
777.719	682.66
777.901	631.46
778.083	627.36
778.265	565.92
778.447	643.74
778.629	656.03
778.811	664.22
778.993	711.33
779.175	574.11
779.357	676.51
779.539	512.67
779.721	682.66
779.903	584.35
780.085	565.92
780.267	561.83
780.449	449.19
780.631	606.88
780.812	553.63
780.994	543.39
781.176	479.91
781.358	567.97
781.54	516.77
781.721	527.01
781.903	524.96
782.085	529.06
782.267	516.77
782.448	516.77
782.63	600.74
782.812	533.15
782.993	565.92
783.175	508.58
783.357	508.58
783.538	549.54
783.72	545.44
783.901	557.73
784.083	484
784.264	494.24
784.446	559.78
784.627	490.15
784.809	492.2
784.99	451.24
785.172	557.73
785.353	373.41
785.535	475.81
785.716	430.76
785.897	400.04
786.079	463.52
786.26	457.38
786.441	445.09
786.623	426.66
786.804	342.69
786.985	406.18
787.167	357.03
787.348	471.72
787.529	393.89
787.71	459.43
787.891	463.52
788.073	369.32
788.254	383.65
788.435	395.94
788.616	318.12
788.797	416.42
788.978	428.71
789.159	371.37
789.34	397.99
789.522	422.56
789.703	400.04
789.884	377.51
790.065	342.69
790.246	447.14
790.427	340.65
790.607	467.62
790.788	266.92
790.969	336.55
791.15	363.17
791.331	363.17
791.512	373.41
791.693	334.5
791.874	326.31
792.054	408.23
792.235	361.13
792.416	316.07
792.597	258.73
792.778	350.89
792.958	326.31
793.139	297.64
793.32	346.79
793.5	205.48
793.681	311.97
793.862	346.79
794.042	371.37
794.223	232.1
794.404	250.53
794.584	209.58
794.765	365.22
794.945	336.55
795.126	338.6
795.306	330.41
795.487	320.17
795.667	307.88
795.848	336.55
796.028	289.45
796.209	295.59
796.389	332.45
796.57	291.49
796.75	279.21
796.93	273.06
797.111	279.21
797.291	209.58
797.471	199.34
797.652	248.49
797.832	271.01
798.012	287.4
798.192	275.11
798.373	238.25
798.553	271.01
798.733	287.4
798.913	291.49
799.093	230.06
799.274	230.06
799.454	203.43
799.634	203.43
799.814	281.25
799.994	271.01
800.174	271.01
800.354	256.68
800.534	182.95
800.714	289.45
800.894	199.34
801.074	201.38
801.254	221.86
801.434	314.02
801.614	311.97
801.794	234.15
801.974	803.49
802.154	289.45
802.334	203.43
802.514	178.86
802.693	246.44
802.873	230.06
803.053	352.93
803.233	221.86
803.413	230.06
803.592	258.73
803.772	225.96
803.952	240.3
804.131	164.52
804.311	195.24
804.491	260.77
804.67	232.1
804.85	135.85
805.03	215.72
805.209	256.68
805.389	182.95
805.568	111.27
805.748	141.99
805.928	133.8
806.107	185
806.287	248.49
806.466	125.61
806.646	172.71
806.825	158.38
807.004	166.57
807.184	234.15
807.363	148.14
807.543	232.1
807.722	193.19
807.901	201.38
808.081	189.1
808.26	133.8
808.439	230.06
808.619	271.01
808.798	180.9
808.977	158.38
809.156	203.43
809.336	191.14
809.515	133.8
809.694	117.42
809.873	191.14
810.052	187.05
810.231	275.11
810.411	139.94
810.59	230.06
810.769	144.04
810.948	193.19
811.127	98.99
811.306	209.58
811.485	127.66
811.664	154.28
811.843	166.57
812.022	174.76
812.201	148.14
812.38	166.57
812.559	160.42
812.737	141.99
812.916	103.08
813.095	199.34
813.274	148.14
813.453	156.33
813.632	101.03
813.811	182.95
813.989	182.95
814.168	209.58
814.347	187.05
814.526	123.56
814.704	174.76
814.883	170.66
815.062	127.66
815.24	213.67
815.419	115.37
815.598	197.29
815.776	119.46
815.955	172.71
816.133	94.89
816.312	133.8
816.49	98.99
816.669	144.04
816.847	111.27
817.026	133.8
817.204	148.14
817.383	158.38
817.561	94.89
817.74	201.38
817.918	187.05
818.097	162.47
818.275	84.65
818.453	150.18
818.632	115.37
818.81	80.55
818.988	133.8
819.167	148.14
819.345	164.52
819.523	78.51
819.701	148.14
819.879	144.04
820.058	111.27
820.236	156.33
820.414	141.99
820.592	141.99
820.77	58.03
820.948	119.46
821.127	109.23
821.305	76.46
821.483	144.04
821.661	178.86
821.839	152.23
822.017	70.31
822.195	98.99
822.373	135.85
822.551	123.56
822.729	117.42
822.907	131.75
823.085	119.46
823.262	107.18
823.44	101.03
823.618	82.6
823.796	148.14
823.974	66.22
824.152	60.07
824.329	68.27
824.507	146.09
824.685	98.99
824.863	43.69
825.04	150.18
825.218	115.37
825.396	49.83
825.574	146.09
825.751	98.99
825.929	131.75
826.107	64.17
826.284	135.85
826.462	119.46
826.639	90.79
826.817	96.94
826.994	111.27
827.172	37.55
827.349	86.7
827.527	133.8
827.704	156.33
827.882	92.84
828.059	98.99
828.237	51.88
828.414	156.33
828.591	103.08
828.769	90.79
828.946	107.18
829.124	158.38
829.301	141.99
829.478	90.79
829.655	176.81
829.833	58.03
830.01	51.88
830.187	127.66
830.364	35.5
830.542	117.42
830.719	68.27
830.896	76.46
831.073	117.42
831.25	90.79
831.427	53.93
831.604	49.83
831.782	90.79
831.959	70.31
832.136	148.14
832.313	96.94
832.49	33.45
832.667	78.51
832.844	66.22
833.021	90.79
833.198	82.6
833.374	156.33
833.551	47.79
833.728	117.42
833.905	35.5
834.082	107.18
834.259	-9.56
834.436	180.9
834.612	64.17
834.789	53.93
834.966	78.51
835.143	76.46
835.319	60.07
835.496	158.38
835.673	62.12
835.85	29.35
836.026	4.78
836.203	74.41
836.38	0.68
836.556	53.93
836.733	29.35
836.909	117.42
837.086	25.26
837.262	45.74
837.439	53.93
837.616	86.7
837.792	17.07
837.968	82.6
838.145	-21.84
838.321	101.03
838.498	58.03
838.674	131.75
838.851	86.7
839.027	-32.08
839.203	25.26
839.38	90.79
839.556	25.26
839.732	117.42
839.909	51.88
840.085	94.89
840.261	41.64
840.437	156.33
840.614	90.79
840.79	94.89
840.966	33.45
841.142	47.79
841.318	8.87
841.494	141.99
841.671	68.27
841.847	107.18
842.023	94.89
842.199	82.6
842.375	27.31
842.551	10.92
842.727	8.87
842.903	139.94
843.079	-30.04
843.255	148.14
843.431	49.83
843.607	49.83
843.783	8.87
843.959	98.99
844.134	35.5
844.31	148.14
844.486	45.74
844.662	164.52
844.838	33.45
845.013	66.22
845.189	43.69
845.365	27.31
845.541	2.73
845.716	84.65
845.892	60.07
846.068	45.74
846.244	39.59
846.419	101.03
846.595	33.45
846.77	49.83
846.946	94.89
847.122	70.31
847.297	49.83
847.473	49.83
847.648	33.45
847.824	80.55
847.999	-15.7
848.175	25.26
848.35	64.17
848.526	66.22
848.701	101.03
848.876	119.46
849.052	115.37
849.227	25.26
849.403	27.31
849.578	80.55
849.753	49.83
849.929	74.41
850.104	62.12
850.279	107.18
850.454	74.41
850.63	94.89
850.805	58.03
850.98	10.92
851.155	25.26
851.33	70.31
851.505	31.4
851.681	115.37
851.856	-40.28
852.031	58.03
852.206	82.6
852.381	0.68
852.556	-5.46
852.731	66.22
852.906	37.55
853.081	49.83
853.256	23.21
853.431	98.99
853.606	29.35
853.781	47.79
853.956	-34.13
854.131	-23.89
854.305	-7.51
854.48	66.22
854.655	8.87
854.83	76.46
855.005	27.31
855.18	45.74
855.354	-30.04
855.529	0.68
855.704	-1.37
855.879	0.68
856.053	2.73
856.228	70.31
856.403	33.45
856.577	17.07
856.752	23.21
856.926	-15.7
857.101	-7.51
857.276	12.97
857.45	49.83
857.625	53.93
857.799	-27.99
857.974	21.16
858.148	27.31
858.323	76.46
858.497	0.68
858.672	33.45
858.846	53.93
859.02	49.83
859.195	8.87
859.369	53.93
859.543	29.35
859.718	101.03
859.892	33.45
860.066	0.68
860.241	8.87
860.415	-25.94
860.589	-9.56
860.763	47.79
860.938	-32.08
861.112	4.78
861.286	-54.61
861.46	78.51
861.634	19.11
861.808	33.45
861.982	4.78
862.157	4.78
862.331	8.87
862.505	17.07
862.679	-89.43
862.853	-13.65
863.027	41.64
863.201	98.99
863.375	45.74
863.549	-13.65
863.722	29.35
863.896	47.79
864.07	39.59
864.244	-13.65
864.418	41.64
864.592	82.6
864.766	51.88
864.939	-30.04
865.113	-9.56
865.287	27.31
865.461	-7.51
865.634	-5.46
865.808	8.87
865.982	49.83
866.156	53.93
866.329	23.21
866.503	-15.7
866.676	17.07
866.85	-7.51
867.024	88.75
867.197	45.74
867.371	66.22
867.544	2.73
867.718	6.83
867.891	35.5
868.065	-13.65
868.238	-15.7
868.412	84.65
868.585	41.64
868.759	-23.89
868.932	58.03
869.105	15.02
869.279	2.73
869.452	-13.65
869.625	-38.23
869.799	37.55
869.972	53.93
870.145	-7.51
870.319	33.45
870.492	8.87
870.665	-25.94
870.838	41.64
871.011	-77.14
871.185	-34.13
871.358	2.73
871.531	12.97
871.704	80.55
871.877	37.55
872.05	4.78
872.223	49.83
872.396	53.93
872.569	19.11
872.742	21.16
872.915	45.74
873.088	-42.32
873.261	8.87
873.434	17.07
873.607	35.5
873.78	-7.51
873.953	-56.66
874.126	58.03
874.299	33.45
874.471	-23.89
874.644	17.07
874.817	-19.8
874.99	90.79
875.163	-15.7
875.335	66.22
875.508	4.78
875.681	78.51
875.853	-27.99
876.026	84.65
876.199	66.22
876.371	0.68
876.544	-7.51
876.717	6.83
876.889	58.03
877.062	2.73
877.234	12.97
877.407	29.35
877.579	-19.8
877.752	129.7
877.924	82.6
878.097	53.93
878.269	66.22
878.442	49.83
878.614	2.73
878.786	0.68
878.959	35.5
879.131	33.45
879.303	-48.47
879.476	45.74
879.648	53.93
879.82	-3.41
879.993	6.83
880.165	-7.51
880.337	-5.46
880.509	92.84
880.681	53.93
880.854	-13.65
881.026	62.12
881.198	82.6
881.37	-25.94
881.542	29.35
881.714	-7.51
881.886	2.73
882.058	12.97
882.23	-36.18
882.402	-15.7
882.574	45.74
882.746	0.68
882.918	70.31
883.09	49.83
883.262	-23.89
883.434	-32.08
883.606	19.11
883.778	-1.37
883.95	41.64
884.122	82.6
884.293	41.64
884.465	-5.46
884.637	123.56
884.809	8.87
884.98	25.26
885.152	51.88
885.324	66.22
885.496	15.02
885.667	31.4
885.839	35.5
886.011	70.31
886.182	37.55
886.354	107.18
886.525	51.88
886.697	12.97
886.869	-21.84
887.04	31.4
887.212	49.83
887.383	53.93
887.555	-13.65
887.726	25.26
887.897	49.83
888.069	-30.04
888.24	55.98
888.412	-48.47
888.583	19.11
888.754	47.79
888.926	33.45
889.097	10.92
889.268	-71
889.44	0.68
889.611	-3.41
889.782	-5.46
889.953	66.22
890.125	49.83
890.296	129.7
890.467	-32.08
890.638	12.97
890.809	58.03
890.98	25.26
891.151	25.26
891.323	45.74
891.494	15.02
891.665	66.22
891.836	-23.89
892.007	70.31
892.178	62.12
892.349	45.74
892.52	45.74
892.691	33.45
892.862	0.68
893.032	-34.13
893.203	8.87
893.374	45.74
893.545	17.07
893.716	-15.7
893.887	41.64
894.057	25.26
894.228	-32.08
894.399	-19.8
894.57	25.26
894.74	-54.61
894.911	80.55
895.082	51.88
895.253	-79.19
895.423	37.55
895.594	-11.61
895.764	49.83
895.935	19.11
896.106	115.37
896.276	25.26
896.447	-13.65
896.617	41.64
896.788	-21.84
896.958	12.97
897.129	-56.66
897.299	23.21
897.47	74.41
897.64	0.68
897.81	27.31
897.981	45.74
898.151	51.88
898.322	17.07
898.492	-27.99
898.662	6.83
898.832	-27.99
899.003	37.55
899.173	35.5
899.343	-32.08
899.513	2.73
