Data from USB4F104151__241__14-34-09-312.txt Node

Date: Thu Mar 13 14:34:09 EDT 2025
User: louis
Spectrometer: USB4F10415
Trigger mode: 4
Integration Time (sec): 2.500000E-2
Scans to average: 1
Electric dark correction enabled: true
Nonlinearity correction enabled: false
Boxcar width: 0
XAxis mode: Wavelengths
Number of Pixels in Spectrum: 3648
>>>>>Begin Spectral Data<<<<<
178.204	-143.02
178.424	-143.02
178.644	-143.02
178.864	-210.6
179.084	-165.54
179.304	2.39
179.524	-24.23
179.744	20.82
179.964	20.82
180.184	8.53
180.404	22.87
180.624	-9.9
180.844	-59.05
181.064	-22.19
181.283	47.44
181.503	-81.58
181.723	74.07
181.943	-20.14
182.163	86.36
182.383	-50.86
182.602	49.49
182.822	-38.57
183.042	-22.19
183.262	0.34
183.482	-16.04
183.701	-44.71
183.921	-28.33
184.141	-34.47
184.361	-18.09
184.58	-16.04
184.8	-3.75
185.02	-7.85
185.239	20.82
185.459	-18.09
185.679	43.35
185.898	29.01
186.118	12.63
186.338	49.49
186.557	-61.1
186.777	-126.63
186.997	-42.67
187.216	-11.95
187.436	80.21
187.655	41.3
187.875	4.44
188.095	-30.38
188.314	24.92
188.534	-44.71
188.753	59.73
188.973	12.63
189.192	86.36
189.412	12.63
189.631	12.63
189.851	29.01
190.07	135.51
190.29	-18.09
190.509	-11.95
190.729	6.49
190.948	37.2
191.168	69.97
191.387	8.53
191.607	18.77
191.826	14.68
192.045	37.2
192.265	0.34
192.484	-20.14
192.704	4.44
192.923	-77.48
193.142	45.4
193.362	80.21
193.581	22.87
193.8	20.82
194.02	10.58
194.239	74.07
194.458	86.36
194.678	-73.39
194.897	16.73
195.116	-52.91
195.335	-40.62
195.555	26.96
195.774	-3.75
195.993	63.83
196.212	-18.09
196.432	-20.14
196.651	6.49
196.87	-18.09
197.089	90.45
197.308	59.73
197.528	55.64
197.747	-20.14
197.966	6.49
198.185	98.64
198.404	-52.91
198.623	55.64
198.842	33.11
199.062	6.49
199.281	78.16
199.5	6.49
199.719	41.3
199.938	110.93
200.157	22.87
200.376	43.35
200.595	-1.71
200.814	-13.99
201.033	-112.3
201.252	80.21
201.471	22.87
201.69	57.68
201.909	-3.75
202.128	53.59
202.347	-11.95
202.566	31.06
202.785	90.45
203.004	49.49
203.223	45.4
203.442	-3.75
203.661	-1.71
203.879	-7.85
204.098	37.2
204.317	-69.29
204.536	-5.8
204.755	37.2
204.974	31.06
205.193	-16.04
205.411	160.08
205.63	-3.75
205.849	16.73
206.068	-3.75
206.287	-36.52
206.505	-26.28
206.724	6.49
206.943	82.26
207.162	41.3
207.381	-24.23
207.599	10.58
207.818	4.44
208.037	37.2
208.255	29.01
208.474	37.2
208.693	18.77
208.911	-34.47
209.13	53.59
209.349	24.92
209.567	-26.28
209.786	-7.85
210.005	39.25
210.223	0.34
210.442	-61.1
210.661	14.68
210.879	24.92
211.098	-26.28
211.316	29.01
211.535	12.63
211.753	-48.81
211.972	39.25
212.191	-11.95
212.409	37.2
212.628	16.73
212.846	-75.43
213.065	49.49
213.283	57.68
213.502	-52.91
213.72	-16.04
213.938	-20.14
214.157	-40.62
214.375	-7.85
214.594	10.58
214.812	59.73
215.031	-46.76
215.249	37.2
215.467	14.68
215.686	63.83
215.904	-18.09
216.122	-100.01
216.341	102.74
216.559	-32.43
216.778	53.59
216.996	-9.9
217.214	0.34
217.432	6.49
217.651	12.63
217.869	-28.33
218.087	45.4
218.306	-16.04
218.524	82.26
218.742	-3.75
218.96	8.53
219.179	2.39
219.397	26.96
219.615	39.25
219.833	-9.9
220.051	14.68
220.27	12.63
220.488	18.77
220.706	20.82
220.924	31.06
221.142	14.68
221.36	-7.85
221.578	-34.47
221.796	20.82
222.015	-69.29
222.233	-3.75
222.451	100.69
222.669	-34.47
222.887	65.88
223.105	4.44
223.323	59.73
223.541	-93.87
223.759	29.01
223.977	-34.47
224.195	16.73
224.413	86.36
224.631	74.07
224.849	-57
225.067	117.08
225.285	82.26
225.503	57.68
225.721	-108.2
225.939	29.01
226.157	45.4
226.375	100.69
226.592	31.06
226.81	14.68
227.028	57.68
227.246	47.44
227.464	-9.9
227.682	16.73
227.9	41.3
228.117	65.88
228.335	-34.47
228.553	22.87
228.771	-48.81
228.989	-3.75
229.206	37.2
229.424	-52.91
229.642	-16.04
229.86	-32.43
230.077	-9.9
230.295	-1.71
230.513	61.78
230.731	20.82
230.948	59.73
231.166	53.59
231.384	82.26
231.601	-52.91
231.819	-16.04
232.037	49.49
232.254	-48.81
232.472	51.54
232.689	-11.95
232.907	-1.71
233.125	0.34
233.342	-9.9
233.56	29.01
233.777	24.92
233.995	-7.85
234.213	39.25
234.43	41.3
234.648	22.87
234.865	12.63
235.083	29.01
235.3	74.07
235.518	-1.71
235.735	6.49
235.953	53.59
236.17	20.82
236.388	-1.71
236.605	29.01
236.822	131.41
237.04	22.87
237.257	41.3
237.475	39.25
237.692	-36.52
237.909	-18.09
238.127	-28.33
238.344	-7.85
238.562	53.59
238.779	8.53
238.996	-36.52
239.214	35.16
239.431	59.73
239.648	-16.04
239.865	-1.71
240.083	80.21
240.3	12.63
240.517	-18.09
240.735	20.82
240.952	39.25
241.169	86.36
241.386	39.25
241.603	41.3
241.821	-42.67
242.038	37.2
242.255	-5.8
242.472	-52.91
242.689	20.82
242.907	65.88
243.124	-59.05
243.341	-30.38
243.558	0.34
243.775	18.77
243.992	-83.63
244.209	-11.95
244.426	155.99
244.643	47.44
244.86	-42.67
245.078	94.55
245.295	-1.71
245.512	63.83
245.729	-30.38
245.946	39.25
246.163	29.01
246.38	-36.52
246.597	-85.67
246.814	4.44
247.031	45.4
247.248	20.82
247.464	45.4
247.681	-16.04
247.898	20.82
248.115	78.16
248.332	12.63
248.549	-9.9
248.766	151.89
248.983	102.74
249.2	-24.23
249.417	-20.14
249.633	-9.9
249.85	29.01
250.067	45.4
250.284	14.68
250.501	-48.81
250.717	61.78
250.934	-57
251.151	-11.95
251.368	29.01
251.585	29.01
251.801	-11.95
252.018	-69.29
252.235	43.35
252.451	-13.99
252.668	-59.05
252.885	55.64
253.102	-11.95
253.318	4.44
253.535	37.2
253.752	8.53
253.968	-3.75
254.185	-16.04
254.401	-42.67
254.618	115.03
254.835	-36.52
255.051	96.6
255.268	45.4
255.484	-77.48
255.701	-13.99
255.917	-11.95
256.134	0.34
256.351	-1.71
256.567	-42.67
256.784	14.68
257	-1.71
257.217	6.49
257.433	-11.95
257.65	31.06
257.866	82.26
258.082	-18.09
258.299	-20.14
258.515	14.68
258.732	-5.8
258.948	-50.86
259.165	-7.85
259.381	-44.71
259.597	20.82
259.814	47.44
260.03	29.01
260.246	-46.76
260.463	16.73
260.679	-28.33
260.895	37.2
261.112	-34.47
261.328	39.25
261.544	29.01
261.761	14.68
261.977	-11.95
262.193	-11.95
262.409	-9.9
262.626	14.68
262.842	16.73
263.058	4.44
263.274	39.25
263.49	12.63
263.707	41.3
263.923	31.06
264.139	-20.14
264.355	-79.53
264.571	24.92
264.787	45.4
265.004	88.4
265.22	12.63
265.436	14.68
265.652	57.68
265.868	0.34
266.084	-61.1
266.3	35.16
266.516	-50.86
266.732	45.4
266.948	14.68
267.164	-1.71
267.38	6.49
267.596	-3.75
267.812	51.54
268.028	20.82
268.244	29.01
268.46	67.92
268.676	-11.95
268.892	102.74
269.108	-83.63
269.324	14.68
269.54	-22.19
269.756	29.01
269.972	20.82
270.188	55.64
270.403	-18.09
270.619	6.49
270.835	12.63
271.051	67.92
271.267	143.7
271.483	-36.52
271.698	41.3
271.914	20.82
272.13	-20.14
272.346	4.44
272.562	20.82
272.777	-16.04
272.993	-67.24
273.209	16.73
273.425	26.96
273.64	-3.75
273.856	20.82
274.072	12.63
274.287	-42.67
274.503	65.88
274.719	45.4
274.934	-3.75
275.15	6.49
275.366	-61.1
275.581	-11.95
275.797	49.49
276.012	78.16
276.228	33.11
276.444	8.53
276.659	35.16
276.875	-75.43
277.09	-24.23
277.306	88.4
277.521	12.63
277.737	0.34
277.952	37.2
278.168	49.49
278.383	-52.91
278.599	12.63
278.814	-26.28
279.03	29.01
279.245	90.45
279.461	47.44
279.676	20.82
279.892	-54.95
280.107	12.63
280.322	-34.47
280.538	61.78
280.753	35.16
280.969	41.3
281.184	-24.23
281.399	53.59
281.615	29.01
281.83	69.97
282.045	-32.43
282.26	-16.04
282.476	-20.14
282.691	12.63
282.906	90.45
283.122	43.35
283.337	29.01
283.552	-7.85
283.767	-46.76
283.983	12.63
284.198	26.96
284.413	80.21
284.628	-18.09
284.843	53.59
285.058	72.02
285.274	-46.76
285.489	-85.67
285.704	78.16
285.919	41.3
286.134	37.2
286.349	24.92
286.564	-42.67
286.779	33.11
286.995	-3.75
287.21	-48.81
287.425	80.21
287.64	29.01
287.855	26.96
288.07	-28.33
288.285	-34.47
288.5	69.97
288.715	37.2
288.93	37.2
289.145	-26.28
289.36	61.78
289.575	-11.95
289.79	20.82
290.004	-50.86
290.219	47.44
290.434	-18.09
290.649	-69.29
290.864	33.11
291.079	41.3
291.294	29.01
291.509	16.73
291.724	-26.28
291.938	47.44
292.153	-1.71
292.368	-28.33
292.583	41.3
292.798	45.4
293.012	53.59
293.227	-48.81
293.442	16.73
293.657	135.51
293.871	-36.52
294.086	-28.33
294.301	74.07
294.516	72.02
294.73	-9.9
294.945	-48.81
295.16	8.53
295.374	-5.8
295.589	31.06
295.804	43.35
296.018	45.4
296.233	20.82
296.447	45.4
296.662	-102.06
296.877	65.88
297.091	35.16
297.306	-50.86
297.52	-44.71
297.735	-30.38
297.949	31.06
298.164	2.39
298.378	14.68
298.593	12.63
298.807	-50.86
299.022	0.34
299.236	45.4
299.451	41.3
299.665	10.58
299.88	37.2
300.094	82.26
300.309	14.68
300.523	35.16
300.737	-57
300.952	-22.19
301.166	-26.28
301.381	-9.9
301.595	-28.33
301.809	84.31
302.024	-11.95
302.238	-3.75
302.452	41.3
302.667	-26.28
302.881	-18.09
303.095	41.3
303.309	39.25
303.524	-36.52
303.738	-44.71
303.952	2.39
304.166	-30.38
304.381	-46.76
304.595	78.16
304.809	0.34
305.023	-32.43
305.237	-11.95
305.452	-1.71
305.666	0.34
305.88	82.26
306.094	-26.28
306.308	57.68
306.522	49.49
306.736	39.25
306.95	-3.75
307.164	-44.71
307.379	78.16
307.593	131.41
307.807	61.78
308.021	-11.95
308.235	86.36
308.449	-42.67
308.663	26.96
308.877	61.78
309.091	69.97
309.305	45.4
309.519	0.34
309.733	74.07
309.947	0.34
310.161	0.34
310.374	20.82
310.588	-28.33
310.802	-20.14
311.016	-5.8
311.23	-5.8
311.444	4.44
311.658	63.83
311.872	127.32
312.085	51.54
312.299	55.64
312.513	12.63
312.727	55.64
312.941	-20.14
313.154	16.73
313.368	12.63
313.582	-48.81
313.796	-24.23
314.009	-38.57
314.223	0.34
314.437	53.59
314.651	37.2
314.864	45.4
315.078	2.39
315.292	67.92
315.505	20.82
315.719	53.59
315.933	26.96
316.146	20.82
316.36	-32.43
316.573	57.68
316.787	16.73
317.001	-7.85
317.214	-24.23
317.428	24.92
317.641	29.01
317.855	-28.33
318.068	69.97
318.282	26.96
318.495	45.4
318.709	37.2
318.922	49.49
319.136	74.07
319.349	90.45
319.563	86.36
319.776	69.97
319.99	-61.1
320.203	8.53
320.417	-9.9
320.63	74.07
320.843	76.12
321.057	127.32
321.27	10.58
321.483	-42.67
321.697	22.87
321.91	20.82
322.124	69.97
322.337	69.97
322.55	-42.67
322.763	35.16
322.977	4.44
323.19	53.59
323.403	4.44
323.617	6.49
323.83	45.4
324.043	-24.23
324.256	-7.85
324.469	0.34
324.683	57.68
324.896	-16.04
325.109	-50.86
325.322	-77.48
325.535	63.83
325.748	98.64
325.962	47.44
326.175	2.39
326.388	61.78
326.601	61.78
326.814	12.63
327.027	-24.23
327.24	74.07
327.453	-67.24
327.666	4.44
327.879	8.53
328.092	39.25
328.305	63.83
328.518	22.87
328.731	-40.62
328.944	-1.71
329.157	61.78
329.37	63.83
329.583	74.07
329.796	65.88
330.009	-16.04
330.222	49.49
330.435	-16.04
330.648	61.78
330.861	45.4
331.073	39.25
331.286	-3.75
331.499	94.55
331.712	41.3
331.925	-20.14
332.138	53.59
332.35	74.07
332.563	-5.8
332.776	102.74
332.989	-38.57
333.202	-36.52
333.414	33.11
333.627	65.88
333.84	-57
334.053	-9.9
334.265	-36.52
334.478	20.82
334.691	63.83
334.903	-3.75
335.116	-20.14
335.329	4.44
335.541	0.34
335.754	88.4
335.966	-9.9
336.179	4.44
336.392	-1.71
336.604	37.2
336.817	12.63
337.029	57.68
337.242	45.4
337.454	78.16
337.667	86.36
337.88	22.87
338.092	-40.62
338.305	84.31
338.517	2.39
338.729	-3.75
338.942	45.4
339.154	-50.86
339.367	24.92
339.579	45.4
339.792	-9.9
340.004	96.6
340.217	35.16
340.429	90.45
340.641	53.59
340.854	-26.28
341.066	-34.47
341.278	31.06
341.491	135.51
341.703	29.01
341.915	-16.04
342.128	112.98
342.34	10.58
342.552	-108.2
342.764	2.39
342.977	37.2
343.189	8.53
343.401	29.01
343.613	-3.75
343.826	12.63
344.038	-44.71
344.25	43.35
344.462	-22.19
344.674	-11.95
344.886	22.87
345.099	57.68
345.311	0.34
345.523	-26.28
345.735	2.39
345.947	69.97
346.159	16.73
346.371	88.4
346.583	10.58
346.795	53.59
347.007	67.92
347.219	-28.33
347.431	-9.9
347.643	-22.19
347.855	-54.95
348.067	76.12
348.279	35.16
348.491	22.87
348.703	-1.71
348.915	12.63
349.127	-26.28
349.339	24.92
349.551	-20.14
349.763	16.73
349.975	55.64
350.187	49.49
350.399	82.26
350.61	47.44
350.822	-36.52
351.034	41.3
351.246	-5.8
351.458	6.49
351.669	53.59
351.881	47.44
352.093	39.25
352.305	37.2
352.517	29.01
352.728	6.49
352.94	-1.71
353.152	55.64
353.363	29.01
353.575	-5.8
353.787	53.59
353.999	35.16
354.21	61.78
354.422	4.44
354.633	14.68
354.845	104.79
355.057	31.06
355.268	16.73
355.48	12.63
355.692	-38.57
355.903	14.68
356.115	-13.99
356.326	4.44
356.538	33.11
356.749	39.25
356.961	31.06
357.172	33.11
357.384	-81.58
357.595	76.12
357.807	-11.95
358.018	39.25
358.23	37.2
358.441	100.69
358.653	74.07
358.864	55.64
359.075	8.53
359.287	37.2
359.498	20.82
359.709	12.63
359.921	-32.43
360.132	61.78
360.344	49.49
360.555	-9.9
360.766	16.73
360.977	63.83
361.189	98.64
361.4	35.16
361.611	20.82
361.823	57.68
362.034	-50.86
362.245	-38.57
362.456	-16.04
362.667	90.45
362.879	86.36
363.09	-28.33
363.301	59.73
363.512	-26.28
363.723	37.2
363.935	-54.95
364.146	47.44
364.357	41.3
364.568	-3.75
364.779	-59.05
364.99	45.4
365.201	-16.04
365.412	121.17
365.623	-40.62
365.834	-3.75
366.045	-24.23
366.256	57.68
366.467	8.53
366.678	61.78
366.889	94.55
367.1	4.44
367.311	-36.52
367.522	-24.23
367.733	0.34
367.944	33.11
368.155	24.92
368.366	47.44
368.577	127.32
368.788	84.31
368.999	20.82
369.209	-42.67
369.42	24.92
369.631	115.03
369.842	29.01
370.053	-7.85
370.264	55.64
370.474	55.64
370.685	69.97
370.896	-9.9
371.107	102.74
371.317	37.2
371.528	22.87
371.739	86.36
371.95	16.73
372.16	100.69
372.371	12.63
372.582	53.59
372.792	-16.04
373.003	57.68
373.214	37.2
373.424	37.2
373.635	61.78
373.846	102.74
374.056	26.96
374.267	20.82
374.477	35.16
374.688	69.97
374.898	-42.67
375.109	45.4
375.319	4.44
375.53	78.16
375.74	12.63
375.951	39.25
376.161	65.88
376.372	12.63
376.582	4.44
376.793	72.02
377.003	31.06
377.214	55.64
377.424	90.45
377.635	67.92
377.845	8.53
378.055	78.16
378.266	20.82
378.476	4.44
378.686	-34.47
378.897	-42.67
379.107	-24.23
379.317	53.59
379.528	37.2
379.738	33.11
379.948	-34.47
380.158	78.16
380.369	82.26
380.579	41.3
380.789	37.2
380.999	78.16
381.21	24.92
381.42	94.55
381.63	24.92
381.84	31.06
382.05	47.44
382.261	57.68
382.471	63.83
382.681	-85.67
382.891	123.22
383.101	37.2
383.311	-22.19
383.521	53.59
383.731	29.01
383.941	45.4
384.151	12.63
384.361	47.44
384.571	-48.81
384.781	41.3
384.991	29.01
385.201	69.97
385.411	14.68
385.621	69.97
385.831	49.49
386.041	55.64
386.251	53.59
386.461	86.36
386.671	67.92
386.881	86.36
387.091	-7.85
387.301	37.2
387.511	69.97
387.72	22.87
387.93	57.68
388.14	-24.23
388.35	31.06
388.56	166.23
388.769	74.07
388.979	78.16
389.189	-9.9
389.399	170.32
389.609	47.44
389.818	45.4
390.028	16.73
390.238	72.02
390.447	16.73
390.657	69.97
390.867	-1.71
391.076	-44.71
391.286	80.21
391.496	104.79
391.705	8.53
391.915	141.65
392.125	135.51
392.334	55.64
392.544	12.63
392.753	29.01
392.963	8.53
393.172	12.63
393.382	151.89
393.591	176.47
393.801	31.06
394.01	153.94
394.22	53.59
394.429	37.2
394.639	22.87
394.848	92.5
395.058	53.59
395.267	20.82
395.477	63.83
395.686	110.93
395.895	102.74
396.105	127.32
396.314	65.88
396.524	104.79
396.733	67.92
396.942	139.6
397.152	86.36
397.361	108.88
397.57	72.02
397.78	-3.75
397.989	86.36
398.198	86.36
398.407	149.84
398.617	88.4
398.826	82.26
399.035	69.97
399.244	92.5
399.453	80.21
399.663	90.45
399.872	61.78
400.081	51.54
400.29	145.75
400.499	31.06
400.708	168.27
400.917	110.93
401.127	78.16
401.336	135.51
401.545	153.94
401.754	127.32
401.963	129.36
402.172	145.75
402.381	74.07
402.59	47.44
402.799	102.74
403.008	112.98
403.217	147.8
403.426	119.12
403.635	104.79
403.844	170.32
404.053	125.27
404.262	106.84
404.471	172.37
404.68	180.56
404.888	168.27
405.097	151.89
405.306	119.12
405.515	198.99
405.724	115.03
405.933	215.38
406.142	221.52
406.35	174.42
406.559	180.56
406.768	176.47
406.977	209.23
407.185	223.57
407.394	215.38
407.603	235.86
407.812	209.23
408.02	270.67
408.229	291.15
408.438	282.96
408.646	282.96
408.855	201.04
409.064	364.88
409.272	282.96
409.481	192.85
409.69	248.15
409.898	366.93
410.107	330.06
410.315	487.76
410.524	368.98
410.733	325.97
410.941	401.74
411.15	403.79
411.358	395.6
411.567	467.28
411.775	495.95
411.984	504.14
412.192	553.29
412.401	508.24
412.609	504.14
412.818	469.33
413.026	575.82
413.234	528.72
413.443	622.92
413.651	608.59
413.86	692.55
414.068	667.98
414.276	700.75
414.485	663.88
414.693	678.22
414.901	938.31
415.11	823.62
415.318	803.15
415.526	835.91
415.734	866.63
415.943	913.74
416.151	981.32
416.359	966.98
416.567	964.93
416.776	1001.8
416.984	1098.05
417.192	1130.82
417.4	1110.34
417.608	1069.38
417.817	1263.94
418.025	1323.33
418.233	1415.49
418.441	1321.28
418.649	1368.38
418.857	1462.59
419.065	1503.55
419.273	1421.63
419.481	1638.72
419.689	1646.91
419.897	1714.49
420.105	1796.41
420.313	1839.42
420.521	1884.47
420.729	1941.82
420.937	1847.61
421.145	2021.69
421.353	2150.71
421.561	2289.97
421.769	2421.04
421.977	2416.94
422.185	2361.65
422.393	2478.38
422.601	2752.81
422.809	2674.99
423.017	2695.47
423.224	2920.74
423.432	2953.51
423.64	2947.37
423.848	3219.75
424.056	3111.21
424.263	3371.3
424.471	3332.39
424.679	3469.6
424.887	3635.49
425.094	3799.32
425.302	3791.13
425.51	3887.39
425.718	3946.78
425.925	4065.56
426.133	4083.99
426.341	4464.91
426.548	4636.94
426.756	4469.01
426.964	4774.16
427.171	5021.96
427.379	4964.62
427.586	5134.6
427.794	5280
428.001	5501.19
428.209	5787.9
428.417	5724.41
428.624	6183.16
428.832	5970.17
429.039	6136.06
429.247	5902.59
429.454	6764.78
429.662	6904.04
429.869	6590.7
430.076	7102.7
430.284	6686.96
430.491	7112.94
430.699	7495.91
430.906	7500
431.114	7610.59
431.321	8016.09
431.528	8122.59
431.736	8548.56
431.943	8927.44
432.15	8802.51
432.358	8773.84
432.565	9345.22
432.772	9322.7
432.979	9693.38
433.187	9918.65
433.394	9818.3
433.601	10473.65
433.808	10565.81
434.016	10565.81
434.223	11063.47
434.43	11565.22
434.637	11350.18
434.844	12071.07
435.052	12458.14
435.259	12384.41
435.466	12408.98
435.673	12173.47
435.88	13095.05
436.087	13609.09
436.294	13668.48
436.501	13453.45
436.708	13578.37
436.915	14078.08
437.122	14669.94
437.329	14766.2
437.537	15308.91
437.743	15790.18
437.95	15382.63
438.157	16070.75
438.364	16541.78
438.571	16730.2
438.778	16683.09
438.985	18243.65
439.192	17657.93
439.399	18018.37
439.606	17803.33
439.813	18880.57
440.02	19925.03
440.227	19488.81
440.433	19331.12
440.64	19705.9
440.847	19716.14
441.054	20140.07
441.261	21508.11
441.467	21331.98
441.674	21891.08
441.881	22568.96
442.088	22263.81
442.294	22198.27
442.501	22810.62
442.708	23152.63
442.914	23941.1
443.121	25460.69
443.328	24641.5
443.534	26312.64
443.741	25618.38
443.948	25049.05
444.154	27013.05
444.361	26597.31
444.568	27289.52
444.774	26732.48
444.981	27367.35
445.187	28143.53
445.394	29151.13
445.6	28823.45
445.807	31764.34
446.013	30222.22
446.22	30582.66
446.426	32024.43
446.633	32302.95
446.839	33331.03
447.046	32042.86
447.252	33783.63
447.459	33529.69
447.665	33838.93
447.871	35399.48
448.078	36658.98
448.284	35163.96
448.491	35854.13
448.697	37236.51
448.903	37861.14
449.11	38006.55
449.316	37166.88
449.522	38110.99
449.728	38762.25
449.935	39114.5
450.141	39431.93
450.347	40232.69
450.553	39339.77
450.76	39487.23
450.966	40916.71
451.172	40511.21
451.378	40947.43
451.584	40799.97
451.791	41590.49
451.997	41666.27
452.203	42458.83
452.409	42045.14
452.615	41924.31
452.821	40701.67
453.027	39911.16
453.233	42256.08
453.44	40038.13
453.646	40773.35
453.852	40449.77
454.058	41551.58
454.264	40283.89
454.47	41500.38
454.676	40265.45
454.882	41533.15
455.088	38170.38
455.294	38555.4
455.5	38948.61
455.705	39524.09
455.911	37869.33
456.117	37113.63
456.323	36812.58
456.529	34930.5
456.735	36149.04
456.941	35288.89
457.147	34361.16
457.352	33664.85
457.558	33328.98
457.764	33183.58
457.97	32481.13
458.176	31946.61
458.381	32282.47
458.587	30842.75
458.793	30103.43
458.999	28821.41
459.204	31113.08
459.41	29908.88
459.616	28370.85
459.821	28139.43
460.027	27625.39
460.233	27197.37
460.438	26144.71
460.644	26398.66
460.85	25067.48
461.055	24840.15
461.261	24737.76
461.466	22917.11
461.672	22013.96
461.878	23758.83
462.083	22075.4
462.289	21639.18
462.494	21583.88
462.7	20957.21
462.905	20043.81
463.111	20326.43
463.316	20799.51
463.522	20447.26
463.727	20246.56
463.932	20244.51
464.138	19890.21
464.343	20011.04
464.549	19255.34
464.754	20080.67
464.959	19845.16
465.165	19494.96
465.37	18954.29
465.575	18366.53
465.781	18915.38
465.986	19111.99
466.191	18446.4
466.397	18237.5
466.602	17297.49
466.807	17991.75
467.012	17752.13
467.218	17752.13
467.423	17410.12
467.628	17719.37
467.833	18249.79
468.038	17580.11
468.244	17104.98
468.449	17801.29
468.654	17125.46
468.859	17109.07
469.064	17223.76
469.269	16531.55
469.474	16496.73
469.679	16689.24
469.885	16205.92
470.09	16373.85
470.295	16296.03
470.5	15865.96
470.705	16105.57
470.91	15439.98
471.115	15626.34
471.32	15716.45
471.525	15612.01
471.73	15364.2
471.935	15278.19
472.139	14508.15
472.344	14987.38
472.549	14577.78
472.754	14618.74
472.959	14321.79
473.164	13979.78
473.369	13938.82
473.574	14274.68
473.778	14184.57
473.983	13934.72
474.188	14051.45
474.393	13408.39
474.598	13416.58
474.802	13426.82
475.007	13324.43
475.212	13119.63
475.417	12884.11
475.621	12646.55
475.826	12695.7
476.031	12624.02
476.235	12390.55
476.44	12349.59
476.645	12085.4
476.849	12390.55
477.054	12087.45
477.259	11808.93
477.463	12112.03
477.668	11632.8
477.872	11700.39
478.077	11434.15
478.282	11196.59
478.486	11301.03
478.691	11126.96
478.895	11229.35
479.1	11057.32
479.304	11100.33
479.509	10621.11
479.713	10799.28
479.918	10481.85
480.122	10367.16
480.326	10746.03
480.531	10754.23
480.735	10502.33
480.94	10475.7
481.144	10813.62
481.348	10244.28
481.553	10516.66
481.757	10219.71
481.961	10465.46
482.166	10522.8
482.37	10145.98
482.574	10029.24
482.778	10240.19
482.983	10326.2
483.187	10258.62
483.391	10313.91
483.595	10199.23
483.8	10057.92
484.004	10363.06
484.208	10469.56
484.412	10195.13
484.616	10139.83
484.821	10289.34
485.025	10100.92
485.229	10252.47
485.433	9924.8
485.637	10299.58
485.841	9851.07
486.045	9947.33
486.249	9900.22
486.453	10121.4
486.657	10111.16
486.861	10164.41
487.065	9894.08
487.269	10082.49
487.473	9994.43
487.677	10098.88
487.881	10240.19
488.085	10066.11
488.289	10127.55
488.493	9943.23
488.697	10066.11
488.901	10105.02
489.105	9998.52
489.309	10135.74
489.512	10418.36
489.716	10221.75
489.92	10162.36
490.124	10027.2
490.328	10428.6
490.531	10059.96
490.735	10193.08
490.939	10211.51
491.143	10270.9
491.346	10014.91
491.55	10326.2
491.754	10381.49
491.958	10412.21
492.161	10461.37
492.365	10440.89
492.569	10387.64
492.772	10551.48
492.976	10670.26
493.18	10543.28
493.383	10772.66
493.587	10617.01
493.79	10903.73
493.994	10762.42
494.197	10989.74
494.401	11104.43
494.605	11010.22
494.808	11155.63
495.012	10901.68
495.215	11249.83
495.419	11282.6
495.622	11137.2
495.825	11341.99
496.029	11464.87
496.232	11862.18
496.436	11501.73
496.639	11796.64
496.843	11608.23
497.046	11849.89
497.249	12171.42
497.453	12099.74
497.656	12292.25
497.859	12140.7
498.063	12546.2
498.266	12284.06
498.469	12628.12
498.673	12732.56
498.876	12681.36
499.079	12992.66
499.282	13033.61
499.485	13336.71
499.689	13138.06
499.892	13570.18
500.095	13428.87
500.298	13619.33
500.501	13678.72
500.705	14258.3
500.908	14422.14
501.111	14286.97
501.314	14254.2
501.517	14794.87
501.72	14643.32
501.923	14661.75
502.126	15104.11
502.329	15333.48
502.532	15417.45
502.735	15394.92
502.938	15540.33
503.141	15609.96
503.344	15945.83
503.547	15943.78
503.75	16304.22
503.953	16519.26
504.156	16586.84
504.359	16939.09
504.562	16590.94
504.765	17004.63
504.968	17139.79
505.17	17297.49
505.373	17440.84
505.576	17911.88
505.779	17827.91
505.982	18071.62
506.185	18141.25
506.387	18350.14
506.59	18432.06
506.793	19191.86
506.996	19042.35
507.198	19265.58
507.401	19271.73
507.604	19603.5
507.807	19937.32
508.009	19793.96
508.212	20076.58
508.415	20273.18
508.617	20459.55
508.82	20596.76
509.022	20588.57
509.225	21186.58
509.428	21350.42
509.63	21420.05
509.833	21585.93
510.035	22228.99
510.238	22118.4
510.44	22401.02
510.643	22374.4
510.845	22802.43
511.048	22855.67
511.25	23316.47
511.453	23517.17
511.655	24158.18
511.858	23414.77
512.06	23549.93
512.262	24141.8
512.465	24195.04
512.667	24698.84
512.87	24645.6
513.072	24850.39
513.274	25436.11
513.477	25565.14
513.679	25448.4
513.881	25767.88
514.084	25915.34
514.286	26023.88
514.488	26163.14
514.69	27217.85
514.893	26990.52
515.095	26937.27
515.297	27725.74
515.499	27619.25
515.701	27938.73
515.904	28211.11
516.106	28426.15
516.308	28686.24
516.51	29106.07
516.712	28788.64
516.914	29147.03
517.116	29759.38
517.318	29534.1
517.52	29829.01
517.722	29845.39
517.925	30601.09
518.127	30873.47
518.329	30781.31
518.531	30738.3
518.733	31123.32
518.935	31379.32
519.136	31637.36
519.338	31866.74
519.54	31864.69
519.742	32321.38
519.944	32567.14
520.146	32907.1
520.348	32857.95
520.55	33046.37
520.752	33044.32
520.954	34060.11
521.155	33490.77
521.357	34094.93
521.559	33822.55
521.761	34768.71
521.963	34535.24
522.164	34293.58
522.366	34774.85
522.568	34879.3
522.77	35041.09
522.971	35534.65
523.173	35200.83
523.375	35315.51
523.576	35807.03
523.778	35338.04
523.98	36075.31
524.181	36265.77
524.383	36032.3
524.584	36581.16
524.786	36607.78
524.988	36269.87
525.189	36460.33
525.391	36833.06
525.592	36906.79
525.794	37037.86
525.995	36579.11
526.197	36874.02
526.398	37437.21
526.6	37066.53
526.801	37048.1
527.003	37367.58
527.204	37484.31
527.406	37390.11
527.607	37734.17
527.808	37848.85
528.01	36992.8
528.211	37619.48
528.412	38276.88
528.614	37863.19
528.815	37926.67
529.016	38016.79
529.218	37574.42
529.419	37973.78
529.62	37824.28
529.822	37832.47
530.023	37797.65
530.224	37777.17
530.425	37785.36
530.626	37498.65
530.828	37510.94
531.029	38135.57
531.23	37721.88
531.431	37508.89
531.632	38168.33
531.833	37990.16
532.035	37619.48
532.236	37601.05
532.437	38205.2
532.638	37742.36
532.839	37562.14
533.04	38016.79
533.241	37019.42
533.442	38264.59
533.643	37414.68
533.844	37750.55
534.045	37377.82
534.246	37392.15
534.447	37531.42
534.648	36988.7
534.849	37293.85
535.05	37058.34
535.251	37336.86
535.451	37017.38
535.652	37146.4
535.853	37029.66
536.054	36927.27
536.255	37226.27
536.456	36822.82
536.657	37779.22
536.857	36798.24
537.058	36722.47
537.259	36849.44
537.46	36710.18
537.66	36638.5
537.861	36853.54
538.062	36724.52
538.263	37027.62
538.463	36603.69
538.664	36951.84
538.865	36669.22
539.065	36933.41
539.266	36402.99
539.466	36876.07
539.667	36235.05
539.868	36443.95
540.068	36835.11
540.269	36374.31
540.469	36648.74
540.67	36122.41
540.87	36646.69
541.071	36480.81
541.271	36628.26
541.472	36407.08
541.672	35972.91
541.873	36022.06
542.073	35989.3
542.274	36495.14
542.474	36060.98
542.675	35858.23
542.875	36288.3
543.075	36138.8
543.276	35579.7
543.476	36212.52
543.676	36054.83
543.877	36314.92
544.077	36151.09
544.277	35936.05
544.478	35880.75
544.678	35934
544.878	35780.4
545.078	36253.48
545.279	35809.07
545.479	35675.96
545.679	36120.37
545.879	35856.18
546.079	35831.6
546.28	35850.03
546.48	35581.75
546.68	35811.12
546.88	35667.77
547.08	35852.08
547.28	35721.01
547.48	35913.52
547.68	35751.73
547.88	35290.94
548.081	35946.29
548.281	35446.58
548.481	36151.09
548.681	35970.86
548.881	35690.29
549.081	35872.56
549.28	35620.66
549.48	36136.75
549.68	35747.64
549.88	36669.22
550.08	36321.07
550.28	36024.11
550.48	35866.42
550.68	36069.17
550.88	35704.63
551.08	36075.31
551.279	36146.99
551.479	35694.39
551.679	36253.48
551.879	35952.43
552.079	36132.65
552.278	35882.8
552.478	36091.69
552.678	36063.02
552.878	36124.46
553.077	36255.53
553.277	35845.94
553.477	36288.3
553.676	35923.76
553.876	36286.25
554.076	36243.24
554.275	36200.24
554.475	35960.62
554.674	36413.23
554.874	36378.41
555.074	35995.44
555.273	36142.89
555.473	36284.2
555.672	35899.19
555.872	36206.38
556.071	36196.14
556.271	36411.18
556.47	36271.92
556.67	36093.74
556.869	36235.05
557.068	36351.79
557.268	36249.39
557.467	36192.05
557.667	36321.07
557.866	36450.09
558.065	36124.46
558.265	36437.8
558.464	36020.02
558.663	36482.86
558.863	35823.41
559.062	36865.83
559.261	36288.3
559.461	36652.84
559.66	36005.68
559.859	36394.79
560.058	36382.51
560.258	36200.24
560.457	35950.38
560.656	36300.59
560.855	36319.02
561.054	36366.12
561.253	36204.33
561.453	36112.17
561.652	36435.75
561.851	36529.96
562.05	36073.26
562.249	36015.92
562.448	36654.89
562.647	35956.53
562.846	36337.45
563.045	36161.33
563.244	35966.77
563.443	36233
563.642	35819.31
563.841	36259.63
564.04	35536.7
564.239	36245.29
564.438	35821.36
564.637	36292.4
564.836	36116.27
565.035	36298.54
565.234	35731.25
565.432	35989.3
565.631	35757.88
565.83	36024.11
566.029	35899.19
566.228	35647.29
566.427	35467.06
566.625	35467.06
566.824	35315.51
567.023	35479.35
567.222	35002.18
567.42	35716.92
567.619	35434.3
567.818	35178.3
568.016	35491.64
568.215	35774.26
568.414	35206.97
568.612	35178.3
568.811	34940.74
569.01	35051.33
569.208	34645.83
569.407	35172.16
569.605	34735.94
569.804	34674.5
570.002	34469.7
570.201	34690.88
570.4	34215.76
570.598	34520.9
570.797	34146.12
570.995	34498.37
571.193	34154.32
571.392	34393.93
571.59	34072.4
571.789	34029.39
571.987	33808.21
572.186	33699.67
572.384	33820.5
572.582	34080.59
572.781	33865.55
572.979	33576.79
573.177	33675.09
573.376	33636.18
573.574	33161.05
573.772	33955.66
573.971	33410.9
574.169	33107.8
574.367	32978.78
574.565	33400.66
574.763	32714.59
574.962	33007.45
575.16	32491.37
575.358	32708.45
575.556	32006
575.754	32585.57
575.952	32120.68
576.151	32444.26
576.349	32016.24
576.547	31928.17
576.745	31876.97
576.943	32126.83
577.141	32362.34
577.339	32030.57
577.537	31727.47
577.735	31766.38
577.933	31252.34
578.131	31741.81
578.329	31623.03
578.527	31328.12
578.725	31518.58
578.923	31195
579.121	31305.59
579.319	31268.73
579.516	31225.72
579.714	31195
579.912	30814.08
580.11	30515.08
580.308	30472.07
580.506	30310.28
580.704	30152.59
580.901	30605.19
581.099	31006.59
581.297	30099.34
581.495	30359.43
581.692	30594.95
581.89	30037.9
582.088	30306.18
582.285	30068.62
582.483	29937.55
582.681	29865.87
582.878	29886.35
583.076	29443.99
583.274	29638.55
583.471	29452.18
583.669	29585.3
583.866	29349.78
584.064	29638.55
584.262	28934.04
584.459	29255.57
584.657	29167.51
584.854	29302.68
585.052	28788.64
585.249	28950.43
585.447	28995.48
585.644	28727.2
585.841	28673.95
586.039	28721.06
586.236	28512.16
586.434	28518.31
586.631	28280.74
586.828	28487.59
587.026	28364.71
587.223	28221.35
587.42	28278.69
587.618	28442.53
587.815	28051.37
588.012	28198.82
588.21	28098.47
588.407	28239.78
588.604	28022.7
588.801	27707.31
588.999	27674.54
589.196	27854.76
589.393	27942.83
589.59	27596.72
589.787	27566
589.984	27625.39
590.182	27160.5
590.379	27416.5
590.576	26972.09
590.773	27228.09
590.97	27191.22
591.167	27211.7
591.364	26955.71
591.561	27033.53
591.758	27092.92
591.955	26748.86
592.152	27019.19
592.349	27025.34
592.546	26734.53
592.743	27119.54
592.94	26728.38
593.137	26765.24
593.334	26793.92
593.531	26324.93
593.727	26724.29
593.924	26521.54
594.121	26335.17
594.318	26386.37
594.515	26533.82
594.712	26699.71
594.908	26179.53
595.105	26458.05
595.302	26281.92
595.499	26238.92
595.696	26066.89
595.892	26118.09
596.089	26302.4
596.286	26380.23
596.482	26394.56
596.679	25907.15
596.876	26294.21
597.072	25851.85
597.269	26195.91
597.466	25745.36
597.662	25886.67
597.859	25812.94
598.055	25946.06
598.252	25685.97
598.448	25913.29
598.645	25837.52
598.841	25669.58
599.038	25855.95
599.234	25960.39
599.431	25673.68
599.627	25653.2
599.824	25817.04
600.02	25692.11
600.217	25917.39
600.413	25362.39
600.609	25694.16
600.806	25690.06
601.002	25905.1
601.198	25649.1
601.395	25612.24
601.591	25874.38
601.787	25784.27
601.984	25419.73
602.18	25896.91
602.376	25602
602.572	25659.34
602.769	25743.31
602.965	25530.32
603.161	25593.81
603.357	25823.18
603.553	25608.14
603.75	25800.65
603.946	25524.18
604.142	25731.02
604.338	25313.24
604.534	25794.51
604.73	25780.17
604.926	25857.99
605.122	25878.47
605.318	25790.41
605.514	26021.83
605.71	25685.97
605.906	25841.61
606.102	25888.71
606.298	25814.99
606.494	25917.39
606.69	25685.97
606.886	26169.29
607.082	25636.81
607.278	26109.89
607.474	25751.5
607.67	25987.02
607.866	25757.64
608.062	26361.8
608.257	25978.82
608.453	25898.95
608.649	26005.45
608.845	25982.92
609.041	26038.22
609.236	26290.12
609.432	26136.52
609.628	26300.36
609.824	26152.9
610.019	26036.17
610.215	26283.97
610.411	26046.41
610.606	26181.57
610.802	26224.58
610.998	26478.53
611.193	26460.1
611.389	26240.96
611.584	26529.73
611.78	26386.37
611.976	26580.93
612.171	26333.12
612.367	26292.16
612.562	26296.26
612.758	25984.97
612.953	26218.44
613.149	26544.06
613.344	26189.77
613.539	26716.09
613.735	26331.08
613.93	26793.92
614.126	26292.16
614.321	27062.2
614.517	26630.08
614.712	26671.04
614.907	26537.92
615.103	26533.82
615.298	26664.89
615.493	27035.58
615.688	26220.49
615.884	27037.62
616.079	26298.31
616.274	26566.59
616.47	26343.36
616.665	26699.71
616.86	26288.07
617.055	26775.48
617.25	26816.44
617.445	26828.73
617.641	26247.11
617.836	26980.28
618.031	26136.52
618.226	26642.37
618.421	26259.4
618.616	26632.13
618.811	26539.97
619.006	26445.76
619.201	26247.11
619.396	26337.22
619.591	25774.03
619.786	26228.68
619.981	25307.09
620.176	26281.92
620.371	25741.26
620.566	25855.95
620.761	25583.57
620.956	25462.74
621.151	25284.56
621.346	25563.09
621.541	24958.94
621.735	25270.23
621.93	25047
622.125	25346
622.32	24641.5
622.515	24924.12
622.709	24637.41
622.904	24668.12
623.099	24575.97
623.294	24858.59
623.488	24530.91
623.683	24301.54
623.878	24076.26
624.072	24627.17
624.267	23916.52
624.462	23838.7
624.656	23953.38
624.851	23570.41
625.046	23449.58
625.24	23697.39
625.435	23506.93
625.629	23455.73
625.824	23105.52
626.018	23242.74
626.213	22753.27
626.407	22921.21
626.602	22665.21
626.796	22603.77
626.991	22622.2
627.185	22648.83
627.38	22409.22
627.574	22355.97
627.768	22245.38
627.963	22038.53
628.157	22056.96
628.352	21973
628.546	21628.94
628.74	22089.73
628.935	21485.58
629.129	21530.64
629.323	21311.5
629.517	21202.96
629.712	21075.99
629.906	21000.21
630.1	20656.15
630.294	20885.53
630.489	20992.02
630.683	20830.23
630.877	20369.44
631.071	20379.68
631.265	20639.77
631.459	20219.94
631.653	20346.91
631.848	20076.58
632.042	19943.46
632.236	19980.32
632.43	19480.62
632.624	19863.59
632.818	19695.66
633.012	19525.68
633.206	19533.87
633.4	19396.65
633.594	19320.88
633.788	19177.52
633.982	19404.85
634.176	19058.74
634.369	19015.73
634.563	18804.79
634.757	18544.7
634.951	18886.71
635.145	18452.54
635.339	18329.66
635.533	18085.95
635.726	18520.12
635.92	18110.53
636.114	18131.01
636.308	17733.7
636.501	17766.47
636.695	17733.7
636.889	17789
637.083	17485.9
637.276	17592.39
637.47	17463.37
637.664	17272.91
637.857	17682.5
638.051	17033.3
638.244	17211.47
638.438	16963.67
638.632	16941.14
638.825	16707.67
639.019	16789.59
639.212	16609.37
639.406	16437.34
639.599	16388.19
639.793	16359.52
639.986	16162.91
640.18	16191.58
640.373	16146.53
640.567	15835.24
640.76	15829.09
640.954	15779.94
641.147	15751.27
641.34	15417.45
641.534	15616.1
641.727	15493.22
641.92	15366.25
642.114	15308.91
642.307	15306.86
642.5	14968.94
642.694	14895.22
642.887	14903.41
643.08	14934.13
643.273	14594.17
643.467	14616.69
643.66	14434.43
643.853	14481.53
644.046	14284.92
644.239	14372.99
644.432	14397.56
644.626	13879.43
644.819	14241.92
645.012	13875.33
645.205	13754.5
645.398	14053.5
645.591	13633.67
645.784	13578.37
645.977	13316.23
646.17	13527.17
646.363	13271.18
646.556	13283.47
646.749	13219.98
646.942	13326.47
647.135	13088.91
647.328	13131.92
647.521	12937.36
647.714	12873.87
647.907	12759.19
648.099	12628.12
648.292	12902.54
648.485	12533.91
648.678	12587.16
648.871	12472.47
649.064	12382.36
649.256	12406.94
649.449	12157.08
649.642	12036.25
649.835	11989.15
650.027	12021.92
650.22	12052.64
650.413	11946.14
650.605	11890.85
650.798	11837.6
650.991	11673.76
651.183	11716.77
651.376	11669.67
651.568	11704.48
651.761	11554.98
651.954	11329.7
652.146	11450.53
652.339	11399.34
652.531	11192.49
652.724	11268.27
652.916	10989.74
653.109	11133.1
653.301	11163.82
653.494	10934.45
653.686	10735.79
653.879	11073.71
654.071	10975.41
654.263	10729.65
654.456	10743.99
654.648	10838.19
654.84	10408.12
655.033	10279.1
655.225	10432.69
655.417	10234.04
655.61	10268.86
655.802	10361.02
655.994	10236.09
656.186	10287.29
656.379	10033.34
656.571	10137.79
656.763	9943.23
656.955	9871.55
657.148	9771.2
657.34	9992.38
657.532	9695.43
657.724	9687.23
657.916	9785.54
658.108	9717.95
658.3	9668.8
658.492	9547.97
658.684	9367.75
658.876	9191.63
659.068	9334.98
659.26	9269.45
659.452	9353.41
659.644	9355.46
659.836	9167.05
660.028	9101.51
660.22	9091.27
660.412	8933.58
660.604	8886.48
660.796	9015.5
660.988	9017.55
661.18	8845.52
661.372	8610
661.563	8829.13
661.755	8648.91
661.947	8970.44
662.139	8507.6
662.331	8313.05
662.522	8437.97
662.714	8470.74
662.906	8374.49
663.097	8327.38
663.289	8222.94
663.481	8229.08
663.673	8141.02
663.864	8294.61
664.056	7913.69
664.247	8132.83
664.439	7893.21
664.631	8014.04
664.822	7864.54
665.014	7885.02
665.205	7860.45
665.397	7762.14
665.588	7901.4
665.78	7555.3
665.971	7504.1
666.163	7747.81
666.354	7643.36
666.546	7534.82
666.737	7530.72
666.929	7639.26
667.12	7434.47
667.311	7387.36
667.503	7157.99
667.694	7307.49
667.885	7045.35
668.077	7233.77
668.268	6988.01
668.459	7188.71
668.651	7110.89
668.842	7090.41
669.033	6910.19
669.224	6975.72
669.416	7110.89
669.607	6992.11
669.798	6945
669.989	6967.53
670.18	6846.7
670.371	6807.79
670.563	6729.97
670.754	6602.99
670.945	6736.11
671.136	6738.16
671.327	6592.75
671.518	6635.76
671.709	6641.9
671.9	6729.97
672.091	6861.04
672.282	6410.48
672.473	6363.38
672.664	6615.28
672.855	6387.96
673.046	6467.83
673.237	6443.25
673.428	6412.53
673.619	6287.61
673.809	6420.72
674	6172.92
674.191	6414.58
674.382	6207.73
674.573	6240.5
674.764	6222.07
674.954	6336.76
675.145	6082.81
675.336	6107.38
675.527	6123.77
675.717	6025.47
675.908	6172.92
676.099	5906.68
676.289	6131.96
676.48	5972.22
676.671	5902.59
676.861	6086.9
677.052	6056.18
677.243	5943.55
677.433	5878.01
677.624	5998.84
677.814	6097.14
678.005	5812.48
678.195	6056.18
678.386	5931.26
678.576	5896.44
678.767	5665.02
678.957	5843.2
679.148	5886.2
679.338	5959.93
679.529	5828.86
679.719	5710.08
679.909	5857.53
680.1	5839.1
680.29	5847.29
680.481	5710.08
680.671	5732.61
680.861	5681.41
681.052	5593.34
681.242	5529.86
681.432	5675.26
681.622	5724.41
681.813	5705.98
682.003	5687.55
682.193	5669.12
682.383	5658.88
682.573	5597.44
682.764	5509.38
682.954	5615.87
683.144	5689.6
683.334	5656.83
683.524	5660.93
683.714	5605.63
683.904	5445.89
684.094	5568.77
684.284	5378.31
684.474	5591.3
684.664	5533.95
684.854	5593.34
685.044	5429.51
685.234	5460.23
685.424	5521.67
685.614	5421.31
685.804	5495.04
685.994	5396.74
686.184	5429.51
686.374	5503.23
686.564	5345.54
686.753	5351.68
686.943	5103.88
687.133	5329.16
687.323	5077.26
687.513	5165.32
687.702	5259.53
687.892	5200.13
688.082	5189.89
688.272	5357.83
688.461	5265.67
688.651	5247.24
688.841	5110.02
689.03	5173.51
689.22	5091.59
689.41	5110.02
689.599	5075.21
689.789	5120.26
689.979	5036.3
690.168	5044.49
690.358	5026.06
690.547	5009.67
690.737	5087.5
690.926	5044.49
691.116	4894.99
691.305	5026.06
691.495	4755.72
691.684	4817.16
691.874	4829.45
692.063	4839.69
692.252	4806.92
692.442	4929.8
692.631	4667.66
692.82	4854.03
693.01	4815.12
693.199	4903.18
693.388	4772.11
693.578	4864.27
693.767	4823.31
693.956	4692.24
694.146	4706.57
694.335	4813.07
694.524	4708.62
694.713	4735.25
694.902	4620.56
695.092	4714.77
695.281	4536.59
695.47	4718.86
695.659	4430.1
695.848	4577.55
696.037	4565.26
696.226	4825.36
696.415	4616.46
696.604	4518.16
696.793	4561.17
696.982	4405.52
697.171	4485.39
697.36	4628.75
697.549	4542.74
697.738	4428.05
697.927	4448.53
698.116	4509.97
698.305	4589.84
698.494	4536.59
698.683	4403.47
698.872	4436.24
699.061	4503.82
699.25	4364.56
699.438	4258.07
699.627	4415.76
699.816	4415.76
700.005	4395.28
700.193	4309.27
700.382	4346.13
700.571	4221.2
700.76	4245.78
700.948	4284.69
701.137	4518.16
701.326	4301.08
701.514	4471.06
701.703	4243.73
701.892	4249.88
702.08	4208.92
702.269	4231.44
702.457	4258.07
702.646	4249.88
702.834	4241.68
703.023	4274.45
703.212	4190.49
703.4	4202.77
703.589	3928.35
703.777	4159.77
703.965	3961.11
704.154	4145.43
704.342	4073.75
704.531	3957.02
704.719	4004.12
704.907	4159.77
705.096	4059.42
705.284	4020.5
705.472	4000.02
705.661	4159.77
705.849	4067.61
706.037	4051.22
706.226	3936.54
706.414	3971.35
706.602	3846.43
706.79	4083.99
706.979	3871
707.167	3791.13
707.355	3793.18
707.543	3823.9
707.731	3969.3
707.919	3871
708.107	3805.47
708.296	3752.22
708.484	3692.83
708.672	3715.36
708.86	3830.04
709.048	3748.12
709.236	3797.28
709.424	3793.18
709.612	3731.74
709.8	3729.69
709.988	3658.01
710.176	3752.22
710.364	3584.29
710.551	3660.06
710.739	3664.16
710.927	3692.83
711.115	3666.21
711.303	3615.01
711.491	3690.78
711.679	3553.57
711.866	3674.4
712.054	3649.82
712.242	3524.9
712.43	3629.34
712.617	3461.41
712.805	3586.33
712.993	3543.33
713.181	3596.57
713.368	3561.76
713.556	3463.46
713.744	3490.08
713.931	3602.72
714.119	3385.63
714.306	3469.6
714.494	3428.64
714.682	3420.45
714.869	3381.54
715.057	3424.55
715.244	3340.58
715.432	3420.45
715.619	3397.92
715.807	3264.8
715.994	3293.48
716.182	3424.55
716.369	3305.76
716.556	3406.11
716.744	3299.62
716.931	3363.11
717.119	3291.43
717.306	3225.89
717.493	3170.6
717.681	3313.95
717.868	3189.03
718.055	3275.04
718.242	3207.46
718.43	3191.08
718.617	3186.98
718.804	3178.79
718.991	3174.69
719.179	3105.06
719.366	3127.59
719.553	3121.45
719.74	3090.73
719.927	3100.97
720.114	3078.44
720.301	3119.4
720.488	3078.44
720.676	3096.87
720.863	3135.78
721.05	3090.73
721.237	2986.28
721.424	3082.53
721.611	2978.09
721.798	2922.79
721.985	2847.02
722.172	3004.71
722.358	2908.46
722.545	2914.6
722.732	2908.46
722.919	3068.2
723.106	2918.7
723.293	2879.79
723.48	2920.74
723.667	2900.27
723.853	2847.02
724.04	2914.6
724.227	2879.79
724.414	2978.09
724.6	2894.12
724.787	2900.27
724.974	2851.11
725.161	2797.87
725.347	2812.2
725.534	2937.13
725.72	2752.81
725.907	2824.49
726.094	2806.06
726.28	2859.31
726.467	2777.39
726.653	2801.96
726.84	2834.73
727.027	2840.87
727.213	2826.54
727.4	2859.31
727.586	2634.03
727.773	2648.36
727.959	2677.04
728.145	2806.06
728.332	2838.83
728.518	2728.24
728.705	2795.82
728.891	2687.28
729.077	2767.15
729.264	2619.69
729.45	2718
729.636	2699.56
729.823	2709.8
730.009	2742.57
730.195	2801.96
730.382	2515.25
730.568	2660.65
730.754	2513.2
730.94	2511.15
731.126	2670.89
731.313	2720.04
731.499	2523.44
731.685	2627.89
731.871	2552.11
732.057	2603.31
732.243	2578.73
732.429	2627.89
732.615	2552.11
732.801	2478.38
732.987	2507.06
733.173	2580.78
733.359	2543.92
733.545	2505.01
733.731	2490.67
733.917	2515.25
734.103	2658.6
734.289	2601.26
734.475	2486.58
734.661	2576.69
734.847	2474.29
735.033	2488.62
735.219	2466.1
735.404	2396.46
735.59	2521.39
735.776	2365.75
735.962	2421.04
736.148	2494.77
736.333	2445.62
736.519	2382.13
736.705	2494.77
736.89	2406.7
737.076	2429.23
737.262	2349.36
737.447	2412.85
737.633	2421.04
737.819	2414.9
738.004	2357.55
738.19	2416.94
738.375	2294.07
738.561	2445.62
738.747	2283.83
738.932	2375.99
739.118	2267.44
739.303	2439.47
739.489	2318.64
739.674	2306.35
739.859	2208.05
740.045	2335.03
740.23	2298.16
740.416	2216.24
740.601	2191.67
740.786	2191.67
740.972	2144.56
741.157	2191.67
741.342	2171.19
741.528	2226.48
741.713	2214.2
741.898	2076.98
742.084	2150.71
742.269	2134.32
742.454	2136.37
742.639	2003.25
742.824	2150.71
743.01	2085.17
743.195	2111.8
743.38	2087.22
743.565	2105.65
743.75	2076.98
743.935	2128.18
744.12	2140.47
744.305	2044.21
744.49	2044.21
744.675	2021.69
744.86	2052.41
745.045	1962.3
745.23	1966.39
745.415	2050.36
745.6	1945.91
745.785	1958.2
745.97	1937.72
746.155	1841.47
746.34	1839.42
746.525	1880.38
746.71	1894.71
746.895	1849.66
747.079	1880.38
747.264	1882.42
747.449	1866.04
747.634	1915.19
747.819	1855.8
748.003	1782.07
748.188	1825.08
748.373	1782.07
748.557	1704.25
748.742	1923.38
748.927	1814.84
749.111	1790.27
749.296	1706.3
749.481	1843.51
749.665	1653.05
749.85	1622.33
750.034	1827.13
750.219	1677.63
750.404	1661.24
750.588	1655.1
750.773	1526.08
750.957	1663.29
751.141	1646.91
751.326	1603.9
751.51	1548.61
751.695	1587.52
751.879	1644.86
752.064	1585.47
752.248	1581.37
752.432	1589.57
752.617	1579.33
752.801	1530.17
752.985	1456.45
753.17	1579.33
753.354	1466.69
753.538	1462.59
753.722	1524.03
753.907	1552.7
754.091	1507.65
754.275	1401.15
754.459	1470.78
754.643	1331.52
754.828	1380.67
755.012	1372.48
755.196	1306.95
755.38	1440.06
755.564	1409.34
755.748	1390.91
755.932	1417.54
756.116	1364.29
756.3	1313.09
756.484	1407.3
756.668	1319.23
756.852	1304.9
757.036	1241.41
757.22	1206.59
757.404	1196.36
757.588	1249.6
757.772	1225.03
757.956	1278.27
758.14	1304.9
758.323	1216.83
758.507	1186.12
758.691	1249.6
758.875	1102.15
759.059	1245.51
759.242	1212.74
759.426	1200.45
759.61	1225.03
759.794	1126.72
759.977	1182.02
760.161	1141.06
760.345	1179.97
760.528	1218.88
760.712	1161.54
760.895	1143.11
761.079	1096
761.263	1048.9
761.446	1100.1
761.63	1110.34
761.813	1104.2
761.997	1081.67
762.18	1112.39
762.364	1204.55
762.547	1093.96
762.731	997.7
762.914	1028.42
763.098	1036.61
763.281	973.13
763.464	1118.53
763.648	1108.29
763.831	944.45
764.015	1048.9
764.198	1114.44
764.381	997.7
764.564	1032.52
764.748	1014.09
764.931	999.75
765.114	948.55
765.297	1079.62
765.481	975.17
765.664	1030.47
765.847	958.79
766.03	1026.37
766.213	1024.33
766.397	999.75
766.58	874.82
766.763	1028.42
766.946	889.16
767.129	919.88
767.312	973.13
767.495	928.07
767.678	866.63
767.861	917.83
768.044	885.06
768.227	905.54
768.41	876.87
768.593	948.55
768.776	932.17
768.959	905.54
769.142	901.45
769.324	885.06
769.507	909.64
769.69	932.17
769.873	844.1
770.056	948.55
770.239	835.91
770.421	866.63
770.604	876.87
770.787	987.46
770.97	1005.89
771.152	942.41
771.335	817.48
771.518	852.3
771.7	969.03
771.883	831.82
772.066	840.01
772.248	817.48
772.431	753.99
772.613	858.44
772.796	848.2
772.978	848.2
773.161	883.02
773.343	766.28
773.526	897.35
773.708	799.05
773.891	725.32
774.073	840.01
774.256	778.57
774.438	864.58
774.621	786.76
774.803	819.53
774.985	745.8
775.168	790.86
775.35	772.43
775.532	768.33
775.715	682.31
775.897	743.75
776.079	725.32
776.261	667.98
776.444	708.94
776.626	723.27
776.808	643.4
776.99	645.45
777.173	702.79
777.355	700.75
777.537	686.41
777.719	680.27
777.901	710.99
778.083	651.6
778.265	569.68
778.447	659.79
778.629	670.03
778.811	667.98
778.993	610.64
779.175	637.26
779.357	577.87
779.539	624.97
779.721	686.41
779.903	678.22
780.085	588.11
780.267	661.84
780.449	594.25
780.631	629.07
780.812	659.79
780.994	584.01
781.176	614.73
781.358	555.34
781.54	487.76
781.721	553.29
781.903	553.29
782.085	565.58
782.267	643.4
782.448	563.53
782.63	491.85
782.812	463.18
782.993	614.73
783.175	508.24
783.357	475.47
783.538	495.95
783.72	594.25
783.901	612.68
784.083	538.96
784.264	461.13
784.446	557.39
784.627	469.33
784.809	573.77
784.99	487.76
785.172	430.41
785.353	405.84
785.535	498
785.716	500.05
785.897	422.22
786.079	399.7
786.26	450.89
786.441	424.27
786.623	407.89
786.804	463.18
786.985	414.03
787.167	452.94
787.348	446.8
787.529	403.79
787.71	389.46
787.891	448.85
788.073	405.84
788.254	430.41
788.435	487.76
788.616	407.89
788.797	377.17
788.978	393.55
789.159	368.98
789.34	483.66
789.522	438.61
789.703	381.26
789.884	405.84
790.065	381.26
790.246	471.37
790.427	373.07
790.607	409.94
790.788	389.46
790.969	424.27
791.15	375.12
791.331	301.39
791.512	405.84
791.693	360.78
791.874	381.26
792.054	430.41
792.235	373.07
792.416	368.98
792.597	360.78
792.778	352.59
792.958	383.31
793.139	309.58
793.32	342.35
793.5	325.97
793.681	299.34
793.862	344.4
794.042	291.15
794.223	213.33
794.404	287.06
794.584	266.58
794.765	328.02
794.945	252.24
795.126	317.78
795.306	389.46
795.487	301.39
795.667	287.06
795.848	252.24
796.028	295.25
796.209	319.82
796.389	323.92
796.57	289.1
796.75	217.43
796.93	235.86
797.111	260.43
797.291	315.73
797.471	262.48
797.652	291.15
797.832	162.13
798.012	350.54
798.192	258.39
798.373	225.62
798.553	248.15
798.733	311.63
798.913	213.33
799.093	270.67
799.274	293.2
799.454	270.67
799.634	225.62
799.814	258.39
799.994	211.28
800.174	299.34
800.354	145.75
800.534	262.48
800.714	332.11
800.894	86.36
801.074	209.23
801.254	151.89
801.434	219.47
801.614	178.51
801.794	219.47
801.974	878.92
802.154	209.23
802.334	264.53
802.514	211.28
802.693	184.66
802.873	242
803.053	258.39
803.233	287.06
803.413	252.24
803.592	135.51
803.772	227.67
803.952	285.01
804.131	186.71
804.311	254.29
804.491	237.91
804.67	217.43
804.85	119.12
805.03	272.72
805.209	233.81
805.389	168.27
805.568	170.32
805.748	184.66
805.928	192.85
806.107	184.66
806.287	282.96
806.466	160.08
806.646	110.93
806.825	246.1
807.004	260.43
807.184	201.04
807.363	162.13
807.543	272.72
807.722	155.99
807.901	266.58
808.081	162.13
808.26	53.59
808.439	108.88
808.619	262.48
808.798	192.85
808.977	137.56
809.156	217.43
809.336	217.43
809.515	217.43
809.694	143.7
809.873	112.98
810.052	192.85
810.231	184.66
810.411	233.81
810.59	104.79
810.769	160.08
810.948	112.98
811.127	37.2
811.306	215.38
811.485	143.7
811.664	196.95
811.843	121.17
812.022	213.33
812.201	160.08
812.38	61.78
812.559	119.12
812.737	186.71
812.916	115.03
813.095	176.47
813.274	80.21
813.453	123.22
813.632	119.12
813.811	170.32
813.989	104.79
814.168	188.75
814.347	82.26
814.526	57.68
814.704	164.18
814.883	164.18
815.062	164.18
815.24	196.95
815.419	123.22
815.598	82.26
815.776	137.56
815.955	86.36
816.133	127.32
816.312	137.56
816.49	82.26
816.669	145.75
816.847	94.55
817.026	127.32
817.204	153.94
817.383	112.98
817.561	127.32
817.74	164.18
817.918	203.09
818.097	115.03
818.275	100.69
818.453	106.84
818.632	67.92
818.81	110.93
818.988	90.45
819.167	-3.75
819.345	61.78
819.523	112.98
819.701	119.12
819.879	145.75
820.058	168.27
820.236	145.75
820.414	98.64
820.592	55.64
820.77	53.59
820.948	121.17
821.127	-9.9
821.305	94.55
821.483	143.7
821.661	102.74
821.839	65.88
822.017	94.55
822.195	110.93
822.373	131.41
822.551	59.73
822.729	112.98
822.907	104.79
823.085	96.6
823.262	106.84
823.44	94.55
823.618	135.51
823.796	119.12
823.974	69.97
824.152	53.59
824.329	78.16
824.507	67.92
824.685	74.07
824.863	80.21
825.04	80.21
825.218	69.97
825.396	90.45
825.574	96.6
825.751	72.02
825.929	149.84
826.107	61.78
826.284	78.16
826.462	69.97
826.639	102.74
826.817	39.25
826.994	55.64
827.172	106.84
827.349	86.36
827.527	29.01
827.704	53.59
827.882	119.12
828.059	63.83
828.237	143.7
828.414	88.4
828.591	4.44
828.769	98.64
828.946	37.2
829.124	106.84
829.301	57.68
829.478	162.13
829.655	8.53
829.833	61.78
830.01	-13.99
830.187	63.83
830.364	45.4
830.542	74.07
830.719	74.07
830.896	53.59
831.073	29.01
831.25	112.98
831.427	63.83
831.604	82.26
831.782	61.78
831.959	80.21
832.136	63.83
832.313	102.74
832.49	49.49
832.667	55.64
832.844	84.31
833.021	78.16
833.198	88.4
833.374	12.63
833.551	-48.81
833.728	47.44
833.905	-7.85
834.082	-44.71
834.259	49.49
834.436	127.32
834.612	37.2
834.789	110.93
834.966	-16.04
835.143	106.84
835.319	80.21
835.496	-11.95
835.673	90.45
835.85	98.64
836.026	55.64
836.203	31.06
836.38	-11.95
836.556	10.58
836.733	61.78
836.909	115.03
837.086	0.34
837.262	29.01
837.439	-7.85
837.616	26.96
837.792	12.63
837.968	12.63
838.145	4.44
838.321	61.78
838.498	72.02
838.674	29.01
838.851	47.44
839.027	29.01
839.203	49.49
839.38	4.44
839.556	0.34
839.732	33.11
839.909	45.4
840.085	88.4
840.261	-34.47
840.437	37.2
840.614	12.63
840.79	88.4
840.966	0.34
841.142	22.87
841.318	39.25
841.494	55.64
841.671	45.4
841.847	84.31
842.023	74.07
842.199	112.98
842.375	123.22
842.551	24.92
842.727	12.63
842.903	45.4
843.079	51.54
843.255	14.68
843.431	86.36
843.607	-40.62
843.783	-20.14
843.959	12.63
844.134	63.83
844.31	4.44
844.486	-1.71
844.662	-26.28
844.838	45.4
845.013	14.68
845.189	29.01
845.365	29.01
845.541	-22.19
845.716	90.45
845.892	-1.71
846.068	29.01
846.244	0.34
846.419	29.01
846.595	-100.01
846.77	45.4
846.946	22.87
847.122	4.44
847.297	-3.75
847.473	20.82
847.648	20.82
847.824	37.2
847.999	12.63
848.175	29.01
848.35	37.2
848.526	90.45
848.701	47.44
848.876	39.25
849.052	98.64
849.227	78.16
849.403	67.92
849.578	96.6
849.753	74.07
849.929	78.16
850.104	-9.9
850.279	-52.91
850.454	88.4
850.63	12.63
850.805	43.35
850.98	47.44
851.155	-11.95
851.33	35.16
851.505	-36.52
851.681	153.94
851.856	26.96
852.031	29.01
852.206	78.16
852.381	-9.9
852.556	16.73
852.731	88.4
852.906	-9.9
853.081	10.58
853.256	12.63
853.431	-69.29
853.606	-34.47
853.781	-16.04
853.956	-30.38
854.131	37.2
854.305	6.49
854.48	33.11
854.655	-61.1
854.83	12.63
855.005	-13.99
855.18	43.35
855.354	65.88
855.529	104.79
855.704	-36.52
855.879	31.06
856.053	-16.04
856.228	-7.85
856.403	12.63
856.577	-1.71
856.752	-52.91
856.926	-11.95
857.101	29.01
857.276	12.63
857.45	22.87
857.625	53.59
857.799	16.73
857.974	47.44
858.148	-40.62
858.323	-11.95
858.497	-30.38
858.672	53.59
858.846	-28.33
859.02	-44.71
859.195	-75.43
859.369	-9.9
859.543	-34.47
859.718	-3.75
859.892	-5.8
860.066	14.68
860.241	-44.71
860.415	-40.62
860.589	72.02
860.763	12.63
860.938	-30.38
861.112	14.68
861.286	-36.52
861.46	-3.75
861.634	-36.52
861.808	74.07
861.982	14.68
862.157	29.01
862.331	-28.33
862.505	-20.14
862.679	-83.63
862.853	-91.82
863.027	-1.71
863.201	119.12
863.375	-42.67
863.549	4.44
863.722	22.87
863.896	-30.38
864.07	-75.43
864.244	61.78
864.418	8.53
864.592	37.2
864.766	2.39
864.939	-3.75
865.113	-50.86
865.287	41.3
865.461	-24.23
865.634	-52.91
865.808	-9.9
865.982	-48.81
866.156	-85.67
866.329	37.2
866.503	33.11
866.676	-89.77
866.85	14.68
867.024	-3.75
867.197	33.11
867.371	-1.71
867.544	-52.91
867.718	-85.67
867.891	22.87
868.065	6.49
868.238	4.44
868.412	49.49
868.585	-28.33
868.759	-16.04
868.932	-97.96
869.105	39.25
869.279	31.06
869.452	-16.04
869.625	72.02
869.799	-77.48
869.972	14.68
870.145	47.44
870.319	22.87
870.492	-65.19
870.665	-85.67
870.838	-28.33
871.011	-50.86
871.185	20.82
871.358	-93.87
871.531	-16.04
871.704	-3.75
871.877	8.53
872.05	45.4
872.223	-44.71
872.396	76.12
872.569	-13.99
872.742	-36.52
872.915	39.25
873.088	-3.75
873.261	-34.47
873.434	45.4
873.607	82.26
873.78	72.02
873.953	-102.06
874.126	-57
874.299	31.06
874.471	-24.23
874.644	-124.58
874.817	29.01
874.99	45.4
875.163	8.53
875.335	20.82
875.508	18.77
875.681	61.78
875.853	0.34
876.026	37.2
876.199	4.44
876.371	-9.9
876.544	31.06
876.717	-77.48
876.889	39.25
877.062	4.44
877.234	-16.04
877.407	53.59
877.579	-59.05
877.752	22.87
877.924	53.59
878.097	14.68
878.269	4.44
878.442	4.44
878.614	-24.23
878.786	-16.04
878.959	33.11
879.131	-18.09
879.303	-93.87
879.476	41.3
879.648	4.44
879.82	-52.91
879.993	-26.28
880.165	-26.28
880.337	-75.43
880.509	20.82
880.681	-85.67
880.854	-5.8
881.026	-20.14
881.198	4.44
881.37	10.58
881.542	16.73
881.714	-16.04
881.886	-40.62
882.058	-42.67
882.23	-61.1
882.402	-34.47
882.574	-13.99
882.746	84.31
882.918	-42.67
883.09	-28.33
883.262	4.44
883.434	20.82
883.606	-67.24
883.778	-44.71
883.95	-11.95
884.122	-26.28
884.293	22.87
884.465	57.68
884.637	61.78
884.809	-52.91
884.98	-67.24
885.152	-40.62
885.324	12.63
885.496	16.73
885.667	12.63
885.839	-44.71
886.011	53.59
886.182	16.73
886.354	-3.75
886.525	43.35
886.697	29.01
886.869	-3.75
887.04	-28.33
887.212	37.2
887.383	47.44
887.555	6.49
887.726	-20.14
887.897	-57
888.069	37.2
888.24	39.25
888.412	-9.9
888.583	12.63
888.754	-11.95
888.926	-30.38
889.097	-59.05
889.268	-34.47
889.44	8.53
889.611	-75.43
889.782	-32.43
889.953	4.44
890.125	51.54
890.296	43.35
890.467	-83.63
890.638	-3.75
890.809	4.44
890.98	-36.52
891.151	33.11
891.323	35.16
891.494	55.64
891.665	-91.82
891.836	-97.96
892.007	12.63
892.178	-40.62
892.349	29.01
892.52	-50.86
892.691	33.11
892.862	-61.1
893.032	-67.24
893.203	-34.47
893.374	98.64
893.545	6.49
893.716	-28.33
893.887	82.26
894.057	-5.8
894.228	-40.62
894.399	-42.67
894.57	53.59
894.74	39.25
894.911	12.63
895.082	-110.25
895.253	4.44
895.423	4.44
895.594	-36.52
895.764	69.97
895.935	-24.23
896.106	-65.19
896.276	-52.91
896.447	-34.47
896.617	-16.04
896.788	-24.23
896.958	-11.95
897.129	-73.39
897.299	-3.75
897.47	-11.95
897.64	-18.09
897.81	-5.8
897.981	16.73
898.151	-116.39
898.322	35.16
898.492	55.64
898.662	-30.38
898.832	-26.28
899.003	-1.71
899.173	49.49
899.343	-3.75
899.513	-5.8
