Data from USB4F104151__164__14-32-17-043.txt Node

Date: Thu Mar 13 14:32:17 EDT 2025
User: louis
Spectrometer: USB4F10415
Trigger mode: 4
Integration Time (sec): 2.500000E-2
Scans to average: 1
Electric dark correction enabled: true
Nonlinearity correction enabled: false
Boxcar width: 0
XAxis mode: Wavelengths
Number of Pixels in Spectrum: 3648
>>>>>Begin Spectral Data<<<<<
178.204	-95.06
178.424	-95.06
178.644	-95.06
178.864	-181.07
179.084	-140.12
179.304	46.25
179.524	3.24
179.744	-23.38
179.964	72.87
180.184	-54.1
180.404	-66.39
180.624	-54.1
180.844	52.39
181.064	-37.72
181.283	52.39
181.503	9.39
181.723	-0.85
181.943	-64.34
182.163	58.54
182.383	-13.14
182.602	132.26
182.822	89.26
183.042	15.53
183.262	31.91
183.482	56.49
183.701	27.82
183.921	-23.38
184.141	25.77
184.361	7.34
184.58	9.39
184.8	7.34
185.02	-41.81
185.239	76.97
185.459	-9.05
185.679	154.79
185.898	-72.53
186.118	79.02
186.338	7.34
186.557	48.3
186.777	5.29
186.997	85.16
187.216	42.15
187.436	128.17
187.655	19.63
187.875	27.82
188.095	3.24
188.314	72.87
188.534	72.87
188.753	52.39
188.973	25.77
189.192	99.5
189.412	-7
189.631	-7
189.851	68.78
190.07	107.69
190.29	19.63
190.509	64.68
190.729	25.77
190.948	99.5
191.168	103.59
191.387	72.87
191.607	-4.95
191.826	50.35
192.045	42.15
192.265	-72.53
192.484	48.3
192.704	52.39
192.923	40.11
193.142	105.64
193.362	72.87
193.581	72.87
193.8	19.63
194.02	33.96
194.239	-33.62
194.458	68.78
194.678	58.54
194.897	42.15
195.116	40.11
195.335	66.73
195.555	11.43
195.774	17.58
195.993	36.01
196.212	-9.05
196.432	42.15
196.651	23.72
196.87	154.79
197.089	101.55
197.308	126.12
197.528	25.77
197.747	-9.05
197.966	97.45
198.185	89.26
198.404	7.34
198.623	66.73
198.842	91.31
199.062	48.3
199.281	48.3
199.5	56.49
199.719	99.5
199.938	1.19
200.157	21.67
200.376	13.48
200.595	81.07
200.814	-4.95
201.033	42.15
201.252	105.64
201.471	66.73
201.69	-9.05
201.909	-58.2
202.128	87.21
202.347	11.43
202.566	27.82
202.785	-29.52
203.004	42.15
203.223	91.31
203.442	54.44
203.661	3.24
203.879	48.3
204.098	89.26
204.317	15.53
204.536	107.69
204.755	-7
204.974	13.48
205.193	42.15
205.411	95.4
205.63	99.5
205.849	76.97
206.068	-17.24
206.287	-15.19
206.505	3.24
206.724	-47.96
206.943	25.77
207.162	36.01
207.381	48.3
207.599	-21.33
207.818	56.49
208.037	40.11
208.255	-33.62
208.474	33.96
208.693	33.96
208.911	62.63
209.13	81.07
209.349	105.64
209.567	36.01
209.786	97.45
210.005	99.5
210.223	58.54
210.442	-39.76
210.661	11.43
210.879	31.91
211.098	33.96
211.316	19.63
211.535	7.34
211.753	25.77
211.972	15.53
212.191	7.34
212.409	64.68
212.628	11.43
212.846	-62.29
213.065	122.02
213.283	91.31
213.502	-45.91
213.72	48.3
213.938	36.01
214.157	85.16
214.375	7.34
214.594	38.06
214.812	76.97
215.031	13.48
215.249	-17.24
215.467	56.49
215.686	99.5
215.904	72.87
216.122	105.64
216.341	50.35
216.559	11.43
216.778	87.21
216.996	36.01
217.214	48.3
217.432	44.2
217.651	17.58
217.869	-43.86
218.087	9.39
218.306	66.73
218.524	5.29
218.742	3.24
218.96	60.59
219.179	56.49
219.397	-25.43
219.615	113.83
219.833	85.16
220.051	-62.29
220.27	74.92
220.488	64.68
220.706	58.54
220.924	-29.52
221.142	38.06
221.36	19.63
221.578	-88.92
221.796	7.34
222.015	97.45
222.233	111.78
222.451	81.07
222.669	68.78
222.887	60.59
223.105	38.06
223.323	15.53
223.541	17.58
223.759	83.11
223.977	31.91
224.195	93.35
224.413	-45.91
224.631	56.49
224.849	40.11
225.067	113.83
225.285	-33.62
225.503	19.63
225.721	-58.2
225.939	99.5
226.157	33.96
226.375	113.83
226.592	-7
226.81	-15.19
227.028	-0.85
227.246	109.74
227.464	-33.62
227.682	44.2
227.9	64.68
228.117	76.97
228.335	60.59
228.553	64.68
228.771	38.06
228.989	7.34
229.206	9.39
229.424	-0.85
229.642	83.11
229.86	-35.67
230.077	89.26
230.295	-21.33
230.513	42.15
230.731	83.11
230.948	66.73
231.166	64.68
231.384	91.31
231.601	38.06
231.819	79.02
232.037	7.34
232.254	15.53
232.472	-0.85
232.689	21.67
232.907	15.53
233.125	40.11
233.342	-31.57
233.56	-7
233.777	1.19
233.995	36.01
234.213	19.63
234.43	56.49
234.648	66.73
234.865	-23.38
235.083	50.35
235.3	25.77
235.518	-29.52
235.735	15.53
235.953	83.11
236.17	44.2
236.388	7.34
236.605	-9.05
236.822	23.72
237.04	-7
237.257	48.3
237.475	15.53
237.692	62.63
237.909	50.35
238.127	54.44
238.344	31.91
238.562	115.88
238.779	42.15
238.996	-62.29
239.214	56.49
239.431	27.82
239.648	27.82
239.865	-0.85
240.083	11.43
240.3	31.91
240.517	-72.53
240.735	-4.95
240.952	64.68
241.169	23.72
241.386	19.63
241.603	64.68
241.821	-11.09
242.038	74.92
242.255	72.87
242.472	-41.81
242.689	48.3
242.907	64.68
243.124	29.87
243.341	-11.09
243.558	58.54
243.775	-52.05
243.992	27.82
244.209	89.26
244.426	105.64
244.643	97.45
244.86	58.54
245.078	64.68
245.295	66.73
245.512	97.45
245.729	52.39
245.946	23.72
246.163	-21.33
246.38	85.16
246.597	11.43
246.814	50.35
247.031	60.59
247.248	11.43
247.464	-11.09
247.681	50.35
247.898	9.39
248.115	64.68
248.332	-70.48
248.549	60.59
248.766	7.34
248.983	66.73
249.2	46.25
249.417	93.35
249.633	-0.85
249.85	-25.43
250.067	40.11
250.284	-13.14
250.501	3.24
250.717	-15.19
250.934	-37.72
251.151	-9.05
251.368	1.19
251.585	56.49
251.801	15.53
252.018	81.07
252.235	44.2
252.451	9.39
252.668	42.15
252.885	44.2
253.102	-15.19
253.318	17.58
253.535	-9.05
253.752	68.78
253.968	40.11
254.185	27.82
254.401	58.54
254.618	52.39
254.835	-0.85
255.051	89.26
255.268	74.92
255.484	101.55
255.701	140.46
255.917	89.26
256.134	70.83
256.351	-9.05
256.567	33.96
256.784	7.34
257	7.34
257.217	31.91
257.433	44.2
257.65	113.83
257.866	56.49
258.082	15.53
258.299	11.43
258.515	66.73
258.732	-23.38
258.948	9.39
259.165	60.59
259.381	-4.95
259.597	25.77
259.814	7.34
260.03	64.68
260.246	-15.19
260.463	119.98
260.679	97.45
260.895	-21.33
261.112	31.91
261.328	46.25
261.544	-29.52
261.761	97.45
261.977	48.3
262.193	-41.81
262.409	72.87
262.626	81.07
262.842	146.6
263.058	-23.38
263.274	144.55
263.49	40.11
263.707	66.73
263.923	56.49
264.139	-29.52
264.355	9.39
264.571	36.01
264.787	27.82
265.004	111.78
265.22	66.73
265.436	36.01
265.652	-74.58
265.868	38.06
266.084	3.24
266.3	52.39
266.516	-15.19
266.732	89.26
266.948	56.49
267.164	-17.24
267.38	56.49
267.596	-7
267.812	76.97
268.028	68.78
268.244	83.11
268.46	23.72
268.676	33.96
268.892	21.67
269.108	5.29
269.324	89.26
269.54	1.19
269.756	62.63
269.972	-72.53
270.188	56.49
270.403	-31.57
270.619	27.82
270.835	21.67
271.051	23.72
271.267	-70.48
271.483	-7
271.698	66.73
271.914	-37.72
272.13	115.88
272.346	154.79
272.562	31.91
272.777	101.55
272.993	-11.09
273.209	97.45
273.425	72.87
273.64	-25.43
273.856	-54.1
274.072	107.69
274.287	-11.09
274.503	83.11
274.719	9.39
274.934	44.2
275.15	19.63
275.366	64.68
275.581	15.53
275.797	23.72
276.012	42.15
276.228	58.54
276.444	50.35
276.659	115.88
276.875	-62.29
277.09	48.3
277.306	42.15
277.521	56.49
277.737	11.43
277.952	-27.48
278.168	64.68
278.383	74.92
278.599	36.01
278.814	-31.57
279.03	-21.33
279.245	83.11
279.461	48.3
279.676	-29.52
279.892	-0.85
280.107	36.01
280.322	23.72
280.538	89.26
280.753	23.72
280.969	70.83
281.184	25.77
281.399	156.84
281.615	-29.52
281.83	68.78
282.045	-50
282.26	62.63
282.476	56.49
282.691	48.3
282.906	7.34
283.122	107.69
283.337	-31.57
283.552	17.58
283.767	7.34
283.983	44.2
284.198	23.72
284.413	76.97
284.628	-41.81
284.843	56.49
285.058	29.87
285.274	60.59
285.489	-33.62
285.704	23.72
285.919	3.24
286.134	33.96
286.349	48.3
286.564	13.48
286.779	93.35
286.995	56.49
287.21	19.63
287.425	48.3
287.64	56.49
287.855	7.34
288.07	-13.14
288.285	23.72
288.5	85.16
288.715	79.02
288.93	89.26
289.145	3.24
289.36	19.63
289.575	48.3
289.79	40.11
290.004	42.15
290.219	83.11
290.434	31.91
290.649	89.26
290.864	23.72
291.079	-9.05
291.294	7.34
291.509	44.2
291.724	11.43
291.938	13.48
292.153	15.53
292.368	79.02
292.583	27.82
292.798	89.26
293.012	81.07
293.227	70.83
293.442	44.2
293.657	91.31
293.871	70.83
294.086	76.97
294.301	138.41
294.516	66.73
294.73	29.87
294.945	-17.24
295.16	-15.19
295.374	40.11
295.589	-0.85
295.804	-25.43
296.018	50.35
296.233	117.93
296.447	11.43
296.662	48.3
296.877	62.63
297.091	60.59
297.306	29.87
297.52	21.67
297.735	25.77
297.949	60.59
298.164	-17.24
298.378	3.24
298.593	48.3
298.807	15.53
299.022	64.68
299.236	99.5
299.451	7.34
299.665	3.24
299.88	-33.62
300.094	23.72
300.309	50.35
300.523	81.07
300.737	-58.2
300.952	9.39
301.166	-15.19
301.381	15.53
301.595	48.3
301.809	9.39
302.024	-0.85
302.238	-95.06
302.452	54.44
302.667	15.53
302.881	68.78
303.095	7.34
303.309	-4.95
303.524	-56.15
303.738	31.91
303.952	56.49
304.166	72.87
304.381	9.39
304.595	95.4
304.809	7.34
305.023	25.77
305.237	60.59
305.452	9.39
305.666	46.25
305.88	44.2
306.094	7.34
306.308	115.88
306.522	60.59
306.736	-0.85
306.95	17.58
307.164	33.96
307.379	33.96
307.593	109.74
307.807	54.44
308.021	46.25
308.235	81.07
308.449	-2.9
308.663	33.96
308.877	58.54
309.091	44.2
309.305	-33.62
309.519	11.43
309.733	23.72
309.947	36.01
310.161	52.39
310.374	-39.76
310.588	15.53
310.802	31.91
311.016	21.67
311.23	-0.85
311.444	-50
311.658	5.29
311.872	97.45
312.085	-2.9
312.299	126.12
312.513	68.78
312.727	111.78
312.941	-13.14
313.154	76.97
313.368	76.97
313.582	-0.85
313.796	52.39
314.009	-33.62
314.223	68.78
314.437	27.82
314.651	122.02
314.864	-9.05
315.078	7.34
315.292	56.49
315.505	21.67
315.719	42.15
315.933	-7
316.146	7.34
316.36	-9.05
316.573	40.11
316.787	11.43
317.001	1.19
317.214	33.96
317.428	40.11
317.641	-9.05
317.855	72.87
318.068	119.98
318.282	19.63
318.495	130.22
318.709	-21.33
318.922	40.11
319.136	66.73
319.349	25.77
319.563	-80.72
319.776	76.97
319.99	9.39
320.203	76.97
320.417	99.5
320.63	17.58
320.843	146.6
321.057	87.21
321.27	25.77
321.483	130.22
321.697	97.45
321.91	97.45
322.124	27.82
322.337	-0.85
322.55	-9.05
322.763	-23.38
322.977	42.15
323.19	7.34
323.403	27.82
323.617	70.83
323.83	33.96
324.043	54.44
324.256	27.82
324.469	-4.95
324.683	52.39
324.896	5.29
325.109	89.26
325.322	5.29
325.535	56.49
325.748	66.73
325.962	-19.29
326.175	25.77
326.388	58.54
326.601	60.59
326.814	44.2
327.027	68.78
327.24	89.26
327.453	-64.34
327.666	27.82
327.879	48.3
328.092	97.45
328.305	15.53
328.518	122.02
328.731	13.48
328.944	19.63
329.157	-37.72
329.37	-11.09
329.583	31.91
329.796	52.39
330.009	7.34
330.222	58.54
330.435	68.78
330.648	117.93
330.861	42.15
331.073	105.64
331.286	42.15
331.499	-0.85
331.712	56.49
331.925	-0.85
332.138	-9.05
332.35	56.49
332.563	46.25
332.776	97.45
332.989	19.63
333.202	9.39
333.414	23.72
333.627	-7
333.84	11.43
334.053	50.35
334.265	23.72
334.478	17.58
334.691	48.3
334.903	91.31
335.116	33.96
335.329	31.91
335.541	76.97
335.754	144.55
335.966	-7
336.179	17.58
336.392	62.63
336.604	40.11
336.817	56.49
337.029	40.11
337.242	-7
337.454	64.68
337.667	66.73
337.88	85.16
338.092	105.64
338.305	85.16
338.517	40.11
338.729	-9.05
338.942	91.31
339.154	66.73
339.367	33.96
339.579	19.63
339.792	68.78
340.004	48.3
340.217	60.59
340.429	-9.05
340.641	23.72
340.854	72.87
341.066	1.19
341.278	31.91
341.491	87.21
341.703	19.63
341.915	-17.24
342.128	-0.85
342.34	-23.38
342.552	19.63
342.764	31.91
342.977	52.39
343.189	31.91
343.401	-7
343.613	7.34
343.826	58.54
344.038	-11.09
344.25	-29.52
344.462	7.34
344.674	68.78
344.886	3.24
345.099	-15.19
345.311	-9.05
345.523	-9.05
345.735	64.68
345.947	-0.85
346.159	58.54
346.371	-4.95
346.583	25.77
346.795	113.83
347.007	-4.95
347.219	9.39
347.431	-7
347.643	40.11
347.855	31.91
348.067	50.35
348.279	-33.62
348.491	3.24
348.703	44.2
348.915	54.44
349.127	50.35
349.339	97.45
349.551	93.35
349.763	124.07
349.975	21.67
350.187	83.11
350.399	3.24
350.61	74.92
350.822	33.96
351.034	64.68
351.246	64.68
351.458	91.31
351.669	93.35
351.881	38.06
352.093	23.72
352.305	5.29
352.517	66.73
352.728	70.83
352.94	23.72
353.152	50.35
353.363	-60.24
353.575	89.26
353.787	1.19
353.999	23.72
354.21	66.73
354.422	23.72
354.633	109.74
354.845	50.35
355.057	64.68
355.268	48.3
355.48	40.11
355.692	9.39
355.903	48.3
356.115	40.11
356.326	52.39
356.538	81.07
356.749	25.77
356.961	72.87
357.172	97.45
357.384	-15.19
357.595	179.37
357.807	42.15
358.018	-15.19
358.23	44.2
358.441	44.2
358.653	15.53
358.864	113.83
359.075	3.24
359.287	52.39
359.498	64.68
359.709	40.11
359.921	-0.85
360.132	62.63
360.344	81.07
360.555	36.01
360.766	-0.85
360.977	-31.57
361.189	17.58
361.4	-15.19
361.611	25.77
361.823	81.07
362.034	19.63
362.245	93.35
362.456	122.02
362.667	95.4
362.879	1.19
363.09	15.53
363.301	85.16
363.512	15.53
363.723	25.77
363.935	19.63
364.146	140.46
364.357	7.34
364.568	89.26
364.779	-13.14
364.99	5.29
365.201	25.77
365.412	154.79
365.623	9.39
365.834	-9.05
366.045	23.72
366.256	87.21
366.467	119.98
366.678	42.15
366.889	31.91
367.1	40.11
367.311	81.07
367.522	-15.19
367.733	68.78
367.944	33.96
368.155	15.53
368.366	64.68
368.577	46.25
368.788	68.78
368.999	-72.53
369.209	68.78
369.42	99.5
369.631	150.7
369.842	50.35
370.053	56.49
370.264	7.34
370.474	15.53
370.685	7.34
370.896	89.26
371.107	7.34
371.317	81.07
371.528	-9.05
371.739	-0.85
371.95	48.3
372.16	50.35
372.371	-99.16
372.582	-4.95
372.792	89.26
373.003	66.73
373.214	7.34
373.424	48.3
373.635	89.26
373.846	56.49
374.056	95.4
374.267	68.78
374.477	-2.9
374.688	58.54
374.898	64.68
375.109	81.07
375.319	17.58
375.53	50.35
375.74	46.25
375.951	-9.05
376.161	66.73
376.372	167.08
376.582	-29.52
376.793	27.82
377.003	64.68
377.214	83.11
377.424	1.19
377.635	142.5
377.845	-9.05
378.055	3.24
378.266	23.72
378.476	109.74
378.686	-13.14
378.897	19.63
379.107	1.19
379.317	31.91
379.528	54.44
379.738	36.01
379.948	48.3
380.158	48.3
380.369	27.82
380.579	42.15
380.789	44.2
380.999	36.01
381.21	42.15
381.42	175.27
381.63	7.34
381.84	-0.85
382.05	74.92
382.261	105.64
382.471	52.39
382.681	-15.19
382.891	122.02
383.101	109.74
383.311	42.15
383.521	130.22
383.731	68.78
383.941	72.87
384.151	9.39
384.361	11.43
384.571	93.35
384.781	60.59
384.991	115.88
385.201	74.92
385.411	27.82
385.621	62.63
385.831	64.68
386.041	101.55
386.251	-62.29
386.461	9.39
386.671	50.35
386.881	42.15
387.091	42.15
387.301	124.07
387.511	76.97
387.72	40.11
387.93	-25.43
388.14	17.58
388.35	52.39
388.56	38.06
388.769	97.45
388.979	56.49
389.189	72.87
389.399	58.54
389.609	89.26
389.818	140.46
390.028	81.07
390.238	56.49
390.447	74.92
390.657	113.83
390.867	83.11
391.076	31.91
391.286	60.59
391.496	48.3
391.705	70.83
391.915	27.82
392.125	138.41
392.334	83.11
392.544	103.59
392.753	64.68
392.963	101.55
393.172	31.91
393.382	-0.85
393.591	109.74
393.801	74.92
394.01	113.83
394.22	36.01
394.429	38.06
394.639	15.53
394.848	85.16
395.058	103.59
395.267	54.44
395.477	99.5
395.686	72.87
395.895	191.66
396.105	48.3
396.314	60.59
396.524	50.35
396.733	11.43
396.942	107.69
397.152	72.87
397.361	117.93
397.57	105.64
397.78	122.02
397.989	115.88
398.198	179.37
398.407	146.6
398.617	122.02
398.826	42.15
399.035	-0.85
399.244	95.4
399.453	56.49
399.663	113.83
399.872	60.59
400.081	36.01
400.29	56.49
400.499	56.49
400.708	83.11
400.917	105.64
401.127	99.5
401.336	31.91
401.545	122.02
401.754	105.64
401.963	156.84
402.172	-4.95
402.381	138.41
402.59	199.85
402.799	126.12
403.008	158.89
403.217	146.6
403.426	64.68
403.635	165.03
403.844	72.87
404.053	101.55
404.262	119.98
404.471	175.27
404.68	212.14
404.888	56.49
405.097	64.68
405.306	167.08
405.515	199.85
405.724	160.94
405.933	154.79
406.142	208.04
406.35	130.22
406.559	138.41
406.768	144.55
406.977	265.38
407.185	220.33
407.394	261.29
407.603	126.12
407.812	179.37
408.02	208.04
408.229	148.65
408.438	154.79
408.646	154.79
408.855	273.57
409.064	236.71
409.272	224.42
409.481	271.53
409.69	249
409.898	255.14
410.107	255.14
410.315	287.91
410.524	267.43
410.733	359.59
410.941	246.95
411.15	310.44
411.358	312.49
411.567	361.64
411.775	332.97
411.984	371.88
412.192	369.83
412.401	335.01
412.609	445.6
412.818	433.32
413.026	427.17
413.234	459.94
413.443	490.66
413.651	550.05
413.86	502.95
414.068	558.24
414.276	519.33
414.485	509.09
414.693	535.71
414.901	556.19
415.11	623.78
415.318	564.39
415.526	578.72
415.734	658.59
415.943	638.11
416.151	670.88
416.359	695.46
416.567	787.61
416.776	672.93
416.984	826.53
417.192	875.68
417.4	812.19
417.608	767.13
417.817	855.2
418.025	830.62
418.233	941.21
418.441	908.44
418.649	883.87
418.857	1088.67
419.065	1031.32
419.273	1012.89
419.481	1076.38
419.689	1203.35
419.897	1234.07
420.105	1260.7
420.313	1281.18
420.521	1399.96
420.729	1436.82
420.937	1354.9
421.145	1426.58
421.353	1520.79
421.561	1623.19
421.769	1604.75
421.977	1703.06
422.185	1619.09
422.393	1703.06
422.601	1825.93
422.809	1752.21
423.017	1762.45
423.224	1969.29
423.432	2145.42
423.64	1977.48
423.848	2192.52
424.056	2180.23
424.263	2346.12
424.471	2325.64
424.679	2243.72
424.887	2477.19
425.094	2489.48
425.302	2382.98
425.51	2628.74
425.718	2735.23
425.925	2786.43
426.133	2833.54
426.341	3036.28
426.548	3136.63
426.756	3093.63
426.964	3202.17
427.171	3361.91
427.379	3409.01
427.586	3415.16
427.794	3603.57
428.001	3660.91
428.209	3871.86
428.417	3853.42
428.624	4181.1
428.832	4084.84
429.039	4082.8
429.247	4254.83
429.454	4490.34
429.662	4711.52
429.869	4555.88
430.076	4787.3
430.284	4529.25
430.491	4906.08
430.699	5110.88
430.906	5274.71
431.114	5219.42
431.321	5481.56
431.528	5577.81
431.736	5776.47
431.943	6104.14
432.15	6095.95
432.358	5966.93
432.565	6270.03
432.772	6380.62
432.979	6552.65
433.187	6818.88
433.394	6775.88
433.601	7181.37
433.808	7281.72
434.016	7193.66
434.223	7580.73
434.43	8100.91
434.637	7869.49
434.844	8412.2
435.052	8592.42
435.259	8457.26
435.466	8518.7
435.673	8291.37
435.88	9010.21
436.087	9188.38
436.294	9282.59
436.501	9206.81
436.708	9163.81
436.915	9794.58
437.122	9999.38
437.329	10091.54
437.537	10124.3
437.743	10552.33
437.95	10537.99
438.157	11111.43
438.364	11293.69
438.571	11219.97
438.778	11445.24
438.985	12581.87
439.192	11936.76
439.399	12313.58
439.606	11893.75
439.813	12739.56
440.02	13544.41
440.227	12966.88
440.433	13007.84
440.64	13351.9
440.847	13540.32
441.054	13548.51
441.261	14459.85
441.467	14207.95
441.674	14652.36
441.881	15360.96
442.088	15121.35
442.294	15264.71
442.501	15537.09
442.708	15811.51
442.914	16343.99
443.121	17173.41
443.328	16503.73
443.534	17779.61
443.741	17304.48
443.948	17015.72
444.154	18420.63
444.361	18267.03
444.568	18600.85
444.774	18113.43
444.981	18504.59
445.187	19063.69
445.394	19911.55
445.6	19843.96
445.807	21449.57
446.013	20456.31
446.22	20994.92
446.426	21652.32
446.633	21932.89
446.839	22829.9
447.046	21750.62
447.252	22952.78
447.459	22973.26
447.665	22856.53
447.871	23579.46
448.078	25041.71
448.284	23669.57
448.491	24533.81
448.697	25297.7
448.903	25563.94
449.11	25838.37
449.316	25338.66
449.522	25899.81
449.728	26659.6
449.935	26741.52
450.141	26981.13
450.347	27409.16
450.553	26221.34
450.76	26630.93
450.966	27515.65
451.172	27310.86
451.378	28343.03
451.584	27435.78
451.791	28093.18
451.997	27845.38
452.203	28429.05
452.409	28427
452.615	28408.57
452.821	27532.04
453.027	27298.57
453.233	28377.85
453.44	27437.83
453.646	27273.99
453.852	27603.72
454.058	28041.98
454.264	27284.23
454.47	28025.6
454.676	26737.43
454.882	28252.92
455.088	25740.07
455.294	26280.73
455.5	26534.68
455.705	26395.42
455.911	25559.84
456.117	24970.03
456.323	25029.42
456.529	23225.16
456.735	24505.14
456.941	23638.85
457.147	23264.07
457.352	22426.45
457.558	22590.29
457.764	22637.39
457.97	22029.15
458.176	21551.97
458.381	21508.96
458.587	20632.43
458.793	20306.8
458.999	19422.08
459.204	20849.52
459.41	20454.26
459.616	18940.81
459.821	18760.59
460.027	18826.12
460.233	18242.45
460.438	17689.5
460.644	17796
460.85	16749.48
461.055	16403.38
461.261	16599.98
461.466	15502.27
461.672	14715.85
461.878	15717.31
462.083	14711.75
462.289	14629.84
462.494	14486.48
462.7	13915.09
462.905	13630.43
463.111	13720.54
463.316	14134.23
463.522	13603.8
463.727	13509.6
463.932	13583.32
464.138	13679.58
464.343	13597.66
464.549	13179.87
464.754	13370.33
464.959	13644.76
465.165	13224.93
465.37	12782.57
465.575	12450.8
465.781	12731.37
465.986	13007.84
466.191	12493.8
466.397	12180.46
466.602	11699.19
466.807	12215.28
467.012	12147.7
467.218	11992.05
467.423	11832.31
467.628	11953.14
467.833	12205.04
468.038	11975.67
468.244	11824.12
468.449	11901.94
468.654	11566.07
468.859	11361.28
469.064	11488.25
469.269	11115.52
469.474	11289.6
469.679	11418.62
469.885	10945.54
470.09	11365.37
470.295	11279.36
470.5	10853.38
470.705	10845.19
470.91	10646.54
471.115	10597.38
471.32	10636.3
471.525	10456.08
471.73	10359.82
471.935	10390.54
472.139	9978.9
472.344	10109.97
472.549	10175.5
472.754	9925.65
472.959	9714.71
473.164	9514.01
473.369	9446.43
473.574	9749.53
473.778	9649.18
473.983	9298.97
474.188	9657.37
474.393	9102.37
474.598	9286.68
474.802	9073.7
475.007	9006.11
475.212	9190.43
475.417	8590.38
475.621	8649.77
475.826	8672.29
476.031	8571.94
476.235	8588.33
476.44	8485.93
476.645	8444.97
476.849	8285.23
477.054	8131.63
477.259	8176.69
477.463	7879.73
477.668	7998.51
477.872	8143.92
478.077	7949.36
478.282	7896.11
478.486	7662.65
478.691	7732.28
478.895	7576.63
479.1	7482.42
479.304	7554.1
479.509	7248.96
479.713	7529.53
479.918	7494.71
480.122	7109.69
480.326	7261.24
480.531	7294.01
480.735	7183.42
480.94	7330.87
481.144	7384.12
481.348	7068.73
481.553	7130.17
481.757	6954.05
481.961	7005.25
482.166	7101.5
482.37	7081.02
482.574	7019.58
482.778	6982.72
482.983	7019.58
483.187	7154.75
483.391	7072.83
483.595	6921.28
483.8	6954.05
484.004	7074.88
484.208	7224.38
484.412	6988.86
484.616	7052.35
484.821	7040.06
485.025	6892.61
485.229	7187.52
485.433	7025.73
485.637	7070.78
485.841	6896.71
486.045	6886.47
486.249	7046.21
486.453	6806.59
486.657	6845.51
486.861	7048.26
487.065	6855.75
487.269	6900.8
487.473	6726.72
487.677	6962.24
487.881	7101.5
488.085	6984.77
488.289	7068.73
488.493	6849.6
488.697	6992.96
488.901	6915.14
489.105	6923.33
489.309	6964.29
489.512	7011.39
489.716	7003.2
489.92	6798.4
490.124	6935.62
490.328	7167.04
490.531	7007.3
490.735	7287.87
490.939	7109.69
491.143	7126.08
491.346	7210.04
491.55	7404.6
491.754	7138.37
491.958	7248.96
492.161	7158.85
492.365	7404.6
492.569	7042.11
492.772	7314.49
492.976	7296.06
493.18	7271.48
493.383	7494.71
493.587	7418.94
493.79	7519.29
493.994	7373.88
494.197	7447.61
494.401	7609.4
494.605	7535.67
494.808	7746.61
495.012	7785.52
495.215	7795.76
495.419	7580.73
495.622	7703.61
495.825	7961.65
496.029	7830.58
496.232	8045.62
496.436	7965.75
496.639	8182.83
496.843	8227.89
497.046	8315.95
497.249	8471.59
497.453	8449.07
497.656	8561.7
497.859	8598.57
498.063	8602.66
498.266	8762.4
498.469	8791.08
498.673	8889.38
498.876	8813.6
499.079	9002.02
499.282	9049.12
499.485	9298.97
499.689	9217.05
499.892	9468.95
500.095	9387.04
500.298	9735.19
500.501	9405.47
500.705	9739.29
500.908	9847.83
501.111	9939.99
501.314	9937.94
501.517	10052.63
501.72	10396.68
501.923	10451.98
502.126	10492.94
502.329	10759.17
502.532	10699.78
502.735	10679.3
502.938	10871.81
503.141	11002.88
503.344	11117.57
503.547	11232.26
503.75	11189.25
503.953	11410.43
504.156	11566.07
504.359	11584.51
504.562	11486.2
504.765	11932.66
504.968	12157.94
505.17	12014.58
505.373	12092.4
505.576	12397.55
505.779	12278.77
505.982	12485.61
506.185	12774.38
506.387	12674.03
506.59	13097.95
506.793	13255.65
506.996	13095.91
507.198	13450.21
507.401	13431.77
507.604	13466.59
507.807	13695.96
508.009	13898.71
508.212	13827.03
508.415	13990.87
508.617	14351.31
508.82	14357.46
509.022	14527.44
509.225	14592.97
509.428	14728.14
509.63	15051.72
509.833	14902.22
510.035	15455.17
510.238	15401.92
510.44	15573.95
510.643	15657.92
510.845	15952.82
511.048	15735.74
511.25	16026.55
511.453	16143.28
511.655	16862.12
511.858	16364.46
512.06	16528.3
512.262	16700.33
512.465	16835.5
512.667	17073.06
512.87	17384.35
513.072	17286.05
513.274	17691.55
513.477	17898.39
513.679	17626.01
513.881	18058.14
514.084	18172.82
514.286	18430.87
514.488	18396.05
514.69	19071.88
514.893	18922.38
515.095	18842.51
515.297	19071.88
515.499	19317.64
515.701	19426.18
515.904	19733.37
516.106	19747.71
516.308	20067.19
516.51	20091.77
516.712	20441.97
516.914	20231.03
517.116	20765.55
517.318	20509.55
517.52	21095.27
517.722	20921.2
517.925	21175.14
518.127	21117.8
518.329	21371.75
518.531	21412.71
518.733	21871.45
518.935	22029.15
519.136	22242.14
519.338	22352.73
519.54	22217.56
519.742	22534.99
519.944	22793.04
520.146	23001.93
520.348	22930.25
520.55	23376.71
520.752	23169.87
520.954	23423.81
521.155	23423.81
521.357	23528.26
521.559	24062.78
521.761	24361.78
521.963	23980.86
522.164	23989.05
522.366	24073.02
522.568	24343.35
522.77	24316.73
522.971	24873.78
523.173	24603.44
523.375	24767.28
523.576	24914.73
523.778	24853.3
523.98	25025.32
524.181	25111.34
524.383	25199.4
524.584	25500.45
524.786	25553.7
524.988	25230.12
525.189	25836.32
525.391	25770.79
525.592	25752.35
525.794	25738.02
525.995	25625.38
526.197	25887.52
526.398	26278.68
526.6	26336.02
526.801	26198.81
527.003	25920.29
527.204	26430.23
527.406	26467.09
527.607	26284.83
527.808	26145.56
528.01	26104.6
528.211	26272.54
528.412	26733.33
528.614	26268.44
528.815	26592.02
529.016	26852.11
529.218	26389.27
529.419	26268.44
529.62	26401.56
529.822	26540.82
530.023	26503.96
530.224	26497.81
530.425	26495.77
530.626	26061.6
530.828	26139.42
531.029	26848.02
531.23	26428.18
531.431	26417.94
531.632	26544.92
531.833	26518.29
532.035	26456.85
532.236	26168.09
532.437	26463
532.638	26499.86
532.839	26450.71
533.04	26399.51
533.241	26166.04
533.442	26348.31
533.643	26522.39
533.844	26471.19
534.045	26366.74
534.246	26239.77
534.447	26493.72
534.648	26422.04
534.849	26012.45
535.05	25869.09
535.251	26307.35
535.451	25885.47
535.652	25955.1
535.853	25860.9
536.054	26233.63
536.255	26311.45
536.456	25846.56
536.657	26188.57
536.857	25946.91
537.058	25742.11
537.259	26147.61
537.46	25832.22
537.66	25686.82
537.861	25555.75
538.062	26108.7
538.263	25830.18
538.463	25735.97
538.664	25860.9
538.865	25658.15
539.065	25811.74
539.266	25666.34
539.466	25930.53
539.667	25205.55
539.868	26043.17
540.068	25813.79
540.269	25416.49
540.469	25619.24
540.67	25580.32
540.87	25795.36
541.071	25821.98
541.271	25516.84
541.472	25385.77
541.672	25467.69
541.873	25420.58
542.073	25105.2
542.274	25717.54
542.474	25256.75
542.675	25066.28
542.875	25701.15
543.075	25170.73
543.276	25191.21
543.476	25516.84
543.676	25297.7
543.877	25359.14
544.077	25148.2
544.277	25140.01
544.478	25215.79
544.678	25516.84
544.878	25361.19
545.078	25211.69
545.279	25312.04
545.479	25107.24
545.679	25010.99
545.879	25146.15
546.079	25373.48
546.28	25226.03
546.48	24947.5
546.68	25217.83
546.88	25312.04
547.08	25142.06
547.28	25234.22
547.48	24935.21
547.68	25047.85
547.88	25195.31
548.081	25164.59
548.281	24955.69
548.481	25006.89
548.681	25353
548.881	25338.66
549.081	24931.12
549.28	25262.89
549.48	25307.94
549.68	25051.95
549.88	25637.67
550.08	25246.51
550.28	25226.03
550.48	25000.75
550.68	25193.26
550.88	25092.91
551.08	24961.84
551.279	25195.31
551.479	25187.11
551.679	25418.53
551.879	25271.08
552.079	25465.64
552.278	25164.59
552.478	25219.88
552.678	25279.27
552.878	25543.46
553.077	25004.85
553.277	24935.21
553.477	25510.69
553.676	25125.68
553.876	25533.22
554.076	25078.57
554.275	25105.2
554.475	24851.25
554.674	25062.19
554.874	25387.82
555.074	24959.79
555.273	25137.96
555.473	25668.39
555.672	24843.06
555.872	25230.12
556.071	25404.2
556.271	25279.27
556.47	25561.89
556.67	24841.01
556.869	25312.04
557.068	25357.1
557.268	25142.06
557.467	25537.32
557.667	25465.64
557.866	25451.3
558.065	25252.65
558.265	25477.93
558.464	25236.27
558.663	25469.73
558.863	25082.67
559.062	25789.22
559.261	24767.28
559.461	25461.54
559.66	25049.9
559.859	25107.24
560.058	25246.51
560.258	25301.8
560.457	25074.48
560.656	25686.82
560.855	25101.1
561.054	25156.39
561.253	24965.93
561.453	25234.22
561.652	25422.63
561.851	25443.11
562.05	25285.42
562.249	25037.61
562.448	25381.67
562.647	25312.04
562.846	24941.36
563.045	24970.03
563.244	24990.51
563.443	25471.78
563.642	25133.87
563.841	25129.77
564.04	25037.61
564.239	25090.86
564.438	24666.93
564.637	25103.15
564.836	24994.61
565.035	24466.23
565.234	25150.25
565.432	24763.18
565.631	24920.88
565.83	24746.8
566.029	24769.33
566.228	24619.83
566.427	24865.58
566.625	24781.62
566.824	24388.41
567.023	24945.45
567.222	24501.04
567.42	24625.97
567.619	24572.72
567.818	24660.79
568.016	24648.5
568.215	24709.94
568.414	24296.25
568.612	24392.5
568.811	24322.87
569.01	24525.62
569.208	24025.92
569.407	24441.65
569.605	23763.78
569.804	24400.69
570.002	24259.38
570.201	24396.6
570.4	24148.79
570.598	23972.67
570.797	23905.09
570.995	24073.02
571.193	23513.92
571.392	24036.16
571.59	23530.31
571.789	23831.36
571.987	23698.24
572.186	23520.07
572.384	23513.92
572.582	23786.3
572.781	23755.58
572.979	23405.38
573.177	23413.57
573.376	23595.84
573.574	23345.99
573.772	23358.28
573.971	23184.2
574.169	22872.91
574.367	22958.92
574.565	23171.91
574.763	23151.43
574.962	22819.66
575.16	22457.17
575.358	22895.44
575.556	22375.25
575.754	22903.63
575.952	22428.5
576.151	22588.24
576.349	22424.4
576.547	22334.29
576.745	22678.35
576.943	22190.94
577.141	22678.35
577.339	22225.75
577.537	22373.21
577.735	22596.43
577.933	22180.7
578.131	22000.47
578.329	22063.96
578.527	21939.04
578.725	21642.08
578.923	21949.28
579.121	21803.87
579.319	21910.36
579.516	22078.3
579.714	21793.63
579.912	21713.76
580.11	21580.64
580.308	21576.55
580.506	21810.01
580.704	21154.66
580.901	21468
581.099	21623.65
581.297	21054.31
581.495	21267.3
581.692	21369.7
581.89	21068.65
582.088	21373.8
582.285	20980.59
582.483	21250.92
582.681	20683.63
582.878	20894.57
583.076	20724.59
583.274	21187.43
583.471	20544.37
583.669	20603.76
583.866	20691.82
584.064	20726.64
584.262	20421.49
584.459	20620.14
584.657	20228.98
584.854	20863.85
585.052	20216.69
585.249	20372.34
585.447	20470.64
585.644	20020.09
585.841	20364.15
586.039	20507.51
586.236	20153.21
586.434	20032.38
586.631	20194.17
586.828	20286.33
587.026	19975.03
587.223	19604.35
587.42	19708.8
587.618	19796.86
587.815	19895.16
588.012	19487.62
588.21	19563.39
588.407	19706.75
588.604	19618.69
588.801	19319.68
588.999	19411.84
589.196	19276.68
589.393	19385.22
589.59	19301.25
589.787	19360.64
589.984	18963.34
590.182	19118.98
590.379	19133.32
590.576	19215.24
590.773	19086.22
590.97	19237.77
591.167	19131.27
591.364	18969.48
591.561	19164.04
591.758	18680.72
591.955	18666.38
592.152	18815.88
592.349	18897.8
592.546	19035.02
592.743	18666.38
592.94	18129.81
593.137	18443.15
593.334	18727.82
593.531	18473.87
593.727	18520.98
593.924	18322.32
594.121	18170.77
594.318	18537.36
594.515	18172.82
594.712	18635.66
594.908	18322.32
595.105	18719.63
595.302	18133.91
595.499	18264.98
595.696	18269.08
595.892	18209.68
596.089	18398.1
596.286	18209.68
596.482	18336.66
596.679	17761.18
596.876	18168.73
597.072	18142.1
597.269	18107.29
597.466	17859.48
597.662	18013.08
597.859	17771.42
598.055	18043.8
598.252	17673.12
598.448	17943.45
598.645	17865.63
598.841	17476.51
599.038	17861.53
599.234	17943.45
599.431	17474.46
599.627	17605.53
599.824	17851.29
600.02	17578.91
600.217	17679.26
600.413	17669.02
600.609	17617.82
600.806	17673.12
601.002	17673.12
601.198	17662.88
601.395	17542.05
601.591	17542.05
601.787	17796
601.984	17300.39
602.18	17494.94
602.376	17378.21
602.572	17488.8
602.769	17570.72
602.965	17476.51
603.161	17673.12
603.357	17671.07
603.553	17419.17
603.75	17554.33
603.946	17488.8
604.142	17914.78
604.338	17433.5
604.534	17695.64
604.73	17623.97
604.926	17800.09
605.122	17763.23
605.318	17572.77
605.514	17580.96
605.71	17400.74
605.906	17656.73
606.102	17820.57
606.298	17599.39
606.494	17427.36
606.69	17767.32
606.886	17482.66
607.082	17593.25
607.278	17611.68
607.474	17365.92
607.67	17566.62
607.866	17529.76
608.062	17529.76
608.257	17546.14
608.453	17593.25
608.649	17730.46
608.845	17679.26
609.041	17687.45
609.236	17793.95
609.432	17785.76
609.628	17963.93
609.824	17947.54
610.019	17666.97
610.215	17839
610.411	17720.22
610.606	17959.83
610.802	17955.74
610.998	18125.72
611.193	17892.25
611.389	17791.9
611.584	17789.85
611.78	17634.21
611.976	17898.39
612.171	17810.33
612.367	17927.07
612.562	17972.12
612.758	17617.82
612.953	17759.13
613.149	18101.14
613.344	17767.32
613.539	18002.84
613.735	17894.3
613.93	17996.7
614.126	17865.63
614.321	18387.86
614.517	17798.04
614.712	17965.98
614.907	17912.73
615.103	18045.85
615.298	17775.52
615.493	17777.56
615.688	17521.57
615.884	18135.96
616.079	17755.04
616.274	18062.23
616.47	18127.77
616.665	18133.91
616.86	18107.29
617.055	17767.32
617.25	17830.81
617.445	18111.38
617.641	17572.77
617.836	17906.59
618.031	17570.72
618.226	17732.51
618.421	17746.84
618.616	18015.13
618.811	17652.64
619.006	17959.83
619.201	17578.91
619.396	17570.72
619.591	17456.03
619.786	17554.33
619.981	17132.45
620.176	17552.29
620.371	17284
620.566	17214.37
620.761	17286.05
620.956	17462.18
621.151	17249.19
621.346	17636.25
621.541	16939.94
621.735	17206.18
621.93	16810.92
622.125	16860.07
622.32	16827.31
622.515	16755.63
622.709	16636.84
622.904	16516.01
623.099	16532.4
623.294	16726.96
623.488	16137.14
623.683	16331.7
623.878	16227.25
624.072	16374.7
624.267	16038.84
624.462	15963.06
624.656	15897.53
624.851	16098.23
625.046	16042.93
625.24	15705.02
625.435	15666.11
625.629	15539.13
625.824	15528.89
626.018	15602.62
626.213	15311.81
626.407	15608.76
626.602	15176.64
626.796	15399.87
626.991	15279.04
627.185	15303.62
627.38	15025.09
627.574	14736.33
627.768	15111.11
627.963	14633.93
628.157	14654.41
628.352	14549.96
628.546	14484.43
628.74	14650.32
628.935	14457.81
629.129	14437.33
629.323	14316.5
629.517	14212.05
629.712	14382.03
629.906	14289.87
630.1	14113.75
630.294	14285.78
630.489	13818.84
630.683	13902.81
630.877	13667.29
631.071	13687.77
631.265	13634.52
631.459	13661.15
631.653	13452.25
631.848	13587.42
632.042	13368.29
632.236	13282.27
632.43	13280.22
632.624	13597.66
632.818	13069.28
633.012	12983.27
633.206	13126.63
633.4	13120.48
633.594	12821.48
633.788	12909.54
633.982	12846.05
634.176	12696.55
634.369	12571.63
634.563	12452.84
634.757	12469.23
634.951	12483.56
635.145	12510.19
635.339	12422.13
635.533	12370.93
635.726	12237.81
635.92	12071.92
636.114	12008.44
636.308	12045.3
636.501	11926.52
636.695	12041.2
636.889	11881.46
637.083	11822.07
637.276	11717.62
637.47	11627.51
637.664	11545.59
637.857	11639.8
638.051	11764.73
638.244	11363.33
638.438	11357.18
638.632	11410.43
638.825	11164.67
639.019	11219.97
639.212	11166.72
639.406	11168.77
639.599	10832.9
639.793	10951.68
639.986	10765.32
640.18	10806.28
640.373	10710.02
640.567	10615.82
640.76	10544.14
640.954	10712.07
641.147	10585.1
641.34	10312.72
641.534	10503.18
641.727	10390.54
641.92	10308.62
642.114	10132.5
642.307	10189.84
642.5	10019.86
642.694	9862.16
642.887	9913.36
643.08	10005.52
643.273	9907.22
643.467	9972.75
643.66	9659.42
643.853	9487.39
644.046	9825.3
644.239	9640.98
644.432	9657.37
644.626	9407.52
644.819	9378.84
645.012	9323.55
645.205	9208.86
645.398	9266.21
645.591	9049.12
645.784	9053.22
645.977	8995.87
646.17	9141.28
646.363	8829.99
646.556	8668.2
646.749	8797.22
646.942	8936.48
647.135	8752.17
647.328	8647.72
647.521	8643.62
647.714	8535.08
647.907	8608.81
648.099	8473.64
648.292	8510.5
648.485	8479.79
648.678	8420.39
648.871	8248.36
649.064	8168.49
649.256	8322.09
649.449	8166.45
649.642	8143.92
649.835	8021.04
650.027	8018.99
650.22	8068.14
650.413	8037.42
650.605	8039.47
650.798	7773.24
650.991	7758.9
651.183	7605.3
651.376	7691.32
651.568	7666.74
651.761	7668.79
651.954	7636.02
652.146	7644.21
652.339	7580.73
652.531	7560.25
652.724	7445.56
652.916	7410.75
653.109	7414.84
653.301	7488.57
653.494	7248.96
653.686	7339.07
653.879	7265.34
654.071	7199.8
654.263	7087.17
654.456	7007.3
654.648	7230.52
654.84	6880.32
655.033	7078.97
655.225	6999.1
655.417	6913.09
655.61	6954.05
655.802	7029.82
655.994	6997.06
656.186	6835.27
656.379	6792.26
656.571	6839.36
656.763	6769.73
656.955	6585.41
657.148	6534.21
657.34	6456.39
657.532	6593.61
657.724	6470.73
657.916	6546.5
658.108	6536.26
658.3	6411.34
658.492	6462.54
658.684	6253.64
658.876	6310.99
659.068	6407.24
659.26	6276.17
659.452	6239.31
659.644	6161.48
659.836	6177.87
660.028	6063.18
660.22	6022.22
660.412	6054.99
660.604	5952.59
660.796	5956.69
660.988	5878.86
661.18	5954.64
661.372	5864.53
661.563	5864.53
661.755	5676.12
661.947	5735.51
662.139	5899.34
662.331	5741.65
662.522	5622.87
662.714	5622.87
662.906	5700.69
663.097	5608.53
663.289	5409.88
663.481	5551.19
663.673	5561.43
663.864	5418.07
664.056	5315.67
664.247	5465.18
664.439	5344.35
664.631	5352.54
664.822	5262.43
665.014	5203.04
665.205	5176.41
665.397	5260.38
665.588	5241.95
665.78	5162.08
665.971	5192.8
666.163	5127.26
666.354	5168.22
666.546	5203.04
666.737	5088.35
666.929	5039.2
667.12	4992.09
667.311	5088.35
667.503	4934.75
667.694	4996.19
667.885	4781.15
668.077	5061.73
668.268	4916.32
668.459	4818.02
668.651	4830.3
668.842	4668.52
669.033	4643.94
669.224	4719.71
669.416	4586.6
669.607	4691.04
669.798	4549.73
669.989	4826.21
670.18	4695.14
670.371	4729.95
670.563	4508.77
670.754	4602.98
670.945	4500.58
671.136	4476.01
671.327	4449.38
671.518	4553.83
671.709	4455.53
671.9	4332.65
672.091	4594.79
672.282	4437.09
672.473	4566.12
672.664	4258.92
672.855	4383.85
673.046	4490.34
673.237	4336.74
673.428	4340.84
673.619	4365.42
673.809	4267.11
674	4340.84
674.191	4410.47
674.382	4277.35
674.573	4244.59
674.764	4183.15
674.954	4217.96
675.145	4205.67
675.336	3990.64
675.527	4185.19
675.717	4222.06
675.908	4185.19
676.099	4131.95
676.289	4082.8
676.48	4105.32
676.671	4068.46
676.861	4191.34
677.052	4078.7
677.243	4117.61
677.433	4017.26
677.624	4148.33
677.814	4103.28
678.005	4033.65
678.195	4047.98
678.386	4009.07
678.576	3933.29
678.767	4025.45
678.957	3951.73
679.148	3957.87
679.338	4007.02
679.529	4004.97
679.719	3882.1
679.909	4099.18
680.1	3964.01
680.29	3984.49
680.481	3869.81
680.671	3828.85
680.861	3791.98
681.052	3968.11
681.242	3931.25
681.432	3980.4
681.622	3925.1
681.813	3972.21
682.003	3994.73
682.193	3857.52
682.383	3964.01
682.573	3968.11
682.764	3867.76
682.954	3751.03
683.144	3796.08
683.334	3687.54
683.524	3826.8
683.714	3855.47
683.904	3818.61
684.094	3826.8
684.284	3906.67
684.474	3906.67
684.664	3898.48
684.854	3832.94
685.044	3769.46
685.234	3591.28
685.424	3789.94
685.614	3687.54
685.804	3845.23
685.994	3966.06
686.184	3751.03
686.374	3662.96
686.564	3703.92
686.753	3665.01
686.943	3669.11
687.133	3667.06
687.323	3652.72
687.513	3914.86
687.702	3697.78
687.892	3570.8
688.082	3488.89
688.272	3665.01
688.461	3527.8
688.651	3669.11
688.841	3648.63
689.03	3597.43
689.22	3425.4
689.41	3656.82
689.599	3505.27
689.789	3513.46
689.979	3501.17
690.168	3542.13
690.358	3433.59
690.547	3415.16
690.737	3429.49
690.926	3431.54
691.116	3390.58
691.305	3419.25
691.495	3411.06
691.684	3433.59
691.874	3476.6
692.063	3335.29
692.252	3341.43
692.442	3417.21
692.631	3292.28
692.82	3341.43
693.01	3279.99
693.199	3202.17
693.388	3255.42
693.578	3357.82
693.767	3259.51
693.956	3292.28
694.146	3204.22
694.335	3259.51
694.524	3296.38
694.713	3259.51
694.902	3263.61
695.092	3153.02
695.281	3054.72
695.47	3312.76
695.659	3193.98
695.848	3075.2
696.037	3181.69
696.226	3179.64
696.415	3105.92
696.604	3069.05
696.793	3253.37
696.982	3069.05
697.171	3179.64
697.36	3021.95
697.549	3159.16
697.738	3126.39
697.927	3128.44
698.116	3087.48
698.305	3148.92
698.494	3050.62
698.683	3003.52
698.872	3157.11
699.061	3036.28
699.25	3009.66
699.438	3116.16
699.627	3017.85
699.816	3040.38
700.005	2956.41
700.193	2999.42
700.382	2974.85
700.571	3021.95
700.76	3005.56
700.948	2917.5
701.137	3007.61
701.326	3009.66
701.514	2886.78
701.703	2841.73
701.892	2899.07
702.08	2884.73
702.269	2962.56
702.457	2860.16
702.646	2901.12
702.834	2704.51
703.023	2956.41
703.212	2892.93
703.4	2839.68
703.589	2784.38
703.777	2772.1
703.965	2776.19
704.154	2780.29
704.342	2684.03
704.531	2731.14
704.719	2657.41
704.907	2851.97
705.096	2753.66
705.284	2700.42
705.472	2768
705.661	2774.14
705.849	2784.38
706.037	2653.31
706.226	2694.27
706.414	2694.27
706.602	2632.83
706.79	2673.79
706.979	2587.78
707.167	2702.47
707.355	2587.78
707.543	2628.74
707.731	2669.7
707.919	2585.73
708.107	2579.59
708.296	2489.48
708.484	2432.13
708.672	2548.87
708.86	2581.64
709.048	2516.1
709.236	2559.11
709.424	2563.2
709.612	2415.75
709.8	2450.57
709.988	2501.76
710.176	2464.9
710.364	2552.96
710.551	2530.44
710.739	2456.71
710.927	2548.87
711.115	2434.18
711.303	2522.24
711.491	2555.01
711.679	2458.76
711.866	2397.32
712.054	2557.06
712.242	2317.45
712.43	2520.2
712.617	2251.91
712.805	2423.94
712.993	2382.98
713.181	2442.37
713.368	2387.08
713.556	2362.5
713.744	2303.11
713.931	2428.04
714.119	2387.08
714.306	2350.21
714.494	2364.55
714.682	2366.6
714.869	2329.74
715.057	2278.54
715.244	2288.78
715.432	2350.21
715.619	2268.3
715.807	2294.92
715.994	2325.64
716.182	2215.05
716.369	2213
716.556	2235.53
716.744	2167.95
716.931	2243.72
717.119	2219.14
717.306	2186.38
717.493	2237.58
717.681	2186.38
717.868	2182.28
718.055	2210.95
718.242	2186.38
718.43	2210.95
718.617	2243.72
718.804	2139.27
718.991	2120.84
719.179	2202.76
719.366	2075.79
719.553	2129.03
719.74	2139.27
719.927	2116.75
720.114	2090.12
720.301	2096.27
720.488	2116.75
720.676	2071.69
720.863	2178.19
721.05	2172.04
721.237	2012.3
721.424	2063.5
721.611	2172.04
721.798	2067.6
721.985	1971.34
722.172	2071.69
722.358	1981.58
722.545	1989.77
722.732	2047.12
722.919	2102.41
723.106	1891.47
723.293	2008.2
723.48	2051.21
723.667	1911.95
723.853	2008.2
724.04	1932.43
724.227	1950.86
724.414	1836.17
724.6	1877.13
724.787	1911.95
724.974	1997.96
725.161	1817.74
725.347	1877.13
725.534	1944.72
725.72	1916.05
725.907	1899.66
726.094	1883.28
726.28	1832.08
726.467	1842.32
726.653	1776.78
726.84	1899.66
727.027	1928.33
727.213	1846.41
727.4	1809.55
727.586	1844.37
727.773	1870.99
727.959	1813.65
728.145	1852.56
728.332	1686.67
728.518	1866.89
728.705	1766.54
728.891	1866.89
729.077	1809.55
729.264	1817.74
729.45	1637.52
729.636	1713.3
729.823	1793.17
730.009	1895.57
730.195	1707.15
730.382	1844.37
730.568	1752.21
730.754	1815.69
730.94	1842.32
731.126	1801.36
731.313	1735.82
731.499	1821.84
731.685	1727.63
731.871	1776.78
732.057	1760.4
732.243	1731.73
732.429	1727.63
732.615	1715.34
732.801	1746.06
732.987	1672.34
733.173	1680.53
733.359	1694.86
733.545	1739.92
733.731	1668.24
733.917	1752.21
734.103	1698.96
734.289	1649.81
734.475	1696.91
734.661	1625.23
734.847	1645.71
735.033	1682.58
735.219	1696.91
735.404	1520.79
735.59	1547.41
735.776	1647.76
735.962	1680.53
736.148	1698.96
736.333	1582.23
736.519	1514.64
736.705	1596.56
736.89	1547.41
737.076	1637.52
737.262	1516.69
737.447	1645.71
737.633	1553.55
737.819	1639.57
738.004	1533.08
738.19	1502.36
738.375	1533.08
738.561	1606.8
738.747	1555.6
738.932	1592.47
739.118	1539.22
739.303	1658
739.489	1563.79
739.674	1473.68
739.859	1436.82
740.045	1557.65
740.23	1547.41
740.416	1426.58
740.601	1490.07
740.786	1481.88
740.972	1504.4
741.157	1412.25
741.342	1393.81
741.528	1342.61
741.713	1547.41
741.898	1494.16
742.084	1387.67
742.269	1367.19
742.454	1432.72
742.639	1440.92
742.824	1436.82
743.01	1473.68
743.195	1596.56
743.38	1367.19
743.565	1293.46
743.75	1287.32
743.935	1410.2
744.12	1381.53
744.305	1256.6
744.49	1289.37
744.675	1383.57
744.86	1344.66
745.045	1281.18
745.23	1365.14
745.415	1277.08
745.6	1307.8
745.785	1336.47
745.97	1328.28
746.155	1256.6
746.34	1330.33
746.525	1277.08
746.71	1311.89
746.895	1293.46
747.079	1238.17
747.264	1318.04
747.449	1375.38
747.634	1361.05
747.819	1227.93
748.003	1197.21
748.188	1242.26
748.373	1283.22
748.557	1311.89
748.742	1146.01
748.927	1203.35
749.111	1199.26
749.296	1154.2
749.481	1189.02
749.665	1199.26
749.85	1025.18
750.034	1133.72
750.219	1123.48
750.404	1203.35
750.588	1131.67
750.773	1039.51
750.957	1066.14
751.141	1023.13
751.326	1162.39
751.51	1076.38
751.695	1121.43
751.879	1121.43
752.064	1107.1
752.248	1064.09
752.432	1105.05
752.617	930.97
752.801	957.6
752.985	949.4
753.17	1023.13
753.354	937.12
753.538	1076.38
753.722	996.51
753.907	986.27
754.091	982.17
754.275	916.64
754.459	867.49
754.643	912.54
754.828	918.68
755.012	941.21
755.196	859.29
755.38	892.06
755.564	910.49
755.748	926.88
755.932	842.91
756.116	976.03
756.3	828.57
756.484	810.14
756.668	928.92
756.852	814.24
757.036	795.81
757.22	904.35
757.404	834.72
757.588	873.63
757.772	912.54
757.956	758.94
758.14	818.33
758.323	826.53
758.507	787.61
758.691	818.33
758.875	763.04
759.059	789.66
759.242	779.42
759.426	812.19
759.61	720.03
759.794	765.09
759.977	857.25
760.161	818.33
760.345	748.7
760.528	810.14
760.712	756.9
760.895	740.51
761.079	697.5
761.263	679.07
761.446	707.74
761.63	769.18
761.813	752.8
761.997	668.83
762.18	670.88
762.364	763.04
762.547	722.08
762.731	674.98
762.914	689.31
763.098	711.84
763.281	720.03
763.464	634.02
763.648	736.42
763.831	707.74
764.015	658.59
764.198	691.36
764.381	623.78
764.564	654.5
764.748	748.7
764.931	687.26
765.114	644.26
765.297	636.06
765.481	670.88
765.664	654.5
765.847	646.3
766.03	720.03
766.213	638.11
766.397	658.59
766.58	543.91
766.763	646.3
766.946	715.94
767.129	572.58
767.312	597.15
767.495	646.3
767.678	621.73
767.861	621.73
768.044	545.95
768.227	588.96
768.41	578.72
768.593	588.96
768.776	584.87
768.959	613.54
769.142	625.83
769.324	613.54
769.507	623.78
769.69	582.82
769.873	507.04
770.056	634.02
770.239	521.38
770.421	662.69
770.604	605.35
770.787	537.76
770.97	613.54
771.152	525.47
771.335	615.59
771.518	525.47
771.7	572.58
771.883	640.16
772.066	631.97
772.248	556.19
772.431	640.16
772.613	558.24
772.796	554.15
772.978	613.54
773.161	550.05
773.343	490.66
773.526	511.14
773.708	539.81
773.891	513.19
774.073	607.39
774.256	535.71
774.438	531.62
774.621	558.24
774.803	556.19
774.985	486.56
775.168	498.85
775.35	507.04
775.532	535.71
775.715	416.93
775.897	509.09
776.079	459.94
776.261	550.05
776.444	511.14
776.626	482.47
776.808	429.22
776.99	457.89
777.173	482.47
777.355	457.89
777.537	511.14
777.719	494.76
777.901	490.66
778.083	408.74
778.265	396.45
778.447	443.56
778.629	457.89
778.811	343.21
778.993	443.56
779.175	490.66
779.357	476.32
779.539	351.4
779.721	392.36
779.903	494.76
780.085	421.03
780.267	375.97
780.449	375.97
780.631	392.36
780.812	466.08
780.994	394.4
781.176	443.56
781.358	359.59
781.54	406.69
781.721	359.59
781.903	320.68
782.085	404.64
782.267	425.12
782.448	384.16
782.63	363.69
782.812	388.26
782.993	347.3
783.175	437.41
783.357	261.29
783.538	314.53
783.72	302.25
783.901	312.49
784.083	394.4
784.264	294.05
784.446	367.78
784.627	263.33
784.809	392.36
784.99	345.25
785.172	375.97
785.353	310.44
785.535	302.25
785.716	310.44
785.897	257.19
786.079	345.25
786.26	363.69
786.441	314.53
786.623	294.05
786.804	277.67
786.985	255.14
787.167	287.91
787.348	277.67
787.529	267.43
787.71	230.57
787.891	335.01
788.073	242.85
788.254	253.09
788.435	285.86
788.616	318.63
788.797	167.08
788.978	277.67
789.159	279.72
789.34	285.86
789.522	281.77
789.703	191.66
789.884	273.57
790.065	314.53
790.246	326.82
790.427	162.98
790.607	281.77
790.788	251.05
790.969	263.33
791.15	302.25
791.331	183.46
791.512	326.82
791.693	236.71
791.874	249
792.054	220.33
792.235	216.23
792.416	183.46
792.597	214.18
792.778	210.09
792.958	263.33
793.139	267.43
793.32	253.09
793.5	238.76
793.681	240.81
793.862	261.29
794.042	228.52
794.223	208.04
794.404	253.09
794.584	191.66
794.765	271.53
794.945	236.71
795.126	187.56
795.306	230.57
795.487	181.42
795.667	167.08
795.848	251.05
796.028	212.14
796.209	199.85
796.389	203.94
796.57	167.08
796.75	181.42
796.93	253.09
797.111	146.6
797.291	179.37
797.471	160.94
797.652	208.04
797.832	199.85
798.012	224.42
798.192	117.93
798.373	171.18
798.553	113.83
798.733	181.42
798.913	103.59
799.093	187.56
799.274	238.76
799.454	195.75
799.634	203.94
799.814	218.28
799.994	146.6
800.174	167.08
800.354	119.98
800.534	167.08
800.714	126.12
800.894	130.22
801.074	115.88
801.254	97.45
801.434	189.61
801.614	142.5
801.794	119.98
801.974	785.57
802.154	144.55
802.334	195.75
802.514	232.62
802.693	148.65
802.873	173.22
803.053	279.72
803.233	220.33
803.413	50.35
803.592	85.16
803.772	140.46
803.952	76.97
804.131	101.55
804.311	154.79
804.491	162.98
804.67	99.5
804.85	171.18
805.03	181.42
805.209	244.9
805.389	167.08
805.568	58.54
805.748	105.64
805.928	136.36
806.107	162.98
806.287	122.02
806.466	152.74
806.646	134.31
806.825	97.45
807.004	150.7
807.184	191.66
807.363	115.88
807.543	230.57
807.722	95.4
807.901	171.18
808.081	105.64
808.26	56.49
808.439	113.83
808.619	126.12
808.798	152.74
808.977	132.26
809.156	154.79
809.336	169.13
809.515	68.78
809.694	191.66
809.873	72.87
810.052	87.21
810.231	244.9
810.411	189.61
810.59	97.45
810.769	99.5
810.948	107.69
811.127	7.34
811.306	95.4
811.485	85.16
811.664	138.41
811.843	72.87
812.022	9.39
812.201	150.7
812.38	144.55
812.559	140.46
812.737	162.98
812.916	40.11
813.095	56.49
813.274	117.93
813.453	167.08
813.632	117.93
813.811	68.78
813.989	130.22
814.168	140.46
814.347	72.87
814.526	187.56
814.704	113.83
814.883	128.17
815.062	56.49
815.24	99.5
815.419	40.11
815.598	107.69
815.776	109.74
815.955	113.83
816.133	105.64
816.312	72.87
816.49	97.45
816.669	105.64
816.847	156.84
817.026	142.5
817.204	95.4
817.383	113.83
817.561	19.63
817.74	97.45
817.918	72.87
818.097	25.77
818.275	66.73
818.453	89.26
818.632	144.55
818.81	66.73
818.988	126.12
819.167	124.07
819.345	124.07
819.523	7.34
819.701	3.24
819.879	81.07
820.058	146.6
820.236	74.92
820.414	-25.43
820.592	27.82
820.77	113.83
820.948	130.22
821.127	148.65
821.305	81.07
821.483	95.4
821.661	150.7
821.839	87.21
822.017	101.55
822.195	52.39
822.373	126.12
822.551	56.49
822.729	138.41
822.907	89.26
823.085	31.91
823.262	103.59
823.44	109.74
823.618	72.87
823.796	62.63
823.974	64.68
824.152	138.41
824.329	109.74
824.507	60.59
824.685	93.35
824.863	27.82
825.04	111.78
825.218	105.64
825.396	54.44
825.574	140.46
825.751	3.24
825.929	107.69
826.107	29.87
826.284	40.11
826.462	15.53
826.639	74.92
826.817	33.96
826.994	-9.05
827.172	40.11
827.349	101.55
827.527	128.17
827.704	48.3
827.882	72.87
828.059	64.68
828.237	93.35
828.414	138.41
828.591	-37.72
828.769	74.92
828.946	76.97
829.124	85.16
829.301	156.84
829.478	64.68
829.655	66.73
829.833	50.35
830.01	-50
830.187	74.92
830.364	17.58
830.542	83.11
830.719	140.46
830.896	23.72
831.073	60.59
831.25	17.58
831.427	17.58
831.604	21.67
831.782	25.77
831.959	79.02
832.136	7.34
832.313	68.78
832.49	7.34
832.667	66.73
832.844	-9.05
833.021	56.49
833.198	64.68
833.374	95.4
833.551	19.63
833.728	11.43
833.905	36.01
834.082	-0.85
834.259	115.88
834.436	72.87
834.612	19.63
834.789	23.72
834.966	1.19
835.143	25.77
835.319	-0.85
835.496	74.92
835.673	89.26
835.85	111.78
836.026	97.45
836.203	81.07
836.38	-7
836.556	-0.85
836.733	56.49
836.909	72.87
837.086	64.68
837.262	-47.96
837.439	33.96
837.616	107.69
837.792	11.43
837.968	27.82
838.145	23.72
838.321	31.91
838.498	40.11
838.674	146.6
838.851	50.35
839.027	85.16
839.203	31.91
839.38	107.69
839.556	60.59
839.732	33.96
839.909	13.48
840.085	119.98
840.261	5.29
840.437	101.55
840.614	31.91
840.79	99.5
840.966	48.3
841.142	105.64
841.318	89.26
841.494	111.78
841.671	27.82
841.847	19.63
842.023	23.72
842.199	107.69
842.375	64.68
842.551	3.24
842.727	17.58
842.903	146.6
843.079	-50
843.255	56.49
843.431	48.3
843.607	113.83
843.783	-11.09
843.959	76.97
844.134	33.96
844.31	25.77
844.486	-64.34
844.662	23.72
844.838	56.49
845.013	36.01
845.189	25.77
845.365	33.96
845.541	1.19
845.716	44.2
845.892	23.72
846.068	-7
846.244	42.15
846.419	-9.05
846.595	-17.24
846.77	-54.1
846.946	-9.05
847.122	58.54
847.297	58.54
847.473	103.59
847.648	64.68
847.824	60.59
847.999	-4.95
848.175	11.43
848.35	-25.43
848.526	130.22
848.701	60.59
848.876	31.91
849.052	48.3
849.227	74.92
849.403	-21.33
849.578	89.26
849.753	36.01
849.929	83.11
850.104	15.53
850.279	33.96
850.454	-9.05
850.63	60.59
850.805	50.35
850.98	-9.05
851.155	19.63
851.33	103.59
851.505	-39.76
851.681	70.83
851.856	-13.14
852.031	31.91
852.206	-7
852.381	7.34
852.556	19.63
852.731	29.87
852.906	83.11
853.081	7.34
853.256	66.73
853.431	68.78
853.606	-33.62
853.781	42.15
853.956	7.34
854.131	113.83
854.305	91.31
854.48	21.67
854.655	-4.95
854.83	52.39
855.005	42.15
855.18	15.53
855.354	19.63
855.529	130.22
855.704	-47.96
855.879	50.35
856.053	-9.05
856.228	42.15
856.403	42.15
856.577	-17.24
856.752	-33.62
856.926	23.72
857.101	42.15
857.276	25.77
857.45	81.07
857.625	66.73
857.799	7.34
857.974	1.19
858.148	-33.62
858.323	15.53
858.497	-17.24
858.672	3.24
858.846	-64.34
859.02	23.72
859.195	-13.14
859.369	-29.52
859.543	81.07
859.718	33.96
859.892	56.49
860.066	-58.2
860.241	11.43
860.415	11.43
860.589	21.67
860.763	27.82
860.938	58.54
861.112	122.02
861.286	44.2
861.46	-31.57
861.634	33.96
861.808	23.72
861.982	-33.62
862.157	40.11
862.331	52.39
862.505	-7
862.679	97.45
862.853	58.54
863.027	38.06
863.201	25.77
863.375	-15.19
863.549	27.82
863.722	48.3
863.896	-0.85
864.07	7.34
864.244	38.06
864.418	31.91
864.592	48.3
864.766	-58.2
864.939	27.82
865.113	58.54
865.287	38.06
865.461	-15.19
865.634	15.53
865.808	7.34
865.982	31.91
866.156	-9.05
866.329	27.82
866.503	19.63
866.676	40.11
866.85	48.3
867.024	-0.85
867.197	-9.05
867.371	48.3
867.544	103.59
867.718	-54.1
867.891	50.35
868.065	27.82
868.238	42.15
868.412	40.11
868.585	40.11
868.759	21.67
868.932	-62.29
869.105	-21.33
869.279	48.3
869.452	31.91
869.625	-21.33
869.799	79.02
869.972	15.53
870.145	7.34
870.319	97.45
870.492	64.68
870.665	-4.95
870.838	-62.29
871.011	-31.57
871.185	44.2
871.358	15.53
871.531	-7
871.704	-39.76
871.877	23.72
872.05	-58.2
872.223	-25.43
872.396	56.49
872.569	56.49
872.742	-27.48
872.915	33.96
873.088	-25.43
873.261	-25.43
873.434	29.87
873.607	-54.1
873.78	-23.38
873.953	7.34
874.126	109.74
874.299	-41.81
874.471	19.63
874.644	64.68
874.817	64.68
874.99	-19.29
875.163	17.58
875.335	17.58
875.508	-45.91
875.681	25.77
875.853	-15.19
876.026	17.58
876.199	-7
876.371	33.96
876.544	9.39
876.717	-25.43
876.889	36.01
877.062	-4.95
877.234	-43.86
877.407	-9.05
877.579	42.15
877.752	31.91
877.924	-29.52
878.097	33.96
878.269	42.15
878.442	72.87
878.614	19.63
878.786	9.39
878.959	-21.33
879.131	17.58
879.303	-7
879.476	52.39
879.648	-15.19
879.82	27.82
879.993	17.58
880.165	-41.81
880.337	31.91
880.509	27.82
880.681	-17.24
880.854	85.16
881.026	19.63
881.198	66.73
881.37	50.35
881.542	-0.85
881.714	11.43
881.886	3.24
882.058	-17.24
882.23	-54.1
882.402	-25.43
882.574	52.39
882.746	-41.81
882.918	56.49
883.09	-37.72
883.262	25.77
883.434	15.53
883.606	-25.43
883.778	-39.76
883.95	107.69
884.122	-0.85
884.293	48.3
884.465	38.06
884.637	-17.24
884.809	-62.29
884.98	40.11
885.152	-19.29
885.324	31.91
885.496	-17.24
885.667	7.34
885.839	3.24
886.011	105.64
886.182	27.82
886.354	-7
886.525	3.24
886.697	15.53
886.869	7.34
887.04	-13.14
887.212	19.63
887.383	64.68
887.555	7.34
887.726	-9.05
887.897	-0.85
888.069	33.96
888.24	23.72
888.412	-25.43
888.583	-82.77
888.754	-13.14
888.926	-70.48
889.097	17.58
889.268	-13.14
889.44	-11.09
889.611	9.39
889.782	25.77
889.953	-17.24
890.125	85.16
890.296	93.35
890.467	44.2
890.638	17.58
890.809	48.3
890.98	33.96
891.151	-31.57
891.323	54.44
891.494	-62.29
891.665	-52.05
891.836	42.15
892.007	31.91
892.178	-7
892.349	-33.62
892.52	58.54
892.691	50.35
892.862	72.87
893.032	1.19
893.203	7.34
893.374	-15.19
893.545	124.07
893.716	3.24
893.887	64.68
894.057	15.53
894.228	-29.52
894.399	48.3
894.57	76.97
894.74	19.63
894.911	-4.95
895.082	-56.15
895.253	-7
895.423	-54.1
895.594	50.35
895.764	48.3
895.935	15.53
896.106	54.44
896.276	3.24
896.447	-9.05
896.617	31.91
896.788	-7
896.958	-47.96
897.129	3.24
897.299	-9.05
897.47	56.49
897.64	72.87
897.81	-25.43
897.981	25.77
898.151	-131.92
898.322	-25.43
898.492	-66.39
898.662	13.48
898.832	19.63
899.003	-9.05
899.173	31.91
899.343	-62.29
899.513	5.29
