Data from USB4F104151__4__14-28-22-010.txt Node

Date: Thu Mar 13 14:28:22 EDT 2025
User: louis
Spectrometer: USB4F10415
Trigger mode: 4
Integration Time (sec): 2.500000E-2
Scans to average: 1
Electric dark correction enabled: true
Nonlinearity correction enabled: false
Boxcar width: 0
XAxis mode: Wavelengths
Number of Pixels in Spectrum: 3648
>>>>>Begin Spectral Data<<<<<
178.204	-129.36
178.424	-129.36
178.644	-129.36
178.864	-145.75
179.084	-121.17
179.304	-22.87
179.524	-61.78
179.744	-31.06
179.964	26.28
180.184	-0.34
180.404	61.1
180.624	-18.77
180.844	71.34
181.064	-69.97
181.283	34.47
181.503	-39.25
181.723	50.86
181.943	16.04
182.163	83.63
182.383	-18.77
182.602	13.99
182.822	61.1
183.042	34.47
183.262	5.8
183.482	-22.87
183.701	-12.63
183.921	32.43
184.141	87.72
184.361	59.05
184.58	34.47
184.8	83.63
185.02	-47.44
185.239	48.81
185.459	71.34
185.679	132.78
185.898	13.99
186.118	20.14
186.338	7.85
186.557	-53.59
186.777	46.76
186.997	-31.06
187.216	71.34
187.436	44.71
187.655	-6.49
187.875	36.52
188.095	44.71
188.314	-14.68
188.534	65.19
188.753	-4.44
188.973	91.82
189.192	71.34
189.412	136.87
189.631	34.47
189.851	44.71
190.07	26.28
190.29	-35.16
190.509	54.95
190.729	87.72
190.948	116.39
191.168	140.97
191.387	83.63
191.607	44.71
191.826	26.28
192.045	13.99
192.265	18.09
192.484	69.29
192.704	30.38
192.923	-33.11
193.142	44.71
193.362	112.3
193.581	87.72
193.8	95.91
194.02	157.35
194.239	-20.82
194.458	42.67
194.678	67.24
194.897	36.52
195.116	48.81
195.335	28.33
195.555	100.01
195.774	67.24
195.993	59.05
196.212	36.52
196.432	-4.44
196.651	50.86
196.87	1.71
197.089	108.2
197.308	46.76
197.528	46.76
197.747	50.86
197.966	22.19
198.185	136.87
198.404	-2.39
198.623	-31.06
198.842	-35.16
199.062	85.67
199.281	140.97
199.5	59.05
199.719	75.43
199.938	50.86
200.157	9.9
200.376	63.15
200.595	42.67
200.814	-12.63
201.033	50.86
201.252	89.77
201.471	46.76
201.69	24.23
201.909	95.91
202.128	34.47
202.347	9.9
202.566	26.28
202.785	-86.36
203.004	1.71
203.223	83.63
203.442	36.52
203.661	30.38
203.879	104.11
204.098	5.8
204.317	97.96
204.536	77.48
204.755	46.76
204.974	73.39
205.193	20.14
205.411	149.16
205.63	52.91
205.849	91.82
206.068	48.81
206.287	-33.11
206.505	59.05
206.724	5.8
206.943	-10.58
207.162	18.09
207.381	-16.73
207.599	108.2
207.818	87.72
208.037	-31.06
208.255	-55.64
208.474	91.82
208.693	132.78
208.911	36.52
209.13	61.1
209.349	95.91
209.567	36.52
209.786	134.82
210.005	26.28
210.223	-4.44
210.442	26.28
210.661	34.47
210.879	-39.25
211.098	52.91
211.316	75.43
211.535	95.91
211.753	26.28
211.972	104.11
212.191	36.52
212.409	54.95
212.628	24.23
212.846	59.05
213.065	108.2
213.283	61.1
213.502	-2.39
213.72	1.71
213.938	-4.44
214.157	81.58
214.375	52.91
214.594	18.09
214.812	100.01
215.031	20.14
215.249	61.1
215.467	11.95
215.686	71.34
215.904	81.58
216.122	69.29
216.341	28.33
216.559	59.05
216.778	65.19
216.996	50.86
217.214	100.01
217.432	-14.68
217.651	18.09
217.869	-29.01
218.087	52.91
218.306	18.09
218.524	61.1
218.742	-43.35
218.96	85.67
219.179	26.28
219.397	3.75
219.615	73.39
219.833	34.47
220.051	-45.4
220.27	110.25
220.488	52.91
220.706	59.05
220.924	42.67
221.142	50.86
221.36	18.09
221.578	61.1
221.796	143.02
222.015	134.82
222.233	112.3
222.451	102.06
222.669	-6.49
222.887	83.63
223.105	-31.06
223.323	1.71
223.541	42.67
223.759	30.38
223.977	1.71
224.195	106.15
224.413	9.9
224.631	97.96
224.849	-4.44
225.067	59.05
225.285	-26.96
225.503	30.38
225.721	-29.01
225.939	54.95
226.157	44.71
226.375	97.96
226.592	1.71
226.81	116.39
227.028	59.05
227.246	91.82
227.464	85.67
227.682	75.43
227.9	50.86
228.117	67.24
228.335	9.9
228.553	46.76
228.771	18.09
228.989	61.1
229.206	67.24
229.424	108.2
229.642	5.8
229.86	59.05
230.077	20.14
230.295	71.34
230.513	126.63
230.731	52.91
230.948	69.29
231.166	132.78
231.384	54.95
231.601	44.71
231.819	91.82
232.037	69.29
232.254	93.87
232.472	22.19
232.689	26.28
232.907	28.33
233.125	59.05
233.342	-14.68
233.56	28.33
233.777	44.71
233.995	67.24
234.213	36.52
234.43	1.71
234.648	24.23
234.865	26.28
235.083	28.33
235.3	16.04
235.518	91.82
235.735	48.81
235.953	93.87
236.17	-8.53
236.388	22.19
236.605	18.09
236.822	91.82
237.04	91.82
237.257	38.57
237.475	-14.68
237.692	42.67
237.909	40.62
238.127	93.87
238.344	20.14
238.562	50.86
238.779	18.09
238.996	26.28
239.214	108.2
239.431	126.63
239.648	32.43
239.865	-22.87
240.083	52.91
240.3	9.9
240.517	-59.73
240.735	102.06
240.952	67.24
241.169	75.43
241.386	44.71
241.603	9.9
241.821	5.8
242.038	42.67
242.255	24.23
242.472	1.71
242.689	79.53
242.907	-6.49
243.124	30.38
243.341	44.71
243.558	3.75
243.775	-6.49
243.992	30.38
244.209	71.34
244.426	89.77
244.643	42.67
244.86	63.15
245.078	-4.44
245.295	83.63
245.512	-2.39
245.729	30.38
245.946	67.24
246.163	91.82
246.38	18.09
246.597	38.57
246.814	18.09
247.031	34.47
247.248	36.52
247.464	114.34
247.681	44.71
247.898	83.63
248.115	11.95
248.332	-69.97
248.549	26.28
248.766	112.3
248.983	93.87
249.2	5.8
249.417	77.48
249.633	18.09
249.85	20.14
250.067	63.15
250.284	34.47
250.501	95.91
250.717	89.77
250.934	13.99
251.151	-37.2
251.368	59.05
251.585	-8.53
251.801	-47.44
252.018	42.67
252.235	40.62
252.451	-14.68
252.668	59.05
252.885	73.39
253.102	91.82
253.318	34.47
253.535	-10.58
253.752	-22.87
253.968	108.2
254.185	34.47
254.401	42.67
254.618	75.43
254.835	-14.68
255.051	91.82
255.268	-14.68
255.484	22.19
255.701	9.9
255.917	-2.39
256.134	-31.06
256.351	38.57
256.567	-31.06
256.784	5.8
257	-35.16
257.217	75.43
257.433	5.8
257.65	22.19
257.866	42.67
258.082	18.09
258.299	-12.63
258.515	54.95
258.732	-22.87
258.948	26.28
259.165	61.1
259.381	104.11
259.597	93.87
259.814	24.23
260.03	-14.68
260.246	59.05
260.463	34.47
260.679	69.29
260.895	-20.82
261.112	3.75
261.328	38.57
261.544	34.47
261.761	147.11
261.977	38.57
262.193	50.86
262.409	18.09
262.626	95.91
262.842	104.11
263.058	-39.25
263.274	108.2
263.49	9.9
263.707	192.17
263.923	57
264.139	73.39
264.355	91.82
264.571	18.09
264.787	30.38
265.004	126.63
265.22	93.87
265.436	13.99
265.652	87.72
265.868	93.87
266.084	61.1
266.3	77.48
266.516	-24.92
266.732	69.29
266.948	20.14
267.164	-14.68
267.38	91.82
267.596	59.05
267.812	108.2
268.028	77.48
268.244	67.24
268.46	116.39
268.676	7.85
268.892	-18.77
269.108	-29.01
269.324	-12.63
269.54	54.95
269.756	159.4
269.972	30.38
270.188	18.09
270.403	16.04
270.619	104.11
270.835	69.29
271.051	7.85
271.267	-37.2
271.483	18.09
271.698	30.38
271.914	-6.49
272.13	42.67
272.346	9.9
272.562	-6.49
272.777	104.11
272.993	42.67
273.209	26.28
273.425	79.53
273.64	46.76
273.856	52.91
274.072	9.9
274.287	-12.63
274.503	5.8
274.719	61.1
274.934	3.75
275.15	-47.44
275.366	91.82
275.581	-14.68
275.797	38.57
276.012	67.24
276.228	26.28
276.444	114.34
276.659	13.99
276.875	34.47
277.09	30.38
277.306	52.91
277.521	79.53
277.737	9.9
277.952	50.86
278.168	-12.63
278.383	32.43
278.599	89.77
278.814	75.43
279.03	50.86
279.245	28.33
279.461	-16.73
279.676	46.76
279.892	-6.49
280.107	36.52
280.322	-0.34
280.538	69.29
280.753	104.11
280.969	-6.49
281.184	100.01
281.399	42.67
281.615	22.19
281.83	124.58
282.045	-55.64
282.26	54.95
282.476	18.09
282.691	81.58
282.906	77.48
283.122	67.24
283.337	11.95
283.552	54.95
283.767	34.47
283.983	65.19
284.198	91.82
284.413	61.1
284.628	30.38
284.843	18.09
285.058	59.05
285.274	59.05
285.489	18.09
285.704	83.63
285.919	108.2
286.134	9.9
286.349	50.86
286.564	11.95
286.779	57
286.995	5.8
287.21	18.09
287.425	34.47
287.64	-2.39
287.855	63.15
288.07	-65.88
288.285	75.43
288.5	95.91
288.715	95.91
288.93	79.53
289.145	1.71
289.36	79.53
289.575	63.15
289.79	44.71
290.004	36.52
290.219	11.95
290.434	67.24
290.649	26.28
290.864	-14.68
291.079	79.53
291.294	112.3
291.509	20.14
291.724	42.67
291.938	11.95
292.153	85.67
292.368	71.34
292.583	75.43
292.798	34.47
293.012	54.95
293.227	93.87
293.442	69.29
293.657	46.76
293.871	106.15
294.086	-29.01
294.301	100.01
294.516	-6.49
294.73	46.76
294.945	9.9
295.16	26.28
295.374	100.01
295.589	13.99
295.804	44.71
296.018	34.47
296.233	67.24
296.447	143.02
296.662	36.52
296.877	50.86
297.091	75.43
297.306	-4.44
297.52	18.09
297.735	85.67
297.949	-12.63
298.164	67.24
298.378	67.24
298.593	22.19
298.807	81.58
299.022	83.63
299.236	85.67
299.451	-8.53
299.665	83.63
299.88	42.67
300.094	118.44
300.309	61.1
300.523	61.1
300.737	69.29
300.952	104.11
301.166	50.86
301.381	-31.06
301.595	7.85
301.809	36.52
302.024	13.99
302.238	-31.06
302.452	116.39
302.667	67.24
302.881	67.24
303.095	73.39
303.309	22.19
303.524	9.9
303.738	61.1
303.952	85.67
304.166	34.47
304.381	7.85
304.595	71.34
304.809	7.85
305.023	-0.34
305.237	57
305.452	46.76
305.666	75.43
305.88	122.54
306.094	77.48
306.308	48.81
306.522	114.34
306.736	91.82
306.95	85.67
307.164	46.76
307.379	-2.39
307.593	110.25
307.807	59.05
308.021	63.15
308.235	44.71
308.449	36.52
308.663	1.71
308.877	206.5
309.091	54.95
309.305	81.58
309.519	5.8
309.733	54.95
309.947	1.71
310.161	22.19
310.374	104.11
310.588	83.63
310.802	77.48
311.016	22.19
311.23	46.76
311.444	102.06
311.658	20.14
311.872	59.05
312.085	38.57
312.299	169.64
312.513	57
312.727	50.86
312.941	36.52
313.154	91.82
313.368	69.29
313.582	59.05
313.796	44.71
314.009	44.71
314.223	40.62
314.437	110.25
314.651	54.95
314.864	1.71
315.078	1.71
315.292	100.01
315.505	50.86
315.719	40.62
315.933	38.57
316.146	-2.39
316.36	59.05
316.573	61.1
316.787	95.91
317.001	7.85
317.214	18.09
317.428	-6.49
317.641	20.14
317.855	44.71
318.068	50.86
318.282	108.2
318.495	44.71
318.709	9.9
318.922	30.38
319.136	9.9
319.349	120.49
319.563	71.34
319.776	67.24
319.99	36.52
320.203	132.78
320.417	22.19
320.63	59.05
320.843	79.53
321.057	147.11
321.27	38.57
321.483	83.63
321.697	106.15
321.91	75.43
322.124	87.72
322.337	79.53
322.55	-0.34
322.763	57
322.977	20.14
323.19	-10.58
323.403	104.11
323.617	5.8
323.83	61.1
324.043	46.76
324.256	50.86
324.469	79.53
324.683	59.05
324.896	59.05
325.109	61.1
325.322	59.05
325.535	-0.34
325.748	102.06
325.962	126.63
326.175	67.24
326.388	42.67
326.601	42.67
326.814	18.09
327.027	18.09
327.24	36.52
327.453	11.95
327.666	5.8
327.879	59.05
328.092	140.97
328.305	83.63
328.518	46.76
328.731	102.06
328.944	3.75
329.157	54.95
329.37	34.47
329.583	75.43
329.796	132.78
330.009	-16.73
330.222	50.86
330.435	159.4
330.648	61.1
330.861	126.63
331.073	67.24
331.286	18.09
331.499	18.09
331.712	-14.68
331.925	22.19
332.138	42.67
332.35	120.49
332.563	18.09
332.776	34.47
332.989	22.19
333.202	9.9
333.414	38.57
333.627	50.86
333.84	-14.68
334.053	65.19
334.265	79.53
334.478	67.24
334.691	26.28
334.903	38.57
335.116	-31.06
335.329	26.28
335.541	67.24
335.754	20.14
335.966	57
336.179	54.95
336.392	38.57
336.604	26.28
336.817	44.71
337.029	89.77
337.242	22.19
337.454	36.52
337.667	9.9
337.88	100.01
338.092	110.25
338.305	75.43
338.517	30.38
338.729	59.05
338.942	100.01
339.154	-88.4
339.367	32.43
339.579	69.29
339.792	42.67
340.004	126.63
340.217	140.97
340.429	-4.44
340.641	67.24
340.854	40.62
341.066	5.8
341.278	108.2
341.491	136.87
341.703	54.95
341.915	34.47
342.128	-22.87
342.34	136.87
342.552	44.71
342.764	54.95
342.977	81.58
343.189	81.58
343.401	34.47
343.613	20.14
343.826	89.77
344.038	-14.68
344.25	67.24
344.462	28.33
344.674	44.71
344.886	48.81
345.099	65.19
345.311	26.28
345.523	83.63
345.735	63.15
345.947	116.39
346.159	38.57
346.371	67.24
346.583	20.14
346.795	69.29
347.007	18.09
347.219	83.63
347.431	116.39
347.643	91.82
347.855	28.33
348.067	87.72
348.279	26.28
348.491	112.3
348.703	108.2
348.915	28.33
349.127	34.47
349.339	110.25
349.551	-4.44
349.763	34.47
349.975	-2.39
350.187	83.63
350.399	63.15
350.61	20.14
350.822	28.33
351.034	102.06
351.246	63.15
351.458	110.25
351.669	3.75
351.881	116.39
352.093	50.86
352.305	126.63
352.517	104.11
352.728	118.44
352.94	-22.87
353.152	57
353.363	71.34
353.575	120.49
353.787	126.63
353.999	151.21
354.21	11.95
354.422	50.86
354.633	91.82
354.845	50.86
355.057	36.52
355.268	59.05
355.48	71.34
355.692	83.63
355.903	16.04
356.115	7.85
356.326	-20.82
356.538	75.43
356.749	79.53
356.961	126.63
357.172	50.86
357.384	110.25
357.595	52.91
357.807	26.28
358.018	52.91
358.23	87.72
358.441	153.26
358.653	52.91
358.864	95.91
359.075	42.67
359.287	20.14
359.498	151.21
359.709	9.9
359.921	67.24
360.132	54.95
360.344	-20.82
360.555	28.33
360.766	-20.82
360.977	32.43
361.189	42.67
361.4	46.76
361.611	67.24
361.823	71.34
362.034	61.1
362.245	50.86
362.456	104.11
362.667	44.71
362.879	22.19
363.09	155.3
363.301	102.06
363.512	50.86
363.723	77.48
363.935	18.09
364.146	42.67
364.357	28.33
364.568	118.44
364.779	-4.44
364.99	52.91
365.201	3.75
365.412	40.62
365.623	5.8
365.834	132.78
366.045	77.48
366.256	42.67
366.467	59.05
366.678	34.47
366.889	89.77
367.1	128.68
367.311	22.19
367.522	91.82
367.733	59.05
367.944	104.11
368.155	65.19
368.366	-29.01
368.577	116.39
368.788	67.24
368.999	50.86
369.209	50.86
369.42	149.16
369.631	171.69
369.842	26.28
370.053	42.67
370.264	67.24
370.474	16.04
370.685	-39.25
370.896	75.43
371.107	93.87
371.317	100.01
371.528	79.53
371.739	85.67
371.95	65.19
372.16	110.25
372.371	50.86
372.582	89.77
372.792	61.1
373.003	102.06
373.214	171.69
373.424	-6.49
373.635	79.53
373.846	59.05
374.056	18.09
374.267	108.2
374.477	44.71
374.688	9.9
374.898	91.82
375.109	89.77
375.319	67.24
375.53	38.57
375.74	67.24
375.951	100.01
376.161	89.77
376.372	67.24
376.582	75.43
376.793	42.67
377.003	34.47
377.214	61.1
377.424	83.63
377.635	46.76
377.845	46.76
378.055	89.77
378.266	81.58
378.476	34.47
378.686	140.97
378.897	104.11
379.107	110.25
379.317	120.49
379.528	61.1
379.738	50.86
379.948	52.91
380.158	63.15
380.369	59.05
380.579	52.91
380.789	95.91
380.999	91.82
381.21	97.96
381.42	108.2
381.63	38.57
381.84	132.78
382.05	67.24
382.261	69.29
382.471	116.39
382.681	-2.39
382.891	126.63
383.101	50.86
383.311	7.85
383.521	52.91
383.731	75.43
383.941	124.58
384.151	63.15
384.361	69.29
384.571	30.38
384.781	110.25
384.991	140.97
385.201	102.06
385.411	87.72
385.621	149.16
385.831	108.2
386.041	20.14
386.251	3.75
386.461	116.39
386.671	93.87
386.881	95.91
387.091	5.8
387.301	67.24
387.511	102.06
387.72	26.28
387.93	149.16
388.14	73.39
388.35	5.8
388.56	93.87
388.769	81.58
388.979	63.15
389.189	9.9
389.399	114.34
389.609	83.63
389.818	75.43
390.028	110.25
390.238	22.19
390.447	-18.77
390.657	83.63
390.867	-10.58
391.076	11.95
391.286	36.52
391.496	75.43
391.705	36.52
391.915	91.82
392.125	100.01
392.334	77.48
392.544	116.39
392.753	69.29
392.963	24.23
393.172	120.49
393.382	83.63
393.591	63.15
393.801	28.33
394.01	124.58
394.22	157.35
394.429	97.96
394.639	32.43
394.848	161.45
395.058	124.58
395.267	71.34
395.477	116.39
395.686	183.98
395.895	132.78
396.105	186.02
396.314	165.54
396.524	67.24
396.733	110.25
396.942	173.74
397.152	171.69
397.361	54.95
397.57	100.01
397.78	112.3
397.989	83.63
398.198	100.01
398.407	69.29
398.617	93.87
398.826	157.35
399.035	108.2
399.244	67.24
399.453	108.2
399.663	116.39
399.872	165.54
400.081	116.39
400.29	151.21
400.499	140.97
400.708	151.21
400.917	67.24
401.127	81.58
401.336	106.15
401.545	231.08
401.754	138.92
401.963	149.16
402.172	173.74
402.381	100.01
402.59	85.67
402.799	165.54
403.008	138.92
403.217	263.85
403.426	116.39
403.635	140.97
403.844	145.06
404.053	192.17
404.262	212.65
404.471	218.79
404.68	179.88
404.888	138.92
405.097	104.11
405.306	251.56
405.515	247.46
405.724	186.02
405.933	190.12
406.142	214.7
406.35	231.08
406.559	272.04
406.768	198.31
406.977	321.19
407.185	251.56
407.394	288.42
407.603	186.02
407.812	218.79
408.02	313
408.229	325.29
408.438	249.51
408.646	353.96
408.855	317.09
409.064	304.81
409.272	396.96
409.481	362.15
409.69	370.34
409.898	399.01
410.107	396.96
410.315	427.68
410.524	378.53
410.733	415.4
410.941	405.16
411.15	497.32
411.358	503.46
411.567	538.27
411.775	474.79
411.984	480.93
412.192	478.88
412.401	470.69
412.609	626.34
412.818	665.25
413.026	642.72
413.234	599.71
413.443	579.23
413.651	749.22
413.86	726.69
414.068	812.7
414.276	802.46
414.485	745.12
414.693	876.19
414.901	898.72
415.11	820.89
415.318	896.67
415.526	886.43
415.734	1009.31
415.943	999.07
416.151	951.96
416.359	968.35
416.567	997.02
416.776	1033.88
416.984	1193.62
417.192	1271.45
417.4	1179.29
417.608	1224.34
417.817	1218.2
418.025	1396.37
418.233	1429.14
418.441	1427.09
418.649	1451.67
418.857	1541.78
419.065	1562.26
419.273	1558.16
419.481	1691.28
419.689	1838.73
419.897	1803.92
420.105	1840.78
420.313	1953.42
420.521	2002.57
420.729	1992.33
420.937	2049.68
421.145	2211.46
421.353	2369.16
421.561	2426.5
421.769	2377.35
421.977	2616.96
422.185	2451.08
422.393	2567.81
422.601	2684.55
422.809	2836.1
423.017	2670.21
423.224	2893.44
423.432	2989.69
423.64	3075.71
423.848	3362.42
424.056	3253.88
424.263	3599.99
424.471	3444.34
424.679	3606.13
424.887	3712.63
425.094	3759.73
425.302	3931.76
425.51	3974.77
425.718	4066.92
425.925	4279.91
426.133	4490.85
426.341	4652.64
426.548	4685.41
426.756	4836.96
426.964	4793.95
427.171	5178.97
427.379	5281.37
427.586	5287.51
427.794	5652.05
428.001	5670.48
428.209	5994.06
428.417	5981.78
428.624	6342.22
428.832	6104.65
429.039	6370.89
429.247	6399.56
429.454	6874.69
429.662	7366.2
429.869	6917.7
430.076	7378.49
430.284	7120.45
430.491	7341.63
430.699	7794.23
430.906	7917.11
431.114	8017.46
431.321	8314.41
431.528	8523.3
431.736	8996.39
431.943	9371.16
432.15	8959.52
432.358	9311.77
432.565	9553.43
432.772	9819.67
432.979	10092.05
433.187	10405.39
433.394	10366.48
433.601	11081.22
433.808	10960.39
434.016	10905.09
434.223	11472.38
434.43	12266.99
434.637	11992.56
434.844	12695.02
435.052	12666.35
435.259	12512.75
435.466	12752.36
435.673	12781.03
435.88	13647.32
436.087	14144.98
436.294	14296.53
436.501	13927.89
436.708	14255.57
436.915	14833.1
437.122	15455.68
437.329	15211.97
437.537	15547.84
437.743	15947.19
437.95	15943.1
438.157	16858.54
438.364	17044.9
438.571	17315.23
438.778	17696.16
438.985	19047.82
439.192	18269.59
439.399	18843.02
439.606	18384.27
439.813	19400.07
440.02	20745.58
440.227	20168.05
440.433	19905.91
440.64	20579.7
440.847	20639.09
441.054	21112.17
441.261	22392.15
441.467	21908.83
441.674	22625.62
441.881	23276.87
442.088	23338.31
442.294	23108.94
442.501	23496
442.708	24307
442.914	25074.99
443.121	26092.83
443.328	25445.67
443.534	27352.33
443.741	26449.18
443.948	26029.34
444.154	28237.05
444.361	27747.59
444.568	27684.1
444.774	27673.86
444.981	28251.39
445.187	29162.73
445.394	30338.27
445.6	29940.96
445.807	32785.59
446.013	31497.42
446.22	31904.96
446.426	33324.21
446.633	33008.82
446.839	34651.29
447.046	33303.73
447.252	34546.84
447.459	35216.53
447.665	34344.09
447.871	36095.11
448.078	37956.71
448.284	35771.53
448.491	37102.71
448.697	38339.68
448.903	39193.68
449.11	39472.21
449.316	38949.98
449.522	39361.62
449.728	40729.66
449.935	40932.41
450.141	40598.59
450.347	41520.18
450.553	40531.01
450.76	40410.18
450.966	42267.69
451.172	41425.97
451.378	42415.14
451.584	41440.31
451.791	42798.11
451.997	42720.29
452.203	43277.33
452.409	43539.47
452.615	42990.62
452.821	41870.38
453.027	41227.32
453.233	43219.99
453.44	41456.69
453.646	41937.96
453.852	42525.73
454.058	43093.02
454.264	41532.46
454.47	42667.04
454.676	41483.31
454.882	43215.9
455.088	39511.12
455.294	39607.37
455.5	40571.97
455.705	40834.11
455.911	39124.05
456.117	38294.63
456.323	37614.7
456.529	36052.1
456.735	37917.8
456.941	36551.8
457.147	36189.31
457.352	34991.25
457.558	34385.05
457.764	34610.33
457.97	34045.09
458.176	33537.19
458.381	33322.16
458.587	31749.32
458.793	31509.71
458.999	30209.25
459.204	32138.43
459.41	31266
459.616	29222.12
459.821	29306.09
460.027	29422.83
460.233	28560.63
460.438	27280.65
460.644	27686.15
460.85	25967.9
461.055	25754.91
461.261	25765.15
461.466	23846.21
461.672	23229.77
461.878	24472.89
462.083	23141.71
462.289	22637.91
462.494	22236.5
462.7	21353.83
462.905	20802.93
463.111	21523.81
463.316	21675.36
463.522	21362.02
463.727	21089.64
463.932	21116.26
464.138	20600.18
464.343	20940.14
464.549	20231.54
464.754	20688.24
464.959	20962.67
465.165	20354.42
465.37	19570.05
465.575	19357.06
465.781	20088.18
465.986	20043.13
466.191	19301.76
466.397	18619.79
466.602	17974.68
466.807	18652.56
467.012	18476.43
467.218	18529.68
467.423	18220.44
467.628	18505.1
467.833	18918.79
468.038	18273.68
468.244	17837.47
468.449	18720.14
468.654	18052.5
468.859	18001.3
469.064	17739.16
469.269	17124.77
469.474	17065.38
469.679	17495.46
469.885	17051.05
470.09	17102.25
470.295	17218.98
470.5	16686.51
470.705	16960.94
470.91	16418.22
471.115	16281.01
471.32	16434.61
471.525	16240.05
471.73	16025.01
471.935	16076.21
472.139	15476.16
472.344	15664.57
472.549	15345.09
472.754	15355.33
472.959	14890.44
473.164	14665.16
473.369	14441.93
473.574	15066.56
473.778	14763.47
473.983	14591.44
474.188	14548.43
474.393	14022.1
474.598	14011.86
474.802	13831.64
475.007	13766.1
475.212	13776.34
475.417	13438.43
475.621	13422.05
475.826	13309.41
476.031	12942.82
476.235	12889.57
476.44	13282.78
476.645	12842.47
476.849	13028.84
477.054	12439.02
477.259	12451.31
477.463	12473.84
477.668	12011
477.872	12387.82
478.077	12064.24
478.282	11857.4
478.486	11806.2
478.691	11605.5
478.895	11716.09
479.1	11462.14
479.304	11503.1
479.509	10980.87
479.713	11421.18
479.918	11136.51
480.122	11048.45
480.326	11335.17
480.531	11093.51
480.735	11003.39
480.94	10835.46
481.144	11208.19
481.348	10720.78
481.553	10661.38
481.757	10765.83
481.961	10790.41
482.166	10989.06
482.37	10688.01
482.574	10599.94
482.778	10745.35
482.983	10819.08
483.187	10710.54
483.391	10671.62
483.595	10561.03
483.8	10442.25
484.004	10540.55
484.208	10700.3
484.412	10589.71
484.616	10556.94
484.821	10567.18
485.025	10468.87
485.229	10790.41
485.433	10487.31
485.637	10595.85
485.841	10315.28
486.045	10511.88
486.249	10640.9
486.453	10389
486.657	10548.75
486.861	10692.1
487.065	10401.29
487.269	10386.96
487.473	10366.48
487.677	10597.9
487.881	10622.47
488.085	10450.44
488.289	10601.99
488.493	10518.03
488.697	10411.53
488.901	10544.65
489.105	10489.35
489.309	10389
489.512	10634.76
489.716	10567.18
489.92	10747.4
490.124	10282.51
490.328	10907.14
490.531	10608.14
490.735	10702.34
490.939	10749.45
491.143	10634.76
491.346	10671.62
491.55	10821.13
491.754	10851.85
491.958	11130.37
492.161	10776.07
492.365	10823.17
492.569	10833.41
492.772	10884.61
492.976	11085.31
493.18	11204.1
493.383	11163.14
493.587	11349.5
493.79	11462.14
493.994	11118.08
494.197	11249.15
494.401	11374.08
494.605	11402.75
494.808	11470.33
495.012	11699.7
495.215	11658.74
495.419	11617.79
495.622	11697.66
495.825	11757.05
496.029	12002.8
496.232	12240.37
496.436	12037.62
496.639	12516.84
496.843	12133.87
497.046	12600.81
497.249	12778.98
497.453	12658.15
497.656	12735.98
497.859	12711.4
498.063	12965.35
498.266	13204.96
498.469	12948.97
498.673	13125.09
498.876	13551.07
499.079	13485.53
499.282	13542.88
499.485	13989.33
499.689	13995.48
499.892	14173.65
500.095	14165.46
500.298	14403.02
500.501	14132.69
500.705	14869.96
500.908	14955.97
501.111	15099.33
501.314	15152.58
501.517	15236.55
501.72	15519.17
501.923	15140.29
502.126	15654.33
502.329	16053.69
502.532	16217.52
502.735	16205.24
502.938	16301.49
503.141	16494
503.344	16606.64
503.547	16731.56
503.75	17071.53
503.953	17225.12
504.156	17302.95
504.359	17571.23
504.562	17655.2
504.765	17706.4
504.968	17929.63
505.17	18507.15
505.373	18343.31
505.576	18697.61
505.779	18969.99
505.982	18920.84
506.185	19174.79
506.387	19379.59
506.59	19572.1
506.793	20069.75
506.996	19733.89
507.198	20204.92
507.401	20327.8
507.604	20524.4
507.807	20794.73
508.009	21034.35
508.212	20946.28
508.415	21247.33
508.617	21622.11
508.82	21783.9
509.022	21261.67
509.225	22392.15
509.428	22164.82
509.63	22584.66
509.833	22558.03
510.035	23000.4
510.238	22691.15
510.44	23244.1
510.643	23553.35
510.845	23541.06
511.048	23600.45
511.25	24085.82
511.453	24030.52
511.655	24786.22
511.858	24763.7
512.06	24997.17
512.262	25244.97
512.465	25220.39
512.667	25552.16
512.87	26193.18
513.072	25742.63
513.274	26539.29
513.477	26608.92
513.679	27006.22
513.881	27182.35
514.084	27444.49
514.286	27499.78
514.488	27542.79
514.69	28513.53
514.893	28122.37
515.095	28468.47
515.297	28708.08
515.499	28794.1
515.701	29211.88
515.904	29070.58
516.106	29629.67
516.308	29719.78
516.51	30108.9
516.712	30129.37
516.914	30670.04
517.116	30786.77
517.318	30944.47
517.52	31284.43
517.722	31179.98
517.925	31759.56
518.127	32040.13
518.329	31870.15
518.531	31872.2
518.733	32820.41
518.935	32830.65
519.136	32840.89
519.338	33189.04
519.54	33340.59
519.742	33813.67
519.944	33592.49
520.146	34034.85
520.348	34636.95
520.55	34591.9
520.752	34366.62
520.954	35056.79
521.155	34788.5
521.357	35081.36
521.559	35247.25
521.761	35918.98
521.963	35837.06
522.164	35849.35
522.366	36084.87
522.568	36287.62
522.77	36715.64
522.971	36822.14
523.173	36535.42
523.375	36752.51
523.576	36820.09
523.778	36996.21
523.98	37545.07
524.181	37327.99
524.383	37379.18
524.584	37721.2
524.786	37803.11
524.988	37776.49
525.189	38173.8
525.391	38181.99
525.592	38177.89
525.794	38382.69
525.995	38317.15
526.197	38476.9
526.398	38442.08
526.6	38743.13
526.801	38757.47
527.003	38982.74
527.204	38450.27
527.406	39298.13
527.607	38886.49
527.808	39126.1
528.01	38997.08
528.211	38718.56
528.412	39820.36
528.614	39660.62
528.815	39205.97
529.016	39490.64
529.218	39042.13
529.419	39208.02
529.62	39380.05
529.822	39478.35
530.023	39341.14
530.224	39234.64
530.425	39476.3
530.626	39216.21
530.828	38683.74
531.029	39666.77
531.23	39576.65
531.431	39138.39
531.632	39453.78
531.833	39353.43
532.035	39375.95
532.236	39197.78
532.437	39627.85
532.638	39234.64
532.839	39271.51
533.04	39726.16
533.241	38739.04
533.442	39855.18
533.643	39339.09
533.844	39205.97
534.045	38886.49
534.246	39033.94
534.447	39291.99
534.648	39113.81
534.849	39130.2
535.05	38552.67
535.251	38919.26
535.451	38671.45
535.652	39040.09
535.853	38661.21
536.054	38927.45
536.255	38863.96
536.456	38675.55
536.657	38958.17
536.857	38691.93
537.058	38403.17
537.259	38779.99
537.46	38843.48
537.66	38503.52
537.861	38722.65
538.062	38255.71
538.263	38618.21
538.463	38431.84
538.664	38153.32
538.865	38247.52
539.065	38706.27
539.266	38304.87
539.466	38329.44
539.667	37823.59
539.868	38890.59
540.068	37995.62
540.269	38077.54
540.469	38409.31
540.67	38184.04
540.87	38024.29
541.071	38308.96
541.271	38141.03
541.472	38046.82
541.672	37985.38
541.873	37882.98
542.073	37776.49
542.274	37950.57
542.474	38059.11
542.675	37520.49
542.875	38446.18
543.075	37788.78
543.276	37571.69
543.476	38265.95
543.676	37751.91
543.877	37893.22
544.077	38091.88
544.277	37975.14
544.478	37311.6
544.678	38270.05
544.878	37293.17
545.078	38075.49
545.279	37600.36
545.479	37633.13
545.679	37510.25
545.879	37878.89
546.079	37557.36
546.28	37702.76
546.48	37065.85
546.68	37604.46
546.88	37586.03
547.08	37596.27
547.28	37434.48
547.48	37405.81
547.68	37506.16
547.88	37102.71
548.081	37649.52
548.281	37504.11
548.481	37241.97
548.681	37629.04
548.881	37540.97
549.081	37319.79
549.28	37334.13
549.48	37489.77
549.68	37147.76
549.88	37921.9
550.08	37481.58
550.28	37463.15
550.48	37301.36
550.68	38083.69
550.88	37379.18
551.08	37745.77
551.279	37659.76
551.479	37305.46
551.679	37405.81
551.879	37807.21
552.079	37667.95
552.278	37203.06
552.478	37241.97
552.678	37080.18
552.878	37676.14
553.077	37559.41
553.277	37485.68
553.477	38124.64
553.676	37510.25
553.876	37399.66
554.076	37727.34
554.275	37334.13
554.475	37174.39
554.674	37504.11
554.874	37631.08
555.074	37133.43
555.273	37661.8
555.473	37909.61
555.672	37346.42
555.872	37244.02
556.071	37782.63
556.271	37684.33
556.47	37487.73
556.67	37336.18
556.869	37500.01
557.068	37680.24
557.268	37401.71
557.467	37901.42
557.667	37510.25
557.866	37966.95
558.065	37573.74
558.265	37581.93
558.464	37575.79
558.663	37864.55
558.863	37457.01
559.062	37780.59
559.261	37772.39
559.461	38343.78
559.66	37094.52
559.859	37389.42
560.058	36959.35
560.258	37487.73
560.457	36928.63
560.656	37811.31
560.855	37153.91
561.054	37745.77
561.253	37231.73
561.453	37844.07
561.652	37676.14
561.851	37545.07
562.05	37317.75
562.249	37049.46
562.448	37579.89
562.647	37764.2
562.846	37194.87
563.045	37323.89
563.244	36748.41
563.443	37414
563.642	36643.96
563.841	37141.62
564.04	37299.31
564.239	37260.4
564.438	36930.68
564.637	37000.31
564.836	37266.55
565.035	36742.27
565.234	36908.15
565.432	36891.77
565.631	36705.4
565.83	37182.58
566.029	36877.43
566.228	36854.9
566.427	36709.5
566.625	36428.93
566.824	36295.81
567.023	36906.1
567.222	36320.38
567.42	36850.81
567.619	36402.3
567.818	36500.61
568.016	36381.82
568.215	36406.4
568.414	36562.04
568.612	36914.3
568.811	36103.3
569.01	36424.83
569.208	35603.6
569.407	36258.95
569.605	36011.14
569.804	36035.72
570.002	35669.13
570.201	35724.43
570.4	35320.98
570.598	35769.48
570.797	35460.24
570.995	35550.35
571.193	34819.22
571.392	35740.81
571.59	34931.86
571.789	35615.88
571.987	35296.4
572.186	35560.59
572.384	34913.43
572.582	35370.13
572.781	34962.58
572.979	34546.84
573.177	35044.5
573.376	35069.08
573.574	34337.95
573.772	35032.21
573.971	34393.25
574.169	34329.76
574.367	34096.29
574.565	34340
574.763	34196.64
574.962	34090.15
575.16	33606.83
575.358	33592.49
575.556	33868.97
575.754	34038.95
575.952	33252.53
576.151	33940.64
576.349	33012.91
576.547	33375.41
576.745	33785
576.943	33522.86
577.141	33260.72
577.339	33445.04
577.537	33070.26
577.735	32984.24
577.933	32627.9
578.131	32971.96
578.329	33055.92
578.527	32369.85
578.725	32476.35
578.923	32908.47
579.121	32591.03
579.319	32572.6
579.516	32419
579.714	32314.56
579.912	32076.99
580.11	32283.84
580.308	31894.72
580.506	32031.94
580.704	31694.02
580.901	31945.92
581.099	32111.81
581.297	31855.81
581.495	31319.24
581.692	32212.16
581.89	31419.6
582.088	31401.16
582.285	31194.32
582.483	31536.33
582.681	31358.16
582.878	31167.7
583.076	31175.89
583.274	31333.58
583.471	31038.67
583.669	30864.6
583.866	30686.42
584.064	30989.52
584.262	30649.56
584.459	30917.84
584.657	30594.26
584.854	30911.7
585.052	30096.61
585.249	30696.66
585.447	30305.5
585.644	29725.93
585.841	30196.96
586.039	30618.84
586.236	29822.18
586.434	29760.74
586.631	29596.9
586.828	30018.78
587.026	29553.9
587.223	29619.43
587.42	29924.58
587.618	29664.49
587.815	29089.01
588.012	29422.83
588.21	29144.3
588.407	29439.21
588.604	29242.6
588.801	29125.87
588.999	29109.49
589.196	29166.83
589.393	28845.3
589.59	28935.41
589.787	28953.84
589.984	29246.7
590.182	28515.58
590.379	28830.96
590.576	28296.44
590.773	28753.14
590.97	28353.79
591.167	28452.09
591.364	28093.69
591.561	28478.71
591.758	27948.29
591.955	27911.42
592.152	28296.44
592.349	28028.16
592.546	27763.97
592.743	28165.37
592.94	27565.32
593.137	27600.13
593.334	27997.44
593.531	27428.1
593.727	27852.03
593.924	27665.67
594.121	27389.19
594.318	27710.72
594.515	27026.7
594.712	27446.54
594.908	27200.78
595.105	27354.38
595.302	26955.02
595.499	27532.55
595.696	27383.05
595.892	26887.44
596.089	27092.24
596.286	27104.53
596.482	27000.08
596.679	26922.26
596.876	27165.96
597.072	26885.39
597.269	27086.09
597.466	26494.23
597.662	26559.77
597.859	26885.39
598.055	26703.12
598.252	26473.75
598.448	26561.81
598.645	26541.33
598.841	26451.22
599.038	26508.57
599.234	26701.08
599.431	26430.74
599.627	26326.3
599.824	26625.3
600.02	26438.94
600.217	26518.81
600.413	26256.67
600.609	25906.46
600.806	25863.46
601.002	26592.53
601.198	26055.97
601.395	26254.62
601.591	26477.85
601.787	26150.17
601.984	26428.7
602.18	26498.33
602.376	26223.9
602.572	26293.53
602.769	26318.11
602.965	26094.88
603.161	26467.61
603.357	26133.79
603.553	26287.39
603.75	26445.08
603.946	26187.04
604.142	26389.78
604.338	25838.88
604.534	26580.25
604.73	26066.2
604.926	25908.51
605.122	26262.81
605.318	26201.37
605.514	26090.78
605.71	26205.47
605.906	26148.12
606.102	26506.52
606.298	26518.81
606.494	26330.39
606.69	26428.7
606.886	26498.33
607.082	25830.69
607.278	26236.19
607.474	26223.9
607.67	26400.02
607.866	26137.88
608.062	26430.74
608.257	26320.15
608.453	26318.11
608.649	26613.01
608.845	26604.82
609.041	26565.91
609.236	26672.4
609.432	26750.23
609.628	26701.08
609.824	26543.38
610.019	26858.77
610.215	26694.93
610.411	27047.18
610.606	26666.26
610.802	26787.09
610.998	26488.09
611.193	26836.24
611.389	26713.36
611.584	26643.73
611.78	26350.87
611.976	26957.07
612.171	27069.71
612.367	26963.22
612.562	27104.53
612.758	26537.24
612.953	26807.57
613.149	26805.52
613.344	26690.84
613.539	27417.86
613.735	26752.27
613.93	27254.03
614.126	26866.96
614.321	27571.46
614.517	27165.96
614.712	27315.47
614.907	26907.92
615.103	27219.21
615.298	27079.95
615.493	27381
615.688	26879.25
615.884	27561.22
616.079	27114.76
616.274	27233.55
616.47	27122.96
616.665	27127.05
616.86	27073.81
617.055	27383.05
617.25	27135.24
617.445	27153.68
617.641	26619.16
617.836	27002.13
618.031	26895.63
618.226	26823.95
618.421	26934.54
618.616	26739.99
618.811	26164.51
619.006	27286.79
619.201	26397.98
619.396	26918.16
619.591	26283.29
619.786	26731.79
619.981	26168.6
620.176	26690.84
620.371	26041.63
620.566	26393.88
620.761	26008.86
620.956	26299.67
621.151	25488.68
621.346	25799.97
621.541	25431.33
621.735	25615.65
621.93	25625.89
622.125	25558.31
622.32	25126.19
622.515	25410.85
622.709	25087.28
622.904	25363.75
623.099	25054.51
623.294	24950.06
623.488	24671.54
623.683	24700.21
623.878	24274.23
624.072	24466.74
624.267	24468.79
624.462	24505.65
624.656	23799.1
624.851	23979.32
625.046	23903.55
625.24	23768.38
625.435	23616.83
625.629	23594.31
625.824	23393.61
626.018	23188.81
626.213	22768.98
626.407	23289.16
626.602	22891.85
626.796	23151.95
626.991	22844.75
627.185	22725.97
627.38	22553.94
627.574	22512.98
627.768	22426.96
627.963	22275.41
628.157	21949.79
628.352	22295.89
628.546	21568.87
628.74	22160.73
628.935	21732.7
629.129	22009.18
629.323	21550.43
629.517	21372.26
629.712	21364.07
629.906	21247.33
630.1	21087.59
630.294	20809.07
630.489	20970.86
630.683	21108.07
630.877	20532.59
631.071	20596.08
631.265	20774.25
631.459	20522.35
631.653	20479.35
631.848	20415.86
632.042	20272.5
632.236	20133.24
632.43	19918.2
632.624	19895.68
632.818	19746.17
633.012	19477.89
633.206	19473.79
633.4	19639.68
633.594	19309.96
633.788	19297.67
633.982	19406.21
634.176	19357.06
634.369	18875.79
634.563	19064.2
634.757	18904.46
634.951	18605.45
635.145	18853.26
635.339	18691.47
635.533	18437.52
635.726	18212.24
635.92	18312.6
636.114	18136.47
636.308	18220.44
636.501	18009.5
636.695	18023.83
636.889	17728.92
637.083	17540.51
637.276	17466.78
637.47	17610.14
637.664	17212.84
637.857	17221.03
638.051	17200.55
638.244	17178.02
638.438	17130.92
638.632	16764.33
638.825	16891.3
639.019	16567.73
639.212	16575.92
639.406	16412.08
639.599	16393.65
639.793	16395.7
639.986	16352.69
640.18	16151.99
640.373	16129.46
640.567	15887.8
640.76	16133.56
640.954	15740.35
641.147	15644.09
641.34	15525.31
641.534	15465.92
641.727	15631.8
641.92	15355.33
642.114	15267.27
642.307	15289.79
642.5	14964.17
642.694	14847.43
642.887	14964.17
643.08	14964.17
643.273	14974.41
643.467	14642.64
643.66	14591.44
643.853	14577.1
644.046	14331.34
644.239	14427.6
644.432	14276.05
644.626	14118.36
644.819	14239.19
645.012	13977.05
645.205	13800.92
645.398	14009.81
645.591	13792.73
645.784	13579.74
645.977	13567.45
646.17	13481.44
646.363	13284.83
646.556	13354.46
646.749	13452.77
646.942	13022.69
647.135	12944.87
647.328	13049.32
647.521	12938.73
647.714	13012.45
647.907	12692.97
648.099	12717.54
648.292	12590.57
648.485	12580.33
648.678	12420.59
648.871	12393.97
649.064	12031.48
649.256	12451.31
649.449	12037.62
649.642	12340.72
649.835	11937.27
650.027	11912.69
650.22	12031.48
650.413	11716.09
650.605	11974.13
650.798	11718.14
650.991	11625.98
651.183	11628.03
651.376	11466.24
651.568	11503.1
651.761	11429.37
651.954	11343.36
652.146	11474.43
652.339	11255.29
652.531	11060.74
652.724	11089.41
652.916	11005.44
653.109	10948.1
653.301	10958.34
653.494	10937.86
653.686	10733.06
653.879	10819.08
654.071	10831.37
654.263	10569.23
654.456	10479.11
654.648	10657.29
654.84	10569.23
655.033	10374.67
655.225	10429.96
655.417	10401.29
655.61	10409.48
655.802	10423.82
655.994	10122.77
656.186	10104.34
656.379	9911.83
656.571	10087.95
656.763	10020.37
656.955	9877.01
657.148	9965.07
657.34	9752.09
657.532	9602.58
657.724	9807.38
657.916	9672.22
658.108	9602.58
658.3	9440.79
658.492	9377.31
658.684	9383.45
658.876	9279.01
659.068	9258.53
659.26	9188.89
659.452	9094.69
659.644	9139.74
659.836	8955.43
660.028	8916.51
660.22	8930.85
660.412	8754.73
660.604	8910.37
660.796	8724.01
660.988	8740.39
661.18	8865.32
661.372	8664.61
661.563	8941.09
661.755	8494.63
661.947	8570.41
662.139	8474.15
662.331	8326.7
662.522	8320.56
662.714	8398.38
662.906	8140.33
663.097	8422.95
663.289	8244.78
663.481	8160.81
663.673	8185.39
663.864	8160.81
664.056	7958.07
664.247	7935.54
664.439	7798.32
664.631	7890.48
664.822	7857.71
665.014	7607.86
665.205	7724.6
665.397	7661.11
665.588	7614.01
665.78	7738.93
665.971	7665.21
666.163	7527.99
666.354	7607.86
666.546	7464.5
666.737	7429.69
666.929	7339.58
667.12	7331.39
667.311	7392.83
667.503	7315
667.694	7040.58
667.885	7020.1
668.077	7228.99
668.268	7044.67
668.459	6938.18
668.651	7093.82
668.842	6940.22
669.033	6999.62
669.224	6850.11
669.416	7024.19
669.607	6811.2
669.798	6792.77
669.989	6735.43
670.18	6856.26
670.371	6544.97
670.563	6778.44
670.754	6581.83
670.945	6557.25
671.136	6663.75
671.327	6704.71
671.518	6483.53
671.709	6602.31
671.9	6620.74
672.091	6387.27
672.282	6473.29
672.473	6205
672.664	6288.97
672.855	6407.75
673.046	6202.96
673.237	6344.27
673.428	6286.92
673.619	6313.55
673.809	6178.38
674	6002.26
674.191	6139.47
674.382	6014.54
674.573	6078.03
674.764	6145.61
674.954	5920.34
675.145	6239.82
675.336	6071.89
675.527	6067.79
675.717	5969.49
675.908	5885.52
676.099	5998.16
676.289	5998.16
676.48	5828.18
676.671	5924.43
676.861	5809.75
677.052	5725.78
677.243	5949.01
677.433	5629.52
677.624	5729.88
677.814	5670.48
678.005	5647.96
678.195	5664.34
678.386	5711.44
678.576	5596.76
678.767	5658.2
678.957	5525.08
679.148	5535.32
679.338	5555.8
679.529	5615.19
679.719	5596.76
679.909	5578.33
680.1	5580.37
680.29	5613.14
680.481	5539.41
680.671	5422.68
680.861	5377.62
681.052	5377.62
681.242	5318.23
681.432	5459.54
681.622	5469.78
681.813	5293.66
682.003	5441.11
682.193	5385.82
682.383	5490.26
682.573	5430.87
682.764	5346.91
682.954	5351
683.144	5189.21
683.334	5451.35
683.524	5187.16
683.714	5318.23
683.904	5303.9
684.094	5469.78
684.284	5097.05
684.474	5152.35
684.664	5101.15
684.854	5195.36
685.044	5150.3
685.234	5097.05
685.424	5351
685.614	5138.01
685.804	5072.48
685.994	5131.87
686.184	5117.53
686.374	5162.59
686.564	5162.59
686.753	4939.36
686.943	4992.61
687.133	5082.72
687.323	5006.94
687.513	4941.41
687.702	4879.97
687.892	4931.17
688.082	4998.75
688.272	4861.54
688.461	4851.3
688.651	4810.34
688.841	4744.8
689.03	4937.31
689.22	4863.58
689.41	4804.19
689.599	4752.99
689.789	4916.83
689.979	4826.72
690.168	4673.12
690.358	4679.27
690.547	4716.13
690.737	4818.53
690.926	4732.51
691.116	4818.53
691.305	4826.72
691.495	4632.16
691.684	4599.4
691.874	4671.08
692.063	4621.92
692.252	4638.31
692.442	4617.83
692.631	4683.36
692.82	4699.75
693.01	4599.4
693.199	4621.92
693.388	4542.05
693.578	4533.86
693.767	4488.81
693.956	4486.76
694.146	4564.58
694.335	4507.24
694.524	4460.13
694.713	4490.85
694.902	4476.52
695.092	4400.74
695.281	4275.82
695.47	4621.92
695.659	4458.09
695.848	4290.15
696.037	4408.94
696.226	4462.18
696.415	4482.66
696.604	4392.55
696.793	4580.96
696.982	4419.18
697.171	4402.79
697.36	4402.79
697.549	4245.1
697.738	4394.6
697.927	4351.59
698.116	4255.34
698.305	4251.24
698.494	4157.04
698.683	4394.6
698.872	4263.53
699.061	4322.92
699.25	4255.34
699.438	4367.98
699.627	4269.67
699.816	4247.15
700.005	4257.39
700.193	4089.45
700.382	4247.15
700.571	4034.16
700.76	4142.7
700.948	4310.63
701.137	4189.8
701.326	4181.61
701.514	4146.8
701.703	4138.6
701.892	4140.65
702.08	4163.18
702.269	4206.19
702.457	3985.01
702.646	4206.19
702.834	3976.81
703.023	4019.82
703.212	4017.77
703.4	4062.83
703.589	3962.48
703.777	4089.45
703.965	4015.73
704.154	4040.3
704.342	3946.09
704.531	3958.38
704.719	3804.78
704.907	3933.81
705.096	3985.01
705.284	3886.7
705.472	3827.31
705.661	4001.39
705.849	3909.23
706.037	3917.42
706.226	3968.62
706.414	3849.84
706.602	3763.83
706.79	3858.03
706.979	3802.74
707.167	3778.16
707.355	3810.93
707.543	3860.08
707.731	3884.66
707.919	3753.59
708.107	3815.02
708.296	3853.94
708.484	3647.09
708.672	3815.02
708.86	3565.17
709.048	3643
709.236	3624.56
709.424	3704.43
709.612	3540.6
709.8	3575.41
709.988	3665.52
710.176	3616.37
710.364	3651.19
710.551	3589.75
710.739	3653.23
710.927	3647.09
711.115	3559.03
711.303	3511.93
711.491	3491.45
711.679	3526.26
711.866	3477.11
712.054	3487.35
712.242	3491.45
712.43	3456.63
712.617	3599.99
712.805	3417.72
712.993	3565.17
713.181	3288.7
713.368	3509.88
713.556	3516.02
713.744	3354.23
713.931	3501.69
714.119	3278.46
714.306	3425.91
714.494	3208.83
714.682	3282.55
714.869	3239.55
715.057	3223.16
715.244	3114.62
715.432	3339.9
715.619	3225.21
715.807	3335.8
715.994	3212.92
716.182	3212.92
716.369	3245.69
716.556	3210.87
716.744	3186.3
716.931	3186.3
717.119	3298.94
717.306	3085.95
717.493	2987.65
717.681	3065.47
717.868	3085.95
718.055	3143.29
718.242	3073.66
718.43	3104.38
718.617	3067.52
718.804	3118.72
718.991	2983.55
719.179	3190.39
719.366	2989.69
719.553	3096.19
719.74	3085.95
719.927	3190.39
720.114	2911.87
720.301	2903.68
720.488	2893.44
720.676	2893.44
720.863	2887.29
721.05	3042.94
721.237	2911.87
721.424	2944.64
721.611	2864.77
721.798	2770.56
721.985	2885.25
722.172	2854.53
722.358	2868.86
722.545	3018.36
722.732	2848.38
722.919	2862.72
723.106	2782.85
723.293	2705.03
723.48	2737.79
723.667	2776.7
723.853	2762.37
724.04	2754.18
724.227	2623.11
724.414	2739.84
724.6	2745.98
724.787	2815.62
724.974	2731.65
725.161	2754.18
725.347	2647.68
725.534	2619.01
725.72	2674.31
725.907	2692.74
726.094	2700.93
726.28	2649.73
726.467	2590.34
726.653	2631.3
726.84	2645.63
727.027	2758.27
727.213	2573.96
727.4	2604.67
727.586	2539.14
727.773	2496.13
727.959	2569.86
728.145	2563.72
728.332	2580.1
728.518	2537.09
728.705	2487.94
728.891	2434.69
729.077	2381.45
729.264	2502.28
729.45	2354.82
729.636	2576
729.823	2492.04
730.009	2666.11
730.195	2428.55
730.382	2485.89
730.568	2487.94
730.754	2377.35
730.94	2477.7
731.126	2328.2
731.313	2508.42
731.499	2344.58
731.685	2412.17
731.871	2320.01
732.057	2352.77
732.243	2393.73
732.429	2324.1
732.615	2287.24
732.801	2303.62
732.987	2340.49
733.173	2371.21
733.359	2311.82
733.545	2371.21
733.731	2238.09
733.917	2203.27
734.103	2291.34
734.289	2311.82
734.475	2334.34
734.661	2262.66
734.847	2205.32
735.033	2369.16
735.219	2336.39
735.404	2295.43
735.59	2190.99
735.776	2209.42
735.962	2125.45
736.148	2207.37
736.333	2123.4
736.519	2219.66
736.705	2168.46
736.89	2074.25
737.076	2164.36
737.262	2082.44
737.447	2240.14
737.633	1996.43
737.819	2096.78
738.004	2164.36
738.19	2086.54
738.375	1986.19
738.561	2207.37
738.747	2008.72
738.932	1963.66
739.118	2139.79
739.303	2076.3
739.489	2141.83
739.674	2139.79
739.859	2045.58
740.045	2078.35
740.23	1984.14
740.416	1900.17
740.601	1996.43
740.786	1978
740.972	1918.61
741.157	1994.38
741.342	2055.82
741.528	1828.49
741.713	1926.8
741.898	1869.45
742.084	1877.65
742.269	1869.45
742.454	1916.56
742.639	1961.61
742.824	1918.61
743.01	1939.09
743.195	1955.47
743.38	1869.45
743.565	1838.73
743.75	1840.78
743.935	1846.93
744.12	1885.84
744.305	1744.53
744.49	1787.54
744.675	1650.32
744.86	1709.71
745.045	1709.71
745.23	1783.44
745.415	1691.28
745.6	1828.49
745.785	1656.47
745.97	1697.42
746.155	1863.31
746.34	1646.23
746.525	1650.32
746.71	1781.39
746.895	1650.32
747.079	1689.23
747.264	1644.18
747.449	1615.51
747.634	1607.31
747.819	1631.89
748.003	1578.64
748.188	1539.73
748.373	1513.11
748.557	1570.45
748.742	1500.82
748.927	1517.2
749.111	1592.98
749.296	1568.4
749.481	1537.68
749.665	1541.78
749.85	1537.68
750.034	1521.3
750.219	1420.95
750.404	1437.33
750.588	1439.38
750.773	1435.28
750.957	1463.96
751.141	1408.66
751.326	1459.86
751.51	1406.61
751.695	1312.41
751.879	1437.33
752.064	1410.71
752.248	1371.8
752.432	1361.56
752.617	1379.99
752.801	1336.98
752.985	1437.33
753.17	1318.55
753.354	1279.64
753.538	1339.03
753.722	1281.69
753.907	1328.79
754.091	1304.21
754.275	1373.85
754.459	1220.25
754.643	1285.78
754.828	1240.73
755.012	1224.34
755.196	1214.1
755.38	1296.02
755.564	1207.96
755.748	1197.72
755.932	1238.68
756.116	1181.34
756.3	1080.99
756.484	1103.51
756.668	1179.29
756.852	1109.66
757.036	1134.23
757.22	1119.9
757.404	1123.99
757.588	1097.37
757.772	1046.17
757.956	1091.23
758.14	1093.27
758.323	1087.13
758.507	1197.72
758.691	1035.93
758.875	1107.61
759.059	1042.07
759.242	1046.17
759.426	1078.94
759.61	1037.98
759.794	1103.51
759.977	1115.8
760.161	1216.15
760.345	968.35
760.528	1115.8
760.712	1074.84
760.895	1001.12
761.079	1056.41
761.263	1060.51
761.446	992.92
761.63	1009.31
761.813	1013.4
761.997	863.9
762.18	1019.55
762.364	960.16
762.547	970.4
762.731	1070.75
762.914	970.4
763.098	904.86
763.281	927.39
763.464	878.24
763.648	923.29
763.831	927.39
764.015	1017.5
764.198	935.58
764.381	792.22
764.564	935.58
764.748	943.77
764.931	1040.03
765.114	902.81
765.297	1009.31
765.481	798.37
765.664	861.85
765.847	855.71
766.03	990.88
766.213	853.66
766.397	818.85
766.58	814.75
766.763	921.24
766.946	886.43
767.129	812.7
767.312	792.22
767.495	874.14
767.678	915.1
767.861	902.81
768.044	798.37
768.227	880.29
768.41	798.37
768.593	861.85
768.776	779.93
768.959	886.43
769.142	943.77
769.324	827.04
769.507	831.13
769.69	808.61
769.873	863.9
770.056	880.29
770.239	814.75
770.421	872.09
770.604	892.57
770.787	790.17
770.97	714.4
771.152	765.6
771.335	882.33
771.518	747.17
771.7	833.18
771.883	857.76
772.066	837.28
772.248	722.59
772.431	874.14
772.613	788.13
772.796	806.56
772.978	829.09
773.161	779.93
773.343	702.11
773.526	710.3
773.708	747.17
773.891	734.88
774.073	816.8
774.256	765.6
774.438	804.51
774.621	722.59
774.803	763.55
774.985	628.39
775.168	712.35
775.35	683.68
775.532	730.78
775.715	734.88
775.897	675.49
776.079	566.95
776.261	661.15
776.444	652.96
776.626	634.53
776.808	607.91
776.99	681.63
777.173	558.75
777.355	693.92
777.537	673.44
777.719	689.82
777.901	609.95
778.083	609.95
778.265	534.18
778.447	583.33
778.629	650.91
778.811	626.34
778.993	616.1
779.175	700.06
779.357	609.95
779.539	528.03
779.721	646.82
779.903	612
780.085	648.86
780.267	558.75
780.449	519.84
780.631	579.23
780.812	560.8
780.994	534.18
781.176	538.27
781.358	601.76
781.54	519.84
781.721	552.61
781.903	530.08
782.085	544.42
782.267	517.79
782.448	489.12
782.63	497.32
782.812	478.88
782.993	501.41
783.175	511.65
783.357	509.6
783.538	530.08
783.72	501.41
783.901	472.74
784.083	513.7
784.264	476.84
784.446	466.6
784.627	442.02
784.809	468.64
784.99	419.49
785.172	456.36
785.353	437.92
785.535	421.54
785.716	474.79
785.897	386.72
786.079	448.16
786.26	538.27
786.441	552.61
786.623	349.86
786.804	423.59
786.985	433.83
787.167	462.5
787.348	325.29
787.529	464.55
787.71	415.4
787.891	386.72
788.073	296.61
788.254	376.48
788.435	411.3
788.616	450.21
788.797	362.15
788.978	427.68
789.159	399.01
789.34	353.96
789.522	421.54
789.703	325.29
789.884	372.39
790.065	319.14
790.246	439.97
790.427	333.48
790.607	411.3
790.788	372.39
790.969	319.14
791.15	405.16
791.331	341.67
791.512	349.86
791.693	366.25
791.874	378.53
792.054	472.74
792.235	378.53
792.416	288.42
792.597	229.03
792.778	390.82
792.958	290.47
793.139	345.77
793.32	306.85
793.5	317.09
793.681	362.15
793.862	247.46
794.042	335.53
794.223	276.13
794.404	302.76
794.584	388.77
794.765	276.13
794.945	315.05
795.126	304.81
795.306	329.38
795.487	362.15
795.667	272.04
795.848	272.04
796.028	274.09
796.209	267.94
796.389	317.09
796.57	308.9
796.75	288.42
796.93	313
797.111	235.18
797.291	390.82
797.471	255.65
797.652	292.52
797.832	313
798.012	276.13
798.192	251.56
798.373	245.41
798.553	235.18
798.733	274.09
798.913	296.61
799.093	231.08
799.274	329.38
799.454	317.09
799.634	319.14
799.814	337.57
799.994	386.72
800.174	239.27
800.354	210.6
800.534	198.31
800.714	304.81
800.894	239.27
801.074	249.51
801.254	214.7
801.434	259.75
801.614	259.75
801.794	302.76
801.974	870.05
802.154	237.22
802.334	235.18
802.514	282.28
802.693	241.32
802.873	173.74
803.053	241.32
803.233	183.98
803.413	147.11
803.592	165.54
803.772	288.42
803.952	218.79
804.131	200.36
804.311	226.98
804.491	229.03
804.67	257.7
804.85	233.13
805.03	206.5
805.209	214.7
805.389	140.97
805.568	239.27
805.748	173.74
805.928	190.12
806.107	292.52
806.287	255.65
806.466	233.13
806.646	157.35
806.825	155.3
807.004	149.16
807.184	192.17
807.363	247.46
807.543	161.45
807.722	157.35
807.901	206.5
808.081	241.32
808.26	196.26
808.439	224.94
808.619	247.46
808.798	206.5
808.977	177.83
809.156	214.7
809.336	190.12
809.515	136.87
809.694	169.64
809.873	155.3
810.052	179.88
810.231	255.65
810.411	186.02
810.59	186.02
810.769	124.58
810.948	210.6
811.127	151.21
811.306	173.74
811.485	177.83
811.664	161.45
811.843	198.31
812.022	241.32
812.201	149.16
812.38	222.89
812.559	100.01
812.737	175.78
812.916	190.12
813.095	159.4
813.274	175.78
813.453	134.82
813.632	120.49
813.811	255.65
813.989	126.63
814.168	130.73
814.347	124.58
814.526	165.54
814.704	91.82
814.883	200.36
815.062	97.96
815.24	218.79
815.419	95.91
815.598	149.16
815.776	77.48
815.955	165.54
816.133	165.54
816.312	177.83
816.49	110.25
816.669	108.2
816.847	100.01
817.026	153.26
817.204	165.54
817.383	198.31
817.561	114.34
817.74	140.97
817.918	110.25
818.097	145.06
818.275	128.68
818.453	108.2
818.632	190.12
818.81	157.35
818.988	124.58
819.167	159.4
819.345	145.06
819.523	77.48
819.701	116.39
819.879	200.36
820.058	124.58
820.236	157.35
820.414	165.54
820.592	140.97
820.77	143.02
820.948	173.74
821.127	100.01
821.305	102.06
821.483	61.1
821.661	138.92
821.839	149.16
822.017	110.25
822.195	100.01
822.373	163.5
822.551	118.44
822.729	190.12
822.907	114.34
823.085	157.35
823.262	122.54
823.44	106.15
823.618	61.1
823.796	181.93
823.974	75.43
824.152	112.3
824.329	57
824.507	46.76
824.685	100.01
824.863	77.48
825.04	100.01
825.218	91.82
825.396	138.92
825.574	128.68
825.751	87.72
825.929	93.87
826.107	20.14
826.284	59.05
826.462	155.3
826.639	38.57
826.817	108.2
826.994	138.92
827.172	42.67
827.349	124.58
827.527	112.3
827.704	93.87
827.882	159.4
828.059	110.25
828.237	112.3
828.414	102.06
828.591	40.62
828.769	91.82
828.946	85.67
829.124	102.06
829.301	143.02
829.478	59.05
829.655	81.58
829.833	32.43
830.01	42.67
830.187	167.59
830.364	149.16
830.542	106.15
830.719	161.45
830.896	50.86
831.073	42.67
831.25	71.34
831.427	13.99
831.604	175.78
831.782	57
831.959	67.24
832.136	132.78
832.313	130.73
832.49	143.02
832.667	116.39
832.844	26.28
833.021	100.01
833.198	85.67
833.374	30.38
833.551	116.39
833.728	77.48
833.905	153.26
834.082	20.14
834.259	63.15
834.436	83.63
834.612	75.43
834.789	91.82
834.966	132.78
835.143	61.1
835.319	44.71
835.496	59.05
835.673	149.16
835.85	159.4
836.026	67.24
836.203	143.02
836.38	30.38
836.556	100.01
836.733	42.67
836.909	77.48
837.086	59.05
837.262	3.75
837.439	-6.49
837.616	34.47
837.792	75.43
837.968	-14.68
838.145	61.1
838.321	93.87
838.498	102.06
838.674	42.67
838.851	95.91
839.027	44.71
839.203	50.86
839.38	59.05
839.556	-4.44
839.732	108.2
839.909	63.15
840.085	108.2
840.261	44.71
840.437	30.38
840.614	13.99
840.79	120.49
840.966	73.39
841.142	73.39
841.318	91.82
841.494	134.82
841.671	54.95
841.847	30.38
842.023	18.09
842.199	126.63
842.375	52.91
842.551	71.34
842.727	71.34
842.903	110.25
843.079	67.24
843.255	157.35
843.431	-10.58
843.607	120.49
843.783	26.28
843.959	65.19
844.134	38.57
844.31	44.71
844.486	42.67
844.662	71.34
844.838	81.58
845.013	24.23
845.189	34.47
845.365	28.33
845.541	5.8
845.716	24.23
845.892	106.15
846.068	9.9
846.244	102.06
846.419	32.43
846.595	57
846.77	-59.73
846.946	50.86
847.122	69.29
847.297	59.05
847.473	145.06
847.648	7.85
847.824	34.47
847.999	38.57
848.175	54.95
848.35	73.39
848.526	100.01
848.701	114.34
848.876	120.49
849.052	61.1
849.227	9.9
849.403	5.8
849.578	79.53
849.753	67.24
849.929	36.52
850.104	-6.49
850.279	118.44
850.454	11.95
850.63	157.35
850.805	32.43
850.98	26.28
851.155	75.43
851.33	46.76
851.505	-14.68
851.681	138.92
851.856	46.76
852.031	-31.06
852.206	28.33
852.381	3.75
852.556	18.09
852.731	46.76
852.906	93.87
853.081	40.62
853.256	61.1
853.431	46.76
853.606	77.48
853.781	52.91
853.956	-22.87
854.131	83.63
854.305	3.75
854.48	83.63
854.655	7.85
854.83	30.38
855.005	28.33
855.18	42.67
855.354	22.19
855.529	28.33
855.704	38.57
855.879	18.09
856.053	22.19
856.228	26.28
856.403	26.28
856.577	91.82
856.752	11.95
856.926	59.05
857.101	34.47
857.276	40.62
857.45	28.33
857.625	67.24
857.799	42.67
857.974	44.71
858.148	-8.53
858.323	75.43
858.497	-14.68
858.672	95.91
858.846	24.23
859.02	59.05
859.195	-6.49
859.369	13.99
859.543	108.2
859.718	36.52
859.892	1.71
860.066	-4.44
860.241	18.09
860.415	18.09
860.589	52.91
860.763	69.29
860.938	13.99
861.112	5.8
861.286	9.9
861.46	67.24
861.634	36.52
861.808	61.1
861.982	-8.53
862.157	7.85
862.331	69.29
862.505	1.71
862.679	-0.34
862.853	57
863.027	-6.49
863.201	83.63
863.375	42.67
863.549	-61.78
863.722	42.67
863.896	100.01
864.07	-26.96
864.244	-69.97
864.418	65.19
864.592	20.14
864.766	-20.82
864.939	13.99
865.113	11.95
865.287	118.44
865.461	-10.58
865.634	26.28
865.808	-51.54
865.982	36.52
866.156	1.71
866.329	-31.06
866.503	63.15
866.676	79.53
866.85	26.28
867.024	-37.2
867.197	30.38
867.371	1.71
867.544	54.95
867.718	-51.54
867.891	95.91
868.065	34.47
868.238	-45.4
868.412	61.1
868.585	7.85
868.759	40.62
868.932	108.2
869.105	-63.83
869.279	50.86
869.452	-12.63
869.625	44.71
869.799	3.75
869.972	26.28
870.145	46.76
870.319	13.99
870.492	18.09
870.665	36.52
870.838	-10.58
871.011	28.33
871.185	-14.68
871.358	36.52
871.531	42.67
871.704	11.95
871.877	46.76
872.05	13.99
872.223	-10.58
872.396	95.91
872.569	36.52
872.742	-67.92
872.915	38.57
873.088	18.09
873.261	63.15
873.434	-10.58
873.607	-12.63
873.78	44.71
873.953	32.43
874.126	30.38
874.299	69.29
874.471	63.15
874.644	3.75
874.817	11.95
874.99	79.53
875.163	110.25
875.335	32.43
875.508	28.33
875.681	-12.63
875.853	-8.53
876.026	34.47
876.199	9.9
876.371	67.24
876.544	-29.01
876.717	20.14
876.889	24.23
877.062	34.47
877.234	11.95
877.407	20.14
877.579	26.28
877.752	36.52
877.924	48.81
878.097	-6.49
878.269	7.85
878.442	42.67
878.614	-6.49
878.786	30.38
878.959	-35.16
879.131	59.05
879.303	54.95
879.476	20.14
879.648	-10.58
879.82	79.53
879.993	-47.44
880.165	22.19
880.337	-55.64
880.509	42.67
880.681	-4.44
880.854	44.71
881.026	20.14
881.198	95.91
881.37	59.05
881.542	36.52
881.714	-20.82
881.886	1.71
882.058	44.71
882.23	-29.01
882.402	-22.87
882.574	-20.82
882.746	7.85
882.918	20.14
883.09	44.71
883.262	-78.16
883.434	-14.68
883.606	-102.74
883.778	-4.44
883.95	59.05
884.122	9.9
884.293	11.95
884.465	-33.11
884.637	20.14
884.809	30.38
884.98	18.09
885.152	32.43
885.324	116.39
885.496	38.57
885.667	5.8
885.839	-2.39
886.011	50.86
886.182	13.99
886.354	63.15
886.525	-24.92
886.697	44.71
886.869	-12.63
887.04	-4.44
887.212	48.81
887.383	5.8
887.555	5.8
887.726	-6.49
887.897	-22.87
888.069	-0.34
888.24	87.72
888.412	95.91
888.583	59.05
888.754	48.81
888.926	-47.44
889.097	18.09
889.268	-18.77
889.44	59.05
889.611	-61.78
889.782	7.85
889.953	-4.44
890.125	38.57
890.296	22.19
890.467	1.71
890.638	11.95
890.809	13.99
890.98	-82.26
891.151	-37.2
891.323	75.43
891.494	52.91
891.665	-10.58
891.836	9.9
892.007	36.52
892.178	-29.01
892.349	16.04
892.52	71.34
892.691	-10.58
892.862	44.71
893.032	-20.82
893.203	-22.87
893.374	28.33
893.545	75.43
893.716	-14.68
893.887	50.86
894.057	20.14
894.228	-4.44
894.399	61.1
894.57	59.05
894.74	-10.58
894.911	-2.39
895.082	1.71
895.253	-22.87
895.423	-33.11
895.594	18.09
895.764	-14.68
895.935	28.33
896.106	67.24
896.276	65.19
896.447	42.67
896.617	28.33
896.788	26.28
896.958	1.71
897.129	-18.77
897.299	-0.34
897.47	42.67
897.64	44.71
897.81	-53.59
897.981	26.28
898.151	36.52
898.322	-14.68
898.492	34.47
898.662	26.28
898.832	11.95
899.003	13.99
899.173	52.91
899.343	-6.49
899.513	42.67
