Data from USB4F104151__1__14-28-18-293.txt Node

Date: Thu Mar 13 14:28:18 EDT 2025
User: louis
Spectrometer: USB4F10415
Trigger mode: 4
Integration Time (sec): 2.500000E-2
Scans to average: 1
Electric dark correction enabled: true
Nonlinearity correction enabled: false
Boxcar width: 0
XAxis mode: Wavelengths
Number of Pixels in Spectrum: 3648
>>>>>Begin Spectral Data<<<<<
178.204	-166.91
178.424	-166.91
178.644	-166.91
178.864	-80.89
179.084	-154.62
179.304	-35.84
179.524	-5.12
179.744	29.7
179.964	58.37
180.184	41.98
180.404	-19.46
180.624	-44.03
180.844	23.55
181.064	-41.98
181.283	-7.17
181.503	-54.27
181.723	54.27
181.943	-23.55
182.163	46.08
182.383	-58.37
182.602	101.37
182.822	39.94
183.042	78.85
183.262	58.37
183.482	46.08
183.701	23.55
183.921	25.6
184.141	9.22
184.361	99.33
184.58	-9.22
184.8	109.57
185.02	33.79
185.239	117.76
185.459	37.89
185.679	89.09
185.898	-54.27
186.118	15.36
186.338	5.12
186.557	111.61
186.777	-33.79
186.997	23.55
187.216	48.13
187.436	37.89
187.655	93.18
187.875	-3.07
188.095	-41.98
188.314	70.65
188.534	21.5
188.753	44.03
188.973	21.5
189.192	82.94
189.412	39.94
189.631	78.85
189.851	58.37
190.07	117.76
190.29	50.18
190.509	21.5
190.729	27.65
190.948	164.86
191.168	185.34
191.387	154.62
191.607	-39.94
191.826	78.85
192.045	37.89
192.265	21.5
192.484	58.37
192.704	19.46
192.923	48.13
193.142	97.28
193.362	50.18
193.581	107.52
193.8	87.04
194.02	121.85
194.239	74.75
194.458	48.13
194.678	142.33
194.897	70.65
195.116	-11.26
195.335	-17.41
195.555	23.55
195.774	103.42
195.993	84.99
196.212	37.89
196.432	78.85
196.651	35.84
196.87	7.17
197.089	119.81
197.308	5.12
197.528	13.31
197.747	17.41
197.966	54.27
198.185	125.95
198.404	-27.65
198.623	84.99
198.842	87.04
199.062	64.51
199.281	95.23
199.5	23.55
199.719	48.13
199.938	105.47
200.157	52.22
200.376	46.08
200.595	107.52
200.814	84.99
201.033	21.5
201.252	50.18
201.471	-11.26
201.69	142.33
201.909	15.36
202.128	25.6
202.347	48.13
202.566	17.41
202.785	21.5
203.004	11.26
203.223	105.47
203.442	54.27
203.661	68.61
203.879	-27.65
204.098	54.27
204.317	87.04
204.536	113.66
204.755	33.79
204.974	37.89
205.193	50.18
205.411	130.05
205.63	62.46
205.849	130.05
206.068	74.75
206.287	21.5
206.505	70.65
206.724	15.36
206.943	-9.22
207.162	31.74
207.381	-5.12
207.599	37.89
207.818	15.36
208.037	52.22
208.255	33.79
208.474	48.13
208.693	191.49
208.911	37.89
209.13	21.5
209.349	39.94
209.567	64.51
209.786	113.66
210.005	72.7
210.223	54.27
210.442	-7.17
210.661	58.37
210.879	50.18
211.098	17.41
211.316	62.46
211.535	89.09
211.753	1.02
211.972	113.66
212.191	39.94
212.409	56.32
212.628	78.85
212.846	11.26
213.065	78.85
213.283	41.98
213.502	1.02
213.72	101.37
213.938	87.04
214.157	15.36
214.375	97.28
214.594	29.7
214.812	50.18
215.031	25.6
215.249	33.79
215.467	99.33
215.686	41.98
215.904	80.89
216.122	48.13
216.341	103.42
216.559	58.37
216.778	62.46
216.996	132.09
217.214	101.37
217.432	29.7
217.651	5.12
217.869	62.46
218.087	168.96
218.306	48.13
218.524	146.43
218.742	54.27
218.96	46.08
219.179	25.6
219.397	138.24
219.615	89.09
219.833	62.46
220.051	7.17
220.27	119.81
220.488	64.51
220.706	95.23
220.924	46.08
221.142	9.22
221.36	70.65
221.578	15.36
221.796	70.65
222.015	-33.79
222.233	9.22
222.451	91.13
222.669	13.31
222.887	91.13
223.105	50.18
223.323	121.85
223.541	111.61
223.759	87.04
223.977	25.6
224.195	111.61
224.413	91.13
224.631	35.84
224.849	31.74
225.067	183.29
225.285	58.37
225.503	50.18
225.721	-31.74
225.939	50.18
226.157	39.94
226.375	119.81
226.592	-84.99
226.81	87.04
227.028	152.57
227.246	97.28
227.464	95.23
227.682	99.33
227.9	37.89
228.117	1.02
228.335	89.09
228.553	13.31
228.771	50.18
228.989	48.13
229.206	148.48
229.424	87.04
229.642	66.56
229.86	48.13
230.077	111.61
230.295	56.32
230.513	64.51
230.731	82.94
230.948	76.8
231.166	93.18
231.384	78.85
231.601	9.22
231.819	107.52
232.037	17.41
232.254	-1.02
232.472	56.32
232.689	33.79
232.907	111.61
233.125	31.74
233.342	29.7
233.56	-54.27
233.777	48.13
233.995	109.57
234.213	121.85
234.43	107.52
234.648	5.12
234.865	95.23
235.083	31.74
235.3	48.13
235.518	66.56
235.735	103.42
235.953	111.61
236.17	19.46
236.388	13.31
236.605	37.89
236.822	89.09
237.04	33.79
237.257	23.55
237.475	-44.03
237.692	37.89
237.909	87.04
238.127	91.13
238.344	119.81
238.562	156.67
238.779	48.13
238.996	44.03
239.214	41.98
239.431	70.65
239.648	23.55
239.865	37.89
240.083	58.37
240.3	27.65
240.517	-11.26
240.735	41.98
240.952	105.47
241.169	111.61
241.386	64.51
241.603	41.98
241.821	46.08
242.038	115.71
242.255	39.94
242.472	11.26
242.689	82.94
242.907	93.18
243.124	-3.07
243.341	37.89
243.558	56.32
243.775	-5.12
243.992	9.22
244.209	78.85
244.426	189.44
244.643	33.79
244.86	128
245.078	72.7
245.295	87.04
245.512	35.84
245.729	93.18
245.946	29.7
246.163	103.42
246.38	33.79
246.597	68.61
246.814	46.08
247.031	105.47
247.248	132.09
247.464	87.04
247.681	46.08
247.898	21.5
248.115	105.47
248.332	-60.42
248.549	136.19
248.766	128
248.983	95.23
249.2	54.27
249.417	39.94
249.633	37.89
249.85	78.85
250.067	-1.02
250.284	58.37
250.501	72.7
250.717	119.81
250.934	74.75
251.151	62.46
251.368	5.12
251.585	78.85
251.801	15.36
252.018	1.02
252.235	29.7
252.451	-19.46
252.668	74.75
252.885	164.86
253.102	48.13
253.318	29.7
253.535	35.84
253.752	1.02
253.968	33.79
254.185	25.6
254.401	31.74
254.618	97.28
254.835	-25.6
255.051	37.89
255.268	25.6
255.484	105.47
255.701	37.89
255.917	62.46
256.134	31.74
256.351	54.27
256.567	62.46
256.784	64.51
257	82.94
257.217	93.18
257.433	74.75
257.65	5.12
257.866	80.89
258.082	41.98
258.299	29.7
258.515	146.43
258.732	54.27
258.948	58.37
259.165	91.13
259.381	56.32
259.597	41.98
259.814	46.08
260.03	29.7
260.246	5.12
260.463	60.42
260.679	21.5
260.895	111.61
261.112	160.77
261.328	50.18
261.544	82.94
261.761	70.65
261.977	-11.26
262.193	-5.12
262.409	99.33
262.626	54.27
262.842	-3.07
263.058	95.23
263.274	46.08
263.49	58.37
263.707	29.7
263.923	107.52
264.139	13.31
264.355	74.75
264.571	62.46
264.787	52.22
265.004	101.37
265.22	78.85
265.436	62.46
265.652	44.03
265.868	23.55
266.084	46.08
266.3	84.99
266.516	33.79
266.732	89.09
266.948	1.02
267.164	19.46
267.38	-35.84
267.596	56.32
267.812	160.77
268.028	82.94
268.244	54.27
268.46	13.31
268.676	39.94
268.892	62.46
269.108	72.7
269.324	95.23
269.54	62.46
269.756	148.48
269.972	66.56
270.188	7.17
270.403	3.07
270.619	74.75
270.835	15.36
271.051	111.61
271.267	50.18
271.483	101.37
271.698	74.75
271.914	-1.02
272.13	101.37
272.346	41.98
272.562	31.74
272.777	80.89
272.993	70.65
273.209	52.22
273.425	54.27
273.64	-9.22
273.856	128
274.072	99.33
274.287	7.17
274.503	140.29
274.719	46.08
274.934	58.37
275.15	3.07
275.366	80.89
275.581	95.23
275.797	103.42
276.012	52.22
276.228	33.79
276.444	19.46
276.659	103.42
276.875	-50.18
277.09	62.46
277.306	31.74
277.521	70.65
277.737	89.09
277.952	80.89
278.168	103.42
278.383	19.46
278.599	-27.65
278.814	78.85
279.03	9.22
279.245	95.23
279.461	13.31
279.676	76.8
279.892	56.32
280.107	39.94
280.322	3.07
280.538	17.41
280.753	64.51
280.969	66.56
281.184	19.46
281.399	113.66
281.615	70.65
281.83	46.08
282.045	17.41
282.26	46.08
282.476	41.98
282.691	41.98
282.906	66.56
283.122	103.42
283.337	111.61
283.552	103.42
283.767	-17.41
283.983	-3.07
284.198	9.22
284.413	74.75
284.628	-58.37
284.843	37.89
285.058	103.42
285.274	95.23
285.489	13.31
285.704	105.47
285.919	29.7
286.134	111.61
286.349	101.37
286.564	78.85
286.779	119.81
286.995	54.27
287.21	44.03
287.425	46.08
287.64	60.42
287.855	187.39
288.07	-82.94
288.285	115.71
288.5	140.29
288.715	113.66
288.93	17.41
289.145	21.5
289.36	128
289.575	46.08
289.79	44.03
290.004	121.85
290.219	95.23
290.434	54.27
290.649	74.75
290.864	99.33
291.079	68.61
291.294	46.08
291.509	93.18
291.724	91.13
291.938	70.65
292.153	46.08
292.368	82.94
292.583	7.17
292.798	-15.36
293.012	87.04
293.227	52.22
293.442	74.75
293.657	54.27
293.871	56.32
294.086	29.7
294.301	89.09
294.516	95.23
294.73	128
294.945	7.17
295.16	50.18
295.374	35.84
295.589	82.94
295.804	46.08
296.018	48.13
296.233	113.66
296.447	95.23
296.662	-1.02
296.877	48.13
297.091	29.7
297.306	21.5
297.52	37.89
297.735	76.8
297.949	62.46
298.164	54.27
298.378	62.46
298.593	5.12
298.807	15.36
299.022	11.26
299.236	70.65
299.451	-52.22
299.665	50.18
299.88	72.7
300.094	15.36
300.309	31.74
300.523	66.56
300.737	31.74
300.952	138.24
301.166	21.5
301.381	11.26
301.595	103.42
301.809	-31.74
302.024	-50.18
302.238	13.31
302.452	99.33
302.667	21.5
302.881	160.77
303.095	70.65
303.309	46.08
303.524	54.27
303.738	80.89
303.952	7.17
304.166	91.13
304.381	37.89
304.595	101.37
304.809	13.31
305.023	3.07
305.237	11.26
305.452	58.37
305.666	64.51
305.88	164.86
306.094	62.46
306.308	91.13
306.522	148.48
306.736	37.89
306.95	31.74
307.164	-13.31
307.379	-11.26
307.593	54.27
307.807	62.46
308.021	93.18
308.235	121.85
308.449	-23.55
308.663	39.94
308.877	74.75
309.091	39.94
309.305	82.94
309.519	62.46
309.733	160.77
309.947	37.89
310.161	121.85
310.374	54.27
310.588	154.62
310.802	56.32
311.016	103.42
311.23	48.13
311.444	21.5
311.658	54.27
311.872	142.33
312.085	58.37
312.299	21.5
312.513	48.13
312.727	50.18
312.941	39.94
313.154	128
313.368	84.99
313.582	144.38
313.796	39.94
314.009	46.08
314.223	103.42
314.437	154.62
314.651	76.8
314.864	13.31
315.078	62.46
315.292	70.65
315.505	46.08
315.719	54.27
315.933	138.24
316.146	48.13
316.36	31.74
316.573	35.84
316.787	35.84
317.001	99.33
317.214	62.46
317.428	54.27
317.641	29.7
317.855	21.5
318.068	-7.17
318.282	66.56
318.495	29.7
318.709	95.23
318.922	70.65
319.136	113.66
319.349	136.19
319.563	82.94
319.776	72.7
319.99	72.7
320.203	123.9
320.417	99.33
320.63	111.61
320.843	136.19
321.057	134.14
321.27	60.42
321.483	76.8
321.697	97.28
321.91	54.27
322.124	15.36
322.337	48.13
322.55	1.02
322.763	70.65
322.977	33.79
323.19	72.7
323.403	29.7
323.617	72.7
323.83	89.09
324.043	-3.07
324.256	33.79
324.469	68.61
324.683	31.74
324.896	109.57
325.109	70.65
325.322	66.56
325.535	140.29
325.748	62.46
325.962	29.7
326.175	82.94
326.388	111.61
326.601	23.55
326.814	31.74
327.027	105.47
327.24	82.94
327.453	-1.02
327.666	144.38
327.879	87.04
328.092	50.18
328.305	41.98
328.518	91.13
328.731	5.12
328.944	-19.46
329.157	39.94
329.37	72.7
329.583	70.65
329.796	136.19
330.009	-58.37
330.222	39.94
330.435	68.61
330.648	80.89
330.861	27.65
331.073	-44.03
331.286	80.89
331.499	58.37
331.712	-19.46
331.925	37.89
332.138	66.56
332.35	105.47
332.563	15.36
332.776	152.57
332.989	58.37
333.202	64.51
333.414	-3.07
333.627	128
333.84	80.89
334.053	113.66
334.265	-7.17
334.478	115.71
334.691	70.65
334.903	33.79
335.116	72.7
335.329	97.28
335.541	119.81
335.754	140.29
335.966	25.6
336.179	78.85
336.392	105.47
336.604	62.46
336.817	95.23
337.029	56.32
337.242	54.27
337.454	121.85
337.667	58.37
337.88	82.94
338.092	21.5
338.305	48.13
338.517	48.13
338.729	99.33
338.942	37.89
339.154	148.48
339.367	103.42
339.579	44.03
339.792	48.13
340.004	46.08
340.217	15.36
340.429	80.89
340.641	89.09
340.854	123.9
341.066	84.99
341.278	66.56
341.491	128
341.703	138.24
341.915	17.41
342.128	99.33
342.34	31.74
342.552	68.61
342.764	97.28
342.977	54.27
343.189	93.18
343.401	72.7
343.613	78.85
343.826	82.94
344.038	37.89
344.25	-3.07
344.462	76.8
344.674	80.89
344.886	46.08
345.099	95.23
345.311	123.9
345.523	46.08
345.735	74.75
345.947	78.85
346.159	23.55
346.371	62.46
346.583	-11.26
346.795	78.85
347.007	62.46
347.219	87.04
347.431	7.17
347.643	39.94
347.855	29.7
348.067	95.23
348.279	95.23
348.491	62.46
348.703	99.33
348.915	7.17
349.127	-7.17
349.339	37.89
349.551	33.79
349.763	70.65
349.975	62.46
350.187	103.42
350.399	74.75
350.61	140.29
350.822	87.04
351.034	21.5
351.246	-1.02
351.458	66.56
351.669	15.36
351.881	56.32
352.093	89.09
352.305	56.32
352.517	95.23
352.728	123.9
352.94	78.85
353.152	70.65
353.363	5.12
353.575	64.51
353.787	87.04
353.999	128
354.21	138.24
354.422	62.46
354.633	93.18
354.845	64.51
355.057	168.96
355.268	13.31
355.48	-15.36
355.692	103.42
355.903	9.22
356.115	21.5
356.326	19.46
356.538	121.85
356.749	9.22
356.961	142.33
357.172	58.37
357.384	37.89
357.595	105.47
357.807	46.08
358.018	15.36
358.23	41.98
358.441	111.61
358.653	115.71
358.864	41.98
359.075	109.57
359.287	-9.22
359.498	99.33
359.709	58.37
359.921	56.32
360.132	82.94
360.344	87.04
360.555	-5.12
360.766	119.81
360.977	97.28
361.189	197.63
361.4	52.22
361.611	103.42
361.823	95.23
362.034	50.18
362.245	-23.55
362.456	128
362.667	13.31
362.879	74.75
363.09	121.85
363.301	134.14
363.512	68.61
363.723	46.08
363.935	-66.56
364.146	119.81
364.357	91.13
364.568	101.37
364.779	-19.46
364.99	164.86
365.201	33.79
365.412	89.09
365.623	99.33
365.834	5.12
366.045	23.55
366.256	89.09
366.467	91.13
366.678	111.61
366.889	91.13
367.1	48.13
367.311	56.32
367.522	54.27
367.733	93.18
367.944	76.8
368.155	54.27
368.366	97.28
368.577	87.04
368.788	33.79
368.999	87.04
369.209	37.89
369.42	101.37
369.631	177.15
369.842	37.89
370.053	115.71
370.264	119.81
370.474	37.89
370.685	58.37
370.896	119.81
371.107	78.85
371.317	78.85
371.528	-3.07
371.739	164.86
371.95	128
372.16	218.11
372.371	52.22
372.582	111.61
372.792	87.04
373.003	72.7
373.214	111.61
373.424	140.29
373.635	29.7
373.846	136.19
374.056	35.84
374.267	128
374.477	87.04
374.688	62.46
374.898	44.03
375.109	5.12
375.319	97.28
375.53	117.76
375.74	99.33
375.951	119.81
376.161	150.53
376.372	111.61
376.582	97.28
376.793	33.79
377.003	64.51
377.214	95.23
377.424	97.28
377.635	70.65
377.845	46.08
378.055	70.65
378.266	21.5
378.476	15.36
378.686	72.7
378.897	132.09
379.107	87.04
379.317	142.33
379.528	56.32
379.738	89.09
379.948	64.51
380.158	97.28
380.369	103.42
380.579	95.23
380.789	87.04
380.999	152.57
381.21	89.09
381.42	185.34
381.63	56.32
381.84	54.27
382.05	50.18
382.261	89.09
382.471	29.7
382.681	80.89
382.891	39.94
383.101	44.03
383.311	72.7
383.521	29.7
383.731	68.61
383.941	89.09
384.151	119.81
384.361	87.04
384.571	21.5
384.781	60.42
384.991	142.33
385.201	136.19
385.411	78.85
385.621	54.27
385.831	93.18
386.041	115.71
386.251	89.09
386.461	72.7
386.671	23.55
386.881	60.42
387.091	107.52
387.301	89.09
387.511	128
387.72	87.04
387.93	78.85
388.14	82.94
388.35	9.22
388.56	160.77
388.769	48.13
388.979	54.27
389.189	-1.02
389.399	113.66
389.609	37.89
389.818	156.67
390.028	7.17
390.238	136.19
390.447	44.03
390.657	99.33
390.867	121.85
391.076	-15.36
391.286	62.46
391.496	80.89
391.705	95.23
391.915	119.81
392.125	56.32
392.334	56.32
392.544	119.81
392.753	91.13
392.963	54.27
393.172	95.23
393.382	54.27
393.591	168.96
393.801	78.85
394.01	207.87
394.22	179.2
394.429	29.7
394.639	46.08
394.848	132.09
395.058	105.47
395.267	87.04
395.477	52.22
395.686	177.15
395.895	66.56
396.105	179.2
396.314	138.24
396.524	82.94
396.733	171.01
396.942	234.49
397.152	150.53
397.361	181.25
397.57	160.77
397.78	115.71
397.989	115.71
398.198	193.53
398.407	138.24
398.617	128
398.826	144.38
399.035	201.72
399.244	140.29
399.453	121.85
399.663	117.76
399.872	168.96
400.081	185.34
400.29	209.92
400.499	128
400.708	138.24
400.917	181.25
401.127	166.91
401.336	179.2
401.545	308.22
401.754	164.86
401.963	234.49
402.172	140.29
402.381	128
402.59	50.18
402.799	185.34
403.008	209.92
403.217	146.43
403.426	230.4
403.635	177.15
403.844	201.72
404.053	166.91
404.262	218.11
404.471	252.92
404.68	220.16
404.888	123.9
405.097	228.35
405.306	195.58
405.515	234.49
405.724	162.81
405.933	226.3
406.142	281.6
406.35	351.23
406.559	254.97
406.768	252.92
406.977	209.92
407.185	148.48
407.394	285.69
407.603	259.07
407.812	304.12
408.02	326.65
408.229	336.89
408.438	259.07
408.646	300.03
408.855	279.55
409.064	377.85
409.272	355.32
409.481	357.37
409.69	302.08
409.898	336.89
410.107	431.1
410.315	406.52
410.524	388.09
410.733	447.48
410.941	365.56
411.15	523.26
411.358	467.96
411.567	580.6
411.775	537.59
411.984	502.78
412.192	537.59
412.401	527.35
412.609	619.51
412.818	672.76
413.026	607.22
413.234	701.43
413.443	668.66
413.651	660.47
413.86	635.89
414.068	779.25
414.276	803.83
414.485	828.4
414.693	797.68
414.901	791.54
415.11	832.5
415.318	857.07
415.526	840.69
415.734	990.19
415.943	971.76
416.151	1000.43
416.359	1047.54
416.567	1092.59
416.776	1166.32
416.984	1225.71
417.192	1225.71
417.4	1143.79
417.608	1231.85
417.817	1250.28
418.025	1287.15
418.233	1459.18
418.441	1512.42
418.649	1473.51
418.857	1522.66
419.065	1545.19
419.273	1561.58
419.481	1590.25
419.689	1790.95
419.897	1897.44
420.105	1891.3
420.313	1915.87
420.521	1938.4
420.729	2053.09
420.937	2028.51
421.145	2225.12
421.353	2325.47
421.561	2397.15
421.769	2374.62
421.977	2501.59
422.185	2536.41
422.393	2669.53
422.601	2782.17
422.809	2843.6
423.017	2788.31
423.224	2960.34
423.432	2989.01
423.64	3146.7
423.848	3351.5
424.056	3214.29
424.263	3447.76
424.471	3478.47
424.679	3724.23
424.887	3666.89
425.094	3920.84
425.302	3863.49
425.51	4021.19
425.718	4193.22
425.925	4268.99
426.133	4373.44
426.341	4543.42
426.548	4867
426.756	4838.33
426.964	4838.33
427.171	5157.81
427.379	5288.88
427.586	5481.39
427.794	5444.52
428.001	5757.86
428.209	6167.46
428.417	5899.17
428.624	6329.25
428.832	6368.16
429.039	6353.82
429.247	6257.57
429.454	6857.62
429.662	7336.85
429.869	6874.01
430.076	7580.56
430.284	7144.34
430.491	7486.35
430.699	7738.25
430.906	7969.67
431.114	8199.04
431.321	8254.34
431.528	8491.9
431.736	9028.47
431.943	9284.47
432.15	9212.79
432.358	9306.99
432.565	9720.68
432.772	9771.88
432.979	10068.84
433.187	10302.31
433.394	10326.88
433.601	11137.88
433.808	11033.43
434.016	10971.99
434.223	11273.04
434.43	12010.31
434.637	11932.49
434.844	12616.51
435.052	12860.22
435.259	12647.23
435.466	12985.15
435.673	12892.99
435.88	13777.71
436.087	14283.56
436.294	14465.83
436.501	14175.02
436.708	14281.51
436.915	14873.37
437.122	15323.93
437.329	15420.18
437.537	15745.81
437.743	16061.19
437.95	16003.85
438.157	16646.91
438.364	17210.11
438.571	17468.15
438.778	17507.06
438.985	18793.19
439.192	18285.29
439.399	18944.73
439.606	18402.02
439.813	19358.42
440.02	20832.96
440.227	20554.44
440.433	20046.54
440.64	20755.14
440.847	20697.8
441.054	21275.32
441.261	22383.27
441.467	22110.89
441.674	22612.65
441.881	23571.1
442.088	23311
442.294	23040.67
442.501	23749.27
442.708	24062.61
442.914	25188.99
443.121	25922.16
443.328	25625.21
443.534	27429.47
443.741	26608.23
443.948	26010.23
444.154	28076.63
444.361	27798.1
444.568	28234.32
444.774	27943.51
444.981	28619.34
445.187	29231.68
445.394	30315.06
445.6	29987.38
445.807	32854.54
446.013	31314.47
446.22	31865.37
446.426	33083.91
446.633	33702.4
446.839	34673.13
447.046	33337.86
447.252	34998.76
447.459	35187.18
447.665	34796.01
447.871	36602.32
448.078	37792.19
448.284	36395.48
448.491	37257.67
448.697	38644.15
448.903	39403.94
449.11	39932.32
449.316	38506.93
449.522	39702.95
449.728	40362.39
449.935	40610.2
450.141	40511.89
450.347	41740.68
450.553	40622.48
450.76	40874.38
450.966	42508.66
451.172	41937.28
451.378	42879.35
451.584	41892.22
451.791	43276.65
451.997	42910.07
452.203	43897.19
452.409	43723.11
452.615	43276.65
452.821	41775.49
453.027	41353.61
453.233	43444.59
453.44	41900.42
453.646	42457.46
453.852	42543.48
454.058	42916.21
454.264	41804.16
454.47	43030.9
454.676	41286.03
454.882	42989.94
455.088	39315.88
455.294	40188.31
455.5	40567.19
455.705	41068.94
455.911	39240.11
456.117	38304.18
456.323	38212.02
456.529	36071.9
456.735	37755.33
456.941	36819.41
457.147	36313.56
457.352	35113.45
457.558	34851.31
457.764	34572.78
457.97	33899
458.176	33356.29
458.381	33569.28
458.587	31789.59
458.793	31603.23
458.999	30276.15
459.204	32494.1
459.41	30794.28
459.616	29626.94
459.821	29420.1
460.027	29241.92
460.233	28656.2
460.438	27026.02
460.644	27220.58
460.85	26303.09
461.055	25932.4
461.261	25512.57
461.466	23925.39
461.672	23276.19
461.878	24660.62
462.083	23523.99
462.289	22952.61
462.494	22446.76
462.7	21365.43
462.905	21037.76
463.111	21631.67
463.316	21299.9
463.522	21285.56
463.727	20916.93
463.932	21127.87
464.138	20886.21
464.343	21033.66
464.549	20419.27
464.754	21072.57
464.959	20746.95
465.165	20732.61
465.37	19874.51
465.575	19368.66
465.781	19929.81
465.986	20232.91
466.191	19202.78
466.397	19157.72
466.602	17879.79
466.807	18563.81
467.012	18731.75
467.218	18316.01
467.423	18264.81
467.628	18232.04
467.833	19337.94
468.038	18363.11
468.244	18019.05
468.449	18768.61
468.654	18068.2
468.859	17861.36
469.064	17775.34
469.269	17339.13
469.474	17259.26
469.679	17298.17
469.885	17001.21
470.09	17285.88
470.295	17175.29
470.5	16601.86
470.705	16904.96
470.91	16755.46
471.115	16352.01
471.32	16939.77
471.525	16417.54
471.73	16053
471.935	15797.01
472.139	15608.59
472.344	15758.1
472.549	15282.97
472.754	15469.33
472.959	15053.59
473.164	14791.45
473.369	14605.09
473.574	15244.06
473.778	15043.35
473.983	14869.28
474.188	14529.31
474.393	14009.13
474.598	14037.8
474.802	14152.49
475.007	13964.07
475.212	14156.58
475.417	13296.44
475.621	13112.12
475.826	13482.8
476.031	13220.66
476.235	12761.92
476.44	13194.04
476.645	12747.58
476.849	12759.87
477.054	12600.13
477.259	12696.38
477.463	12532.54
477.668	11993.93
477.872	12526.4
478.077	12147.53
478.282	11768.65
478.486	11787.08
478.691	11713.36
478.895	11826
479.1	11610.96
479.304	11670.35
479.509	11330.39
479.713	11410.26
479.918	11215.7
480.122	10877.79
480.326	11248.47
480.531	11176.79
480.735	11094.87
480.94	10820.44
481.144	11432.79
481.348	10756.96
481.553	10804.06
481.757	10697.56
481.961	10918.75
482.166	10949.46
482.37	10898.27
482.574	10664.8
482.778	10613.6
482.983	10769.24
483.187	10830.68
483.391	10859.35
483.595	10687.32
483.8	10382.18
484.004	10744.67
484.208	10566.49
484.412	10777.44
484.616	10838.87
484.821	10648.41
485.025	10589.02
485.229	10629.98
485.433	10605.41
485.637	10695.52
485.841	10492.77
486.045	10457.95
486.249	10752.86
486.453	10582.88
486.657	10484.58
486.861	10550.11
487.065	10371.94
487.269	10328.93
487.473	10541.92
487.677	10576.73
487.881	10609.5
488.085	10376.03
488.289	10689.37
488.493	10773.34
488.697	10771.29
488.901	10685.28
489.105	10523.49
489.309	10713.95
489.512	10718.04
489.716	10842.97
489.92	10683.23
490.124	10457.95
490.328	10851.16
490.531	10664.8
490.735	10845.02
490.939	10703.71
491.143	10707.8
491.346	10732.38
491.55	10926.94
491.754	10769.24
491.958	10941.27
492.161	10724.19
492.365	10859.35
492.569	10910.55
492.772	11064.15
492.976	10896.22
493.18	11141.97
493.383	11049.82
493.587	11359.06
493.79	11350.87
493.994	11273.04
494.197	11354.96
494.401	11223.89
494.605	11373.39
494.808	11721.55
495.012	11903.82
495.215	11748.17
495.419	11914.06
495.622	11623.25
495.825	11916.11
496.029	11969.35
496.232	12049.22
496.436	12137.29
496.639	12573.5
496.843	12020.55
497.046	12657.47
497.249	12677.95
497.453	12731.2
497.656	12976.95
497.859	12694.33
498.063	12970.81
498.266	13312.82
498.469	13245.24
498.673	13280.05
498.876	13505.33
499.079	13597.49
499.282	13683.5
499.485	14064.43
499.689	13931.31
499.892	14097.19
500.095	14258.98
500.298	14410.53
500.501	14484.26
500.705	14699.3
500.908	15000.35
501.111	15160.09
501.314	15381.27
501.517	15360.79
501.72	15448.85
501.923	15477.52
502.126	15706.9
502.329	16061.19
502.532	15999.76
502.735	16284.42
502.938	16511.75
503.141	16411.4
503.344	16796.42
503.547	16880.38
503.75	17087.23
503.953	17451.77
504.156	17599.22
504.359	17599.22
504.562	17486.58
504.765	18068.2
504.968	18281.19
505.17	18717.41
505.373	18354.92
505.576	18526.95
505.779	18946.78
505.982	18973.41
506.185	19483.35
506.387	19380.95
506.59	19477.21
506.793	19874.51
506.996	19995.34
507.198	20441.8
507.401	20157.13
507.604	20392.65
507.807	20574.92
508.009	20853.44
508.212	20789.95
508.415	21396.15
508.617	21482.17
508.82	21686.97
509.022	21799.6
509.225	22313.64
509.428	22330.03
509.63	22545.06
509.833	22649.51
510.035	23093.92
510.238	22842.02
510.44	23513.75
510.643	23399.07
510.845	24042.13
511.048	23794.32
511.25	24421
511.453	24183.44
511.655	25250.43
511.858	24812.17
512.06	24894.08
512.262	25287.29
512.465	25252.48
512.667	25873.01
512.87	25975.41
513.072	25963.12
513.274	26413.68
513.477	26739.3
513.679	27116.13
513.881	27347.55
514.084	27406.94
514.286	27499.1
514.488	27452
514.69	28103.25
514.893	28338.77
515.095	28691.02
515.297	28697.16
515.499	28867.14
515.701	29121.09
515.904	29475.39
516.106	29579.84
516.308	29889.08
516.51	30364.21
516.712	30177.84
516.914	30802.47
517.116	30980.65
517.318	31066.66
517.52	30999.08
517.722	31296.03
517.925	31783.45
518.127	32121.37
518.329	32272.92
518.531	32002.58
518.733	32629.26
518.935	32975.37
519.136	32670.22
519.338	33313.28
519.54	33769.98
519.742	33630.72
519.944	33600
520.146	34398.71
520.348	34353.65
520.55	34648.56
520.752	34785.77
520.954	35178.98
521.155	34824.68
521.357	35652.06
521.559	35707.36
521.761	36256.21
521.963	35934.68
522.164	35615.2
522.366	36194.78
522.568	36268.5
522.77	36375
522.971	37102.03
523.173	36686.29
523.375	37544.39
523.576	37061.07
523.778	36960.72
523.98	37605.83
524.181	37902.78
524.383	37859.77
524.584	37867.97
524.786	37751.23
524.988	37652.93
525.189	38445.49
525.391	38422.97
525.592	38640.05
525.794	38519.22
525.995	38498.74
526.197	38568.37
526.398	38601.14
526.6	38971.82
526.801	39135.66
527.003	39006.64
527.204	39057.84
527.406	39401.89
527.607	38934.96
527.808	39496.1
528.01	38721.97
528.211	39258.54
528.412	40069.53
528.614	39350.7
528.815	39444.9
529.016	39983.52
529.218	39494.05
529.419	39573.92
529.62	39477.67
529.822	39649.7
530.023	39580.07
530.224	39659.94
530.425	39797.15
530.626	39193
530.828	39311.78
531.029	39688.61
531.23	39352.74
531.431	39596.45
531.632	39348.65
531.833	39559.59
532.035	39469.48
532.236	39328.17
532.437	39393.7
532.638	39358.89
532.839	39860.64
533.04	39612.84
533.241	39020.97
533.442	39575.97
533.643	39543.2
533.844	39422.37
534.045	39326.12
534.246	38715.83
534.447	39649.7
534.648	38832.56
534.849	38873.52
535.05	38793.65
535.251	38955.44
535.451	39227.82
535.652	39246.25
535.853	39139.75
536.054	39365.03
536.255	38916.53
536.456	38855.09
536.657	39258.54
536.857	38660.53
537.058	38486.45
537.259	39299.5
537.46	38527.41
537.66	38218.17
537.861	38879.66
538.062	38730.16
538.263	39051.69
538.463	38525.36
538.664	38201.79
538.865	38547.89
539.065	38545.84
539.266	38384.05
539.466	38750.64
539.667	37982.65
539.868	38902.19
540.068	38670.77
540.269	38273.46
540.469	38234.55
540.67	38076.86
540.87	38259.13
541.071	38304.18
541.271	38449.59
541.472	38207.93
541.672	38052.28
541.873	38066.62
542.073	37515.72
542.274	38551.99
542.474	37915.07
542.675	37915.07
542.875	38504.88
543.075	37818.81
543.276	37437.89
543.476	38511.03
543.676	37962.17
543.877	38265.27
544.077	38023.61
544.277	38158.78
544.478	37734.85
544.678	38068.67
544.878	37904.83
545.078	37822.91
545.279	37814.72
545.479	37855.68
545.679	38300.09
545.879	37632.45
546.079	37771.71
546.28	37556.67
546.48	37530.05
546.68	38013.37
546.88	38140.35
547.08	38183.35
547.28	38078.91
547.48	37401.03
547.68	37814.72
547.88	37566.91
548.081	37804.48
548.281	37745.09
548.481	37550.53
548.681	38119.87
548.881	37745.09
549.081	37638.59
549.28	37470.66
549.48	37870.01
549.68	37773.76
549.88	37956.03
550.08	37315.01
550.28	37904.83
550.48	37505.48
550.68	37939.65
550.88	37652.93
551.08	37720.51
551.279	37671.36
551.479	37487.04
551.679	37620.16
551.879	37421.51
552.079	38117.82
552.278	37661.12
552.478	37947.84
552.678	37495.24
552.878	37970.36
553.077	37566.91
553.277	37306.82
553.477	37839.29
553.676	37560.77
553.876	37894.59
554.076	37454.28
554.275	37677.51
554.475	37136.84
554.674	37818.81
554.874	37716.42
555.074	37755.33
555.273	38029.76
555.473	38121.91
555.672	37593.54
555.872	37573.06
556.071	37839.29
556.271	38111.67
556.47	37519.81
556.67	37528
556.869	37638.59
557.068	37568.96
557.268	37611.97
557.467	37702.08
557.667	37683.65
557.866	37847.49
558.065	37446.08
558.265	37697.98
558.464	37620.16
558.663	38289.85
558.863	37349.83
559.062	38160.83
559.261	37501.38
559.461	38252.98
559.66	37257.67
559.859	37523.91
560.058	37306.82
560.258	37521.86
560.457	37128.65
560.656	37917.12
560.855	37661.12
561.054	37716.42
561.253	37411.27
561.453	37626.31
561.652	37278.15
561.851	37628.35
562.05	37642.69
562.249	37601.73
562.448	37603.78
562.647	37697.98
562.846	37515.72
563.045	37192.14
563.244	37048.78
563.443	37706.18
563.642	37042.63
563.841	37349.83
564.04	37167.56
564.239	37726.66
564.438	36989.39
564.637	37226.95
564.836	37398.98
565.035	36714.96
565.234	37364.17
565.432	37118.41
565.631	37114.31
565.83	37089.74
566.029	36872.65
566.228	36899.28
566.427	36762.06
566.625	36831.69
566.824	36231.64
567.023	36663.76
567.222	36125.14
567.42	36868.56
567.619	36610.51
567.818	36889.04
568.016	36346.33
568.215	36688.34
568.414	36362.71
568.612	36637.14
568.811	36483.54
569.01	36426.2
569.208	36268.5
569.407	36319.7
569.605	36022.75
569.804	36327.89
570.002	35529.19
570.201	35883.48
570.4	35942.88
570.598	35736.03
570.797	35678.69
570.995	35490.27
571.193	35224.04
571.392	35486.18
571.59	35236.33
571.789	35398.12
571.987	35103.21
572.186	35547.62
572.384	35078.63
572.582	35310.05
572.781	34978.28
572.979	34544.11
573.177	34726.38
573.376	34804.2
573.574	34488.82
573.772	34701.81
573.971	34497.01
574.169	34626.03
574.367	34320.88
574.565	34605.55
574.763	34042.36
574.962	33997.31
575.16	33632.77
575.358	34185.72
575.556	33505.79
575.754	34300.4
575.952	33448.45
576.151	33800.7
576.349	33737.21
576.547	33460.74
576.745	33489.41
576.943	33327.62
577.141	33405.44
577.339	33344
577.537	33270.28
577.735	33047.05
577.933	33251.84
578.131	33186.31
578.329	33057.29
578.527	32911.88
578.725	32551.44
578.923	32662.03
579.121	32846.35
579.319	32369.17
579.516	32483.86
579.714	32270.87
579.912	32537.1
580.11	32336.4
580.308	32285.2
580.506	32209.43
580.704	32047.64
580.901	31719.96
581.099	31822.36
581.297	31871.51
581.495	31842.84
581.692	31996.44
581.89	31396.38
582.088	31681.05
582.285	31349.28
582.483	31343.14
582.681	31597.09
582.878	31359.52
583.076	31121.96
583.274	30978.6
583.471	30931.5
583.669	30894.63
583.866	30603.82
584.064	31101.48
584.262	30609.96
584.459	30687.79
584.657	30745.13
584.854	30868.01
585.052	30470.7
585.249	30681.64
585.447	30329.39
585.644	30313.01
585.841	30114.36
586.039	30382.64
586.236	30157.36
586.434	30353.97
586.631	30198.32
586.828	29594.17
587.026	29782.59
587.223	29669.95
587.42	29792.83
587.618	29917.75
587.815	29573.69
588.012	29432.38
588.21	29506.11
588.407	29964.85
588.604	29196.87
588.801	29174.34
588.999	29297.22
589.196	29325.89
589.393	29284.93
589.59	29104.71
589.787	28977.73
589.984	28682.83
590.182	28369.49
590.379	28906.05
590.576	28609.1
590.773	28953.16
590.97	28260.94
591.167	28543.56
591.364	28088.92
591.561	28650.06
591.758	28101.2
591.955	28148.31
592.152	28494.41
592.349	28009.04
592.546	28250.7
592.743	28013.14
592.94	27421.28
593.137	27804.25
593.334	28086.87
593.531	27814.49
593.727	27751
593.924	28113.49
594.121	27327.07
594.318	27873.88
594.515	27574.88
594.712	27939.41
594.908	27658.84
595.105	27314.78
595.302	27454.05
595.499	27521.63
595.696	27245.15
595.892	27218.53
596.089	27138.66
596.286	27189.86
596.482	27320.93
596.679	27386.46
596.876	27226.72
597.072	27011.68
597.269	27026.02
597.466	26673.77
597.662	26657.39
597.859	26679.91
598.055	27001.44
598.252	26696.3
598.448	26991.2
598.645	26935.91
598.841	26411.63
599.038	26890.85
599.234	27042.4
599.431	26595.95
599.627	26692.2
599.824	26485.36
600.02	26325.61
600.217	26333.81
600.413	26622.57
600.609	26456.68
600.806	26313.33
601.002	26524.27
601.198	26423.92
601.395	26274.42
601.591	26245.74
601.787	26727.02
601.984	26159.73
602.18	26806.89
602.376	26296.94
602.572	25942.64
602.769	26415.72
602.965	26155.63
603.161	26440.3
603.357	26342
603.553	26442.35
603.75	26149.49
603.946	26290.8
604.142	26276.46
604.338	26098.29
604.534	26724.97
604.73	26309.23
604.926	26278.51
605.122	26403.44
605.318	26110.58
605.514	25838.2
605.71	26069.62
605.906	26554.99
606.102	26288.75
606.298	26464.88
606.494	26247.79
606.69	26522.22
606.886	26585.71
607.082	26153.58
607.278	26471.02
607.474	26073.71
607.67	26608.23
607.866	26428.01
608.062	26471.02
608.257	26511.98
608.453	26624.62
608.649	26733.16
608.845	26524.27
609.041	26438.25
609.236	26821.22
609.432	26636.91
609.628	26755.69
609.824	26563.18
610.019	26694.25
610.215	26489.45
610.411	27052.64
610.606	26544.75
610.802	27136.61
610.998	27013.73
611.193	27030.12
611.389	26419.82
611.584	26860.13
611.78	26933.86
611.976	26833.51
612.171	27257.44
612.367	26880.61
612.562	26688.1
612.758	26667.63
612.953	26802.79
613.149	27216.48
613.344	26950.24
613.539	27275.87
613.735	27064.93
613.93	27257.44
614.126	26964.58
614.321	27241.06
614.517	27048.55
614.712	27122.27
614.907	26866.28
615.103	27257.44
615.298	27128.42
615.493	27308.64
615.688	26962.53
615.884	27759.19
616.079	27294.3
616.274	27286.11
616.47	27495
616.665	27109.99
616.86	27239.01
617.055	27126.37
617.25	26927.72
617.445	26978.92
617.641	26929.77
617.836	27083.36
618.031	26743.4
618.226	26808.93
618.421	26847.85
618.616	27003.49
618.811	26497.64
619.006	27120.23
619.201	26481.26
619.396	26989.16
619.591	26522.22
619.786	26983.01
619.981	26090.1
620.176	26286.7
620.371	26045.04
620.566	26274.42
620.761	26092.15
620.956	26096.24
621.151	25549.43
621.346	26223.22
621.541	25297.53
621.735	25811.57
621.93	25469.56
622.125	25660.02
622.32	25305.73
622.515	25641.59
622.709	24990.34
622.904	25100.93
623.099	25043.59
623.294	24924.8
623.488	24484.49
623.683	24859.27
623.878	24439.44
624.072	24547.98
624.267	24605.32
624.462	24468.11
624.656	23937.68
624.851	24351.37
625.046	23952.02
625.24	23798.42
625.435	23632.54
625.629	23655.06
625.824	23644.82
626.018	23290.52
626.213	23091.87
626.407	23177.89
626.602	23026.34
626.796	23216.8
626.991	22966.95
627.185	22852.26
627.38	22573.74
627.574	22366.89
627.768	22416.04
627.963	22336.17
628.157	22256.3
628.352	21998.26
628.546	22004.4
628.74	21732.02
628.935	21824.18
629.129	21889.71
629.323	21435.06
629.517	21404.35
629.712	21492.41
629.906	21453.5
630.1	20812.48
630.294	21078.72
630.489	20878.02
630.683	20978.37
630.877	20906.69
631.071	20619.97
631.265	20683.46
631.459	20564.68
631.653	20392.65
631.848	20445.9
632.042	20191.95
632.236	20026.06
632.43	20009.68
632.624	20067.02
632.818	19776.21
633.012	19653.33
633.206	19710.68
633.4	19913.42
633.594	19708.63
633.788	19491.54
633.982	19131.1
634.176	19186.4
634.369	19028.7
634.563	19284.7
634.757	18817.76
634.951	18832.1
635.145	18864.86
635.339	18686.69
635.533	18500.33
635.726	18514.66
635.92	18115.31
636.114	18334.44
636.308	17992.43
636.501	18029.29
636.695	17785.58
636.889	17937.13
637.083	17746.67
637.276	17664.75
637.47	17445.62
637.664	17591.03
637.857	17419
638.051	17144.57
638.244	17017.6
638.438	17163
638.632	17044.22
638.825	16857.85
639.019	16962.3
639.212	16800.51
639.406	16681.73
639.599	16579.33
639.793	16689.92
639.986	16315.14
640.18	16487.17
640.373	16405.25
640.567	15903.5
640.76	15958.8
640.954	15776.53
641.147	15708.94
641.34	15569.68
641.534	15551.25
641.727	15504.15
641.92	15676.18
642.114	15418.13
642.307	15090.46
642.5	15235.86
642.694	14869.28
642.887	14832.41
643.08	15018.78
643.273	14973.72
643.467	14730.02
643.66	14588.71
643.853	14680.86
644.046	14359.33
644.239	14533.41
644.432	14119.72
644.626	14068.52
644.819	13976.36
645.012	14091.05
645.205	13953.84
645.398	13863.72
645.591	13898.54
645.784	13769.52
645.977	13554.48
646.17	13615.92
646.363	13509.43
646.556	13450.03
646.749	13345.59
646.942	13519.67
647.135	13009.72
647.328	13062.97
647.521	13206.33
647.714	12784.44
647.907	12860.22
648.099	12800.83
648.292	12964.67
648.485	12614.46
648.678	12448.58
648.871	12471.11
649.064	12419.91
649.256	12333.89
649.449	12260.16
649.642	12254.02
649.835	12254.02
650.027	12038.98
650.22	11936.59
650.413	11948.87
650.605	11948.87
650.798	11862.86
650.991	11666.25
651.183	11637.58
651.376	11578.19
651.568	11565.9
651.761	11402.07
651.954	11543.38
652.146	11242.32
652.339	11285.33
652.531	11285.33
652.724	11187.03
652.916	11139.93
653.109	11053.91
653.301	11189.08
653.494	11191.13
653.686	10726.24
653.879	11019.1
654.071	10720.09
654.263	10570.59
654.456	10711.9
654.648	10650.46
654.84	10589.02
655.033	10464.1
655.225	10431.33
655.417	10453.86
655.61	10384.23
655.802	10421.09
655.994	10328.93
656.186	9970.54
656.379	10042.21
656.571	10062.69
656.763	9853.8
656.955	9831.27
657.148	9878.38
657.34	9833.32
657.532	9565.04
657.724	9526.13
657.916	9671.53
658.108	9638.76
658.3	9589.61
658.492	9638.76
658.684	9470.83
658.876	9388.91
659.068	9350
659.26	9130.87
659.452	9263.99
659.644	9313.14
659.836	9175.92
660.028	9196.4
660.22	9042.81
660.412	8799.1
660.604	8838.01
660.796	9065.33
660.988	8946.55
661.18	8844.15
661.372	8614.78
661.563	8723.32
661.755	8455.04
661.947	8594.3
662.139	8485.76
662.331	8577.92
662.522	8459.13
662.714	8559.49
662.906	8303.49
663.097	8168.32
663.289	8078.21
663.481	8283.01
663.673	8168.32
663.864	8254.34
664.056	8022.92
664.247	8098.69
664.439	7941
664.631	7834.5
664.822	8106.88
665.014	8067.97
665.205	7879.56
665.397	7717.77
665.588	7762.83
665.78	7549.84
665.971	7799.69
666.163	7758.73
666.354	7306.13
666.546	7478.16
666.737	7388.05
666.929	7617.42
667.12	7316.37
667.311	7287.7
667.503	7216.02
667.694	7297.94
667.885	7113.62
668.077	7068.56
668.268	7125.91
668.459	7144.34
668.651	6980.5
668.842	7058.32
669.033	7056.28
669.224	6894.49
669.416	6941.59
669.607	6894.49
669.798	6968.21
669.989	6988.69
670.18	6773.66
670.371	6749.08
670.563	6798.23
670.754	6552.48
670.945	6701.98
671.136	6687.64
671.327	6603.68
671.518	6677.4
671.709	6740.89
671.9	6611.87
672.091	6509.47
672.282	6407.07
672.473	6409.12
672.664	6413.21
672.855	6431.65
673.046	6566.81
673.237	6411.17
673.428	6339.49
673.619	6427.55
673.809	6407.07
674	6169.51
674.191	6140.83
674.382	6108.07
674.573	6032.29
674.764	6230.94
674.954	6083.49
675.145	6085.54
675.336	5878.69
675.527	5831.59
675.717	6116.26
675.908	5938.09
676.099	6046.63
676.289	5845.93
676.48	6013.86
676.671	5702.57
676.861	5829.54
677.052	5710.76
677.243	5716.9
677.433	5698.47
677.624	5753.77
677.814	5696.43
678.005	5790.63
678.195	5733.29
678.386	5794.73
678.576	5673.9
678.767	5739.43
678.957	5680.04
679.148	5645.23
679.338	5688.23
679.529	5542.83
679.719	5542.83
679.909	5600.17
680.1	5602.22
680.29	5555.12
680.481	5438.38
680.671	5395.37
680.861	5551.02
681.052	5583.79
681.242	5657.51
681.432	5512.11
681.622	5407.66
681.813	5393.33
682.003	5358.51
682.193	5327.79
682.383	5518.25
682.573	5446.57
682.764	5307.31
682.954	5340.08
683.144	5376.94
683.334	5360.56
683.524	5206.96
683.714	5225.39
683.904	5274.54
684.094	5227.44
684.284	5264.3
684.474	5342.13
684.664	5395.37
684.854	5311.41
685.044	5172.15
685.234	5204.91
685.424	5182.38
685.614	5061.55
685.804	5217.2
685.994	5194.67
686.184	5034.93
686.374	5166
686.564	5141.43
686.753	5084.08
686.943	5067.7
687.133	5030.84
687.323	4963.25
687.513	4953.01
687.702	4955.06
687.892	5045.17
688.082	5016.5
688.272	5006.26
688.461	4940.72
688.651	5026.74
688.841	4971.44
689.03	4883.38
689.22	4813.75
689.41	4881.33
689.599	4971.44
689.789	4877.24
689.979	4821.94
690.168	4815.8
690.358	4731.83
690.547	4707.26
690.737	4832.18
690.926	4789.17
691.116	4848.57
691.305	4715.45
691.495	4766.65
691.684	4703.16
691.874	4733.88
692.063	4735.93
692.252	4674.49
692.442	4721.59
692.631	4608.95
692.82	4690.87
693.01	4576.19
693.199	4649.91
693.388	4584.38
693.578	4529.08
693.767	4604.86
693.956	4654.01
694.146	4504.51
694.335	4608.95
694.524	4635.58
694.713	4594.62
694.902	4469.69
695.092	4488.12
695.281	4576.19
695.47	4312
695.659	4406.2
695.848	4332.48
696.037	4539.32
696.226	4441.02
696.415	4412.35
696.604	4428.73
696.793	4481.98
696.982	4494.27
697.171	4379.58
697.36	4406.2
697.549	4316.09
697.738	4375.49
697.927	4447.16
698.116	4316.09
698.305	4369.34
698.494	4348.86
698.683	4228.03
698.872	4289.47
699.061	4246.46
699.25	4340.67
699.438	4334.53
699.627	4320.19
699.816	4381.63
700.005	4303.81
700.193	4289.47
700.382	4191.17
700.571	4215.74
700.76	4232.13
700.948	4258.75
701.137	4180.93
701.326	4051.91
701.514	4121.54
701.703	4144.06
701.892	4094.91
702.08	4146.11
702.269	4103.11
702.457	4109.25
702.646	4217.79
702.834	4094.91
703.023	4068.29
703.212	4207.55
703.4	4109.25
703.589	4135.87
703.777	4117.44
703.965	3953.6
704.154	4006.85
704.342	3963.84
704.531	3869.64
704.719	3873.73
704.907	4004.8
705.096	3974.08
705.284	4004.8
705.472	3994.56
705.661	4023.23
705.849	3937.22
706.037	3871.68
706.226	3896.26
706.414	3818.44
706.602	3740.61
706.79	3875.78
706.979	3797.96
707.167	3843.01
707.355	3849.16
707.543	3767.24
707.731	3890.12
707.919	3877.83
708.107	3703.75
708.296	3736.52
708.484	3677.13
708.672	3736.52
708.86	3716.04
709.048	3845.06
709.236	3681.22
709.424	3892.16
709.612	3732.42
709.8	3632.07
709.988	3597.26
710.176	3668.94
710.364	3584.97
710.551	3646.41
710.739	3677.13
710.927	3515.34
711.115	3570.63
711.303	3521.48
711.491	3668.94
711.679	3634.12
711.866	3584.97
712.054	3574.73
712.242	3435.47
712.43	3558.35
712.617	3355.6
712.805	3449.8
712.993	3470.28
713.181	3367.88
713.368	3257.29
713.556	3351.5
713.744	3236.81
713.931	3388.36
714.119	3390.41
714.306	3431.37
714.494	3433.42
714.682	3390.41
714.869	3273.68
715.057	3191.76
715.244	3220.43
715.432	3210.19
715.619	3292.11
715.807	3169.23
715.994	3134.42
716.182	3257.29
716.369	3154.9
716.556	3322.83
716.744	3142.61
716.931	3107.79
717.119	3343.31
717.306	3142.61
717.493	3228.62
717.681	3214.29
717.868	3099.6
718.055	3210.19
718.242	3173.33
718.43	3025.87
718.617	3202
718.804	3150.8
718.991	3070.93
719.179	3036.11
719.366	3136.46
719.553	3019.73
719.74	3062.74
719.927	3099.6
720.114	2954.19
720.301	2946
720.488	2993.11
720.676	2970.58
720.863	3003.35
721.05	2991.06
721.237	3003.35
721.424	2919.38
721.611	2894.8
721.798	2907.09
721.985	2808.79
722.172	2880.47
722.358	2821.08
722.545	2946
722.732	2821.08
722.919	2847.7
723.106	2784.21
723.293	2745.3
723.48	2868.18
723.667	2597.85
723.853	2823.12
724.04	2841.56
724.227	2683.86
724.414	2792.41
724.6	2767.83
724.787	2765.78
724.974	2743.25
725.161	2718.68
725.347	2663.38
725.534	2710.49
725.72	2675.67
725.907	2651.1
726.094	2708.44
726.28	2571.22
726.467	2618.33
726.653	2569.18
726.84	2798.55
727.027	2675.67
727.213	2538.46
727.4	2661.34
727.586	2579.42
727.773	2610.14
727.959	2560.98
728.145	2638.81
728.332	2462.68
728.518	2554.84
728.705	2642.9
728.891	2524.12
729.077	2610.14
729.264	2434.01
729.45	2477.02
729.636	2440.15
729.823	2419.68
730.009	2427.87
730.195	2538.46
730.382	2552.79
730.568	2501.59
730.754	2442.2
730.94	2374.62
731.126	2438.11
731.313	2563.03
731.499	2372.57
731.685	2440.15
731.871	2333.66
732.057	2442.2
732.243	2409.44
732.429	2380.76
732.615	2382.81
732.801	2350.04
732.987	2311.13
733.173	2212.83
733.359	2302.94
733.545	2409.44
733.731	2192.35
733.917	2266.08
734.103	2241.5
734.289	2446.3
734.475	2233.31
734.661	2323.42
734.847	2184.16
735.033	2300.89
735.219	2216.93
735.404	2288.61
735.59	2159.58
735.776	2202.59
735.962	2272.22
736.148	2348
736.333	2221.02
736.519	2200.54
736.705	2159.58
736.89	2175.97
737.076	2071.52
737.262	2130.91
737.447	2063.33
737.633	2118.62
737.819	2094.05
738.004	2202.59
738.19	2071.52
738.375	2126.82
738.561	2186.21
738.747	2032.61
738.932	2051.04
739.118	2087.9
739.303	2135.01
739.489	2020.32
739.674	2126.82
739.859	2069.47
740.045	2077.66
740.23	2024.42
740.416	1979.36
740.601	1981.41
740.786	1893.35
740.972	1924.07
741.157	1899.49
741.342	1967.07
741.528	1958.88
741.713	1958.88
741.898	1876.96
742.084	1850.34
742.269	1889.25
742.454	1823.72
742.639	1952.74
742.824	1766.37
743.01	1938.4
743.195	1987.55
743.38	1852.39
743.565	1850.34
743.75	1819.62
743.935	1872.87
744.12	1881.06
744.305	1790.95
744.49	1793
744.675	1860.58
744.86	1807.33
745.045	1745.89
745.23	1752.04
745.415	1645.54
745.6	1756.13
745.785	1852.39
745.97	1723.37
746.155	1723.37
746.34	1784.8
746.525	1643.49
746.71	1727.46
746.895	1784.8
747.079	1666.02
747.264	1694.69
747.449	1600.49
747.634	1608.68
747.819	1698.79
748.003	1549.29
748.188	1586.15
748.373	1623.02
748.557	1582.06
748.742	1563.62
748.927	1588.2
749.111	1651.69
749.296	1459.18
749.481	1528.81
749.665	1479.66
749.85	1496.04
750.034	1559.53
750.219	1424.36
750.404	1426.41
750.588	1586.15
750.773	1358.83
750.957	1426.41
751.141	1442.79
751.326	1446.89
751.51	1414.12
751.695	1403.88
751.879	1422.31
752.064	1405.93
752.248	1391.59
752.432	1416.17
752.617	1442.79
752.801	1360.88
752.985	1250.28
753.17	1293.29
753.354	1278.96
753.538	1377.26
753.722	1283.05
753.907	1348.59
754.091	1317.87
754.275	1303.53
754.459	1293.29
754.643	1258.48
754.828	1303.53
755.012	1274.86
755.196	1176.56
755.38	1223.66
755.564	1178.61
755.748	1242.09
755.932	1274.86
756.116	1217.52
756.3	1225.71
756.484	1184.75
756.668	1184.75
756.852	1160.17
757.036	1176.56
757.22	1205.23
757.404	1127.41
757.588	1192.94
757.772	1197.04
757.956	1217.52
758.14	1246.19
758.323	1127.41
758.507	1090.54
758.691	1143.79
758.875	1057.78
759.059	1090.54
759.242	947.19
759.426	1094.64
759.61	1070.06
759.794	1045.49
759.977	1045.49
760.161	1137.65
760.345	1070.06
760.528	1006.58
760.712	1018.86
760.895	1010.67
761.079	973.81
761.263	1037.3
761.446	1010.67
761.63	930.8
761.813	1006.58
761.997	1000.43
762.18	908.27
762.364	1002.48
762.547	945.14
762.731	1020.91
762.914	938.99
763.098	990.19
763.281	898.03
763.464	938.99
763.648	914.42
763.831	951.28
764.015	1010.67
764.198	934.9
764.381	965.62
764.564	947.19
764.748	930.8
764.931	961.52
765.114	895.99
765.297	975.86
765.481	783.35
765.664	875.51
765.847	891.89
766.03	832.5
766.213	938.99
766.397	908.27
766.58	873.46
766.763	881.65
766.946	828.4
767.129	906.23
767.312	771.06
767.495	902.13
767.678	844.79
767.861	865.27
768.044	934.9
768.227	855.03
768.41	791.54
768.593	877.55
768.776	916.47
768.959	809.97
769.142	908.27
769.324	873.46
769.507	834.55
769.69	863.22
769.873	750.58
770.056	949.23
770.239	850.93
770.421	840.69
770.604	799.73
770.787	791.54
770.97	809.97
771.152	840.69
771.335	873.46
771.518	777.2
771.7	795.64
771.883	889.84
772.066	818.16
772.248	783.35
772.431	824.31
772.613	848.88
772.796	850.93
772.978	787.44
773.161	846.84
773.343	771.06
773.526	701.43
773.708	703.48
773.891	711.67
774.073	750.58
774.256	693.24
774.438	791.54
774.621	750.58
774.803	717.81
774.985	756.72
775.168	775.16
775.35	713.72
775.532	726
775.715	726
775.897	709.62
776.079	672.76
776.261	726
776.444	693.24
776.626	635.89
776.808	713.72
776.99	609.27
777.173	660.47
777.355	564.22
777.537	721.91
777.719	672.76
777.901	736.24
778.083	639.99
778.265	648.18
778.447	656.37
778.629	629.75
778.811	603.13
778.993	668.66
779.175	664.57
779.357	617.46
779.539	564.22
779.721	672.76
779.903	478.2
780.085	629.75
780.267	578.55
780.449	654.33
780.631	605.17
780.812	498.68
780.994	596.98
781.176	599.03
781.358	635.89
781.54	562.17
781.721	556.02
781.903	588.79
782.085	533.5
782.267	601.08
782.448	545.78
782.63	572.41
782.812	529.4
782.993	498.68
783.175	517.11
783.357	547.83
783.538	523.26
783.72	535.54
783.901	510.97
784.083	566.26
784.264	556.02
784.446	480.25
784.627	525.3
784.809	519.16
784.99	562.17
785.172	496.63
785.353	400.38
785.535	547.83
785.716	441.34
785.897	472.06
786.079	502.78
786.26	517.11
786.441	480.25
786.623	439.29
786.804	439.29
786.985	441.34
787.167	375.8
787.348	404.47
787.529	429.05
787.71	435.19
787.891	406.52
788.073	416.76
788.254	326.65
788.435	408.57
788.616	318.46
788.797	400.38
788.978	447.48
789.159	345.08
789.34	422.91
789.522	424.95
789.703	367.61
789.884	398.33
790.065	474.1
790.246	435.19
790.427	441.34
790.607	420.86
790.788	361.47
790.969	328.7
791.15	410.62
791.331	312.32
791.512	388.09
791.693	277.5
791.874	377.85
792.054	482.3
792.235	383.99
792.416	343.03
792.597	349.18
792.778	308.22
792.958	340.99
793.139	297.98
793.32	324.6
793.5	308.22
793.681	410.62
793.862	353.27
794.042	375.8
794.223	252.92
794.404	297.98
794.584	279.55
794.765	328.7
794.945	265.21
795.126	349.18
795.306	287.74
795.487	283.64
795.667	295.93
795.848	306.17
796.028	316.41
796.209	287.74
796.389	314.36
796.57	306.17
796.75	308.22
796.93	312.32
797.111	226.3
797.291	236.54
797.471	244.73
797.652	267.26
797.832	228.35
798.012	379.9
798.192	242.68
798.373	269.31
798.553	279.55
798.733	283.64
798.913	246.78
799.093	293.88
799.274	308.22
799.454	240.64
799.634	265.21
799.814	347.13
799.994	242.68
800.174	250.88
800.354	246.78
800.534	263.16
800.714	263.16
800.894	267.26
801.074	238.59
801.254	293.88
801.434	367.61
801.614	269.31
801.794	164.86
801.974	842.74
802.154	234.49
802.334	310.27
802.514	261.12
802.693	228.35
802.873	160.77
803.053	328.7
803.233	205.82
803.413	279.55
803.592	203.77
803.772	203.77
803.952	254.97
804.131	201.72
804.311	242.68
804.491	285.69
804.67	203.77
804.85	179.2
805.03	205.82
805.209	279.55
805.389	173.05
805.568	209.92
805.748	160.77
805.928	205.82
806.107	201.72
806.287	250.88
806.466	259.07
806.646	156.67
806.825	179.2
807.004	220.16
807.184	175.1
807.363	203.77
807.543	152.57
807.722	187.39
807.901	209.92
808.081	259.07
808.26	164.86
808.439	236.54
808.619	121.85
808.798	201.72
808.977	246.78
809.156	191.49
809.336	199.68
809.515	242.68
809.694	168.96
809.873	185.34
810.052	181.25
810.231	179.2
810.411	252.92
810.59	242.68
810.769	226.3
810.948	179.2
811.127	123.9
811.306	144.38
811.485	185.34
811.664	177.15
811.843	138.24
812.022	171.01
812.201	179.2
812.38	166.91
812.559	171.01
812.737	234.49
812.916	97.28
813.095	211.96
813.274	195.58
813.453	193.53
813.632	158.72
813.811	125.95
813.989	119.81
814.168	209.92
814.347	123.9
814.526	162.81
814.704	222.2
814.883	218.11
815.062	162.81
815.24	164.86
815.419	111.61
815.598	148.48
815.776	132.09
815.955	119.81
816.133	82.94
816.312	189.44
816.49	152.57
816.669	146.43
816.847	156.67
817.026	187.39
817.204	179.2
817.383	191.49
817.561	44.03
817.74	214.01
817.918	76.8
818.097	226.3
818.275	27.65
818.453	171.01
818.632	203.77
818.81	56.32
818.988	121.85
819.167	46.08
819.345	144.38
819.523	103.42
819.701	148.48
819.879	216.06
820.058	154.62
820.236	209.92
820.414	103.42
820.592	103.42
820.77	183.29
820.948	193.53
821.127	68.61
821.305	132.09
821.483	119.81
821.661	138.24
821.839	99.33
822.017	117.76
822.195	101.37
822.373	205.82
822.551	185.34
822.729	113.66
822.907	33.79
823.085	152.57
823.262	128
823.44	113.66
823.618	89.09
823.796	111.61
823.974	123.9
824.152	64.51
824.329	132.09
824.507	168.96
824.685	95.23
824.863	168.96
825.04	191.49
825.218	132.09
825.396	156.67
825.574	138.24
825.751	130.05
825.929	150.53
826.107	144.38
826.284	144.38
826.462	99.33
826.639	91.13
826.817	84.99
826.994	82.94
827.172	31.74
827.349	111.61
827.527	158.72
827.704	78.85
827.882	168.96
828.059	111.61
828.237	64.51
828.414	119.81
828.591	105.47
828.769	144.38
828.946	80.89
829.124	160.77
829.301	140.29
829.478	140.29
829.655	121.85
829.833	138.24
830.01	-15.36
830.187	87.04
830.364	105.47
830.542	99.33
830.719	109.57
830.896	123.9
831.073	125.95
831.25	130.05
831.427	136.19
831.604	91.13
831.782	119.81
831.959	128
832.136	111.61
832.313	134.14
832.49	121.85
832.667	46.08
832.844	70.65
833.021	164.86
833.198	130.05
833.374	76.8
833.551	111.61
833.728	50.18
833.905	74.75
834.082	72.7
834.259	54.27
834.436	144.38
834.612	50.18
834.789	93.18
834.966	17.41
835.143	80.89
835.319	33.79
835.496	48.13
835.673	136.19
835.85	154.62
836.026	119.81
836.203	136.19
836.38	-27.65
836.556	62.46
836.733	46.08
836.909	142.33
837.086	91.13
837.262	144.38
837.439	87.04
837.616	78.85
837.792	46.08
837.968	99.33
838.145	62.46
838.321	87.04
838.498	89.09
838.674	117.76
838.851	37.89
839.027	29.7
839.203	70.65
839.38	56.32
839.556	35.84
839.732	148.48
839.909	93.18
840.085	78.85
840.261	97.28
840.437	-19.46
840.614	48.13
840.79	62.46
840.966	66.56
841.142	130.05
841.318	62.46
841.494	72.7
841.671	64.51
841.847	70.65
842.023	-3.07
842.199	80.89
842.375	62.46
842.551	58.37
842.727	103.42
842.903	119.81
843.079	72.7
843.255	97.28
843.431	-11.26
843.607	111.61
843.783	-35.84
843.959	130.05
844.134	35.84
844.31	66.56
844.486	70.65
844.662	25.6
844.838	82.94
845.013	72.7
845.189	54.27
845.365	52.22
845.541	62.46
845.716	91.13
845.892	89.09
846.068	37.89
846.244	-3.07
846.419	130.05
846.595	113.66
846.77	62.46
846.946	119.81
847.122	41.98
847.297	103.42
847.473	113.66
847.648	58.37
847.824	64.51
847.999	54.27
848.175	52.22
848.35	87.04
848.526	82.94
848.701	134.14
848.876	78.85
849.052	23.55
849.227	56.32
849.403	95.23
849.578	111.61
849.753	13.31
849.929	132.09
850.104	50.18
850.279	1.02
850.454	132.09
850.63	72.7
850.805	87.04
850.98	87.04
851.155	46.08
851.33	50.18
851.505	58.37
851.681	150.53
851.856	9.22
852.031	95.23
852.206	111.61
852.381	33.79
852.556	37.89
852.731	31.74
852.906	7.17
853.081	68.61
853.256	62.46
853.431	31.74
853.606	5.12
853.781	46.08
853.956	9.22
854.131	168.96
854.305	48.13
854.48	31.74
854.655	66.56
854.83	95.23
855.005	25.6
855.18	44.03
855.354	7.17
855.529	54.27
855.704	46.08
855.879	-13.31
856.053	-19.46
856.228	44.03
856.403	5.12
856.577	78.85
856.752	44.03
856.926	21.5
857.101	-25.6
857.276	95.23
857.45	78.85
857.625	64.51
857.799	-1.02
857.974	23.55
858.148	17.41
858.323	109.57
858.497	-15.36
858.672	31.74
858.846	35.84
859.02	56.32
859.195	-11.26
859.369	48.13
859.543	148.48
859.718	54.27
859.892	66.56
860.066	91.13
860.241	60.42
860.415	17.41
860.589	-17.41
860.763	-19.46
860.938	29.7
861.112	87.04
861.286	17.41
861.46	46.08
861.634	5.12
861.808	80.89
861.982	7.17
862.157	50.18
862.331	87.04
862.505	46.08
862.679	7.17
862.853	-19.46
863.027	-27.65
863.201	132.09
863.375	35.84
863.549	1.02
863.722	72.7
863.896	58.37
864.07	52.22
864.244	80.89
864.418	39.94
864.592	95.23
864.766	-31.74
864.939	46.08
865.113	1.02
865.287	103.42
865.461	-3.07
865.634	54.27
865.808	-1.02
865.982	23.55
866.156	35.84
866.329	-27.65
866.503	35.84
866.676	95.23
866.85	72.7
867.024	72.7
867.197	125.95
867.371	48.13
867.544	21.5
867.718	21.5
867.891	15.36
868.065	76.8
868.238	62.46
868.412	58.37
868.585	17.41
868.759	23.55
868.932	-31.74
869.105	-33.79
869.279	66.56
869.452	64.51
869.625	70.65
869.799	-39.94
869.972	35.84
870.145	87.04
870.319	105.47
870.492	72.7
870.665	23.55
870.838	1.02
871.011	9.22
871.185	99.33
871.358	7.17
871.531	66.56
871.704	46.08
871.877	62.46
872.05	5.12
872.223	-115.71
872.396	37.89
872.569	7.17
872.742	66.56
872.915	70.65
873.088	17.41
873.261	46.08
873.434	-33.79
873.607	7.17
873.78	21.5
873.953	15.36
874.126	23.55
874.299	50.18
874.471	-60.42
874.644	58.37
874.817	5.12
874.99	46.08
875.163	-3.07
875.335	-11.26
875.508	-9.22
875.681	115.71
875.853	-29.7
876.026	31.74
876.199	64.51
876.371	111.61
876.544	-19.46
876.717	64.51
876.889	54.27
877.062	44.03
877.234	-7.17
877.407	21.5
877.579	-1.02
877.752	46.08
877.924	54.27
878.097	29.7
878.269	46.08
878.442	9.22
878.614	9.22
878.786	80.89
878.959	13.31
879.131	37.89
879.303	7.17
879.476	19.46
879.648	113.66
879.82	54.27
879.993	29.7
880.165	23.55
880.337	37.89
880.509	58.37
880.681	21.5
880.854	-15.36
881.026	56.32
881.198	89.09
881.37	-11.26
881.542	44.03
881.714	72.7
881.886	19.46
882.058	29.7
882.23	-19.46
882.402	56.32
882.574	78.85
882.746	29.7
882.918	107.52
883.09	27.65
883.262	48.13
883.434	21.5
883.606	9.22
883.778	50.18
883.95	-25.6
884.122	-52.22
884.293	70.65
884.465	-19.46
884.637	46.08
884.809	50.18
884.98	66.56
885.152	68.61
885.324	103.42
885.496	13.31
885.667	13.31
885.839	37.89
886.011	119.81
886.182	66.56
886.354	56.32
886.525	74.75
886.697	41.98
886.869	46.08
887.04	123.9
887.212	17.41
887.383	130.05
887.555	11.26
887.726	-13.31
887.897	-3.07
888.069	21.5
888.24	37.89
888.412	21.5
888.583	-25.6
888.754	5.12
888.926	-15.36
889.097	17.41
889.268	5.12
889.44	82.94
889.611	-21.5
889.782	37.89
889.953	-11.26
890.125	46.08
890.296	-76.8
890.467	-48.13
890.638	35.84
890.809	15.36
890.98	46.08
891.151	-1.02
891.323	54.27
891.494	56.32
891.665	62.46
891.836	58.37
892.007	-11.26
892.178	29.7
892.349	-60.42
892.52	103.42
892.691	66.56
892.862	37.89
893.032	-50.18
893.203	1.02
893.374	-1.02
893.545	66.56
893.716	19.46
893.887	37.89
894.057	-27.65
894.228	78.85
894.399	-7.17
894.57	39.94
894.74	62.46
894.911	35.84
895.082	21.5
895.253	-46.08
895.423	37.89
895.594	171.01
895.764	89.09
895.935	-19.46
896.106	62.46
896.276	-17.41
896.447	29.7
896.617	46.08
896.788	9.22
896.958	58.37
897.129	56.32
897.299	48.13
897.47	66.56
897.64	58.37
897.81	15.36
897.981	-64.51
898.151	-17.41
898.322	89.09
898.492	46.08
898.662	58.37
898.832	-44.03
899.003	-27.65
899.173	46.08
899.343	-66.56
899.513	39.94
