Data from USB4F104151__129__14-31-22-459.txt Node

Date: Thu Mar 13 14:31:22 EDT 2025
User: louis
Spectrometer: USB4F10415
Trigger mode: 4
Integration Time (sec): 2.500000E-2
Scans to average: 1
Electric dark correction enabled: true
Nonlinearity correction enabled: false
Boxcar width: 0
XAxis mode: Wavelengths
Number of Pixels in Spectrum: 3648
>>>>>Begin Spectral Data<<<<<
178.204	-119.64
178.424	-119.64
178.644	-119.64
178.864	-117.59
179.084	-170.83
179.304	46.25
179.524	-9.05
179.744	-70.48
179.964	60.59
180.184	-7
180.404	3.24
180.624	-19.29
180.844	-62.29
181.064	-9.05
181.283	64.68
181.503	-54.1
181.723	56.49
181.943	-45.91
182.163	89.26
182.383	7.34
182.602	-21.33
182.822	62.63
183.042	11.43
183.262	9.39
183.482	36.01
183.701	19.63
183.921	44.2
184.141	-4.95
184.361	27.82
184.58	44.2
184.8	-19.29
185.02	46.25
185.239	54.44
185.459	7.34
185.679	68.78
185.898	1.19
186.118	9.39
186.338	50.35
186.557	50.35
186.777	-58.2
186.997	33.96
187.216	-27.48
187.436	70.83
187.655	-15.19
187.875	117.93
188.095	-4.95
188.314	48.3
188.534	62.63
188.753	19.63
188.973	103.59
189.192	122.02
189.412	68.78
189.631	29.87
189.851	-0.85
190.07	-13.14
190.29	68.78
190.509	1.19
190.729	-31.57
190.948	111.78
191.168	173.22
191.387	76.97
191.607	-41.81
191.826	68.78
192.045	21.67
192.265	-29.52
192.484	48.3
192.704	25.77
192.923	-45.91
193.142	144.55
193.362	23.72
193.581	76.97
193.8	48.3
194.02	99.5
194.239	-4.95
194.458	-2.9
194.678	27.82
194.897	19.63
195.116	36.01
195.335	7.34
195.555	36.01
195.774	68.78
195.993	52.39
196.212	3.24
196.432	40.11
196.651	13.48
196.87	60.59
197.089	54.44
197.308	-84.82
197.528	29.87
197.747	52.39
197.966	-17.24
198.185	138.41
198.404	17.58
198.623	25.77
198.842	79.02
199.062	50.35
199.281	44.2
199.5	7.34
199.719	56.49
199.938	91.31
200.157	36.01
200.376	52.39
200.595	76.97
200.814	-29.52
201.033	40.11
201.252	109.74
201.471	-9.05
201.69	105.64
201.909	27.82
202.128	52.39
202.347	70.83
202.566	9.39
202.785	-27.48
203.004	-37.72
203.223	101.55
203.442	23.72
203.661	25.77
203.879	83.11
204.098	122.02
204.317	-4.95
204.536	-0.85
204.755	-9.05
204.974	11.43
205.193	5.29
205.411	64.68
205.63	52.39
205.849	5.29
206.068	85.16
206.287	31.91
206.505	27.82
206.724	5.29
206.943	44.2
207.162	7.34
207.381	13.48
207.599	-11.09
207.818	5.29
208.037	-45.91
208.255	76.97
208.474	60.59
208.693	13.48
208.911	95.4
209.13	-9.05
209.349	38.06
209.567	54.44
209.786	44.2
210.005	42.15
210.223	44.2
210.442	-4.95
210.661	40.11
210.879	3.24
211.098	38.06
211.316	68.78
211.535	158.89
211.753	144.55
211.972	68.78
212.191	5.29
212.409	38.06
212.628	27.82
212.846	44.2
213.065	36.01
213.283	95.4
213.502	-11.09
213.72	3.24
213.938	-4.95
214.157	17.58
214.375	42.15
214.594	9.39
214.812	101.55
215.031	5.29
215.249	19.63
215.467	36.01
215.686	11.43
215.904	70.83
216.122	36.01
216.341	68.78
216.559	36.01
216.778	68.78
216.996	93.35
217.214	-45.91
217.432	-29.52
217.651	11.43
217.869	31.91
218.087	105.64
218.306	7.34
218.524	-37.72
218.742	3.24
218.96	-4.95
219.179	74.92
219.397	23.72
219.615	115.88
219.833	64.68
220.051	3.24
220.27	19.63
220.488	33.96
220.706	13.48
220.924	58.54
221.142	-21.33
221.36	19.63
221.578	31.91
221.796	68.78
222.015	29.87
222.233	62.63
222.451	76.97
222.669	-50
222.887	-27.48
223.105	-17.24
223.323	13.48
223.541	50.35
223.759	93.35
223.977	27.82
224.195	85.16
224.413	23.72
224.631	-0.85
224.849	29.87
225.067	142.5
225.285	68.78
225.503	11.43
225.721	-0.85
225.939	36.01
226.157	21.67
226.375	85.16
226.592	-0.85
226.81	23.72
227.028	31.91
227.246	52.39
227.464	29.87
227.682	93.35
227.9	85.16
228.117	-19.29
228.335	64.68
228.553	38.06
228.771	115.88
228.989	64.68
229.206	15.53
229.424	-23.38
229.642	52.39
229.86	29.87
230.077	109.74
230.295	29.87
230.513	27.82
230.731	62.63
230.948	72.87
231.166	68.78
231.384	-37.72
231.601	60.59
231.819	31.91
232.037	-52.05
232.254	36.01
232.472	-0.85
232.689	62.63
232.907	36.01
233.125	56.49
233.342	38.06
233.56	48.3
233.777	27.82
233.995	7.34
234.213	44.2
234.43	48.3
234.648	79.02
234.865	-13.14
235.083	70.83
235.3	66.73
235.518	23.72
235.735	44.2
235.953	95.4
236.17	87.21
236.388	79.02
236.605	62.63
236.822	85.16
237.04	36.01
237.257	46.25
237.475	81.07
237.692	33.96
237.909	-17.24
238.127	11.43
238.344	3.24
238.562	38.06
238.779	83.11
238.996	44.2
239.214	60.59
239.431	103.59
239.648	-33.62
239.865	56.49
240.083	52.39
240.3	36.01
240.517	15.53
240.735	60.59
240.952	52.39
241.169	68.78
241.386	101.55
241.603	5.29
241.821	23.72
242.038	60.59
242.255	36.01
242.472	13.48
242.689	19.63
242.907	33.96
243.124	93.35
243.341	40.11
243.558	107.69
243.775	1.19
243.992	38.06
244.209	36.01
244.426	72.87
244.643	36.01
244.86	-0.85
245.078	48.3
245.295	-7
245.512	117.93
245.729	-19.29
245.946	66.73
246.163	87.21
246.38	15.53
246.597	42.15
246.814	17.58
247.031	-2.9
247.248	13.48
247.464	60.59
247.681	60.59
247.898	-41.81
248.115	50.35
248.332	3.24
248.549	70.83
248.766	117.93
248.983	56.49
249.2	83.11
249.417	66.73
249.633	-29.52
249.85	58.54
250.067	40.11
250.284	52.39
250.501	31.91
250.717	97.45
250.934	38.06
251.151	54.44
251.368	101.55
251.585	85.16
251.801	76.97
252.018	-19.29
252.235	7.34
252.451	-25.43
252.668	15.53
252.885	72.87
253.102	19.63
253.318	9.39
253.535	-2.9
253.752	-80.72
253.968	-2.9
254.185	19.63
254.401	76.97
254.618	1.19
254.835	5.29
255.051	81.07
255.268	64.68
255.484	23.72
255.701	27.82
255.917	38.06
256.134	54.44
256.351	-35.67
256.567	11.43
256.784	19.63
257	-62.29
257.217	183.46
257.433	46.25
257.65	97.45
257.866	23.72
258.082	-2.9
258.299	13.48
258.515	54.44
258.732	54.44
258.948	93.35
259.165	87.21
259.381	-47.96
259.597	38.06
259.814	36.01
260.03	-47.96
260.246	93.35
260.463	17.58
260.679	79.02
260.895	17.58
261.112	101.55
261.328	31.91
261.544	48.3
261.761	68.78
261.977	-29.52
262.193	-70.48
262.409	38.06
262.626	44.2
262.842	89.26
263.058	-9.05
263.274	93.35
263.49	54.44
263.707	76.97
263.923	89.26
264.139	-15.19
264.355	85.16
264.571	60.59
264.787	52.39
265.004	44.2
265.22	-19.29
265.436	9.39
265.652	79.02
265.868	44.2
266.084	52.39
266.3	52.39
266.516	5.29
266.732	-4.95
266.948	36.01
267.164	21.67
267.38	29.87
267.596	46.25
267.812	46.25
268.028	48.3
268.244	-68.44
268.46	40.11
268.676	58.54
268.892	17.58
269.108	27.82
269.324	5.29
269.54	-11.09
269.756	46.25
269.972	68.78
270.188	5.29
270.403	-11.09
270.619	58.54
270.835	85.16
271.051	52.39
271.267	64.68
271.483	9.39
271.698	23.72
271.914	85.16
272.13	89.26
272.346	40.11
272.562	36.01
272.777	97.45
272.993	21.67
273.209	9.39
273.425	64.68
273.64	-29.52
273.856	83.11
274.072	44.2
274.287	113.83
274.503	117.93
274.719	85.16
274.934	3.24
275.15	64.68
275.366	-29.52
275.581	15.53
275.797	27.82
276.012	1.19
276.228	3.24
276.444	-13.14
276.659	142.5
276.875	21.67
277.09	81.07
277.306	21.67
277.521	62.63
277.737	-45.91
277.952	70.83
278.168	56.49
278.383	126.12
278.599	76.97
278.814	79.02
279.03	46.25
279.245	72.87
279.461	23.72
279.676	103.59
279.892	-19.29
280.107	-2.9
280.322	21.67
280.538	68.78
280.753	17.58
280.969	56.49
281.184	-7
281.399	68.78
281.615	54.44
281.83	44.2
282.045	-37.72
282.26	44.2
282.476	-62.29
282.691	85.16
282.906	109.74
283.122	-4.95
283.337	-11.09
283.552	101.55
283.767	-25.43
283.983	64.68
284.198	-4.95
284.413	85.16
284.628	21.67
284.843	109.74
285.058	36.01
285.274	-13.14
285.489	56.49
285.704	103.59
285.919	93.35
286.134	36.01
286.349	27.82
286.564	-4.95
286.779	122.02
286.995	97.45
287.21	21.67
287.425	105.64
287.64	9.39
287.855	62.63
288.07	33.96
288.285	23.72
288.5	44.2
288.715	62.63
288.93	-17.24
289.145	-21.33
289.36	85.16
289.575	-7
289.79	27.82
290.004	40.11
290.219	60.59
290.434	11.43
290.649	-4.95
290.864	52.39
291.079	-4.95
291.294	150.7
291.509	70.83
291.724	19.63
291.938	29.87
292.153	-23.38
292.368	50.35
292.583	122.02
292.798	19.63
293.012	40.11
293.227	85.16
293.442	40.11
293.657	95.4
293.871	68.78
294.086	27.82
294.301	44.2
294.516	103.59
294.73	29.87
294.945	89.26
295.16	-70.48
295.374	-4.95
295.589	54.44
295.804	-50
296.018	60.59
296.233	21.67
296.447	13.48
296.662	58.54
296.877	44.2
297.091	38.06
297.306	62.63
297.52	21.67
297.735	93.35
297.949	36.01
298.164	13.48
298.378	36.01
298.593	97.45
298.807	42.15
299.022	60.59
299.236	91.31
299.451	3.24
299.665	83.11
299.88	50.35
300.094	21.67
300.309	111.78
300.523	38.06
300.737	21.67
300.952	-41.81
301.166	36.01
301.381	7.34
301.595	46.25
301.809	76.97
302.024	46.25
302.238	3.24
302.452	103.59
302.667	79.02
302.881	134.31
303.095	36.01
303.309	23.72
303.524	36.01
303.738	54.44
303.952	46.25
304.166	76.97
304.381	7.34
304.595	97.45
304.809	-33.62
305.023	56.49
305.237	29.87
305.452	66.73
305.666	36.01
305.88	58.54
306.094	29.87
306.308	68.78
306.522	72.87
306.736	89.26
306.95	93.35
307.164	62.63
307.379	44.2
307.593	64.68
307.807	117.93
308.021	117.93
308.235	167.08
308.449	-2.9
308.663	72.87
308.877	103.59
309.091	11.43
309.305	79.02
309.519	66.73
309.733	56.49
309.947	44.2
310.161	52.39
310.374	27.82
310.588	72.87
310.802	9.39
311.016	46.25
311.23	-0.85
311.444	89.26
311.658	54.44
311.872	103.59
312.085	58.54
312.299	29.87
312.513	105.64
312.727	27.82
312.941	-43.86
313.154	5.29
313.368	50.35
313.582	44.2
313.796	91.31
314.009	7.34
314.223	72.87
314.437	70.83
314.651	81.07
314.864	19.63
315.078	23.72
315.292	48.3
315.505	52.39
315.719	-19.29
315.933	87.21
316.146	36.01
316.36	62.63
316.573	68.78
316.787	19.63
317.001	-0.85
317.214	3.24
317.428	109.74
317.641	27.82
317.855	21.67
318.068	93.35
318.282	44.2
318.495	27.82
318.709	119.98
318.922	60.59
319.136	70.83
319.349	101.55
319.563	11.43
319.776	21.67
319.99	-17.24
320.203	38.06
320.417	36.01
320.63	48.3
320.843	85.16
321.057	113.83
321.27	52.39
321.483	-9.05
321.697	60.59
321.91	138.41
322.124	93.35
322.337	-11.09
322.55	-17.24
322.763	36.01
322.977	95.4
323.19	-23.38
323.403	93.35
323.617	31.91
323.83	87.21
324.043	48.3
324.256	38.06
324.469	52.39
324.683	81.07
324.896	-54.1
325.109	11.43
325.322	-19.29
325.535	46.25
325.748	38.06
325.962	-74.58
326.175	19.63
326.388	23.72
326.601	76.97
326.814	-45.91
327.027	52.39
327.24	60.59
327.453	-54.1
327.666	27.82
327.879	21.67
328.092	136.36
328.305	27.82
328.518	44.2
328.731	-19.29
328.944	52.39
329.157	40.11
329.37	21.67
329.583	54.44
329.796	87.21
330.009	-17.24
330.222	93.35
330.435	38.06
330.648	38.06
330.861	27.82
331.073	-50
331.286	70.83
331.499	-45.91
331.712	-37.72
331.925	44.2
332.138	76.97
332.35	68.78
332.563	-9.05
332.776	113.83
332.989	52.39
333.202	93.35
333.414	81.07
333.627	-2.9
333.84	54.44
334.053	3.24
334.265	-50
334.478	5.29
334.691	-25.43
334.903	68.78
335.116	130.22
335.329	87.21
335.541	83.11
335.754	85.16
335.966	83.11
336.179	70.83
336.392	23.72
336.604	101.55
336.817	64.68
337.029	5.29
337.242	111.78
337.454	64.68
337.667	68.78
337.88	95.4
338.092	40.11
338.305	117.93
338.517	79.02
338.729	109.74
338.942	105.64
339.154	23.72
339.367	29.87
339.579	68.78
339.792	23.72
340.004	11.43
340.217	27.82
340.429	91.31
340.641	3.24
340.854	3.24
341.066	31.91
341.278	142.5
341.491	130.22
341.703	1.19
341.915	56.49
342.128	62.63
342.34	27.82
342.552	27.82
342.764	105.64
342.977	36.01
343.189	38.06
343.401	76.97
343.613	31.91
343.826	36.01
344.038	-13.14
344.25	56.49
344.462	58.54
344.674	76.97
344.886	-25.43
345.099	11.43
345.311	13.48
345.523	-43.86
345.735	-13.14
345.947	87.21
346.159	72.87
346.371	95.4
346.583	44.2
346.795	46.25
347.007	81.07
347.219	36.01
347.431	56.49
347.643	36.01
347.855	-29.52
348.067	85.16
348.279	5.29
348.491	48.3
348.703	89.26
348.915	81.07
349.127	15.53
349.339	46.25
349.551	11.43
349.763	68.78
349.975	52.39
350.187	109.74
350.399	85.16
350.61	89.26
350.822	-27.48
351.034	-4.95
351.246	58.54
351.458	97.45
351.669	76.97
351.881	105.64
352.093	103.59
352.305	130.22
352.517	56.49
352.728	-0.85
352.94	60.59
353.152	56.49
353.363	62.63
353.575	97.45
353.787	76.97
353.999	87.21
354.21	64.68
354.422	52.39
354.633	-21.33
354.845	70.83
355.057	27.82
355.268	-4.95
355.48	36.01
355.692	95.4
355.903	3.24
356.115	56.49
356.326	31.91
356.538	97.45
356.749	119.98
356.961	113.83
357.172	-45.91
357.384	93.35
357.595	130.22
357.807	89.26
358.018	72.87
358.23	62.63
358.441	44.2
358.653	60.59
358.864	-13.14
359.075	54.44
359.287	-21.33
359.498	85.16
359.709	44.2
359.921	87.21
360.132	46.25
360.344	-11.09
360.555	29.87
360.766	101.55
360.977	27.82
361.189	-13.14
361.4	81.07
361.611	21.67
361.823	11.43
362.034	52.39
362.245	-17.24
362.456	44.2
362.667	68.78
362.879	60.59
363.09	97.45
363.301	64.68
363.512	111.78
363.723	1.19
363.935	48.3
364.146	105.64
364.357	-11.09
364.568	85.16
364.779	36.01
364.99	60.59
365.201	-21.33
365.412	85.16
365.623	138.41
365.834	44.2
366.045	68.78
366.256	68.78
366.467	117.93
366.678	27.82
366.889	91.31
367.1	27.82
367.311	103.59
367.522	54.44
367.733	136.36
367.944	85.16
368.155	-21.33
368.366	60.59
368.577	7.34
368.788	101.55
368.999	40.11
369.209	36.01
369.42	130.22
369.631	113.83
369.842	56.49
370.053	64.68
370.264	81.07
370.474	-37.72
370.685	68.78
370.896	19.63
371.107	101.55
371.317	70.83
371.528	111.78
371.739	50.35
371.95	31.91
372.16	97.45
372.371	-19.29
372.582	11.43
372.792	87.21
373.003	60.59
373.214	87.21
373.424	72.87
373.635	95.4
373.846	60.59
374.056	103.59
374.267	60.59
374.477	38.06
374.688	46.25
374.898	64.68
375.109	64.68
375.319	58.54
375.53	103.59
375.74	111.78
375.951	85.16
376.161	83.11
376.372	101.55
376.582	7.34
376.793	76.97
377.003	-4.95
377.214	27.82
377.424	40.11
377.635	60.59
377.845	27.82
378.055	76.97
378.266	-9.05
378.476	113.83
378.686	76.97
378.897	132.26
379.107	105.64
379.317	54.44
379.528	40.11
379.738	136.36
379.948	21.67
380.158	76.97
380.369	52.39
380.579	119.98
380.789	179.37
380.999	142.5
381.21	27.82
381.42	134.31
381.63	76.97
381.84	85.16
382.05	19.63
382.261	97.45
382.471	97.45
382.681	3.24
382.891	93.35
383.101	13.48
383.311	11.43
383.521	74.92
383.731	128.17
383.941	130.22
384.151	85.16
384.361	66.73
384.571	76.97
384.781	76.97
384.991	68.78
385.201	56.49
385.411	21.67
385.621	85.16
385.831	62.63
386.041	40.11
386.251	91.31
386.461	105.64
386.671	5.29
386.881	70.83
387.091	58.54
387.301	154.79
387.511	33.96
387.72	93.35
387.93	54.44
388.14	23.72
388.35	40.11
388.56	111.78
388.769	142.5
388.979	60.59
389.189	46.25
389.399	52.39
389.609	128.17
389.818	126.12
390.028	54.44
390.238	58.54
390.447	105.64
390.657	109.74
390.867	119.98
391.076	62.63
391.286	93.35
391.496	72.87
391.705	44.2
391.915	99.5
392.125	91.31
392.334	117.93
392.544	122.02
392.753	76.97
392.963	68.78
393.172	105.64
393.382	31.91
393.591	126.12
393.801	70.83
394.01	97.45
394.22	97.45
394.429	64.68
394.639	72.87
394.848	117.93
395.058	134.31
395.267	68.78
395.477	33.96
395.686	130.22
395.895	187.56
396.105	154.79
396.314	205.99
396.524	46.25
396.733	111.78
396.942	210.09
397.152	95.4
397.361	183.46
397.57	85.16
397.78	117.93
397.989	101.55
398.198	126.12
398.407	70.83
398.617	167.08
398.826	101.55
399.035	132.26
399.244	91.31
399.453	126.12
399.663	134.31
399.872	144.55
400.081	40.11
400.29	89.26
400.499	115.88
400.708	134.31
400.917	128.17
401.127	144.55
401.336	185.51
401.545	238.76
401.754	109.74
401.963	162.98
402.172	150.7
402.381	177.32
402.59	107.69
402.799	117.93
403.008	195.75
403.217	246.95
403.426	167.08
403.635	81.07
403.844	212.14
404.053	134.31
404.262	113.83
404.471	173.22
404.68	232.62
404.888	232.62
405.097	171.18
405.306	228.52
405.515	183.46
405.724	208.04
405.933	244.9
406.142	179.37
406.35	300.2
406.559	222.38
406.768	234.66
406.977	271.53
407.185	277.67
407.394	162.98
407.603	240.81
407.812	228.52
408.02	322.73
408.229	273.57
408.438	244.9
408.646	257.19
408.855	294.05
409.064	337.06
409.272	298.15
409.481	361.64
409.69	404.64
409.898	371.88
410.107	355.49
410.315	441.51
410.524	453.8
410.733	412.84
410.941	369.83
411.15	466.08
411.358	488.61
411.567	470.18
411.775	517.28
411.984	552.1
412.192	535.71
412.401	521.38
412.609	634.02
412.818	564.39
413.026	666.78
413.234	640.16
413.443	662.69
413.651	666.78
413.86	781.47
414.068	840.86
414.276	863.39
414.485	830.62
414.693	869.53
414.901	906.4
415.11	969.88
415.318	863.39
415.526	1068.19
415.734	842.91
415.943	1053.85
416.151	1053.85
416.359	1076.38
416.567	1064.09
416.776	1150.11
416.984	1240.22
417.192	1373.33
417.4	1315.99
417.608	1326.23
417.817	1375.38
418.025	1463.44
418.233	1518.74
418.441	1453.2
418.649	1531.03
418.857	1629.33
419.065	1715.34
419.273	1633.43
419.481	1678.48
419.689	1827.98
419.897	1969.29
420.105	1856.65
420.313	2086.03
420.521	2077.83
420.729	2034.83
420.937	2049.16
421.145	2282.63
421.353	2305.16
421.561	2479.24
421.769	2378.89
421.977	2727.04
422.185	2587.78
422.393	2692.23
422.601	2962.56
422.809	2927.74
423.017	2899.07
423.224	3046.52
423.432	3165.31
423.64	3144.83
423.848	3386.49
424.056	3292.28
424.263	3609.72
424.471	3650.67
424.679	3806.32
424.887	3906.67
425.094	4068.46
425.302	4062.32
425.51	4191.34
425.718	4455.53
425.925	4435.05
426.133	4674.66
426.341	4852.83
426.548	5039.2
426.756	5084.25
426.964	5254.23
427.171	5229.66
427.379	5481.56
427.586	5712.98
427.794	5862.48
428.001	6024.27
428.209	6362.19
428.417	6057.04
428.624	6638.66
428.832	6655.05
429.039	6595.65
429.247	6650.95
429.454	7195.71
429.662	7699.51
429.869	7228.48
430.076	7830.58
430.284	7558.2
430.491	7943.22
430.699	8096.82
430.906	8348.72
431.114	8412.2
431.321	8795.17
431.528	8879.14
431.736	9325.6
431.943	9806.87
432.15	9683.99
432.358	9647.13
432.565	9970.71
432.772	10234.89
432.979	10632.2
433.187	10941.44
433.394	10769.41
433.601	11801.59
433.808	11676.66
434.016	11566.07
434.223	12086.26
434.43	12792.81
434.637	12551.15
434.844	13325.28
435.052	13525.98
435.259	13485.02
435.466	13691.87
435.673	13466.59
435.88	14519.25
436.087	15006.66
436.294	14873.54
436.501	14734.28
436.708	14930.89
436.915	15610.81
437.122	16057.27
437.329	16280.5
437.537	16798.63
437.743	16718.76
437.95	16821.16
438.157	17578.91
438.364	18246.55
438.571	18402.19
438.778	18215.83
438.985	19925.88
439.192	19008.39
439.399	19753.85
439.606	19264.39
439.813	20509.55
440.02	21609.31
440.227	21259.11
440.433	20992.87
440.64	21754.72
440.847	21568.35
441.054	22041.43
441.261	23933.76
441.467	23493.44
441.674	23685.95
441.881	24621.87
442.088	24308.54
442.294	24199.99
442.501	24896.3
442.708	25482.02
442.914	26434.33
443.121	27620.1
443.328	26702.61
443.534	28504.82
443.741	28056.32
443.948	27456.26
444.154	29508.33
444.361	29393.64
444.568	29438.7
444.774	29387.5
444.981	29403.88
445.187	30446.3
445.394	31826.63
445.6	31900.36
445.807	34366.11
446.013	33116.85
446.22	33231.54
446.426	35089.04
446.633	35052.18
446.839	36293.25
447.046	35175.06
447.252	36471.42
447.459	36575.87
447.665	36594.3
447.871	38152.8
448.078	40100.42
448.284	37923.43
448.491	38906.46
448.697	40510.02
448.903	41321.01
449.11	41413.17
449.316	40411.71
449.522	41583.15
449.728	42435.11
449.935	42992.15
450.141	42402.34
450.347	43524.63
450.553	42113.58
450.76	42547.75
450.966	44288.52
451.172	43350.55
451.378	45175.29
451.584	44114.44
451.791	45099.51
451.997	45050.36
452.203	45306.36
452.409	45685.23
452.615	45668.85
452.821	43514.39
453.027	42818.08
453.233	45236.73
453.44	43475.48
453.646	44114.44
453.852	44075.53
454.058	45261.3
454.264	43907.6
454.47	44622.34
454.676	44022.28
454.882	44976.64
455.088	41155.13
455.294	41781.81
455.5	42549.79
455.705	42949.15
455.911	41351.73
456.117	40581.7
456.323	40309.32
456.529	38034.02
456.735	39508.56
456.941	38328.93
457.147	38070.89
457.352	36817.53
457.558	36338.3
457.764	36534.91
457.97	36076.16
458.176	35361.42
458.381	35074.71
458.587	33671.85
458.793	33465
458.999	31449.8
459.204	34024.1
459.41	33198.77
459.616	30819.03
459.821	30978.77
460.027	30894.8
460.233	29950.69
460.438	28564.21
460.644	29059.82
460.85	27448.07
461.055	27071.25
461.261	27038.48
461.466	24845.1
461.672	24429.37
461.878	25920.29
462.083	24369.97
462.289	23948.09
462.494	23399.24
462.7	22334.29
462.905	22043.48
463.111	22823.76
463.316	22901.58
463.522	22250.33
463.727	22195.03
463.932	22106.97
464.138	21771.1
464.343	22096.73
464.549	21298.02
464.754	21666.66
464.959	21855.07
465.165	21437.28
465.37	20630.38
465.575	20140.92
465.781	21115.75
465.986	20976.49
466.191	20380.53
466.397	19680.13
466.602	19032.97
466.807	19757.95
467.012	19753.85
467.218	19487.62
467.423	19262.34
467.628	19360.64
467.833	20038.52
468.038	19450.75
468.244	18912.14
468.449	19557.25
468.654	18922.38
468.859	18447.25
469.064	18598.8
469.269	17849.24
469.474	18115.48
469.679	18211.73
469.885	17974.17
470.09	17843.1
470.295	17882.01
470.5	17417.12
470.705	17836.95
470.91	17329.06
471.115	17339.3
471.32	17394.59
471.525	17478.56
471.73	16853.93
471.935	16722.86
472.139	16198.58
472.344	16118.71
472.549	16180.15
472.754	15969.21
472.959	15725.5
473.164	15360.96
473.369	15399.87
473.574	15756.22
473.778	15438.78
473.983	15385.54
474.188	15133.64
474.393	14832.58
474.598	14902.22
474.802	14513.1
475.007	14425.04
475.212	14779.34
475.417	14003.16
475.621	14271.44
475.826	13896.66
476.031	14134.23
476.235	13540.32
476.44	13751.26
476.645	13511.64
476.849	13458.4
477.054	13126.63
477.259	12948.45
477.463	13024.23
477.668	12712.94
477.872	12921.83
478.077	12844.01
478.282	12297.2
478.486	12385.26
478.691	12184.56
478.895	12246
479.1	12186.61
479.304	12196.85
479.509	11858.93
479.713	11832.31
479.918	11686.9
480.122	11545.59
480.326	11820.02
480.531	11742.2
480.735	11609.08
480.94	11615.23
481.144	11871.22
481.348	11537.4
481.553	11301.89
481.757	11183.1
481.961	11402.24
482.166	11578.36
482.37	11406.33
482.574	10963.97
482.778	11078.66
482.983	11400.19
483.187	11414.52
483.391	11193.34
483.595	10959.88
483.8	10900.48
484.004	11127.81
484.208	11179.01
484.412	11019.27
484.616	11219.97
484.821	11039.75
485.025	10966.02
485.229	11230.21
485.433	11072.51
485.637	11273.21
485.841	11162.62
486.045	11160.58
486.249	10996.74
486.453	10986.5
486.657	11342.85
486.861	11111.43
487.065	10939.4
487.269	11029.51
487.473	11062.27
487.677	11027.46
487.881	11129.86
488.085	11070.47
488.289	11336.7
488.493	10988.55
488.697	11291.65
488.901	11310.08
489.105	11095.04
489.309	10951.68
489.512	11144.19
489.716	11103.23
489.92	11119.62
490.124	11027.46
490.328	11334.65
490.531	11224.06
490.735	11301.89
490.939	11213.82
491.143	11103.23
491.346	11242.5
491.55	11381.76
491.754	11471.87
491.958	11695.1
492.161	11545.59
492.365	11392
492.569	11602.94
492.772	11420.67
492.976	11418.62
493.18	11754.49
493.383	11824.12
493.587	11903.99
493.79	12110.83
493.994	11750.39
494.197	11910.13
494.401	11826.17
494.605	11860.98
494.808	12055.54
495.012	12110.83
495.215	12483.56
495.419	12393.45
495.622	12510.19
495.825	12381.17
496.029	12555.24
496.232	12768.23
496.436	12796.9
496.639	12903.4
496.843	12876.77
497.046	12895.21
497.249	13343.71
497.453	13315.04
497.656	13525.98
497.859	13519.84
498.063	13759.45
498.266	13847.51
498.469	13691.87
498.673	14031.83
498.876	14027.73
499.079	14042.07
499.282	14044.12
499.485	14623.69
499.689	14683.08
499.892	14592.97
500.095	14873.54
500.298	15193.03
500.501	14900.17
500.705	15412.16
500.908	15850.42
501.111	15625.15
501.314	15606.72
501.517	16006.07
501.72	16075.7
501.923	16366.51
502.126	16761.77
502.329	16833.45
502.532	16800.68
502.735	16993.19
502.938	17402.79
503.141	17466.27
503.344	17648.54
503.547	17740.7
503.75	17812.38
503.953	18111.38
504.156	18135.96
504.359	18441.11
504.562	18486.16
504.765	18922.38
504.968	19149.7
505.17	19149.7
505.373	19241.86
505.576	19708.8
505.779	19719.04
505.982	19927.93
506.185	20081.53
506.387	20374.39
506.59	20521.84
506.793	20964.2
506.996	20749.17
507.198	21252.97
507.401	21394.28
507.604	21461.86
507.807	21875.55
508.009	22211.42
508.212	22293.33
508.415	22424.4
508.617	22770.51
508.82	22995.79
509.022	22555.47
509.225	22987.6
509.428	23585.6
509.63	23653.19
509.833	23622.47
510.035	24589.11
510.238	24255.29
510.44	24656.69
510.643	24652.59
510.845	25303.85
511.048	25185.07
511.25	25617.19
511.453	25606.95
511.655	26741.52
511.858	25991.97
512.06	26391.32
512.262	26743.57
512.465	26651.41
512.667	27095.82
512.87	27237.13
513.072	27306.76
513.274	28060.41
513.477	28066.56
513.679	28173.05
513.881	28652.28
514.084	28812.02
514.286	28678.9
514.488	29299.44
514.69	29739.75
514.893	29874.91
515.095	30022.37
515.297	30378.72
515.499	30048.99
515.701	30384.86
515.904	30997.2
516.106	31439.56
516.308	31838.92
516.51	32017.09
516.712	31566.54
516.914	32219.84
517.116	32268.99
517.318	32656.06
517.52	33024.69
517.722	33145.52
517.925	33604.27
518.127	33776.3
518.329	33784.49
518.531	33743.53
518.733	34843.29
518.935	34650.78
519.136	35025.56
519.338	35050.13
519.54	35306.13
519.742	35515.02
519.944	35699.34
520.146	36256.39
520.348	36381.31
520.55	36297.34
520.752	36708.99
520.954	36915.83
521.155	36930.17
521.357	37065.33
521.559	37313.14
521.761	37954.15
521.963	37708.4
522.164	37886.57
522.366	37884.52
522.568	38576.73
522.77	38292.07
522.971	38910.55
523.173	38488.67
523.375	39361.11
523.576	38961.75
523.778	39010.9
523.98	39608.91
524.181	39920.2
524.383	39383.63
524.584	40073.8
524.786	40153.67
524.988	39672.4
525.189	40565.31
525.391	40610.37
525.592	40372.8
525.794	40616.51
525.995	40768.06
526.197	40886.84
526.398	41128.5
526.6	41376.31
526.801	41212.47
527.003	41153.08
527.204	41511.47
527.406	41622.06
527.607	41667.12
527.808	41787.95
528.01	41095.74
528.211	41366.07
528.412	42043.95
528.614	41839.15
528.815	42064.42
529.016	42308.13
529.218	41742.89
529.419	41837.1
529.62	41949.74
529.822	41642.54
530.023	41765.42
530.224	41718.32
530.425	41902.64
530.626	41372.21
530.828	41169.46
531.029	42353.19
531.23	41759.28
531.431	41742.89
531.632	41771.57
531.833	42211.88
532.035	42007.08
532.236	41620.02
532.437	42222.12
532.638	41454.13
532.839	42320.42
533.04	41894.44
533.241	41744.94
533.442	42279.46
533.643	41966.12
533.844	41370.16
534.045	41757.23
534.246	41386.55
534.447	42215.97
534.648	41849.39
534.849	41900.59
535.05	41261.62
535.251	41251.38
535.451	41185.85
535.652	41495.09
535.853	41476.66
536.054	41499.19
536.255	41347.64
536.456	41175.61
536.657	41792.04
536.857	41372.21
537.058	41257.53
537.259	41574.96
537.46	41501.23
537.66	41239.09
537.861	41361.97
538.062	41126.46
538.263	41179.7
538.463	40653.37
538.664	40800.83
538.865	41361.97
539.065	41028.15
539.266	40127.05
539.466	41304.63
539.667	40860.22
539.868	41175.61
540.068	40827.45
540.269	40759.87
540.469	41196.09
540.67	40417.86
540.87	40354.37
541.071	40565.31
541.271	40907.32
541.472	40815.16
541.672	40561.22
541.873	40342.08
542.073	40399.43
542.274	40901.18
542.474	40311.36
542.675	40213.06
542.875	40763.96
543.075	40419.91
543.276	39887.43
543.476	41048.63
543.676	40622.65
543.877	40356.42
544.077	40675.9
544.277	40247.88
544.478	40593.98
544.678	40507.97
544.878	40294.98
545.078	40618.56
545.279	40024.65
545.479	40524.35
545.679	40516.16
545.879	40383.04
546.079	40092.23
546.28	40190.53
546.48	40303.17
546.68	40168.01
546.88	40194.63
547.08	40442.43
547.28	40133.19
547.48	39817.8
547.68	40458.82
547.88	40243.78
548.081	40469.06
548.281	40270.4
548.481	40407.62
548.681	40655.42
548.881	40299.08
549.081	39893.58
549.28	40403.52
549.48	40383.04
549.68	40090.18
549.88	40901.18
550.08	40366.66
550.28	40546.88
550.48	40065.61
550.68	40669.76
550.88	40393.28
551.08	40153.67
551.279	40591.94
551.479	40411.71
551.679	40911.42
551.879	40450.63
552.079	40952.38
552.278	40206.92
552.478	40239.68
552.678	40583.74
552.878	40636.99
553.077	40501.82
553.277	40208.97
553.477	40925.75
553.676	40315.46
553.876	40307.27
554.076	40215.11
554.275	40335.94
554.475	40174.15
554.674	40804.92
554.874	40766.01
555.074	40653.37
555.273	40682.05
555.473	40938.04
555.672	40608.32
555.872	40454.72
556.071	40639.04
556.271	40897.08
556.47	40489.54
556.67	40245.83
556.869	40452.67
557.068	40591.94
557.268	40483.39
557.467	40772.16
557.667	40841.79
557.866	40892.99
558.065	40727.1
558.265	40383.04
558.464	40446.53
558.663	40923.71
558.863	40348.23
559.062	41030.2
559.261	40589.89
559.461	41206.33
559.66	40280.64
559.859	40903.23
560.058	40458.82
560.258	40665.66
560.457	40505.92
560.656	40763.96
560.855	40604.22
561.054	40563.26
561.253	40710.72
561.453	40526.4
561.652	40825.4
561.851	41032.25
562.05	40696.38
562.249	40546.88
562.448	40555.07
562.647	40772.16
562.846	40673.85
563.045	40387.14
563.244	40090.18
563.443	41067.06
563.642	39885.39
563.841	40161.86
564.04	40215.11
564.239	40667.71
564.438	39838.28
564.637	40653.37
564.836	40254.02
565.035	40137.29
565.234	40403.52
565.432	40014.41
565.631	39807.56
565.83	40294.98
566.029	39832.14
566.228	39946.83
566.427	39686.73
566.625	39840.33
566.824	39483.98
567.023	39770.7
567.222	39174.74
567.42	39887.43
567.619	39496.27
567.818	39361.11
568.016	39230.04
568.215	39631.44
568.414	39213.65
568.612	39162.45
568.811	38933.08
569.01	39252.56
569.208	38982.23
569.407	39516.75
569.605	39043.67
569.804	38916.7
570.002	38836.83
570.201	38994.52
570.4	38746.72
570.598	38390.37
570.797	38601.31
570.995	38636.13
571.193	38179.43
571.392	38462.05
571.59	38300.26
571.789	38484.58
571.987	38318.69
572.186	37884.52
572.384	37814.89
572.582	37999.21
572.781	38199.91
572.979	37425.78
573.177	37825.13
573.376	37661.29
573.574	37339.76
573.772	37747.31
573.971	37333.62
574.169	37315.19
574.367	37106.29
574.565	37153.4
574.763	37306.99
574.962	37081.72
575.16	36768.38
575.358	36782.71
575.556	36225.67
575.754	36975.22
575.952	36377.22
576.151	36768.38
576.349	36432.51
576.547	36516.48
576.745	36221.57
576.943	36280.96
577.141	35695.24
577.339	36125.32
577.537	35920.52
577.735	36190.85
577.933	35748.49
578.131	35719.82
578.329	35818.12
578.527	35506.83
578.725	35469.97
578.923	35283.6
579.121	35138.19
579.319	34882.2
579.516	35310.22
579.714	34994.84
579.912	34818.71
580.11	34681.5
580.308	34906.77
580.506	34704.03
580.704	34339.49
580.901	34833.05
581.099	34775.7
581.297	34425.5
581.495	34208.42
581.692	34220.7
581.89	33970.85
582.088	34153.12
582.285	33915.56
582.483	34144.93
582.681	33911.46
582.878	33657.51
583.076	33602.22
583.274	33962.66
583.471	33051.31
583.669	33239.73
583.866	33084.08
584.064	33485.48
584.262	33133.23
584.459	33172.14
584.657	33088.18
584.854	33389.23
585.052	32731.83
585.249	32934.58
585.447	32989.88
585.644	32268.99
585.841	32948.92
586.039	33170.1
586.236	32531.13
586.434	32268.99
586.631	32490.17
586.828	32594.62
587.026	32344.77
587.223	32715.45
587.42	31793.86
587.618	32150.21
587.815	31896.26
588.012	32027.33
588.21	31591.11
588.407	32158.4
588.604	31824.58
588.801	31439.56
588.999	31652.55
589.196	31496.91
589.393	31183.57
589.59	31281.87
589.787	31242.96
589.984	31111.89
590.182	31093.46
590.379	31179.47
590.576	31267.53
590.773	31011.54
590.97	30720.73
591.167	30782.16
591.364	30722.77
591.561	31093.46
591.758	30522.07
591.955	30499.55
592.152	30827.22
592.349	30438.11
592.546	30903
592.743	30456.54
592.94	29956.83
593.137	30264.03
593.334	30366.43
593.531	29561.58
593.727	30171.87
593.924	30311.13
594.121	29430.51
594.318	29823.72
594.515	29692.65
594.712	29985.51
594.908	29965.03
595.105	30245.6
595.302	29702.89
595.499	30053.09
595.696	29416.17
595.892	29287.15
596.089	29780.71
596.286	29635.3
596.482	29584.1
596.679	29762.28
596.876	29631.21
597.072	29612.77
597.269	29383.4
597.466	29520.62
597.662	29182.7
597.859	28889.84
598.055	29276.91
598.252	28977.9
598.448	28795.64
598.645	28889.84
598.841	28515.06
599.038	29113.07
599.234	29176.56
599.431	28658.42
599.627	28781.3
599.824	29051.63
600.02	28254.97
600.217	28779.25
600.413	28791.54
600.609	28607.22
600.806	28740.34
601.002	28828.4
601.198	28922.61
601.395	28750.58
601.591	28895.99
601.787	28605.17
601.984	28420.86
602.18	29090.54
602.376	28412.67
602.572	28766.96
602.769	28609.27
602.965	28551.93
603.161	28457.72
603.357	28355.32
603.553	28553.97
603.75	28625.65
603.946	28396.28
604.142	28631.8
604.338	27945.73
604.534	28730.1
604.73	28138.24
604.926	28138.24
605.122	28412.67
605.318	28300.03
605.514	28232.44
605.71	28379.9
605.906	28345.08
606.102	28578.55
606.298	28529.4
606.494	28398.33
606.69	28367.61
606.886	28427
607.082	28295.93
607.278	28021.5
607.474	28332.79
607.67	28529.4
607.866	27945.73
608.062	28402.43
608.257	28248.83
608.453	28207.87
608.649	28666.61
608.845	28316.41
609.041	28668.66
609.236	28443.38
609.432	28451.58
609.628	28523.26
609.824	28183.29
610.019	28340.99
610.215	28603.13
610.411	28797.68
610.606	28418.81
610.802	28402.43
610.998	28461.82
611.193	28277.5
611.389	28465.91
611.584	28267.26
611.78	28191.48
611.976	28285.69
612.171	28359.42
612.367	28832.5
612.562	28306.17
612.758	28134.14
612.953	28365.56
613.149	28517.11
613.344	28025.6
613.539	28629.75
613.735	28531.45
613.93	28474.1
614.126	28289.79
614.321	28734.2
614.517	28201.72
614.712	28183.29
614.907	28031.74
615.103	28517.11
615.298	28257.02
615.493	28855.03
615.688	27826.95
615.884	28838.64
616.079	28216.06
616.274	28242.68
616.47	28441.34
616.665	28367.61
616.86	28340.99
617.055	28156.67
617.25	28347.13
617.445	28099.33
617.641	27888.39
617.836	28273.4
618.031	27327.24
618.226	28244.73
618.421	27618.05
618.616	27974.4
618.811	27667.2
619.006	27781.89
619.201	27241.23
619.396	27708.16
619.591	27255.56
619.786	27781.89
619.981	27116.3
620.176	27390.73
620.371	27081.49
620.566	27175.69
620.761	26751.76
620.956	27298.57
621.151	26647.32
621.346	27052.81
621.541	26372.89
621.735	26805.01
621.93	26235.67
622.125	26512.15
622.32	25840.42
622.515	26202.91
622.709	25791.27
622.904	26043.17
623.099	25887.52
623.294	25830.18
623.488	25606.95
623.683	25469.73
623.878	25596.71
624.072	25359.14
624.267	25129.77
624.462	25082.67
624.656	25019.18
624.851	24812.34
625.046	24877.87
625.24	24828.72
625.435	24705.84
625.629	24619.83
625.824	24372.02
626.018	24603.44
626.213	23767.87
626.407	23937.85
626.602	23661.38
626.796	23817.02
626.991	23755.58
627.185	23434.05
627.38	23477.06
627.574	23204.68
627.768	23014.22
627.963	23149.39
628.157	23008.08
628.352	22836.05
628.546	22711.12
628.74	22655.82
628.935	22635.35
629.129	22731.6
629.323	22233.94
629.517	22094.68
629.712	22315.86
629.906	22324.05
630.1	21853.02
630.294	21746.53
630.489	21756.77
630.683	21902.17
630.877	21502.82
631.071	21472.1
631.265	21527.39
631.459	21248.87
631.653	21015.4
631.848	20855.66
632.042	20923.24
632.236	21015.4
632.43	20718.45
632.624	20872.04
632.818	20640.62
633.012	20689.77
633.206	20323.19
633.4	20515.7
633.594	20015.99
633.788	20034.42
633.982	20153.21
634.176	20028.28
634.369	19866.49
634.563	19747.71
634.757	19422.08
634.951	19530.62
635.145	19395.46
635.339	19377.03
635.533	19417.99
635.726	19280.77
635.92	19213.19
636.114	18967.43
636.308	18889.61
636.501	18695.05
636.695	18602.89
636.889	19006.34
637.083	18799.5
637.276	18201.49
637.47	18289.56
637.664	18142.1
637.857	18119.57
638.051	18008.98
638.244	17740.7
638.438	17843.1
638.632	17882.01
638.825	17501.09
639.019	17460.13
639.212	17482.66
639.406	17480.61
639.599	17218.47
639.793	17390.5
639.986	16997.29
640.18	16960.42
640.373	16976.81
640.567	16724.91
640.76	16933.8
640.954	16442.29
641.147	16569.26
641.34	16440.24
641.534	16618.41
641.727	16462.77
641.92	16137.14
642.114	16020.41
642.307	15889.34
642.5	15741.88
642.694	15768.51
642.887	15774.65
643.08	15692.73
643.273	15909.82
643.467	15393.73
643.66	15293.38
643.853	15250.37
644.046	15199.17
644.239	14896.07
644.432	15190.98
644.626	14920.65
644.819	14916.55
645.012	14871.5
645.205	14695.37
645.398	14629.84
645.591	14332.88
645.784	14564.3
645.977	14408.65
646.17	14363.6
646.363	14222.29
646.556	13992.92
646.749	13906.9
646.942	14296.02
647.135	13824.98
647.328	13949.91
647.521	13753.3
647.714	13695.96
647.907	13804.5
648.099	13675.48
648.292	13687.77
648.485	13517.79
648.678	13124.58
648.871	13716.44
649.064	13042.66
649.256	13327.33
649.449	13112.29
649.642	12934.12
649.835	12817.38
650.027	12866.53
650.22	12739.56
650.413	12561.39
650.605	12770.28
650.798	12768.23
650.991	12282.86
651.183	12504.04
651.376	12504.04
651.568	12442.6
651.761	12037.11
651.954	12309.49
652.146	12157.94
652.339	12073.97
652.531	12096.5
652.724	11914.23
652.916	11820.02
653.109	11885.56
653.301	11639.8
653.494	11699.19
653.686	11611.13
653.879	11668.47
654.071	11621.37
654.263	11682.81
654.456	11361.28
654.648	11385.85
654.84	11058.18
655.033	11105.28
655.225	11211.78
655.417	11119.62
655.61	11084.8
655.802	11148.29
655.994	11056.13
656.186	11023.36
656.379	10802.18
656.571	10875.91
656.763	10587.15
656.955	10525.71
657.148	10656.78
657.34	10773.51
657.532	10568.71
657.724	10464.27
657.916	10570.76
658.108	10591.24
658.3	10554.38
658.492	10550.28
658.684	10046.48
658.876	10114.06
659.068	10097.68
659.26	9997.33
659.452	10015.76
659.644	10021.91
659.836	10005.52
660.028	10169.36
660.22	9626.65
660.412	9622.55
660.604	9813.01
660.796	9567.26
660.988	9669.66
661.18	9583.64
661.372	9419.8
661.563	9630.74
661.755	9172
661.947	9243.68
662.139	9258.01
662.331	9030.69
662.522	9174.05
662.714	9147.42
662.906	9075.74
663.097	8993.83
663.289	9071.65
663.481	8811.56
663.673	8881.19
663.864	8711.21
664.056	8727.59
664.247	8647.72
664.439	8528.94
664.631	8668.2
664.822	8666.15
665.014	8533.03
665.205	8510.5
665.397	8264.75
665.588	8541.22
665.78	8272.94
665.971	8326.19
666.163	8248.36
666.354	8295.47
666.546	8336.43
666.737	8207.41
666.929	8246.32
667.12	8135.73
667.311	8059.95
667.503	7963.7
667.694	7947.31
667.885	7859.25
668.077	7990.32
668.268	7924.79
668.459	7881.78
668.651	7795.76
668.842	7853.11
669.033	7715.89
669.224	7795.76
669.416	7957.55
669.607	7865.39
669.798	7627.83
669.989	7650.36
670.18	7646.26
670.371	7529.53
670.563	7373.88
670.754	7453.75
670.945	7560.25
671.136	7365.69
671.327	7439.42
671.518	7533.62
671.709	7334.97
671.9	7441.47
672.091	7298.11
672.282	7195.71
672.473	7175.23
672.664	7226.43
672.855	7160.89
673.046	7093.31
673.237	7101.5
673.428	7044.16
673.619	7019.58
673.809	7074.88
674	7025.73
674.191	6941.76
674.382	6974.53
674.573	7140.41
674.764	7044.16
674.954	7099.45
675.145	6767.68
675.336	6925.38
675.527	6630.47
675.717	6851.65
675.908	6714.44
676.099	6696
676.289	6753.35
676.48	6661.19
676.671	6581.32
676.861	6728.77
677.052	6571.08
677.243	6616.13
677.433	6642.76
677.624	6700.1
677.814	6560.84
678.005	6693.96
678.195	6691.91
678.386	6607.94
678.576	6503.5
678.767	6392.91
678.957	6460.49
679.148	6698.05
679.338	6591.56
679.529	6433.86
679.719	6386.76
679.909	6655.05
680.1	6526.02
680.29	6507.59
680.481	6397
680.671	6392.91
680.861	6315.08
681.052	6313.03
681.242	6368.33
681.432	6536.26
681.622	6347.85
681.813	6308.94
682.003	6186.06
682.193	6050.89
682.383	6284.36
682.573	6151.24
682.764	6196.3
682.954	6192.2
683.144	6171.72
683.334	6098
683.524	6171.72
683.714	6351.95
683.904	6048.85
684.094	6079.57
684.284	6171.72
684.474	6087.76
684.664	6067.28
684.854	6048.85
685.044	6106.19
685.234	6020.17
685.424	6032.46
685.614	5958.74
685.804	6132.81
685.994	5934.16
686.184	6091.85
686.374	5938.26
686.564	6040.65
686.753	5895.25
686.943	5708.88
687.133	5876.82
687.323	5735.51
687.513	5786.71
687.702	5651.54
687.892	5690.45
688.082	5737.56
688.272	5696.6
688.461	5717.08
688.651	5696.6
688.841	5588.05
689.03	5682.26
689.22	5508.18
689.41	5590.1
689.599	5594.2
689.789	5385.3
689.979	5688.4
690.168	5532.76
690.358	5340.25
690.547	5440.6
690.737	5506.13
690.926	5370.97
691.116	5243.99
691.305	5450.84
691.495	5340.25
691.684	5282.91
691.874	5368.92
692.063	5418.07
692.252	5153.88
692.442	5164.12
692.631	5176.41
692.82	5231.71
693.01	5129.31
693.199	5082.21
693.388	4973.66
693.578	5121.12
693.767	4979.81
693.956	5069.92
694.146	5024.86
694.335	5086.3
694.524	4979.81
694.713	5102.68
694.902	4979.81
695.092	5024.86
695.281	4992.09
695.47	4961.37
695.659	4949.09
695.848	5012.57
696.037	4938.85
696.226	4940.9
696.415	4875.36
696.604	4820.07
696.793	4891.74
696.982	4858.98
697.171	4750.43
697.36	4783.2
697.549	4537.45
697.738	4664.42
697.927	4713.57
698.116	4639.84
698.305	4641.89
698.494	4619.36
698.683	4486.25
698.872	4670.56
699.061	4621.41
699.25	4543.59
699.438	4676.71
699.627	4652.13
699.816	4641.89
700.005	4621.41
700.193	4486.25
700.382	4715.62
700.571	4607.08
700.76	4447.33
700.948	4469.86
701.137	4416.62
701.326	4361.32
701.514	4379.75
701.703	4344.94
701.892	4371.56
702.08	4516.97
702.269	4471.91
702.457	4320.36
702.646	4363.37
702.834	4449.38
703.023	4410.47
703.212	4279.4
703.4	4267.11
703.589	4248.68
703.777	4346.98
703.965	4246.63
704.154	4299.88
704.342	4166.76
704.531	4265.07
704.719	4174.95
704.907	4191.34
705.096	4228.2
705.284	4207.72
705.472	4172.91
705.661	4148.33
705.849	4156.52
706.037	4131.95
706.226	4041.84
706.414	4025.45
706.602	4131.95
706.79	4078.7
706.979	4039.79
707.167	4074.6
707.355	3882.1
707.543	4084.84
707.731	4013.17
707.919	4099.18
708.107	3941.49
708.296	3898.48
708.484	3806.32
708.672	3949.68
708.86	3966.06
709.048	3961.97
709.236	3896.43
709.424	4029.55
709.612	3873.9
709.8	3921.01
709.988	3982.45
710.176	3894.38
710.364	3873.9
710.551	3810.42
710.739	3869.81
710.927	3871.86
711.115	3716.21
711.303	3791.98
711.491	3814.51
711.679	3800.18
711.866	3755.12
712.054	3757.17
712.242	3591.28
712.43	3806.32
712.617	3689.59
712.805	3701.87
712.993	3751.03
713.181	3517.56
713.368	3658.87
713.556	3740.79
713.744	3527.8
713.931	3730.55
714.119	3656.82
714.306	3519.6
714.494	3650.67
714.682	3583.09
714.869	3464.31
715.057	3562.61
715.244	3482.74
715.432	3574.9
715.619	3603.57
715.807	3474.55
715.994	3411.06
716.182	3503.22
716.369	3540.08
716.556	3476.6
716.744	3388.53
716.931	3460.21
717.119	3570.8
717.306	3497.08
717.493	3392.63
717.681	3279.99
717.868	3443.83
718.055	3312.76
718.242	3249.27
718.43	3427.45
718.617	3314.81
718.804	3271.8
718.991	3353.72
719.179	3355.77
719.366	3351.67
719.553	3300.47
719.74	3271.8
719.927	3357.82
720.114	3308.66
720.301	3185.79
720.488	3265.66
720.676	3288.18
720.863	3333.24
721.05	3241.08
721.237	3312.76
721.424	3136.63
721.611	3304.57
721.798	3140.73
721.985	3101.82
722.172	3136.63
722.358	3181.69
722.545	3296.38
722.732	3087.48
722.919	3120.25
723.106	3183.74
723.293	3050.62
723.48	3134.59
723.667	3099.77
723.853	3021.95
724.04	3157.11
724.227	2935.93
724.414	2964.61
724.6	3017.85
724.787	3087.48
724.974	3009.66
725.161	3030.14
725.347	2954.37
725.534	3036.28
725.72	3142.78
725.907	3040.38
726.094	3112.06
726.28	3058.81
726.467	2856.06
726.653	2974.85
726.84	2931.84
727.027	2968.7
727.213	2849.92
727.4	2864.25
727.586	2780.29
727.773	3036.28
727.959	2931.84
728.145	2849.92
728.332	2919.55
728.518	2952.32
728.705	2903.17
728.891	2866.3
729.077	2862.21
729.264	2942.08
729.45	2856.06
729.636	3034.24
729.823	2839.68
730.009	2839.68
730.195	2849.92
730.382	2911.36
730.568	2774.14
730.754	2739.33
730.94	2845.82
731.126	2804.86
731.313	2901.12
731.499	2727.04
731.685	2727.04
731.871	2817.15
732.057	2757.76
732.243	2825.34
732.429	2817.15
732.615	2794.62
732.801	2684.03
732.987	2722.95
733.173	2804.86
733.359	2673.79
733.545	2643.07
733.731	2587.78
733.917	2784.38
734.103	2641.03
734.289	2708.61
734.475	2663.55
734.661	2690.18
734.847	2681.99
735.033	2645.12
735.219	2530.44
735.404	2544.77
735.59	2626.69
735.776	2567.3
735.962	2632.83
736.148	2565.25
736.333	2626.69
736.519	2624.64
736.705	2702.47
736.89	2542.72
737.076	2505.86
737.262	2526.34
737.447	2501.76
737.633	2436.23
737.819	2452.61
738.004	2479.24
738.19	2624.64
738.375	2387.08
738.561	2434.18
738.747	2559.11
738.932	2331.78
739.118	2614.4
739.303	2612.35
739.489	2419.85
739.674	2348.17
739.859	2385.03
740.045	2432.13
740.23	2444.42
740.416	2299.02
740.601	2364.55
740.786	2303.11
740.972	2421.89
741.157	2376.84
741.342	2313.35
741.528	2307.21
741.713	2329.74
741.898	2256.01
742.084	2305.16
742.269	2411.65
742.454	2284.68
742.639	2354.31
742.824	2217.1
743.01	2313.35
743.195	2331.78
743.38	2200.71
743.565	2129.03
743.75	2210.95
743.935	2157.71
744.12	2157.71
744.305	2233.48
744.49	2219.14
744.675	2167.95
744.86	2090.12
745.045	2202.76
745.23	2157.71
745.415	2139.27
745.6	2008.2
745.785	2081.93
745.97	2161.8
746.155	2075.79
746.34	2124.94
746.525	1924.24
746.71	2071.69
746.895	1987.72
747.079	1954.96
747.264	1954.96
747.449	2004.11
747.634	2092.17
747.819	1950.86
748.003	1862.8
748.188	2002.06
748.373	1840.27
748.557	1989.77
748.742	1936.53
748.927	2034.83
749.111	1864.85
749.296	1805.46
749.481	1840.27
749.665	1961.1
749.85	1836.17
750.034	1840.27
750.219	1793.17
750.404	1780.88
750.588	1721.49
750.773	1717.39
750.957	1801.36
751.141	1746.06
751.326	1735.82
751.51	1608.85
751.695	1651.86
751.879	1686.67
752.064	1776.78
752.248	1694.86
752.432	1698.96
752.617	1653.91
752.801	1698.96
752.985	1651.86
753.17	1653.91
753.354	1645.71
753.538	1639.57
753.722	1658
753.907	1578.13
754.091	1477.78
754.275	1569.94
754.459	1463.44
754.643	1617.04
754.828	1627.28
755.012	1608.85
755.196	1469.59
755.38	1432.72
755.564	1434.77
755.748	1535.12
755.932	1463.44
756.116	1535.12
756.3	1506.45
756.484	1461.4
756.668	1420.44
756.852	1414.29
757.036	1451.16
757.22	1387.67
757.404	1289.37
757.588	1307.8
757.772	1346.71
757.956	1326.23
758.14	1322.13
758.323	1318.04
758.507	1315.99
758.691	1348.76
758.875	1356.95
759.059	1305.75
759.242	1338.52
759.426	1350.81
759.61	1281.18
759.794	1332.37
759.977	1379.48
760.161	1340.57
760.345	1246.36
760.528	1272.98
760.712	1225.88
760.895	1205.4
761.079	1272.98
761.263	1119.39
761.446	1199.26
761.63	1244.31
761.813	1236.12
761.997	1236.12
762.18	1170.58
762.364	1137.82
762.547	1084.57
762.731	1174.68
762.914	1150.11
763.098	1141.91
763.281	1191.06
763.464	1103
763.648	1113.24
763.831	1027.23
764.015	1109.15
764.198	1113.24
764.381	1154.2
764.564	1049.75
764.748	1156.25
764.931	1119.39
765.114	1084.57
765.297	1100.95
765.481	1049.75
765.664	1027.23
765.847	1121.43
766.03	1094.81
766.213	1051.8
766.397	1072.28
766.58	1027.23
766.763	1023.13
766.946	1023.13
767.129	1072.28
767.312	1084.57
767.495	1086.62
767.678	949.4
767.861	1072.28
768.044	1012.89
768.227	961.69
768.41	949.4
768.593	1019.04
768.776	1084.57
768.959	969.88
769.142	896.16
769.324	847.01
769.507	969.88
769.69	1008.8
769.873	1086.62
770.056	998.56
770.239	926.88
770.421	1062.04
770.604	937.12
770.787	1004.7
770.97	885.92
771.152	887.97
771.335	1021.08
771.518	906.4
771.7	1051.8
771.883	967.84
772.066	887.97
772.248	922.78
772.431	887.97
772.613	916.64
772.796	863.39
772.978	910.49
773.161	978.08
773.343	855.2
773.526	863.39
773.708	760.99
773.891	830.62
774.073	875.68
774.256	793.76
774.438	928.92
774.621	863.39
774.803	834.72
774.985	834.72
775.168	857.25
775.35	769.18
775.532	834.72
775.715	760.99
775.897	797.85
776.079	752.8
776.261	810.14
776.444	822.43
776.626	853.15
776.808	834.72
776.99	728.22
777.173	756.9
777.355	758.94
777.537	822.43
777.719	760.99
777.901	650.4
778.083	756.9
778.265	662.69
778.447	722.08
778.629	597.15
778.811	713.89
778.993	693.41
779.175	734.37
779.357	687.26
779.539	699.55
779.721	726.18
779.903	674.98
780.085	642.21
780.267	701.6
780.449	711.84
780.631	568.48
780.812	736.42
780.994	695.46
781.176	601.25
781.358	613.54
781.54	646.3
781.721	609.44
781.903	560.29
782.085	644.26
782.267	769.18
782.448	576.67
782.63	539.81
782.812	552.1
782.993	621.73
783.175	677.02
783.357	574.63
783.538	625.83
783.72	552.1
783.901	586.91
784.083	591.01
784.264	511.14
784.446	502.95
784.627	494.76
784.809	568.48
784.99	582.82
785.172	513.19
785.353	552.1
785.535	455.84
785.716	554.15
785.897	507.04
786.079	494.76
786.26	486.56
786.441	545.95
786.623	480.42
786.804	502.95
786.985	509.09
787.167	521.38
787.348	398.5
787.529	451.75
787.71	466.08
787.891	421.03
788.073	414.88
788.254	435.36
788.435	474.28
788.616	478.37
788.797	451.75
788.978	455.84
789.159	375.97
789.34	535.71
789.522	398.5
789.703	406.69
789.884	347.3
790.065	445.6
790.246	457.89
790.427	425.12
790.607	443.56
790.788	306.34
790.969	412.84
791.15	513.19
791.331	380.07
791.512	437.41
791.693	355.49
791.874	322.73
792.054	414.88
792.235	447.65
792.416	365.73
792.597	289.96
792.778	380.07
792.958	429.22
793.139	363.69
793.32	382.12
793.5	398.5
793.681	394.4
793.862	289.96
794.042	404.64
794.223	332.97
794.404	339.11
794.584	306.34
794.765	349.35
794.945	281.77
795.126	339.11
795.306	347.3
795.487	349.35
795.667	298.15
795.848	310.44
796.028	298.15
796.209	332.97
796.389	328.87
796.57	421.03
796.75	212.14
796.93	302.25
797.111	322.73
797.291	240.81
797.471	322.73
797.652	363.69
797.832	308.39
798.012	353.45
798.192	283.81
798.373	355.49
798.553	322.73
798.733	339.11
798.913	257.19
799.093	185.51
799.274	306.34
799.454	347.3
799.634	339.11
799.814	308.39
799.994	263.33
800.174	273.57
800.354	236.71
800.534	201.9
800.714	208.04
800.894	234.66
801.074	289.96
801.254	246.95
801.434	269.48
801.614	273.57
801.794	259.24
801.974	857.25
802.154	249
802.334	308.39
802.514	199.85
802.693	281.77
802.873	232.62
803.053	318.63
803.233	343.21
803.413	228.52
803.592	242.85
803.772	273.57
803.952	218.28
804.131	267.43
804.311	234.66
804.491	300.2
804.67	238.76
804.85	185.51
805.03	242.85
805.209	251.05
805.389	214.18
805.568	226.47
805.748	214.18
805.928	257.19
806.107	259.24
806.287	195.75
806.466	277.67
806.646	205.99
806.825	267.43
807.004	173.22
807.184	265.38
807.363	234.66
807.543	224.42
807.722	208.04
807.901	208.04
808.081	251.05
808.26	212.14
808.439	228.52
808.619	208.04
808.798	224.42
808.977	136.36
809.156	267.43
809.336	203.94
809.515	177.32
809.694	117.93
809.873	158.89
810.052	158.89
810.231	236.71
810.411	216.23
810.59	232.62
810.769	224.42
810.948	201.9
811.127	171.18
811.306	226.47
811.485	208.04
811.664	228.52
811.843	136.36
812.022	136.36
812.201	212.14
812.38	179.37
812.559	148.65
812.737	210.09
812.916	175.27
813.095	185.51
813.274	224.42
813.453	226.47
813.632	187.56
813.811	205.99
813.989	165.03
814.168	208.04
814.347	101.55
814.526	132.26
814.704	179.37
814.883	226.47
815.062	134.31
815.24	154.79
815.419	126.12
815.598	142.5
815.776	162.98
815.955	140.46
816.133	38.06
816.312	117.93
816.49	134.31
816.669	111.78
816.847	150.7
817.026	148.65
817.204	162.98
817.383	152.74
817.561	109.74
817.74	111.78
817.918	134.31
818.097	183.46
818.275	187.56
818.453	103.59
818.632	132.26
818.81	113.83
818.988	150.7
819.167	68.78
819.345	181.42
819.523	101.55
819.701	109.74
819.879	183.46
820.058	185.51
820.236	179.37
820.414	171.18
820.592	134.31
820.77	160.94
820.948	81.07
821.127	208.04
821.305	85.16
821.483	95.4
821.661	210.09
821.839	126.12
822.017	111.78
822.195	95.4
822.373	150.7
822.551	52.39
822.729	181.42
822.907	109.74
823.085	146.6
823.262	134.31
823.44	83.11
823.618	76.97
823.796	142.5
823.974	154.79
824.152	109.74
824.329	103.59
824.507	68.78
824.685	85.16
824.863	132.26
825.04	81.07
825.218	158.89
825.396	52.39
825.574	111.78
825.751	109.74
825.929	103.59
826.107	87.21
826.284	138.41
826.462	76.97
826.639	107.69
826.817	107.69
826.994	70.83
827.172	83.11
827.349	150.7
827.527	87.21
827.704	44.2
827.882	140.46
828.059	130.22
828.237	60.59
828.414	179.37
828.591	27.82
828.769	165.03
828.946	130.22
829.124	101.55
829.301	169.13
829.478	103.59
829.655	175.27
829.833	60.59
830.01	76.97
830.187	60.59
830.364	44.2
830.542	60.59
830.719	117.93
830.896	158.89
831.073	76.97
831.25	109.74
831.427	140.46
831.604	136.36
831.782	119.98
831.959	60.59
832.136	93.35
832.313	119.98
832.49	3.24
832.667	103.59
832.844	81.07
833.021	117.93
833.198	87.21
833.374	60.59
833.551	1.19
833.728	42.15
833.905	87.21
834.082	27.82
834.259	50.35
834.436	160.94
834.612	27.82
834.789	167.08
834.966	97.45
835.143	150.7
835.319	60.59
835.496	117.93
835.673	146.6
835.85	134.31
836.026	68.78
836.203	44.2
836.38	27.82
836.556	79.02
836.733	31.91
836.909	81.07
837.086	185.51
837.262	64.68
837.439	62.63
837.616	152.74
837.792	33.96
837.968	68.78
838.145	19.63
838.321	56.49
838.498	66.73
838.674	83.11
838.851	58.54
839.027	31.91
839.203	72.87
839.38	79.02
839.556	9.39
839.732	48.3
839.909	36.01
840.085	93.35
840.261	171.18
840.437	93.35
840.614	-2.9
840.79	103.59
840.966	56.49
841.142	97.45
841.318	40.11
841.494	101.55
841.671	154.79
841.847	29.87
842.023	19.63
842.199	72.87
842.375	66.73
842.551	54.44
842.727	33.96
842.903	117.93
843.079	-0.85
843.255	44.2
843.431	52.39
843.607	56.49
843.783	29.87
843.959	19.63
844.134	19.63
844.31	70.83
844.486	27.82
844.662	44.2
844.838	85.16
845.013	87.21
845.189	83.11
845.365	21.67
845.541	60.59
845.716	27.82
845.892	126.12
846.068	38.06
846.244	27.82
846.419	19.63
846.595	54.44
846.77	85.16
846.946	101.55
847.122	-17.24
847.297	48.3
847.473	97.45
847.648	-9.05
847.824	134.31
847.999	19.63
848.175	44.2
848.35	44.2
848.526	60.59
848.701	138.41
848.876	62.63
849.052	81.07
849.227	76.97
849.403	17.58
849.578	89.26
849.753	85.16
849.929	52.39
850.104	40.11
850.279	48.3
850.454	52.39
850.63	-13.14
850.805	46.25
850.98	19.63
851.155	-2.9
851.33	93.35
851.505	15.53
851.681	68.78
851.856	-7
852.031	3.24
852.206	111.78
852.381	36.01
852.556	-4.95
852.731	60.59
852.906	79.02
853.081	40.11
853.256	87.21
853.431	11.43
853.606	-54.1
853.781	7.34
853.956	44.2
854.131	52.39
854.305	19.63
854.48	-43.86
854.655	13.48
854.83	46.25
855.005	7.34
855.18	7.34
855.354	46.25
855.529	54.44
855.704	60.59
855.879	81.07
856.053	-25.43
856.228	68.78
856.403	27.82
856.577	19.63
856.752	25.77
856.926	58.54
857.101	27.82
857.276	-62.29
857.45	68.78
857.625	-4.95
857.799	79.02
857.974	27.82
858.148	7.34
858.323	36.01
858.497	101.55
858.672	-0.85
858.846	62.63
859.02	76.97
859.195	-11.09
859.369	46.25
859.543	97.45
859.718	60.59
859.892	54.44
860.066	13.48
860.241	15.53
860.415	60.59
860.589	-41.81
860.763	72.87
860.938	-11.09
861.112	3.24
861.286	60.59
861.46	66.73
861.634	19.63
861.808	68.78
861.982	19.63
862.157	-37.72
862.331	17.58
862.505	19.63
862.679	15.53
862.853	15.53
863.027	23.72
863.201	-27.48
863.375	-9.05
863.549	36.01
863.722	13.48
863.896	21.67
864.07	-43.86
864.244	21.67
864.418	42.15
864.592	-50
864.766	-21.33
864.939	113.83
865.113	27.82
865.287	-15.19
865.461	-56.15
865.634	-33.62
865.808	-27.48
865.982	21.67
866.156	-13.14
866.329	-54.1
866.503	52.39
866.676	21.67
866.85	-80.72
867.024	31.91
867.197	42.15
867.371	11.43
867.544	-4.95
867.718	-21.33
867.891	31.91
868.065	-9.05
868.238	9.39
868.412	68.78
868.585	44.2
868.759	-39.76
868.932	27.82
869.105	-70.48
869.279	68.78
869.452	1.19
869.625	-4.95
869.799	70.83
869.972	29.87
870.145	11.43
870.319	44.2
870.492	13.48
870.665	9.39
870.838	31.91
871.011	-47.96
871.185	44.2
871.358	-37.72
871.531	44.2
871.704	9.39
871.877	-37.72
872.05	46.25
872.223	48.3
872.396	36.01
872.569	27.82
872.742	-17.24
872.915	11.43
873.088	-33.62
873.261	-43.86
873.434	48.3
873.607	60.59
873.78	11.43
873.953	-9.05
874.126	5.29
874.299	87.21
874.471	-41.81
874.644	-2.9
874.817	19.63
874.99	101.55
875.163	21.67
875.335	21.67
875.508	13.48
875.681	44.2
875.853	-31.57
876.026	36.01
876.199	7.34
876.371	11.43
876.544	117.93
876.717	52.39
876.889	-21.33
877.062	60.59
877.234	44.2
877.407	23.72
877.579	-37.72
877.752	15.53
877.924	-2.9
878.097	31.91
878.269	9.39
878.442	3.24
878.614	33.96
878.786	99.5
878.959	50.35
879.131	-37.72
879.303	-45.91
879.476	13.48
879.648	36.01
879.82	-4.95
879.993	-13.14
880.165	70.83
880.337	5.29
880.509	-45.91
880.681	15.53
880.854	70.83
881.026	-58.2
881.198	-0.85
881.37	-52.05
881.542	33.96
881.714	36.01
881.886	-0.85
882.058	-58.2
882.23	-29.52
882.402	5.29
882.574	9.39
882.746	70.83
882.918	60.59
883.09	-9.05
883.262	-29.52
883.434	19.63
883.606	-21.33
883.778	-37.72
883.95	46.25
884.122	-11.09
884.293	72.87
884.465	5.29
884.637	11.43
884.809	-21.33
884.98	21.67
885.152	-13.14
885.324	3.24
885.496	-21.33
885.667	21.67
885.839	-62.29
886.011	81.07
886.182	-33.62
886.354	103.59
886.525	-2.9
886.697	42.15
886.869	-0.85
887.04	-19.29
887.212	93.35
887.383	68.78
887.555	-82.77
887.726	-13.14
887.897	-19.29
888.069	-0.85
888.24	11.43
888.412	21.67
888.583	-39.76
888.754	-25.43
888.926	-13.14
889.097	-27.48
889.268	-21.33
889.44	-25.43
889.611	-17.24
889.782	-29.52
889.953	-41.81
890.125	31.91
890.296	-17.24
890.467	19.63
890.638	-60.24
890.809	-4.95
890.98	-4.95
891.151	21.67
891.323	48.3
891.494	3.24
891.665	19.63
891.836	21.67
892.007	23.72
892.178	-33.62
892.349	-13.14
892.52	21.67
892.691	76.97
892.862	11.43
893.032	-41.81
893.203	60.59
893.374	-27.48
893.545	70.83
893.716	-29.52
893.887	85.16
894.057	-41.81
894.228	54.44
894.399	31.91
894.57	5.29
894.74	44.2
894.911	31.91
895.082	-39.76
895.253	38.06
895.423	-2.9
895.594	97.45
895.764	27.82
895.935	36.01
896.106	21.67
896.276	31.91
896.447	-11.09
896.617	-11.09
896.788	-4.95
896.958	13.48
897.129	-11.09
897.299	17.58
897.47	5.29
897.64	-9.05
897.81	-17.24
897.981	68.78
898.151	-70.48
898.322	68.78
898.492	31.91
898.662	-25.43
898.832	56.49
899.003	13.48
899.173	-52.05
899.343	-60.24
899.513	13.48
