Data from USB4F104151__215__14-33-48-491.txt Node

Date: Thu Mar 13 14:33:48 EDT 2025
User: louis
Spectrometer: USB4F10415
Trigger mode: 4
Integration Time (sec): 2.500000E-2
Scans to average: 1
Electric dark correction enabled: true
Nonlinearity correction enabled: false
Boxcar width: 0
XAxis mode: Wavelengths
Number of Pixels in Spectrum: 3648
>>>>>Begin Spectral Data<<<<<
178.204	-241.66
178.424	-241.66
178.644	-241.66
178.864	-126.97
179.084	-149.5
179.304	-32.77
179.524	-20.48
179.744	14.34
179.964	53.25
180.184	-90.11
180.404	8.19
180.624	-4.1
180.844	47.1
181.064	0
181.283	20.48
181.503	-28.67
181.723	32.77
181.943	-75.77
182.163	86.01
182.383	12.29
182.602	55.3
182.822	-8.19
183.042	4.1
183.262	-12.29
183.482	53.25
183.701	-16.38
183.921	-8.19
184.141	-20.48
184.361	63.49
184.58	53.25
184.8	28.67
185.02	12.29
185.239	77.82
185.459	10.24
185.679	22.53
185.898	-53.25
186.118	69.63
186.338	-30.72
186.557	77.82
186.777	2.05
186.997	-22.53
187.216	61.44
187.436	61.44
187.655	8.19
187.875	-8.19
188.095	10.24
188.314	30.72
188.534	71.68
188.753	69.63
188.973	22.53
189.192	122.88
189.412	22.53
189.631	-4.1
189.851	-38.91
190.07	120.83
190.29	12.29
190.509	-4.1
190.729	12.29
190.948	-28.67
191.168	182.27
191.387	36.86
191.607	20.48
191.826	49.15
192.045	32.77
192.265	65.53
192.484	-18.43
192.704	53.25
192.923	20.48
193.142	88.06
193.362	-12.29
193.581	98.3
193.8	12.29
194.02	26.62
194.239	-34.82
194.458	65.53
194.678	14.34
194.897	-12.29
195.116	61.44
195.335	-10.24
195.555	45.06
195.774	98.3
195.993	49.15
196.212	-2.05
196.432	-4.1
196.651	53.25
196.87	-2.05
197.089	106.49
197.308	4.1
197.528	-18.43
197.747	-8.19
197.966	45.06
198.185	96.25
198.404	6.14
198.623	45.06
198.842	20.48
199.062	40.96
199.281	-28.67
199.5	24.58
199.719	4.1
199.938	86.01
200.157	81.92
200.376	94.21
200.595	69.63
200.814	20.48
201.033	69.63
201.252	-34.82
201.471	-20.48
201.69	88.06
201.909	-18.43
202.128	45.06
202.347	20.48
202.566	-20.48
202.785	-2.05
203.004	-34.82
203.223	219.13
203.442	-26.62
203.661	-12.29
203.879	14.34
204.098	55.3
204.317	16.38
204.536	20.48
204.755	28.67
204.974	-2.05
205.193	22.53
205.411	63.49
205.63	36.86
205.849	-2.05
206.068	79.87
206.287	-28.67
206.505	61.44
206.724	53.25
206.943	16.38
207.162	-16.38
207.381	-12.29
207.599	38.91
207.818	-34.82
208.037	-28.67
208.255	26.62
208.474	-34.82
208.693	34.82
208.911	20.48
209.13	0
209.349	36.86
209.567	131.07
209.786	71.68
210.005	69.63
210.223	73.73
210.442	4.1
210.661	-12.29
210.879	-38.91
211.098	-4.1
211.316	-24.58
211.535	32.77
211.753	-4.1
211.972	61.44
212.191	14.34
212.409	-59.39
212.628	-34.82
212.846	12.29
213.065	96.25
213.283	71.68
213.502	4.1
213.72	22.53
213.938	-6.14
214.157	-45.06
214.375	63.49
214.594	86.01
214.812	45.06
215.031	30.72
215.249	-6.14
215.467	-2.05
215.686	45.06
215.904	176.13
216.122	57.34
216.341	20.48
216.559	38.91
216.778	-12.29
216.996	73.73
217.214	14.34
217.432	20.48
217.651	55.3
217.869	65.53
218.087	4.1
218.306	40.96
218.524	22.53
218.742	-45.06
218.96	24.58
219.179	-36.86
219.397	-8.19
219.615	90.11
219.833	28.67
220.051	26.62
220.27	77.82
220.488	40.96
220.706	12.29
220.924	-4.1
221.142	4.1
221.36	-24.58
221.578	32.77
221.796	53.25
222.015	-14.34
222.233	-34.82
222.451	55.3
222.669	12.29
222.887	26.62
223.105	-86.01
223.323	45.06
223.541	32.77
223.759	36.86
223.977	20.48
224.195	47.1
224.413	-12.29
224.631	61.44
224.849	-4.1
225.067	98.3
225.285	-6.14
225.503	71.68
225.721	-8.19
225.939	24.58
226.157	6.14
226.375	118.78
226.592	55.3
226.81	30.72
227.028	45.06
227.246	38.91
227.464	18.43
227.682	38.91
227.9	14.34
228.117	16.38
228.335	6.14
228.553	36.86
228.771	-14.34
228.989	79.87
229.206	55.3
229.424	4.1
229.642	24.58
229.86	98.3
230.077	-32.77
230.295	-32.77
230.513	30.72
230.731	73.73
230.948	12.29
231.166	45.06
231.384	47.1
231.601	-16.38
231.819	53.25
232.037	30.72
232.254	20.48
232.472	45.06
232.689	-30.72
232.907	77.82
233.125	-20.48
233.342	-24.58
233.56	12.29
233.777	-12.29
233.995	32.77
234.213	28.67
234.43	26.62
234.648	22.53
234.865	26.62
235.083	73.73
235.3	8.19
235.518	32.77
235.735	40.96
235.953	45.06
236.17	49.15
236.388	47.1
236.605	-57.34
236.822	6.14
237.04	40.96
237.257	-8.19
237.475	-88.06
237.692	73.73
237.909	-20.48
238.127	63.49
238.344	79.87
238.562	61.44
238.779	-34.82
238.996	61.44
239.214	-73.73
239.431	-20.48
239.648	-104.45
239.865	0
240.083	94.21
240.3	24.58
240.517	-8.19
240.735	6.14
240.952	77.82
241.169	36.86
241.386	53.25
241.603	-36.86
241.821	49.15
242.038	110.59
242.255	6.14
242.472	-28.67
242.689	36.86
242.907	4.1
243.124	51.2
243.341	47.1
243.558	20.48
243.775	-10.24
243.992	-94.21
244.209	8.19
244.426	155.65
244.643	-2.05
244.86	22.53
245.078	36.86
245.295	-4.1
245.512	53.25
245.729	-28.67
245.946	45.06
246.163	32.77
246.38	-8.19
246.597	-30.72
246.814	28.67
247.031	32.77
247.248	30.72
247.464	30.72
247.681	36.86
247.898	28.67
248.115	24.58
248.332	-90.11
248.549	63.49
248.766	65.53
248.983	94.21
249.2	-32.77
249.417	-8.19
249.633	73.73
249.85	77.82
250.067	-30.72
250.284	94.21
250.501	28.67
250.717	-18.43
250.934	12.29
251.151	-12.29
251.368	61.44
251.585	18.43
251.801	40.96
252.018	-8.19
252.235	20.48
252.451	73.73
252.668	118.78
252.885	57.34
253.102	-18.43
253.318	-40.96
253.535	55.3
253.752	-20.48
253.968	-12.29
254.185	-30.72
254.401	-65.54
254.618	55.3
254.835	-34.82
255.051	102.4
255.268	65.53
255.484	55.3
255.701	45.06
255.917	16.38
256.134	-36.86
256.351	-53.25
256.567	-2.05
256.784	77.82
257	-28.67
257.217	112.64
257.433	24.58
257.65	81.92
257.866	45.06
258.082	-16.38
258.299	-61.44
258.515	55.3
258.732	20.48
258.948	81.92
259.165	57.34
259.381	16.38
259.597	49.15
259.814	16.38
260.03	22.53
260.246	-57.34
260.463	14.34
260.679	75.77
260.895	-4.1
261.112	16.38
261.328	71.68
261.544	77.82
261.761	75.77
261.977	57.34
262.193	28.67
262.409	110.59
262.626	36.86
262.842	-12.29
263.058	-20.48
263.274	-20.48
263.49	-28.67
263.707	145.41
263.923	-28.67
264.139	-10.24
264.355	8.19
264.571	88.06
264.787	-18.43
265.004	47.1
265.22	20.48
265.436	4.1
265.652	30.72
265.868	12.29
266.084	-36.86
266.3	-10.24
266.516	-75.77
266.732	81.92
266.948	53.25
267.164	45.06
267.38	20.48
267.596	94.21
267.812	16.38
268.028	32.77
268.244	-61.44
268.46	22.53
268.676	45.06
268.892	118.78
269.108	40.96
269.324	-22.53
269.54	-8.19
269.756	43.01
269.972	-49.15
270.188	69.63
270.403	-51.2
270.619	-18.43
270.835	63.49
271.051	12.29
271.267	20.48
271.483	-20.48
271.698	36.86
271.914	61.44
272.13	45.06
272.346	20.48
272.562	43.01
272.777	24.58
272.993	-2.05
273.209	61.44
273.425	57.34
273.64	-12.29
273.856	28.67
274.072	-30.72
274.287	61.44
274.503	55.3
274.719	94.21
274.934	22.53
275.15	-65.54
275.366	32.77
275.581	-57.34
275.797	24.58
276.012	28.67
276.228	12.29
276.444	20.48
276.659	67.58
276.875	-34.82
277.09	12.29
277.306	24.58
277.521	98.3
277.737	20.48
277.952	129.02
278.168	57.34
278.383	86.01
278.599	69.63
278.814	96.25
279.03	36.86
279.245	45.06
279.461	-20.48
279.676	98.3
279.892	40.96
280.107	-2.05
280.322	-4.1
280.538	49.15
280.753	-36.86
280.969	-73.73
281.184	0
281.399	102.4
281.615	-10.24
281.83	20.48
282.045	8.19
282.26	20.48
282.476	-32.77
282.691	22.53
282.906	86.01
283.122	40.96
283.337	-61.44
283.552	65.53
283.767	26.62
283.983	53.25
284.198	12.29
284.413	131.07
284.628	-20.48
284.843	-2.05
285.058	61.44
285.274	-18.43
285.489	22.53
285.704	24.58
285.919	-16.38
286.134	-18.43
286.349	47.1
286.564	-30.72
286.779	98.3
286.995	28.67
287.21	20.48
287.425	-10.24
287.64	16.38
287.855	12.29
288.07	94.21
288.285	-18.43
288.5	30.72
288.715	36.86
288.93	-77.82
289.145	36.86
289.36	-36.86
289.575	55.3
289.79	110.59
290.004	-32.77
290.219	63.49
290.434	-69.63
290.649	20.48
290.864	18.43
291.079	22.53
291.294	36.86
291.509	36.86
291.724	94.21
291.938	6.14
292.153	63.49
292.368	36.86
292.583	112.64
292.798	61.44
293.012	88.06
293.227	53.25
293.442	20.48
293.657	110.59
293.871	57.34
294.086	53.25
294.301	129.02
294.516	77.82
294.73	-26.62
294.945	8.19
295.16	40.96
295.374	36.86
295.589	34.82
295.804	43.01
296.018	69.63
296.233	49.15
296.447	-4.1
296.662	10.24
296.877	47.1
297.091	14.34
297.306	14.34
297.52	83.97
297.735	88.06
297.949	20.48
298.164	77.82
298.378	30.72
298.593	4.1
298.807	86.01
299.022	32.77
299.236	34.82
299.451	18.43
299.665	47.1
299.88	24.58
300.094	6.14
300.309	36.86
300.523	20.48
300.737	36.86
300.952	36.86
301.166	10.24
301.381	0
301.595	77.82
301.809	55.3
302.024	14.34
302.238	45.06
302.452	69.63
302.667	-32.77
302.881	135.17
303.095	106.49
303.309	36.86
303.524	94.21
303.738	4.1
303.952	16.38
304.166	131.07
304.381	2.05
304.595	79.87
304.809	49.15
305.023	14.34
305.237	79.87
305.452	12.29
305.666	51.2
305.88	47.1
306.094	-61.44
306.308	51.2
306.522	45.06
306.736	102.4
306.95	63.49
307.164	26.62
307.379	61.44
307.593	40.96
307.807	94.21
308.021	65.53
308.235	22.53
308.449	-53.25
308.663	-12.29
308.877	71.68
309.091	12.29
309.305	-6.14
309.519	-30.72
309.733	22.53
309.947	-2.05
310.161	40.96
310.374	96.25
310.588	112.64
310.802	34.82
311.016	16.38
311.23	40.96
311.444	2.05
311.658	-20.48
311.872	92.16
312.085	69.63
312.299	45.06
312.513	86.01
312.727	30.72
312.941	-28.67
313.154	53.25
313.368	-4.1
313.582	114.69
313.796	43.01
314.009	6.14
314.223	86.01
314.437	102.4
314.651	40.96
314.864	16.38
315.078	-12.29
315.292	53.25
315.505	12.29
315.719	86.01
315.933	-2.05
316.146	69.63
316.36	-20.48
316.573	143.36
316.787	106.49
317.001	77.82
317.214	0
317.428	26.62
317.641	24.58
317.855	61.44
318.068	40.96
318.282	43.01
318.495	-10.24
318.709	49.15
318.922	-4.1
319.136	79.87
319.349	81.92
319.563	94.21
319.776	12.29
319.99	-2.05
320.203	75.77
320.417	20.48
320.63	69.63
320.843	53.25
321.057	8.19
321.27	12.29
321.483	22.53
321.697	96.25
321.91	90.11
322.124	14.34
322.337	24.58
322.55	-10.24
322.763	24.58
322.977	8.19
323.19	4.1
323.403	14.34
323.617	75.77
323.83	61.44
324.043	20.48
324.256	28.67
324.469	-67.58
324.683	40.96
324.896	12.29
325.109	0
325.322	-49.15
325.535	-6.14
325.748	86.01
325.962	18.43
326.175	18.43
326.388	69.63
326.601	65.53
326.814	53.25
327.027	-32.77
327.24	77.82
327.453	28.67
327.666	47.1
327.879	61.44
328.092	71.68
328.305	14.34
328.518	6.14
328.731	-4.1
328.944	12.29
329.157	45.06
329.37	14.34
329.583	88.06
329.796	47.1
330.009	22.53
330.222	77.82
330.435	94.21
330.648	81.92
330.861	36.86
331.073	4.1
331.286	-8.19
331.499	-6.14
331.712	-8.19
331.925	-8.19
332.138	45.06
332.35	98.3
332.563	34.82
332.776	-12.29
332.989	55.3
333.202	61.44
333.414	57.34
333.627	65.53
333.84	-32.77
334.053	24.58
334.265	45.06
334.478	75.77
334.691	18.43
334.903	75.77
335.116	18.43
335.329	55.3
335.541	55.3
335.754	57.34
335.966	-24.58
336.179	86.01
336.392	61.44
336.604	47.1
336.817	71.68
337.029	-24.58
337.242	36.86
337.454	4.1
337.667	53.25
337.88	79.87
338.092	77.82
338.305	36.86
338.517	79.87
338.729	110.59
338.942	86.01
339.154	-6.14
339.367	40.96
339.579	75.77
339.792	-20.48
340.004	73.73
340.217	2.05
340.429	55.3
340.641	49.15
340.854	2.05
341.066	49.15
341.278	94.21
341.491	112.64
341.703	36.86
341.915	-20.48
342.128	45.06
342.34	0
342.552	-8.19
342.764	71.68
342.977	40.96
343.189	79.87
343.401	30.72
343.613	69.63
343.826	57.34
344.038	-69.63
344.25	86.01
344.462	79.87
344.674	88.06
344.886	-6.14
345.099	65.53
345.311	71.68
345.523	-26.62
345.735	65.53
345.947	32.77
346.159	30.72
346.371	36.86
346.583	24.58
346.795	114.69
347.007	45.06
347.219	143.36
347.431	71.68
347.643	149.5
347.855	28.67
348.067	45.06
348.279	53.25
348.491	-8.19
348.703	79.87
348.915	55.3
349.127	61.44
349.339	57.34
349.551	20.48
349.763	81.92
349.975	32.77
350.187	69.63
350.399	38.91
350.61	-45.06
350.822	36.86
351.034	63.49
351.246	77.82
351.458	104.45
351.669	28.67
351.881	86.01
352.093	120.83
352.305	14.34
352.517	63.49
352.728	38.91
352.94	16.38
353.152	110.59
353.363	53.25
353.575	69.63
353.787	90.11
353.999	90.11
354.21	69.63
354.422	45.06
354.633	28.67
354.845	-2.05
355.057	55.3
355.268	10.24
355.48	45.06
355.692	-20.48
355.903	79.87
356.115	30.72
356.326	-2.05
356.538	57.34
356.749	-12.29
356.961	88.06
357.172	-20.48
357.384	12.29
357.595	94.21
357.807	-26.62
358.018	6.14
358.23	94.21
358.441	47.1
358.653	79.87
358.864	8.19
359.075	63.49
359.287	104.45
359.498	90.11
359.709	133.12
359.921	47.1
360.132	135.17
360.344	126.97
360.555	-8.19
360.766	30.72
360.977	-36.86
361.189	-2.05
361.4	32.77
361.611	110.59
361.823	126.97
362.034	79.87
362.245	38.91
362.456	12.29
362.667	75.77
362.879	-49.15
363.09	86.01
363.301	49.15
363.512	49.15
363.723	-4.1
363.935	45.06
364.146	126.97
364.357	4.1
364.568	69.63
364.779	12.29
364.99	110.59
365.201	94.21
365.412	40.96
365.623	-61.44
365.834	83.97
366.045	65.53
366.256	55.3
366.467	43.01
366.678	67.58
366.889	4.1
367.1	4.1
367.311	61.44
367.522	6.14
367.733	61.44
367.944	126.97
368.155	-2.05
368.366	94.21
368.577	77.82
368.788	110.59
368.999	57.34
369.209	-4.1
369.42	145.41
369.631	71.68
369.842	126.97
370.053	22.53
370.264	10.24
370.474	28.67
370.685	45.06
370.896	65.53
371.107	112.64
371.317	133.12
371.528	38.91
371.739	149.5
371.95	45.06
372.16	88.06
372.371	98.3
372.582	61.44
372.792	151.55
373.003	55.3
373.214	-10.24
373.424	129.02
373.635	30.72
373.846	104.45
374.056	94.21
374.267	45.06
374.477	53.25
374.688	79.87
374.898	32.77
375.109	77.82
375.319	63.49
375.53	100.35
375.74	53.25
375.951	-36.86
376.161	45.06
376.372	122.88
376.582	53.25
376.793	63.49
377.003	38.91
377.214	59.39
377.424	71.68
377.635	12.29
377.845	73.73
378.055	94.21
378.266	-12.29
378.476	94.21
378.686	94.21
378.897	67.58
379.107	126.97
379.317	53.25
379.528	-8.19
379.738	24.58
379.948	4.1
380.158	20.48
380.369	100.35
380.579	88.06
380.789	104.45
380.999	63.49
381.21	38.91
381.42	122.88
381.63	22.53
381.84	110.59
382.05	30.72
382.261	-16.38
382.471	98.3
382.681	28.67
382.891	139.26
383.101	40.96
383.311	63.49
383.521	118.78
383.731	16.38
383.941	86.01
384.151	143.36
384.361	36.86
384.571	98.3
384.781	124.93
384.991	133.12
385.201	86.01
385.411	102.4
385.621	53.25
385.831	75.77
386.041	43.01
386.251	92.16
386.461	118.78
386.671	53.25
386.881	47.1
387.091	-16.38
387.301	110.59
387.511	12.29
387.72	65.53
387.93	59.39
388.14	88.06
388.35	116.73
388.56	143.36
388.769	77.82
388.979	94.21
389.189	12.29
389.399	129.02
389.609	153.6
389.818	116.73
390.028	110.59
390.238	108.54
390.447	86.01
390.657	120.83
390.867	77.82
391.076	45.06
391.286	73.73
391.496	63.49
391.705	88.06
391.915	90.11
392.125	106.49
392.334	96.25
392.544	167.93
392.753	92.16
392.963	63.49
393.172	159.74
393.382	92.16
393.591	110.59
393.801	61.44
394.01	110.59
394.22	104.45
394.429	94.21
394.639	102.4
394.848	143.36
395.058	102.4
395.267	73.73
395.477	67.58
395.686	90.11
395.895	182.27
396.105	143.36
396.314	151.55
396.524	90.11
396.733	122.88
396.942	112.64
397.152	75.77
397.361	167.93
397.57	118.78
397.78	153.6
397.989	124.93
398.198	192.51
398.407	65.53
398.617	143.36
398.826	71.68
399.035	118.78
399.244	98.3
399.453	184.32
399.663	172.03
399.872	202.75
400.081	161.79
400.29	178.17
400.499	98.3
400.708	202.75
400.917	40.96
401.127	43.01
401.336	118.78
401.545	258.04
401.754	208.89
401.963	145.41
402.172	126.97
402.381	112.64
402.59	180.22
402.799	217.08
403.008	155.65
403.217	161.79
403.426	210.94
403.635	81.92
403.844	225.28
404.053	221.18
404.262	176.13
404.471	258.04
404.68	208.89
404.888	219.13
405.097	235.52
405.306	247.8
405.515	245.76
405.724	256
405.933	272.38
406.142	278.52
406.35	350.2
406.559	319.48
406.768	278.52
406.977	313.34
407.185	352.25
407.394	301.05
407.603	335.87
407.812	296.96
408.02	415.74
408.229	339.96
408.438	280.57
408.646	354.3
408.855	360.44
409.064	315.39
409.272	325.63
409.481	497.66
409.69	421.88
409.898	382.97
410.107	458.75
410.315	456.7
410.524	464.89
410.733	460.79
410.941	503.8
411.15	577.53
411.358	491.51
411.567	686.07
411.775	634.87
411.984	589.81
412.192	653.3
412.401	651.25
412.609	690.17
412.818	727.03
413.026	784.37
413.234	686.07
413.443	825.33
413.651	729.08
413.86	804.85
414.068	903.15
414.276	995.31
414.485	915.44
414.693	991.22
414.901	1066.99
415.11	1064.94
415.318	1054.7
415.526	1118.19
415.734	1163.25
415.943	1091.57
416.151	1329.13
416.359	1179.63
416.567	1368.04
416.776	1296.36
416.984	1427.43
417.192	1533.93
417.4	1445.87
417.608	1511.4
417.817	1497.07
418.025	1656.81
418.233	1740.77
418.441	1775.59
418.649	1863.65
418.857	1945.57
419.065	1996.77
419.273	1972.19
419.481	2144.22
419.689	2248.67
419.897	2303.96
420.105	2406.36
420.313	2381.79
420.521	2422.75
420.729	2613.21
420.937	2666.46
421.145	2719.7
421.353	2865.11
421.561	3063.76
421.769	2963.41
421.977	3209.17
422.185	2981.84
422.393	3321.81
422.601	3399.63
422.809	3536.84
423.017	3518.41
423.224	3649.48
423.432	3817.41
423.64	3661.77
423.848	4231.1
424.056	4071.36
424.263	4396.99
424.471	4386.75
424.679	4444.09
424.887	4681.66
425.094	4855.73
425.302	4714.42
425.51	5083.06
425.718	5205.94
425.925	5353.39
426.133	5427.12
426.341	5648.3
426.548	6010.79
426.756	6096.8
426.964	6240.16
427.171	6479.77
427.379	6770.58
427.586	6868.89
427.794	6993.81
428.001	7229.33
428.209	7548.81
428.417	7389.07
428.624	8103.81
428.832	7978.89
429.039	7987.08
429.247	7894.92
429.454	8820.6
429.662	8994.68
429.869	8638.33
430.076	9289.59
430.284	8839.03
430.491	9643.88
430.699	9998.18
430.906	10026.85
431.114	9973.61
431.321	10219.36
431.528	10563.42
431.736	11370.32
431.943	11798.35
432.15	11755.34
432.358	11523.92
432.565	12054.34
432.772	11943.75
432.979	12648.25
433.187	12955.45
433.394	13264.69
433.601	14128.94
433.808	13913.9
434.016	13926.19
434.223	14606.11
434.43	15372.05
434.637	15372.05
434.844	15927.05
435.052	16176.91
435.259	16174.86
435.466	16420.61
435.673	16088.84
435.88	17090.3
436.087	18231.02
436.294	17747.7
436.501	17895.15
436.708	18034.41
436.915	18665.19
437.122	19556.05
437.329	19429.08
437.537	20246.22
437.743	20305.61
437.95	20145.87
438.157	21120.7
438.364	22120.11
438.571	21632.69
438.778	22163.12
438.985	23887.51
439.192	22976.16
439.399	24118.93
439.606	23219.87
439.813	24669.83
440.02	26312.3
440.227	25595.51
440.433	25306.75
440.64	26365.55
440.847	26353.26
441.054	26846.82
441.261	28560.97
441.467	28251.73
441.674	28810.82
441.881	29652.54
442.088	29544
442.294	29326.91
442.501	30080.56
442.708	30756.39
442.914	31759.9
443.121	33179.14
443.328	32185.88
443.534	34354.68
443.741	33488.39
443.948	32986.63
444.154	35648.99
444.361	35472.87
444.568	35427.81
444.774	35599.84
444.981	36126.17
445.187	36775.37
445.394	38593.97
445.6	38059.45
445.807	41510.28
446.013	39941.53
446.22	40836.5
446.426	42802.55
446.633	42173.82
446.839	43478.38
447.046	42237.31
447.252	44094.82
447.459	44227.93
447.665	44305.76
447.871	45884.74
448.078	47981.86
448.284	45436.23
448.491	46945.59
448.697	48608.54
448.903	49192.21
449.11	49505.55
449.316	48872.73
449.522	50005.25
449.728	50851.06
449.935	51256.56
450.141	51496.17
450.347	52358.37
450.553	50674.94
450.76	51180.79
450.966	52833.5
451.172	52366.56
451.378	53916.87
451.584	52124.9
451.791	54119.62
451.997	53554.38
452.203	54564.03
452.409	54623.42
452.615	53970.12
452.821	52233.44
453.027	51258.61
453.233	53839.05
453.44	52501.73
453.646	52589.79
453.852	52561.12
454.058	53990.6
454.264	52034.79
454.47	53318.87
454.676	51705.07
454.882	53740.75
455.088	49341.71
455.294	49341.71
455.5	50142.47
455.705	51051.76
455.911	48938.26
456.117	48080.16
456.323	47719.72
456.529	45374.8
456.735	46753.08
456.941	45442.38
457.147	44559.7
457.352	43492.71
457.558	43285.87
457.764	43447.66
457.97	42294.65
458.176	42112.38
458.381	41475.46
458.587	39450.02
458.793	39413.16
458.999	37721.54
459.204	39966.11
459.41	38905.26
459.616	36683.22
459.821	36470.23
460.027	36464.08
460.233	35722.72
460.438	34233.85
460.644	34293.24
460.85	32738.83
461.055	32300.56
461.261	32124.44
461.466	29791.8
461.672	28894.79
461.878	30912.04
462.083	28956.23
462.289	28413.52
462.494	27989.59
462.7	26740.33
462.905	26080.88
463.111	26748.52
463.316	26889.83
463.522	26783.34
463.727	26596.97
463.932	26859.11
464.138	26236.53
464.343	26539.63
464.549	25538.17
464.754	26115.7
464.959	26494.57
465.165	26197.62
465.37	24919.68
465.575	24252.05
465.781	25024.13
465.986	25255.55
466.191	24358.54
466.397	24217.23
466.602	22875.81
466.807	23891.6
467.012	23926.42
467.218	23279.26
467.423	23078.56
467.628	23439
467.833	24280.72
468.038	23334.56
468.244	22845.09
468.449	23561.88
468.654	22763.17
468.859	22812.32
469.064	22511.27
469.269	21950.13
469.474	21923.51
469.679	22529.7
469.885	21796.53
470.09	22349.48
470.295	21753.52
470.5	21327.55
470.705	21470.9
470.91	21192.38
471.115	20946.62
471.32	21051.07
471.525	21266.11
471.73	20506.31
471.935	20365
472.139	19701.46
472.344	19822.29
472.549	19738.32
472.754	19791.57
472.959	18978.53
473.164	18673.38
473.369	18523.88
473.574	19154.65
473.778	19023.58
473.983	18732.77
474.188	18626.28
474.393	17968.88
474.598	18077.42
474.802	17649.39
475.007	17680.11
475.212	17749.75
475.417	17051.39
475.621	16971.52
475.826	17047.29
476.031	16676.61
476.235	16334.6
476.44	16615.17
476.645	16359.17
476.849	16359.17
477.054	16109.32
477.259	16181
477.463	16140.04
477.668	15660.82
477.872	15607.57
478.077	15613.71
478.282	15212.31
478.486	15212.31
478.691	14778.14
478.895	14978.84
479.1	14903.07
479.304	14851.87
479.509	14446.37
479.713	14602.02
479.918	13993.77
480.122	13946.67
480.326	14339.88
480.531	14202.66
480.735	14063.4
480.94	13987.63
481.144	14380.84
481.348	13899.56
481.553	13924.14
481.757	13582.13
481.961	13954.86
482.166	14026.54
482.37	14012.2
482.574	13745.97
482.778	13750.06
482.983	13981.48
483.187	13752.11
483.391	13823.79
483.595	13684.53
483.8	13506.35
484.004	13817.65
484.208	13885.23
484.412	13610.8
484.616	13692.72
484.821	13913.9
485.025	13545.27
485.229	13924.14
485.433	13578.03
485.637	13807.41
485.841	13801.26
486.045	13561.65
486.249	13719.34
486.453	13451.06
486.657	13727.53
486.861	13784.88
487.065	13385.52
487.269	13741.87
487.473	13506.35
487.677	13745.97
487.881	13840.17
488.085	13692.72
488.289	13901.61
488.493	13727.53
488.697	13739.82
488.901	13850.41
489.105	13793.07
489.309	13883.18
489.512	13848.36
489.716	13870.89
489.92	13786.93
490.124	13750.06
490.328	14085.93
490.531	13809.45
490.735	14102.31
490.939	13891.37
491.143	13752.11
491.346	14094.12
491.55	14262.05
491.754	14090.02
491.958	14475.04
492.161	14020.39
492.365	14425.89
492.569	14194.47
492.772	14159.66
492.976	14372.64
493.18	14536.48
493.383	14618.4
493.587	14786.33
493.79	14847.77
493.994	14849.82
494.197	14907.16
494.401	14876.44
494.605	14915.36
494.808	15572.75
495.012	15202.07
495.215	15449.88
495.419	15615.76
495.622	15337.24
495.825	15548.18
496.029	15736.59
496.232	15873.81
496.436	15681.3
496.639	16541.44
496.843	16301.83
497.046	16553.73
497.249	16695.04
497.453	16797.44
497.656	17041.15
497.859	17190.65
498.063	17282.81
498.266	17319.67
498.469	17284.86
498.673	17510.13
498.876	17739.51
499.079	18120.43
499.282	17927.92
499.485	18474.73
499.689	18317.03
499.892	18794.21
500.095	18910.94
500.298	19328.73
500.501	19211.99
500.705	19766.99
500.908	19889.87
501.111	20100.81
501.314	20121.29
501.517	20160.2
501.72	20455.11
501.923	20471.5
502.126	20825.79
502.329	21454.52
502.532	21532.34
502.735	21716.66
502.938	21845.68
503.141	22101.68
503.344	22275.76
503.547	22384.3
503.75	22445.74
503.953	22853.28
504.156	23193.25
504.359	22976.16
504.562	23592.6
504.765	23758.49
504.968	24172.18
505.17	24262.29
505.373	24436.36
505.576	24942.21
505.779	25130.62
505.982	25081.47
506.185	25820.79
506.387	25857.65
506.59	25800.31
506.793	26494.57
506.996	26304.11
507.198	27092.58
507.401	26838.63
507.604	27217.5
507.807	27874.9
508.009	28036.69
508.212	28079.7
508.415	28407.37
508.617	28577.36
508.82	28900.94
509.022	28726.86
509.225	29183.55
509.428	29816.38
509.63	29900.34
509.833	30254.64
510.035	30885.42
510.238	30510.64
510.44	30823.98
510.643	31133.22
510.845	31614.49
511.048	31831.58
511.25	32259.6
511.453	32030.23
511.655	33455.62
511.858	33181.19
512.06	33293.83
512.262	33680.89
512.465	33867.26
512.667	34151.93
512.87	34452.98
513.072	34254.33
513.274	35030.51
513.477	35388.9
513.679	35948
513.881	36105.69
514.084	36130.26
514.286	36654.54
514.488	36537.81
514.69	37629.38
514.893	37436.87
515.095	37436.87
515.297	38145.47
515.499	38260.15
515.701	38467
515.904	38964.65
516.106	39454.12
516.308	39458.21
516.51	40080.8
516.712	39789.98
516.914	40191.39
517.116	40990.09
517.318	41147.79
517.52	41029.01
517.722	41586.05
517.925	42124.67
518.127	42294.65
518.329	42390.91
518.531	42229.12
518.733	42851.7
518.935	43337.07
519.136	43490.66
519.338	43834.72
519.54	43836.77
519.742	44479.83
519.944	44473.69
520.146	45479.24
520.348	45679.94
520.55	45382.99
520.752	45497.67
520.954	46468.41
521.155	46097.73
521.357	46970.16
521.559	46622.01
521.761	47072.56
521.963	47367.47
522.164	47093.04
522.366	47805.73
522.568	47785.25
522.77	47760.68
522.971	48528.67
523.173	48211.23
523.375	48579.87
523.576	48846.1
523.778	48790.81
523.98	49313.04
524.181	49433.87
524.383	49489.16
524.584	49992.97
524.786	49775.88
524.988	49581.32
525.189	50472.19
525.391	50169.09
525.592	50599.16
525.794	51012.85
525.995	50959.61
526.197	50799.86
526.398	50838.78
526.6	51227.89
526.801	51307.76
527.003	51117.3
527.204	50955.51
527.406	51414.26
527.607	51524.85
527.808	51877.1
528.01	50963.7
528.211	51545.33
528.412	52335.84
528.614	51926.25
528.815	51885.29
529.016	51961.06
529.218	51887.34
529.419	52172
529.62	51780.84
529.822	51909.86
530.023	52409.57
530.224	52135.14
530.425	52309.22
530.626	51795.18
530.828	51633.39
531.029	52509.92
531.23	51879.14
531.431	52430.05
531.632	51899.62
531.833	52036.84
532.035	51979.49
532.236	52249.83
532.437	52180.2
532.638	51887.34
532.839	51881.19
533.04	52786.39
533.241	51918.06
533.442	52628.7
533.643	52045.03
533.844	51774.7
534.045	51922.15
534.246	51541.23
534.447	52178.15
534.648	51864.81
534.849	51614.96
535.05	51922.15
535.251	51895.53
535.451	51422.45
535.652	52290.79
535.853	51524.85
536.054	51356.91
536.255	51649.77
536.456	51090.68
536.657	52233.44
536.857	51514.61
537.058	51502.32
537.259	51897.58
537.46	51999.97
537.66	51428.59
537.861	51473.65
538.062	50914.55
538.263	51397.87
538.463	51248.37
538.664	51215.6
538.865	51553.52
539.065	51660.01
539.266	50994.42
539.466	51494.13
539.667	51297.52
539.868	51932.39
540.068	51070.2
540.269	51152.12
540.469	51401.97
540.67	51307.76
540.87	51068.15
541.071	51197.17
541.271	51191.03
541.472	51027.19
541.672	51000.57
541.873	50808.06
542.073	50914.55
542.274	51197.17
542.474	50957.56
542.675	50365.7
542.875	51209.46
543.075	51043.57
543.276	50674.94
543.476	51291.38
543.676	51160.31
543.877	51440.88
544.077	50871.54
544.277	50894.07
544.478	51113.2
544.678	50877.69
544.878	50646.27
545.078	51074.29
545.279	50412.8
545.479	50330.88
545.679	50750.71
545.879	50793.72
546.079	50367.74
546.28	50672.89
546.48	50308.35
546.68	51008.76
546.88	50523.39
547.08	50576.64
547.28	50349.31
547.48	50119.94
547.68	50793.72
547.88	50042.12
548.081	50611.45
548.281	50531.58
548.481	50210.05
548.681	50812.15
548.881	50685.18
549.081	50990.33
549.28	50126.08
549.48	50734.33
549.68	50480.38
549.88	51107.06
550.08	50576.64
550.28	50646.27
550.48	50263.3
550.68	50906.36
550.88	50588.92
551.08	50726.14
551.279	50818.3
551.479	50078.98
551.679	50181.38
551.879	50431.23
552.079	50613.5
552.278	50754.81
552.478	50660.6
552.678	50724.09
552.878	50865.4
553.077	50365.7
553.277	50109.7
553.477	50765.05
553.676	50771.19
553.876	50511.1
554.076	50363.65
554.275	50255.11
554.475	50242.82
554.674	50382.08
554.874	50644.22
555.074	50502.91
555.273	50420.99
555.473	50797.82
555.672	50294.02
555.872	50339.07
556.071	50750.71
556.271	50838.78
556.47	50697.47
556.67	49802.5
556.869	50603.26
557.068	50537.72
557.268	50728.19
557.467	50492.67
557.667	50519.29
557.866	50494.72
558.065	50373.89
558.265	50283.78
558.464	50117.89
558.663	50959.61
558.863	49939.72
559.062	50959.61
559.261	50420.99
559.461	50875.64
559.66	49845.51
559.859	50414.85
560.058	49808.65
560.258	50445.57
560.457	50054.4
560.656	50439.42
560.855	49739.02
561.054	50676.99
561.253	49925.38
561.453	50199.81
561.652	50455.81
561.851	50306.3
562.05	50019.59
562.249	49528.08
562.448	50294.02
562.647	50357.5
562.846	49954.05
563.045	49890.57
563.244	49741.06
563.443	50308.35
563.642	49421.58
563.841	49892.61
564.04	49890.57
564.239	50156.8
564.438	49165.59
564.637	49464.59
564.836	49995.01
565.035	49382.67
565.234	49808.65
565.432	49609.99
565.631	49192.21
565.83	49569.04
566.029	49292.56
566.228	49177.87
566.427	49044.76
566.625	48629.02
566.824	49005.84
567.023	49280.27
567.222	48426.27
567.42	49212.69
567.619	48678.17
567.818	48702.74
568.016	48586.01
568.215	48825.62
568.414	48708.89
568.612	48928.02
568.811	48356.64
569.01	48772.38
569.208	47928.61
569.407	48358.69
569.605	47930.66
569.804	48604.44
570.002	48004.39
570.201	48450.84
570.4	47869.22
570.598	47899.94
570.797	47578.41
570.995	47504.68
571.193	46869.81
571.392	47861.03
571.59	46857.53
571.789	47564.07
571.987	47338.8
572.186	46789.94
572.384	47263.02
572.582	47332.65
572.781	47359.28
572.979	46212.41
573.177	46882.1
573.376	46794.04
573.574	46435.64
573.772	46540.09
573.971	46509.37
574.169	46372.16
574.367	46103.87
574.565	46781.75
574.763	46292.29
574.962	45937.99
575.16	45716.81
575.358	46085.44
575.556	45348.17
575.754	46431.55
575.952	45444.43
576.151	45864.26
576.349	45180.24
576.547	45579.59
576.745	45116.75
576.943	45450.57
577.141	45000.02
577.339	45159.76
577.537	44932.43
577.735	44954.96
577.933	44307.8
578.131	44764.5
578.329	44326.24
578.527	44180.83
578.725	44299.61
578.923	44430.68
579.121	44139.87
579.319	44115.29
579.516	44019.04
579.714	44113.25
579.912	43804
580.11	43732.32
580.308	44088.67
580.506	43627.88
580.704	42704.24
580.901	43259.24
581.099	43410.79
581.297	42935.66
581.495	42923.38
581.692	42960.24
581.89	42507.64
582.088	42911.09
582.285	42546.55
582.483	42798.45
582.681	42659.19
582.878	42593.65
583.076	41878.91
583.274	42493.3
583.471	41739.65
583.669	42448.25
583.866	41659.78
584.064	41751.94
584.262	41600.39
584.459	41854.34
584.657	41309.58
584.854	41661.83
585.052	40891.79
585.249	41344.39
585.447	41272.71
585.644	40732.05
585.841	41010.57
586.039	41600.39
586.236	40807.83
586.434	40279.45
586.631	40656.28
586.828	40891.79
587.026	40582.55
587.223	40609.17
587.42	40488.34
587.618	39882.14
587.815	39509.41
588.012	39953.82
588.21	40050.08
588.407	40422.81
588.604	39927.2
588.801	39357.86
588.999	39515.56
589.196	39919.01
589.393	39634.34
589.59	39169.45
589.787	39286.18
589.984	38897.07
590.182	38815.15
590.379	39151.02
590.576	38444.47
590.773	38751.66
590.97	38720.95
591.167	38938.03
591.364	38454.71
591.561	38469.04
591.758	38364.6
591.955	38409.65
592.152	38729.14
592.349	38331.83
592.546	38137.27
592.743	38417.85
592.94	37600.71
593.137	38262.2
593.334	38063.55
593.531	37498.31
593.727	37854.65
593.924	37957.05
594.121	37404.1
594.318	37420.49
594.515	37141.96
594.712	37447.11
594.908	37086.67
595.105	37447.11
595.302	36847.05
595.499	37250.5
595.696	36777.42
595.892	36586.96
596.089	37094.86
596.286	36922.83
596.482	37000.65
596.679	36842.96
596.876	36750.8
597.072	36582.87
597.269	36617.68
597.466	36034.01
597.662	36472.28
597.859	36234.71
598.055	36451.8
598.252	35864.03
598.448	36156.89
598.645	36015.58
598.841	35782.11
599.038	36115.93
599.234	36070.87
599.431	35489.25
599.627	35546.59
599.824	35993.05
600.02	35456.48
600.217	35861.98
600.413	35470.82
600.609	35472.87
600.806	35360.23
601.002	35503.59
601.198	34817.52
601.395	35386.85
601.591	35505.63
601.787	35716.57
601.984	35067.37
602.18	35329.51
602.376	35503.59
602.572	34944.49
602.769	35335.65
602.965	34858.48
603.161	35061.22
603.357	34844.14
603.553	34870.76
603.75	34569.71
603.946	34735.6
604.142	34825.71
604.338	34301.43
604.534	34649.58
604.73	34459.12
604.926	34395.64
605.122	34622.96
605.318	34754.03
605.514	34403.83
605.71	34094.58
605.906	34276.85
606.102	33861.12
606.298	34362.87
606.494	34524.66
606.69	34502.13
606.886	34516.47
607.082	34070.01
607.278	34350.58
607.474	34043.38
607.67	34551.28
607.866	33877.5
608.062	34631.15
608.257	34412.02
608.453	34422.26
608.649	34211.32
608.845	34084.34
609.041	34268.66
609.236	34356.72
609.432	34373.11
609.628	34086.39
609.824	34358.77
610.019	33981.95
610.215	34424.31
610.411	34399.73
610.606	34266.61
610.802	34219.51
610.998	33951.23
611.193	34065.91
611.389	33996.28
611.584	33787.39
611.78	33732.09
611.976	34049.53
612.171	33977.85
612.367	34090.49
612.562	34004.47
612.758	33572.35
612.953	33932.79
613.149	34106.87
613.344	33320.45
613.539	33852.92
613.735	33996.28
613.93	33801.72
614.126	33715.71
614.321	34072.06
614.517	34106.87
614.712	33816.06
614.907	33175.05
615.103	34035.19
615.298	33592.83
615.493	33648.13
615.688	33406.47
615.884	34129.4
616.079	33578.5
616.274	33797.63
616.47	33572.35
616.665	33949.18
616.86	33500.67
617.055	33406.47
617.25	33160.71
617.445	33955.32
617.641	32892.43
617.836	33691.13
618.031	32861.71
618.226	33332.74
618.421	33031.69
618.616	33332.74
618.811	32798.22
619.006	33369.6
619.201	32282.13
619.396	32810.51
619.591	32677.39
619.786	32568.85
619.981	32230.93
620.176	32398.87
620.371	31886.87
620.566	32106.01
620.761	31596.06
620.956	32185.88
621.151	31485.47
621.346	31913.5
621.541	31350.31
621.735	31675.93
621.93	30823.98
622.125	31073.83
622.32	31016.49
622.515	30903.85
622.709	30895.66
622.904	30830.12
623.099	30289.46
623.294	30539.31
623.488	30215.73
623.683	30484.01
623.878	29961.78
624.072	29910.58
624.267	29873.72
624.462	29777.47
624.656	29369.92
624.851	29455.93
625.046	29005.38
625.24	29070.92
625.435	28618.32
625.629	28513.87
625.824	28794.44
626.018	28175.95
626.213	27991.64
626.407	28186.19
626.602	27981.4
626.796	28069.46
626.991	27840.09
627.185	27629.15
627.38	27610.71
627.574	27500.12
627.768	26949.22
627.963	27082.34
628.157	26826.34
628.352	26852.97
628.546	26713.7
628.74	26730.09
628.935	26699.37
629.129	26359.41
629.323	26181.23
629.517	25824.89
629.712	26209.9
629.906	25929.33
630.1	25513.59
630.294	25509.5
630.489	25255.55
630.683	25562.75
630.877	24927.88
631.071	25126.53
631.265	25081.47
631.459	24651.4
631.653	24790.66
631.848	24757.89
632.042	24489.61
632.236	24534.67
632.43	24219.28
632.624	24446.6
632.818	23948.95
633.012	23901.84
633.206	23869.08
633.4	24016.53
633.594	23582.36
633.788	23279.26
633.982	23365.28
634.176	23555.74
634.369	22902.43
634.563	22677.16
634.757	22628.01
634.951	22902.43
635.145	22871.72
635.339	22906.53
635.533	22601.38
635.726	22668.97
635.92	22056.62
636.114	22326.96
636.308	21966.51
636.501	21943.99
636.695	21841.59
636.889	21700.28
637.083	21540.54
637.276	21364.41
637.47	21307.07
637.664	21104.32
637.857	20813.51
638.051	21132.99
638.244	20821.7
638.438	20651.72
638.632	20745.92
638.825	20360.91
639.019	20569.8
639.212	20346.57
639.406	20250.31
639.599	20156.11
639.793	20188.88
639.986	19871.44
640.18	19547.86
640.373	19617.49
640.567	19285.72
640.76	19353.3
640.954	19642.07
641.147	19302.11
641.34	19308.25
641.534	18958.05
641.727	19054.3
641.92	19009.25
642.114	18607.84
642.307	18585.32
642.5	18577.12
642.694	18155.24
642.887	18151.15
643.08	18286.31
643.273	17934.06
643.467	17790.7
643.66	17602.29
643.853	17854.19
644.046	17569.52
644.239	17770.22
644.432	17518.32
644.626	17604.34
644.819	17190.65
645.012	17321.72
645.205	17291
645.398	16905.98
645.591	16801.54
645.784	17133.31
645.977	16678.66
646.17	16846.59
646.363	16533.25
646.556	16193.29
646.749	16228.1
646.942	16301.83
647.135	16205.58
647.328	16363.27
647.521	16060.17
647.714	16023.31
647.907	16068.36
648.099	15736.59
648.292	15884.05
648.485	15519.51
648.678	15607.57
648.871	15376.15
649.064	15324.95
649.256	15126.3
649.449	15118.11
649.642	15355.67
649.835	15154.97
650.027	15046.43
650.22	15058.71
650.413	14815.01
650.605	14694.18
650.798	14767.9
650.991	14247.72
651.183	14511.91
651.376	14438.18
651.568	14425.89
651.761	14266.15
651.954	14198.57
652.146	14266.15
652.339	14036.78
652.531	14124.84
652.724	13831.98
652.916	13649.71
653.109	13954.86
653.301	13872.94
653.494	13831.98
653.686	13250.36
653.879	13606.7
654.071	13479.73
654.263	13246.26
654.456	13094.71
654.648	13229.88
654.84	12914.49
655.033	12867.39
655.225	12842.81
655.417	12754.75
655.61	12678.97
655.802	12881.72
655.994	12590.91
656.186	12857.15
656.379	12799.8
656.571	12685.12
656.763	12404.55
656.955	12306.24
657.148	12498.75
657.34	12296
657.532	12347.2
657.724	12119.88
657.916	11960.14
658.108	12214.09
658.3	11775.82
658.492	12052.3
658.684	11865.93
658.876	11657.04
659.068	11761.48
659.26	11560.78
659.452	11679.57
659.644	11327.32
659.836	11439.95
660.028	11595.6
660.22	11165.53
660.412	11450.19
660.604	11040.6
660.796	11091.8
660.988	11226.96
661.18	10909.53
661.372	10940.25
661.563	11009.88
661.755	10927.96
661.947	10657.63
662.139	10712.92
662.331	10739.55
662.522	10430.3
662.714	10639.2
662.906	10473.31
663.097	10432.35
663.289	10221.41
663.481	10352.48
663.673	10288.99
663.864	10057.57
664.056	10176.36
664.247	10143.59
664.439	10010.47
664.631	10090.34
664.822	10028.9
665.014	9654.12
665.205	9799.53
665.397	9944.94
665.588	9674.6
665.78	9721.71
665.971	9625.45
666.163	9547.63
666.354	9490.29
666.546	9369.46
666.737	9492.34
666.929	9353.07
667.12	9545.58
667.311	9238.39
667.503	9047.93
667.694	9260.91
667.885	9086.84
668.077	8994.68
668.268	9066.36
668.459	8861.56
668.651	9031.54
668.842	9097.08
669.033	8673.15
669.224	8779.64
669.416	8836.99
669.607	8619.9
669.798	8683.39
669.989	8574.85
670.18	8662.91
670.371	8617.85
670.563	8468.35
670.754	8548.22
670.945	8288.13
671.136	8484.73
671.327	8478.59
671.518	8134.53
671.709	8271.75
671.9	8179.59
672.091	8275.84
672.282	8128.39
672.473	8032.13
672.664	8044.42
672.855	7944.07
673.046	8064.9
673.237	8040.33
673.428	7974.79
673.619	7851.91
673.809	7841.67
674	8060.8
674.191	7753.61
674.382	7747.47
674.573	7526.29
674.764	7716.75
674.954	7831.43
675.145	7708.55
675.336	7712.65
675.527	7522.19
675.717	7694.22
675.908	7624.59
676.099	7335.82
676.289	7630.73
676.48	7430.03
676.671	7221.14
676.861	7262.1
677.052	7335.82
677.243	7292.82
677.433	7288.72
677.624	7294.86
677.814	7163.79
678.005	7212.95
678.195	7143.31
678.386	7288.72
678.576	7219.09
678.767	7120.79
678.957	6963.09
679.148	7200.66
679.338	7047.06
679.529	7049.11
679.719	6870.94
679.909	6911.89
680.1	6829.98
680.29	6864.79
680.481	6782.87
680.671	6909.85
680.861	6834.07
681.052	6889.37
681.242	6707.1
681.432	6819.74
681.622	6709.15
681.813	6651.8
682.003	6815.64
682.193	6619.03
682.383	6563.74
682.573	6778.78
682.764	6602.65
682.954	6709.15
683.144	6655.9
683.334	6606.75
683.524	6594.46
683.714	6510.49
683.904	6436.77
684.094	6647.71
684.284	6528.92
684.474	6592.41
684.664	6401.95
684.854	6477.73
685.044	6311.84
685.234	6393.76
685.424	6395.81
685.614	6123.43
685.804	6215.59
685.994	6320.03
686.184	6250.4
686.374	6387.61
686.564	6197.15
686.753	6207.39
686.943	6160.29
687.133	5945.25
687.323	6148
687.513	6035.36
687.702	6150.05
687.892	5978.02
688.082	6061.99
688.272	6231.97
688.461	6000.55
688.651	5947.3
688.841	6010.79
689.03	5885.86
689.22	5879.72
689.41	5928.87
689.599	5918.63
689.789	5939.11
689.979	5691.31
690.168	5791.66
690.358	5781.42
690.547	5603.24
690.737	5769.13
690.926	5631.91
691.116	5601.19
691.305	5595.05
691.495	5656.49
691.684	5633.96
691.874	5621.67
692.063	5515.18
692.252	5586.86
692.442	5527.47
692.631	5443.5
692.82	5560.24
693.01	5472.17
693.199	5500.84
693.388	5273.52
693.578	5316.53
693.767	5349.29
693.956	5201.84
694.146	5339.05
694.335	5337.01
694.524	5173.17
694.713	5373.87
694.902	5250.99
695.092	5226.42
695.281	5423.02
695.47	5296.05
695.659	5277.62
695.848	5074.87
696.037	5183.41
696.226	5134.26
696.415	5038
696.604	5164.98
696.793	5091.25
696.982	5099.44
697.171	5001.14
697.36	5070.77
697.549	4980.66
697.738	5124.02
697.927	5050.29
698.116	4900.79
698.305	4902.84
698.494	4941.75
698.683	4739
698.872	4947.89
699.061	4888.5
699.25	4818.87
699.438	4749.24
699.627	4878.26
699.816	4790.2
700.005	4689.85
700.193	4722.62
700.382	4822.97
700.571	4558.78
700.76	4765.62
700.948	4853.69
701.137	4741.05
701.326	4554.68
701.514	4616.12
701.703	4644.79
701.892	4493.24
702.08	4745.14
702.269	4624.31
702.457	4493.24
702.646	4542.39
702.834	4583.35
703.023	4593.59
703.212	4374.46
703.4	4433.85
703.589	4329.41
703.777	4394.94
703.965	4321.21
704.154	4468.67
704.342	4347.84
704.531	4353.98
704.719	4333.5
704.907	4356.03
705.096	4288.45
705.284	4214.72
705.472	4306.88
705.661	4288.45
705.849	4239.3
706.037	4233.15
706.226	4296.64
706.414	4093.89
706.602	4186.05
706.79	4184
706.979	4169.66
707.167	4114.37
707.355	4061.12
707.543	4030.4
707.731	4220.86
707.919	4194.24
708.107	3985.35
708.296	3944.39
708.484	4050.88
708.672	4036.55
708.86	4091.84
709.048	4026.31
709.236	4022.21
709.424	3850.18
709.612	3905.48
709.8	3831.75
709.988	3813.32
710.176	3870.66
710.364	3887.04
710.551	3833.8
710.739	3846.09
710.927	3717.06
711.115	3733.45
711.303	3760.07
711.491	3829.7
711.679	3794.89
711.866	3723.21
712.054	3674.06
712.242	3657.67
712.43	3657.67
712.617	3608.52
712.805	3674.06
712.993	3639.24
713.181	3510.22
713.368	3667.91
713.556	3743.69
713.744	3452.88
713.931	3583.95
714.119	3604.43
714.306	3512.27
714.494	3526.6
714.682	3454.92
714.869	3469.26
715.057	3538.89
715.244	3391.44
715.432	3471.31
715.619	3444.68
715.807	3297.23
715.994	3452.88
716.182	3342.28
716.369	3362.76
716.556	3397.58
716.744	3370.96
716.931	3297.23
717.119	3381.2
717.306	3348.43
717.493	3342.28
717.681	3319.76
717.868	3241.93
718.055	3280.85
718.242	3235.79
718.43	3190.74
718.617	3186.64
718.804	3231.69
718.991	3055.57
719.179	3143.63
719.366	3110.86
719.553	3217.36
719.74	3133.39
719.927	3221.45
720.114	3205.07
720.301	3237.84
720.488	3071.95
720.676	2949.07
720.863	3088.34
721.05	3102.67
721.237	3133.39
721.424	3096.53
721.611	3010.51
721.798	3059.67
721.985	2873.3
722.172	2949.07
722.358	2994.13
722.545	2985.94
722.732	3006.42
722.919	2996.18
723.106	2957.27
723.293	2824.15
723.48	2748.37
723.667	2846.68
723.853	2772.95
724.04	2875.35
724.227	2854.87
724.414	2889.68
724.6	2783.19
724.787	2803.67
724.974	2791.38
725.161	2674.65
725.347	2830.29
725.534	2762.71
725.72	2764.76
725.907	2699.22
726.094	2830.29
726.28	2832.34
726.467	2742.23
726.653	2658.26
726.84	2772.95
727.027	2635.74
727.213	2621.4
727.4	2695.13
727.586	2633.69
727.773	2617.3
727.959	2504.67
728.145	2641.88
728.332	2652.12
728.518	2519
728.705	2519
728.891	2564.06
729.077	2643.93
729.264	2428.89
729.45	2588.63
729.636	2562.01
729.823	2478.04
730.009	2545.63
730.195	2559.96
730.382	2451.42
730.568	2461.66
730.754	2480.09
730.94	2559.96
731.126	2478.04
731.313	2539.48
731.499	2519
731.685	2439.13
731.871	2396.12
732.057	2412.51
732.243	2453.47
732.429	2488.28
732.615	2383.84
732.801	2414.56
732.987	2383.84
733.173	2408.41
733.359	2338.78
733.545	2322.4
733.731	2324.44
733.917	2349.02
734.103	2310.11
734.289	2340.83
734.475	2389.98
734.661	2430.94
734.847	2367.45
735.033	2260.96
735.219	2336.73
735.404	2242.53
735.59	2295.77
735.776	2152.42
735.962	2174.94
736.148	2260.96
736.333	2287.58
736.519	2183.13
736.705	2340.83
736.89	2224.09
737.076	2174.94
737.262	2174.94
737.447	2240.48
737.633	2176.99
737.819	2123.74
738.004	2105.31
738.19	2136.03
738.375	2125.79
738.561	2170.85
738.747	2199.52
738.932	2047.97
739.118	2185.18
739.303	2156.51
739.489	2101.22
739.674	2074.59
739.859	2125.79
740.045	2078.69
740.23	2013.15
740.416	2023.39
740.601	2109.41
740.786	2011.11
740.972	2027.49
741.157	2027.49
741.342	2039.78
741.528	1914.85
741.713	1980.39
741.898	1994.72
742.084	1900.51
742.269	1925.09
742.454	1994.72
742.639	1953.76
742.824	1933.28
743.01	1955.81
743.195	1859.56
743.38	1875.94
743.565	1810.4
743.75	1826.79
743.935	1935.33
744.12	1851.36
744.305	1845.22
744.49	1779.68
744.675	1830.88
744.86	1816.55
745.045	1796.07
745.23	1908.71
745.415	1765.35
745.6	1851.36
745.785	1716.2
745.97	1773.54
746.155	1732.58
746.34	1736.68
746.525	1761.25
746.71	1783.78
746.895	1626.09
747.079	1566.7
747.264	1794.02
747.449	1751.01
747.634	1667.05
747.819	1552.36
748.003	1574.89
748.188	1703.91
748.373	1605.61
748.557	1667.05
748.742	1578.98
748.927	1609.7
749.111	1564.65
749.296	1538.02
749.481	1605.61
749.665	1626.09
749.85	1548.26
750.034	1576.94
750.219	1538.02
750.404	1441.77
750.588	1525.74
750.773	1404.91
750.957	1495.02
751.141	1535.98
751.326	1464.3
751.51	1478.63
751.695	1429.48
751.879	1521.64
752.064	1431.53
752.248	1390.57
752.432	1519.59
752.617	1462.25
752.801	1368.04
752.985	1413.1
753.17	1322.99
753.354	1466.35
753.538	1322.99
753.722	1331.18
753.907	1308.65
754.091	1191.92
754.275	1200.11
754.459	1325.04
754.643	1226.73
754.828	1228.78
755.012	1226.73
755.196	1202.16
755.38	1257.45
755.564	1226.73
755.748	1142.77
755.932	1331.18
756.116	1210.35
756.3	1208.3
756.484	1091.57
756.668	1292.27
756.852	1062.9
757.036	1224.69
757.22	1226.73
757.404	1019.89
757.588	1239.02
757.772	1200.11
757.956	1159.15
758.14	1060.85
758.323	1085.42
758.507	1036.27
758.691	1105.9
758.875	1064.94
759.059	1052.66
759.242	1077.23
759.426	987.12
759.61	1044.46
759.794	1087.47
759.977	1118.19
760.161	1187.82
760.345	1159.15
760.528	1019.89
760.712	1204.21
760.895	1093.62
761.079	1073.14
761.263	913.39
761.446	954.35
761.63	927.73
761.813	1026.03
761.997	1019.89
762.18	970.74
762.364	978.93
762.547	987.12
762.731	956.4
762.914	964.59
763.098	894.96
763.281	954.35
763.464	909.3
763.648	954.35
763.831	899.06
764.015	849.91
764.198	989.17
764.381	909.3
764.564	876.53
764.748	860.15
764.931	905.2
765.114	921.59
765.297	921.59
765.481	862.19
765.664	976.88
765.847	905.2
766.03	917.49
766.213	856.05
766.397	897.01
766.58	888.82
766.763	974.83
766.946	866.29
767.129	915.44
767.312	833.52
767.495	899.06
767.678	815.09
767.861	897.01
768.044	851.95
768.227	778.23
768.41	866.29
768.593	851.95
768.776	847.86
768.959	858.1
769.142	876.53
769.324	905.2
769.507	841.72
769.69	866.29
769.873	833.52
770.056	923.63
770.239	864.24
770.421	833.52
770.604	815.09
770.787	776.18
770.97	718.84
771.152	798.71
771.335	776.18
771.518	782.32
771.7	872.43
771.883	798.71
772.066	798.71
772.248	763.89
772.431	847.86
772.613	786.42
772.796	888.82
772.978	749.56
773.161	878.58
773.343	782.32
773.526	694.26
773.708	770.04
773.891	667.64
774.073	667.64
774.256	737.27
774.438	716.79
774.621	755.7
774.803	733.17
774.985	743.41
775.168	704.5
775.35	636.92
775.532	839.67
775.715	751.6
775.897	692.21
776.079	716.79
776.261	724.98
776.444	632.82
776.626	661.49
776.808	620.53
776.99	679.93
777.173	651.25
777.355	684.02
777.537	688.12
777.719	686.07
777.901	702.45
778.083	577.53
778.265	626.68
778.447	561.14
778.629	518.14
778.811	569.34
778.993	636.92
779.175	679.93
779.357	593.91
779.539	612.34
779.721	651.25
779.903	532.47
780.085	610.29
780.267	514.04
780.449	559.1
780.631	636.92
780.812	520.18
780.994	546.81
781.176	595.96
781.358	589.81
781.54	544.76
781.721	552.95
781.903	577.53
782.085	466.94
782.267	540.66
782.448	464.89
782.63	456.7
782.812	561.14
782.993	538.62
783.175	511.99
783.357	421.88
783.538	481.27
783.72	489.46
783.901	487.42
784.083	503.8
784.264	407.55
784.446	514.04
784.627	421.88
784.809	432.12
784.99	491.51
785.172	491.51
785.353	483.32
785.535	415.74
785.716	507.9
785.897	376.83
786.079	458.75
786.26	380.92
786.441	481.27
786.623	468.98
786.804	421.88
786.985	354.3
787.167	430.07
787.348	385.02
787.529	309.24
787.71	559.1
787.891	434.17
788.073	407.55
788.254	413.69
788.435	421.88
788.616	413.69
788.797	284.67
788.978	376.83
789.159	313.34
789.34	393.21
789.522	399.35
789.703	348.15
789.884	356.35
790.065	331.77
790.246	489.46
790.427	315.39
790.607	419.83
790.788	331.77
790.969	319.48
791.15	309.24
791.331	325.63
791.512	299
791.693	331.77
791.874	301.05
792.054	454.65
792.235	399.35
792.416	260.09
792.597	278.52
792.778	380.92
792.958	311.29
793.139	339.96
793.32	387.07
793.5	288.76
793.681	432.12
793.862	319.48
794.042	372.73
794.223	233.47
794.404	221.18
794.584	286.72
794.765	327.67
794.945	331.77
795.126	282.62
795.306	294.91
795.487	301.05
795.667	237.56
795.848	348.15
796.028	315.39
796.209	290.81
796.389	274.43
796.57	352.25
796.75	274.43
796.93	315.39
797.111	210.94
797.291	229.37
797.471	292.86
797.652	258.04
797.832	186.37
798.012	356.35
798.192	225.28
798.373	260.09
798.553	262.14
798.733	290.81
798.913	147.45
799.093	284.67
799.274	192.51
799.454	323.58
799.634	258.04
799.814	245.76
799.994	288.76
800.174	348.15
800.354	172.03
800.534	215.04
800.714	229.37
800.894	219.13
801.074	239.61
801.254	219.13
801.434	184.32
801.614	208.89
801.794	169.98
801.974	1071.09
802.154	247.8
802.334	231.42
802.514	186.37
802.693	143.36
802.873	129.02
803.053	221.18
803.233	206.84
803.413	200.7
803.592	217.08
803.772	159.74
803.952	151.55
804.131	169.98
804.311	249.85
804.491	270.33
804.67	251.9
804.85	221.18
805.03	245.76
805.209	217.08
805.389	299
805.568	186.37
805.748	151.55
805.928	139.26
806.107	219.13
806.287	243.71
806.466	303.1
806.646	233.47
806.825	167.93
807.004	235.52
807.184	217.08
807.363	235.52
807.543	149.5
807.722	153.6
807.901	243.71
808.081	178.17
808.26	235.52
808.439	135.17
808.619	139.26
808.798	188.41
808.977	94.21
809.156	139.26
809.336	176.13
809.515	178.17
809.694	172.03
809.873	167.93
810.052	227.32
810.231	159.74
810.411	184.32
810.59	227.32
810.769	174.08
810.948	192.51
811.127	79.87
811.306	192.51
811.485	184.32
811.664	131.07
811.843	192.51
812.022	176.13
812.201	163.84
812.38	217.08
812.559	163.84
812.737	135.17
812.916	104.45
813.095	122.88
813.274	106.49
813.453	135.17
813.632	163.84
813.811	151.55
813.989	61.44
814.168	118.78
814.347	81.92
814.526	227.32
814.704	143.36
814.883	126.97
815.062	106.49
815.24	139.26
815.419	77.82
815.598	186.37
815.776	67.58
815.955	139.26
816.133	118.78
816.312	118.78
816.49	167.93
816.669	73.73
816.847	96.25
817.026	178.17
817.204	126.97
817.383	178.17
817.561	110.59
817.74	69.63
817.918	55.3
818.097	118.78
818.275	129.02
818.453	106.49
818.632	88.06
818.81	77.82
818.988	77.82
819.167	104.45
819.345	174.08
819.523	102.4
819.701	110.59
819.879	106.49
820.058	69.63
820.236	151.55
820.414	120.83
820.592	59.39
820.77	161.79
820.948	120.83
821.127	155.65
821.305	126.97
821.483	67.58
821.661	124.93
821.839	71.68
822.017	143.36
822.195	118.78
822.373	145.41
822.551	79.87
822.729	202.75
822.907	118.78
823.085	208.89
823.262	153.6
823.44	49.15
823.618	22.53
823.796	112.64
823.974	77.82
824.152	38.91
824.329	57.34
824.507	86.01
824.685	108.54
824.863	133.12
825.04	110.59
825.218	176.13
825.396	45.06
825.574	102.4
825.751	92.16
825.929	73.73
826.107	-2.05
826.284	94.21
826.462	192.51
826.639	157.69
826.817	28.67
826.994	100.35
827.172	-16.38
827.349	167.93
827.527	96.25
827.704	104.45
827.882	73.73
828.059	102.4
828.237	135.17
828.414	73.73
828.591	8.19
828.769	104.45
828.946	-2.05
829.124	47.1
829.301	96.25
829.478	94.21
829.655	143.36
829.833	65.53
830.01	-4.1
830.187	92.16
830.364	36.86
830.542	114.69
830.719	32.77
830.896	53.25
831.073	131.07
831.25	102.4
831.427	102.4
831.604	126.97
831.782	20.48
831.959	81.92
832.136	28.67
832.313	71.68
832.49	53.25
832.667	77.82
832.844	28.67
833.021	137.21
833.198	40.96
833.374	86.01
833.551	71.68
833.728	6.14
833.905	73.73
834.082	53.25
834.259	14.34
834.436	69.63
834.612	6.14
834.789	61.44
834.966	14.34
835.143	63.49
835.319	83.97
835.496	126.97
835.673	114.69
835.85	49.15
836.026	94.21
836.203	151.55
836.38	65.53
836.556	86.01
836.733	38.91
836.909	98.3
837.086	4.1
837.262	4.1
837.439	110.59
837.616	77.82
837.792	36.86
837.968	45.06
838.145	-61.44
838.321	45.06
838.498	88.06
838.674	118.78
838.851	20.48
839.027	57.34
839.203	122.88
839.38	32.77
839.556	77.82
839.732	63.49
839.909	47.1
840.085	71.68
840.261	45.06
840.437	22.53
840.614	36.86
840.79	110.59
840.966	96.25
841.142	114.69
841.318	61.44
841.494	36.86
841.671	61.44
841.847	20.48
842.023	-90.11
842.199	75.77
842.375	69.63
842.551	-28.67
842.727	53.25
842.903	131.07
843.079	28.67
843.255	22.53
843.431	32.77
843.607	135.17
843.783	-53.25
843.959	14.34
844.134	-28.67
844.31	75.77
844.486	32.77
844.662	4.1
844.838	40.96
845.013	14.34
845.189	-14.34
845.365	20.48
845.541	49.15
845.716	102.4
845.892	94.21
846.068	30.72
846.244	45.06
846.419	94.21
846.595	36.86
846.77	18.43
846.946	16.38
847.122	88.06
847.297	-2.05
847.473	118.78
847.648	2.05
847.824	20.48
847.999	-20.48
848.175	-28.67
848.35	61.44
848.526	71.68
848.701	4.1
848.876	-24.58
849.052	63.49
849.227	79.87
849.403	6.14
849.578	16.38
849.753	53.25
849.929	12.29
850.104	6.14
850.279	4.1
850.454	30.72
850.63	71.68
850.805	57.34
850.98	-14.34
851.155	47.1
851.33	22.53
851.505	20.48
851.681	63.49
851.856	45.06
852.031	53.25
852.206	69.63
852.381	16.38
852.556	20.48
852.731	94.21
852.906	22.53
853.081	22.53
853.256	47.1
853.431	38.91
853.606	20.48
853.781	-14.34
853.956	-26.62
854.131	30.72
854.305	28.67
854.48	16.38
854.655	-10.24
854.83	-12.29
855.005	-8.19
855.18	71.68
855.354	0
855.529	28.67
855.704	-20.48
855.879	71.68
856.053	-26.62
856.228	126.97
856.403	-4.1
856.577	4.1
856.752	63.49
856.926	-43.01
857.101	6.14
857.276	-18.43
857.45	-4.1
857.625	53.25
857.799	-8.19
857.974	-18.43
858.148	-106.49
858.323	59.39
858.497	-8.19
858.672	73.73
858.846	94.21
859.02	32.77
859.195	4.1
859.369	20.48
859.543	53.25
859.718	24.58
859.892	8.19
860.066	36.86
860.241	34.82
860.415	20.48
860.589	61.44
860.763	-4.1
860.938	22.53
861.112	32.77
861.286	-20.48
861.46	69.63
861.634	16.38
861.808	28.67
861.982	-12.29
862.157	-12.29
862.331	28.67
862.505	-8.19
862.679	-118.78
862.853	55.3
863.027	-40.96
863.201	110.59
863.375	24.58
863.549	-20.48
863.722	-20.48
863.896	-4.1
864.07	-8.19
864.244	-51.2
864.418	43.01
864.592	45.06
864.766	-12.29
864.939	-92.16
865.113	18.43
865.287	92.16
865.461	6.14
865.634	-22.53
865.808	0
865.982	-67.58
866.156	-16.38
866.329	-26.62
866.503	36.86
866.676	10.24
866.85	-22.53
867.024	32.77
867.197	14.34
867.371	0
867.544	10.24
867.718	4.1
867.891	32.77
868.065	6.14
868.238	-20.48
868.412	8.19
868.585	14.34
868.759	22.53
868.932	40.96
869.105	-59.39
869.279	-4.1
869.452	-88.06
869.625	-4.1
869.799	53.25
869.972	36.86
870.145	-2.05
870.319	6.14
870.492	-32.77
870.665	16.38
870.838	34.82
871.011	-49.15
871.185	55.3
871.358	-8.19
871.531	10.24
871.704	-59.39
871.877	32.77
872.05	40.96
872.223	-2.05
872.396	118.78
872.569	51.2
872.742	30.72
872.915	45.06
873.088	6.14
873.261	-45.06
873.434	45.06
873.607	34.82
873.78	67.58
873.953	57.34
874.126	-26.62
874.299	4.1
874.471	20.48
874.644	-4.1
874.817	-43.01
874.99	47.1
875.163	14.34
875.335	63.49
875.508	45.06
875.681	6.14
875.853	-4.1
876.026	-2.05
876.199	12.29
876.371	61.44
876.544	-34.82
876.717	49.15
876.889	6.14
877.062	-4.1
877.234	-4.1
877.407	8.19
877.579	40.96
877.752	14.34
877.924	28.67
878.097	-104.45
878.269	-12.29
878.442	-4.1
878.614	4.1
878.786	47.1
878.959	-10.24
879.131	-20.48
879.303	-26.62
879.476	-24.58
879.648	-6.14
879.82	-24.58
879.993	-20.48
880.165	6.14
880.337	-53.25
880.509	20.48
880.681	-69.63
880.854	-77.82
881.026	14.34
881.198	-12.29
881.37	88.06
881.542	-59.39
881.714	0
881.886	-51.2
882.058	-75.77
882.23	-18.43
882.402	49.15
882.574	4.1
882.746	-4.1
882.918	73.73
883.09	12.29
883.262	28.67
883.434	49.15
883.606	-20.48
883.778	-12.29
883.95	53.25
884.122	-55.3
884.293	-2.05
884.465	-69.63
884.637	36.86
884.809	16.38
884.98	26.62
885.152	114.69
885.324	30.72
885.496	-75.77
885.667	-59.39
885.839	-22.53
886.011	36.86
886.182	-71.68
886.354	24.58
886.525	-6.14
886.697	-28.67
886.869	-20.48
887.04	28.67
887.212	-69.63
887.383	65.53
887.555	-69.63
887.726	-20.48
887.897	-94.21
888.069	-2.05
888.24	69.63
888.412	47.1
888.583	28.67
888.754	55.3
888.926	-108.54
889.097	-43.01
889.268	-77.82
889.44	-20.48
889.611	14.34
889.782	-61.44
889.953	6.14
890.125	20.48
890.296	-28.67
890.467	-18.43
890.638	-28.67
890.809	-36.86
890.98	-28.67
891.151	-40.96
891.323	38.91
891.494	-110.59
891.665	-16.38
891.836	51.2
892.007	4.1
892.178	-18.43
892.349	4.1
892.52	-28.67
892.691	20.48
892.862	2.05
893.032	10.24
893.203	-92.16
893.374	16.38
893.545	143.36
893.716	-102.4
893.887	43.01
894.057	6.14
894.228	16.38
894.399	-28.67
894.57	-8.19
894.74	6.14
894.911	4.1
895.082	71.68
895.253	-2.05
895.423	28.67
895.594	-26.62
895.764	-14.34
895.935	-18.43
896.106	-28.67
896.276	20.48
896.447	53.25
896.617	-71.68
896.788	-61.44
896.958	10.24
897.129	-4.1
897.299	16.38
897.47	-8.19
897.64	-12.29
897.81	12.29
897.981	8.19
898.151	20.48
898.322	20.48
898.492	49.15
898.662	-20.48
898.832	-96.25
899.003	-34.82
899.173	69.63
899.343	10.24
899.513	-8.19
