Data from USB4F104151__56__14-30-03-156.txt Node

Date: Thu Mar 13 14:30:03 EDT 2025
User: louis
Spectrometer: USB4F10415
Trigger mode: 4
Integration Time (sec): 2.500000E-2
Scans to average: 1
Electric dark correction enabled: true
Nonlinearity correction enabled: false
Boxcar width: 0
XAxis mode: Wavelengths
Number of Pixels in Spectrum: 3648
>>>>>Begin Spectral Data<<<<<
178.204	-119.64
178.424	-119.64
178.644	-119.64
178.864	-183.12
179.084	-201.55
179.304	-107.35
179.524	46.25
179.744	-17.24
179.964	76.97
180.184	-60.24
180.404	27.82
180.624	-13.14
180.844	-4.95
181.064	-13.14
181.283	-25.43
181.503	31.91
181.723	58.54
181.943	-19.29
182.163	52.39
182.383	1.19
182.602	11.43
182.822	29.87
183.042	-29.52
183.262	21.67
183.482	48.3
183.701	27.82
183.921	5.29
184.141	19.63
184.361	56.49
184.58	60.59
184.8	-43.86
185.02	-66.39
185.239	79.02
185.459	70.83
185.679	130.22
185.898	-9.05
186.118	68.78
186.338	-2.9
186.557	56.49
186.777	-13.14
186.997	46.25
187.216	7.34
187.436	42.15
187.655	19.63
187.875	62.63
188.095	97.45
188.314	23.72
188.534	-4.95
188.753	-45.91
188.973	93.35
189.192	76.97
189.412	56.49
189.631	60.59
189.851	13.48
190.07	150.7
190.29	-56.15
190.509	54.44
190.729	31.91
190.948	36.01
191.168	117.93
191.387	-52.05
191.607	-2.9
191.826	-4.95
192.045	56.49
192.265	68.78
192.484	111.78
192.704	101.55
192.923	1.19
193.142	79.02
193.362	-9.05
193.581	72.87
193.8	81.07
194.02	56.49
194.239	-27.48
194.458	19.63
194.678	5.29
194.897	79.02
195.116	52.39
195.335	101.55
195.555	36.01
195.774	-4.95
195.993	60.59
196.212	-19.29
196.432	29.87
196.651	48.3
196.87	79.02
197.089	48.3
197.308	58.54
197.528	76.97
197.747	25.77
197.966	-13.14
198.185	89.26
198.404	-0.85
198.623	27.82
198.842	79.02
199.062	87.21
199.281	46.25
199.5	23.72
199.719	13.48
199.938	46.25
200.157	38.06
200.376	11.43
200.595	72.87
200.814	54.44
201.033	21.67
201.252	103.59
201.471	21.67
201.69	19.63
201.909	13.48
202.128	27.82
202.347	76.97
202.566	-11.09
202.785	85.16
203.004	13.48
203.223	58.54
203.442	31.91
203.661	44.2
203.879	62.63
204.098	76.97
204.317	52.39
204.536	11.43
204.755	-27.48
204.974	74.92
205.193	36.01
205.411	81.07
205.63	31.91
205.849	44.2
206.068	13.48
206.287	38.06
206.505	79.02
206.724	60.59
206.943	38.06
207.162	-17.24
207.381	19.63
207.599	11.43
207.818	23.72
208.037	31.91
208.255	-35.67
208.474	62.63
208.693	48.3
208.911	56.49
209.13	36.01
209.349	52.39
209.567	21.67
209.786	29.87
210.005	113.83
210.223	-13.14
210.442	17.58
210.661	52.39
210.879	62.63
211.098	-29.52
211.316	3.24
211.535	25.77
211.753	-11.09
211.972	27.82
212.191	68.78
212.409	-27.48
212.628	56.49
212.846	-11.09
213.065	85.16
213.283	87.21
213.502	44.2
213.72	25.77
213.938	-29.52
214.157	13.48
214.375	15.53
214.594	93.35
214.812	99.5
215.031	27.82
215.249	83.11
215.467	81.07
215.686	38.06
215.904	46.25
216.122	44.2
216.341	97.45
216.559	27.82
216.778	19.63
216.996	54.44
217.214	7.34
217.432	15.53
217.651	52.39
217.869	36.01
218.087	38.06
218.306	-17.24
218.524	76.97
218.742	46.25
218.96	15.53
219.179	36.01
219.397	93.35
219.615	105.64
219.833	44.2
220.051	36.01
220.27	62.63
220.488	60.59
220.706	-45.91
220.924	60.59
221.142	31.91
221.36	3.24
221.578	128.17
221.796	11.43
222.015	36.01
222.233	44.2
222.451	64.68
222.669	79.02
222.887	117.93
223.105	38.06
223.323	89.26
223.541	-47.96
223.759	68.78
223.977	-4.95
224.195	46.25
224.413	101.55
224.631	21.67
224.849	33.96
225.067	79.02
225.285	62.63
225.503	79.02
225.721	-95.06
225.939	79.02
226.157	27.82
226.375	134.31
226.592	-31.57
226.81	-0.85
227.028	93.35
227.246	93.35
227.464	44.2
227.682	3.24
227.9	7.34
228.117	1.19
228.335	76.97
228.553	15.53
228.771	25.77
228.989	-29.52
229.206	-21.33
229.424	25.77
229.642	68.78
229.86	-50
230.077	42.15
230.295	95.4
230.513	40.11
230.731	85.16
230.948	46.25
231.166	36.01
231.384	-21.33
231.601	40.11
231.819	21.67
232.037	25.77
232.254	-7
232.472	79.02
232.689	-37.72
232.907	85.16
233.125	27.82
233.342	52.39
233.56	3.24
233.777	56.49
233.995	-13.14
234.213	105.64
234.43	15.53
234.648	36.01
234.865	54.44
235.083	109.74
235.3	-13.14
235.518	11.43
235.735	36.01
235.953	27.82
236.17	3.24
236.388	60.59
236.605	7.34
236.822	56.49
237.04	85.16
237.257	66.73
237.475	-21.33
237.692	46.25
237.909	29.87
238.127	-2.9
238.344	29.87
238.562	68.78
238.779	-45.91
238.996	72.87
239.214	54.44
239.431	109.74
239.648	3.24
239.865	36.01
240.083	-41.81
240.3	38.06
240.517	48.3
240.735	-33.62
240.952	126.12
241.169	38.06
241.386	38.06
241.603	31.91
241.821	-78.68
242.038	17.58
242.255	134.31
242.472	-33.62
242.689	101.55
242.907	33.96
243.124	27.82
243.341	27.82
243.558	-35.67
243.775	23.72
243.992	64.68
244.209	3.24
244.426	152.74
244.643	-4.95
244.86	48.3
245.078	-2.9
245.295	-2.9
245.512	7.34
245.729	9.39
245.946	27.82
246.163	62.63
246.38	79.02
246.597	36.01
246.814	52.39
247.031	60.59
247.248	19.63
247.464	58.54
247.681	50.35
247.898	7.34
248.115	5.29
248.332	-2.9
248.549	36.01
248.766	33.96
248.983	91.31
249.2	29.87
249.417	103.59
249.633	27.82
249.85	56.49
250.067	19.63
250.284	76.97
250.501	36.01
250.717	103.59
250.934	-25.43
251.151	-4.95
251.368	93.35
251.585	62.63
251.801	-15.19
252.018	-21.33
252.235	83.11
252.451	11.43
252.668	-13.14
252.885	66.73
253.102	42.15
253.318	42.15
253.535	81.07
253.752	27.82
253.968	11.43
254.185	-11.09
254.401	52.39
254.618	85.16
254.835	38.06
255.051	85.16
255.268	81.07
255.484	52.39
255.701	11.43
255.917	83.11
256.134	-19.29
256.351	-9.05
256.567	11.43
256.784	79.02
257	11.43
257.217	5.29
257.433	21.67
257.65	64.68
257.866	-11.09
258.082	23.72
258.299	52.39
258.515	89.26
258.732	103.59
258.948	13.48
259.165	60.59
259.381	70.83
259.597	1.19
259.814	11.43
260.03	68.78
260.246	-39.76
260.463	85.16
260.679	62.63
260.895	-35.67
261.112	-19.29
261.328	-37.72
261.544	-60.24
261.761	134.31
261.977	19.63
262.193	38.06
262.409	11.43
262.626	64.68
262.842	64.68
263.058	62.63
263.274	5.29
263.49	79.02
263.707	9.39
263.923	11.43
264.139	7.34
264.355	36.01
264.571	21.67
264.787	27.82
265.004	21.67
265.22	87.21
265.436	36.01
265.652	-21.33
265.868	-0.85
266.084	42.15
266.3	109.74
266.516	-13.14
266.732	48.3
266.948	81.07
267.164	72.87
267.38	7.34
267.596	93.35
267.812	64.68
268.028	33.96
268.244	56.49
268.46	38.06
268.676	70.83
268.892	23.72
269.108	29.87
269.324	72.87
269.54	33.96
269.756	83.11
269.972	-52.05
270.188	64.68
270.403	-41.81
270.619	21.67
270.835	31.91
271.051	-23.38
271.267	-9.05
271.483	117.93
271.698	19.63
271.914	46.25
272.13	40.11
272.346	76.97
272.562	72.87
272.777	109.74
272.993	70.83
273.209	13.48
273.425	44.2
273.64	11.43
273.856	54.44
274.072	52.39
274.287	-4.95
274.503	105.64
274.719	48.3
274.934	5.29
275.15	-64.34
275.366	29.87
275.581	27.82
275.797	50.35
276.012	103.59
276.228	27.82
276.444	27.82
276.659	36.01
276.875	5.29
277.09	23.72
277.306	19.63
277.521	76.97
277.737	11.43
277.952	101.55
278.168	95.4
278.383	-0.85
278.599	68.78
278.814	44.2
279.03	38.06
279.245	68.78
279.461	-19.29
279.676	11.43
279.892	-9.05
280.107	54.44
280.322	-17.24
280.538	52.39
280.753	44.2
280.969	3.24
281.184	19.63
281.399	13.48
281.615	52.39
281.83	160.94
282.045	15.53
282.26	-4.95
282.476	23.72
282.691	23.72
282.906	9.39
283.122	40.11
283.337	46.25
283.552	79.02
283.767	38.06
283.983	46.25
284.198	42.15
284.413	40.11
284.628	-54.1
284.843	56.49
285.058	70.83
285.274	31.91
285.489	-33.62
285.704	29.87
285.919	19.63
286.134	60.59
286.349	-0.85
286.564	33.96
286.779	113.83
286.995	64.68
287.21	-13.14
287.425	27.82
287.64	-43.86
287.855	62.63
288.07	-4.95
288.285	142.5
288.5	13.48
288.715	76.97
288.93	81.07
289.145	46.25
289.36	31.91
289.575	-13.14
289.79	56.49
290.004	52.39
290.219	29.87
290.434	-4.95
290.649	93.35
290.864	36.01
291.079	40.11
291.294	31.91
291.509	13.48
291.724	36.01
291.938	-50
292.153	36.01
292.368	60.59
292.583	7.34
292.798	19.63
293.012	52.39
293.227	3.24
293.442	62.63
293.657	95.4
293.871	40.11
294.086	54.44
294.301	56.49
294.516	56.49
294.73	103.59
294.945	79.02
295.16	68.78
295.374	117.93
295.589	60.59
295.804	46.25
296.018	-50
296.233	33.96
296.447	19.63
296.662	-31.57
296.877	19.63
297.091	-17.24
297.306	40.11
297.52	62.63
297.735	46.25
297.949	68.78
298.164	60.59
298.378	44.2
298.593	19.63
298.807	5.29
299.022	-43.86
299.236	111.78
299.451	-0.85
299.665	9.39
299.88	64.68
300.094	7.34
300.309	36.01
300.523	42.15
300.737	7.34
300.952	23.72
301.166	56.49
301.381	-25.43
301.595	3.24
301.809	11.43
302.024	21.67
302.238	46.25
302.452	48.3
302.667	25.77
302.881	46.25
303.095	42.15
303.309	31.91
303.524	-33.62
303.738	11.43
303.952	-25.43
304.166	101.55
304.381	-29.52
304.595	29.87
304.809	7.34
305.023	64.68
305.237	-13.14
305.452	44.2
305.666	60.59
305.88	46.25
306.094	-11.09
306.308	3.24
306.522	62.63
306.736	11.43
306.95	122.02
307.164	-62.29
307.379	21.67
307.593	109.74
307.807	50.35
308.021	38.06
308.235	68.78
308.449	-11.09
308.663	-2.9
308.877	109.74
309.091	-7
309.305	29.87
309.519	-4.95
309.733	101.55
309.947	-11.09
310.161	85.16
310.374	70.83
310.588	122.02
310.802	-17.24
311.016	15.53
311.23	21.67
311.444	-62.29
311.658	44.2
311.872	60.59
312.085	111.78
312.299	76.97
312.513	103.59
312.727	19.63
312.941	-37.72
313.154	101.55
313.368	5.29
313.582	66.73
313.796	48.3
314.009	52.39
314.223	46.25
314.437	58.54
314.651	9.39
314.864	21.67
315.078	42.15
315.292	68.78
315.505	68.78
315.719	85.16
315.933	27.82
316.146	68.78
316.36	-27.48
316.573	11.43
316.787	23.72
317.001	130.22
317.214	-21.33
317.428	11.43
317.641	52.39
317.855	-4.95
318.068	-4.95
318.282	93.35
318.495	126.12
318.709	99.5
318.922	15.53
319.136	-4.95
319.349	74.92
319.563	60.59
319.776	60.59
319.99	76.97
320.203	62.63
320.417	15.53
320.63	44.2
320.843	119.98
321.057	15.53
321.27	97.45
321.483	50.35
321.697	109.74
321.91	19.63
322.124	19.63
322.337	-2.9
322.55	-4.95
322.763	27.82
322.977	44.2
323.19	50.35
323.403	27.82
323.617	40.11
323.83	93.35
324.043	-4.95
324.256	3.24
324.469	25.77
324.683	87.21
324.896	29.87
325.109	60.59
325.322	-11.09
325.535	68.78
325.748	76.97
325.962	44.2
326.175	40.11
326.388	99.5
326.601	95.4
326.814	36.01
327.027	-2.9
327.24	177.32
327.453	13.48
327.666	101.55
327.879	126.12
328.092	70.83
328.305	36.01
328.518	79.02
328.731	56.49
328.944	-45.91
329.157	-47.96
329.37	-31.57
329.583	136.36
329.796	76.97
330.009	-15.19
330.222	117.93
330.435	103.59
330.648	70.83
330.861	85.16
331.073	36.01
331.286	130.22
331.499	19.63
331.712	5.29
331.925	44.2
332.138	-15.19
332.35	36.01
332.563	-9.05
332.776	95.4
332.989	70.83
333.202	-33.62
333.414	46.25
333.627	3.24
333.84	23.72
334.053	74.92
334.265	85.16
334.478	60.59
334.691	52.39
334.903	31.91
335.116	72.87
335.329	36.01
335.541	29.87
335.754	93.35
335.966	89.26
336.179	27.82
336.392	7.34
336.604	95.4
336.817	64.68
337.029	19.63
337.242	11.43
337.454	68.78
337.667	-13.14
337.88	117.93
338.092	81.07
338.305	40.11
338.517	23.72
338.729	93.35
338.942	56.49
339.154	-7
339.367	48.3
339.579	44.2
339.792	11.43
340.004	97.45
340.217	44.2
340.429	95.4
340.641	-35.67
340.854	64.68
341.066	-13.14
341.278	-35.67
341.491	119.98
341.703	68.78
341.915	3.24
342.128	103.59
342.34	66.73
342.552	85.16
342.764	27.82
342.977	33.96
343.189	-19.29
343.401	107.69
343.613	-29.52
343.826	68.78
344.038	44.2
344.25	93.35
344.462	38.06
344.674	44.2
344.886	21.67
345.099	19.63
345.311	60.59
345.523	62.63
345.735	11.43
345.947	60.59
346.159	60.59
346.371	-9.05
346.583	76.97
346.795	93.35
347.007	56.49
347.219	68.78
347.431	122.02
347.643	99.5
347.855	36.01
348.067	56.49
348.279	-70.48
348.491	46.25
348.703	-13.14
348.915	60.59
349.127	-4.95
349.339	29.87
349.551	52.39
349.763	-2.9
349.975	52.39
350.187	36.01
350.399	15.53
350.61	70.83
350.822	13.48
351.034	42.15
351.246	62.63
351.458	36.01
351.669	54.44
351.881	97.45
352.093	62.63
352.305	119.98
352.517	-37.72
352.728	79.02
352.94	27.82
353.152	19.63
353.363	-25.43
353.575	95.4
353.787	81.07
353.999	38.06
354.21	36.01
354.422	-13.14
354.633	-2.9
354.845	-33.62
355.057	85.16
355.268	29.87
355.48	29.87
355.692	64.68
355.903	38.06
356.115	31.91
356.326	23.72
356.538	107.69
356.749	-11.09
356.961	36.01
357.172	11.43
357.384	48.3
357.595	62.63
357.807	36.01
358.018	81.07
358.23	50.35
358.441	154.79
358.653	52.39
358.864	3.24
359.075	91.31
359.287	56.49
359.498	85.16
359.709	99.5
359.921	175.27
360.132	56.49
360.344	95.4
360.555	33.96
360.766	11.43
360.977	-2.9
361.189	40.11
361.4	29.87
361.611	126.12
361.823	126.12
362.034	85.16
362.245	-15.19
362.456	109.74
362.667	58.54
362.879	29.87
363.09	44.2
363.301	40.11
363.512	40.11
363.723	19.63
363.935	95.4
364.146	93.35
364.357	62.63
364.568	76.97
364.779	44.2
364.99	50.35
365.201	-4.95
365.412	7.34
365.623	15.53
365.834	81.07
366.045	60.59
366.256	81.07
366.467	52.39
366.678	68.78
366.889	68.78
367.1	64.68
367.311	160.94
367.522	44.2
367.733	62.63
367.944	70.83
368.155	76.97
368.366	117.93
368.577	-15.19
368.788	62.63
368.999	-15.19
369.209	76.97
369.42	109.74
369.631	119.98
369.842	56.49
370.053	85.16
370.264	97.45
370.474	60.59
370.685	-21.33
370.896	46.25
371.107	117.93
371.317	85.16
371.528	36.01
371.739	70.83
371.95	62.63
372.16	130.22
372.371	-11.09
372.582	38.06
372.792	-11.09
373.003	64.68
373.214	50.35
373.424	87.21
373.635	54.44
373.846	132.26
374.056	27.82
374.267	60.59
374.477	13.48
374.688	5.29
374.898	33.96
375.109	70.83
375.319	40.11
375.53	87.21
375.74	85.16
375.951	46.25
376.161	83.11
376.372	60.59
376.582	19.63
376.793	40.11
377.003	33.96
377.214	-37.72
377.424	144.55
377.635	13.48
377.845	15.53
378.055	183.46
378.266	11.43
378.476	17.58
378.686	70.83
378.897	48.3
379.107	23.72
379.317	68.78
379.528	36.01
379.738	85.16
379.948	9.39
380.158	79.02
380.369	52.39
380.579	144.55
380.789	103.59
380.999	38.06
381.21	97.45
381.42	138.41
381.63	-4.95
381.84	146.6
382.05	36.01
382.261	111.78
382.471	134.31
382.681	68.78
382.891	109.74
383.101	60.59
383.311	9.39
383.521	40.11
383.731	115.88
383.941	56.49
384.151	40.11
384.361	85.16
384.571	97.45
384.781	21.67
384.991	79.02
385.201	165.03
385.411	146.6
385.621	101.55
385.831	83.11
386.041	68.78
386.251	52.39
386.461	134.31
386.671	-29.52
386.881	169.13
387.091	50.35
387.301	101.55
387.511	74.92
387.72	111.78
387.93	109.74
388.14	76.97
388.35	85.16
388.56	40.11
388.769	95.4
388.979	101.55
389.189	76.97
389.399	122.02
389.609	21.67
389.818	29.87
390.028	68.78
390.238	124.07
390.447	154.79
390.657	11.43
390.867	44.2
391.076	72.87
391.286	179.37
391.496	62.63
391.705	48.3
391.915	48.3
392.125	95.4
392.334	-17.24
392.544	144.55
392.753	85.16
392.963	29.87
393.172	44.2
393.382	68.78
393.591	216.23
393.801	74.92
394.01	126.12
394.22	89.26
394.429	76.97
394.639	72.87
394.848	85.16
395.058	97.45
395.267	66.73
395.477	93.35
395.686	152.74
395.895	117.93
396.105	148.65
396.314	154.79
396.524	124.07
396.733	101.55
396.942	126.12
397.152	64.68
397.361	56.49
397.57	27.82
397.78	167.08
397.989	107.69
398.198	212.14
398.407	113.83
398.617	117.93
398.826	66.73
399.035	158.89
399.244	165.03
399.453	56.49
399.663	113.83
399.872	46.25
400.081	76.97
400.29	144.55
400.499	27.82
400.708	251.05
400.917	150.7
401.127	158.89
401.336	105.64
401.545	167.08
401.754	175.27
401.963	160.94
402.172	122.02
402.381	130.22
402.59	158.89
402.799	144.55
403.008	234.66
403.217	183.46
403.426	134.31
403.635	56.49
403.844	173.22
404.053	136.36
404.262	203.94
404.471	240.81
404.68	214.18
404.888	158.89
405.097	169.13
405.306	251.05
405.515	208.04
405.724	175.27
405.933	259.24
406.142	208.04
406.35	279.72
406.559	183.46
406.768	203.94
406.977	205.99
407.185	283.81
407.394	261.29
407.603	281.77
407.812	273.57
408.02	298.15
408.229	289.96
408.438	249
408.646	273.57
408.855	285.86
409.064	316.58
409.272	281.77
409.481	341.16
409.69	289.96
409.898	339.11
410.107	320.68
410.315	464.04
410.524	330.92
410.733	365.73
410.941	359.59
411.15	457.89
411.358	406.69
411.567	507.04
411.775	511.14
411.984	414.88
412.192	474.28
412.401	564.39
412.609	566.43
412.818	617.63
413.026	601.25
413.234	619.68
413.443	543.91
413.651	595.11
413.86	644.26
414.068	691.36
414.276	773.28
414.485	709.79
414.693	752.8
414.901	814.24
415.11	777.37
415.318	834.72
415.526	773.28
415.734	920.73
415.943	959.64
416.151	986.27
416.359	933.02
416.567	1021.08
416.776	1084.57
416.984	1084.57
417.192	1092.76
417.4	1158.3
417.608	1164.44
417.817	1203.35
418.025	1248.41
418.233	1266.84
418.441	1350.81
418.649	1354.9
418.857	1420.44
419.065	1567.89
419.273	1584.27
419.481	1518.74
419.689	1701.01
419.897	1731.73
420.105	1866.89
420.313	1905.81
420.521	1907.85
420.729	1952.91
420.937	2006.16
421.145	2002.06
421.353	2239.62
421.561	2276.49
421.769	2266.25
421.977	2360.45
422.185	2395.27
422.393	2591.88
422.601	2698.37
422.809	2823.3
423.017	2751.62
423.224	2878.59
423.432	3071.1
423.64	2978.94
423.848	3429.49
424.056	3167.35
424.263	3411.06
424.471	3417.21
424.679	3468.41
424.887	3574.9
425.094	3687.54
425.302	3902.58
425.51	3832.94
425.718	3972.21
425.925	4107.37
426.133	4148.33
426.341	4406.38
426.548	4576.36
426.756	4617.32
426.964	4643.94
427.171	4959.33
427.379	4998.24
427.586	5110.88
427.794	5235.8
428.001	5665.88
428.209	5850.19
428.417	5676.12
428.624	6081.61
428.832	6179.92
429.039	5950.54
429.247	6018.13
429.454	6794.31
429.662	7091.26
429.869	6566.98
430.076	7046.21
430.284	6847.55
430.491	7349.31
430.699	7486.52
430.906	7638.07
431.114	7724.08
431.321	7984.18
431.528	7951.41
431.736	8709.16
431.943	8971.3
432.15	8637.48
432.358	8842.28
432.565	9380.89
432.772	9069.6
432.979	9729.05
433.187	9903.12
433.394	9948.18
433.601	10720.26
433.808	10613.77
434.016	10415.12
434.223	11115.52
434.43	11676.66
434.637	11342.85
434.844	12481.52
435.052	12428.27
435.259	12301.29
435.466	12481.52
435.673	12321.77
435.88	12860.39
436.087	13814.74
436.294	13685.72
436.501	13310.94
436.708	13894.61
436.915	14183.38
437.122	14896.07
437.329	14963.65
437.537	15246.27
437.743	15512.51
437.95	15023.05
438.157	16319.41
438.364	16692.14
438.571	16608.17
438.778	16651.18
438.985	18336.66
439.192	17449.89
439.399	18107.29
439.606	17607.58
439.813	18758.54
440.02	19622.78
440.227	19553.15
440.433	19223.43
440.64	20018.04
440.847	19401.6
441.054	20173.69
441.261	21609.31
441.467	21085.03
441.674	21588.83
441.881	22471.51
442.088	22381.4
442.294	21949.28
442.501	22870.86
442.708	23032.65
442.914	24122.17
443.121	25101.1
443.328	24378.17
443.534	26346.26
443.741	25611.04
443.948	24980.27
444.154	26686.23
444.361	26614.55
444.568	26839.83
444.774	26723.09
444.981	27067.15
445.187	27949.82
445.394	29184.75
445.6	28629.75
445.807	31621.83
446.013	30495.45
446.22	30728.92
446.426	31826.63
446.633	32406.2
446.839	33079.99
447.046	32035.52
447.252	34011.81
447.459	33712.81
447.665	33389.23
447.871	34728.6
448.078	36520.57
448.284	34767.51
448.491	35568.27
448.697	36817.53
448.903	37741.16
449.11	37657.2
449.316	37073.52
449.522	37724.78
449.728	38746.72
449.935	38912.6
450.141	39053.91
450.347	39969.35
450.553	38947.42
450.76	39352.91
450.966	40583.74
451.172	40000.07
451.378	40856.12
451.584	40120.9
451.791	41198.13
451.997	40962.62
452.203	41433.65
452.409	41548.34
452.615	41646.64
452.821	39727.69
453.027	39494.22
453.233	41828.91
453.44	40012.36
453.646	40372.8
453.852	40964.67
454.058	40817.21
454.264	39721.55
454.47	40813.12
454.676	39770.7
454.882	41132.6
455.088	37331.57
455.294	38132.32
455.5	38656.6
455.705	38918.74
455.911	37200.5
456.117	36643.45
456.323	36424.32
456.529	34230.94
456.735	35740.3
456.941	34783.9
457.147	34343.58
457.352	33010.35
457.558	32768.69
457.764	32793.27
457.97	31869.64
458.176	31812.29
458.381	31916.74
458.587	30063.33
458.793	29850.34
458.999	28502.78
459.204	30358.24
459.41	29416.17
459.616	27589.38
459.821	27607.81
460.027	27749.12
460.233	26796.82
460.438	25891.62
460.644	26016.54
460.85	24574.77
461.055	24099.64
461.261	24025.92
461.466	22303.57
461.672	21785.44
461.878	23382.85
462.083	21496.67
462.289	21082.98
462.494	21414.76
462.7	20345.72
462.905	19501.95
463.111	20265.85
463.316	20566.9
463.522	19743.61
463.727	19784.57
463.932	19852.16
464.138	19755.9
464.343	19800.96
464.549	19037.06
464.754	19872.64
464.959	19460.99
465.165	19495.81
465.37	18437.01
465.575	18131.86
465.781	18928.52
465.986	18813.84
466.191	18174.87
466.397	17755.04
466.602	16931.75
466.807	17374.11
467.012	17677.21
467.218	17365.92
467.423	17247.14
467.628	17281.95
467.833	17920.92
468.038	17429.41
468.244	16960.42
468.449	17673.12
468.654	16929.7
468.859	16964.52
469.064	16817.07
469.269	15997.88
469.474	16214.96
469.679	16280.5
469.885	15940.54
470.09	16174
470.295	16034.74
470.5	15494.08
470.705	15770.55
470.91	15551.42
471.115	15193.03
471.32	15381.44
471.525	15526.85
471.73	14801.86
471.935	14982.09
472.139	14250.96
472.344	14523.34
472.549	14429.13
472.754	14547.92
472.959	14074.84
473.164	13743.06
473.369	13599.71
473.574	13982.68
473.778	13960.15
473.983	13661.15
474.188	13646.81
474.393	13210.59
474.598	13204.45
474.802	12755.94
475.007	12983.27
475.212	12878.82
475.417	12352.49
475.621	12366.83
475.826	12428.27
476.031	12430.32
476.235	11996.15
476.44	12307.44
476.645	11817.97
476.849	12092.4
477.054	11863.03
477.259	11600.89
477.463	11639.8
477.668	11453.44
477.872	11428.86
478.077	11045.89
478.282	10865.67
478.486	10968.07
478.691	10730.5
478.895	10968.07
479.1	10832.9
479.304	10869.76
479.509	10415.12
479.713	10572.81
479.918	10439.69
480.122	10218.51
480.326	10474.51
480.531	10349.58
480.735	10275.85
480.94	10105.87
481.144	10439.69
481.348	10038.29
481.553	10161.17
481.757	9810.96
481.961	10136.59
482.166	9966.61
482.37	10089.49
482.574	9804.82
482.778	9962.51
482.983	10032.15
483.187	9991.19
483.391	10103.82
483.595	9876.5
483.8	9827.35
484.004	9827.35
484.208	9948.18
484.412	9624.6
484.616	9917.46
484.821	10089.49
485.025	9796.63
485.229	9896.98
485.433	9710.61
485.637	9980.95
485.841	9718.81
486.045	9772.05
486.249	9913.36
486.453	9788.44
486.657	9835.54
486.861	9671.7
487.065	9440.28
487.269	9792.53
487.473	9442.33
487.677	9960.47
487.881	9817.11
488.085	9780.25
488.289	9802.77
488.493	9554.97
488.697	9810.96
488.901	9907.22
489.105	9792.53
489.309	9767.96
489.512	9864.21
489.716	9651.22
489.92	9794.58
490.124	9927.7
490.328	10095.63
490.531	9835.54
490.735	9939.99
490.939	9835.54
491.143	9745.43
491.346	9884.69
491.55	10267.66
491.754	10087.44
491.958	10112.02
492.161	10286.09
492.365	10193.94
492.569	10179.6
492.772	10138.64
492.976	10230.8
493.18	10349.58
493.383	10570.76
493.587	10243.09
493.79	10513.42
493.994	10327.05
494.197	10341.39
494.401	10611.72
494.605	10591.24
494.808	10740.74
495.012	10658.82
495.215	10804.23
495.419	10869.76
495.622	10923.01
495.825	10957.83
496.029	10988.55
496.232	11123.71
496.436	11271.17
496.639	11551.74
496.843	11392
497.046	11469.82
497.249	11744.25
497.453	11752.44
497.656	11621.37
497.859	11971.57
498.063	12006.39
498.266	12213.23
498.469	12110.83
498.673	12334.06
498.876	12372.97
499.079	12518.38
499.282	12370.93
499.485	12860.39
499.689	12757.99
499.892	13171.68
500.095	13028.32
500.298	13351.9
500.501	13239.26
500.705	13671.39
500.908	13642.71
501.111	13954.01
501.314	13906.9
501.517	14080.98
501.72	14132.18
501.923	14101.46
502.126	14543.82
502.329	14748.62
502.532	14830.54
502.735	14767.05
502.938	14967.75
503.141	15133.64
503.344	15500.22
503.547	15367.1
503.75	15619
503.953	15911.86
504.156	15969.21
504.359	15825.85
504.562	16270.26
504.765	16380.85
504.968	16413.62
505.17	16919.46
505.373	17019.81
505.576	16800.68
505.779	17398.69
505.982	17402.79
506.185	17705.88
506.387	17869.72
506.59	17959.83
506.793	18379.67
506.996	18068.37
507.198	18676.62
507.401	18502.54
507.604	18883.47
507.807	18987.91
508.009	19370.88
508.212	19151.75
508.415	19659.65
508.617	19854.2
508.82	19979.13
509.022	20050.81
509.225	20663.15
509.428	20519.79
509.63	20657.01
509.833	20632.43
510.035	21408.61
510.238	20988.78
510.44	21298.02
510.643	21810.01
510.845	21986.14
511.048	21803.87
511.25	22137.69
511.453	21881.69
511.655	23122.76
511.858	22975.31
512.06	23079.75
512.262	23311.17
512.465	23413.57
512.667	23503.68
512.87	23464.77
513.072	24038.2
513.274	24437.56
513.477	24628.02
513.679	24679.22
513.881	24949.55
514.084	25654.05
514.286	25326.38
514.488	25510.69
514.69	25994.01
514.893	26202.91
515.095	25965.34
515.297	26084.12
515.499	26598.16
515.701	26895.12
515.904	27095.82
516.106	27616.01
516.308	27722.5
516.51	27708.16
516.712	28025.6
516.914	28039.93
517.116	28312.31
517.318	28549.88
517.52	28971.76
517.722	28664.57
517.925	29364.97
518.127	29575.91
518.329	29836
518.531	29442.79
518.733	30202.59
518.935	30733.01
519.136	30399.19
519.338	30765.78
519.54	30929.62
519.742	31380.17
519.944	31220.43
520.146	31644.36
520.348	31828.68
520.55	31472.33
520.752	32025.28
520.954	32283.33
521.155	32520.89
521.357	32576.19
521.559	32750.26
521.761	33049.27
521.963	33000.12
522.164	33225.39
522.366	33518.25
522.568	33409.71
522.77	33393.33
522.971	34038.44
523.173	33987.24
523.375	34185.89
523.576	34046.63
523.778	34443.93
523.98	34833.05
524.181	34693.79
524.383	34921.11
524.584	34994.84
524.786	35007.12
524.988	34615.96
525.189	34935.45
525.391	35422.86
525.592	35363.47
525.794	35349.14
525.995	35508.88
526.197	35680.91
526.398	35410.57
526.6	36031.11
526.801	35900.04
527.003	35666.57
527.204	35580.56
527.406	36063.88
527.607	35846.79
527.808	36330.11
528.01	35527.31
528.211	36055.68
528.412	36395.65
528.614	36070.02
528.815	36096.64
529.016	36725.37
529.218	36168.32
529.419	35988.1
529.62	36162.18
529.822	36160.13
530.023	35832.46
530.224	36174.47
530.425	35781.26
530.626	35689.1
530.828	36010.63
531.029	36352.64
531.23	36184.71
531.431	36063.88
531.632	35850.89
531.833	36106.88
532.035	35816.07
532.236	35746.44
532.437	36520.57
532.638	35758.73
532.839	36344.45
533.04	36110.98
533.241	35697.29
533.442	36403.84
533.643	35793.54
533.844	36035.2
534.045	35758.73
534.246	35574.41
534.447	35938.95
534.648	35539.6
534.849	35605.13
535.05	35609.23
535.251	35846.79
535.451	35617.42
535.652	35736.2
535.853	35383.95
536.054	35369.61
536.255	35793.54
536.456	35134.1
536.657	35609.23
536.857	35138.19
537.058	35166.87
537.259	35848.84
537.46	35312.27
537.66	35512.97
537.861	35543.69
538.062	35064.47
538.263	35130
538.463	34798.23
538.664	34656.92
538.865	35117.71
539.065	35058.32
539.266	34611.87
539.466	34978.45
539.667	34077.35
539.868	34904.73
540.068	34732.7
540.269	35070.61
540.469	34790.04
540.67	34849.43
540.87	34460.32
541.071	34427.55
541.271	34742.94
541.472	34630.3
541.672	34515.61
541.873	34214.56
542.073	34327.2
542.274	34589.34
542.474	34822.81
542.675	34349.73
542.875	34759.32
543.075	34226.85
543.276	34237.09
543.476	34744.98
543.676	34237.09
543.877	34661.02
544.077	34169.51
544.277	34243.23
544.478	34472.6
544.678	34433.69
544.878	34521.76
545.078	34312.86
545.279	33970.85
545.479	34321.05
545.679	34175.65
545.879	34079.39
546.079	34390.69
546.28	34452.12
546.48	33913.51
546.68	34259.62
546.88	33997.48
547.08	34296.48
547.28	34126.5
547.48	33792.68
547.68	34261.66
547.88	33790.63
548.081	34374.3
548.281	34564.76
548.481	33866.41
548.681	34220.7
548.881	34210.46
549.081	34187.94
549.28	33919.65
549.48	34366.11
549.68	34030.24
549.88	34572.96
550.08	34046.63
550.28	34122.4
550.48	34065.06
550.68	34663.07
550.88	33712.81
551.08	34038.44
551.279	34038.44
551.479	34075.3
551.679	34065.06
551.879	33888.93
552.079	34316.96
552.278	34134.69
552.478	34484.89
552.678	33972.9
552.878	34454.17
553.077	34310.82
553.277	33872.55
553.477	34814.62
553.676	34183.84
553.876	34224.8
554.076	34282.14
554.275	34101.92
554.475	33686.18
554.674	34134.69
554.874	34509.47
555.074	34189.98
555.273	34806.42
555.473	34355.87
555.672	34239.14
555.872	34405.02
556.071	34421.41
556.271	34595.48
556.47	33942.18
556.67	34198.18
556.869	34579.1
557.068	34450.08
557.268	34386.59
557.467	34368.16
557.667	34644.63
557.866	34325.15
558.065	34560.67
558.265	34116.26
558.464	34177.7
558.663	34646.68
558.863	33948.32
559.062	34781.85
559.261	33956.52
559.461	34384.54
559.66	33890.98
559.859	34366.11
560.058	33977
560.258	34411.17
560.457	34126.5
560.656	34300.58
560.855	34253.47
561.054	34376.35
561.253	34228.9
561.453	34550.43
561.652	34669.21
561.851	34388.64
562.05	34116.26
562.249	34058.91
562.448	34558.62
562.647	34210.46
562.846	34607.77
563.045	34126.5
563.244	33589.93
563.443	34577.05
563.642	34079.39
563.841	34069.15
564.04	34069.15
564.239	34343.58
564.438	33958.56
564.637	34087.59
564.836	33899.17
565.035	33944.23
565.234	33723.05
565.432	33827.49
565.631	33962.66
565.83	34017.96
566.029	33659.56
566.228	33434.28
566.427	33682.09
566.625	33415.85
566.824	33098.42
567.023	33331.89
567.222	33157.81
567.42	33577.64
567.619	33491.63
567.818	33202.86
568.016	33168.05
568.215	33426.09
568.414	33151.66
568.612	33245.87
568.811	32731.83
569.01	33241.78
569.208	32885.43
569.407	33041.07
569.605	32774.84
569.804	33215.15
570.002	32355
570.201	32813.75
570.4	32373.44
570.598	32484.03
570.797	32051.91
570.995	32170.69
571.193	31752.9
571.392	32498.36
571.59	32008.9
571.789	32430.78
571.987	32191.17
572.186	31816.39
572.384	31687.37
572.582	32035.52
572.781	31875.78
572.979	31417.04
573.177	31781.57
573.376	31863.49
573.574	31617.74
573.772	31609.54
573.971	31341.26
574.169	30935.76
574.367	31142.61
574.565	31496.91
574.763	30909.14
574.962	31054.54
575.16	30503.64
575.358	31097.55
575.556	30384.86
575.754	30962.39
575.952	30669.53
576.151	30569.18
576.349	30391
576.547	30591.7
576.745	30190.3
576.943	30442.2
577.141	30343.9
577.339	30079.71
577.537	30159.58
577.735	29979.36
577.933	29510.38
578.131	30040.8
578.329	29829.86
578.527	29504.23
578.725	29762.28
578.923	29737.7
579.121	29266.67
579.319	29125.36
579.516	29436.65
579.714	29348.59
579.912	29278.96
580.11	28951.28
580.308	29100.78
580.506	29303.53
580.704	28664.57
580.901	28801.78
581.099	28859.12
581.297	28496.63
581.495	28568.31
581.692	28779.25
581.89	28304.12
582.088	28807.92
582.285	28394.23
582.483	28240.64
582.681	28707.57
582.878	28367.61
583.076	27912.96
583.274	28230.4
583.471	27753.22
583.669	28275.45
583.866	28171
584.064	28003.07
584.262	27589.38
584.459	27955.97
584.657	27542.28
584.854	27624.2
585.052	27257.61
585.249	27398.92
585.447	27411.21
585.644	27276.04
585.841	27294.47
586.039	27650.82
586.236	26936.08
586.434	27085.58
586.631	26766.1
586.828	27099.92
587.026	27282.19
587.223	26659.6
587.42	26778.39
587.618	26684.18
587.815	26741.52
588.012	26526.49
588.21	26465.05
588.407	26938.13
588.604	26528.53
588.801	26374.94
588.999	26383.13
589.196	26016.54
589.393	26077.98
589.59	26012.45
589.787	25977.63
589.984	25971.49
590.182	25832.22
590.379	26002.21
590.576	25795.36
590.773	26006.3
590.97	25774.88
591.167	25580.32
591.364	25514.79
591.561	25590.56
591.758	25701.15
591.955	25418.53
592.152	25606.95
592.349	25385.77
592.546	25529.13
592.743	25217.83
592.94	25154.35
593.137	25430.82
593.334	25103.15
593.531	25051.95
593.727	25092.91
593.924	25109.29
594.121	24974.13
594.318	25146.15
594.515	24781.62
594.712	25383.72
594.908	25070.38
595.105	24877.87
595.302	24763.18
595.499	24531.76
595.696	24648.5
595.892	24435.51
596.089	24752.94
596.286	24806.19
596.482	24546.1
596.679	24644.4
596.876	24562.48
597.072	24472.37
597.269	24822.58
597.466	24533.81
597.662	24406.84
597.859	24537.91
598.055	24496.95
598.252	24279.86
598.448	24349.5
598.645	24226.62
598.841	23950.14
599.038	24548.15
599.234	24429.37
599.431	23857.98
599.627	24212.28
599.824	24359.73
600.02	24146.75
600.217	24441.65
600.413	24308.54
600.609	24496.95
600.806	24066.88
601.002	24331.06
601.198	24021.82
601.395	24165.18
601.591	24124.22
601.787	24161.08
601.984	24152.89
602.18	24453.94
602.376	24226.62
602.572	24017.72
602.769	24476.47
602.965	23991.1
603.161	24449.85
603.357	24005.44
603.553	24136.51
603.75	24419.13
603.946	24093.5
604.142	24566.58
604.338	24240.95
604.534	24507.19
604.73	24279.86
604.926	24191.8
605.122	24443.7
605.318	24333.11
605.514	24599.35
605.71	24304.44
605.906	24388.41
606.102	24437.56
606.298	24587.06
606.494	24226.62
606.69	24705.84
606.886	24716.08
607.082	24070.97
607.278	24877.87
607.474	24400.69
607.67	24628.02
607.866	24486.71
608.062	24961.84
608.257	24660.79
608.453	24736.56
608.649	24924.97
608.845	24892.21
609.041	24783.66
609.236	25039.66
609.432	24740.66
609.628	25158.44
609.824	24890.16
610.019	24662.83
610.215	25238.31
610.411	25172.78
610.606	25054
610.802	25226.03
610.998	24955.69
611.193	25201.45
611.389	25176.87
611.584	25158.44
611.78	25117.48
611.976	25432.87
612.171	25516.84
612.367	25490.21
612.562	25580.32
612.758	25164.59
612.953	25158.44
613.149	25666.34
613.344	25117.48
613.539	25758.5
613.735	25559.84
613.93	25789.22
614.126	25353
614.321	25942.81
614.517	25606.95
614.712	25701.15
614.907	25504.55
615.103	25887.52
615.298	25447.21
615.493	25848.61
615.688	25803.55
615.884	25955.1
616.079	25434.92
616.274	25914.14
616.47	25518.89
616.665	25778.98
616.86	25543.46
617.055	25621.28
617.25	25580.32
617.445	25553.7
617.641	25568.04
617.836	25836.32
618.031	25256.75
618.226	25465.64
618.421	25400.1
618.616	25793.31
618.811	25369.38
619.006	25461.54
619.201	25039.66
619.396	25197.35
619.591	24943.41
619.786	25570.08
619.981	25008.94
620.176	24955.69
620.371	25064.24
620.566	25097
620.761	24556.34
620.956	25045.8
621.151	24521.52
621.346	24775.47
621.541	24275.77
621.735	24918.83
621.93	24345.4
622.125	24677.17
622.32	24173.37
622.515	24234.81
622.709	23802.69
622.904	23921.47
623.099	24179.51
623.294	23712.58
623.488	23368.52
623.683	23595.84
623.878	23374.66
624.072	23419.72
624.267	23255.88
624.462	23413.57
624.656	23016.27
624.851	23073.61
625.046	22831.95
625.24	22897.49
625.435	22897.49
625.629	22719.31
625.824	22342.49
626.018	22479.7
626.213	21990.24
626.407	22432.6
626.602	22102.87
626.796	22014.81
626.991	22096.73
627.185	21668.7
627.38	21582.69
627.574	21769.05
627.768	21629.79
627.963	21482.34
628.157	21267.3
628.352	21244.77
628.546	21015.4
628.74	21177.19
628.935	20706.16
629.129	21029.74
629.323	20550.51
629.517	20923.24
629.712	20669.3
629.906	20315
630.1	20278.13
630.294	20433.78
630.489	20147.06
630.683	20165.49
630.877	19813.24
631.071	19604.35
631.265	19676.03
631.459	19778.43
631.653	19813.24
631.848	19633.02
632.042	19231.62
632.236	19633.02
632.43	19323.78
632.624	19215.24
632.818	18885.51
633.012	18938.76
633.206	18905.99
633.4	19022.73
633.594	18355.09
633.788	18475.92
633.982	18758.54
634.176	18404.24
634.369	18307.99
634.563	18369.43
634.757	17935.26
634.951	17914.78
635.145	17802.14
635.339	17943.45
635.533	17804.19
635.726	17959.83
635.92	17476.51
636.114	17769.37
636.308	17271.72
636.501	17318.82
636.695	17220.52
636.889	17314.72
637.083	17152.93
637.276	16903.08
637.47	16972.71
637.664	16704.43
637.857	16681.9
638.051	16673.71
638.244	16311.22
638.438	16397.23
638.632	16231.35
638.825	16247.73
639.019	16270.26
639.212	15958.97
639.406	16053.17
639.599	15958.97
639.793	15838.14
639.986	15369.15
640.18	15702.97
640.373	15715.26
640.567	15266.75
640.76	15293.38
640.954	15162.31
641.147	15115.2
641.34	14922.69
641.534	15051.72
641.727	14908.36
641.92	14867.4
642.114	14736.33
642.307	14652.36
642.5	14711.75
642.694	14445.52
642.887	14463.95
643.08	14480.33
643.273	14267.34
643.467	14111.7
643.66	14054.36
643.853	13970.39
644.046	13880.28
644.239	13763.54
644.432	13661.15
644.626	13741.02
644.819	13409.25
645.012	13571.04
645.205	13603.8
645.398	13419.49
645.591	13243.36
645.784	13229.02
645.977	13032.42
646.17	13253.6
646.363	13001.7
646.556	12827.62
646.749	12807.14
646.942	12520.43
647.135	12766.18
647.328	12540.91
647.521	12528.62
647.714	12297.2
647.907	12264.43
648.099	12381.17
648.292	12170.22
648.485	12174.32
648.678	12069.87
648.871	12348.4
649.064	11832.31
649.256	11914.23
649.449	11668.47
649.642	11744.25
649.835	11613.18
650.027	11611.13
650.22	11713.53
650.413	11469.82
650.605	11430.91
650.798	11357.18
650.991	11152.38
651.183	11381.76
651.376	10996.74
651.568	11275.26
651.761	11068.42
651.954	10839.05
652.146	11019.27
652.339	10894.34
652.531	10531.85
652.724	10953.73
652.916	10341.39
653.109	10484.75
653.301	10562.57
653.494	10392.59
653.686	10519.56
653.879	10589.19
654.071	10380.3
654.263	10220.56
654.456	10144.78
654.648	10347.53
654.84	10075.15
655.033	10060.82
655.225	10218.51
655.417	10005.52
655.61	9982.99
655.802	9645.08
655.994	9882.64
656.186	9839.64
656.379	9665.56
656.571	9600.02
656.763	9497.63
656.955	9434.14
657.148	9628.7
657.34	9403.42
657.532	9348.12
657.724	9471
657.916	9479.19
658.108	9434.14
658.3	9153.57
658.492	9204.77
658.684	9088.03
658.876	9083.94
659.068	9032.74
659.26	8899.62
659.452	9012.26
659.644	8862.76
659.836	8809.51
660.028	8846.37
660.22	8600.62
660.412	8764.45
660.604	8498.22
660.796	8508.46
660.988	8393.77
661.18	8426.54
661.372	8434.73
661.563	8426.54
661.755	8399.91
661.947	8354.86
662.139	8197.17
662.331	8174.64
662.522	8039.47
662.714	8115.25
662.906	8076.34
663.097	8100.91
663.289	7824.44
663.481	7863.35
663.673	8002.61
663.864	7838.77
664.056	7828.53
664.247	8006.7
664.439	7666.74
664.631	7523.38
664.822	7482.42
665.014	7746.61
665.205	7601.21
665.397	7451.7
665.588	7490.62
665.78	7337.02
665.971	7425.08
666.163	7420.99
666.354	7208
666.546	7306.3
666.737	7072.83
666.929	7228.48
667.12	7191.61
667.311	7334.97
667.503	6968.38
667.694	7261.24
667.885	7038.02
668.077	6962.24
668.268	6960.19
668.459	6863.94
668.651	6798.4
668.842	6868.03
669.033	6900.8
669.224	6718.53
669.416	6777.92
669.607	6722.63
669.798	6677.57
669.989	6747.2
670.18	6679.62
670.371	6466.63
670.563	6347.85
670.754	6560.84
670.945	6528.07
671.136	6546.5
671.327	6536.26
671.518	6513.74
671.709	6456.39
671.9	6554.69
672.091	6399.05
672.282	6360.14
672.473	6274.12
672.664	6351.95
672.855	6171.72
673.046	6284.36
673.237	6274.12
673.428	6179.92
673.619	6218.83
673.809	6009.93
674	6102.09
674.191	6157.39
674.382	6208.59
674.573	6114.38
674.764	6130.77
674.954	6138.96
675.145	5897.3
675.336	5885.01
675.527	6003.79
675.717	6093.9
675.908	5868.63
676.099	5942.35
676.289	6040.65
676.48	5772.37
676.671	5680.21
676.861	6016.08
677.052	5837.91
677.243	5837.91
677.433	5852.24
677.624	5885.01
677.814	5930.06
678.005	5762.13
678.195	5844.05
678.386	5821.52
678.576	5682.26
678.767	5710.93
678.957	5663.83
679.148	5725.27
679.338	5778.51
679.529	5692.5
679.719	5741.65
679.909	5745.75
680.1	5655.64
680.29	5858.39
680.481	5594.2
680.671	5712.98
680.861	5573.72
681.052	5762.13
681.242	5508.18
681.432	5612.63
681.622	5669.97
681.813	5543
682.003	5596.25
682.193	5528.66
682.383	5508.18
682.573	5596.25
682.764	5622.87
682.954	5413.98
683.144	5522.52
683.334	5487.7
683.524	5528.66
683.714	5411.93
683.904	5483.61
684.094	5440.6
684.284	5475.42
684.474	5489.75
684.664	5450.84
684.854	5502.04
685.044	5356.63
685.234	5360.73
685.424	5280.86
685.614	5540.95
685.804	5399.64
685.994	5276.76
686.184	5381.21
686.374	5397.59
686.564	5229.66
686.753	5241.95
686.943	5311.58
687.133	5215.32
687.323	5166.17
687.513	5192.8
687.702	5211.23
687.892	5250.14
688.082	5180.51
688.272	5264.47
688.461	5090.4
688.651	5164.12
688.841	5020.77
689.03	4996.19
689.22	4992.09
689.41	4998.24
689.599	5248.09
689.789	5106.78
689.979	5131.36
690.168	5049.44
690.358	4963.42
690.547	4992.09
690.737	5139.55
690.926	5000.29
691.116	4873.31
691.305	5221.47
691.495	4971.61
691.684	4740.19
691.874	4838.5
692.063	4961.37
692.252	4762.72
692.442	4967.52
692.631	4842.59
692.82	4893.79
693.01	4676.71
693.199	4674.66
693.388	4633.7
693.578	4682.85
693.767	4738.15
693.956	4695.14
694.146	4572.26
694.335	4723.81
694.524	4584.55
694.713	4719.71
694.902	4705.38
695.092	4682.85
695.281	4461.67
695.47	4756.58
695.659	4422.76
695.848	4664.42
696.037	4680.8
696.226	4668.52
696.415	4631.65
696.604	4529.25
696.793	4584.55
696.982	4367.46
697.171	4566.12
697.36	4437.09
697.549	4447.33
697.738	4363.37
697.927	4418.66
698.116	4461.67
698.305	4414.57
698.494	4590.69
698.683	4484.2
698.872	4506.73
699.061	4310.12
699.25	4344.94
699.438	4394.09
699.627	4342.89
699.816	4514.92
700.005	4328.55
700.193	4316.26
700.382	4369.51
700.571	4340.84
700.76	4328.55
700.948	4361.32
701.137	4344.94
701.326	4353.13
701.514	4238.44
701.703	4301.93
701.892	4101.23
702.08	4410.47
702.269	4222.06
702.457	4140.14
702.646	4109.42
702.834	3931.25
703.023	4222.06
703.212	4207.72
703.4	4041.84
703.589	3986.54
703.777	4166.76
703.965	4117.61
704.154	4076.65
704.342	4035.69
704.531	4029.55
704.719	4019.31
704.907	4043.88
705.096	3988.59
705.284	3951.73
705.472	3968.11
705.661	4052.08
705.849	4103.28
706.037	4078.7
706.226	4027.5
706.414	4095.08
706.602	4127.85
706.79	3976.3
706.979	3902.58
707.167	4019.31
707.355	3921.01
707.543	3806.32
707.731	3863.66
707.919	3699.83
708.107	3740.79
708.296	3710.07
708.484	3804.27
708.672	3828.85
708.86	3773.55
709.048	3726.45
709.236	3769.46
709.424	3791.98
709.612	3755.12
709.8	3638.39
709.988	3687.54
710.176	3785.84
710.364	3726.45
710.551	3675.25
710.739	3591.28
710.927	3646.58
711.115	3626.1
711.303	3589.24
711.491	3613.81
711.679	3628.15
711.866	3632.24
712.054	3710.07
712.242	3419.25
712.43	3560.56
712.617	3574.9
712.805	3476.6
712.993	3624.05
713.181	3329.14
713.368	3503.22
713.556	3490.93
713.744	3415.16
713.931	3550.32
714.119	3275.9
714.306	3488.89
714.494	3445.88
714.682	3421.3
714.869	3318.9
715.057	3411.06
715.244	3306.62
715.432	3411.06
715.619	3345.53
715.807	3292.28
715.994	3333.24
716.182	3357.82
716.369	3370.1
716.556	3501.17
716.744	3243.13
716.931	3212.41
717.119	3333.24
717.306	3257.46
717.493	3224.7
717.681	3216.51
717.868	3255.42
718.055	3198.07
718.242	3189.88
718.43	3245.18
718.617	3144.83
718.804	3210.36
718.991	3312.76
719.179	3095.68
719.366	3206.27
719.553	3214.46
719.74	3124.35
719.927	3095.68
720.114	3034.24
720.301	3099.77
720.488	3040.38
720.676	3124.35
720.863	2980.99
721.05	2985.09
721.237	3021.95
721.424	2960.51
721.611	3101.82
721.798	3116.16
721.985	2919.55
722.172	3013.76
722.358	2870.4
722.545	2946.17
722.732	2964.61
722.919	3001.47
723.106	2948.22
723.293	2858.11
723.48	2960.51
723.667	2790.53
723.853	2905.21
724.04	2821.25
724.227	2813.06
724.414	2946.17
724.6	2933.89
724.787	2964.61
724.974	2849.92
725.161	2878.59
725.347	2765.95
725.534	2792.58
725.72	2897.02
725.907	2847.87
726.094	2776.19
726.28	2763.9
726.467	2804.86
726.653	2755.71
726.84	2806.91
727.027	2940.03
727.213	2755.71
727.4	2755.71
727.586	2706.56
727.773	2497.67
727.959	2712.71
728.145	2749.57
728.332	2712.71
728.518	2632.83
728.705	2690.18
728.891	2632.83
729.077	2770.05
729.264	2522.24
729.45	2641.03
729.636	2647.17
729.823	2575.49
730.009	2776.19
730.195	2577.54
730.382	2600.07
730.568	2632.83
730.754	2651.27
730.94	2657.41
731.126	2657.41
731.313	2673.79
731.499	2632.83
731.685	2497.67
731.871	2618.5
732.057	2460.81
732.243	2466.95
732.429	2489.48
732.615	2534.53
732.801	2636.93
732.987	2520.2
733.173	2481.28
733.359	2487.43
733.545	2481.28
733.731	2469
733.917	2548.87
734.103	2602.11
734.289	2464.9
734.475	2440.33
734.661	2585.73
734.847	2528.39
735.033	2485.38
735.219	2505.86
735.404	2370.69
735.59	2411.65
735.776	2321.54
735.962	2542.72
736.148	2315.4
736.333	2473.09
736.519	2350.21
736.705	2456.71
736.89	2372.74
737.076	2389.13
737.262	2350.21
737.447	2296.97
737.633	2487.43
737.819	2368.65
738.004	2352.26
738.19	2337.93
738.375	2245.77
738.561	2280.58
738.747	2309.26
738.932	2219.14
739.118	2323.59
739.303	2321.54
739.489	2339.97
739.674	2120.84
739.859	2280.58
740.045	2276.49
740.23	2188.43
740.416	2208.9
740.601	2309.26
740.786	2110.6
740.972	2100.36
741.157	2169.99
741.342	2038.92
741.528	2151.56
741.713	2184.33
741.898	2100.36
742.084	1965.2
742.269	2151.56
742.454	2124.94
742.639	2124.94
742.824	2083.98
743.01	2059.4
743.195	2131.08
743.38	2104.46
743.565	1957
743.75	2022.54
743.935	2043.02
744.12	2135.18
744.305	1887.37
744.49	1920.14
744.675	2059.4
744.86	1940.62
745.045	1920.14
745.23	1967.24
745.415	1879.18
745.6	1973.39
745.785	1805.46
745.97	1944.72
746.155	1858.7
746.34	1862.8
746.525	1834.13
746.71	1881.23
746.895	1739.92
747.079	1772.69
747.264	1793.17
747.449	1848.46
747.634	1748.11
747.819	1789.07
748.003	1797.26
748.188	1782.93
748.373	1717.39
748.557	1756.3
748.742	1682.58
748.927	1766.54
749.111	1674.39
749.296	1703.06
749.481	1639.57
749.665	1596.56
749.85	1600.66
750.034	1682.58
750.219	1649.81
750.404	1729.68
750.588	1696.91
750.773	1549.46
750.957	1582.23
751.141	1649.81
751.326	1641.62
751.51	1490.07
751.695	1504.4
751.879	1492.12
752.064	1643.67
752.248	1524.88
752.432	1576.08
752.617	1522.84
752.801	1508.5
752.985	1445.01
753.17	1526.93
753.354	1512.6
753.538	1453.2
753.722	1526.93
753.907	1367.19
754.091	1418.39
754.275	1469.59
754.459	1326.23
754.643	1328.28
754.828	1412.25
755.012	1311.89
755.196	1375.38
755.38	1352.85
755.564	1340.57
755.748	1338.52
755.932	1412.25
756.116	1356.95
756.3	1258.65
756.484	1240.22
756.668	1322.13
756.852	1244.31
757.036	1281.18
757.22	1162.39
757.404	1258.65
757.588	1359
757.772	1268.89
757.956	1272.98
758.14	1315.99
758.323	1258.65
758.507	1232.02
758.691	1094.81
758.875	1158.3
759.059	1158.3
759.242	1168.54
759.426	1215.64
759.61	1256.6
759.794	1184.92
759.977	1186.97
760.161	1291.41
760.345	1146.01
760.528	1064.09
760.712	1103
760.895	1127.58
761.079	1162.39
761.263	1006.75
761.446	1027.23
761.63	1148.06
761.813	1094.81
761.997	1174.68
762.18	1080.47
762.364	1053.85
762.547	947.36
762.731	1039.51
762.914	1053.85
763.098	980.12
763.281	1084.57
763.464	996.51
763.648	1035.42
763.831	994.46
764.015	1016.99
764.198	1059.99
764.381	994.46
764.564	1004.7
764.748	1033.37
764.931	1006.75
765.114	965.79
765.297	963.74
765.481	912.54
765.664	963.74
765.847	965.79
766.03	986.27
766.213	959.64
766.397	1027.23
766.58	920.73
766.763	1053.85
766.946	918.68
767.129	978.08
767.312	963.74
767.495	961.69
767.678	928.92
767.861	978.08
768.044	1010.84
768.227	900.25
768.41	904.35
768.593	838.81
768.776	904.35
768.959	912.54
769.142	967.84
769.324	930.97
769.507	922.78
769.69	857.25
769.873	871.58
770.056	830.62
770.239	840.86
770.421	896.16
770.604	912.54
770.787	849.05
770.97	820.38
771.152	734.37
771.335	918.68
771.518	838.81
771.7	847.01
771.883	894.11
772.066	855.2
772.248	914.59
772.431	900.25
772.613	771.23
772.796	906.4
772.978	822.43
773.161	804
773.343	748.7
773.526	748.7
773.708	734.37
773.891	713.89
774.073	822.43
774.256	748.7
774.438	879.77
774.621	732.32
774.803	740.51
774.985	773.28
775.168	683.17
775.35	691.36
775.532	765.09
775.715	658.59
775.897	775.33
776.079	662.69
776.261	773.28
776.444	691.36
776.626	822.43
776.808	681.12
776.99	728.22
777.173	695.46
777.355	754.85
777.537	617.63
777.719	687.26
777.901	636.06
778.083	732.32
778.265	586.91
778.447	709.79
778.629	623.78
778.811	695.46
778.993	650.4
779.175	636.06
779.357	656.54
779.539	574.63
779.721	627.87
779.903	695.46
780.085	550.05
780.267	603.3
780.449	562.34
780.631	677.02
780.812	609.44
780.994	584.87
781.176	517.28
781.358	652.45
781.54	584.87
781.721	584.87
781.903	638.11
782.085	595.11
782.267	584.87
782.448	605.35
782.63	418.98
782.812	537.76
782.993	554.15
783.175	517.28
783.357	543.91
783.538	576.67
783.72	580.77
783.901	568.48
784.083	529.57
784.264	502.95
784.446	416.93
784.627	416.93
784.809	593.06
784.99	459.94
785.172	535.71
785.353	498.85
785.535	521.38
785.716	457.89
785.897	498.85
786.079	400.55
786.26	459.94
786.441	507.04
786.623	439.46
786.804	519.33
786.985	466.08
787.167	431.27
787.348	351.4
787.529	384.16
787.71	404.64
787.891	392.36
788.073	335.01
788.254	322.73
788.435	322.73
788.616	410.79
788.797	363.69
788.978	406.69
789.159	429.22
789.34	474.28
789.522	404.64
789.703	416.93
789.884	443.56
790.065	423.08
790.246	359.59
790.427	294.05
790.607	396.45
790.788	349.35
790.969	357.54
791.15	380.07
791.331	318.63
791.512	404.64
791.693	332.97
791.874	285.86
792.054	421.03
792.235	396.45
792.416	318.63
792.597	371.88
792.778	388.26
792.958	300.2
793.139	371.88
793.32	425.12
793.5	355.49
793.681	416.93
793.862	396.45
794.042	367.78
794.223	191.66
794.404	269.48
794.584	269.48
794.765	306.34
794.945	261.29
795.126	357.54
795.306	380.07
795.487	273.57
795.667	330.92
795.848	251.05
796.028	265.38
796.209	316.58
796.389	363.69
796.57	347.3
796.75	353.45
796.93	359.59
797.111	306.34
797.291	281.77
797.471	281.77
797.652	277.67
797.832	253.09
798.012	314.53
798.192	294.05
798.373	236.71
798.553	234.66
798.733	267.43
798.913	234.66
799.093	257.19
799.274	228.52
799.454	332.97
799.634	359.59
799.814	249
799.994	298.15
800.174	292.01
800.354	332.97
800.534	193.7
800.714	310.44
800.894	191.66
801.074	283.81
801.254	244.9
801.434	273.57
801.614	285.86
801.794	208.04
801.974	799.9
802.154	175.27
802.334	283.81
802.514	287.91
802.693	208.04
802.873	249
803.053	300.2
803.233	240.81
803.413	152.74
803.592	292.01
803.772	242.85
803.952	267.43
804.131	216.23
804.311	173.22
804.491	246.95
804.67	197.8
804.85	183.46
805.03	146.6
805.209	249
805.389	195.75
805.568	158.89
805.748	177.32
805.928	195.75
806.107	249
806.287	171.18
806.466	216.23
806.646	232.62
806.825	244.9
807.004	185.51
807.184	210.09
807.363	150.7
807.543	214.18
807.722	160.94
807.901	203.94
808.081	160.94
808.26	179.37
808.439	203.94
808.619	224.42
808.798	298.15
808.977	257.19
809.156	269.48
809.336	199.85
809.515	316.58
809.694	117.93
809.873	101.55
810.052	76.97
810.231	253.09
810.411	175.27
810.59	181.42
810.769	175.27
810.948	165.03
811.127	95.4
811.306	167.08
811.485	119.98
811.664	212.14
811.843	195.75
812.022	175.27
812.201	158.89
812.38	183.46
812.559	111.78
812.737	201.9
812.916	105.64
813.095	136.36
813.274	162.98
813.453	199.85
813.632	175.27
813.811	146.6
813.989	171.18
814.168	197.8
814.347	79.02
814.526	146.6
814.704	140.46
814.883	189.61
815.062	85.16
815.24	210.09
815.419	150.7
815.598	222.38
815.776	103.59
815.955	128.17
816.133	79.02
816.312	185.51
816.49	60.59
816.669	171.18
816.847	113.83
817.026	169.13
817.204	117.93
817.383	130.22
817.561	160.94
817.74	195.75
817.918	128.17
818.097	175.27
818.275	113.83
818.453	119.98
818.632	126.12
818.81	179.37
818.988	146.6
819.167	142.5
819.345	167.08
819.523	187.56
819.701	117.93
819.879	109.74
820.058	212.14
820.236	128.17
820.414	130.22
820.592	130.22
820.77	68.78
820.948	142.5
821.127	76.97
821.305	109.74
821.483	138.41
821.661	138.41
821.839	87.21
822.017	48.3
822.195	142.5
822.373	93.35
822.551	74.92
822.729	126.12
822.907	62.63
823.085	109.74
823.262	185.51
823.44	87.21
823.618	111.78
823.796	136.36
823.974	126.12
824.152	158.89
824.329	101.55
824.507	119.98
824.685	101.55
824.863	79.02
825.04	93.35
825.218	85.16
825.396	62.63
825.574	128.17
825.751	101.55
825.929	93.35
826.107	111.78
826.284	156.84
826.462	60.59
826.639	109.74
826.817	109.74
826.994	33.96
827.172	142.5
827.349	97.45
827.527	44.2
827.704	68.78
827.882	42.15
828.059	48.3
828.237	91.31
828.414	185.51
828.591	66.73
828.769	126.12
828.946	85.16
829.124	105.64
829.301	103.59
829.478	142.5
829.655	216.23
829.833	109.74
830.01	91.31
830.187	144.55
830.364	126.12
830.542	101.55
830.719	142.5
830.896	85.16
831.073	111.78
831.25	138.41
831.427	101.55
831.604	142.5
831.782	56.49
831.959	40.11
832.136	38.06
832.313	74.92
832.49	56.49
832.667	68.78
832.844	68.78
833.021	109.74
833.198	-45.91
833.374	124.07
833.551	89.26
833.728	109.74
833.905	93.35
834.082	44.2
834.259	148.65
834.436	117.93
834.612	7.34
834.789	27.82
834.966	60.59
835.143	40.11
835.319	27.82
835.496	126.12
835.673	56.49
835.85	36.01
836.026	83.11
836.203	142.5
836.38	27.82
836.556	23.72
836.733	93.35
836.909	124.07
837.086	95.4
837.262	-21.33
837.439	103.59
837.616	38.06
837.792	50.35
837.968	91.31
838.145	-13.14
838.321	89.26
838.498	42.15
838.674	70.83
838.851	60.59
839.027	76.97
839.203	97.45
839.38	109.74
839.556	81.07
839.732	44.2
839.909	81.07
840.085	97.45
840.261	36.01
840.437	93.35
840.614	44.2
840.79	72.87
840.966	140.46
841.142	111.78
841.318	93.35
841.494	81.07
841.671	23.72
841.847	38.06
842.023	52.39
842.199	15.53
842.375	101.55
842.551	-45.91
842.727	58.54
842.903	134.31
843.079	36.01
843.255	158.89
843.431	76.97
843.607	103.59
843.783	42.15
843.959	154.79
844.134	64.68
844.31	142.5
844.486	27.82
844.662	19.63
844.838	62.63
845.013	66.73
845.189	21.67
845.365	97.45
845.541	70.83
845.716	56.49
845.892	101.55
846.068	25.77
846.244	76.97
846.419	38.06
846.595	31.91
846.77	46.25
846.946	101.55
847.122	29.87
847.297	17.58
847.473	89.26
847.648	85.16
847.824	89.26
847.999	56.49
848.175	-27.48
848.35	44.2
848.526	54.44
848.701	81.07
848.876	46.25
849.052	48.3
849.227	79.02
849.403	85.16
849.578	7.34
849.753	60.59
849.929	109.74
850.104	1.19
850.279	117.93
850.454	36.01
850.63	85.16
850.805	3.24
850.98	60.59
851.155	85.16
851.33	130.22
851.505	-47.96
851.681	134.31
851.856	68.78
852.031	-17.24
852.206	52.39
852.381	70.83
852.556	52.39
852.731	36.01
852.906	105.64
853.081	-0.85
853.256	52.39
853.431	44.2
853.606	25.77
853.781	27.82
853.956	3.24
854.131	44.2
854.305	-25.43
854.48	11.43
854.655	-52.05
854.83	7.34
855.005	36.01
855.18	15.53
855.354	72.87
855.529	21.67
855.704	-60.24
855.879	70.83
856.053	-21.33
856.228	48.3
856.403	-29.52
856.577	48.3
856.752	-25.43
856.926	44.2
857.101	29.87
857.276	85.16
857.45	68.78
857.625	27.82
857.799	9.39
857.974	42.15
858.148	-62.29
858.323	21.67
858.497	-2.9
858.672	-45.91
858.846	3.24
859.02	27.82
859.195	-35.67
859.369	-4.95
859.543	38.06
859.718	60.59
859.892	93.35
860.066	38.06
860.241	46.25
860.415	-27.48
860.589	27.82
860.763	3.24
860.938	40.11
861.112	44.2
861.286	-21.33
861.46	83.11
861.634	60.59
861.808	-41.81
861.982	-41.81
862.157	1.19
862.331	-68.44
862.505	-13.14
862.679	-58.2
862.853	-17.24
863.027	85.16
863.201	95.4
863.375	-29.52
863.549	-4.95
863.722	46.25
863.896	19.63
864.07	3.24
864.244	27.82
864.418	36.01
864.592	19.63
864.766	25.77
864.939	52.39
865.113	-0.85
865.287	29.87
865.461	-4.95
865.634	27.82
865.808	74.92
865.982	-9.05
866.156	-0.85
866.329	68.78
866.503	19.63
866.676	-35.67
866.85	3.24
867.024	-45.91
867.197	3.24
867.371	23.72
867.544	-31.57
867.718	-4.95
867.891	31.91
868.065	-21.33
868.238	52.39
868.412	17.58
868.585	5.29
868.759	11.43
868.932	-11.09
869.105	27.82
869.279	17.58
869.452	-2.9
869.625	11.43
869.799	62.63
869.972	-13.14
870.145	68.78
870.319	3.24
870.492	-13.14
870.665	-9.05
870.838	-74.58
871.011	-54.1
871.185	40.11
871.358	-4.95
871.531	76.97
871.704	-52.05
871.877	17.58
872.05	42.15
872.223	79.02
872.396	79.02
872.569	124.07
872.742	-78.68
872.915	62.63
873.088	-84.82
873.261	-27.48
873.434	11.43
873.607	13.48
873.78	-21.33
873.953	-37.72
874.126	-37.72
874.299	-0.85
874.471	38.06
874.644	21.67
874.817	17.58
874.99	185.51
875.163	74.92
875.335	-41.81
875.508	19.63
875.681	7.34
875.853	-9.05
876.026	-95.06
876.199	5.29
876.371	36.01
876.544	3.24
876.717	9.39
876.889	5.29
877.062	3.24
877.234	46.25
877.407	-21.33
877.579	85.16
877.752	52.39
877.924	58.54
878.097	-4.95
878.269	3.24
878.442	-43.86
878.614	-45.91
878.786	81.07
878.959	-13.14
879.131	21.67
879.303	-27.48
879.476	-0.85
879.648	54.44
879.82	-25.43
879.993	11.43
880.165	19.63
880.337	-2.9
880.509	54.44
880.681	-82.77
880.854	60.59
881.026	-11.09
881.198	19.63
881.37	56.49
881.542	36.01
881.714	19.63
881.886	-29.52
882.058	-58.2
882.23	44.2
882.402	-21.33
882.574	11.43
882.746	19.63
882.918	44.2
883.09	23.72
883.262	-37.72
883.434	19.63
883.606	54.44
883.778	-41.81
883.95	79.02
884.122	-31.57
884.293	-43.86
884.465	-43.86
884.637	48.3
884.809	38.06
884.98	38.06
885.152	27.82
885.324	27.82
885.496	-74.58
885.667	36.01
885.839	-0.85
886.011	144.55
886.182	60.59
886.354	107.69
886.525	46.25
886.697	60.59
886.869	36.01
887.04	-35.67
887.212	15.53
887.383	40.11
887.555	-0.85
887.726	42.15
887.897	38.06
888.069	68.78
888.24	40.11
888.412	3.24
888.583	7.34
888.754	-2.9
888.926	-95.06
889.097	19.63
889.268	-25.43
889.44	56.49
889.611	-62.29
889.782	-45.91
889.953	29.87
890.125	64.68
890.296	3.24
890.467	-2.9
890.638	25.77
890.809	29.87
890.98	42.15
891.151	52.39
891.323	31.91
891.494	29.87
891.665	-31.57
891.836	38.06
892.007	27.82
892.178	40.11
892.349	44.2
892.52	-23.38
892.691	46.25
892.862	-41.81
893.032	-29.52
893.203	19.63
893.374	-9.05
893.545	52.39
893.716	-52.05
893.887	5.29
894.057	44.2
894.228	-4.95
894.399	97.45
894.57	44.2
894.74	79.02
894.911	27.82
895.082	3.24
895.253	-0.85
895.423	27.82
895.594	81.07
895.764	3.24
895.935	-29.52
896.106	-9.05
896.276	33.96
896.447	29.87
896.617	-0.85
896.788	3.24
896.958	-68.44
897.129	-80.72
897.299	-19.29
897.47	21.67
897.64	3.24
897.81	62.63
897.981	-52.05
898.151	27.82
898.322	31.91
898.492	-54.1
898.662	-4.95
898.832	7.34
899.003	-23.38
899.173	5.29
899.343	-74.58
899.513	-15.19
