Data from USB4F104151__65__14-30-14-153.txt Node

Date: Thu Mar 13 14:30:14 EDT 2025
User: louis
Spectrometer: USB4F10415
Trigger mode: 4
Integration Time (sec): 2.500000E-2
Scans to average: 1
Electric dark correction enabled: true
Nonlinearity correction enabled: false
Boxcar width: 0
XAxis mode: Wavelengths
Number of Pixels in Spectrum: 3648
>>>>>Begin Spectral Data<<<<<
178.204	-179.71
178.424	-179.71
178.644	-179.71
178.864	-146.94
179.084	-159.23
179.304	-46.59
179.524	0.51
179.744	0.51
179.964	27.14
180.184	12.8
180.404	33.28
180.624	80.38
180.844	16.9
181.064	-44.54
181.283	2.56
181.503	-42.5
181.723	-40.45
181.943	-34.3
182.163	84.48
182.383	0.51
182.602	115.2
182.822	-3.58
183.042	33.28
183.262	-30.21
183.482	-32.26
183.701	-1.54
183.921	-36.35
184.141	2.56
184.361	135.68
184.58	43.52
184.8	0.51
185.02	8.7
185.239	33.28
185.459	20.99
185.679	59.9
185.898	59.9
186.118	43.52
186.338	10.75
186.557	78.33
186.777	10.75
186.997	-28.16
187.216	74.24
187.436	90.62
187.655	45.57
187.875	16.9
188.095	2.56
188.314	82.43
188.534	45.57
188.753	88.57
188.973	82.43
189.192	35.33
189.412	37.38
189.631	29.18
189.851	4.61
190.07	25.09
190.29	2.56
190.509	2.56
190.729	6.66
190.948	49.66
191.168	125.44
191.387	96.77
191.607	12.8
191.826	20.99
192.045	43.52
192.265	8.7
192.484	-7.68
192.704	18.94
192.923	-65.02
193.142	98.81
193.362	45.57
193.581	47.62
193.8	57.86
194.02	16.9
194.239	0.51
194.458	33.28
194.678	43.52
194.897	43.52
195.116	47.62
195.335	-46.59
195.555	-7.68
195.774	-3.58
195.993	41.47
196.212	-46.59
196.432	-9.73
196.651	47.62
196.87	35.33
197.089	27.14
197.308	31.23
197.528	76.29
197.747	-11.78
197.966	0.51
198.185	147.97
198.404	-28.16
198.623	57.86
198.842	64
199.062	102.91
199.281	131.58
199.5	49.66
199.719	25.09
199.938	33.28
200.157	41.47
200.376	-1.54
200.595	55.81
200.814	25.09
201.033	82.43
201.252	90.62
201.471	-7.68
201.69	100.86
201.909	33.28
202.128	104.96
202.347	0.51
202.566	31.23
202.785	-5.63
203.004	-85.5
203.223	82.43
203.442	57.86
203.661	-56.83
203.879	-36.35
204.098	10.75
204.317	-32.26
204.536	20.99
204.755	29.18
204.974	4.61
205.193	8.7
205.411	80.38
205.63	41.47
205.849	12.8
206.068	-46.59
206.287	-13.82
206.505	78.33
206.724	-62.98
206.943	68.09
207.162	4.61
207.381	-5.63
207.599	-38.4
207.818	127.49
208.037	-3.58
208.255	-38.4
208.474	86.53
208.693	-58.88
208.911	-22.02
209.13	29.18
209.349	49.66
209.567	41.47
209.786	18.94
210.005	12.8
210.223	25.09
210.442	45.57
210.661	8.7
210.879	47.62
211.098	41.47
211.316	-15.87
211.535	70.14
211.753	0.51
211.972	25.09
212.191	-36.35
212.409	0.51
212.628	31.23
212.846	-30.21
213.065	41.47
213.283	41.47
213.502	35.33
213.72	6.66
213.938	-3.58
214.157	-22.02
214.375	31.23
214.594	18.94
214.812	-30.21
215.031	25.09
215.249	37.38
215.467	20.99
215.686	33.28
215.904	76.29
216.122	33.28
216.341	84.48
216.559	-30.21
216.778	90.62
216.996	4.61
217.214	10.75
217.432	25.09
217.651	74.24
217.869	-3.58
218.087	20.99
218.306	-71.17
218.524	41.47
218.742	72.19
218.96	76.29
219.179	55.81
219.397	10.75
219.615	121.34
219.833	45.57
220.051	55.81
220.27	70.14
220.488	45.57
220.706	-1.54
220.924	16.9
221.142	16.9
221.36	43.52
221.578	125.44
221.796	86.53
222.015	41.47
222.233	-15.87
222.451	25.09
222.669	10.75
222.887	20.99
223.105	43.52
223.323	4.61
223.541	-38.4
223.759	8.7
223.977	18.94
224.195	68.09
224.413	39.42
224.631	-15.87
224.849	74.24
225.067	150.01
225.285	29.18
225.503	-11.78
225.721	-50.69
225.939	41.47
226.157	6.66
226.375	117.25
226.592	43.52
226.81	66.05
227.028	43.52
227.246	115.2
227.464	20.99
227.682	27.14
227.9	115.2
228.117	57.86
228.335	68.09
228.553	-1.54
228.771	27.14
228.989	86.53
229.206	109.05
229.424	131.58
229.642	66.05
229.86	-30.21
230.077	-3.58
230.295	61.95
230.513	57.86
230.731	-44.54
230.948	90.62
231.166	119.29
231.384	27.14
231.601	-11.78
231.819	35.33
232.037	2.56
232.254	12.8
232.472	25.09
232.689	41.47
232.907	27.14
233.125	53.76
233.342	-38.4
233.56	0.51
233.777	-15.87
233.995	-95.74
234.213	59.9
234.43	-15.87
234.648	-28.16
234.865	29.18
235.083	29.18
235.3	37.38
235.518	49.66
235.735	-1.54
235.953	61.95
236.17	16.9
236.388	27.14
236.605	45.57
236.822	64
237.04	51.71
237.257	66.05
237.475	57.86
237.692	25.09
237.909	25.09
238.127	-28.16
238.344	64
238.562	35.33
238.779	-13.82
238.996	29.18
239.214	37.38
239.431	51.71
239.648	-32.26
239.865	35.33
240.083	123.39
240.3	-11.78
240.517	49.66
240.735	92.67
240.952	84.48
241.169	119.29
241.386	-24.06
241.603	57.86
241.821	0.51
242.038	-1.54
242.255	49.66
242.472	59.9
242.689	53.76
242.907	113.15
243.124	94.72
243.341	57.86
243.558	-85.5
243.775	27.14
243.992	-5.63
244.209	10.75
244.426	66.05
244.643	37.38
244.86	-36.35
245.078	-11.78
245.295	57.86
245.512	92.67
245.729	43.52
245.946	-7.68
246.163	74.24
246.38	74.24
246.597	74.24
246.814	-7.68
247.031	16.9
247.248	43.52
247.464	43.52
247.681	0.51
247.898	53.76
248.115	35.33
248.332	-9.73
248.549	25.09
248.766	82.43
248.983	4.61
249.2	12.8
249.417	53.76
249.633	16.9
249.85	133.63
250.067	12.8
250.284	76.29
250.501	41.47
250.717	55.81
250.934	-73.21
251.151	27.14
251.368	-19.97
251.585	47.62
251.801	-19.97
252.018	33.28
252.235	66.05
252.451	-40.45
252.668	-17.92
252.885	53.76
253.102	41.47
253.318	57.86
253.535	47.62
253.752	-38.4
253.968	43.52
254.185	4.61
254.401	-11.78
254.618	8.7
254.835	33.28
255.051	74.24
255.268	47.62
255.484	49.66
255.701	59.9
255.917	70.14
256.134	-17.92
256.351	78.33
256.567	-30.21
256.784	27.14
257	-26.11
257.217	131.58
257.433	27.14
257.65	-52.74
257.866	-38.4
258.082	61.95
258.299	-19.97
258.515	33.28
258.732	41.47
258.948	-1.54
259.165	61.95
259.381	-40.45
259.597	-3.58
259.814	74.24
260.03	-7.68
260.246	-40.45
260.463	82.43
260.679	57.86
260.895	-11.78
261.112	57.86
261.328	6.66
261.544	20.99
261.761	164.35
261.977	39.42
262.193	-62.98
262.409	64
262.626	33.28
262.842	43.52
263.058	-5.63
263.274	78.33
263.49	23.04
263.707	74.24
263.923	33.28
264.139	-65.02
264.355	82.43
264.571	90.62
264.787	-44.54
265.004	66.05
265.22	59.9
265.436	43.52
265.652	-5.63
265.868	51.71
266.084	-56.83
266.3	4.61
266.516	-19.97
266.732	33.28
266.948	-40.45
267.164	72.19
267.38	8.7
267.596	74.24
267.812	41.47
268.028	35.33
268.244	29.18
268.46	94.72
268.676	10.75
268.892	35.33
269.108	0.51
269.324	-7.68
269.54	-50.69
269.756	16.9
269.972	-7.68
270.188	27.14
270.403	-81.41
270.619	115.2
270.835	-5.63
271.051	-30.21
271.267	33.28
271.483	18.94
271.698	-3.58
271.914	10.75
272.13	14.85
272.346	16.9
272.562	94.72
272.777	-30.21
272.993	-30.21
273.209	49.66
273.425	0.51
273.64	84.48
273.856	10.75
274.072	74.24
274.287	78.33
274.503	74.24
274.719	43.52
274.934	59.9
275.15	16.9
275.366	49.66
275.581	-44.54
275.797	35.33
276.012	-38.4
276.228	90.62
276.444	12.8
276.659	-5.63
276.875	45.57
277.09	-11.78
277.306	4.61
277.521	53.76
277.737	16.9
277.952	125.44
278.168	86.53
278.383	43.52
278.599	-19.97
278.814	76.29
279.03	33.28
279.245	59.9
279.461	8.7
279.676	35.33
279.892	-56.83
280.107	2.56
280.322	51.71
280.538	0.51
280.753	41.47
280.969	16.9
281.184	84.48
281.399	64
281.615	59.9
281.83	33.28
282.045	8.7
282.26	-30.21
282.476	-22.02
282.691	-7.68
282.906	-3.58
283.122	33.28
283.337	-7.68
283.552	82.43
283.767	27.14
283.983	25.09
284.198	115.2
284.413	57.86
284.628	43.52
284.843	49.66
285.058	66.05
285.274	25.09
285.489	8.7
285.704	23.04
285.919	33.28
286.134	16.9
286.349	0.51
286.564	-15.87
286.779	98.81
286.995	68.09
287.21	-3.58
287.425	-28.16
287.64	-19.97
287.855	84.48
288.07	-17.92
288.285	125.44
288.5	45.57
288.715	37.38
288.93	16.9
289.145	-13.82
289.36	-19.97
289.575	12.8
289.79	72.19
290.004	109.05
290.219	41.47
290.434	35.33
290.649	-1.54
290.864	-32.26
291.079	33.28
291.294	-7.68
291.509	47.62
291.724	-19.97
291.938	49.66
292.153	49.66
292.368	-32.26
292.583	-19.97
292.798	66.05
293.012	59.9
293.227	57.86
293.442	37.38
293.657	18.94
293.871	86.53
294.086	-11.78
294.301	66.05
294.516	98.81
294.73	57.86
294.945	12.8
295.16	98.81
295.374	25.09
295.589	12.8
295.804	27.14
296.018	-24.06
296.233	115.2
296.447	16.9
296.662	-65.02
296.877	66.05
297.091	53.76
297.306	35.33
297.52	49.66
297.735	98.81
297.949	57.86
298.164	107.01
298.378	76.29
298.593	2.56
298.807	14.85
299.022	49.66
299.236	117.25
299.451	-19.97
299.665	35.33
299.88	51.71
300.094	-7.68
300.309	82.43
300.523	25.09
300.737	49.66
300.952	-1.54
301.166	66.05
301.381	86.53
301.595	27.14
301.809	16.9
302.024	-54.78
302.238	-34.3
302.452	37.38
302.667	-7.68
302.881	51.71
303.095	-40.45
303.309	-34.3
303.524	25.09
303.738	35.33
303.952	57.86
304.166	8.7
304.381	-38.4
304.595	61.95
304.809	23.04
305.023	-15.87
305.237	35.33
305.452	78.33
305.666	53.76
305.88	119.29
306.094	57.86
306.308	90.62
306.522	68.09
306.736	43.52
306.95	-3.58
307.164	37.38
307.379	-65.02
307.593	84.48
307.807	61.95
308.021	49.66
308.235	41.47
308.449	-5.63
308.663	8.7
308.877	133.63
309.091	41.47
309.305	8.7
309.519	-73.21
309.733	125.44
309.947	0.51
310.161	51.71
310.374	66.05
310.588	74.24
310.802	2.56
311.016	-7.68
311.23	55.81
311.444	-5.63
311.658	20.99
311.872	25.09
312.085	86.53
312.299	43.52
312.513	31.23
312.727	53.76
312.941	23.04
313.154	92.67
313.368	14.85
313.582	31.23
313.796	-32.26
314.009	37.38
314.223	78.33
314.437	82.43
314.651	141.82
314.864	25.09
315.078	-3.58
315.292	35.33
315.505	29.18
315.719	76.29
315.933	12.8
316.146	-7.68
316.36	59.9
316.573	0.51
316.787	84.48
317.001	66.05
317.214	76.29
317.428	33.28
317.641	-13.82
317.855	-40.45
318.068	61.95
318.282	78.33
318.495	64
318.709	27.14
318.922	-13.82
319.136	172.54
319.349	41.47
319.563	12.8
319.776	74.24
319.99	-24.06
320.203	8.7
320.417	72.19
320.63	2.56
320.843	64
321.057	8.7
321.27	41.47
321.483	94.72
321.697	0.51
321.91	51.71
322.124	16.9
322.337	35.33
322.55	8.7
322.763	23.04
322.977	-24.06
323.19	-19.97
323.403	61.95
323.617	-60.93
323.83	90.62
324.043	45.57
324.256	72.19
324.469	6.66
324.683	66.05
324.896	-42.5
325.109	0.51
325.322	16.9
325.535	0.51
325.748	29.18
325.962	-69.12
326.175	150.01
326.388	8.7
326.601	53.76
326.814	78.33
327.027	68.09
327.24	68.09
327.453	-22.02
327.666	117.25
327.879	35.33
328.092	23.04
328.305	66.05
328.518	45.57
328.731	82.43
328.944	76.29
329.157	14.85
329.37	12.8
329.583	100.86
329.796	55.81
330.009	4.61
330.222	74.24
330.435	111.1
330.648	-11.78
330.861	-48.64
331.073	59.9
331.286	59.9
331.499	86.53
331.712	25.09
331.925	12.8
332.138	0.51
332.35	37.38
332.563	82.43
332.776	12.8
332.989	33.28
333.202	6.66
333.414	78.33
333.627	107.01
333.84	-5.63
334.053	-22.02
334.265	59.9
334.478	-32.26
334.691	-1.54
334.903	47.62
335.116	-11.78
335.329	90.62
335.541	0.51
335.754	90.62
335.966	86.53
336.179	12.8
336.392	35.33
336.604	78.33
336.817	61.95
337.029	92.67
337.242	4.61
337.454	107.01
337.667	59.9
337.88	160.25
338.092	84.48
338.305	25.09
338.517	-22.02
338.729	49.66
338.942	98.81
339.154	4.61
339.367	6.66
339.579	57.86
339.792	-34.3
340.004	76.29
340.217	25.09
340.429	16.9
340.641	74.24
340.854	16.9
341.066	-17.92
341.278	51.71
341.491	133.63
341.703	41.47
341.915	-40.45
342.128	102.91
342.34	41.47
342.552	6.66
342.764	-34.3
342.977	53.76
343.189	31.23
343.401	33.28
343.613	-42.5
343.826	18.94
344.038	49.66
344.25	82.43
344.462	-5.63
344.674	25.09
344.886	10.75
345.099	100.86
345.311	41.47
345.523	-22.02
345.735	-71.17
345.947	43.52
346.159	37.38
346.371	-7.68
346.583	18.94
346.795	131.58
347.007	0.51
347.219	123.39
347.431	59.9
347.643	76.29
347.855	45.57
348.067	53.76
348.279	78.33
348.491	37.38
348.703	70.14
348.915	-15.87
349.127	-44.54
349.339	59.9
349.551	-15.87
349.763	20.99
349.975	2.56
350.187	41.47
350.399	115.2
350.61	-30.21
350.822	98.81
351.034	49.66
351.246	68.09
351.458	125.44
351.669	-44.54
351.881	51.71
352.093	70.14
352.305	72.19
352.517	-54.78
352.728	51.71
352.94	18.94
353.152	49.66
353.363	-15.87
353.575	43.52
353.787	94.72
353.999	39.42
354.21	92.67
354.422	78.33
354.633	96.77
354.845	16.9
355.057	64
355.268	35.33
355.48	90.62
355.692	33.28
355.903	41.47
356.115	88.57
356.326	53.76
356.538	94.72
356.749	100.86
356.961	131.58
357.172	20.99
357.384	-13.82
357.595	59.9
357.807	41.47
358.018	37.38
358.23	57.86
358.441	53.76
358.653	0.51
358.864	-7.68
359.075	27.14
359.287	90.62
359.498	100.86
359.709	70.14
359.921	94.72
360.132	84.48
360.344	76.29
360.555	8.7
360.766	74.24
360.977	113.15
361.189	78.33
361.4	33.28
361.611	109.05
361.823	92.67
362.034	25.09
362.245	45.57
362.456	2.56
362.667	78.33
362.879	53.76
363.09	8.7
363.301	115.2
363.512	78.33
363.723	14.85
363.935	55.81
364.146	61.95
364.357	47.62
364.568	94.72
364.779	-19.97
364.99	94.72
365.201	51.71
365.412	66.05
365.623	20.99
365.834	115.2
366.045	-15.87
366.256	82.43
366.467	74.24
366.678	45.57
366.889	72.19
367.1	57.86
367.311	82.43
367.522	66.05
367.733	98.81
367.944	4.61
368.155	49.66
368.366	51.71
368.577	2.56
368.788	25.09
368.999	2.56
369.209	90.62
369.42	14.85
369.631	76.29
369.842	43.52
370.053	-3.58
370.264	86.53
370.474	96.77
370.685	61.95
370.896	8.7
371.107	152.06
371.317	-3.58
371.528	25.09
371.739	43.52
371.95	14.85
372.16	27.14
372.371	-22.02
372.582	41.47
372.792	70.14
373.003	29.18
373.214	143.87
373.424	57.86
373.635	59.9
373.846	55.81
374.056	107.01
374.267	100.86
374.477	76.29
374.688	16.9
374.898	4.61
375.109	49.66
375.319	33.28
375.53	109.05
375.74	117.25
375.951	82.43
376.161	82.43
376.372	98.81
376.582	35.33
376.793	25.09
377.003	16.9
377.214	49.66
377.424	-32.26
377.635	0.51
377.845	-19.97
378.055	59.9
378.266	45.57
378.476	2.56
378.686	2.56
378.897	49.66
379.107	92.67
379.317	129.53
379.528	64
379.738	84.48
379.948	29.18
380.158	102.91
380.369	64
380.579	41.47
380.789	-7.68
380.999	20.99
381.21	131.58
381.42	45.57
381.63	78.33
381.84	41.47
382.05	-13.82
382.261	115.2
382.471	20.99
382.681	70.14
382.891	111.1
383.101	45.57
383.311	16.9
383.521	80.38
383.731	35.33
383.941	100.86
384.151	-19.97
384.361	49.66
384.571	86.53
384.781	129.53
384.991	84.48
385.201	70.14
385.411	49.66
385.621	47.62
385.831	8.7
386.041	37.38
386.251	-28.16
386.461	107.01
386.671	90.62
386.881	41.47
387.091	59.9
387.301	43.52
387.511	39.42
387.72	127.49
387.93	84.48
388.14	41.47
388.35	86.53
388.56	66.05
388.769	115.2
388.979	31.23
389.189	8.7
389.399	45.57
389.609	47.62
389.818	70.14
390.028	74.24
390.238	115.2
390.447	70.14
390.657	96.77
390.867	25.09
391.076	25.09
391.286	92.67
391.496	137.73
391.705	43.52
391.915	70.14
392.125	-7.68
392.334	41.47
392.544	127.49
392.753	33.28
392.963	66.05
393.172	-5.63
393.382	4.61
393.591	182.78
393.801	68.09
394.01	111.1
394.22	76.29
394.429	-34.3
394.639	137.73
394.848	82.43
395.058	78.33
395.267	68.09
395.477	66.05
395.686	123.39
395.895	57.86
396.105	92.67
396.314	78.33
396.524	109.05
396.733	98.81
396.942	190.97
397.152	123.39
397.361	123.39
397.57	102.91
397.78	205.31
397.989	121.34
398.198	168.45
398.407	55.81
398.617	119.29
398.826	141.82
399.035	147.97
399.244	125.44
399.453	86.53
399.663	150.01
399.872	172.54
400.081	94.72
400.29	107.01
400.499	115.2
400.708	254.46
400.917	139.77
401.127	139.77
401.336	172.54
401.545	119.29
401.754	135.68
401.963	123.39
402.172	25.09
402.381	121.34
402.59	88.57
402.799	66.05
403.008	107.01
403.217	119.29
403.426	139.77
403.635	156.16
403.844	160.25
404.053	125.44
404.262	172.54
404.471	291.32
404.68	150.01
404.888	119.29
405.097	129.53
405.306	256.51
405.515	221.69
405.724	129.53
405.933	197.12
406.142	293.37
406.35	225.79
406.559	205.31
406.768	238.08
406.977	336.38
407.185	260.6
407.394	250.36
407.603	260.6
407.812	311.8
408.02	315.9
408.229	272.89
408.438	311.8
408.646	223.74
408.855	289.28
409.064	348.67
409.272	393.72
409.481	330.23
409.69	401.91
409.898	352.76
410.107	434.68
410.315	385.53
410.524	356.86
410.733	461.3
410.941	336.38
411.15	504.31
411.358	412.15
411.567	492.02
411.775	498.17
411.984	500.22
412.192	584.18
412.401	463.35
412.609	635.38
412.818	643.57
413.026	619
413.234	565.75
413.443	641.53
413.651	639.48
413.86	750.07
414.068	782.84
414.276	737.78
414.485	772.6
414.693	721.4
414.901	844.28
415.11	862.71
415.318	926.19
415.526	877.04
415.734	950.77
415.943	956.91
416.151	954.87
416.359	922.1
416.567	1049.07
416.776	1034.74
416.984	1124.85
417.192	1133.04
417.4	1229.29
417.608	1311.21
417.817	1268.2
418.025	1333.74
418.233	1559.02
418.441	1368.56
418.649	1452.52
418.857	1614.31
419.065	1624.55
419.273	1626.6
419.481	1729
419.689	1724.9
419.897	1876.45
420.105	1796.58
420.313	1917.41
420.521	1964.51
420.729	2007.52
420.937	2169.31
421.145	2089.44
421.353	2277.85
421.561	2392.54
421.769	2482.65
421.977	2458.07
422.185	2548.19
422.393	2638.3
422.601	2847.19
422.809	2851.28
423.017	2804.18
423.224	2882
423.432	3088.85
423.64	3101.14
423.848	3453.39
424.056	3330.51
424.263	3570.12
424.471	3615.18
424.679	3611.08
424.887	3768.77
425.094	3895.75
425.302	3918.28
425.51	3932.61
425.718	4270.53
425.925	4131.26
426.133	4346.3
426.341	4630.97
426.548	4759.99
426.756	4850.1
426.964	4932.02
427.171	5079.47
427.379	5392.81
427.586	5460.4
427.794	5579.18
428.001	5980.58
428.209	5843.37
428.417	5890.47
428.624	6513.05
428.832	6336.93
429.039	6472.09
429.247	6427.04
429.454	6955.41
429.662	7457.17
429.869	6955.41
430.076	7342.48
430.284	7225.75
430.491	7479.69
430.699	7891.34
430.906	7946.63
431.114	8049.03
431.321	8335.74
431.528	8540.54
431.736	8948.09
431.943	9353.59
432.15	9091.45
432.358	9300.34
432.565	9843.05
432.772	9675.12
432.979	10199.4
433.187	10258.79
433.394	10441.06
433.601	11231.57
433.808	11313.49
434.016	11207
434.223	11747.66
434.43	12355.91
434.637	12069.19
434.844	12874.04
435.052	13117.75
435.259	12796.22
435.466	13390.13
435.673	12910.91
435.88	13783.34
436.087	14496.03
436.294	14653.73
436.501	14250.28
436.708	14430.5
436.915	14889.24
437.122	15687.95
437.329	15507.73
437.537	16079.11
437.743	16292.1
437.95	16269.58
438.157	17031.42
438.364	17467.64
438.571	17885.42
438.778	17705.2
438.985	19312.86
439.192	18358.5
439.399	18833.63
439.606	18716.9
439.813	19534.04
440.02	20766.92
440.227	20363.47
440.433	20046.03
440.64	20992.19
440.847	20629.7
441.054	21094.59
441.261	22663.33
441.467	22263.98
441.674	22681.77
441.881	23720.09
442.088	23713.94
442.294	23314.59
442.501	23777.43
442.708	24559.75
442.914	25503.87
443.121	26527.85
443.328	25761.91
443.534	27408.48
443.741	26652.78
443.948	26220.66
444.154	28137.55
444.361	27902.04
444.568	28354.64
444.774	28581.96
444.981	28809.29
445.187	29587.52
445.394	30539.82
445.6	29950.01
445.807	33650.69
446.013	31797.27
446.22	32071.7
446.426	33642.49
446.633	34088.95
446.839	35039.21
447.046	33509.38
447.252	35264.49
447.459	35598.3
447.665	35305.45
447.871	36734.93
448.078	38533.04
448.284	36644.82
448.491	37406.66
448.697	38743.98
448.903	39514.02
449.11	40032.16
449.316	39090.09
449.522	39833.5
449.728	41013.13
449.935	41168.78
450.141	41453.45
450.347	42258.3
450.553	40556.44
450.76	41351.05
450.966	42549.11
451.172	42309.5
451.378	43028.34
451.584	42340.22
451.791	43331.43
451.997	43202.41
452.203	44066.66
452.409	43915.11
452.615	43677.54
452.821	42147.71
453.027	41766.79
453.233	43911.01
453.44	42205.05
453.646	42735.48
453.852	42694.52
454.058	43396.97
454.264	41998.21
454.47	42952.56
454.676	42106.75
454.882	43429.74
455.088	39919.52
455.294	40247.19
455.5	40945.55
455.705	41484.17
455.911	39700.39
456.117	39108.52
456.323	38416.31
456.529	36267.99
456.735	38293.43
456.941	37117.9
457.147	36427.73
457.352	35207.14
457.558	35065.83
457.764	35084.26
457.97	33941.5
458.176	33988.6
458.381	33626.11
458.587	32079.89
458.793	32153.62
458.999	30156.85
459.204	32370.71
459.41	31647.77
459.616	29321.28
459.821	29294.66
460.027	29454.4
460.233	28500.05
460.438	27390.05
460.644	27392.09
460.85	26607.72
461.055	25661.56
461.261	25804.92
461.466	23961.75
461.672	23126.18
461.878	24893.57
462.083	23058.59
462.289	22714.53
462.494	22659.24
462.7	21698.74
462.905	21049.53
463.111	22003.89
463.316	21768.37
463.522	21309.63
463.727	21139.65
463.932	20969.66
464.138	21024.96
464.343	20871.36
464.549	20195.53
464.754	21045.44
464.959	20900.03
465.165	21014.72
465.37	19841.23
465.575	19425.5
465.781	19900.62
465.986	20347.08
466.191	19392.73
466.397	18964.7
466.602	18206.95
466.807	18673.89
467.012	18663.65
467.218	18393.32
467.423	18389.22
467.628	18508.01
467.833	19407.06
468.038	18655.46
468.244	17918.19
468.449	18710.75
468.654	18116.84
468.859	17926.38
469.064	17862.9
469.269	16984.32
469.474	17254.65
469.679	17752.31
469.885	16906.49
470.09	17322.23
470.295	17074.43
470.5	16345.35
470.705	17041.66
470.91	16523.52
471.115	16515.33
471.32	16658.69
471.525	16525.57
471.73	16335.11
471.935	15962.38
472.139	15356.18
472.344	15651.09
472.549	15681.81
472.754	15403.28
472.959	14952.73
473.164	14618.91
473.369	14500.13
473.574	15221.02
473.778	14999.84
473.983	14649.63
474.188	14539.04
474.393	14088.49
474.598	14203.18
474.802	13762.86
475.007	13820.21
475.212	13869.36
475.417	13388.08
475.621	13660.46
475.826	13494.58
476.031	13125.94
476.235	13019.45
476.44	13150.52
476.645	12853.56
476.849	12978.49
477.054	12636.48
477.259	12509.51
477.463	12607.81
477.668	12140.87
477.872	12372.29
478.077	11921.74
478.282	11981.13
478.486	11903.31
478.691	11743.56
478.895	11759.95
479.1	11530.58
479.304	11506
479.509	11153.75
479.713	11530.58
479.918	11131.22
480.122	11102.55
480.326	11186.52
480.531	11256.15
480.735	10860.89
480.94	10948.95
481.144	11196.76
481.348	10750.3
481.553	10723.68
481.757	10666.33
481.961	10819.93
482.166	10903.9
482.37	10805.6
482.574	10668.38
482.778	10758.49
482.983	10951
483.187	10707.29
483.391	10789.21
483.595	10508.64
483.8	10512.74
484.004	10582.37
484.208	10717.53
484.412	10633.57
484.616	10484.06
484.821	10729.82
485.025	10574.17
485.229	10910.04
485.433	10619.23
485.637	10721.63
485.841	10670.43
486.045	10529.12
486.249	10615.13
486.453	10641.76
486.657	10502.5
486.861	10539.36
487.065	10232.16
487.269	10633.57
487.473	10424.67
487.677	10426.72
487.881	10799.45
488.085	10414.43
488.289	10418.53
488.493	10520.93
488.697	10518.88
488.901	10758.49
489.105	10387.81
489.309	10625.37
489.512	10668.38
489.716	10699.1
489.92	10613.09
490.124	10785.12
490.328	10809.69
490.531	10473.82
490.735	10613.09
490.939	10924.38
491.143	10629.47
491.346	10953.05
491.55	10957.14
491.754	10867.03
491.958	10723.68
492.161	10924.38
492.365	11075.93
492.569	10967.38
492.772	10961.24
492.976	10895.71
493.18	11092.31
493.383	11284.82
493.587	11290.96
493.79	11483.47
493.994	11290.96
494.197	11268.44
494.401	11465.04
494.605	11243.86
494.808	11587.92
495.012	11579.73
495.215	11698.51
495.419	11684.17
495.622	11710.8
495.825	11905.35
496.029	11807.05
496.232	12202.31
496.436	12058.95
496.639	12255.56
496.843	12222.79
497.046	12689.73
497.249	12509.51
497.453	12624.19
497.656	12620.1
497.859	12847.42
498.063	13003.07
498.266	13349.17
498.469	13093.18
498.673	13357.36
498.876	13324.6
499.079	13586.74
499.282	13570.35
499.485	13955.37
499.689	13990.19
499.892	14149.93
500.095	14086.44
500.298	14528.8
500.501	14250.28
500.705	14760.22
500.908	14784.8
501.111	14631.2
501.314	15247.64
501.517	15229.21
501.72	15589.65
501.923	15397.14
502.126	15679.76
502.329	15857.93
502.532	16036.11
502.735	15970.57
502.938	16435.46
503.141	16480.52
503.344	16564.48
503.547	16916.73
503.75	17230.07
503.953	17170.68
504.156	17363.19
504.359	17443.06
504.562	17508.6
504.765	17922.29
504.968	18071.79
505.17	18335.98
505.373	18370.79
505.576	18540.77
505.779	18671.84
505.982	18876.64
506.185	19251.42
506.387	19265.75
506.59	19495.13
506.793	19812.56
506.996	19888.34
507.198	20259.02
507.401	20099.28
507.604	20533.45
507.807	20928.7
508.009	21176.51
508.212	20809.92
508.415	21444.79
508.617	21455.03
508.82	21700.79
509.022	21608.63
509.225	22108.33
509.428	22309.04
509.63	22331.56
509.833	22399.15
510.035	23050.4
510.238	22956.19
510.44	23376.03
510.643	23896.21
510.845	23865.49
511.048	23845.01
511.25	24066.19
511.453	24209.55
511.655	25133.18
511.858	24477.83
512.06	25004.16
512.262	25391.23
512.465	25378.94
512.667	25706.62
512.87	26071.15
513.072	26050.67
513.274	26558.57
513.477	26675.3
513.679	27160.67
513.881	27437.15
514.084	27441.25
514.286	27492.44
514.488	27613.27
514.69	28377.17
514.893	28024.92
515.095	28493.9
515.297	28788.81
515.499	28846.15
515.701	29120.58
515.904	29583.42
516.106	29874.23
516.308	29896.76
516.51	30277.68
516.712	30029.88
516.914	30421.04
517.116	31262.75
517.318	31213.6
517.52	31285.28
517.722	31631.39
517.925	31926.3
518.127	32266.26
518.329	32440.34
518.531	32081.94
518.733	32706.57
518.935	33208.33
519.136	33093.64
519.338	33323.01
519.54	33566.72
519.742	33966.07
519.944	33708.03
520.146	34435.06
520.348	34381.81
520.55	34488.31
520.752	34772.97
520.954	35131.37
521.155	35076.07
521.357	35319.78
521.559	35573.73
521.761	36093.91
521.963	36014.04
522.164	35909.6
522.366	36454.36
522.568	36657.1
522.77	36777.93
522.971	37169.1
523.173	37033.93
523.375	37142.47
523.576	37398.47
523.778	37732.29
523.98	37646.27
524.181	38102.97
524.383	38062.01
524.584	38307.77
524.786	37840.83
524.988	38025.15
525.189	38842.29
525.391	38743.98
525.592	38741.94
525.794	38905.77
525.995	38948.78
526.197	38873.01
526.398	38991.79
526.6	39286.7
526.801	39045.04
527.003	39522.21
527.204	39227.31
527.406	39688.1
527.607	39413.67
527.808	39311.27
528.01	38938.54
528.211	39258.02
528.412	40091.55
528.614	39759.78
528.815	39430.05
529.016	39786.4
529.218	39380.9
529.419	39851.94
529.62	39765.92
529.822	39851.94
530.023	39536.55
530.224	39798.69
530.425	39800.74
530.626	39266.22
530.828	39407.53
531.029	40087.45
531.23	39360.42
531.431	39573.41
531.632	39733.15
531.833	39954.33
532.035	39405.48
532.236	39896.99
532.437	40015.77
532.638	39147.43
532.839	39552.93
533.04	39643.04
533.241	39155.63
533.442	39899.04
533.643	39829.41
533.844	39847.84
534.045	39604.13
534.246	39272.36
534.447	39366.57
534.648	38985.65
534.849	39198.63
535.05	38981.55
535.251	38954.93
535.451	39069.61
535.652	39223.21
535.853	38836.14
536.054	39018.41
536.255	38901.68
536.456	38614.96
536.657	39270.31
536.857	38549.43
537.058	38567.86
537.259	38711.22
537.46	38637.49
537.66	38467.51
537.861	38811.57
538.062	38752.18
538.263	38623.15
538.463	38223.8
538.664	38653.87
538.865	38543.28
539.065	38551.48
539.266	38059.96
539.466	38913.97
539.667	37955.52
539.868	38758.32
540.068	38139.83
540.269	38277.05
540.469	38588.34
540.67	37859.26
540.87	38604.72
541.071	37918.65
541.271	38399.93
541.472	37939.13
541.672	38080.44
541.873	37875.65
542.073	37832.64
542.274	38377.4
542.474	37844.93
542.675	37746.62
542.875	38094.78
543.075	37707.71
543.276	37369.8
543.476	38236.09
543.676	37607.36
543.877	37570.5
544.077	37875.65
544.277	37601.22
544.478	37455.81
544.678	38143.93
544.878	37885.89
545.078	38016.96
545.279	37502.92
545.479	37656.51
545.679	37799.87
545.879	37660.61
546.079	37455.81
546.28	37484.48
546.48	37425.09
546.68	37750.72
546.88	37590.98
547.08	37308.36
547.28	37468.1
547.48	37078.99
547.68	37656.51
547.88	37607.36
548.081	37777.34
548.281	37631.94
548.481	37347.27
548.681	37820.35
548.881	37529.54
549.081	37689.28
549.28	37070.79
549.48	37879.74
549.68	37302.21
549.88	38113.21
550.08	37455.81
550.28	37873.6
550.48	37666.75
550.68	37730.24
550.88	37425.09
551.08	37531.59
551.279	37892.03
551.479	37560.26
551.679	37967.8
551.879	37392.33
552.079	37687.23
552.278	37638.08
552.478	38004.67
552.678	37695.42
552.878	37980.09
553.077	37496.77
553.277	37341.13
553.477	38109.11
553.676	37691.33
553.876	37611.46
554.076	37642.18
554.275	37631.94
554.475	37511.11
554.674	37707.71
554.874	37797.82
555.074	37752.77
555.273	37892.03
555.473	38084.54
555.672	38096.83
555.872	38016.96
556.071	38078.39
556.271	37973.95
556.47	37978.04
556.67	37644.23
556.869	37568.45
557.068	38154.17
557.268	37660.61
557.467	37961.66
557.667	37816.25
557.866	38182.84
558.065	37951.42
558.265	37613.51
558.464	37617.6
558.663	38455.22
558.863	37799.87
559.062	38518.71
559.261	37652.42
559.461	38207.42
559.66	37564.35
559.859	37609.41
560.058	37646.27
560.258	37822.4
560.457	37507.01
560.656	37912.51
560.855	37789.63
561.054	38361.01
561.253	37670.85
561.453	38072.25
561.652	38000.57
561.851	37865.41
562.05	37648.32
562.249	37615.55
562.448	37889.98
562.647	37619.65
562.846	37701.57
563.045	37826.49
563.244	37552.07
563.443	37994.43
563.642	37218.25
563.841	37382.09
564.04	37466.05
564.239	37910.46
564.438	37234.63
564.637	37621.7
564.836	37904.32
565.035	37418.95
565.234	37343.17
565.432	37169.1
565.631	37113.8
565.83	37474.24
566.029	36968.4
566.228	37285.83
566.427	37408.71
566.625	36970.44
566.824	36059.1
567.023	36890.57
567.222	36444.12
567.42	37492.68
567.619	36972.49
567.818	36925.39
568.016	36696.02
568.215	36829.13
568.414	36540.37
568.612	36773.84
568.811	36575.19
569.01	36442.07
569.208	35825.63
569.407	36386.77
569.605	36118.49
569.804	36575.19
570.002	35712.99
570.201	36425.68
570.4	35870.68
570.598	36171.74
570.797	36108.25
570.995	35684.32
571.193	35463.14
571.392	36218.84
571.59	35442.66
571.789	35512.29
571.987	35332.07
572.186	35098.6
572.384	35227.62
572.582	35500
572.781	35422.18
572.979	34813.93
573.177	34985.96
573.376	34942.95
573.574	34660.34
573.772	35137.51
573.971	34525.17
574.169	34303.99
574.367	34373.62
574.565	34580.46
574.763	34281.46
574.962	34017.27
575.16	33982.46
575.358	34596.85
575.556	34027.51
575.754	34482.16
575.952	33759.23
576.151	33861.63
576.349	33527.81
576.547	33617.92
576.745	33550.34
576.943	33413.12
577.141	33460.23
577.339	33505.28
577.537	33234.95
577.735	33198.09
577.933	32819.21
578.131	32901.13
578.329	32981
578.527	32804.88
578.725	32428.05
578.923	33142.79
579.121	32587.79
579.319	32206.87
579.516	32432.15
579.714	32555.02
579.912	32167.96
580.11	32178.2
580.308	31707.16
580.506	32161.81
580.704	31604.77
580.901	32131.09
581.099	32331.79
581.297	31703.07
581.495	31694.88
581.692	32034.84
581.89	31490.08
582.088	31455.26
582.285	31258.66
582.483	31477.79
582.681	31137.83
582.878	31082.53
583.076	30879.78
583.274	31361.06
583.471	30500.91
583.669	30826.54
583.866	30836.78
584.064	31205.41
584.262	30107.7
584.459	30861.35
584.657	30410.8
584.854	30607.4
585.052	30068.79
585.249	30773.29
585.447	30349.36
585.644	29626.43
585.841	30109.75
586.039	30378.03
586.236	29923.38
586.434	29976.63
586.631	29902.9
586.828	29851.7
587.026	29648.96
587.223	29767.74
587.42	29646.91
587.618	29653.05
587.815	29173.83
588.012	29366.34
588.21	29622.33
588.407	29610.04
588.604	29048.9
588.801	28993.61
588.999	29096
589.196	29362.24
589.393	28979.27
589.59	28938.31
589.787	28831.82
589.984	28676.17
590.182	28682.31
590.379	28897.35
590.576	28575.82
590.773	28219.47
590.97	28289.1
591.167	28393.55
591.364	28072.02
591.561	28254.29
591.758	28139.6
591.955	28084.31
592.152	28485.71
592.349	27803.74
592.546	27983.96
592.743	27979.86
592.94	27379.81
593.137	28174.42
593.334	27844.7
593.531	27574.36
593.727	27848.79
593.924	27850.84
594.121	27533.4
594.318	27773.02
594.515	27408.48
594.712	27730.01
594.908	27412.57
595.105	27662.43
595.302	27132
595.499	27476.06
595.696	27496.54
595.892	27201.63
596.089	27314.27
596.286	27142.24
596.482	27160.67
596.679	27101.28
596.876	27078.75
597.072	27146.34
597.269	27240.54
597.466	26667.11
597.662	26835.05
597.859	26970.21
598.055	27232.35
598.252	27048.04
598.448	27086.95
598.645	26767.46
598.841	26833
599.038	26830.95
599.234	27172.96
599.431	26624.11
599.627	26435.69
599.824	26882.15
600.02	26611.82
600.217	27031.65
600.413	26812.52
600.609	26665.07
600.806	26787.94
601.002	26605.67
601.198	26628.2
601.395	26773.61
601.591	26531.95
601.787	26677.35
601.984	26681.45
602.18	26980.45
602.376	26542.19
602.572	26380.4
602.769	26943.59
602.965	26339.44
603.161	26564.71
603.357	26218.61
603.553	26507.37
603.75	26390.64
603.946	26679.4
604.142	26646.63
604.338	26421.36
604.534	26630.25
604.73	26253.42
604.926	26624.11
605.122	26853.48
605.318	26212.46
605.514	26296.43
605.71	26683.5
605.906	26773.61
606.102	26450.03
606.298	26863.72
606.494	26607.72
606.69	26925.16
606.886	26746.98
607.082	26462.32
607.278	26880.1
607.474	26710.12
607.67	26708.07
607.866	26194.03
608.062	26896.49
608.257	26826.85
608.453	26703.98
608.649	26738.79
608.845	26507.37
609.041	27007.08
609.236	27009.12
609.432	26974.31
609.628	26822.76
609.824	27009.12
610.019	27064.42
610.215	26951.78
610.411	26972.26
610.606	26861.67
610.802	27088.99
610.998	27117.67
611.193	27258.98
611.389	26894.44
611.584	27252.83
611.78	27117.67
611.976	26980.45
612.171	26978.4
612.367	27166.82
612.562	27123.81
612.758	26914.92
612.953	27082.85
613.149	27101.28
613.344	27029.6
613.539	27369.57
613.735	27533.4
613.93	27533.4
614.126	27177.06
614.321	27639.9
614.517	27242.59
614.712	27287.65
614.907	27064.42
615.103	27109.47
615.298	27426.91
615.493	27650.14
615.688	26982.5
615.884	27713.63
616.079	27314.27
616.274	27359.33
616.47	27455.58
616.665	27517.02
616.86	27136.1
617.055	27457.63
617.25	26976.36
617.445	27338.85
617.641	27013.22
617.836	27349.09
618.031	26845.29
618.226	27248.74
618.421	27138.15
618.616	27154.53
618.811	26746.98
619.006	27148.39
619.201	26769.51
619.396	26843.24
619.591	26288.24
619.786	26941.54
619.981	26380.4
620.176	26560.62
620.371	26224.75
620.566	26527.85
620.761	26515.56
620.956	26321.01
621.151	26052.72
621.346	26065.01
621.541	25815.16
621.735	26054.77
621.93	25686.14
622.125	25921.65
622.32	25426.04
622.515	25753.72
622.709	25548.92
622.904	25268.35
623.099	25247.87
623.294	25247.87
623.488	24955.01
623.683	24959.11
623.878	24533.13
624.072	24969.35
624.267	24623.24
624.462	24508.55
624.656	24101.01
624.851	24336.52
625.046	24078.48
625.24	23978.13
625.435	24180.88
625.629	23877.78
625.824	24125.58
626.018	23390.36
626.213	23001.25
626.407	23386.27
626.602	23167.13
626.796	23130.27
626.991	23261.34
627.185	23083.17
627.38	22886.56
627.574	22610.09
627.768	22530.22
627.963	22438.06
628.157	22243.5
628.352	22327.47
628.546	22028.46
628.74	22311.08
628.935	21786.8
629.129	22118.57
629.323	21598.39
629.517	21688.5
629.712	21416.12
629.906	21500.09
630.1	21332.15
630.294	21682.36
630.489	21119.17
630.683	21199.04
630.877	20764.87
631.071	20781.25
631.265	20994.24
631.459	20502.73
631.653	20433.1
631.848	20564.17
632.042	20699.33
632.236	20433.1
632.43	20132.04
632.624	20123.85
632.818	20146.38
633.012	20099.28
633.206	19898.58
633.4	19761.36
633.594	19409.11
633.788	19536.09
633.982	19615.96
634.176	19460.31
634.369	19239.13
634.563	19079.39
634.757	19050.72
634.951	18952.41
635.145	18950.37
635.339	18710.75
635.533	18579.68
635.726	18729.19
635.92	18211.05
636.114	18346.22
636.308	18059.5
636.501	18174.19
636.695	18172.14
636.889	17907.95
637.083	17969.39
637.276	17801.46
637.47	18108.65
637.664	17498.36
637.857	17281.27
638.051	17580.28
638.244	17393.91
638.438	17463.54
638.632	17109.24
638.825	17088.76
639.019	16916.73
639.212	16875.77
639.406	16836.86
639.599	16597.25
639.793	16748.8
639.986	16404.74
640.18	16589.06
640.373	16310.54
640.567	16072.97
640.76	16380.17
640.954	15894.8
641.147	15948.04
641.34	15755.54
641.534	15716.62
641.727	15819.02
641.92	15636.75
642.114	15462.68
642.307	15311.13
642.5	15200.54
642.694	15100.19
642.887	15180.06
643.08	15149.34
643.273	14967.07
643.467	14903.58
643.66	14733.6
643.853	14831.9
644.046	14471.46
644.239	14811.42
644.432	14266.66
644.626	14438.69
644.819	14068.01
645.012	14334.25
645.205	14108.97
645.398	14127.4
645.591	13977.9
645.784	13863.21
645.977	13603.12
646.17	13852.97
646.363	13480.24
646.556	13406.52
646.749	13658.42
646.942	13662.51
647.135	13386.04
647.328	13302.07
647.521	13082.94
647.714	13191.48
647.907	13189.43
648.099	12841.28
648.292	13162.81
648.485	12962.11
648.678	12847.42
648.871	12577.09
649.064	12648.77
649.256	12759.36
649.449	12599.62
649.642	12503.36
649.835	12271.94
650.027	12224.84
650.22	11929.93
650.413	12001.61
650.605	12222.79
650.798	12065.1
650.991	11805
651.183	12028.23
651.376	11790.67
651.568	11811.15
651.761	11651.41
651.954	11632.97
652.146	11673.93
652.339	11409.75
652.531	11348.31
652.724	11407.7
652.916	11272.53
653.109	11293.01
653.301	11272.53
653.494	11211.09
653.686	11016.54
653.879	11090.26
654.071	10864.99
654.263	11030.87
654.456	10830.17
654.648	10815.83
654.84	10715.48
655.033	10715.48
655.225	10545.5
655.417	10432.86
655.61	10516.83
655.802	10649.95
655.994	10322.27
656.186	10346.85
656.379	10199.4
656.571	10350.95
656.763	10090.85
656.955	10156.39
657.148	10185.06
657.34	10049.89
657.532	9859.43
657.724	10033.51
657.916	9859.43
658.108	9933.16
658.3	9701.74
658.492	9808.23
658.684	9437.55
658.876	9562.48
659.068	9564.53
659.26	9437.55
659.452	9447.79
659.644	9617.77
659.836	9253.23
660.028	9292.15
660.22	9501.04
660.412	9136.5
660.604	9118.07
660.796	9193.84
660.988	9040.25
661.18	8909.18
661.372	8935.8
661.563	9021.81
661.755	8704.38
661.947	8692.09
662.139	8958.33
662.331	8741.24
662.522	8780.15
662.714	8731
662.906	8434.05
663.097	8708.48
663.289	8501.63
663.481	8407.42
663.673	8200.58
663.864	8388.99
664.056	8311.17
664.247	8208.77
664.439	7952.77
664.631	8245.63
664.822	8202.63
665.014	8145.28
665.205	8030.6
665.397	7950.73
665.588	7936.39
665.78	7821.7
665.971	7946.63
666.163	8077.7
666.354	7715.21
666.546	7883.14
666.737	7725.45
666.929	7661.96
667.12	7467.41
667.311	7582.09
667.503	7397.78
667.694	7524.75
667.885	7598.48
668.077	7451.02
668.268	7381.39
668.459	7465.36
668.651	7473.55
668.842	7338.38
669.033	7252.37
669.224	7178.64
669.416	7252.37
669.607	7049.62
669.798	7180.69
669.989	7326.1
670.18	7037.33
670.371	7010.71
670.563	7045.52
670.754	6934.93
670.945	6961.56
671.136	7076.24
671.327	6867.35
671.518	6791.58
671.709	6998.42
671.9	7010.71
672.091	6861.21
672.282	6803.86
672.473	6511
672.664	6777.24
672.855	6693.27
673.046	6621.59
673.237	6551.96
673.428	6640.03
673.619	6699.42
673.809	6758.81
674	6672.79
674.191	6693.27
674.382	6357.41
674.573	6562.2
674.764	6537.63
674.954	6586.78
675.145	6332.83
675.336	6447.52
675.527	6353.31
675.717	6353.31
675.908	6283.68
676.099	6496.67
676.289	6238.62
676.48	6212
676.671	6179.23
676.861	6332.83
677.052	6259.1
677.243	6048.16
677.433	6101.41
677.624	6125.99
677.814	6226.34
678.005	6322.59
678.195	6005.16
678.386	6160.8
678.576	6140.32
678.767	5888.42
678.957	5996.96
679.148	6115.75
679.338	6199.71
679.529	5908.9
679.719	6005.16
679.909	6027.68
680.1	5718.44
680.29	6072.74
680.481	6017.44
680.671	5980.58
680.861	5913
681.052	6054.31
681.242	5974.44
681.432	5986.72
681.622	5747.11
681.813	5773.74
682.003	5958.05
682.193	5837.22
682.383	5849.51
682.573	5857.7
682.764	5788.07
682.954	5792.17
683.144	5751.21
683.334	5892.52
683.524	5771.69
683.714	5749.16
683.904	5697.96
684.094	5757.35
684.284	5808.55
684.474	5841.32
684.664	5632.43
684.854	5671.34
685.044	5603.75
685.234	5659.05
685.424	5607.85
685.614	5640.62
685.804	5679.53
685.994	5626.28
686.184	5654.95
686.374	5597.61
686.564	5673.39
686.753	5562.8
686.943	5384.62
687.133	5532.08
687.323	5759.4
687.513	5632.43
687.702	5355.95
687.892	5431.73
688.082	5431.73
688.272	5368.24
688.461	5552.56
688.651	5390.77
688.841	5409.2
689.03	5566.89
689.22	5292.46
689.41	5308.85
689.599	5335.47
689.789	5308.85
689.979	5214.64
690.168	5355.95
690.358	5159.35
690.547	5325.23
690.737	5210.54
690.926	5196.21
691.116	5157.3
691.305	5411.25
691.495	5052.85
691.684	5108.15
691.874	5015.99
692.063	5165.49
692.252	5046.71
692.442	5089.71
692.631	4850.1
692.82	5013.94
693.01	5028.28
693.199	5030.32
693.388	4893.11
693.578	4766.14
693.767	4723.13
693.956	5073.33
694.146	4927.92
694.335	4878.77
694.524	4813.24
694.713	5104.05
694.902	4772.28
695.092	4790.71
695.281	4868.53
695.47	4821.43
695.659	4813.24
695.848	4649.4
696.037	4800.95
696.226	4829.62
696.415	4860.34
696.604	4759.99
696.793	4743.61
696.982	4688.31
697.171	4858.29
697.36	4671.93
697.549	4585.91
697.738	4614.59
697.927	4497.85
698.116	4639.16
698.305	4497.85
698.494	4706.74
698.683	4393.4
698.872	4567.48
699.061	4581.82
699.25	4491.71
699.438	4555.19
699.627	4620.73
699.816	4618.68
700.005	4489.66
700.193	4424.12
700.382	4487.61
700.571	4301.25
700.76	4491.71
700.948	4385.21
701.137	4497.85
701.326	4467.13
701.514	4383.17
701.703	4497.85
701.892	4301.25
702.08	4377.02
702.269	4284.86
702.457	4235.71
702.646	4321.73
702.834	4182.46
703.023	4360.64
703.212	4239.81
703.4	4182.46
703.589	4276.67
703.777	4041.15
703.965	4149.7
704.154	4088.26
704.342	4065.73
704.531	4016.58
704.719	4090.31
704.907	4170.18
705.096	4135.36
705.284	4118.98
705.472	3967.43
705.661	4012.48
705.849	4133.31
706.037	4004.29
706.226	4129.22
706.414	4086.21
706.602	4010.43
706.79	3924.42
706.979	3944.9
707.167	4049.35
707.355	3928.52
707.543	3938.76
707.731	4018.63
707.919	4014.53
708.107	3926.47
708.296	3973.57
708.484	3770.82
708.672	3846.6
708.86	3899.84
709.048	3752.39
709.236	3883.46
709.424	3727.82
709.612	3901.89
709.8	3803.59
709.988	3809.73
710.176	3766.73
710.364	3883.46
710.551	3830.21
710.739	3678.66
710.927	3746.25
711.115	3678.66
711.303	3801.54
711.491	3785.16
711.679	3686.86
711.866	3731.91
712.054	3756.49
712.242	3705.29
712.43	3621.32
712.617	3688.9
712.805	3559.88
712.993	3555.79
713.181	3400.14
713.368	3570.12
713.556	3559.88
713.744	3434.96
713.931	3613.13
714.119	3527.11
714.306	3463.63
714.494	3473.87
714.682	3383.76
714.869	3457.48
715.057	3346.89
715.244	3482.06
715.432	3609.03
715.619	3334.61
715.807	3512.78
715.994	3379.66
716.182	3396.04
716.369	3465.68
716.556	3336.65
716.744	3469.77
716.931	3293.65
717.119	3213.77
717.306	3369.42
717.493	3293.65
717.681	3260.88
717.868	3191.25
718.055	3307.98
718.242	3230.16
718.43	3293.65
718.617	3365.32
718.804	3240.4
718.991	3240.4
719.179	3264.97
719.366	3226.06
719.553	3334.61
719.74	3187.15
719.927	3240.4
720.114	3264.97
720.301	3092.94
720.488	3160.53
720.676	3076.56
720.863	3090.9
721.05	3068.37
721.237	3111.38
721.424	3211.73
721.611	3049.94
721.798	2929.11
721.985	3002.83
722.172	3025.36
722.358	3099.09
722.545	3025.36
722.732	3168.72
722.919	2998.74
723.106	2974.16
723.293	3037.65
723.48	3015.12
723.667	2908.63
723.853	3043.79
724.04	2990.55
724.227	2935.25
724.414	2992.59
724.6	3011.03
724.787	2877.91
724.974	3004.88
725.161	2927.06
725.347	2863.57
725.534	2912.72
725.72	2920.92
725.907	2916.82
726.094	2793.94
726.28	2810.33
726.467	3088.85
726.653	2861.52
726.84	2851.28
727.027	2798.04
727.213	2828.76
727.4	2810.33
727.586	2793.94
727.773	2728.41
727.959	2798.04
728.145	2871.76
728.332	2746.84
728.518	2839
728.705	2785.75
728.891	2705.88
729.077	2810.33
729.264	2689.49
729.45	2777.56
729.636	2865.62
729.823	2761.17
730.009	2738.65
730.195	2744.79
730.382	2720.21
730.568	2597.34
730.754	2693.59
730.94	2685.4
731.126	2671.06
731.313	2666.97
731.499	2752.98
731.685	2613.72
731.871	2705.88
732.057	2775.51
732.243	2589.14
732.429	2642.39
732.615	2693.59
732.801	2634.2
732.987	2650.58
733.173	2628.06
733.359	2580.95
733.545	2515.42
733.731	2548.19
733.917	2746.84
734.103	2642.39
734.289	2656.73
734.475	2425.31
734.661	2531.8
734.847	2558.42
735.033	2533.85
735.219	2572.76
735.404	2609.62
735.59	2615.77
735.776	2533.85
735.962	2525.66
736.148	2503.13
736.333	2628.06
736.519	2515.42
736.705	2509.27
736.89	2638.3
737.076	2392.54
737.262	2402.78
737.447	2490.84
737.633	2413.02
737.819	2249.18
738.004	2427.35
738.19	2367.96
738.375	2427.35
738.561	2392.54
738.747	2290.14
738.932	2277.85
739.118	2429.4
739.303	2304.48
739.489	2413.02
739.674	2361.82
739.859	2243.04
740.045	2288.09
740.23	2286.05
740.416	2279.9
740.601	2400.73
740.786	2273.76
740.972	2331.1
741.157	2222.56
741.342	2107.87
741.528	2138.59
741.713	2298.33
741.898	2372.06
742.084	2228.7
742.269	2157.02
742.454	2187.74
742.639	2220.51
742.824	2066.91
743.01	2179.55
743.195	2288.09
743.38	2175.45
743.565	2116.06
743.75	2122.21
743.935	2091.49
744.12	2216.41
744.305	2001.38
744.49	2146.78
744.675	1991.14
744.86	2116.06
745.045	2009.57
745.23	2095.58
745.415	1999.33
745.6	2134.5
745.785	2003.43
745.97	2089.44
746.155	1976.8
746.34	2089.44
746.525	1870.31
746.71	1901.03
746.895	1864.16
747.079	1903.07
747.264	1933.79
747.449	1935.84
747.634	1944.03
747.819	2007.52
748.003	1892.84
748.188	1829.35
748.373	1817.06
748.557	1929.7
748.742	1788.39
748.927	1819.11
749.111	1776.1
749.296	1812.96
749.481	1798.63
749.665	1872.36
749.85	1655.27
750.034	1755.62
750.219	1700.33
750.404	1616.36
750.588	1683.94
750.773	1657.32
750.957	1704.42
751.141	1767.91
751.326	1651.17
751.51	1630.7
751.695	1673.7
751.879	1694.18
752.064	1698.28
752.248	1657.32
752.432	1673.7
752.617	1653.22
752.801	1647.08
752.985	1630.7
753.17	1632.74
753.354	1493.48
753.538	1483.24
753.722	1425.9
753.907	1552.87
754.091	1542.63
754.275	1516.01
754.459	1559.02
754.643	1442.28
754.828	1450.47
755.012	1493.48
755.196	1421.8
755.38	1501.67
755.564	1395.18
755.748	1313.26
755.932	1417.71
756.116	1343.98
756.3	1409.51
756.484	1419.75
756.668	1395.18
756.852	1384.94
757.036	1294.83
757.22	1266.16
757.404	1352.17
757.588	1280.49
757.772	1290.73
757.956	1270.25
758.14	1247.72
758.323	1262.06
758.507	1372.65
758.691	1260.01
758.875	1305.07
759.059	1204.72
759.242	1262.06
759.426	1231.34
759.61	1274.35
759.794	1114.61
759.977	1307.12
760.161	1294.83
760.345	1229.29
760.528	1135.09
760.712	1073.65
760.895	1137.13
761.079	1206.77
761.263	1165.81
761.446	1059.31
761.63	1153.52
761.813	1108.46
761.997	1057.26
762.18	1145.33
762.364	1149.42
762.547	1102.32
762.731	1147.37
762.914	1090.03
763.098	1053.17
763.281	1100.27
763.464	1049.07
763.648	1100.27
763.831	1096.18
764.015	1051.12
764.198	1047.02
764.381	983.54
764.564	1143.28
764.748	1075.7
764.931	1106.42
765.114	1024.5
765.297	1094.13
765.481	1051.12
765.664	1026.54
765.847	981.49
766.03	1053.17
766.213	1028.59
766.397	1116.65
766.58	958.96
766.763	1042.93
766.946	1008.11
767.129	995.82
767.312	1008.11
767.495	981.49
767.678	950.77
767.861	954.87
768.044	868.85
768.227	1026.54
768.41	942.58
768.593	991.73
768.776	936.43
768.959	899.57
769.142	1034.74
769.324	958.96
769.507	901.62
769.69	844.28
769.873	877.04
770.056	999.92
770.239	975.35
770.421	952.82
770.604	952.82
770.787	950.77
770.97	852.47
771.152	899.57
771.335	852.47
771.518	934.39
771.7	881.14
771.883	915.95
772.066	897.52
772.248	821.75
772.431	948.72
772.613	909.81
772.796	840.18
772.978	909.81
773.161	862.71
773.343	860.66
773.526	784.88
773.708	813.56
773.891	827.89
774.073	788.98
774.256	877.04
774.438	860.66
774.621	793.08
774.803	795.12
774.985	690.68
775.168	883.19
775.35	717.3
775.532	840.18
775.715	774.64
775.897	827.89
776.079	672.25
776.261	772.6
776.444	690.68
776.626	750.07
776.808	723.44
776.99	721.4
777.173	690.68
777.355	653.81
777.537	774.64
777.719	653.81
777.901	705.01
778.083	672.25
778.265	721.4
778.447	666.1
778.629	616.95
778.811	750.07
778.993	635.38
779.175	745.97
779.357	643.57
779.539	684.53
779.721	633.33
779.903	682.49
780.085	672.25
780.267	688.63
780.449	651.77
780.631	668.15
780.812	627.19
780.994	494.07
781.176	571.9
781.358	651.77
781.54	580.09
781.721	600.57
781.903	610.81
782.085	532.98
782.267	584.18
782.448	518.65
782.63	487.93
782.812	535.03
782.993	606.71
783.175	666.1
783.357	530.94
783.538	575.99
783.72	532.98
783.901	537.08
784.083	578.04
784.264	553.46
784.446	469.5
784.627	565.75
784.809	500.22
784.99	483.83
785.172	500.22
785.353	475.64
785.535	473.59
785.716	543.22
785.897	434.68
786.079	483.83
786.26	537.08
786.441	395.77
786.623	485.88
786.804	496.12
786.985	496.12
787.167	500.22
787.348	442.87
787.529	336.38
787.71	459.26
787.891	401.91
788.073	367.1
788.254	406.01
788.435	508.41
788.616	426.49
788.797	410.11
788.978	371.19
789.159	350.71
789.34	369.15
789.522	399.87
789.703	430.59
789.884	410.11
790.065	412.15
790.246	373.24
790.427	389.63
790.607	426.49
790.788	393.72
790.969	418.3
791.15	410.11
791.331	395.77
791.512	334.33
791.693	352.76
791.874	356.86
792.054	451.07
792.235	352.76
792.416	352.76
792.597	315.9
792.778	401.91
792.958	428.54
793.139	295.42
793.32	369.15
793.5	389.63
793.681	446.97
793.862	360.95
794.042	334.33
794.223	295.42
794.404	274.94
794.584	281.08
794.765	393.72
794.945	373.24
795.126	406.01
795.306	354.81
795.487	332.28
795.667	340.47
795.848	360.95
796.028	320
796.209	352.76
796.389	299.52
796.57	238.08
796.75	248.32
796.93	246.27
797.111	215.55
797.291	285.18
797.471	283.13
797.652	256.51
797.832	250.36
798.012	254.46
798.192	248.32
798.373	291.32
798.553	297.47
798.733	201.21
798.913	320
799.093	223.74
799.274	283.13
799.454	209.4
799.634	283.13
799.814	279.04
799.994	217.6
800.174	221.69
800.354	307.71
800.534	195.07
800.714	250.36
800.894	293.37
801.074	197.12
801.254	219.64
801.434	256.51
801.614	250.36
801.794	266.75
801.974	852.47
802.154	201.21
802.334	205.31
802.514	184.83
802.693	295.42
802.873	219.64
803.053	279.04
803.233	332.28
803.413	248.32
803.592	233.98
803.772	272.89
803.952	270.84
804.131	115.2
804.311	238.08
804.491	283.13
804.67	266.75
804.85	156.16
805.03	283.13
805.209	221.69
805.389	127.49
805.568	203.26
805.748	221.69
805.928	207.36
806.107	213.5
806.287	213.5
806.466	137.73
806.646	215.55
806.825	190.97
807.004	123.39
807.184	221.69
807.363	207.36
807.543	240.12
807.722	172.54
807.901	205.31
808.081	180.73
808.26	168.45
808.439	258.56
808.619	207.36
808.798	145.92
808.977	203.26
809.156	231.93
809.336	209.4
809.515	205.31
809.694	166.4
809.873	166.4
810.052	156.16
810.231	238.08
810.411	131.58
810.59	190.97
810.769	139.77
810.948	133.63
811.127	141.82
811.306	164.35
811.485	188.93
811.664	156.16
811.843	111.1
812.022	133.63
812.201	180.73
812.38	174.59
812.559	123.39
812.737	123.39
812.916	109.05
813.095	205.31
813.274	174.59
813.453	176.64
813.632	147.97
813.811	166.4
813.989	59.9
814.168	221.69
814.347	107.01
814.526	164.35
814.704	156.16
814.883	158.21
815.062	147.97
815.24	160.25
815.419	156.16
815.598	117.25
815.776	109.05
815.955	53.76
816.133	35.33
816.312	205.31
816.49	92.67
816.669	100.86
816.847	135.68
817.026	158.21
817.204	184.83
817.383	88.57
817.561	100.86
817.74	119.29
817.918	109.05
818.097	90.62
818.275	164.35
818.453	131.58
818.632	121.34
818.81	139.77
818.988	127.49
819.167	111.1
819.345	35.33
819.523	20.99
819.701	193.02
819.879	231.93
820.058	123.39
820.236	49.66
820.414	129.53
820.592	76.29
820.77	131.58
820.948	115.2
821.127	74.24
821.305	78.33
821.483	121.34
821.661	172.54
821.839	104.96
822.017	57.86
822.195	37.38
822.373	256.51
822.551	92.67
822.729	190.97
822.907	82.43
823.085	111.1
823.262	57.86
823.44	109.05
823.618	139.77
823.796	117.25
823.974	98.81
824.152	57.86
824.329	100.86
824.507	143.87
824.685	115.2
824.863	66.05
825.04	61.95
825.218	100.86
825.396	188.93
825.574	86.53
825.751	160.25
825.929	92.67
826.107	127.49
826.284	86.53
826.462	47.62
826.639	74.24
826.817	82.43
826.994	92.67
827.172	164.35
827.349	92.67
827.527	109.05
827.704	111.1
827.882	82.43
828.059	82.43
828.237	76.29
828.414	143.87
828.591	66.05
828.769	133.63
828.946	102.91
829.124	115.2
829.301	84.48
829.478	127.49
829.655	29.18
829.833	127.49
830.01	2.56
830.187	141.82
830.364	37.38
830.542	41.47
830.719	139.77
830.896	64
831.073	147.97
831.25	115.2
831.427	131.58
831.604	25.09
831.782	10.75
831.959	98.81
832.136	59.9
832.313	51.71
832.49	-15.87
832.667	107.01
832.844	41.47
833.021	131.58
833.198	139.77
833.374	125.44
833.551	55.81
833.728	74.24
833.905	127.49
834.082	-19.97
834.259	156.16
834.436	176.64
834.612	84.48
834.789	74.24
834.966	66.05
835.143	43.52
835.319	74.24
835.496	51.71
835.673	74.24
835.85	96.77
836.026	12.8
836.203	35.33
836.38	64
836.556	53.76
836.733	43.52
836.909	33.28
837.086	49.66
837.262	68.09
837.439	39.42
837.616	31.23
837.792	70.14
837.968	-7.68
838.145	-56.83
838.321	131.58
838.498	53.76
838.674	41.47
838.851	107.01
839.027	29.18
839.203	-7.68
839.38	107.01
839.556	25.09
839.732	57.86
839.909	29.18
840.085	98.81
840.261	-7.68
840.437	74.24
840.614	47.62
840.79	39.42
840.966	107.01
841.142	98.81
841.318	59.9
841.494	59.9
841.671	35.33
841.847	43.52
842.023	18.94
842.199	-3.58
842.375	33.28
842.551	33.28
842.727	20.99
842.903	98.81
843.079	35.33
843.255	78.33
843.431	53.76
843.607	98.81
843.783	57.86
843.959	76.29
844.134	14.85
844.31	16.9
844.486	-34.3
844.662	12.8
844.838	33.28
845.013	-13.82
845.189	47.62
845.365	57.86
845.541	31.23
845.716	20.99
845.892	57.86
846.068	72.19
846.244	20.99
846.419	33.28
846.595	10.75
846.77	27.14
846.946	68.09
847.122	61.95
847.297	29.18
847.473	16.9
847.648	-32.26
847.824	51.71
847.999	12.8
848.175	49.66
848.35	33.28
848.526	107.01
848.701	57.86
848.876	20.99
849.052	16.9
849.227	100.86
849.403	29.18
849.578	0.51
849.753	18.94
849.929	70.14
850.104	-40.45
850.279	-5.63
850.454	-13.82
850.63	45.57
850.805	20.99
850.98	49.66
851.155	-7.68
851.33	49.66
851.505	18.94
851.681	84.48
851.856	37.38
852.031	76.29
852.206	80.38
852.381	2.56
852.556	6.66
852.731	94.72
852.906	35.33
853.081	49.66
853.256	2.56
853.431	-19.97
853.606	-28.16
853.781	-24.06
853.956	-65.02
854.131	16.9
854.305	-17.92
854.48	10.75
854.655	47.62
854.83	107.01
855.005	51.71
855.18	27.14
855.354	12.8
855.529	84.48
855.704	0.51
855.879	12.8
856.053	27.14
856.228	12.8
856.403	-1.54
856.577	16.9
856.752	-7.68
856.926	43.52
857.101	41.47
857.276	37.38
857.45	25.09
857.625	98.81
857.799	-19.97
857.974	57.86
858.148	-24.06
858.323	-48.64
858.497	-15.87
858.672	74.24
858.846	-52.74
859.02	45.57
859.195	55.81
859.369	-11.78
859.543	-3.58
859.718	74.24
859.892	-26.11
860.066	33.28
860.241	25.09
860.415	-28.16
860.589	-3.58
860.763	-9.73
860.938	23.04
861.112	-30.21
861.286	-1.54
861.46	41.47
861.634	98.81
861.808	-13.82
861.982	25.09
862.157	-42.5
862.331	-1.54
862.505	-58.88
862.679	-22.02
862.853	-24.06
863.027	-9.73
863.201	125.44
863.375	49.66
863.549	12.8
863.722	4.61
863.896	57.86
864.07	12.8
864.244	88.57
864.418	-15.87
864.592	-24.06
864.766	-24.06
864.939	49.66
865.113	16.9
865.287	12.8
865.461	16.9
865.634	-19.97
865.808	33.28
865.982	-24.06
866.156	-52.74
866.329	-50.69
866.503	82.43
866.676	-24.06
866.85	8.7
867.024	-24.06
867.197	10.75
867.371	29.18
867.544	-19.97
867.718	-22.02
867.891	51.71
868.065	16.9
868.238	2.56
868.412	25.09
868.585	-58.88
868.759	43.52
868.932	-79.36
869.105	-15.87
869.279	20.99
869.452	8.7
869.625	25.09
869.799	4.61
869.972	41.47
870.145	-5.63
870.319	-9.73
870.492	-7.68
870.665	27.14
870.838	25.09
871.011	41.47
871.185	-42.5
871.358	82.43
871.531	25.09
871.704	41.47
871.877	25.09
872.05	-17.92
872.223	-71.17
872.396	61.95
872.569	-11.78
872.742	-44.54
872.915	16.9
873.088	-3.58
873.261	-46.59
873.434	98.81
873.607	-15.87
873.78	2.56
873.953	-15.87
874.126	8.7
874.299	-11.78
874.471	8.7
874.644	2.56
874.817	53.76
874.99	49.66
875.163	-17.92
875.335	8.7
875.508	57.86
875.681	-7.68
875.853	-17.92
876.026	18.94
876.199	12.8
876.371	25.09
876.544	100.86
876.717	8.7
876.889	2.56
877.062	45.57
877.234	-46.59
877.407	-1.54
877.579	92.67
877.752	-28.16
877.924	-44.54
878.097	18.94
878.269	-28.16
878.442	25.09
878.614	16.9
878.786	-32.26
878.959	-15.87
879.131	16.9
879.303	-46.59
879.476	0.51
879.648	8.7
879.82	4.61
879.993	35.33
880.165	2.56
880.337	-19.97
880.509	-24.06
880.681	-62.98
880.854	-26.11
881.026	16.9
881.198	43.52
881.37	25.09
881.542	6.66
881.714	35.33
881.886	23.04
882.058	-46.59
882.23	98.81
882.402	4.61
882.574	8.7
882.746	-15.87
882.918	35.33
883.09	35.33
883.262	20.99
883.434	-24.06
883.606	-95.74
883.778	-17.92
883.95	35.33
884.122	-17.92
884.293	61.95
884.465	70.14
884.637	94.72
884.809	-62.98
884.98	-48.64
885.152	-19.97
885.324	-15.87
885.496	-46.59
885.667	25.09
885.839	-60.93
886.011	-54.78
886.182	-9.73
886.354	-28.16
886.525	-52.74
886.697	-24.06
886.869	12.8
887.04	41.47
887.212	64
887.383	35.33
887.555	8.7
887.726	-22.02
887.897	25.09
888.069	-48.64
888.24	51.71
888.412	-30.21
888.583	-40.45
888.754	-73.21
888.926	-5.63
889.097	-3.58
889.268	-24.06
889.44	-1.54
889.611	-56.83
889.782	-40.45
889.953	-48.64
890.125	49.66
890.296	-46.59
890.467	-46.59
890.638	-5.63
890.809	-46.59
890.98	41.47
891.151	78.33
891.323	51.71
891.494	29.18
891.665	78.33
891.836	-22.02
892.007	29.18
892.178	51.71
892.349	-32.26
892.52	-38.4
892.691	23.04
892.862	4.61
893.032	-56.83
893.203	-13.82
893.374	0.51
893.545	12.8
893.716	8.7
893.887	-48.64
894.057	-26.11
894.228	-48.64
894.399	-52.74
894.57	-7.68
894.74	12.8
894.911	57.86
895.082	41.47
895.253	-48.64
895.423	45.57
895.594	-40.45
895.764	8.7
895.935	-24.06
896.106	-73.21
896.276	-60.93
896.447	4.61
896.617	-19.97
896.788	0.51
896.958	-13.82
897.129	6.66
897.299	41.47
897.47	98.81
897.64	-24.06
897.81	-36.35
897.981	-56.83
898.151	25.09
898.322	8.7
898.492	-52.74
898.662	18.94
898.832	33.28
899.003	27.14
899.173	88.57
899.343	-81.41
899.513	-46.59
