Data from USB4F104151__143__14-31-50-500.txt Node

Date: Thu Mar 13 14:31:50 EDT 2025
User: louis
Spectrometer: USB4F10415
Trigger mode: 4
Integration Time (sec): 2.500000E-2
Scans to average: 1
Electric dark correction enabled: true
Nonlinearity correction enabled: false
Boxcar width: 0
XAxis mode: Wavelengths
Number of Pixels in Spectrum: 3648
>>>>>Begin Spectral Data<<<<<
178.204	-119.12
178.424	-119.12
178.644	-119.12
178.864	-139.6
179.084	-131.41
179.304	-14.68
179.524	-24.92
179.744	48.81
179.964	89.77
180.184	-49.49
180.404	26.28
180.624	-0.34
180.844	46.76
181.064	-39.25
181.283	-72.02
181.503	5.8
181.723	-16.73
181.943	20.14
182.163	124.58
182.383	11.95
182.602	-47.44
182.822	50.86
183.042	44.71
183.262	18.09
183.482	-12.63
183.701	11.95
183.921	-12.63
184.141	32.43
184.361	42.67
184.58	30.38
184.8	97.96
185.02	-22.87
185.239	36.52
185.459	32.43
185.679	16.04
185.898	-41.3
186.118	59.05
186.338	73.39
186.557	46.76
186.777	32.43
186.997	40.62
187.216	11.95
187.436	-31.06
187.655	34.47
187.875	83.63
188.095	-22.87
188.314	57
188.534	116.39
188.753	-55.64
188.973	20.14
189.192	81.58
189.412	42.67
189.631	40.62
189.851	48.81
190.07	57
190.29	-10.58
190.509	7.85
190.729	-20.82
190.948	67.24
191.168	171.69
191.387	16.04
191.607	-12.63
191.826	-43.35
192.045	-16.73
192.265	20.14
192.484	50.86
192.704	73.39
192.923	-16.73
193.142	91.82
193.362	89.77
193.581	73.39
193.8	130.73
194.02	40.62
194.239	-33.11
194.458	32.43
194.678	59.05
194.897	73.39
195.116	81.58
195.335	65.19
195.555	46.76
195.774	69.29
195.993	46.76
196.212	71.34
196.432	-6.49
196.651	32.43
196.87	48.81
197.089	52.91
197.308	81.58
197.528	40.62
197.747	97.96
197.966	18.09
198.185	65.19
198.404	59.05
198.623	24.23
198.842	69.29
199.062	83.63
199.281	114.34
199.5	40.62
199.719	57
199.938	18.09
200.157	106.15
200.376	22.19
200.595	159.4
200.814	61.1
201.033	48.81
201.252	40.62
201.471	-80.21
201.69	110.25
201.909	71.34
202.128	-47.44
202.347	110.25
202.566	-22.87
202.785	-41.3
203.004	9.9
203.223	95.91
203.442	85.67
203.661	-0.34
203.879	32.43
204.098	-20.82
204.317	46.76
204.536	138.92
204.755	-0.34
204.974	59.05
205.193	24.23
205.411	81.58
205.63	42.67
205.849	77.48
206.068	30.38
206.287	32.43
206.505	93.87
206.724	-0.34
206.943	7.85
207.162	28.33
207.381	-4.44
207.599	28.33
207.818	57
208.037	81.58
208.255	22.19
208.474	-4.44
208.693	40.62
208.911	-78.16
209.13	5.8
209.349	1.71
209.567	-14.68
209.786	46.76
210.005	-8.53
210.223	69.29
210.442	-37.2
210.661	93.87
210.879	83.63
211.098	34.47
211.316	36.52
211.535	69.29
211.753	-22.87
211.972	-20.82
212.191	36.52
212.409	18.09
212.628	-20.82
212.846	44.71
213.065	100.01
213.283	143.02
213.502	-2.39
213.72	30.38
213.938	40.62
214.157	16.04
214.375	73.39
214.594	40.62
214.812	48.81
215.031	79.53
215.249	24.23
215.467	-4.44
215.686	118.44
215.904	85.67
216.122	48.81
216.341	38.57
216.559	9.9
216.778	97.96
216.996	44.71
217.214	57
217.432	38.57
217.651	42.67
217.869	26.28
218.087	36.52
218.306	102.06
218.524	50.86
218.742	59.05
218.96	108.2
219.179	63.15
219.397	89.77
219.615	147.11
219.833	50.86
220.051	40.62
220.27	138.92
220.488	69.29
220.706	48.81
220.924	54.95
221.142	46.76
221.36	54.95
221.578	59.05
221.796	-6.49
222.015	40.62
222.233	38.57
222.451	7.85
222.669	67.24
222.887	18.09
223.105	50.86
223.323	5.8
223.541	-6.49
223.759	-24.92
223.977	28.33
224.195	69.29
224.413	106.15
224.631	24.23
224.849	81.58
225.067	97.96
225.285	18.09
225.503	61.1
225.721	-65.88
225.939	42.67
226.157	69.29
226.375	75.43
226.592	11.95
226.81	69.29
227.028	-63.83
227.246	140.97
227.464	28.33
227.682	59.05
227.9	89.77
228.117	40.62
228.335	97.96
228.553	73.39
228.771	22.19
228.989	11.95
229.206	73.39
229.424	50.86
229.642	-18.77
229.86	100.01
230.077	-45.4
230.295	32.43
230.513	61.1
230.731	83.63
230.948	52.91
231.166	67.24
231.384	61.1
231.601	18.09
231.819	26.28
232.037	-33.11
232.254	-20.82
232.472	50.86
232.689	85.67
232.907	20.14
233.125	48.81
233.342	-14.68
233.56	32.43
233.777	40.62
233.995	-45.4
234.213	54.95
234.43	-24.92
234.648	-33.11
234.865	67.24
235.083	44.71
235.3	48.81
235.518	-45.4
235.735	67.24
235.953	95.91
236.17	16.04
236.388	40.62
236.605	75.43
236.822	57
237.04	42.67
237.257	24.23
237.475	28.33
237.692	16.04
237.909	28.33
238.127	57
238.344	48.81
238.562	50.86
238.779	-49.49
238.996	7.85
239.214	-74.07
239.431	57
239.648	13.99
239.865	122.54
240.083	20.14
240.3	-0.34
240.517	-0.34
240.735	81.58
240.952	-0.34
241.169	85.67
241.386	48.81
241.603	54.95
241.821	28.33
242.038	73.39
242.255	-29.01
242.472	44.71
242.689	102.06
242.907	106.15
243.124	26.28
243.341	20.14
243.558	38.57
243.775	1.71
243.992	32.43
244.209	81.58
244.426	85.67
244.643	-24.92
244.86	20.14
245.078	59.05
245.295	-12.63
245.512	3.75
245.729	30.38
245.946	52.91
246.163	50.86
246.38	69.29
246.597	57
246.814	48.81
247.031	73.39
247.248	32.43
247.464	32.43
247.681	-49.49
247.898	18.09
248.115	59.05
248.332	40.62
248.549	65.19
248.766	122.54
248.983	9.9
249.2	67.24
249.417	57
249.633	9.9
249.85	104.11
250.067	26.28
250.284	77.48
250.501	89.77
250.717	50.86
250.934	24.23
251.151	-0.34
251.368	61.1
251.585	93.87
251.801	36.52
252.018	48.81
252.235	54.95
252.451	-41.3
252.668	57
252.885	102.06
253.102	-39.25
253.318	30.38
253.535	32.43
253.752	40.62
253.968	71.34
254.185	-0.34
254.401	-22.87
254.618	-29.01
254.835	69.29
255.051	97.96
255.268	7.85
255.484	59.05
255.701	-47.44
255.917	59.05
256.134	-8.53
256.351	24.23
256.567	-24.92
256.784	36.52
257	11.95
257.217	34.47
257.433	40.62
257.65	7.85
257.866	24.23
258.082	24.23
258.299	65.19
258.515	102.06
258.732	-65.88
258.948	38.57
259.165	28.33
259.381	16.04
259.597	67.24
259.814	-6.49
260.03	-0.34
260.246	18.09
260.463	52.91
260.679	24.23
260.895	75.43
261.112	34.47
261.328	57
261.544	7.85
261.761	132.78
261.977	-2.39
262.193	40.62
262.409	32.43
262.626	89.77
262.842	7.85
263.058	3.75
263.274	44.71
263.49	20.14
263.707	73.39
263.923	36.52
264.139	26.28
264.355	48.81
264.571	130.73
264.787	7.85
265.004	-12.63
265.22	38.57
265.436	77.48
265.652	69.29
265.868	-0.34
266.084	-6.49
266.3	42.67
266.516	-72.02
266.732	75.43
266.948	61.1
267.164	16.04
267.38	54.95
267.596	83.63
267.812	93.87
268.028	108.2
268.244	85.67
268.46	24.23
268.676	69.29
268.892	73.39
269.108	-8.53
269.324	73.39
269.54	26.28
269.756	106.15
269.972	73.39
270.188	18.09
270.403	-16.73
270.619	-37.2
270.835	24.23
271.051	40.62
271.267	-0.34
271.483	104.11
271.698	57
271.914	-29.01
272.13	13.99
272.346	-39.25
272.562	50.86
272.777	54.95
272.993	63.15
273.209	-16.73
273.425	50.86
273.64	-57.68
273.856	97.96
274.072	24.23
274.287	20.14
274.503	59.05
274.719	50.86
274.934	-12.63
275.15	-18.77
275.366	65.19
275.581	7.85
275.797	16.04
276.012	24.23
276.228	7.85
276.444	63.15
276.659	65.19
276.875	1.71
277.09	-6.49
277.306	20.14
277.521	91.82
277.737	34.47
277.952	97.96
278.168	106.15
278.383	-0.34
278.599	-35.16
278.814	81.58
279.03	18.09
279.245	89.77
279.461	7.85
279.676	112.3
279.892	7.85
280.107	46.76
280.322	-8.53
280.538	42.67
280.753	73.39
280.969	71.34
281.184	30.38
281.399	-22.87
281.615	48.81
281.83	50.86
282.045	-4.44
282.26	59.05
282.476	85.67
282.691	16.04
282.906	-59.73
283.122	32.43
283.337	20.14
283.552	93.87
283.767	89.77
283.983	61.1
284.198	48.81
284.413	24.23
284.628	-98.64
284.843	57
285.058	52.91
285.274	77.48
285.489	-14.68
285.704	130.73
285.919	40.62
286.134	1.71
286.349	-16.73
286.564	1.71
286.779	114.34
286.995	9.9
287.21	36.52
287.425	97.96
287.64	-24.92
287.855	100.01
288.07	5.8
288.285	52.91
288.5	28.33
288.715	91.82
288.93	34.47
289.145	34.47
289.36	93.87
289.575	52.91
289.79	204.46
290.004	18.09
290.219	104.11
290.434	20.14
290.649	20.14
290.864	57
291.079	1.71
291.294	-12.63
291.509	108.2
291.724	24.23
291.938	-24.92
292.153	83.63
292.368	18.09
292.583	16.04
292.798	-18.77
293.012	50.86
293.227	9.9
293.442	40.62
293.657	108.2
293.871	116.39
294.086	18.09
294.301	155.3
294.516	32.43
294.73	-0.34
294.945	26.28
295.16	-0.34
295.374	73.39
295.589	20.14
295.804	126.63
296.018	75.43
296.233	57
296.447	52.91
296.662	85.67
296.877	40.62
297.091	75.43
297.306	52.91
297.52	52.91
297.735	79.53
297.949	-12.63
298.164	42.67
298.378	42.67
298.593	24.23
298.807	3.75
299.022	26.28
299.236	40.62
299.451	36.52
299.665	24.23
299.88	65.19
300.094	36.52
300.309	-55.64
300.523	-6.49
300.737	81.58
300.952	69.29
301.166	100.01
301.381	48.81
301.595	54.95
301.809	40.62
302.024	34.47
302.238	-57.68
302.452	83.63
302.667	-0.34
302.881	1.71
303.095	59.05
303.309	40.62
303.524	-0.34
303.738	32.43
303.952	46.76
304.166	57
304.381	75.43
304.595	28.33
304.809	38.57
305.023	93.87
305.237	-0.34
305.452	75.43
305.666	112.3
305.88	69.29
306.094	67.24
306.308	97.96
306.522	75.43
306.736	44.71
306.95	100.01
307.164	28.33
307.379	34.47
307.593	126.63
307.807	65.19
308.021	50.86
308.235	-29.01
308.449	1.71
308.663	44.71
308.877	65.19
309.091	106.15
309.305	13.99
309.519	-12.63
309.733	57
309.947	38.57
310.161	57
310.374	13.99
310.588	69.29
310.802	-4.44
311.016	32.43
311.23	108.2
311.444	75.43
311.658	11.95
311.872	24.23
312.085	40.62
312.299	102.06
312.513	44.71
312.727	89.77
312.941	-14.68
313.154	75.43
313.368	59.05
313.582	32.43
313.796	59.05
314.009	75.43
314.223	57
314.437	34.47
314.651	-0.34
314.864	73.39
315.078	32.43
315.292	44.71
315.505	59.05
315.719	69.29
315.933	48.81
316.146	36.52
316.36	32.43
316.573	11.95
316.787	97.96
317.001	38.57
317.214	-16.73
317.428	32.43
317.641	40.62
317.855	24.23
318.068	67.24
318.282	61.1
318.495	75.43
318.709	77.48
318.922	57
319.136	24.23
319.349	81.58
319.563	81.58
319.776	73.39
319.99	65.19
320.203	69.29
320.417	100.01
320.63	44.71
320.843	93.87
321.057	3.75
321.27	65.19
321.483	34.47
321.697	122.54
321.91	77.48
322.124	100.01
322.337	89.77
322.55	24.23
322.763	44.71
322.977	20.14
323.19	32.43
323.403	-8.53
323.617	50.86
323.83	81.58
324.043	79.53
324.256	59.05
324.469	93.87
324.683	89.77
324.896	48.81
325.109	34.47
325.322	7.85
325.535	22.19
325.748	48.81
325.962	85.67
326.175	32.43
326.388	40.62
326.601	140.97
326.814	69.29
327.027	30.38
327.24	89.77
327.453	34.47
327.666	52.91
327.879	132.78
328.092	112.3
328.305	30.38
328.518	87.72
328.731	52.91
328.944	40.62
329.157	-26.96
329.37	1.71
329.583	54.95
329.796	124.58
330.009	7.85
330.222	116.39
330.435	77.48
330.648	42.67
330.861	50.86
331.073	65.19
331.286	52.91
331.499	106.15
331.712	-14.68
331.925	52.91
332.138	11.95
332.35	83.63
332.563	75.43
332.776	110.25
332.989	16.04
333.202	48.81
333.414	24.23
333.627	65.19
333.84	59.05
334.053	7.85
334.265	7.85
334.478	40.62
334.691	7.85
334.903	57
335.116	42.67
335.329	59.05
335.541	-14.68
335.754	124.58
335.966	5.8
336.179	138.92
336.392	-4.44
336.604	81.58
336.817	85.67
337.029	46.76
337.242	48.81
337.454	1.71
337.667	73.39
337.88	52.91
338.092	83.63
338.305	71.34
338.517	48.81
338.729	54.95
338.942	42.67
339.154	18.09
339.367	-31.06
339.579	106.15
339.792	16.04
340.004	-8.53
340.217	26.28
340.429	89.77
340.641	57
340.854	18.09
341.066	24.23
341.278	75.43
341.491	130.73
341.703	48.81
341.915	59.05
342.128	61.1
342.34	59.05
342.552	7.85
342.764	-29.01
342.977	3.75
343.189	9.9
343.401	36.52
343.613	-31.06
343.826	44.71
344.038	-24.92
344.25	48.81
344.462	89.77
344.674	-41.3
344.886	13.99
345.099	32.43
345.311	48.81
345.523	40.62
345.735	-14.68
345.947	11.95
346.159	30.38
346.371	81.58
346.583	9.9
346.795	122.54
347.007	69.29
347.219	32.43
347.431	59.05
347.643	120.49
347.855	71.34
348.067	34.47
348.279	67.24
348.491	110.25
348.703	147.11
348.915	63.15
349.127	28.33
349.339	40.62
349.551	59.05
349.763	89.77
349.975	-24.92
350.187	57
350.399	85.67
350.61	69.29
350.822	65.19
351.034	57
351.246	79.53
351.458	75.43
351.669	79.53
351.881	48.81
352.093	40.62
352.305	91.82
352.517	81.58
352.728	52.91
352.94	81.58
353.152	22.19
353.363	34.47
353.575	42.67
353.787	106.15
353.999	63.15
354.21	73.39
354.422	-20.82
354.633	-10.58
354.845	46.76
355.057	-16.73
355.268	-0.34
355.48	97.96
355.692	7.85
355.903	57
356.115	-29.01
356.326	32.43
356.538	71.34
356.749	61.1
356.961	93.87
357.172	71.34
357.384	38.57
357.595	122.54
357.807	54.95
358.018	83.63
358.23	7.85
358.441	81.58
358.653	116.39
358.864	38.57
359.075	9.9
359.287	69.29
359.498	79.53
359.709	89.77
359.921	106.15
360.132	36.52
360.344	77.48
360.555	16.04
360.766	54.95
360.977	28.33
361.189	108.2
361.4	-22.87
361.611	75.43
361.823	38.57
362.034	79.53
362.245	3.75
362.456	20.14
362.667	59.05
362.879	30.38
363.09	20.14
363.301	91.82
363.512	36.52
363.723	1.71
363.935	48.81
364.146	67.24
364.357	5.8
364.568	40.62
364.779	20.14
364.99	24.23
365.201	32.43
365.412	67.24
365.623	-29.01
365.834	65.19
366.045	155.3
366.256	16.04
366.467	59.05
366.678	116.39
366.889	48.81
367.1	57
367.311	24.23
367.522	106.15
367.733	61.1
367.944	91.82
368.155	7.85
368.366	5.8
368.577	200.36
368.788	67.24
368.999	63.15
369.209	59.05
369.42	124.58
369.631	151.21
369.842	71.34
370.053	3.75
370.264	140.97
370.474	-14.68
370.685	1.71
370.896	50.86
371.107	34.47
371.317	67.24
371.528	32.43
371.739	9.9
371.95	48.81
372.16	108.2
372.371	24.23
372.582	-8.53
372.792	132.78
373.003	5.8
373.214	-16.73
373.424	69.29
373.635	44.71
373.846	114.34
374.056	61.1
374.267	32.43
374.477	11.95
374.688	106.15
374.898	132.78
375.109	57
375.319	11.95
375.53	93.87
375.74	79.53
375.951	48.81
376.161	116.39
376.372	48.81
376.582	75.43
376.793	75.43
377.003	57
377.214	16.04
377.424	89.77
377.635	22.19
377.845	26.28
378.055	57
378.266	11.95
378.476	114.34
378.686	57
378.897	44.71
379.107	65.19
379.317	40.62
379.528	20.14
379.738	-6.49
379.948	50.86
380.158	81.58
380.369	42.67
380.579	106.15
380.789	50.86
380.999	40.62
381.21	11.95
381.42	83.63
381.63	100.01
381.84	48.81
382.05	112.3
382.261	149.16
382.471	138.92
382.681	-0.34
382.891	108.2
383.101	122.54
383.311	40.62
383.521	52.91
383.731	75.43
383.941	61.1
384.151	61.1
384.361	26.28
384.571	50.86
384.781	100.01
384.991	93.87
385.201	112.3
385.411	32.43
385.621	89.77
385.831	34.47
386.041	9.9
386.251	28.33
386.461	120.49
386.671	34.47
386.881	122.54
387.091	71.34
387.301	73.39
387.511	26.28
387.72	34.47
387.93	63.15
388.14	85.67
388.35	114.34
388.56	151.21
388.769	159.4
388.979	65.19
389.189	16.04
389.399	81.58
389.609	138.92
389.818	149.16
390.028	102.06
390.238	75.43
390.447	114.34
390.657	85.67
390.867	69.29
391.076	18.09
391.286	97.96
391.496	61.1
391.705	38.57
391.915	130.73
392.125	89.77
392.334	124.58
392.544	24.23
392.753	59.05
392.963	24.23
393.172	65.19
393.382	73.39
393.591	173.74
393.801	34.47
394.01	120.49
394.22	79.53
394.429	59.05
394.639	52.91
394.848	145.06
395.058	65.19
395.267	87.72
395.477	7.85
395.686	20.14
395.895	100.01
396.105	149.16
396.314	54.95
396.524	59.05
396.733	73.39
396.942	163.5
397.152	124.58
397.361	163.5
397.57	138.92
397.78	122.54
397.989	91.82
398.198	147.11
398.407	179.88
398.617	114.34
398.826	89.77
399.035	163.5
399.244	91.82
399.453	50.86
399.663	124.58
399.872	140.97
400.081	171.69
400.29	183.98
400.499	87.72
400.708	181.93
400.917	59.05
401.127	100.01
401.336	83.63
401.545	171.69
401.754	196.26
401.963	97.96
402.172	36.52
402.381	69.29
402.59	126.63
402.799	165.54
403.008	130.73
403.217	188.07
403.426	159.4
403.635	93.87
403.844	93.87
404.053	89.77
404.262	118.44
404.471	263.85
404.68	179.88
404.888	204.46
405.097	130.73
405.306	194.22
405.515	214.7
405.724	249.51
405.933	206.5
406.142	235.18
406.35	222.89
406.559	188.07
406.768	222.89
406.977	253.61
407.185	179.88
407.394	140.97
407.603	224.94
407.812	257.7
408.02	304.81
408.229	296.61
408.438	376.48
408.646	274.09
408.855	278.18
409.064	329.38
409.272	276.13
409.481	351.91
409.69	325.29
409.898	333.48
410.107	263.85
410.315	376.48
410.524	374.44
410.733	386.72
410.941	388.77
411.15	427.68
411.358	421.54
411.567	442.02
411.775	538.27
411.984	425.64
412.192	482.98
412.401	476.84
412.609	589.47
412.818	540.32
413.026	566.95
413.234	544.42
413.443	544.42
413.651	523.94
413.86	659.1
414.068	777.89
414.276	753.31
414.485	607.91
414.693	706.21
414.901	868
415.11	784.03
415.318	814.75
415.526	900.76
415.734	927.39
415.943	863.9
416.151	878.24
416.359	984.73
416.567	958.11
416.776	972.44
416.984	1128.09
417.192	1191.58
417.4	1111.71
417.608	1066.65
417.817	1212.06
418.025	1164.95
418.233	1296.02
418.441	1154.71
418.649	1363.61
418.857	1500.82
419.065	1431.19
419.273	1377.94
419.481	1638.03
419.689	1621.65
419.897	1672.85
420.105	1609.36
420.313	1769.1
420.521	1750.67
420.729	1830.54
420.937	2000.52
421.145	1918.61
421.353	2109.07
421.561	2156.17
421.769	2190.99
421.977	2211.46
422.185	2342.53
422.393	2416.26
422.601	2629.25
422.809	2360.97
423.017	2569.86
423.224	2668.16
423.432	2920.06
423.64	2762.37
423.848	2979.45
424.056	2846.34
424.263	3249.79
424.471	3257.98
424.679	3120.76
424.887	3444.34
425.094	3407.48
425.302	3401.33
425.51	3673.71
425.718	3903.09
425.925	3917.42
426.133	3952.24
426.341	4251.24
426.548	4413.03
426.756	4552.29
426.964	4554.34
427.171	4824.67
427.379	4742.75
427.586	4816.48
427.794	4998.75
428.001	5262.94
428.209	5498.45
428.417	5426.78
428.624	5799.51
428.832	5848.66
429.039	5785.17
429.247	5832.27
429.454	6309.45
429.662	6923.84
429.869	6342.22
430.076	6657.61
430.284	6520.39
430.491	6796.87
430.699	7151.17
430.906	7446.07
431.114	7310.91
431.321	7538.23
431.528	7640.63
431.736	8240.68
431.943	8515.11
432.15	8355.37
432.358	8384.04
432.565	9023.01
432.772	8904.23
432.979	9356.83
433.187	9381.4
433.394	9473.56
433.601	10155.54
433.808	10198.54
434.016	10233.36
434.223	10458.64
434.43	11136.51
434.637	10866.18
434.844	11623.93
435.052	11791.86
435.259	11789.81
435.466	11965.94
435.673	11824.63
435.88	12463.6
436.087	13256.16
436.294	13315.55
436.501	12658.15
436.708	13043.17
436.915	13583.84
437.122	14392.78
437.329	13962.71
437.537	14679.5
437.743	14603.72
437.95	14742.99
438.157	15484.35
438.364	15932.86
438.571	15887.8
438.778	16102.84
438.985	17311.14
439.192	16670.12
439.399	17182.12
439.606	17051.05
439.813	17939.86
440.02	19019.14
440.227	18605.45
440.433	18560.4
440.64	19017.1
440.847	18826.64
441.054	19258.76
441.261	20542.83
441.467	20233.59
441.674	20819.31
441.881	21523.81
442.088	21679.46
442.294	21445.99
442.501	21708.13
442.708	22302.04
442.914	23188.81
443.121	23962.94
443.328	23543.11
443.534	25105.71
443.741	24700.21
443.948	23866.69
444.154	25793.83
444.361	25476.39
444.568	25871.65
444.774	26002.72
444.981	26371.35
445.187	26678.55
445.394	27915.52
445.6	27395.34
445.807	30313.69
446.013	28833.01
446.22	29426.92
446.426	30829.78
446.633	30772.44
446.839	31843.52
447.046	30489.82
447.252	32320.7
447.459	32304.32
447.665	31909.06
447.871	33791.14
448.078	35112.08
448.284	33232.05
448.491	34262.18
448.697	35441.81
448.903	36045.96
449.11	36076.68
449.316	35683.47
449.522	36310.14
449.728	37436.53
449.935	37168.24
450.141	37504.11
450.347	38349.92
450.553	36977.78
450.76	37586.03
450.966	38640.73
451.172	38319.2
451.378	39453.78
451.584	38700.12
451.791	39820.36
451.997	39369.81
452.203	40143.94
452.409	40141.89
452.615	39748.68
452.821	38366.31
453.027	37964.9
453.233	39705.68
453.44	38110.31
453.646	38601.82
453.852	38909.02
454.058	39644.24
454.264	38517.85
454.47	39074.9
454.676	38036.58
454.882	39623.76
455.088	36267.14
455.294	36443.26
455.5	36988.02
455.705	37211.25
455.911	35927.17
456.117	35402.89
456.323	34688.15
456.529	33051.83
456.735	34380.96
456.941	33479.85
457.147	32720.06
457.352	31499.47
457.558	31360.2
457.764	31829.19
457.97	30964.95
458.176	30641.37
458.381	30366.94
458.587	28796.15
458.793	28937.46
458.999	27190.54
459.204	29134.06
459.41	28284.16
459.616	26561.81
459.821	26516.76
460.027	26553.62
460.233	25888.03
460.438	24698.16
460.644	24849.71
460.85	23641.41
461.055	23311.69
461.261	23424.33
461.466	21603.68
461.672	20790.64
461.878	22625.62
462.083	20882.8
462.289	20307.32
462.494	20385.14
462.7	19418.5
462.905	19033.48
463.111	19537.28
463.316	19785.08
463.522	19084.68
463.727	19383.68
463.932	19080.58
464.138	18845.07
464.343	18765.2
464.549	18525.58
464.754	19201.41
464.959	19113.35
465.165	18765.2
465.37	17673.63
465.575	17554.85
465.781	18349.46
465.986	18216.34
466.191	17626.53
466.397	17292.71
466.602	16315.83
466.807	16967.08
467.012	16883.11
467.218	17040.81
467.423	16661.93
467.628	16993.7
467.833	17329.57
468.038	16793
468.244	16377.26
468.449	16965.03
468.654	16516.53
468.859	16311.73
469.064	16170.42
469.269	15664.57
469.474	15678.91
469.679	15803.83
469.885	15367.62
470.09	15814.07
470.295	15695.29
470.5	15148.48
470.705	15525.31
470.91	15050.18
471.115	14941.64
471.32	14876.1
471.525	14966.21
471.73	14605.77
471.935	14343.63
472.139	13921.75
472.344	14247.38
472.549	14069.2
472.754	13874.65
472.959	13641.18
473.164	13336.03
473.369	13063.65
473.574	13661.66
473.778	13426.14
473.983	13010.4
474.188	13329.89
474.393	12754.41
474.598	12756.46
474.802	12502.51
475.007	12686.83
475.212	12545.52
475.417	12142.07
475.621	12279.28
475.826	12045.81
476.031	11974.13
476.235	11806.2
476.44	11830.77
476.645	11615.74
476.849	11879.93
477.054	11417.08
477.259	11273.73
477.463	11326.97
477.668	11247.1
477.872	11175.42
478.077	11247.1
478.282	10765.83
478.486	10915.33
478.691	10702.34
478.895	10741.25
479.1	10591.75
479.304	10622.47
479.509	10339.85
479.713	10411.53
479.918	10221.07
480.122	9829.91
480.326	10327.57
480.531	10264.08
480.735	10130.96
480.94	9936.4
481.144	10432.01
481.348	9766.42
481.553	9932.31
481.757	9784.85
481.961	9797.14
482.166	9907.73
482.37	9977.36
482.574	9903.64
482.778	9772.57
482.983	10059.28
483.187	9874.96
483.391	9971.22
483.595	9680.41
483.8	9543.19
484.004	9750.04
484.208	9881.11
484.412	9743.89
484.616	9846.29
484.821	9743.89
485.025	9684.5
485.229	9969.17
485.433	9485.85
485.637	9879.06
485.841	9592.34
486.045	9711.13
486.249	9590.3
486.453	9416.22
486.657	9668.12
486.861	9836.05
487.065	9602.58
487.269	9715.22
487.473	9639.45
487.677	9567.77
487.881	9741.85
488.085	9602.58
488.289	9866.77
488.493	9485.85
488.697	9850.39
488.901	9817.62
489.105	9686.55
489.309	9780.76
489.512	9862.68
489.716	9776.66
489.92	9688.6
490.124	9924.12
490.328	9797.14
490.531	9657.88
490.735	9791
490.939	9895.44
491.143	10008.08
491.346	9791
491.55	9973.27
491.754	9879.06
491.958	10100.24
492.161	9950.74
492.365	10010.13
492.569	10010.13
492.772	9891.35
492.976	10292.75
493.18	10180.11
493.383	10206.73
493.587	10159.63
493.79	10497.55
493.994	10411.53
494.197	10530.31
494.401	10415.63
494.605	10505.74
494.808	10669.58
495.012	10688.01
495.215	10667.53
495.419	10786.31
495.622	10853.89
495.825	10970.63
496.029	10939.91
496.232	11359.74
496.436	11281.92
496.639	11376.13
496.843	11484.67
497.046	11548.15
497.249	11783.67
497.453	11546.11
497.656	11726.33
497.859	11773.43
498.063	11861.49
498.266	12223.98
498.469	12082.67
498.673	12385.77
498.876	12428.78
499.079	12531.18
499.282	12484.08
499.485	12578.28
499.689	13143.52
499.892	12908.01
500.095	13010.4
500.298	13362.65
500.501	13182.43
500.705	13409.76
500.908	13743.58
501.111	13673.95
501.314	14081.49
501.517	14032.34
501.72	14185.94
501.923	14343.63
502.126	14720.46
502.329	14831.05
502.532	14669.26
502.735	15218.11
502.938	15064.52
503.141	15236.55
503.344	15476.16
503.547	15519.17
503.75	15826.36
503.953	15859.13
504.156	16205.24
504.359	16217.52
504.562	16283.06
504.765	16721.32
504.968	16809.39
505.17	16909.74
505.373	17102.25
505.576	17274.28
505.779	17479.07
505.982	17563.04
506.185	17792.41
506.387	17585.57
506.59	18044.31
506.793	18236.82
506.996	18122.13
507.198	18574.74
507.401	18609.55
507.604	18802.06
507.807	19443.07
508.009	19209.61
508.212	19486.08
508.415	19641.73
508.617	19856.76
508.82	20077.94
509.022	20112.76
509.225	20239.73
509.428	20372.85
509.63	20843.88
509.833	20938.09
510.035	21394.79
510.238	21108.07
510.44	21380.45
510.643	21708.13
510.845	22160.73
511.048	21519.71
511.25	22105.43
511.453	22052.19
511.655	23459.14
511.858	22789.45
512.06	23051.59
512.262	23438.66
512.465	23473.48
512.667	23518.53
512.87	24081.72
513.072	23885.12
513.274	24519.99
513.477	24673.59
513.679	24755.5
513.881	24814.9
514.084	24986.93
514.286	25578.79
514.488	25351.46
514.69	26197.27
514.893	25656.61
515.095	26129.69
515.297	26408.22
515.499	26510.61
515.701	26889.49
515.904	27278.6
516.106	27288.84
516.308	27262.22
516.51	27755.78
516.712	27751.68
516.914	27731.2
517.116	28464.38
517.318	28630.26
517.52	28828.91
517.722	28892.4
517.925	29256.94
518.127	29246.7
518.329	29310.19
518.531	29613.29
518.733	29975.78
518.935	30315.74
519.136	30006.5
519.338	30883.03
519.54	30676.18
519.742	30942.42
519.944	30876.88
520.146	31605.96
520.348	31413.45
520.55	31618.25
520.752	31544.52
520.954	32230.59
521.155	31919.3
521.357	32574.65
521.559	32562.36
521.761	32976.05
521.963	33019.06
522.164	32808.12
522.366	33451.18
522.568	33442.99
522.77	33473.71
522.971	34034.85
523.173	33453.23
523.375	33961.12
523.576	33901.73
523.778	34012.32
523.98	34430.11
524.181	34350.24
524.383	34391.2
524.584	34751.64
524.786	34974.87
524.988	34606.23
525.189	34989.2
525.391	35509.39
525.592	35255.44
525.794	35286.16
525.995	35406.99
526.197	35648.65
526.398	35310.74
526.6	35867.78
526.801	35814.54
527.003	35994.76
527.204	35746.95
527.406	35765.38
527.607	36232.32
527.808	35941.51
528.01	35626.12
528.211	36131.97
528.412	36557.95
528.614	36150.4
528.815	36293.76
529.016	36646.01
529.218	36396.16
529.419	36428.93
529.62	36246.66
529.822	36246.66
530.023	35939.46
530.224	36125.83
530.425	36144.26
530.626	35902.6
530.828	35955.85
531.029	36398.21
531.23	36304
531.431	36091.01
531.632	36377.73
531.833	36533.37
532.035	36195.46
532.236	36394.11
532.437	36488.32
532.638	36201.6
532.839	36658.3
533.04	36322.43
533.241	35910.79
533.442	36484.22
533.643	36652.16
533.844	35882.12
534.045	36381.82
534.246	35632.27
534.447	36136.07
534.648	35796.1
534.849	36197.51
535.05	35562.64
535.251	35886.22
535.451	35968.13
535.652	36164.74
535.853	36000.9
536.054	36353.15
536.255	35693.71
536.456	35705.99
536.657	36357.25
536.857	35636.36
537.058	35667.08
537.259	35878.02
537.46	35869.83
537.66	35337.36
537.861	35783.82
538.062	35441.81
538.263	35712.14
538.463	35753.1
538.664	35613.84
538.865	35656.84
539.065	35787.91
539.266	35224.72
539.466	36025.48
539.667	35382.41
539.868	35624.08
540.068	35341.46
540.269	35069.08
540.469	35839.11
540.67	35124.37
540.87	35331.22
541.071	35517.58
541.271	35382.41
541.472	35484.81
541.672	35259.54
541.873	35093.65
542.073	34888.85
542.274	35493.01
542.474	35280.02
542.675	35073.17
542.875	35536.01
543.075	35048.6
543.276	35062.93
543.476	35218.58
543.676	35073.17
543.877	35064.98
544.077	35136.66
544.277	34790.55
544.478	35044.5
544.678	34921.62
544.878	35081.36
545.078	35134.61
545.279	34827.42
545.479	34974.87
545.679	34972.82
545.879	34917.53
546.079	35101.84
546.28	34985.11
546.48	34811.03
546.68	34968.73
546.88	34886.81
547.08	34684.06
547.28	35282.06
547.48	34657.43
547.68	35310.74
547.88	34550.94
548.081	35007.64
548.281	34886.81
548.481	34800.79
548.681	35087.51
548.881	34458.78
549.081	34610.33
549.28	34956.44
549.48	35017.88
549.68	34706.59
549.88	35275.92
550.08	34935.96
550.28	34733.21
550.48	34698.39
550.68	34952.34
550.88	34557.08
551.08	34739.35
551.279	34944.15
551.479	34921.62
551.679	34831.51
551.879	34808.98
552.079	34901.14
552.278	34774.17
552.478	35001.49
552.678	34727.06
552.878	34968.73
553.077	34561.18
553.277	34344.09
553.477	35112.08
553.676	34950.29
553.876	34739.35
554.076	34718.87
554.275	34559.13
554.475	34419.87
554.674	34688.15
554.874	34829.46
555.074	34851.99
555.273	35378.32
555.473	35202.19
555.672	34927.77
555.872	34927.77
556.071	34811.03
556.271	35163.28
556.47	34817.18
556.67	34471.07
556.869	34948.25
557.068	35249.3
557.268	34792.6
557.467	34935.96
557.667	34913.43
557.866	34864.28
558.065	34841.75
558.265	34677.91
558.464	34782.36
558.663	35142.8
558.863	34409.63
559.062	35069.08
559.261	34395.29
559.461	35136.66
559.66	34249.89
559.859	34700.44
560.058	34780.31
560.258	34722.97
560.457	34911.38
560.656	34763.93
560.855	34518.17
561.054	35234.96
561.253	34688.15
561.453	34620.57
561.652	34804.89
561.851	34860.18
562.05	34649.24
562.249	34512.03
562.448	35081.36
562.647	34649.24
562.846	34792.6
563.045	34798.74
563.244	34493.6
563.443	34696.35
563.642	33969.32
563.841	34727.06
564.04	34749.59
564.239	34886.81
564.438	34180.26
564.637	34618.52
564.836	34471.07
565.035	34045.09
565.234	34714.78
565.432	34014.37
565.631	34475.16
565.83	34372.77
566.029	34129.06
566.228	34030.76
566.427	33989.8
566.625	33694.89
566.824	33750.18
567.023	34141.35
567.222	33531.05
567.42	34145.44
567.619	33404.08
567.818	33604.78
568.016	33776.81
568.215	34030.76
568.414	33635.5
568.612	33776.81
568.811	33666.22
569.01	33506.48
569.208	32967.86
569.407	33973.41
569.605	32959.67
569.804	33823.91
570.002	33311.92
570.201	33455.28
570.4	33270.96
570.598	33246.38
570.797	33121.46
570.995	33094.83
571.193	33033.39
571.392	33369.26
571.59	32715.96
571.789	32748.73
571.987	32652.47
572.186	32691.38
572.384	32255.17
572.582	32613.56
572.781	32423.1
572.979	32081.09
573.177	32593.08
573.376	32746.68
573.574	32120
573.772	32302.27
573.971	32324.8
574.169	32066.75
574.367	31646.92
574.565	32171.2
574.763	31718.6
574.962	31784.13
575.16	31532.23
575.358	31612.1
575.556	31096.02
575.754	31835.33
575.952	31327.44
576.151	31802.57
576.349	31302.86
576.547	31182.03
576.745	31194.32
576.943	31530.19
577.141	30915.79
577.339	30614.74
577.537	30987.47
577.735	30932.18
577.933	30678.23
578.131	30717.14
578.329	30680.28
578.527	30516.44
578.725	30309.6
578.923	30483.67
579.121	30182.62
579.319	30520.54
579.516	30588.12
579.714	30184.67
579.912	29895.91
580.11	30211.29
580.308	29713.64
580.506	29977.83
580.704	29514.98
580.901	29832.42
581.099	30072.03
581.297	29428.97
581.495	29318.38
581.692	29644.01
581.89	29363.43
582.088	29605.09
582.285	29226.22
582.483	29193.45
582.681	29504.74
582.878	29191.41
583.076	28826.87
583.274	29193.45
583.471	28722.42
583.669	28949.74
583.866	28656.89
584.064	28683.51
584.262	28517.62
584.459	28501.24
584.657	28151.04
584.854	28847.35
585.052	27917.57
585.249	28468.47
585.447	28212.48
585.644	27522.31
585.841	28357.88
586.039	28323.07
586.236	28089.6
586.434	28103.93
586.631	28054.78
586.828	27852.03
587.026	27761.92
587.223	27706.63
587.42	27657.48
587.618	27757.83
587.815	27522.31
588.012	27454.73
588.21	27151.63
588.407	27516.17
588.604	26871.06
588.801	27082
588.999	27407.62
589.196	27065.61
589.393	26963.22
589.59	26866.96
589.787	26850.58
589.984	26709.27
590.182	26524.95
590.379	26826
590.576	26430.74
590.773	26670.36
590.97	26250.52
591.167	27041.04
591.364	26330.39
591.561	26309.91
591.758	26174.75
591.955	26436.89
592.152	26432.79
592.349	26254.62
592.546	26459.41
592.743	26412.31
592.94	25951.52
593.137	25607.46
593.334	26029.34
593.531	25781.54
593.727	26010.91
593.924	25830.69
594.121	25580.84
594.318	25920.8
594.515	25703.71
594.712	25836.83
594.908	25632.04
595.105	25849.12
595.302	24978.73
595.499	25853.22
595.696	25300.26
595.892	25361.7
596.089	26015.01
596.286	25306.41
596.482	25410.85
596.679	25056.56
596.876	25519.4
597.072	25150.76
597.269	25242.92
597.466	25068.84
597.662	25105.71
597.859	24907.05
598.055	25087.28
598.252	24919.34
598.448	24941.87
598.645	24939.82
598.841	24839.47
599.038	24888.62
599.234	24739.12
599.431	24505.65
599.627	24761.65
599.824	24853.81
600.02	24403.25
600.217	24685.87
600.413	24532.28
600.609	24487.22
600.806	24366.39
601.002	24614.2
601.198	24661.3
601.395	24257.85
601.591	24372.53
601.787	24343.86
601.984	24292.66
602.18	24593.72
602.376	24610.1
602.572	24311.1
602.769	24032.57
602.965	24143.16
603.161	24632.63
603.357	24288.57
603.553	24466.74
603.75	24184.12
603.946	24487.22
604.142	24384.82
604.338	24333.62
604.534	24208.7
604.73	24196.41
604.926	24433.97
605.122	24110.39
605.318	24366.39
605.514	24094.01
605.71	24214.84
605.906	24151.35
606.102	24606
606.298	24331.58
606.494	24343.86
606.69	24329.53
606.886	24448.31
607.082	23852.35
607.278	24270.14
607.474	23919.93
607.67	24294.71
607.866	24016.19
608.062	24472.89
608.257	24120.63
608.453	24116.54
608.649	24311.1
608.845	24118.59
609.041	24565.04
609.236	24507.7
609.432	24208.7
609.628	24524.08
609.824	24337.72
610.019	24360.25
610.215	24292.66
610.411	24229.18
610.606	24499.51
610.802	24454.45
610.998	24304.95
611.193	24552.76
611.389	24427.83
611.584	24378.68
611.78	24448.31
611.976	24692.02
612.171	24368.44
612.367	24655.15
612.562	24374.58
612.758	24577.33
612.953	24192.31
613.149	24759.6
613.344	24356.15
613.539	24775.98
613.735	24649.01
613.93	24739.12
614.126	24247.61
614.321	24888.62
614.517	24614.2
614.712	24681.78
614.907	24755.5
615.103	24827.18
615.298	24167.74
615.493	24878.38
615.688	24044.86
615.884	24943.92
616.079	24165.69
616.274	24345.91
616.47	24384.82
616.665	24554.8
616.86	24415.54
617.055	24546.61
617.25	24464.69
617.445	24642.87
617.641	24040.76
617.836	24352.06
618.031	24112.44
618.226	24161.59
618.421	24243.51
618.616	24128.83
618.811	23983.42
619.006	24339.77
619.201	23676.23
619.396	24085.82
619.591	23686.47
619.786	24016.19
619.981	23500.1
620.176	23876.93
620.371	23504.2
620.566	23551.3
620.761	23401.8
620.956	23694.66
621.151	23219.53
621.346	23418.18
621.541	22949.2
621.735	23291.21
621.93	22955.34
622.125	23162.19
622.32	22617.43
622.515	22711.63
622.709	22861.13
622.904	22869.33
623.099	22613.33
623.294	22578.51
623.488	22310.23
623.683	22289.75
623.878	21867.87
624.072	22087
624.267	21923.16
624.462	21759.33
624.656	21595.49
624.851	21992.8
625.046	21788
625.24	21593.44
625.435	21329.25
625.629	21474.66
625.824	21319.01
626.018	21011.82
626.213	20665.71
626.407	20659.57
626.602	20798.83
626.796	20651.38
626.991	20829.55
627.185	20446.58
627.38	20309.36
627.574	20288.89
627.768	20145.53
627.963	19821.95
628.157	19803.52
628.352	19975.55
628.546	19664.25
628.74	19946.87
628.935	19670.4
629.129	19688.83
629.323	19348.87
629.517	19246.47
629.712	19389.83
629.906	19295.62
630.1	18855.31
630.294	19176.84
630.489	19000.71
630.683	18816.4
630.877	18425.23
631.071	18687.37
631.265	18546.06
631.459	18541.97
631.653	18232.72
631.848	18234.77
632.042	18400.66
632.236	18187.67
632.43	18075.03
632.624	18019.74
632.818	17903
633.012	17563.04
633.206	17841.56
633.4	17505.7
633.594	17751.45
633.788	17450.4
633.982	17536.42
634.176	17350.05
634.369	16989.61
634.563	17096.1
634.757	16905.64
634.951	17028.52
635.145	16780.71
635.339	16805.29
635.533	16702.89
635.726	16643.5
635.92	16317.87
636.114	16289.2
636.308	16180.66
636.501	16426.42
636.695	16143.8
636.889	15990.2
637.083	15752.63
637.276	15947.19
637.47	15801.79
637.664	15818.17
637.857	15637.95
638.051	15635.9
638.244	15312.32
638.438	15470.01
638.632	15361.47
638.825	15166.92
639.019	14992.84
639.212	15074.76
639.406	14998.98
639.599	15052.23
639.793	14886.34
639.986	14597.58
640.18	14425.55
640.373	14779.85
640.567	14274
640.76	14675.4
640.954	14360.02
641.147	14284.24
641.34	14183.89
641.534	14282.19
641.727	14069.2
641.92	13966.81
642.114	13784.54
642.307	13825.5
642.5	13706.71
642.694	13465.05
642.887	13641.18
643.08	13632.99
643.273	13512.16
643.467	13129.19
643.66	13368.8
643.853	13069.8
644.046	13014.5
644.239	12940.77
644.432	12979.68
644.626	12977.64
644.819	12838.37
645.012	12795.37
645.205	12854.76
645.398	12711.4
645.591	12606.95
645.784	12373.49
645.977	12365.29
646.17	12565.99
646.363	12404.21
646.556	12103.15
646.749	12109.3
646.942	12039.67
647.135	12029.43
647.328	11924.98
647.521	11802.1
647.714	11638.27
647.907	11902.45
648.099	11585.02
648.292	11394.56
648.485	11466.24
648.678	11238.91
648.871	11312.64
649.064	11255.29
649.256	11298.3
649.449	11365.89
649.642	11220.48
649.835	10868.23
650.027	11005.44
650.22	11025.92
650.413	11027.97
650.605	10960.39
650.798	10696.2
650.991	10798.6
651.183	10778.12
651.376	10364.43
651.568	10462.73
651.761	10651.14
651.954	10610.18
652.146	10251.79
652.339	10460.68
652.531	10251.79
652.724	10296.85
652.916	10147.34
653.109	10159.63
653.301	9846.29
653.494	10042.9
653.686	9893.4
653.879	9956.88
654.071	9788.95
654.263	9774.61
654.456	9766.42
654.648	9881.11
654.84	9653.78
655.033	9543.19
655.225	9498.14
655.417	9479.71
655.61	9467.42
655.802	9420.31
655.994	9266.72
656.186	9207.33
656.379	9127.46
656.571	9164.32
656.763	9106.98
656.955	9131.55
657.148	8988.19
657.34	9053.73
657.532	8756.77
657.724	8971.81
657.916	9068.06
658.108	8961.57
658.3	8785.44
658.492	8789.54
658.684	8521.26
658.876	8779.3
659.068	8394.28
659.26	8443.43
659.452	8404.52
659.644	8562.22
659.836	8283.69
660.028	8396.33
660.22	8312.36
660.412	8422.95
660.604	8175.15
660.796	8013.36
660.988	8050.22
661.18	8166.96
661.372	8140.33
661.563	8023.6
661.755	7964.21
661.947	7941.68
662.139	8048.18
662.331	7796.28
662.522	7818.8
662.714	7808.56
662.906	7575.1
663.097	7759.41
663.289	7568.95
663.481	7669.3
663.673	7818.8
663.864	7487.03
664.056	7601.72
664.247	7439.93
664.439	7372.35
664.631	7532.09
664.822	7251.52
665.014	7243.32
665.205	7376.44
665.397	7233.08
665.588	7192.12
665.78	7138.88
665.971	7069.25
666.163	7239.23
666.354	6891.07
666.546	7018.05
666.737	6862.4
666.929	6872.64
667.12	6905.41
667.311	6864.45
667.503	6753.86
667.694	6698.56
667.885	6719.04
668.077	6833.73
668.268	6606.41
668.459	6784.58
668.651	6553.16
668.842	6508.1
669.033	6377.03
669.224	6438.47
669.416	6575.69
669.607	6358.6
669.798	6424.14
669.989	6446.66
670.18	6325.83
670.371	6461
670.563	6372.94
670.754	6288.97
670.945	6178.38
671.136	6225.48
671.327	6170.19
671.518	6020.69
671.709	6125.13
671.9	6139.47
672.091	6090.32
672.282	6098.51
672.473	6104.65
672.664	6227.53
672.855	5979.73
673.046	5987.92
673.237	6016.59
673.428	6069.84
673.619	5955.15
673.809	5908.05
674	5856.85
674.191	5963.34
674.382	5822.03
674.573	5879.38
674.764	5813.84
674.954	5881.42
675.145	5783.12
675.336	5815.89
675.527	5783.12
675.717	5688.92
675.908	5631.57
676.099	5725.78
676.289	5713.49
676.48	5621.33
676.671	5678.68
676.861	5555.8
677.052	5379.67
677.243	5512.79
677.433	5424.73
677.624	5668.44
677.814	5592.66
678.005	5631.57
678.195	5373.53
678.386	5621.33
678.576	5391.96
678.767	5439.06
678.957	5400.15
679.148	5406.3
679.338	5506.65
679.529	5287.51
679.719	5162.59
679.909	5385.82
680.1	5172.83
680.29	5400.15
680.481	5387.86
680.671	5230.17
680.861	5394.01
681.052	5359.19
681.242	5267.03
681.432	5396.06
681.622	5340.76
681.813	5135.96
682.003	5160.54
682.193	5232.22
682.383	5181.02
682.573	5348.95
682.764	5193.31
682.954	5086.81
683.144	5152.35
683.334	5236.31
683.524	5119.58
683.714	5019.23
683.904	5166.68
684.094	5203.55
684.284	5260.89
684.474	5078.62
684.664	5201.5
684.854	5138.01
685.044	5070.43
685.234	4988.51
685.424	4867.68
685.614	4959.84
685.804	4828.77
685.994	4972.13
686.184	4994.65
686.374	5088.86
686.564	4957.79
686.753	5054.05
686.943	4904.54
687.133	4832.86
687.323	4943.46
687.513	4824.67
687.702	4834.91
687.892	4972.13
688.082	4703.84
688.272	4922.98
688.461	4816.48
688.651	4832.86
688.841	4775.52
689.03	4718.18
689.22	4675.17
689.41	4750.95
689.599	4556.39
689.789	4630.12
689.979	4595.3
690.168	4689.51
690.358	4636.26
690.547	4517.48
690.737	4521.57
690.926	4599.4
691.116	4490.85
691.305	4685.41
691.495	4556.39
691.684	4396.65
691.874	4408.94
692.063	4603.49
692.252	4361.83
692.442	4488.81
692.631	4357.74
692.82	4509.29
693.01	4474.47
693.199	4419.18
693.388	4226.67
693.578	4300.39
693.767	4488.81
693.956	4402.79
694.146	4294.25
694.335	4251.24
694.524	4275.82
694.713	4206.19
694.902	4255.34
695.092	4243.05
695.281	4226.67
695.47	4204.14
695.659	4148.84
695.848	4204.14
696.037	4220.52
696.226	4171.37
696.415	4220.52
696.604	4185.71
696.793	4095.6
696.982	4195.95
697.171	4195.95
697.36	4032.11
697.549	3960.43
697.738	4023.92
697.927	3991.15
698.116	3939.95
698.305	3978.86
698.494	3956.33
698.683	4079.21
698.872	3937.9
699.061	3911.28
699.25	3937.9
699.438	3933.81
699.627	3907.18
699.816	4025.97
700.005	3761.78
700.193	3819.12
700.382	3919.47
700.571	3737.2
700.76	3882.61
700.948	3882.61
701.137	3819.12
701.326	3872.37
701.514	3849.84
701.703	3855.98
701.892	3724.91
702.08	3819.12
702.269	3726.96
702.457	3729.01
702.646	3581.56
702.834	3702.39
703.023	3718.77
703.212	3587.7
703.4	3636.85
703.589	3608.18
703.777	3649.14
703.965	3534.45
704.154	3624.56
704.342	3599.99
704.531	3696.24
704.719	3505.78
704.907	3724.91
705.096	3554.93
705.284	3597.94
705.472	3620.47
705.661	3499.64
705.849	3532.4
706.037	3640.95
706.226	3556.98
706.414	3542.64
706.602	3452.53
706.79	3300.98
706.979	3427.96
707.167	3505.78
707.355	3522.16
707.543	3387
707.731	3620.47
707.919	3440.25
708.107	3276.41
708.296	3335.8
708.484	3272.31
708.672	3325.56
708.86	3284.6
709.048	3391.09
709.236	3223.16
709.424	3350.14
709.612	3339.9
709.8	3161.72
709.988	3171.96
710.176	3182.2
710.364	3235.45
710.551	3178.11
710.739	3190.39
710.927	3059.32
711.115	3122.81
711.303	3219.07
711.491	3116.67
711.679	3018.36
711.866	3206.78
712.054	3088
712.242	3063.42
712.43	3071.61
712.617	3006.08
712.805	2981.5
712.993	3026.56
713.181	3100.28
713.368	3044.99
713.556	3014.27
713.744	3004.03
713.931	3180.15
714.119	3067.52
714.306	3069.56
714.494	2952.83
714.682	2848.38
714.869	2866.81
715.057	2854.53
715.244	2877.05
715.432	2915.97
715.619	2934.4
715.807	2918.01
715.994	2899.58
716.182	2875.01
716.369	2903.68
716.556	2856.58
716.744	2717.31
716.931	2793.09
717.119	2938.49
717.306	2780.8
717.493	2819.71
717.681	2817.66
717.868	2780.8
718.055	2715.27
718.242	2752.13
718.43	2788.99
718.617	2854.53
718.804	2688.64
718.991	2657.92
719.179	2801.28
719.366	2647.68
719.553	2727.55
719.74	2731.65
719.927	2727.55
720.114	2641.54
720.301	2539.14
720.488	2555.52
720.676	2621.06
720.863	2621.06
721.05	2578.05
721.237	2690.69
721.424	2610.82
721.611	2637.44
721.798	2623.11
721.985	2434.69
722.172	2535.04
722.358	2612.87
722.545	2485.89
722.732	2590.34
722.919	2707.07
723.106	2469.51
723.293	2379.4
723.48	2438.79
723.667	2403.97
723.853	2479.75
724.04	2528.9
724.227	2530.95
724.414	2418.31
724.6	2449.03
724.787	2442.89
724.974	2453.13
725.161	2414.21
725.347	2326.15
725.534	2344.58
725.72	2363.01
725.907	2346.63
726.094	2360.97
726.28	2420.36
726.467	2311.82
726.653	2485.89
726.84	2383.49
727.027	2420.36
727.213	2352.77
727.4	2399.88
727.586	2285.19
727.773	2340.49
727.959	2322.06
728.145	2360.97
728.332	2178.7
728.518	2289.29
728.705	2170.51
728.891	2158.22
729.077	2326.15
729.264	2190.99
729.45	2256.52
729.636	2344.58
729.823	2219.66
730.009	2301.58
730.195	2145.93
730.382	2178.7
730.568	2238.09
730.754	2262.66
730.94	2035.34
731.126	2248.33
731.313	2180.75
731.499	2227.85
731.685	2193.03
731.871	2182.79
732.057	2180.75
732.243	2107.02
732.429	2100.87
732.615	2123.4
732.801	2107.02
732.987	2082.44
733.173	2025.1
733.359	1994.38
733.545	2092.68
733.731	2008.72
733.917	2113.16
734.103	2039.44
734.289	2260.62
734.475	2059.92
734.661	2016.91
734.847	2068.11
735.033	1975.95
735.219	2047.63
735.404	2027.15
735.59	1937.04
735.776	2029.2
735.962	2047.63
736.148	2023.05
736.333	2023.05
736.519	1957.52
736.705	2012.81
736.89	1998.48
737.076	1949.32
737.262	1978
737.447	1957.52
737.633	1877.65
737.819	1879.69
738.004	1820.3
738.19	1934.99
738.375	1916.56
738.561	1924.75
738.747	1896.08
738.932	1877.65
739.118	1875.6
739.303	1861.26
739.489	1910.41
739.674	1769.1
739.859	1777.3
740.045	1910.41
740.23	1785.49
740.416	1779.34
740.601	1803.92
740.786	1836.69
740.972	1812.11
741.157	1730.19
741.342	1795.73
741.528	1760.91
741.713	1779.34
741.898	1697.42
742.084	1683.09
742.269	1715.86
742.454	1736.34
742.639	1824.4
742.824	1762.96
743.01	1756.82
743.195	1744.53
743.38	1586.83
743.565	1693.33
743.75	1726.1
743.935	1707.66
744.12	1681.04
744.305	1646.23
744.49	1629.84
744.675	1582.74
744.86	1599.12
745.045	1668.75
745.23	1470.1
745.415	1617.55
745.6	1574.55
745.785	1506.96
745.97	1625.75
746.155	1484.44
746.34	1592.98
746.525	1509.01
746.71	1552.02
746.895	1558.16
747.079	1468.05
747.264	1506.96
747.449	1617.55
747.634	1472.15
747.819	1533.59
748.003	1394.33
748.188	1451.67
748.373	1396.37
748.557	1359.51
748.742	1449.62
748.927	1496.72
749.111	1392.28
749.296	1394.33
749.481	1447.57
749.665	1326.74
749.85	1416.85
750.034	1359.51
750.219	1398.42
750.404	1431.19
750.588	1375.89
750.773	1416.85
750.957	1408.66
751.141	1289.88
751.326	1388.18
751.51	1316.5
751.695	1318.55
751.879	1296.02
752.064	1324.69
752.248	1230.49
752.432	1302.17
752.617	1345.17
752.801	1261.21
752.985	1189.53
753.17	1269.4
753.354	1232.54
753.538	1269.4
753.722	1181.34
753.907	1123.99
754.091	1099.42
754.275	1250.97
754.459	1132.19
754.643	1126.04
754.828	1130.14
755.012	1169.05
755.196	1126.04
755.38	1121.95
755.564	1001.12
755.748	994.97
755.932	1072.79
756.116	1107.61
756.3	1093.27
756.484	988.83
756.668	1048.22
756.852	1007.26
757.036	1062.55
757.22	1078.94
757.404	1091.23
757.588	1072.79
757.772	1113.75
757.956	1066.65
758.14	1017.5
758.323	1033.88
758.507	999.07
758.691	962.2
758.875	976.54
759.059	1033.88
759.242	966.3
759.426	954.01
759.61	941.72
759.794	900.76
759.977	958.11
760.161	966.3
760.345	1031.83
760.528	913.05
760.712	835.23
760.895	880.29
761.079	894.62
761.263	870.05
761.446	964.25
761.63	925.34
761.813	896.67
761.997	788.13
762.18	855.71
762.364	937.63
762.547	798.37
762.731	839.33
762.914	898.72
763.098	949.92
763.281	829.09
763.464	904.86
763.648	894.62
763.831	794.27
764.015	784.03
764.198	827.04
764.381	786.08
764.564	868
764.748	796.32
764.931	886.43
765.114	741.02
765.297	876.19
765.481	839.33
765.664	753.31
765.847	773.79
766.03	896.67
766.213	777.89
766.397	833.18
766.58	771.74
766.763	818.85
766.946	814.75
767.129	736.93
767.312	741.02
767.495	810.65
767.678	726.69
767.861	757.41
768.044	790.17
768.227	810.65
768.41	802.46
768.593	769.69
768.776	730.78
768.959	698.02
769.142	859.81
769.324	722.59
769.507	814.75
769.69	646.82
769.873	796.32
770.056	747.17
770.239	712.35
770.421	802.46
770.604	720.54
770.787	720.54
770.97	720.54
771.152	655.01
771.335	700.06
771.518	698.02
771.7	792.22
771.883	771.74
772.066	712.35
772.248	728.74
772.431	757.41
772.613	675.49
772.796	673.44
772.978	751.26
773.161	728.74
773.343	736.93
773.526	618.15
773.708	585.38
773.891	640.67
774.073	730.78
774.256	583.33
774.438	683.68
774.621	624.29
774.803	667.3
774.985	646.82
775.168	589.47
775.35	577.19
775.532	622.24
775.715	622.24
775.897	589.47
776.079	605.86
776.261	560.8
776.444	630.43
776.626	626.34
776.808	593.57
776.99	605.86
777.173	614.05
777.355	597.67
777.537	607.91
777.719	575.14
777.901	632.48
778.083	468.64
778.265	437.92
778.447	536.23
778.629	550.56
778.811	564.9
778.993	515.75
779.175	530.08
779.357	542.37
779.539	460.45
779.721	491.17
779.903	507.55
780.085	482.98
780.267	548.51
780.449	482.98
780.631	495.27
780.812	573.09
780.994	491.17
781.176	409.25
781.358	442.02
781.54	491.17
781.721	437.92
781.903	540.32
782.085	417.44
782.267	462.5
782.448	386.72
782.63	442.02
782.812	476.84
782.993	442.02
783.175	396.96
783.357	364.2
783.538	468.64
783.72	409.25
783.901	306.85
784.083	411.3
784.264	482.98
784.446	417.44
784.627	409.25
784.809	396.96
784.99	399.01
785.172	450.21
785.353	374.44
785.535	390.82
785.716	409.25
785.897	450.21
786.079	378.53
786.26	308.9
786.441	499.36
786.623	261.8
786.804	329.38
786.985	380.58
787.167	353.96
787.348	368.29
787.529	335.53
787.71	390.82
787.891	319.14
788.073	335.53
788.254	247.46
788.435	423.59
788.616	386.72
788.797	347.81
788.978	333.48
789.159	392.87
789.34	335.53
789.522	310.95
789.703	337.57
789.884	396.96
790.065	292.52
790.246	319.14
790.427	308.9
790.607	325.29
790.788	356.01
790.969	310.95
791.15	337.57
791.331	325.29
791.512	337.57
791.693	274.09
791.874	323.24
792.054	409.25
792.235	306.85
792.416	265.89
792.597	212.65
792.778	237.22
792.958	288.42
793.139	263.85
793.32	310.95
793.5	151.21
793.681	394.92
793.862	302.76
794.042	304.81
794.223	267.94
794.404	196.26
794.584	206.5
794.765	282.28
794.945	294.57
795.126	167.59
795.306	360.1
795.487	292.52
795.667	204.46
795.848	196.26
796.028	269.99
796.209	212.65
796.389	267.94
796.57	233.13
796.75	286.37
796.93	194.22
797.111	261.8
797.291	294.57
797.471	216.74
797.652	278.18
797.832	183.98
798.012	278.18
798.192	155.3
798.373	196.26
798.553	171.69
798.733	245.41
798.913	196.26
799.093	218.79
799.274	212.65
799.454	212.65
799.634	251.56
799.814	286.37
799.994	300.71
800.174	269.99
800.354	222.89
800.534	206.5
800.714	167.59
800.894	222.89
801.074	167.59
801.254	155.3
801.434	239.27
801.614	220.84
801.794	118.44
801.974	886.43
802.154	226.98
802.334	243.37
802.514	188.07
802.693	183.98
802.873	186.02
803.053	241.32
803.233	91.82
803.413	204.46
803.592	108.2
803.772	167.59
803.952	163.5
804.131	163.5
804.311	212.65
804.491	200.36
804.67	188.07
804.85	143.02
805.03	147.11
805.209	208.55
805.389	134.82
805.568	200.36
805.748	181.93
805.928	218.79
806.107	179.88
806.287	202.41
806.466	204.46
806.646	97.96
806.825	163.5
807.004	149.16
807.184	163.5
807.363	190.12
807.543	200.36
807.722	138.92
807.901	192.17
808.081	229.03
808.26	114.34
808.439	200.36
808.619	202.41
808.798	106.15
808.977	102.06
809.156	259.75
809.336	220.84
809.515	179.88
809.694	61.1
809.873	206.5
810.052	151.21
810.231	233.13
810.411	165.54
810.59	163.5
810.769	159.4
810.948	126.63
811.127	106.15
811.306	147.11
811.485	157.35
811.664	237.22
811.843	126.63
812.022	147.11
812.201	106.15
812.38	143.02
812.559	140.97
812.737	110.25
812.916	122.54
813.095	75.43
813.274	124.58
813.453	116.39
813.632	155.3
813.811	190.12
813.989	134.82
814.168	196.26
814.347	122.54
814.526	124.58
814.704	149.16
814.883	183.98
815.062	91.82
815.24	134.82
815.419	106.15
815.598	140.97
815.776	87.72
815.955	130.73
816.133	-24.92
816.312	59.05
816.49	106.15
816.669	149.16
816.847	93.87
817.026	149.16
817.204	69.29
817.383	100.01
817.561	114.34
817.74	237.22
817.918	116.39
818.097	114.34
818.275	34.47
818.453	95.91
818.632	151.21
818.81	130.73
818.988	81.58
819.167	67.24
819.345	116.39
819.523	155.3
819.701	108.2
819.879	42.67
820.058	95.91
820.236	181.93
820.414	130.73
820.592	116.39
820.77	102.06
820.948	9.9
821.127	77.48
821.305	130.73
821.483	97.96
821.661	179.88
821.839	147.11
822.017	118.44
822.195	28.33
822.373	114.34
822.551	124.58
822.729	69.29
822.907	106.15
823.085	138.92
823.262	71.34
823.44	89.77
823.618	89.77
823.796	143.02
823.974	7.85
824.152	73.39
824.329	87.72
824.507	75.43
824.685	85.67
824.863	134.82
825.04	106.15
825.218	81.58
825.396	83.63
825.574	138.92
825.751	102.06
825.929	59.05
826.107	102.06
826.284	91.82
826.462	130.73
826.639	13.99
826.817	50.86
826.994	112.3
827.172	59.05
827.349	97.96
827.527	118.44
827.704	138.92
827.882	95.91
828.059	104.11
828.237	48.81
828.414	100.01
828.591	67.24
828.769	50.86
828.946	87.72
829.124	48.81
829.301	100.01
829.478	116.39
829.655	116.39
829.833	67.24
830.01	28.33
830.187	40.62
830.364	50.86
830.542	48.81
830.719	114.34
830.896	85.67
831.073	59.05
831.25	73.39
831.427	138.92
831.604	69.29
831.782	116.39
831.959	69.29
832.136	124.58
832.313	102.06
832.49	73.39
832.667	97.96
832.844	48.81
833.021	71.34
833.198	83.63
833.374	40.62
833.551	-24.92
833.728	16.04
833.905	140.97
834.082	9.9
834.259	46.76
834.436	145.06
834.612	52.91
834.789	159.4
834.966	26.28
835.143	155.3
835.319	16.04
835.496	63.15
835.673	40.62
835.85	73.39
836.026	61.1
836.203	130.73
836.38	7.85
836.556	65.19
836.733	48.81
836.909	116.39
837.086	95.91
837.262	-4.44
837.439	3.75
837.616	89.77
837.792	-8.53
837.968	85.67
838.145	44.71
838.321	91.82
838.498	11.95
838.674	69.29
838.851	11.95
839.027	24.23
839.203	122.54
839.38	48.81
839.556	69.29
839.732	138.92
839.909	18.09
840.085	67.24
840.261	-4.44
840.437	-16.73
840.614	79.53
840.79	59.05
840.966	30.38
841.142	102.06
841.318	59.05
841.494	108.2
841.671	61.1
841.847	-6.49
842.023	75.43
842.199	89.77
842.375	102.06
842.551	67.24
842.727	7.85
842.903	65.19
843.079	9.9
843.255	85.67
843.431	75.43
843.607	102.06
843.783	48.81
843.959	132.78
844.134	24.23
844.31	42.67
844.486	65.19
844.662	63.15
844.838	63.15
845.013	85.67
845.189	122.54
845.365	85.67
845.541	114.34
845.716	-51.54
845.892	75.43
846.068	67.24
846.244	44.71
846.419	61.1
846.595	134.82
846.77	16.04
846.946	89.77
847.122	7.85
847.297	32.43
847.473	65.19
847.648	5.8
847.824	16.04
847.999	-47.44
848.175	81.58
848.35	65.19
848.526	91.82
848.701	73.39
848.876	57
849.052	57
849.227	40.62
849.403	63.15
849.578	52.91
849.753	42.67
849.929	118.44
850.104	44.71
850.279	59.05
850.454	46.76
850.63	42.67
850.805	48.81
850.98	77.48
851.155	-8.53
851.33	-31.06
851.505	-49.49
851.681	73.39
851.856	61.1
852.031	38.57
852.206	11.95
852.381	24.23
852.556	93.87
852.731	32.43
852.906	75.43
853.081	26.28
853.256	-0.34
853.431	3.75
853.606	52.91
853.781	42.67
853.956	-12.63
854.131	20.14
854.305	9.9
854.48	-20.82
854.655	-6.49
854.83	73.39
855.005	61.1
855.18	69.29
855.354	71.34
855.529	30.38
855.704	32.43
855.879	52.91
856.053	20.14
856.228	89.77
856.403	-4.44
856.577	40.62
856.752	9.9
856.926	32.43
857.101	7.85
857.276	57
857.45	42.67
857.625	67.24
857.799	73.39
857.974	50.86
858.148	32.43
858.323	11.95
858.497	32.43
858.672	81.58
858.846	-2.39
859.02	26.28
859.195	-2.39
859.369	63.15
859.543	50.86
859.718	26.28
859.892	5.8
860.066	16.04
860.241	40.62
860.415	65.19
860.589	-16.73
860.763	16.04
860.938	-16.73
861.112	44.71
861.286	32.43
861.46	48.81
861.634	61.1
861.808	110.25
861.982	-6.49
862.157	63.15
862.331	59.05
862.505	26.28
862.679	-8.53
862.853	16.04
863.027	-33.11
863.201	145.06
863.375	-0.34
863.549	36.52
863.722	1.71
863.896	40.62
864.07	22.19
864.244	65.19
864.418	34.47
864.592	42.67
864.766	-18.77
864.939	-47.44
865.113	7.85
865.287	57
865.461	-37.2
865.634	32.43
865.808	126.63
865.982	-16.73
866.156	-20.82
866.329	11.95
866.503	3.75
866.676	-26.96
866.85	-18.77
867.024	26.28
867.197	7.85
867.371	42.67
867.544	-6.49
867.718	18.09
867.891	42.67
868.065	3.75
868.238	28.33
868.412	106.15
868.585	102.06
868.759	-16.73
868.932	24.23
869.105	42.67
869.279	20.14
869.452	-24.92
869.625	13.99
869.799	32.43
869.972	-65.88
870.145	-53.59
870.319	32.43
870.492	-16.73
870.665	1.71
870.838	7.85
871.011	-24.92
871.185	42.67
871.358	9.9
871.531	65.19
871.704	1.71
871.877	-6.49
872.05	9.9
872.223	-59.73
872.396	16.04
872.569	28.33
872.742	-106.84
872.915	57
873.088	-78.16
873.261	16.04
873.434	57
873.607	-29.01
873.78	89.77
873.953	-31.06
874.126	18.09
874.299	50.86
874.471	48.81
874.644	36.52
874.817	48.81
874.99	97.96
875.163	-33.11
875.335	38.57
875.508	28.33
875.681	59.05
875.853	91.82
876.026	16.04
876.199	65.19
876.371	-14.68
876.544	24.23
876.717	7.85
876.889	132.78
877.062	65.19
877.234	-0.34
877.407	-14.68
877.579	16.04
877.752	65.19
877.924	32.43
878.097	11.95
878.269	-6.49
878.442	50.86
878.614	16.04
878.786	16.04
878.959	20.14
879.131	-24.92
879.303	-24.92
879.476	40.62
879.648	-26.96
879.82	-12.63
879.993	-88.4
880.165	-4.44
880.337	-6.49
880.509	61.1
880.681	-31.06
880.854	7.85
881.026	-12.63
881.198	147.11
881.37	11.95
881.542	13.99
881.714	32.43
881.886	-39.25
882.058	-12.63
882.23	24.23
882.402	-4.44
882.574	42.67
882.746	85.67
882.918	89.77
883.09	-14.68
883.262	-31.06
883.434	-24.92
883.606	-22.87
883.778	-33.11
883.95	-33.11
884.122	7.85
884.293	13.99
884.465	16.04
884.637	40.62
884.809	59.05
884.98	48.81
885.152	-55.64
885.324	73.39
885.496	-49.49
885.667	11.95
885.839	16.04
886.011	16.04
886.182	26.28
886.354	32.43
886.525	20.14
886.697	16.04
886.869	-98.64
887.04	16.04
887.212	9.9
887.383	34.47
887.555	-45.4
887.726	42.67
887.897	65.19
888.069	3.75
888.24	38.57
888.412	24.23
888.583	-8.53
888.754	40.62
888.926	-4.44
889.097	-4.44
889.268	-33.11
889.44	28.33
889.611	-20.82
889.782	28.33
889.953	-4.44
890.125	42.67
890.296	32.43
890.467	-29.01
890.638	-35.16
890.809	1.71
890.98	32.43
891.151	-22.87
891.323	44.71
891.494	87.72
891.665	-12.63
891.836	26.28
892.007	-39.25
892.178	67.24
892.349	24.23
892.52	-6.49
892.691	24.23
892.862	7.85
893.032	-12.63
893.203	59.05
893.374	-29.01
893.545	102.06
893.716	-18.77
893.887	44.71
894.057	18.09
894.228	-57.68
894.399	13.99
894.57	81.58
894.74	40.62
894.911	116.39
895.082	-61.78
895.253	24.23
895.423	7.85
895.594	85.67
895.764	-24.92
895.935	11.95
896.106	104.11
896.276	26.28
896.447	36.52
896.617	16.04
896.788	69.29
896.958	3.75
897.129	36.52
897.299	42.67
897.47	20.14
897.64	-0.34
897.81	24.23
897.981	-4.44
898.151	-24.92
898.322	28.33
898.492	79.53
898.662	-6.49
898.832	-67.92
899.003	73.39
899.173	77.48
899.343	61.1
899.513	44.71
