Data from USB4F104151__311__14-35-05-770.txt Node

Date: Thu Mar 13 14:35:05 EDT 2025
User: louis
Spectrometer: USB4F10415
Trigger mode: 4
Integration Time (sec): 2.500000E-2
Scans to average: 1
Electric dark correction enabled: true
Nonlinearity correction enabled: false
Boxcar width: 0
XAxis mode: Wavelengths
Number of Pixels in Spectrum: 3648
>>>>>Begin Spectral Data<<<<<
178.204	-183.46
178.424	-183.46
178.644	-183.46
178.864	-169.13
179.084	-175.27
179.304	64.34
179.524	-117.93
179.744	-36.01
179.964	39.76
180.184	-17.58
180.404	29.52
180.624	-25.77
180.844	33.62
181.064	-23.72
181.283	50
181.503	-9.39
181.723	13.14
181.943	-11.43
182.163	15.19
182.383	-85.16
182.602	13.14
182.822	21.33
183.042	37.72
183.262	9.05
183.482	-3.24
183.701	-11.43
183.921	66.39
184.141	0.85
184.361	78.68
184.58	21.33
184.8	52.05
185.02	-5.29
185.239	86.87
185.459	0.85
185.679	70.48
185.898	-36.01
186.118	78.68
186.338	-23.72
186.557	23.38
186.777	-21.67
186.997	62.29
187.216	25.43
187.436	127.83
187.655	31.57
187.875	37.72
188.095	99.16
188.314	23.38
188.534	86.87
188.753	15.19
188.973	47.96
189.192	45.91
189.412	7
189.631	146.26
189.851	78.68
190.07	103.25
190.29	11.09
190.509	115.54
190.729	-56.49
190.948	103.25
191.168	148.31
191.387	119.64
191.607	29.52
191.826	54.1
192.045	33.62
192.265	64.34
192.484	0.85
192.704	31.57
192.923	-66.73
193.142	111.44
193.362	29.52
193.581	-7.34
193.8	72.53
194.02	23.38
194.239	39.76
194.458	37.72
194.678	-17.58
194.897	17.24
195.116	88.92
195.335	27.48
195.555	54.1
195.774	13.14
195.993	21.33
196.212	45.91
196.432	-23.72
196.651	33.62
196.87	-1.19
197.089	15.19
197.308	17.24
197.528	60.24
197.747	4.95
197.966	-11.43
198.185	115.54
198.404	-23.72
198.623	13.14
198.842	144.21
199.062	54.1
199.281	43.86
199.5	90.96
199.719	39.76
199.938	66.39
200.157	0.85
200.376	37.72
200.595	152.4
200.814	41.81
201.033	-7.34
201.252	103.25
201.471	37.72
201.69	-27.82
201.909	70.48
202.128	-5.29
202.347	39.76
202.566	56.15
202.785	-15.53
203.004	29.52
203.223	86.87
203.442	90.96
203.661	62.29
203.879	115.54
204.098	95.06
204.317	17.24
204.536	62.29
204.755	62.29
204.974	29.52
205.193	62.29
205.411	70.48
205.63	107.35
205.849	31.57
206.068	66.39
206.287	29.52
206.505	45.91
206.724	29.52
206.943	115.54
207.162	45.91
207.381	41.81
207.599	-36.01
207.818	-5.29
208.037	7
208.255	0.85
208.474	78.68
208.693	33.62
208.911	7
209.13	-19.63
209.349	9.05
209.567	9.05
209.786	103.25
210.005	37.72
210.223	-33.96
210.442	17.24
210.661	19.29
210.879	86.87
211.098	70.48
211.316	78.68
211.535	121.68
211.753	107.35
211.972	93.01
212.191	23.38
212.409	66.39
212.628	72.53
212.846	-7.34
213.065	45.91
213.283	76.63
213.502	4.95
213.72	105.3
213.938	-9.39
214.157	45.91
214.375	31.57
214.594	68.44
214.812	95.06
215.031	47.96
215.249	127.83
215.467	62.29
215.686	43.86
215.904	43.86
216.122	72.53
216.341	39.76
216.559	29.52
216.778	105.3
216.996	62.29
217.214	31.57
217.432	9.05
217.651	31.57
217.869	37.72
218.087	64.34
218.306	13.14
218.524	70.48
218.742	52.05
218.96	2.9
219.179	2.9
219.397	37.72
219.615	119.64
219.833	111.44
220.051	78.68
220.27	21.33
220.488	-11.43
220.706	-7.34
220.924	70.48
221.142	29.52
221.36	50
221.578	88.92
221.796	-1.19
222.015	47.96
222.233	62.29
222.451	103.25
222.669	37.72
222.887	37.72
223.105	31.57
223.323	70.48
223.541	15.19
223.759	50
223.977	2.9
224.195	56.15
224.413	107.35
224.631	29.52
224.849	29.52
225.067	58.2
225.285	19.29
225.503	74.58
225.721	-56.49
225.939	43.86
226.157	58.2
226.375	121.68
226.592	17.24
226.81	39.76
227.028	64.34
227.246	50
227.464	13.14
227.682	125.78
227.9	-27.82
228.117	119.64
228.335	27.48
228.553	72.53
228.771	29.52
228.989	15.19
229.206	-36.01
229.424	17.24
229.642	9.05
229.86	-81.07
230.077	86.87
230.295	25.43
230.513	60.24
230.731	113.49
230.948	95.06
231.166	86.87
231.384	86.87
231.601	58.2
231.819	43.86
232.037	-44.2
232.254	-21.67
232.472	97.11
232.689	54.1
232.907	45.91
233.125	62.29
233.342	-19.63
233.56	-40.11
233.777	27.48
233.995	58.2
234.213	29.52
234.43	29.52
234.648	66.39
234.865	66.39
235.083	95.06
235.3	17.24
235.518	54.1
235.735	-17.58
235.953	82.77
236.17	2.9
236.388	47.96
236.605	-27.82
236.822	86.87
237.04	45.91
237.257	-7.34
237.475	-5.29
237.692	56.15
237.909	54.1
238.127	47.96
238.344	54.1
238.562	45.91
238.779	54.1
238.996	7
239.214	64.34
239.431	47.96
239.648	-19.63
239.865	35.67
240.083	43.86
240.3	82.77
240.517	93.01
240.735	80.72
240.952	13.14
241.169	82.77
241.386	15.19
241.603	64.34
241.821	7
242.038	115.54
242.255	84.82
242.472	54.1
242.689	62.29
242.907	56.15
243.124	33.62
243.341	113.49
243.558	58.2
243.775	4.95
243.992	-40.11
244.209	58.2
244.426	111.44
244.643	70.48
244.86	50
245.078	47.96
245.295	78.68
245.512	19.29
245.729	50
245.946	-3.24
246.163	50
246.38	-36.01
246.597	-19.63
246.814	-27.82
247.031	37.72
247.248	93.01
247.464	121.68
247.681	41.81
247.898	4.95
248.115	41.81
248.332	105.3
248.549	97.11
248.766	117.59
248.983	121.68
249.2	29.52
249.417	39.76
249.633	4.95
249.85	37.72
250.067	-3.24
250.284	37.72
250.501	29.52
250.717	84.82
250.934	0.85
251.151	47.96
251.368	29.52
251.585	47.96
251.801	99.16
252.018	-17.58
252.235	103.25
252.451	29.52
252.668	-56.49
252.885	72.53
253.102	60.24
253.318	74.58
253.535	23.38
253.752	21.33
253.968	-11.43
254.185	-3.24
254.401	13.14
254.618	39.76
254.835	45.91
255.051	90.96
255.268	4.95
255.484	33.62
255.701	29.52
255.917	31.57
256.134	29.52
256.351	52.05
256.567	15.19
256.784	45.91
257	-17.58
257.217	86.87
257.433	88.92
257.65	43.86
257.866	56.15
258.082	-56.49
258.299	62.29
258.515	19.29
258.732	47.96
258.948	-9.39
259.165	58.2
259.381	58.2
259.597	-15.53
259.814	23.38
260.03	-11.43
260.246	15.19
260.463	45.91
260.679	13.14
260.895	23.38
261.112	39.76
261.328	-1.19
261.544	11.09
261.761	21.33
261.977	60.24
262.193	4.95
262.409	88.92
262.626	45.91
262.842	62.29
263.058	-23.72
263.274	70.48
263.49	93.01
263.707	86.87
263.923	23.38
264.139	19.29
264.355	19.29
264.571	111.44
264.787	25.43
265.004	39.76
265.22	17.24
265.436	39.76
265.652	15.19
265.868	140.12
266.084	21.33
266.3	86.87
266.516	-19.63
266.732	138.07
266.948	23.38
267.164	56.15
267.38	70.48
267.596	21.33
267.812	80.72
268.028	86.87
268.244	58.2
268.46	39.76
268.676	37.72
268.892	54.1
269.108	-70.83
269.324	-58.54
269.54	-31.91
269.756	78.68
269.972	-52.39
270.188	-3.24
270.403	39.76
270.619	19.29
270.835	13.14
271.051	29.52
271.267	37.72
271.483	23.38
271.698	97.11
271.914	37.72
272.13	56.15
272.346	78.68
272.562	56.15
272.777	105.3
272.993	37.72
273.209	23.38
273.425	21.33
273.64	2.9
273.856	39.76
274.072	21.33
274.287	62.29
274.503	95.06
274.719	66.39
274.934	43.86
275.15	-9.39
275.366	0.85
275.581	41.81
275.797	60.24
276.012	78.68
276.228	70.48
276.444	78.68
276.659	41.81
276.875	62.29
277.09	21.33
277.306	27.48
277.521	29.52
277.737	56.15
277.952	64.34
278.168	-5.29
278.383	23.38
278.599	13.14
278.814	72.53
279.03	17.24
279.245	97.11
279.461	13.14
279.676	70.48
279.892	-1.19
280.107	41.81
280.322	-42.15
280.538	86.87
280.753	9.05
280.969	19.29
281.184	-31.91
281.399	7
281.615	37.72
281.83	62.29
282.045	-1.19
282.26	29.52
282.476	-3.24
282.691	47.96
282.906	9.05
283.122	103.25
283.337	-103.59
283.552	78.68
283.767	4.95
283.983	56.15
284.198	7
284.413	13.14
284.628	-36.01
284.843	70.48
285.058	115.54
285.274	29.52
285.489	56.15
285.704	25.43
285.919	29.52
286.134	47.96
286.349	45.91
286.564	-87.21
286.779	82.77
286.995	-15.53
287.21	-74.92
287.425	56.15
287.64	-11.43
287.855	103.25
288.07	-52.39
288.285	58.2
288.5	41.81
288.715	37.72
288.93	37.72
289.145	39.76
289.36	2.9
289.575	37.72
289.79	-11.43
290.004	125.78
290.219	103.25
290.434	-33.96
290.649	23.38
290.864	62.29
291.079	0.85
291.294	47.96
291.509	29.52
291.724	41.81
291.938	15.19
292.153	33.62
292.368	25.43
292.583	33.62
292.798	37.72
293.012	78.68
293.227	25.43
293.442	58.2
293.657	103.25
293.871	95.06
294.086	76.63
294.301	97.11
294.516	47.96
294.73	136.02
294.945	90.96
295.16	37.72
295.374	27.48
295.589	70.48
295.804	97.11
296.018	136.02
296.233	93.01
296.447	25.43
296.662	31.57
296.877	115.54
297.091	62.29
297.306	99.16
297.52	4.95
297.735	15.19
297.949	39.76
298.164	86.87
298.378	15.19
298.593	-19.63
298.807	86.87
299.022	37.72
299.236	9.05
299.451	31.57
299.665	47.96
299.88	31.57
300.094	31.57
300.309	7
300.523	133.97
300.737	29.52
300.952	37.72
301.166	70.48
301.381	25.43
301.595	45.91
301.809	62.29
302.024	80.72
302.238	-19.63
302.452	97.11
302.667	29.52
302.881	64.34
303.095	72.53
303.309	45.91
303.524	-33.96
303.738	45.91
303.952	41.81
304.166	35.67
304.381	7
304.595	31.57
304.809	0.85
305.023	88.92
305.237	21.33
305.452	54.1
305.666	70.48
305.88	95.06
306.094	33.62
306.308	50
306.522	35.67
306.736	86.87
306.95	109.4
307.164	60.24
307.379	29.52
307.593	80.72
307.807	86.87
308.021	21.33
308.235	15.19
308.449	-1.19
308.663	47.96
308.877	86.87
309.091	-36.01
309.305	4.95
309.519	-17.58
309.733	62.29
309.947	-48.3
310.161	54.1
310.374	86.87
310.588	70.48
310.802	31.57
311.016	43.86
311.23	109.4
311.444	-17.58
311.658	86.87
311.872	56.15
312.085	72.53
312.299	113.49
312.513	121.68
312.727	70.48
312.941	-7.34
313.154	80.72
313.368	107.35
313.582	82.77
313.796	21.33
314.009	-13.48
314.223	80.72
314.437	123.73
314.651	111.44
314.864	29.52
315.078	-25.77
315.292	19.29
315.505	-9.39
315.719	25.43
315.933	-21.67
316.146	4.95
316.36	37.72
316.573	99.16
316.787	39.76
317.001	23.38
317.214	2.9
317.428	103.25
317.641	-23.72
317.855	39.76
318.068	-29.87
318.282	45.91
318.495	107.35
318.709	129.88
318.922	17.24
319.136	86.87
319.349	74.58
319.563	13.14
319.776	105.3
319.99	-1.19
320.203	82.77
320.417	21.33
320.63	47.96
320.843	74.58
321.057	-7.34
321.27	25.43
321.483	146.26
321.697	29.52
321.91	-19.63
322.124	80.72
322.337	13.14
322.55	0.85
322.763	37.72
322.977	47.96
323.19	4.95
323.403	-1.19
323.617	62.29
323.83	144.21
324.043	31.57
324.256	29.52
324.469	-5.29
324.683	90.96
324.896	88.92
325.109	62.29
325.322	-3.24
325.535	45.91
325.748	78.68
325.962	50
326.175	103.25
326.388	62.29
326.601	136.02
326.814	29.52
327.027	72.53
327.24	140.12
327.453	-5.29
327.666	31.57
327.879	93.01
328.092	70.48
328.305	-11.43
328.518	4.95
328.731	45.91
328.944	23.38
329.157	0.85
329.37	74.58
329.583	154.45
329.796	25.43
330.009	-25.77
330.222	23.38
330.435	119.64
330.648	-27.82
330.861	13.14
331.073	25.43
331.286	37.72
331.499	-3.24
331.712	17.24
331.925	93.01
332.138	54.1
332.35	62.29
332.563	50
332.776	117.59
332.989	-3.24
333.202	39.76
333.414	4.95
333.627	66.39
333.84	60.24
334.053	86.87
334.265	7
334.478	43.86
334.691	-9.39
334.903	121.68
335.116	19.29
335.329	23.38
335.541	107.35
335.754	39.76
335.966	-5.29
336.179	52.05
336.392	45.91
336.604	54.1
336.817	23.38
337.029	70.48
337.242	56.15
337.454	103.25
337.667	7
337.88	64.34
338.092	31.57
338.305	43.86
338.517	47.96
338.729	70.48
338.942	70.48
339.154	31.57
339.367	-1.19
339.579	23.38
339.792	-48.3
340.004	90.96
340.217	-3.24
340.429	127.83
340.641	66.39
340.854	27.48
341.066	82.77
341.278	86.87
341.491	136.02
341.703	4.95
341.915	29.52
342.128	-15.53
342.34	86.87
342.552	7
342.764	58.2
342.977	-17.58
343.189	64.34
343.401	66.39
343.613	9.05
343.826	31.57
344.038	37.72
344.25	70.48
344.462	31.57
344.674	103.25
344.886	37.72
345.099	78.68
345.311	37.72
345.523	-27.82
345.735	4.95
345.947	78.68
346.159	-7.34
346.371	29.52
346.583	50
346.795	119.64
347.007	68.44
347.219	103.25
347.431	47.96
347.643	103.25
347.855	56.15
348.067	148.31
348.279	4.95
348.491	52.05
348.703	82.77
348.915	60.24
349.127	62.29
349.339	129.88
349.551	60.24
349.763	103.25
349.975	66.39
350.187	72.53
350.399	78.68
350.61	39.76
350.822	-1.19
351.034	62.29
351.246	70.48
351.458	41.81
351.669	9.05
351.881	101.2
352.093	56.15
352.305	111.44
352.517	31.57
352.728	121.68
352.94	111.44
353.152	111.44
353.363	39.76
353.575	68.44
353.787	88.92
353.999	39.76
354.21	78.68
354.422	84.82
354.633	41.81
354.845	54.1
355.057	90.96
355.268	31.57
355.48	72.53
355.692	66.39
355.903	95.06
356.115	23.38
356.326	-9.39
356.538	121.68
356.749	78.68
356.961	66.39
357.172	-19.63
357.384	-3.24
357.595	111.44
357.807	25.43
358.018	74.58
358.23	62.29
358.441	78.68
358.653	88.92
358.864	23.38
359.075	117.59
359.287	107.35
359.498	99.16
359.709	74.58
359.921	72.53
360.132	93.01
360.344	47.96
360.555	-9.39
360.766	123.73
360.977	-27.82
361.189	105.3
361.4	4.95
361.611	70.48
361.823	95.06
362.034	62.29
362.245	27.48
362.456	15.19
362.667	103.25
362.879	-23.72
363.09	70.48
363.301	111.44
363.512	54.1
363.723	33.62
363.935	78.68
364.146	109.4
364.357	68.44
364.568	64.34
364.779	-19.63
364.99	86.87
365.201	52.05
365.412	144.21
365.623	25.43
365.834	45.91
366.045	76.63
366.256	19.29
366.467	35.67
366.678	37.72
366.889	80.72
367.1	31.57
367.311	160.59
367.522	-19.63
367.733	95.06
367.944	86.87
368.155	99.16
368.366	86.87
368.577	88.92
368.788	95.06
368.999	9.05
369.209	115.54
369.42	140.12
369.631	119.64
369.842	90.96
370.053	80.72
370.264	113.49
370.474	58.2
370.685	45.91
370.896	99.16
371.107	107.35
371.317	95.06
371.528	56.15
371.739	80.72
371.95	80.72
372.16	86.87
372.371	-17.58
372.582	47.96
372.792	45.91
373.003	21.33
373.214	4.95
373.424	78.68
373.635	4.95
373.846	78.68
374.056	64.34
374.267	70.48
374.477	-15.53
374.688	15.19
374.898	52.05
375.109	111.44
375.319	86.87
375.53	146.26
375.74	70.48
375.951	-3.24
376.161	78.68
376.372	78.68
376.582	4.95
376.793	45.91
377.003	105.3
377.214	56.15
377.424	45.91
377.635	21.33
377.845	-27.82
378.055	103.25
378.266	-81.07
378.476	95.06
378.686	66.39
378.897	119.64
379.107	148.31
379.317	-11.43
379.528	58.2
379.738	103.25
379.948	-11.43
380.158	95.06
380.369	-19.63
380.579	88.92
380.789	62.29
380.999	133.97
381.21	86.87
381.42	119.64
381.63	90.96
381.84	58.2
382.05	37.72
382.261	15.19
382.471	72.53
382.681	111.44
382.891	99.16
383.101	82.77
383.311	37.72
383.521	54.1
383.731	125.78
383.941	129.88
384.151	58.2
384.361	62.29
384.571	164.69
384.781	86.87
384.991	119.64
385.201	209.75
385.411	62.29
385.621	54.1
385.831	13.14
386.041	64.34
386.251	105.3
386.461	111.44
386.671	86.87
386.881	80.72
387.091	21.33
387.301	45.91
387.511	56.15
387.72	27.48
387.93	133.97
388.14	78.68
388.35	54.1
388.56	99.16
388.769	74.58
388.979	43.86
389.189	25.43
389.399	41.81
389.609	72.53
389.818	152.4
390.028	103.25
390.238	37.72
390.447	86.87
390.657	17.24
390.867	19.29
391.076	64.34
391.286	142.16
391.496	111.44
391.705	119.64
391.915	148.31
392.125	103.25
392.334	64.34
392.544	109.4
392.753	45.91
392.963	-11.43
393.172	101.2
393.382	37.72
393.591	97.11
393.801	86.87
394.01	111.44
394.22	21.33
394.429	41.81
394.639	111.44
394.848	95.06
395.058	86.87
395.267	107.35
395.477	119.64
395.686	97.11
395.895	181.07
396.105	168.79
396.314	123.73
396.524	54.1
396.733	29.52
396.942	152.4
397.152	31.57
397.361	121.68
397.57	179.03
397.78	176.98
397.989	176.98
398.198	138.07
398.407	62.29
398.617	76.63
398.826	150.36
399.035	140.12
399.244	168.79
399.453	113.49
399.663	144.21
399.872	136.02
400.081	185.17
400.29	201.55
400.499	90.96
400.708	162.64
400.917	152.4
401.127	121.68
401.336	152.4
401.545	207.7
401.754	172.88
401.963	185.17
402.172	148.31
402.381	156.5
402.59	158.55
402.799	252.75
403.008	248.66
403.217	189.27
403.426	193.36
403.635	99.16
403.844	201.55
404.053	168.79
404.262	144.21
404.471	242.51
404.68	187.22
404.888	136.02
405.097	133.97
405.306	242.51
405.515	162.64
405.724	271.19
405.933	217.94
406.142	250.71
406.35	236.37
406.559	250.71
406.768	205.65
406.977	291.66
407.185	281.43
407.394	299.86
407.603	195.41
407.812	258.9
408.02	250.71
408.229	275.28
408.438	357.2
408.646	254.8
408.855	322.38
409.064	414.54
409.272	332.62
409.481	439.12
409.69	351.06
409.898	375.63
410.107	437.07
410.315	432.97
410.524	375.63
410.733	392.02
410.941	447.31
411.15	471.89
411.358	414.54
411.567	541.52
411.775	463.69
411.984	654.16
412.192	602.96
412.401	500.56
412.609	660.3
412.818	648.01
413.026	621.39
413.234	746.31
413.443	686.92
413.651	697.16
413.86	680.78
414.068	799.56
414.276	856.9
414.485	809.8
414.693	906.06
414.901	897.86
415.11	885.58
415.318	881.48
415.526	916.3
415.734	1028.93
415.943	981.83
416.151	1033.03
416.359	1030.98
416.567	1020.74
416.776	1131.33
416.984	1166.15
417.192	1207.11
417.4	1157.96
417.608	1301.31
417.817	1391.42
418.025	1362.75
418.233	1397.57
418.441	1454.91
418.649	1465.15
418.857	1524.54
419.065	1626.94
419.273	1622.84
419.481	1717.05
419.689	1936.18
419.897	1880.89
420.105	1835.83
420.313	1977.14
420.521	1997.62
420.729	2116.41
420.937	2224.95
421.145	2276.15
421.353	2333.49
421.561	2536.24
421.769	2497.33
421.977	2552.62
422.185	2501.42
422.393	2743.08
422.601	2927.4
422.809	2935.59
423.017	2931.5
423.224	2945.83
423.432	3224.36
423.64	3023.66
423.848	3554.08
424.056	3273.51
424.263	3568.41
424.471	3670.81
424.679	3539.74
424.887	3924.76
425.094	4043.54
425.302	3963.67
425.51	4174.61
425.718	4258.58
425.925	4387.6
426.133	4406.03
426.341	4768.52
426.548	4975.37
426.756	4985.61
426.964	5143.3
427.171	5360.39
427.379	5475.07
427.586	5548.8
427.794	5618.43
428.001	5815.04
428.209	6265.59
428.417	5985.02
428.624	6685.42
428.832	6468.34
429.039	6599.41
429.247	6654.7
429.454	6963.95
429.662	7656.16
429.869	7074.54
430.076	7799.52
430.284	7486.18
430.491	7623.39
430.699	8237.78
430.906	8319.7
431.114	8155.86
431.321	8635.09
431.528	8766.16
431.736	9331.4
431.943	9581.25
432.15	9437.89
432.358	9431.75
432.565	10189.5
432.772	10138.3
432.979	10476.21
433.187	10652.34
433.394	10760.88
433.601	11414.18
433.808	11322.02
434.016	11446.95
434.223	11727.52
434.43	12434.07
434.637	12276.38
434.844	13111.95
435.052	13114
435.259	13300.36
435.466	13513.35
435.673	13310.6
435.88	13927.04
436.087	14842.48
436.294	14836.34
436.501	14711.41
436.708	14848.63
436.915	15252.08
437.122	15911.52
437.329	16036.45
437.537	16085.6
437.743	16591.45
437.95	16312.92
438.157	17300.05
438.364	17721.93
438.571	17738.31
438.778	17842.76
438.985	19677.74
439.192	18786.87
439.399	19188.27
439.606	19180.08
439.813	20111.91
440.02	21158.42
440.227	21107.22
440.433	20546.08
440.64	21287.44
440.847	21279.25
441.054	21686.79
441.261	23570.93
441.467	22850.04
441.674	23187.96
441.881	24322.53
442.088	24158.69
442.294	24101.35
442.501	24474.08
442.708	24850.91
442.914	26124.74
443.121	26872.25
443.328	26276.29
443.534	28146.09
443.741	27048.38
443.948	26896.83
444.154	29057.43
444.361	28617.12
444.568	29260.18
444.774	28783.01
444.981	29188.5
445.187	29847.95
445.394	31330.68
445.6	30884.22
445.807	34228.56
446.013	32463.21
446.22	33091.93
446.426	34380.1
446.633	34842.95
446.839	35842.35
447.046	34087.25
447.252	36022.58
447.459	36327.72
447.665	36051.25
447.871	37642.52
448.078	39295.23
448.284	37208.35
448.491	38461.71
448.697	39475.45
448.903	40499.44
449.11	40417.52
449.316	39831.8
449.522	40540.39
449.728	41423.07
449.935	42363.09
450.141	42213.59
450.347	42909.89
450.553	41687.26
450.76	42272.98
450.966	43550.91
451.172	43264.19
451.378	44169.4
451.584	43268.29
451.791	44454.06
451.997	44384.43
452.203	45082.79
452.409	45195.43
452.615	44642.48
452.821	43032.77
453.027	42813.64
453.233	44431.54
453.44	43002.05
453.646	43471.04
453.852	43671.74
454.058	44714.16
454.264	43442.37
454.47	43903.16
454.676	42784.97
454.882	44263.6
455.088	40618.22
455.294	41171.17
455.5	41754.84
455.705	41920.73
455.911	40716.52
456.117	39891.19
456.323	39461.12
456.529	37095.71
456.735	38975.75
456.941	37538.07
457.147	36946.21
457.352	35860.79
457.558	35365.18
457.764	35658.04
457.97	35176.76
458.176	34103.63
458.381	34513.22
458.587	32432.49
458.793	32502.12
458.999	30910.85
459.204	33302.87
459.41	32522.6
459.616	29940.11
459.821	30122.38
460.027	29991.31
460.233	29100.44
460.438	27775.41
460.644	28369.32
460.85	26819
461.055	26575.3
461.261	26499.52
461.466	24426.98
461.672	23601.65
461.878	25190.87
462.083	23501.29
462.289	23034.36
462.494	23130.61
462.7	22401.54
462.905	21725.71
463.111	22133.25
463.316	22118.92
463.522	21723.66
463.727	21615.12
463.932	21529.1
464.138	21426.7
464.343	21492.24
464.549	20896.28
464.754	21668.36
464.959	21447.18
465.165	21146.13
465.37	20122.15
465.575	19976.74
465.781	20423.2
465.986	20740.63
466.191	19796.52
466.397	19345.97
466.602	18516.54
466.807	19198.51
467.012	19163.7
467.218	18940.47
467.423	18879.03
467.628	18971.19
467.833	19450.41
468.038	19069.49
468.244	18272.83
468.449	19063.35
468.654	18508.35
468.859	18137.66
469.064	18176.58
469.269	17601.1
469.474	17789.51
469.679	18098.75
469.885	17588.81
470.09	17623.62
470.295	17384.01
470.5	17300.05
470.705	17281.61
470.91	16607.83
471.115	16681.56
471.32	17105.49
471.525	16880.21
471.73	16458.33
471.935	16474.71
472.139	15798.88
472.344	15968.87
472.549	15579.75
472.754	16079.46
472.959	15661.67
473.164	14912.11
473.369	14998.13
473.574	15110.77
473.778	15139.44
473.983	15016.56
474.188	14908.02
474.393	14213.76
474.598	14465.66
474.802	14303.87
475.007	14377.59
475.212	14322.3
475.417	13744.77
475.621	13648.52
475.826	13888.13
476.031	13652.61
476.235	13013.65
476.44	13464.2
476.645	13148.81
476.849	13048.46
477.054	12917.39
477.259	12858
477.463	12858
477.668	12483.22
477.872	12579.48
478.077	12104.35
478.282	11924.13
478.486	12237.47
478.691	11735.71
478.895	11997.85
479.1	11930.27
479.304	12018.33
479.509	11500.2
479.713	11780.77
479.918	11324.07
480.122	11346.6
480.326	11389.61
480.531	11457.19
480.735	10975.92
480.94	11090.6
481.144	11502.25
481.348	11205.29
481.553	11195.05
481.757	10889.9
481.961	11018.93
482.166	11328.17
482.37	10984.11
482.574	11002.54
482.778	11047.6
482.983	11272.87
483.187	10924.72
483.391	11098.8
483.595	10900.14
483.8	10558.13
484.004	10918.57
484.208	11008.69
484.412	10965.68
484.616	10953.39
484.821	10920.62
485.025	10625.72
485.229	11117.23
485.433	10902.19
485.637	10982.06
485.841	11014.83
486.045	10719.92
486.249	10734.26
486.453	10777.26
486.657	10777.26
486.861	10949.29
487.065	10728.11
487.269	10812.08
487.473	10740.4
487.677	10838.7
487.881	10975.92
488.085	10785.46
488.289	10945.2
488.493	10734.26
488.697	11025.07
488.901	10842.8
489.105	10775.22
489.309	10846.9
489.512	11035.31
489.716	11008.69
489.92	10908.33
490.124	10859.18
490.328	10982.06
490.531	10859.18
490.735	11236.01
490.939	11229.87
491.143	10955.44
491.346	10853.04
491.55	11258.54
491.754	11182.76
491.958	11256.49
492.161	11063.98
492.365	11424.42
492.569	11158.19
492.772	11303.59
492.976	11391.66
493.18	11502.25
493.383	11498.15
493.587	11588.26
493.79	11606.69
493.994	11774.63
494.197	11768.48
494.401	11764.39
494.605	11807.39
494.808	11932.32
495.012	12006.05
495.215	11967.13
495.419	12210.84
495.622	12073.63
495.825	12171.93
496.029	12450.46
496.232	12485.27
496.436	12528.28
496.639	12911.25
496.843	12835.47
497.046	12905.1
497.249	13165.2
497.453	12972.69
497.656	13169.29
497.859	13003.41
498.063	13349.51
498.266	13673.09
498.469	13810.31
498.673	13652.61
498.876	13886.08
499.079	14017.15
499.282	14115.45
499.485	14332.54
499.689	14299.77
499.892	14631.54
500.095	14611.06
500.298	14924.4
500.501	14598.77
500.705	15096.43
500.908	15164.01
501.111	15536.74
501.314	15604.33
501.517	15708.77
501.72	16159.33
501.923	15860.32
502.126	16333.4
502.329	16351.84
502.532	16304.73
502.735	16413.27
502.938	17076.82
503.141	16906.84
503.344	17205.84
503.547	17015.38
503.75	17613.38
503.953	17597
504.156	18119.23
504.359	18207.3
504.562	17775.17
504.765	18408
504.968	18625.08
505.17	18743.86
505.373	18864.69
505.576	19239.47
505.779	19239.47
505.982	19524.14
506.185	19702.31
506.387	19911.21
506.59	19995.17
506.793	20212.26
506.996	20398.62
507.198	20824.6
507.401	20924.95
507.604	21047.83
507.807	21293.58
508.009	21686.79
508.212	21381.65
508.415	21920.26
508.617	22385.15
508.82	22413.82
509.022	22112.77
509.225	22700.54
509.428	22907.38
509.63	23040.5
509.833	23241.2
510.035	23771.63
510.238	23507.44
510.44	24033.77
510.643	24207.84
510.845	24281.57
511.048	24302.05
511.25	24762.84
511.453	25063.89
511.655	25698.77
511.858	25323.99
512.06	25502.16
512.262	25649.61
512.465	25967.05
512.667	26302.92
512.87	26743.23
513.072	26755.52
513.274	27339.19
513.477	27349.43
513.679	27871.66
513.881	28305.83
514.084	28162.47
514.286	28287.4
514.488	28510.63
514.69	29151.64
514.893	29266.33
515.095	29268.37
515.297	29661.58
515.499	29862.29
515.701	29886.86
515.904	30351.75
516.106	30759.3
516.308	30968.19
516.51	30843.26
516.712	31302.01
516.914	31648.11
517.116	31951.21
517.318	32162.15
517.52	31926.64
517.722	32371.05
517.925	32622.95
518.127	32909.66
518.329	33524.05
518.531	32817.5
518.733	33495.38
518.935	33728.85
519.136	33734.99
519.338	34271.56
519.54	34333
519.742	34513.22
519.944	34384.2
520.146	35340.6
520.348	35223.87
520.55	35170.62
520.752	35733.81
520.954	36135.21
521.155	35664.18
521.357	36161.84
521.559	36661.54
521.761	36768.04
521.963	36935.97
522.164	36847.91
522.366	37056.8
522.568	37267.74
522.77	37521.69
522.971	38066.45
523.173	37867.8
523.375	38101.26
523.576	37953.81
523.778	38154.51
523.98	38668.55
524.181	38779.14
524.383	38666.5
524.584	39246.08
524.786	39151.87
524.988	38715.65
525.189	39420.16
525.391	39491.83
525.592	39602.43
525.794	39751.93
525.995	39479.55
526.197	39627
526.398	39540.99
526.6	40026.35
526.801	39944.44
527.003	39895.28
527.204	39928.05
527.406	40257.78
527.607	40169.71
527.808	40438
528.01	39962.87
528.211	40485.1
528.412	40847.59
528.614	40640.75
528.815	40603.88
529.016	40939.75
529.218	40501.48
529.419	40591.59
529.62	40880.36
529.822	40452.33
530.023	40442.09
530.224	40851.69
530.425	40683.75
530.626	40257.78
530.828	40036.59
531.029	41197.79
531.23	40589.55
531.431	40429.8
531.632	40376.56
531.833	40673.51
532.035	40513.77
532.236	40601.83
532.437	40245.49
532.638	40280.3
532.839	40515.82
533.04	40382.7
533.241	40093.94
533.442	40755.43
533.643	40693.99
533.844	40110.32
534.045	39907.57
534.246	39590.14
534.447	40429.8
534.648	40143.09
534.849	40077.55
535.05	40153.33
535.251	39807.22
535.451	39414.01
535.652	39657.72
535.853	39649.53
536.054	39860.47
536.255	39901.43
536.456	39385.34
536.657	39995.64
536.857	39512.31
537.058	39395.58
537.259	40022.26
537.46	39514.36
537.66	39770.36
537.861	39731.45
538.062	39620.86
538.263	39770.36
538.463	39344.38
538.664	39401.72
538.865	39504.12
539.065	39555.32
539.266	38990.08
539.466	39418.11
539.667	39061.76
539.868	39469.31
540.068	38953.22
540.269	38686.98
540.469	39414.01
540.67	38578.44
540.87	39233.79
541.071	38975.75
541.271	39459.07
541.472	38856.96
541.672	38779.14
541.873	38846.72
542.073	38269.2
542.274	39250.17
542.474	38773
542.675	38799.62
542.875	38994.18
543.075	39051.52
543.276	38244.62
543.476	39004.42
543.676	38471.95
543.877	38822.15
544.077	38779.14
544.277	38785.29
544.478	38334.73
544.678	38832.39
544.878	38668.55
545.078	38707.46
545.279	38209.81
545.479	38514.95
545.679	38549.77
545.879	38742.28
546.079	38418.7
546.28	38400.27
546.48	38045.97
546.68	38611.21
546.88	38500.62
547.08	38672.65
547.28	38357.26
547.48	38158.61
547.68	38646.02
547.88	38248.72
548.081	38385.93
548.281	38582.54
548.481	38349.07
548.681	38557.96
548.881	38336.78
549.081	38572.3
549.28	38318.35
549.48	38521.1
549.68	38457.61
549.88	39121.15
550.08	38324.49
550.28	38643.98
550.48	38228.24
550.68	38824.2
550.88	38387.98
551.08	38455.56
551.279	38381.84
551.479	38160.66
551.679	38461.71
551.879	38357.26
552.079	38643.98
552.278	38543.63
552.478	38697.22
552.678	38455.56
552.878	38666.5
553.077	38873.35
553.277	38230.29
553.477	38797.57
553.676	38580.49
553.876	38625.54
554.076	38349.07
554.275	38859.01
554.475	38136.08
554.674	38519.05
554.874	38742.28
555.074	38465.8
555.273	38928.64
555.473	38717.7
555.672	38553.87
555.872	38922.5
556.071	38613.26
556.271	39266.56
556.47	38641.93
556.67	38377.74
556.869	38629.64
557.068	39088.38
557.268	39039.23
557.467	39008.51
557.667	38619.4
557.866	38781.19
558.065	38660.36
558.265	38795.53
558.464	38453.51
558.663	38926.6
558.863	38336.78
559.062	39176.45
559.261	38367.5
559.461	39330.05
559.66	38306.06
559.859	38740.23
560.058	38517
560.258	38615.3
560.457	38578.44
560.656	38879.49
560.855	38592.78
561.054	39051.52
561.253	38537.48
561.453	38742.28
561.652	38570.25
561.851	38625.54
562.05	38773
562.249	38594.82
562.448	38942.98
562.647	38680.84
562.846	38127.89
563.045	38603.02
563.244	38119.7
563.443	38951.17
563.642	38172.94
563.841	38265.1
564.04	38508.81
564.239	38674.7
564.438	38119.7
564.637	38525.19
564.836	38377.74
565.035	38265.1
565.234	38363.4
565.432	38123.79
565.631	38291.73
565.83	38215.95
566.029	38117.65
566.228	37947.67
566.427	37875.99
566.625	37548.31
566.824	37296.41
567.023	37927.19
567.222	37196.06
567.42	38129.94
567.619	37482.78
567.818	37409.05
568.016	37579.03
568.215	37544.22
568.414	37247.26
568.612	37781.78
568.811	37312.8
569.01	37388.57
569.208	36809
569.407	37415.19
569.605	36960.55
569.804	37241.12
570.002	36772.13
570.201	37028.13
570.4	36647.21
570.598	36208.94
570.797	36682.02
570.995	36565.29
571.193	35866.93
571.392	36364.59
571.59	35946.8
571.789	36159.79
571.987	36389.16
572.186	35809.59
572.384	36024.62
572.582	36010.29
572.781	36077.87
572.979	35346.75
573.177	35989.81
573.376	35475.77
573.574	35635.51
573.772	35696.95
573.971	35277.12
574.169	34898.24
574.367	34875.71
574.565	35258.68
574.763	34865.47
574.962	34742.6
575.16	34726.21
575.358	34875.71
575.556	34625.86
575.754	35217.72
575.952	34070.86
576.151	35062.08
576.349	34027.85
576.547	34316.62
576.745	34189.64
576.943	34408.78
577.141	34138.44
577.339	34005.33
577.537	33843.54
577.735	33644.88
577.933	33655.12
578.131	33407.32
578.329	33710.42
578.527	33055.07
578.725	33288.54
578.923	33450.33
579.121	33255.77
579.319	33579.35
579.516	33274.2
579.714	33055.07
579.912	33065.31
580.11	32731.49
580.308	32538.98
580.506	32538.98
580.704	32127.34
580.901	32403.81
581.099	32510.31
581.297	32256.36
581.495	32108.91
581.692	32479.59
581.89	31711.6
582.088	32133.48
582.285	31789.42
582.483	32229.74
582.681	31797.62
582.878	31748.46
583.076	31349.11
583.274	31818.1
583.471	31400.31
583.669	31289.72
583.866	31281.53
584.064	31316.34
584.262	30783.87
584.459	31330.68
584.657	31039.87
584.854	31363.45
585.052	30626.18
585.249	30808.45
585.447	30966.14
585.644	30564.74
585.841	30970.24
586.039	30835.07
586.236	30343.56
586.434	30243.21
586.631	30263.69
586.828	30103.95
587.026	30296.46
587.223	30312.84
587.42	29688.21
587.618	30196.1
587.815	29956.49
588.012	29962.64
588.21	29774.22
588.407	29860.24
588.604	29491.6
588.801	29577.62
588.999	29968.78
589.196	29229.46
589.393	29774.22
589.59	29157.78
589.787	29407.64
589.984	29041.05
590.182	28981.66
590.379	29069.72
590.576	28940.7
590.773	28789.15
590.97	28877.21
591.167	29229.46
591.364	28742.05
591.561	28901.79
591.758	28432.8
591.955	28615.07
592.152	28873.12
592.349	28342.69
592.546	28572.07
592.743	28705.18
592.94	28166.57
593.137	28234.15
593.334	28250.53
593.531	28000.68
593.727	28408.23
593.924	28131.75
594.121	27888.04
594.318	28107.18
594.515	27886
594.712	27949.48
594.908	28207.53
595.105	27834.8
595.302	27916.72
595.499	28148.14
595.696	27703.73
595.892	27775.41
596.089	28000.68
596.286	27908.52
596.482	27687.34
596.679	27812.27
596.876	27863.47
597.072	27234.74
597.269	27560.37
597.466	27355.57
597.662	27287.99
597.859	27675.06
598.055	27500.98
598.252	27619.76
598.448	27517.36
598.645	27560.37
598.841	27199.93
599.038	27300.28
599.234	27261.37
599.431	27013.56
599.627	27259.32
599.824	27711.92
600.02	27189.69
600.217	27259.32
600.413	27187.64
600.609	26923.45
600.806	27050.42
601.002	26831.29
601.198	26868.16
601.395	26816.96
601.591	26900.92
601.787	27171.25
601.984	26941.88
602.18	27292.08
602.376	27072.95
602.572	27228.6
602.769	27115.96
602.965	26642.88
603.161	27150.78
603.357	26929.59
603.553	26714.56
603.75	27167.16
603.946	26911.16
604.142	27404.72
604.338	26866.11
604.534	27163.06
604.73	26788.28
604.926	27120.06
605.122	27271.61
605.318	26986.94
605.514	26950.07
605.71	27152.82
605.906	26941.88
606.102	27146.68
606.298	26862.01
606.494	26931.64
606.69	26872.25
606.886	27517.36
607.082	26788.28
607.278	27222.45
607.474	26872.25
607.67	27292.08
607.866	26945.98
608.062	27509.17
608.257	27158.97
608.453	27206.07
608.649	27267.51
608.845	27326.9
609.041	27214.26
609.236	27263.41
609.432	27396.53
609.628	27343.28
609.824	27361.72
610.019	27173.3
610.215	27599.28
610.411	27529.65
610.606	27220.41
610.802	27460.02
610.998	27376.05
611.193	27490.74
611.389	27226.55
611.584	27554.22
611.78	27439.54
611.976	27322.8
612.171	27779.5
612.367	27433.39
612.562	27363.76
612.758	26800.57
612.953	27275.7
613.149	27494.83
613.344	27023.8
613.539	27826.6
613.735	27206.07
613.93	27826.6
614.126	27785.65
614.321	27748.78
614.517	27814.32
614.712	27634.1
614.907	26823.1
615.103	27625.9
615.298	27509.17
615.493	27822.51
615.688	27130.3
615.884	28105.13
616.079	27308.47
616.274	27634.1
616.47	27292.08
616.665	27732.4
616.86	27470.26
617.055	27408.82
617.25	27120.06
617.445	27425.2
617.641	26747.33
617.836	27273.65
618.031	27367.86
618.226	27541.94
618.421	27023.8
618.616	27478.45
618.811	26958.27
619.006	27251.13
619.201	26737.09
619.396	26872.25
619.591	26489.28
619.786	27066.81
619.981	26438.08
620.176	26890.68
620.371	26296.77
620.566	26274.24
620.761	26192.33
620.956	26864.06
621.151	26012.1
621.346	26223.05
621.541	25874.89
621.735	25846.22
621.93	25567.7
622.125	25934.28
622.32	25244.12
622.515	25700.81
622.709	25033.18
622.904	25328.08
623.099	25182.68
623.294	25235.92
623.488	24928.73
623.683	25094.61
623.878	24672.73
624.072	24850.91
624.267	24539.61
624.462	24472.03
624.656	24058.34
624.851	24386.02
625.046	24318.43
625.24	24076.77
625.435	23687.66
625.629	23695.85
625.824	23730.67
626.018	23695.85
626.213	23425.52
626.407	23353.84
626.602	23368.18
626.796	23306.74
626.991	23206.39
627.185	23194.1
627.38	22563.33
627.574	22761.98
627.768	22690.3
627.963	22585.85
628.157	22280.71
628.352	22505.98
628.546	21869.06
628.74	22307.33
628.935	22032.9
629.129	21844.49
629.323	21703.18
629.517	21705.23
629.712	21729.8
629.906	21705.23
630.1	21148.18
630.294	21443.09
630.489	20972.05
630.683	21146.13
630.877	20949.53
631.071	21015.06
631.265	21000.72
631.459	20740.63
631.653	20546.08
631.848	20654.62
632.042	20181.54
632.236	20328.99
632.43	20056.61
632.624	20415.01
632.818	19837.48
633.012	19870.25
633.206	20048.42
633.4	19747.37
633.594	19253.81
633.788	19726.89
633.982	19499.56
634.176	19302.96
634.369	19085.87
634.563	19173.94
634.757	18944.56
634.951	19001.91
635.145	19010.1
635.339	18809.4
635.533	18606.65
635.726	18924.08
635.92	18424.38
636.114	18526.78
636.308	18188.86
636.501	17969.73
636.695	18242.11
636.889	18180.67
637.083	17988.16
637.276	17678.92
637.47	17601.1
637.664	17621.58
637.857	17580.62
638.051	17601.1
638.244	17295.95
638.438	17062.48
638.632	17128.02
638.825	17261.13
639.019	16990.8
639.212	16765.53
639.406	16532.06
639.599	16448.09
639.793	16798.29
639.986	16366.17
640.18	16274.01
640.373	16231.01
640.567	15972.96
640.76	16247.39
640.954	15936.1
641.147	15878.76
641.34	15848.04
641.534	15798.88
641.727	15702.63
641.92	15622.76
642.114	15428.2
642.307	15356.52
642.5	15198.83
642.694	15311.47
642.887	15284.84
643.08	15260.27
643.273	14727.8
643.467	14977.65
643.66	14791.28
643.853	14373.5
644.046	14496.38
644.239	14588.53
644.432	14400.12
644.626	14488.18
644.819	14267
645.012	14332.54
645.205	14260.86
645.398	13984.38
645.591	13855.36
645.784	13877.89
645.977	13738.63
646.17	13644.42
646.363	13640.33
646.556	13466.25
646.749	13476.49
646.942	13484.68
647.135	13318.79
647.328	13152.91
647.521	13142.67
647.714	12991.12
647.907	13300.36
648.099	12980.88
648.292	12847.76
648.485	13083.28
648.678	12669.59
648.871	12776.08
649.064	12749.46
649.256	12472.98
649.449	12765.84
649.642	12501.65
649.835	12159.64
650.027	12378.78
650.22	12323.48
650.413	12008.09
650.605	12014.24
650.798	12055.2
650.991	11846.3
651.183	11707.04
651.376	11575.97
651.568	11907.74
651.761	11819.68
651.954	11784.87
652.146	11383.46
652.339	11520.68
652.531	11596.45
652.724	11526.82
652.916	11326.12
653.109	11244.2
653.301	11170.47
653.494	11137.71
653.686	10859.18
653.879	11045.55
654.071	11023.02
654.263	10853.04
654.456	10787.5
654.648	10812.08
654.84	10590.9
655.033	10730.16
655.225	10551.99
655.417	10539.7
655.61	10551.99
655.802	10592.95
655.994	10398.39
656.186	10427.06
656.379	10392.25
656.571	10099.39
656.763	10193.59
656.955	10058.43
657.148	9900.73
657.34	10080.96
657.532	9949.89
657.724	9816.77
657.916	9943.74
658.108	9831.1
658.3	9790.14
658.492	9667.27
658.684	9485
658.876	9458.37
659.068	9638.59
659.26	9405.13
659.452	9405.13
659.644	9417.41
659.836	9300.68
660.028	9398.98
660.22	9251.53
660.412	9278.15
660.604	8889.04
660.796	9065.16
660.988	8903.37
661.18	8936.14
661.372	9032.4
661.563	8862.41
661.755	8618.71
661.947	8698.58
662.139	8659.67
662.331	8628.95
662.522	8493.78
662.714	8608.47
662.906	8565.46
663.097	8594.13
663.289	8366.81
663.481	8362.71
663.673	8540.88
663.864	8237.78
664.056	8082.14
664.247	8053.47
664.439	8139.48
664.631	8143.58
664.822	8282.84
665.014	8018.65
665.205	7856.86
665.397	7873.25
665.588	8071.9
665.78	7942.88
665.971	7772.89
666.163	7983.84
666.354	7799.52
666.546	7668.45
666.737	7615.2
666.929	7441.12
667.12	7518.95
667.311	7494.37
667.503	7369.44
667.694	7404.26
667.885	7258.85
668.077	7500.51
668.268	7221.99
668.459	7387.88
668.651	7131.88
668.842	7191.27
669.033	7027.43
669.224	7109.35
669.416	7189.22
669.607	7168.74
669.798	6974.19
669.989	7221.99
670.18	6986.47
670.371	6992.62
670.563	6865.64
670.754	6779.63
670.945	7021.29
671.136	6935.28
671.327	6863.6
671.518	6716.14
671.709	6789.87
671.9	6947.56
672.091	6658.8
672.282	6724.33
672.473	6755.05
672.664	6615.79
672.855	6431.48
673.046	6812.4
673.237	6605.55
673.428	6623.98
673.619	6630.13
673.809	6607.6
674	6484.72
674.191	6460.15
674.382	6408.95
674.573	6335.22
674.764	6521.59
674.954	6497.01
675.145	6290.17
675.336	6413.04
675.527	6345.46
675.717	6212.34
675.908	6253.3
676.099	6157.05
676.289	6159.1
676.48	6247.16
676.671	6224.63
676.861	6234.87
677.052	6077.18
677.243	6107.9
677.433	6275.83
677.624	6255.35
677.814	6077.18
678.005	5978.87
678.195	6257.4
678.386	5976.83
678.576	6095.61
678.767	6003.45
678.957	5946.11
679.148	6040.31
679.338	6105.85
679.529	6099.7
679.719	5960.44
679.909	6116.09
680.1	5968.63
680.29	5919.48
680.481	5991.16
680.671	5987.07
680.861	5976.83
681.052	5845.76
681.242	5823.23
681.432	5987.07
681.622	5780.22
681.813	5880.57
682.003	5765.89
682.193	5862.14
682.383	5829.37
682.573	5595.9
682.764	5806.84
682.954	5837.56
683.144	5788.41
683.334	5810.94
683.524	5856
683.714	5911.29
683.904	5792.51
684.094	5806.84
684.284	5911.29
684.474	5802.75
684.664	5677.82
684.854	5739.26
685.044	5700.35
685.234	5694.21
685.424	5589.76
685.614	5571.33
685.804	5593.86
685.994	5647.1
686.184	5597.95
686.374	5567.23
686.564	5460.74
686.753	5690.11
686.943	5452.55
687.133	5567.23
687.323	5397.25
687.513	5559.04
687.702	5569.28
687.892	5444.35
688.082	5368.58
688.272	5403.39
688.461	5264.13
688.651	5370.63
688.841	5339.91
689.03	5380.87
689.22	5356.29
689.41	5303.04
689.599	5200.65
689.789	5307.14
689.979	5346.05
690.168	5313.28
690.358	5262.09
690.547	5255.94
690.737	5405.44
690.926	5260.04
691.116	5126.92
691.305	5200.65
691.495	5118.73
691.684	5010.18
691.874	5135.11
692.063	5282.56
692.252	5208.84
692.442	5018.38
692.631	4791.05
692.82	5022.47
693.01	4952.84
693.199	5014.28
693.388	4946.7
693.578	4940.55
693.767	4930.31
693.956	4877.07
694.146	4936.46
694.335	4895.5
694.524	4942.6
694.713	4977.42
694.902	4907.79
695.092	4879.11
695.281	4823.82
695.47	4844.3
695.659	4934.41
695.848	4795.15
696.037	4567.82
696.226	4746
696.415	4709.13
696.604	4731.66
696.793	4821.77
696.982	4700.94
697.171	4809.48
697.36	4610.83
697.549	4543.25
697.738	4633.36
697.927	4619.02
698.116	4619.02
698.305	4537.1
698.494	4520.72
698.683	4539.15
698.872	4549.39
699.061	4616.97
699.25	4582.16
699.438	4432.66
699.627	4522.77
699.816	4670.22
700.005	4430.61
700.193	4473.62
700.382	4524.82
700.571	4537.1
700.76	4465.43
700.948	4518.67
701.137	4414.23
701.326	4455.19
701.514	4461.33
701.703	4365.07
701.892	4207.38
702.08	4354.83
702.269	4414.23
702.457	4188.95
702.646	4287.25
702.834	4317.97
703.023	4301.59
703.212	4295.44
703.4	4240.15
703.589	4199.19
703.777	4203.29
703.965	4225.81
704.154	4193.05
704.342	4299.54
704.531	4307.73
704.719	4064.02
704.907	4236.05
705.096	4125.46
705.284	4188.95
705.472	4172.57
705.661	4117.27
705.849	4137.75
706.037	4123.41
706.226	4231.96
706.414	4059.93
706.602	4023.06
706.79	4107.03
706.979	3883.8
707.167	4076.31
707.355	3935
707.543	4018.97
707.731	4021.02
707.919	3932.95
708.107	3992.34
708.296	3953.43
708.484	3996.44
708.672	3926.81
708.86	3967.77
709.048	3984.15
709.236	3879.71
709.424	3838.75
709.612	3978.01
709.8	3760.92
709.988	3795.74
710.176	3719.96
710.364	3896.09
710.551	3836.7
710.739	3830.55
710.927	3834.65
711.115	3734.3
711.303	3695.39
711.491	3748.64
711.679	3646.24
711.866	3715.87
712.054	3619.61
712.242	3625.76
712.43	3707.68
712.617	3754.78
712.805	3658.53
712.993	3640.09
713.181	3621.66
713.368	3619.61
713.556	3498.78
713.744	3511.07
713.931	3636
714.119	3470.11
714.306	3578.65
714.494	3420.96
714.682	3523.36
714.869	3349.28
715.057	3482.4
715.244	3566.37
715.432	3423.01
715.619	3410.72
715.807	3445.54
715.994	3455.78
716.182	3457.82
716.369	3390.24
716.556	3699.48
716.744	3351.33
716.931	3416.87
717.119	3404.58
717.306	3437.34
717.493	3461.92
717.681	3445.54
717.868	3324.71
718.055	3425.06
718.242	3367.71
718.43	3371.81
718.617	3322.66
718.804	3300.13
718.991	3447.58
719.179	3310.37
719.366	3283.75
719.553	3281.7
719.74	3250.98
719.927	3273.51
720.114	3330.85
720.301	3306.27
720.488	3113.77
720.676	3232.55
720.863	3248.93
721.05	3345.19
721.237	3117.86
721.424	3228.45
721.611	3158.82
721.798	3103.53
721.985	3183.4
722.172	3183.4
722.358	3210.02
722.545	3160.87
722.732	3119.91
722.919	3175.2
723.106	2972.46
723.293	3085.09
723.48	3050.28
723.667	3035.94
723.853	3025.7
724.04	3142.44
724.227	3173.16
724.414	3060.52
724.6	3093.29
724.787	2956.07
724.974	3085.09
725.161	2927.4
725.347	2859.82
725.534	2980.65
725.72	2974.5
725.907	2939.69
726.094	3031.85
726.28	2956.07
726.467	2839.34
726.653	3007.27
726.84	2913.06
727.027	3056.42
727.213	2902.83
727.4	2939.69
727.586	2878.25
727.773	2980.65
727.959	2863.91
728.145	2892.59
728.332	2771.76
728.518	2757.42
728.705	2913.06
728.891	2704.17
729.077	2855.72
729.264	2794.28
729.45	2822.95
729.636	2833.19
729.823	2849.58
730.009	2976.55
730.195	2810.67
730.382	2798.38
730.568	2892.59
730.754	2806.57
730.94	2743.08
731.126	2650.92
731.313	2665.26
731.499	2855.72
731.685	2786.09
731.871	2675.5
732.057	2802.47
732.243	2761.52
732.429	2679.6
732.615	2691.88
732.801	2880.3
732.987	2847.53
733.173	2712.36
733.359	2835.24
733.545	2749.23
733.731	2536.24
733.917	2560.81
734.103	2667.31
734.289	2646.83
734.475	2769.71
734.661	2665.26
734.847	2630.45
735.033	2618.16
735.219	2603.82
735.404	2691.88
735.59	2544.43
735.776	2650.92
735.962	2566.96
736.148	2519.85
736.333	2499.38
736.519	2626.35
736.705	2566.96
736.89	2634.54
737.076	2609.97
737.262	2622.25
737.447	2562.86
737.633	2472.75
737.819	2577.2
738.004	2503.47
738.19	2548.53
738.375	2546.48
738.561	2550.57
738.747	2499.38
738.932	2560.81
739.118	2464.56
739.303	2425.65
739.489	2450.22
739.674	2564.91
739.859	2417.46
740.045	2437.94
740.23	2417.46
740.416	2401.07
740.601	2462.51
740.786	2200.37
740.972	2366.26
741.157	2425.65
741.342	2282.29
741.528	2362.16
741.713	2380.59
741.898	2405.17
742.084	2380.59
742.269	2345.78
742.454	2274.1
742.639	2267.95
742.824	2282.29
743.01	2376.5
743.195	2302.77
743.38	2173.75
743.565	2315.06
743.75	2134.84
743.935	2093.88
744.12	2257.71
744.305	2300.72
744.49	2169.65
744.675	2147.12
744.86	2183.99
745.045	2161.46
745.23	2118.45
745.415	2183.99
745.6	2173.75
745.785	2145.08
745.97	2167.6
746.155	2136.88
746.34	2114.36
746.525	2077.49
746.71	2151.22
746.895	1983.29
747.079	2028.34
747.264	2003.77
747.449	2009.91
747.634	2048.82
747.819	2001.72
748.003	1954.62
748.188	1917.75
748.373	1835.83
748.557	1872.7
748.742	1905.46
748.927	1889.08
749.111	1897.27
749.296	1848.12
749.481	1872.7
749.665	1872.7
749.85	1858.36
750.034	1835.83
750.219	1778.49
750.404	1758.01
750.588	1729.34
750.773	1680.19
750.957	1811.26
751.141	1817.4
751.326	1946.42
751.51	1743.67
751.695	1776.44
751.879	1733.43
752.064	1762.11
752.248	1717.05
752.432	1729.34
752.617	1727.29
752.801	1631.04
752.985	1547.07
753.17	1725.24
753.354	1606.46
753.538	1678.14
753.722	1596.22
753.907	1514.3
754.091	1473.34
754.275	1622.84
754.459	1532.73
754.643	1499.97
754.828	1626.94
755.012	1528.64
755.196	1442.62
755.38	1481.53
755.564	1461.06
755.748	1495.87
755.932	1487.68
756.116	1446.72
756.3	1424.19
756.484	1514.3
756.668	1397.57
756.852	1479.49
757.036	1409.86
757.22	1372.99
757.404	1346.37
757.588	1372.99
757.772	1315.65
757.956	1272.64
758.14	1448.77
758.323	1243.97
758.507	1387.33
758.691	1258.31
758.875	1291.07
759.059	1364.8
759.242	1260.35
759.426	1299.27
759.61	1270.59
759.794	1260.35
759.977	1348.42
760.161	1327.94
760.345	1305.41
760.528	1172.29
760.712	1274.69
760.895	1176.39
761.079	1276.74
761.263	1241.92
761.446	1258.31
761.63	1203.01
761.813	1215.3
761.997	1149.76
762.18	1145.67
762.364	1221.44
762.547	1129.28
762.731	1192.77
762.914	1160
763.098	1151.81
763.281	1098.56
763.464	1155.91
763.648	1225.54
763.831	1112.9
764.015	1119.04
764.198	1209.15
764.381	1123.14
764.564	1176.39
764.748	1127.24
764.931	1160
765.114	1037.13
765.297	1035.08
765.481	1039.17
765.664	1092.42
765.847	1049.41
766.03	1184.58
766.213	914.25
766.397	1110.85
766.58	1047.37
766.763	1069.89
766.946	1037.13
767.129	1035.08
767.312	1033.03
767.495	1053.51
767.678	994.12
767.861	996.17
768.044	987.97
768.227	1073.99
768.41	1041.22
768.593	930.63
768.776	1071.94
768.959	949.06
769.142	1071.94
769.324	987.97
769.507	930.63
769.69	969.54
769.873	1108.8
770.056	1069.89
770.239	1000.26
770.421	955.21
770.604	1049.41
770.787	996.17
770.97	912.2
771.152	957.25
771.335	926.54
771.518	889.67
771.7	938.82
771.883	957.25
772.066	901.96
772.248	947.01
772.431	934.73
772.613	926.54
772.796	842.57
772.978	957.25
773.161	961.35
773.343	865.1
773.526	873.29
773.708	848.71
773.891	820.04
774.073	957.25
774.256	848.71
774.438	979.78
774.621	858.95
774.803	803.66
774.985	744.27
775.168	865.1
775.35	856.9
775.532	881.48
775.715	856.9
775.897	815.94
776.079	758.6
776.261	811.85
776.444	807.75
776.626	883.53
776.808	746.31
776.99	750.41
777.173	793.42
777.355	783.18
777.537	766.79
777.719	750.41
777.901	801.61
778.083	752.46
778.265	865.1
778.447	793.42
778.629	629.58
778.811	721.74
778.993	693.07
779.175	684.87
779.357	736.07
779.539	633.68
779.721	637.77
779.903	713.55
780.085	629.58
780.267	709.45
780.449	652.11
780.631	742.22
780.812	668.49
780.994	650.06
781.176	635.72
781.358	627.53
781.54	654.16
781.721	695.11
781.903	668.49
782.085	578.38
782.267	703.31
782.448	652.11
782.63	590.67
782.812	576.33
782.993	648.01
783.175	613.2
783.357	564.04
783.538	572.24
783.72	506.7
783.901	613.2
784.083	521.04
784.264	600.91
784.446	562
784.627	488.27
784.809	598.86
784.99	406.35
785.172	580.43
785.353	553.8
785.535	490.32
785.716	496.46
785.897	496.46
786.079	484.17
786.26	496.46
786.441	416.59
786.623	451.41
786.804	410.45
786.985	533.33
787.167	502.61
787.348	428.88
787.529	422.73
787.71	506.7
787.891	525.13
788.073	408.4
788.254	447.31
788.435	533.33
788.616	400.21
788.797	449.36
788.978	432.97
789.159	383.82
789.34	469.84
789.522	451.41
789.703	381.78
789.884	496.46
790.065	475.98
790.246	441.17
790.427	443.21
790.607	480.08
790.788	430.93
790.969	439.12
791.15	490.32
791.331	389.97
791.512	316.24
791.693	334.67
791.874	357.2
792.054	451.41
792.235	426.83
792.416	340.82
792.597	406.35
792.778	381.78
792.958	381.78
793.139	342.86
793.32	349.01
793.5	365.39
793.681	344.91
793.862	373.58
794.042	308.05
794.223	349.01
794.404	332.62
794.584	297.81
794.765	275.28
794.945	326.48
795.126	424.78
795.306	398.16
795.487	308.05
795.667	375.63
795.848	312.14
796.028	242.51
796.209	340.82
796.389	381.78
796.57	295.76
796.75	342.86
796.93	320.34
797.111	326.48
797.291	363.34
797.471	269.14
797.652	361.3
797.832	265.04
798.012	332.62
798.192	281.43
798.373	283.47
798.553	285.52
798.733	328.53
798.913	258.9
799.093	349.01
799.274	250.71
799.454	275.28
799.634	258.9
799.814	357.2
799.994	312.14
800.174	287.57
800.354	287.57
800.534	226.13
800.714	318.29
800.894	267.09
801.074	242.51
801.254	326.48
801.434	310.1
801.614	234.32
801.794	258.9
801.974	1000.26
802.154	262.99
802.334	303.95
802.514	205.65
802.693	289.62
802.873	195.41
803.053	287.57
803.233	267.09
803.413	238.42
803.592	187.22
803.772	219.99
803.952	252.75
804.131	236.37
804.311	250.71
804.491	367.44
804.67	203.6
804.85	252.75
805.03	303.95
805.209	283.47
805.389	179.03
805.568	283.47
805.748	228.18
805.928	222.03
806.107	170.83
806.287	226.13
806.466	252.75
806.646	222.03
806.825	187.22
807.004	234.32
807.184	205.65
807.363	312.14
807.543	213.84
807.722	236.37
807.901	252.75
808.081	181.07
808.26	136.02
808.439	179.03
808.619	238.42
808.798	222.03
808.977	230.23
809.156	258.9
809.336	219.99
809.515	226.13
809.694	203.6
809.873	201.55
810.052	193.36
810.231	279.38
810.411	193.36
810.59	219.99
810.769	207.7
810.948	258.9
811.127	109.4
811.306	217.94
811.485	176.98
811.664	291.66
811.843	199.51
812.022	183.12
812.201	170.83
812.38	185.17
812.559	119.64
812.737	234.32
812.916	127.83
813.095	213.84
813.274	185.17
813.453	179.03
813.632	127.83
813.811	193.36
813.989	170.83
814.168	185.17
814.347	119.64
814.526	148.31
814.704	140.12
814.883	201.55
815.062	105.3
815.24	179.03
815.419	54.1
815.598	234.32
815.776	174.93
815.955	154.45
816.133	50
816.312	211.79
816.49	146.26
816.669	170.83
816.847	113.49
817.026	156.5
817.204	121.68
817.383	154.45
817.561	127.83
817.74	189.27
817.918	209.75
818.097	195.41
818.275	156.5
818.453	172.88
818.632	172.88
818.81	142.16
818.988	144.21
819.167	136.02
819.345	181.07
819.523	105.3
819.701	205.65
819.879	162.64
820.058	105.3
820.236	72.53
820.414	160.59
820.592	103.25
820.77	80.72
820.948	111.44
821.127	160.59
821.305	148.31
821.483	148.31
821.661	144.21
821.839	179.03
822.017	144.21
822.195	119.64
822.373	160.59
822.551	140.12
822.729	62.29
822.907	127.83
823.085	119.64
823.262	152.4
823.44	95.06
823.618	115.54
823.796	156.5
823.974	152.4
824.152	172.88
824.329	97.11
824.507	123.73
824.685	172.88
824.863	152.4
825.04	183.12
825.218	144.21
825.396	78.68
825.574	154.45
825.751	86.87
825.929	78.68
826.107	156.5
826.284	90.96
826.462	113.49
826.639	56.15
826.817	90.96
826.994	146.26
827.172	17.24
827.349	234.32
827.527	74.58
827.704	127.83
827.882	176.98
828.059	74.58
828.237	86.87
828.414	119.64
828.591	99.16
828.769	201.55
828.946	107.35
829.124	170.83
829.301	138.07
829.478	125.78
829.655	105.3
829.833	117.59
830.01	21.33
830.187	74.58
830.364	111.44
830.542	113.49
830.719	193.36
830.896	144.21
831.073	99.16
831.25	125.78
831.427	56.15
831.604	95.06
831.782	78.68
831.959	64.34
832.136	70.48
832.313	54.1
832.49	29.52
832.667	62.29
832.844	109.4
833.021	168.79
833.198	70.48
833.374	138.07
833.551	93.01
833.728	70.48
833.905	152.4
834.082	123.73
834.259	103.25
834.436	140.12
834.612	97.11
834.789	168.79
834.966	45.91
835.143	101.2
835.319	54.1
835.496	111.44
835.673	86.87
835.85	170.83
836.026	119.64
836.203	95.06
836.38	119.64
836.556	95.06
836.733	54.1
836.909	70.48
837.086	13.14
837.262	29.52
837.439	29.52
837.616	103.25
837.792	125.78
837.968	82.77
838.145	43.86
838.321	101.2
838.498	58.2
838.674	90.96
838.851	0.85
839.027	103.25
839.203	47.96
839.38	123.73
839.556	64.34
839.732	80.72
839.909	70.48
840.085	97.11
840.261	41.81
840.437	13.14
840.614	-3.24
840.79	103.25
840.966	148.31
841.142	72.53
841.318	70.48
841.494	111.44
841.671	101.2
841.847	21.33
842.023	21.33
842.199	127.83
842.375	111.44
842.551	58.2
842.727	45.91
842.903	86.87
843.079	7
843.255	88.92
843.431	47.96
843.607	97.11
843.783	-40.11
843.959	68.44
844.134	41.81
844.31	97.11
844.486	86.87
844.662	119.64
844.838	-40.11
845.013	99.16
845.189	95.06
845.365	-3.24
845.541	37.72
845.716	47.96
845.892	62.29
846.068	45.91
846.244	111.44
846.419	21.33
846.595	37.72
846.77	29.52
846.946	58.2
847.122	-17.58
847.297	31.57
847.473	95.06
847.648	54.1
847.824	70.48
847.999	-3.24
848.175	39.76
848.35	37.72
848.526	54.1
848.701	115.54
848.876	78.68
849.052	74.58
849.227	-1.19
849.403	-15.53
849.578	80.72
849.753	15.19
849.929	90.96
850.104	21.33
850.279	138.07
850.454	45.91
850.63	50
850.805	64.34
850.98	117.59
851.155	54.1
851.33	13.14
851.505	17.24
851.681	99.16
851.856	21.33
852.031	39.76
852.206	58.2
852.381	-21.67
852.556	-9.39
852.731	-11.43
852.906	31.57
853.081	72.53
853.256	142.16
853.431	74.58
853.606	21.33
853.781	4.95
853.956	54.1
854.131	82.77
854.305	90.96
854.48	-11.43
854.655	17.24
854.83	29.52
855.005	37.72
855.18	62.29
855.354	103.25
855.529	78.68
855.704	4.95
855.879	107.35
856.053	-15.53
856.228	107.35
856.403	43.86
856.577	62.29
856.752	56.15
856.926	82.77
857.101	-11.43
857.276	7
857.45	43.86
857.625	13.14
857.799	29.52
857.974	78.68
858.148	23.38
858.323	72.53
858.497	29.52
858.672	-11.43
858.846	-11.43
859.02	58.2
859.195	-21.67
859.369	37.72
859.543	54.1
859.718	37.72
859.892	103.25
860.066	78.68
860.241	29.52
860.415	54.1
860.589	50
860.763	0.85
860.938	-3.24
861.112	60.24
861.286	-17.58
861.46	31.57
861.634	-3.24
861.808	41.81
861.982	39.76
862.157	54.1
862.331	115.54
862.505	70.48
862.679	33.62
862.853	41.81
863.027	31.57
863.201	115.54
863.375	15.19
863.549	-7.34
863.722	-9.39
863.896	111.44
864.07	52.05
864.244	11.09
864.418	144.21
864.592	60.24
864.766	23.38
864.939	33.62
865.113	25.43
865.287	70.48
865.461	-3.24
865.634	54.1
865.808	39.76
865.982	29.52
866.156	15.19
866.329	31.57
866.503	-3.24
866.676	52.05
866.85	23.38
867.024	50
867.197	142.16
867.371	105.3
867.544	-31.91
867.718	-17.58
867.891	138.07
868.065	21.33
868.238	39.76
868.412	47.96
868.585	-11.43
868.759	0.85
868.932	50
869.105	-42.15
869.279	-48.3
869.452	45.91
869.625	54.1
869.799	29.52
869.972	-58.54
870.145	7
870.319	13.14
870.492	78.68
870.665	29.52
870.838	45.91
871.011	-66.73
871.185	9.05
871.358	-36.01
871.531	76.63
871.704	-23.72
871.877	29.52
872.05	72.53
872.223	-19.63
872.396	11.09
872.569	80.72
872.742	56.15
872.915	54.1
873.088	-11.43
873.261	39.76
873.434	-40.11
873.607	60.24
873.78	54.1
873.953	21.33
874.126	45.91
874.299	64.34
874.471	-76.97
874.644	-50.35
874.817	27.48
874.99	45.91
875.163	-40.11
875.335	-19.63
875.508	15.19
875.681	9.05
875.853	-3.24
876.026	-11.43
876.199	-33.96
876.371	64.34
876.544	74.58
876.717	50
876.889	-81.07
877.062	99.16
877.234	-7.34
877.407	50
877.579	88.92
877.752	45.91
877.924	52.05
878.097	33.62
878.269	-11.43
878.442	37.72
878.614	21.33
878.786	47.96
878.959	33.62
879.131	70.48
879.303	-76.97
879.476	29.52
879.648	-1.19
879.82	95.06
879.993	-91.31
880.165	-19.63
880.337	-60.59
880.509	-3.24
880.681	-33.96
880.854	-42.15
881.026	-3.24
881.198	129.88
881.37	35.67
881.542	21.33
881.714	-3.24
881.886	13.14
882.058	15.19
882.23	56.15
882.402	95.06
882.574	-11.43
882.746	64.34
882.918	115.54
883.09	15.19
883.262	13.14
883.434	56.15
883.606	-99.5
883.778	86.87
883.95	27.48
884.122	60.24
884.293	50
884.465	-15.53
884.637	47.96
884.809	17.24
884.98	64.34
885.152	37.72
885.324	47.96
885.496	-44.2
885.667	25.43
885.839	-7.34
886.011	90.96
886.182	88.92
886.354	-1.19
886.525	-9.39
886.697	-7.34
886.869	-27.82
887.04	-40.11
887.212	25.43
887.383	62.29
887.555	31.57
887.726	56.15
887.897	37.72
888.069	4.95
888.24	-13.48
888.412	45.91
888.583	17.24
888.754	-11.43
888.926	-25.77
889.097	-27.82
889.268	7
889.44	90.96
889.611	-93.35
889.782	13.14
889.953	103.25
890.125	78.68
890.296	-25.77
890.467	11.09
890.638	17.24
890.809	15.19
890.98	-42.15
891.151	37.72
891.323	54.1
891.494	-11.43
891.665	-19.63
891.836	27.48
892.007	-33.96
892.178	-105.64
892.349	50
892.52	4.95
892.691	33.62
892.862	-5.29
893.032	21.33
893.203	13.14
893.374	-15.53
893.545	-3.24
893.716	-52.39
893.887	39.76
894.057	-11.43
894.228	39.76
894.399	15.19
894.57	86.87
894.74	15.19
894.911	43.86
895.082	-33.96
895.253	4.95
895.423	70.48
895.594	7
895.764	-27.82
895.935	-23.72
896.106	-56.49
896.276	37.72
896.447	47.96
896.617	41.81
896.788	-29.87
896.958	31.57
897.129	-27.82
897.299	52.05
897.47	86.87
897.64	29.52
897.81	-3.24
897.981	-36.01
898.151	2.9
898.322	21.33
898.492	29.52
898.662	-36.01
898.832	-31.91
899.003	-7.34
899.173	-3.24
899.343	7
899.513	15.19
