Data from USB4F104151__179__14-32-45-110.txt Node

Date: Thu Mar 13 14:32:45 EDT 2025
User: louis
Spectrometer: USB4F10415
Trigger mode: 4
Integration Time (sec): 2.500000E-2
Scans to average: 1
Electric dark correction enabled: true
Nonlinearity correction enabled: false
Boxcar width: 0
XAxis mode: Wavelengths
Number of Pixels in Spectrum: 3648
>>>>>Begin Spectral Data<<<<<
178.204	-135
178.424	-135
178.644	-135
178.864	-147.28
179.084	-173.91
179.304	-36.69
179.524	4.27
179.744	20.65
179.964	-3.93
180.184	73.9
180.404	-1.88
180.624	4.27
180.844	4.27
181.064	-3.93
181.283	6.31
181.503	-108.37
181.723	41.13
181.943	12.46
182.163	108.71
182.383	-3.93
182.602	8.36
182.822	-48.98
183.042	69.8
183.262	-44.88
183.482	77.99
183.701	20.65
183.921	45.23
184.141	-3.93
184.361	34.99
184.58	-3.93
184.8	-18.26
185.02	41.13
185.239	149.67
185.459	-57.17
185.679	12.46
185.898	-42.84
186.118	45.23
186.338	0.17
186.557	51.37
186.777	-28.5
186.997	61.61
187.216	-61.27
187.436	77.99
187.655	28.84
187.875	14.51
188.095	-20.31
188.314	114.86
188.534	4.27
188.753	14.51
188.973	-36.69
189.192	20.65
189.412	65.71
189.631	4.27
189.851	4.27
190.07	16.55
190.29	12.46
190.509	-1.88
190.729	14.51
190.948	16.55
191.168	143.53
191.387	37.03
191.607	57.51
191.826	73.9
192.045	-69.46
192.265	16.55
192.484	10.41
192.704	-44.88
192.923	-77.65
193.142	106.67
193.362	47.27
193.581	53.42
193.8	-77.65
194.02	20.65
194.239	20.65
194.458	-26.45
194.678	4.27
194.897	12.46
195.116	96.43
195.335	-10.07
195.555	12.46
195.774	65.71
195.993	49.32
196.212	-10.07
196.432	53.42
196.651	16.55
196.87	51.37
197.089	63.66
197.308	49.32
197.528	-28.5
197.747	-28.5
197.966	63.66
198.185	22.7
198.404	65.71
198.623	86.19
198.842	41.13
199.062	61.61
199.281	80.04
199.5	41.13
199.719	90.28
199.938	28.84
200.157	-55.12
200.376	86.19
200.595	43.18
200.814	22.7
201.033	45.23
201.252	47.27
201.471	24.75
201.69	34.99
201.909	20.65
202.128	77.99
202.347	53.42
202.566	-40.79
202.785	37.03
203.004	-36.69
203.223	92.33
203.442	-14.17
203.661	80.04
203.879	47.27
204.098	-20.31
204.317	-8.02
204.536	96.43
204.755	30.89
204.974	28.84
205.193	61.61
205.411	90.28
205.63	8.36
205.849	82.09
206.068	20.65
206.287	-20.31
206.505	28.84
206.724	6.31
206.943	-32.6
207.162	116.9
207.381	18.6
207.599	14.51
207.818	12.46
208.037	16.55
208.255	2.22
208.474	-12.12
208.693	49.32
208.911	-14.17
209.13	22.7
209.349	-32.6
209.567	-51.03
209.786	37.03
210.005	20.65
210.223	0.17
210.442	-46.93
210.661	28.84
210.879	20.65
211.098	41.13
211.316	80.04
211.535	53.42
211.753	22.7
211.972	-53.08
212.191	53.42
212.409	12.46
212.628	22.7
212.846	12.46
213.065	16.55
213.283	67.75
213.502	8.36
213.72	45.23
213.938	94.38
214.157	61.61
214.375	20.65
214.594	37.03
214.812	12.46
215.031	28.84
215.249	0.17
215.467	-3.93
215.686	63.66
215.904	24.75
216.122	20.65
216.341	69.8
216.559	-42.84
216.778	157.86
216.996	67.75
217.214	12.46
217.432	-59.22
217.651	-28.5
217.869	61.61
218.087	-8.02
218.306	104.62
218.524	6.31
218.742	10.41
218.96	110.76
219.179	37.03
219.397	61.61
219.615	63.66
219.833	24.75
220.051	8.36
220.27	53.42
220.488	28.84
220.706	28.84
220.924	-51.03
221.142	61.61
221.36	24.75
221.578	-20.31
221.796	61.61
222.015	20.65
222.233	12.46
222.451	-12.12
222.669	-26.45
222.887	-20.31
223.105	0.17
223.323	-12.12
223.541	-18.26
223.759	102.57
223.977	12.46
224.195	28.84
224.413	45.23
224.631	49.32
224.849	53.42
225.067	51.37
225.285	47.27
225.503	69.8
225.721	-8.02
225.939	37.03
226.157	4.27
226.375	69.8
226.592	-44.88
226.81	24.75
227.028	-16.21
227.246	84.14
227.464	71.85
227.682	45.23
227.9	-44.88
228.117	77.99
228.335	77.99
228.553	94.38
228.771	65.71
228.989	47.27
229.206	141.48
229.424	10.41
229.642	53.42
229.86	61.61
230.077	10.41
230.295	-36.69
230.513	65.71
230.731	6.31
230.948	82.09
231.166	86.19
231.384	22.7
231.601	47.27
231.819	51.37
232.037	-10.07
232.254	-53.08
232.472	57.51
232.689	-30.55
232.907	53.42
233.125	37.03
233.342	55.47
233.56	39.08
233.777	106.67
233.995	-44.88
234.213	-12.12
234.43	53.42
234.648	34.99
234.865	-30.55
235.083	-12.12
235.3	-1.88
235.518	61.61
235.735	2.22
235.953	-3.93
236.17	28.84
236.388	53.42
236.605	61.61
236.822	39.08
237.04	75.95
237.257	49.32
237.475	-42.84
237.692	88.23
237.909	2.22
238.127	65.71
238.344	45.23
238.562	61.61
238.779	16.55
238.996	80.04
239.214	45.23
239.431	121
239.648	8.36
239.865	28.84
240.083	41.13
240.3	16.55
240.517	12.46
240.735	-16.21
240.952	53.42
241.169	45.23
241.386	55.47
241.603	-5.97
241.821	-26.45
242.038	-1.88
242.255	12.46
242.472	-24.4
242.689	28.84
242.907	37.03
243.124	-12.12
243.341	16.55
243.558	16.55
243.775	24.75
243.992	-10.07
244.209	37.03
244.426	166.06
244.643	0.17
244.86	39.08
245.078	-8.02
245.295	98.47
245.512	30.89
245.729	-36.69
245.946	28.84
246.163	0.17
246.38	14.51
246.597	20.65
246.814	47.27
247.031	8.36
247.248	10.41
247.464	-14.17
247.681	-18.26
247.898	-10.07
248.115	16.55
248.332	-55.12
248.549	45.23
248.766	65.71
248.983	63.66
249.2	55.47
249.417	20.65
249.633	-83.8
249.85	20.65
250.067	88.23
250.284	-59.22
250.501	4.27
250.717	22.7
250.934	-16.21
251.151	14.51
251.368	24.75
251.585	4.27
251.801	16.55
252.018	-16.21
252.235	49.32
252.451	4.27
252.668	22.7
252.885	69.8
253.102	47.27
253.318	-46.93
253.535	-28.5
253.752	-32.6
253.968	-3.93
254.185	-18.26
254.401	16.55
254.618	90.28
254.835	-24.4
255.051	71.85
255.268	45.23
255.484	53.42
255.701	45.23
255.917	-10.07
256.134	-1.88
256.351	2.22
256.567	-16.21
256.784	86.19
257	-51.03
257.217	26.79
257.433	75.95
257.65	14.51
257.866	55.47
258.082	-67.41
258.299	69.8
258.515	86.19
258.732	32.94
258.948	8.36
259.165	67.75
259.381	-3.93
259.597	-12.12
259.814	-26.45
260.03	59.56
260.246	86.19
260.463	16.55
260.679	47.27
260.895	12.46
261.112	77.99
261.328	12.46
261.544	2.22
261.761	55.47
261.977	-3.93
262.193	-10.07
262.409	94.38
262.626	-8.02
262.842	37.03
263.058	45.23
263.274	75.95
263.49	22.7
263.707	86.19
263.923	53.42
264.139	-57.17
264.355	20.65
264.571	65.71
264.787	80.04
265.004	47.27
265.22	49.32
265.436	71.85
265.652	0.17
265.868	-3.93
266.084	30.89
266.3	45.23
266.516	-36.69
266.732	6.31
266.948	45.23
267.164	-20.31
267.38	37.03
267.596	49.32
267.812	16.55
268.028	-46.93
268.244	43.18
268.46	51.37
268.676	-36.69
268.892	12.46
269.108	12.46
269.324	8.36
269.54	-40.79
269.756	61.61
269.972	-44.88
270.188	94.38
270.403	-10.07
270.619	77.99
270.835	22.7
271.051	47.27
271.267	-40.79
271.483	22.7
271.698	53.42
271.914	41.13
272.13	16.55
272.346	71.85
272.562	0.17
272.777	45.23
272.993	6.31
273.209	-44.88
273.425	20.65
273.64	-26.45
273.856	37.03
274.072	6.31
274.287	-44.88
274.503	45.23
274.719	69.8
274.934	-57.17
275.15	-24.4
275.366	-1.88
275.581	-20.31
275.797	53.42
276.012	24.75
276.228	-20.31
276.444	-12.12
276.659	157.86
276.875	-42.84
277.09	-3.93
277.306	-14.17
277.521	39.08
277.737	22.7
277.952	65.71
278.168	12.46
278.383	-16.21
278.599	45.23
278.814	88.23
279.03	28.84
279.245	86.19
279.461	49.32
279.676	94.38
279.892	24.75
280.107	10.41
280.322	22.7
280.538	73.9
280.753	-16.21
280.969	16.55
281.184	-20.31
281.399	20.65
281.615	98.47
281.83	6.31
282.045	-40.79
282.26	-10.07
282.476	37.03
282.691	-3.93
282.906	20.65
283.122	16.55
283.337	55.47
283.552	121
283.767	-20.31
283.983	41.13
284.198	-18.26
284.413	-28.5
284.628	43.18
284.843	2.22
285.058	34.99
285.274	6.31
285.489	-18.26
285.704	57.51
285.919	24.75
286.134	28.84
286.349	32.94
286.564	8.36
286.779	-53.08
286.995	63.66
287.21	-26.45
287.425	96.43
287.64	37.03
287.855	14.51
288.07	-30.55
288.285	53.42
288.5	28.84
288.715	34.99
288.93	-22.36
289.145	-12.12
289.36	37.03
289.575	57.51
289.79	-28.5
290.004	4.27
290.219	69.8
290.434	-12.12
290.649	-20.31
290.864	-26.45
291.079	30.89
291.294	28.84
291.509	18.6
291.724	-1.88
291.938	-30.55
292.153	20.65
292.368	-34.64
292.583	8.36
292.798	18.6
293.012	24.75
293.227	94.38
293.442	12.46
293.657	-16.21
293.871	73.9
294.086	-3.93
294.301	73.9
294.516	104.62
294.73	45.23
294.945	-8.02
295.16	-26.45
295.374	45.23
295.589	69.8
295.804	-38.74
296.018	28.84
296.233	20.65
296.447	47.27
296.662	-40.79
296.877	-3.93
297.091	39.08
297.306	-8.02
297.52	-16.21
297.735	-1.88
297.949	-48.98
298.164	12.46
298.378	37.03
298.593	37.03
298.807	12.46
299.022	-3.93
299.236	84.14
299.451	61.61
299.665	4.27
299.88	12.46
300.094	34.99
300.309	-36.69
300.523	45.23
300.737	28.84
300.952	61.61
301.166	-20.31
301.381	4.27
301.595	-26.45
301.809	-42.84
302.024	45.23
302.238	-46.93
302.452	0.17
302.667	24.75
302.881	0.17
303.095	43.18
303.309	59.56
303.524	-26.45
303.738	-48.98
303.952	77.99
304.166	45.23
304.381	20.65
304.595	24.75
304.809	20.65
305.023	34.99
305.237	-89.94
305.452	129.19
305.666	65.71
305.88	55.47
306.094	77.99
306.308	69.8
306.522	90.28
306.736	-36.69
306.95	104.62
307.164	-10.07
307.379	4.27
307.593	61.61
307.807	90.28
308.021	123.05
308.235	4.27
308.449	-34.64
308.663	37.03
308.877	55.47
309.091	49.32
309.305	80.04
309.519	-3.93
309.733	6.31
309.947	-3.93
310.161	22.7
310.374	47.27
310.588	100.52
310.802	28.84
311.016	-26.45
311.23	0.17
311.444	-10.07
311.658	-5.97
311.872	16.55
312.085	41.13
312.299	-1.88
312.513	8.36
312.727	41.13
312.941	28.84
313.154	49.32
313.368	30.89
313.582	30.89
313.796	121
314.009	37.03
314.223	80.04
314.437	14.51
314.651	67.75
314.864	-61.27
315.078	-1.88
315.292	28.84
315.505	59.56
315.719	24.75
315.933	41.13
316.146	41.13
316.36	-63.32
316.573	106.67
316.787	86.19
317.001	6.31
317.214	-53.08
317.428	32.94
317.641	22.7
317.855	-3.93
318.068	94.38
318.282	-77.65
318.495	139.43
318.709	18.6
318.922	-22.36
319.136	45.23
319.349	55.47
319.563	-63.32
319.776	45.23
319.99	-34.64
320.203	49.32
320.417	37.03
320.63	34.99
320.843	112.81
321.057	16.55
321.27	51.37
321.483	86.19
321.697	92.33
321.91	-3.93
322.124	-36.69
322.337	22.7
322.55	-12.12
322.763	-3.93
322.977	53.42
323.19	-3.93
323.403	61.61
323.617	20.65
323.83	32.94
324.043	-22.36
324.256	6.31
324.469	12.46
324.683	131.24
324.896	-12.12
325.109	20.65
325.322	-44.88
325.535	22.7
325.748	69.8
325.962	20.65
326.175	18.6
326.388	80.04
326.601	65.71
326.814	14.51
327.027	63.66
327.24	84.14
327.453	37.03
327.666	4.27
327.879	153.77
328.092	112.81
328.305	16.55
328.518	24.75
328.731	-71.51
328.944	45.23
329.157	49.32
329.37	22.7
329.583	86.19
329.796	75.95
330.009	80.04
330.222	-1.88
330.435	90.28
330.648	30.89
330.861	20.65
331.073	4.27
331.286	16.55
331.499	37.03
331.712	-28.5
331.925	14.51
332.138	14.51
332.35	0.17
332.563	-1.88
332.776	57.51
332.989	-32.6
333.202	0.17
333.414	55.47
333.627	-28.5
333.84	2.22
334.053	-24.4
334.265	-5.97
334.478	6.31
334.691	32.94
334.903	-87.89
335.116	10.41
335.329	6.31
335.541	20.65
335.754	53.42
335.966	-12.12
336.179	37.03
336.392	28.84
336.604	20.65
336.817	14.51
337.029	69.8
337.242	49.32
337.454	90.28
337.667	45.23
337.88	77.99
338.092	-57.17
338.305	133.29
338.517	-20.31
338.729	0.17
338.942	63.66
339.154	49.32
339.367	12.46
339.579	32.94
339.792	22.7
340.004	45.23
340.217	16.55
340.429	0.17
340.641	-16.21
340.854	20.65
341.066	37.03
341.278	45.23
341.491	57.51
341.703	39.08
341.915	-48.98
342.128	86.19
342.34	-20.31
342.552	-12.12
342.764	59.56
342.977	20.65
343.189	104.62
343.401	24.75
343.613	20.65
343.826	-44.88
344.038	-10.07
344.25	24.75
344.462	20.65
344.674	110.76
344.886	-20.31
345.099	102.57
345.311	20.65
345.523	-1.88
345.735	-38.74
345.947	63.66
346.159	-3.93
346.371	41.13
346.583	-1.88
346.795	16.55
347.007	4.27
347.219	51.37
347.431	84.14
347.643	30.89
347.855	16.55
348.067	43.18
348.279	30.89
348.491	88.23
348.703	0.17
348.915	53.42
349.127	-12.12
349.339	10.41
349.551	-12.12
349.763	12.46
349.975	63.66
350.187	28.84
350.399	49.32
350.61	106.67
350.822	77.99
351.034	73.9
351.246	55.47
351.458	104.62
351.669	-10.07
351.881	28.84
352.093	-1.88
352.305	-26.45
352.517	45.23
352.728	92.33
352.94	-8.02
353.152	86.19
353.363	-22.36
353.575	53.42
353.787	88.23
353.999	4.27
354.21	65.71
354.422	51.37
354.633	-24.4
354.845	14.51
355.057	96.43
355.268	-20.31
355.48	-10.07
355.692	-3.93
355.903	57.51
356.115	22.7
356.326	-91.99
356.538	32.94
356.749	-24.4
356.961	-1.88
357.172	-1.88
357.384	-28.5
357.595	69.8
357.807	67.75
358.018	14.51
358.23	0.17
358.441	94.38
358.653	110.76
358.864	45.23
359.075	37.03
359.287	45.23
359.498	28.84
359.709	63.66
359.921	133.29
360.132	28.84
360.344	22.7
360.555	-24.4
360.766	-28.5
360.977	-40.79
361.189	-1.88
361.4	88.23
361.611	127.14
361.823	37.03
362.034	30.89
362.245	0.17
362.456	8.36
362.667	143.53
362.879	4.27
363.09	-8.02
363.301	-16.21
363.512	0.17
363.723	4.27
363.935	53.42
364.146	75.95
364.357	-20.31
364.568	20.65
364.779	-67.41
364.99	61.61
365.201	-16.21
365.412	-3.93
365.623	30.89
365.834	69.8
366.045	53.42
366.256	65.71
366.467	57.51
366.678	8.36
366.889	61.61
367.1	-32.6
367.311	90.28
367.522	-65.36
367.733	53.42
367.944	61.61
368.155	69.8
368.366	39.08
368.577	18.6
368.788	37.03
368.999	-20.31
369.209	8.36
369.42	108.71
369.631	116.9
369.842	24.75
370.053	16.55
370.264	41.13
370.474	28.84
370.685	-24.4
370.896	47.27
371.107	143.53
371.317	37.03
371.528	73.9
371.739	125.1
371.95	-20.31
372.16	69.8
372.371	18.6
372.582	2.22
372.792	-65.36
373.003	-18.26
373.214	4.27
373.424	32.94
373.635	30.89
373.846	69.8
374.056	37.03
374.267	37.03
374.477	102.57
374.688	-1.88
374.898	86.19
375.109	20.65
375.319	71.85
375.53	51.37
375.74	71.85
375.951	71.85
376.161	-18.26
376.372	82.09
376.582	16.55
376.793	57.51
377.003	94.38
377.214	53.42
377.424	86.19
377.635	-36.69
377.845	-28.5
378.055	161.96
378.266	14.51
378.476	-22.36
378.686	-12.12
378.897	4.27
379.107	73.9
379.317	53.42
379.528	-18.26
379.738	86.19
379.948	-57.17
380.158	67.75
380.369	82.09
380.579	41.13
380.789	55.47
380.999	16.55
381.21	-3.93
381.42	116.9
381.63	-12.12
381.84	-18.26
382.05	16.55
382.261	20.65
382.471	141.48
382.681	24.75
382.891	55.47
383.101	16.55
383.311	6.31
383.521	45.23
383.731	6.31
383.941	53.42
384.151	16.55
384.361	2.22
384.571	24.75
384.781	69.8
384.991	69.8
385.201	53.42
385.411	69.8
385.621	69.8
385.831	24.75
386.041	41.13
386.251	4.27
386.461	6.31
386.671	41.13
386.881	98.47
387.091	28.84
387.301	55.47
387.511	22.7
387.72	73.9
387.93	57.51
388.14	-85.84
388.35	8.36
388.56	127.14
388.769	61.61
388.979	100.52
389.189	-30.55
389.399	-12.12
389.609	4.27
389.818	37.03
390.028	65.71
390.238	53.42
390.447	-32.6
390.657	4.27
390.867	-32.6
391.076	20.65
391.286	129.19
391.496	82.09
391.705	4.27
391.915	63.66
392.125	45.23
392.334	53.42
392.544	106.67
392.753	41.13
392.963	2.22
393.172	71.85
393.382	18.6
393.591	151.72
393.801	6.31
394.01	108.71
394.22	4.27
394.429	24.75
394.639	49.32
394.848	45.23
395.058	14.51
395.267	-53.08
395.477	63.66
395.686	94.38
395.895	127.14
396.105	55.47
396.314	8.36
396.524	63.66
396.733	39.08
396.942	94.38
397.152	67.75
397.361	37.03
397.57	28.84
397.78	104.62
397.989	80.04
398.198	137.38
398.407	92.33
398.617	28.84
398.826	82.09
399.035	69.8
399.244	82.09
399.453	57.51
399.663	88.23
399.872	104.62
400.081	82.09
400.29	188.58
400.499	39.08
400.708	127.14
400.917	69.8
401.127	-16.21
401.336	14.51
401.545	116.9
401.754	159.91
401.963	104.62
402.172	41.13
402.381	43.18
402.59	108.71
402.799	8.36
403.008	92.33
403.217	151.72
403.426	57.51
403.635	20.65
403.844	104.62
404.053	94.38
404.262	14.51
404.471	188.58
404.68	102.57
404.888	61.61
405.097	20.65
405.306	69.8
405.515	108.71
405.724	53.42
405.933	180.39
406.142	71.85
406.35	243.88
406.559	110.76
406.768	100.52
406.977	192.68
407.185	100.52
407.394	159.91
407.603	127.14
407.812	110.76
408.02	184.49
408.229	172.2
408.438	145.58
408.646	129.19
408.855	168.1
409.064	233.64
409.272	159.91
409.481	258.21
409.69	164.01
409.898	237.74
410.107	227.5
410.315	200.87
410.524	168.1
410.733	209.06
410.941	209.06
411.15	274.6
411.358	266.41
411.567	303.27
411.775	274.6
411.984	202.92
412.192	323.75
412.401	315.56
412.609	413.86
412.818	415.91
413.026	370.85
413.234	284.84
413.443	360.61
413.651	372.9
413.86	360.61
414.068	450.72
414.276	422.05
414.485	430.24
414.693	463.01
414.901	489.64
415.11	571.55
415.318	463.01
415.526	589.99
415.734	573.6
415.943	557.22
416.151	577.7
416.359	585.89
416.567	530.59
416.776	608.42
416.984	643.23
417.192	766.11
417.4	690.34
417.608	620.71
417.817	702.62
418.025	809.12
418.233	872.61
418.441	794.78
418.649	798.88
418.857	940.19
419.065	962.72
419.273	905.37
419.481	981.15
419.689	1030.3
419.897	1022.11
420.105	1056.92
420.313	1136.79
420.521	1210.52
420.729	1120.41
420.937	1097.88
421.145	1226.9
421.353	1253.53
421.561	1329.3
421.769	1333.4
421.977	1368.21
422.185	1413.27
422.393	1593.49
422.601	1628.31
422.809	1607.83
423.017	1554.58
423.224	1699.98
423.432	1720.46
423.64	1773.71
423.848	1908.88
424.056	1874.06
424.263	1896.59
424.471	2044.04
424.679	2050.19
424.887	2173.07
425.094	2175.11
425.302	2218.12
425.51	2297.99
425.718	2338.95
425.925	2341
426.133	2324.62
426.341	2701.44
426.548	2652.29
426.756	2752.64
426.964	2691.2
427.171	2863.23
427.379	3059.84
427.586	3049.6
427.794	3190.91
428.001	3256.44
428.209	3426.42
428.417	3426.42
428.624	3563.64
428.832	3547.25
429.039	3526.77
429.247	3510.39
429.454	3956.85
429.662	4098.16
429.869	3952.75
430.076	4108.4
430.284	4061.29
430.491	4292.71
430.699	4550.76
430.906	4517.99
431.114	4544.61
431.321	4665.44
431.528	4819.04
431.736	5029.98
431.943	5206.11
432.15	5046.37
432.358	5167.2
432.565	5668.95
432.772	5537.88
432.979	5754.96
433.187	5742.68
433.394	6049.87
433.601	6221.9
433.808	6320.2
434.016	6262.86
434.223	6525
434.43	7012.42
434.637	6774.85
434.844	7323.71
435.052	7358.52
435.259	7379
435.466	7188.54
435.673	7290.94
435.88	7700.53
436.087	8228.91
436.294	7983.15
436.501	8020.02
436.708	8056.88
436.915	8261.68
437.122	8525.86
437.329	8726.57
437.537	8790.05
437.743	9097.25
437.95	9093.15
438.157	9302.04
438.364	9709.59
438.571	9916.44
438.778	10027.03
438.985	10760.2
439.192	10410
439.399	10545.16
439.606	10340.36
439.813	11184.13
440.02	11702.26
440.227	11425.79
440.433	11276.29
440.64	11714.55
440.847	11616.25
441.054	11948.02
441.261	12765.16
441.467	12447.72
441.674	12595.18
441.881	13508.57
442.088	13101.03
442.294	13076.45
442.501	13277.15
442.708	13774.81
442.914	14489.55
443.121	14671.82
443.328	14438.35
443.534	15347.65
443.741	14929.86
443.948	14847.94
444.154	15818.68
444.361	15775.67
444.568	15790.01
444.774	15929.27
444.981	15986.61
445.187	16539.57
445.394	17239.97
445.6	17235.88
445.807	18382.74
446.013	17909.66
446.22	18153.37
446.426	19038.09
446.633	19187.59
446.839	19638.14
447.046	18843.53
447.252	19947.39
447.459	20057.98
447.665	19654.53
447.871	20627.31
448.078	21751.65
448.284	20346.74
448.491	21350.24
448.697	21854.05
448.903	22089.56
449.11	22447.96
449.316	21907.29
449.522	22632.27
449.728	23019.34
449.935	23107.4
450.141	23281.48
450.347	23584.58
450.553	23048.01
450.76	23070.54
450.966	23719.74
451.172	23859.01
451.378	24375.09
451.584	23648.07
451.791	24323.9
451.997	24108.86
452.203	24688.43
452.409	24770.35
452.615	24600.37
452.821	23736.13
453.027	23560
453.233	24907.57
453.44	23738.18
453.646	23504.71
453.852	23979.84
454.058	24360.76
454.264	23455.56
454.47	24254.26
454.676	23648.07
454.882	24262.46
455.088	22095.71
455.294	22445.91
455.5	22730.58
455.705	23125.83
455.911	22267.73
456.117	21499.75
456.323	21325.67
456.529	20203.38
456.735	21202.79
456.941	20475.76
457.147	20107.13
457.352	19451.78
457.558	19691.39
457.764	19566.46
457.97	18904.97
458.176	18462.61
458.381	18624.4
458.587	17577.89
458.793	17569.69
458.999	16719.79
459.204	18065.3
459.41	17668
459.616	16490.42
459.821	16193.46
460.027	16175.03
460.233	15847.35
460.438	15026.12
460.644	15253.44
460.85	14579.66
461.055	14403.53
461.261	14127.06
461.466	13119.46
461.672	12998.63
461.878	13864.92
462.083	12668.91
462.289	12787.69
462.494	12423.15
462.7	11857.91
462.905	11565.05
463.111	11919.35
463.316	12007.41
463.522	11751.42
463.727	11864.05
463.932	11929.59
464.138	11571.19
464.343	11804.66
464.549	11259.9
464.754	11843.57
464.959	11526.14
465.165	11558.91
465.37	11016.19
465.575	10526.73
465.781	11177.98
465.986	11087.87
466.191	10842.12
466.397	10670.09
466.602	10186.77
466.807	10426.38
467.012	10645.51
467.218	10330.13
467.423	10211.34
467.628	10309.65
467.833	10416.14
468.038	10483.72
468.244	9850.9
468.449	10393.61
468.654	9932.82
468.859	9891.86
469.064	9965.59
469.269	9637.91
469.474	9711.64
469.679	9914.39
469.885	9500.7
470.09	9852.95
470.295	9674.78
470.5	9349.15
470.705	9408.54
470.91	9363.48
471.115	9011.23
471.32	9250.85
471.525	9256.99
471.73	9130.02
471.935	8902.69
472.139	8751.14
472.344	8794.15
472.549	8728.61
472.754	8779.81
472.959	8450.09
473.164	8237.1
473.369	8093.74
473.574	8493.1
473.778	8491.05
473.983	8364.08
474.188	8294.44
474.393	7940.15
474.598	7966.77
474.802	8099.89
475.007	7774.26
475.212	7909.43
475.417	7475.26
475.621	7551.03
475.826	7370.81
476.031	7405.63
476.235	7151.68
476.44	7489.59
476.645	7325.75
476.849	7260.22
477.054	7157.82
477.259	7098.43
477.463	6991.94
477.668	6762.56
477.872	6893.63
478.077	6815.81
478.282	6758.47
478.486	6799.43
478.691	6619.21
478.895	6576.2
479.1	6512.71
479.304	6539.33
479.509	6383.69
479.713	6559.81
479.918	6449.22
480.122	6240.33
480.326	6262.86
480.531	6299.72
480.735	6271.05
480.94	6182.99
481.144	6416.46
481.348	6070.35
481.553	6273.1
481.757	6033.49
481.961	6068.3
482.166	6226
482.37	6201.42
482.574	6080.59
482.778	6084.69
482.983	6123.6
483.187	6146.12
483.391	5996.62
483.595	6094.93
483.8	6062.16
484.004	6209.61
484.208	6103.12
484.412	6193.23
484.616	6068.3
484.821	6197.32
485.025	6053.97
485.229	6068.3
485.433	5937.23
485.637	6084.69
485.841	6010.96
486.045	5980.24
486.249	6070.35
486.453	6027.34
486.657	6129.74
486.861	6053.97
487.065	5935.18
487.269	6010.96
487.473	5830.74
487.677	6031.44
487.881	6025.29
488.085	6053.97
488.289	6021.2
488.493	6072.4
488.697	6142.03
488.901	6219.85
489.105	6025.29
489.309	6094.93
489.512	6178.89
489.716	6000.72
489.92	6019.15
490.124	6053.97
490.328	6107.21
490.531	6049.87
490.735	6242.38
490.939	6258.76
491.143	6234.19
491.346	6033.49
491.55	6275.15
491.754	6174.8
491.958	6072.4
492.161	6277.19
492.365	6383.69
492.569	6441.03
492.772	6199.37
492.976	6355.02
493.18	6408.26
493.383	6467.66
493.587	6492.23
493.79	6504.52
493.994	6488.14
494.197	6641.73
494.401	6674.5
494.605	6516.81
494.808	6752.32
495.012	6787.14
495.215	6666.31
495.419	6764.61
495.622	6697.03
495.825	6740.04
496.029	6946.88
496.232	6975.55
496.436	6914.11
496.639	7108.67
496.843	6926.4
497.046	7303.23
497.249	7303.23
497.453	7417.91
497.656	7254.08
497.859	7460.92
498.063	7475.26
498.266	7602.23
498.469	7598.13
498.673	7561.27
498.876	7854.13
499.079	7847.99
499.282	7688.25
499.485	8077.36
499.689	7950.39
499.892	8214.57
500.095	8206.38
500.298	8396.84
500.501	7989.3
500.705	8634.41
500.908	8540.2
501.111	8763.43
501.314	8581.16
501.517	8736.81
501.72	8947.75
501.923	8933.41
502.126	9076.77
502.329	9146.4
502.532	9242.65
502.735	9392.16
502.938	9383.96
503.141	9492.51
503.344	9902.1
503.547	9709.59
503.75	9836.56
503.953	9945.11
504.156	9969.68
504.359	10100.75
504.562	10209.29
504.765	10412.04
504.968	10569.74
505.17	10360.84
505.373	10620.94
505.576	10926.08
505.779	10944.52
505.982	10883.08
506.185	10967.04
506.387	11165.7
506.59	11327.49
506.793	11350.01
506.996	11302.91
507.198	11866.1
507.401	11524.09
507.604	11732.98
507.807	11988.98
508.009	11970.55
508.212	12142.58
508.415	12271.6
508.617	12306.41
508.82	12466.16
509.022	12476.4
509.225	12754.92
509.428	13029.35
509.63	13152.23
509.833	13381.6
510.035	13426.65
510.238	13260.77
510.44	13553.63
510.643	13559.77
510.845	13746.14
511.048	13875.16
511.25	14112.72
511.453	13989.85
511.655	14565.32
511.858	14577.61
512.06	14329.81
512.262	14634.96
512.465	14479.31
512.667	14753.74
512.87	15058.88
513.072	15097.8
513.274	15361.98
513.477	15593.4
513.679	15579.07
513.881	15767.48
514.084	15718.33
514.286	15847.35
514.488	16256.95
514.69	16560.05
514.893	16598.96
515.095	16533.42
515.297	17035.17
515.499	16682.92
515.701	16926.63
515.904	16875.43
516.106	17102.76
516.308	17352.61
516.51	17534.88
516.712	17504.16
516.914	17856.41
517.116	17993.62
517.318	17967
517.52	18065.3
517.722	18288.53
517.925	18397.07
518.127	18495.38
518.329	18812.81
518.531	18620.3
518.733	18972.55
518.935	19140.49
519.136	19222.41
519.338	19328.9
519.54	19392.39
519.742	19543.94
519.944	19804.03
520.146	19984.25
520.348	20174.71
520.55	20139.9
520.752	19959.67
520.954	20467.57
521.155	20477.81
521.357	20633.46
521.559	20791.15
521.761	20791.15
521.963	20946.8
522.164	21190.5
522.366	21450.6
522.568	21098.34
522.77	21391.2
522.971	21823.33
523.173	21170.02
523.375	21417.83
523.576	21616.48
523.778	21618.53
523.98	21921.63
524.181	21862.24
524.383	21976.92
524.584	22308.69
524.786	21972.83
524.988	22138.71
525.189	22247.26
525.391	22437.72
525.592	22638.42
525.794	22511.44
525.995	22423.38
526.197	22767.44
526.398	22619.99
526.6	22785.87
526.801	22427.48
527.003	22945.61
527.204	22636.37
527.406	22902.61
527.607	22722.38
527.808	22968.14
528.01	22681.42
528.211	22982.48
528.412	23328.58
528.614	23121.74
528.815	22863.69
529.016	23045.96
529.218	23183.18
529.419	22720.34
529.62	23066.44
529.822	22888.27
530.023	22974.28
530.224	22744.91
530.425	22822.73
530.626	22816.59
530.828	22716.24
531.029	23234.38
531.23	22873.93
531.431	22693.71
531.632	23111.5
531.833	23048.01
532.035	22962
532.236	23056.2
532.437	23222.09
532.638	22746.96
532.839	22996.81
533.04	22951.76
533.241	22466.39
533.442	23068.49
533.643	22812.49
533.844	22980.43
534.045	22904.65
534.246	22966.09
534.447	22845.26
534.648	22886.22
534.849	22407
535.05	22527.83
535.251	22880.08
535.451	22792.01
535.652	22894.41
535.853	22632.27
536.054	22658.9
536.255	22468.44
536.456	22245.21
536.657	22622.03
536.857	22396.76
537.058	22169.43
537.259	22738.77
537.46	22671.18
537.66	22478.68
537.861	22392.66
538.062	22335.32
538.263	22404.95
538.463	22359.89
538.664	22183.77
538.865	22138.71
539.065	22452.05
539.266	22187.86
539.466	22130.52
539.667	21874.52
539.868	22196.06
540.068	22083.42
540.269	22132.57
540.469	22445.91
540.67	22114.14
540.87	22099.8
541.071	22216.54
541.271	21919.58
541.472	22120.28
541.672	21849.95
541.873	22034.27
542.073	21843.81
542.274	22021.98
542.474	21841.76
542.675	21895
542.875	21985.12
543.075	21796.7
543.276	21628.77
543.476	22337.37
543.676	21790.56
543.877	21944.16
544.077	21782.37
544.277	21776.22
544.478	21972.83
544.678	21829.47
544.878	22021.98
545.078	22011.74
545.279	21479.27
545.479	21630.82
545.679	21794.65
545.879	21667.68
546.079	21682.02
546.28	21708.64
546.48	21772.13
546.68	21833.57
546.88	21921.63
547.08	21571.43
547.28	21804.89
547.48	21413.73
547.68	21876.57
547.88	21897.05
548.081	22019.93
548.281	21639.01
548.481	21669.73
548.681	21985.12
548.881	21682.02
549.081	22036.31
549.28	21569.38
549.48	21839.71
549.68	21907.29
549.88	21938.01
550.08	21657.44
550.28	21692.26
550.48	21772.13
550.68	21882.72
550.88	21862.24
551.08	22001.5
551.279	22007.64
551.479	21661.54
551.679	21911.39
551.879	21770.08
552.079	22017.88
552.278	21987.16
552.478	22042.46
552.678	21655.39
552.878	21970.78
553.077	21882.72
553.277	21792.61
553.477	22157.14
553.676	21866.33
553.876	22118.23
554.076	22067.03
554.275	21919.58
554.475	21630.82
554.674	21870.43
554.874	21825.37
555.074	21751.65
555.273	22015.83
555.473	22155.1
555.672	21966.68
555.872	21768.03
556.071	22107.99
556.271	22210.39
556.47	22069.08
556.67	21919.58
556.869	22112.09
557.068	22142.81
557.268	21817.18
557.467	22359.89
557.667	22159.19
557.866	22167.38
558.065	22089.56
558.265	21671.78
558.464	21792.61
558.663	22087.51
558.863	21794.65
559.062	21997.4
559.261	21806.94
559.461	22261.59
559.66	22009.69
559.859	22191.96
560.058	21821.28
560.258	22046.55
560.457	21841.76
560.656	22202.2
560.855	21993.31
561.054	22171.48
561.253	21798.75
561.453	22007.64
561.652	22042.46
561.851	21872.48
562.05	21983.07
562.249	21473.12
562.448	21823.33
562.647	21829.47
562.846	21929.82
563.045	21913.44
563.244	21901.15
563.443	22105.95
563.642	21714.78
563.841	21743.45
564.04	21661.54
564.239	22105.95
564.438	21813.09
564.637	21768.03
564.836	22024.03
565.035	21845.85
565.234	21720.93
565.432	21665.63
565.631	21712.74
565.83	21989.21
566.029	21489.51
566.228	21780.32
566.427	21624.67
566.625	21286.76
566.824	21376.87
567.023	21503.84
567.222	21337.96
567.42	21552.99
567.619	21274.47
567.818	21516.13
568.016	21251.94
568.215	21294.95
568.414	21129.06
568.612	21372.77
568.811	21022.57
569.01	21329.77
569.208	20762.48
569.407	21430.12
569.605	20889.45
569.804	21370.72
570.002	20901.74
570.201	21073.77
570.4	20936.56
570.598	20688.75
570.797	20789.1
570.995	21032.81
571.193	20545.39
571.392	20715.37
571.59	20479.86
571.789	20701.04
571.987	20502.39
572.186	20674.42
572.384	20174.71
572.582	20565.87
572.781	20666.22
572.979	20438.9
573.177	20180.85
573.376	20295.54
573.574	20164.47
573.772	20369.27
573.971	20117.37
574.169	19984.25
574.367	19664.77
574.565	20107.13
574.763	19881.85
574.962	19642.24
575.16	19703.68
575.358	19832.7
575.556	19539.84
575.754	19939.19
575.952	19558.27
576.151	19820.41
576.349	19480.45
576.547	19380.1
576.745	19312.52
576.943	19244.93
577.141	19167.11
577.339	19193.73
577.537	19365.76
577.735	19171.21
577.933	18990.98
578.131	19046.28
578.329	19025.8
578.527	19060.62
578.725	18980.75
578.923	19095.43
579.121	19064.71
579.319	18775.95
579.516	18878.35
579.714	18808.72
579.912	18937.74
580.11	18476.94
580.308	18704.27
580.506	18384.79
580.704	18161.56
580.901	18319.25
581.099	18530.19
581.297	18247.57
581.495	18345.87
581.692	18464.66
581.89	18208.66
582.088	18280.34
582.285	17987.48
582.483	18036.63
582.681	17995.67
582.878	17811.35
583.076	17846.17
583.274	17923.99
583.471	17880.99
583.669	17717.15
583.866	17799.07
584.064	17835.93
584.262	17561.5
584.459	17700.76
584.657	17682.33
584.854	17797.02
585.052	17491.87
585.249	17487.78
585.447	17604.51
585.644	17610.65
585.841	17246.12
586.039	17514.4
586.236	17262.5
586.434	17217.44
586.631	17180.58
586.828	17215.4
587.026	17186.72
587.223	16981.93
587.42	16897.96
587.618	16854.95
587.815	17096.61
588.012	16830.38
588.21	16897.96
588.407	16996.26
588.604	17014.7
588.801	16756.65
588.999	16797.61
589.196	16658.35
589.393	16709.55
589.59	16723.88
589.787	16646.06
589.984	16709.55
590.182	16400.3
590.379	16555.95
590.576	16537.52
590.773	16447.41
590.97	16420.78
591.167	16330.67
591.364	16297.91
591.561	16558
591.758	16181.17
591.955	16185.27
592.152	16117.68
592.349	16220.08
592.546	16244.66
592.743	15859.64
592.94	16093.11
593.137	16072.63
593.334	16115.64
593.531	15888.31
593.727	16132.02
593.924	16054.2
594.121	15630.27
594.318	15996.85
594.515	15763.39
594.712	16068.53
594.908	15966.14
595.105	15988.66
595.302	15724.47
595.499	16093.11
595.696	15767.48
595.892	15482.81
596.089	15695.8
596.286	15654.84
596.482	15564.73
596.679	15982.52
596.876	15790.01
597.072	15714.23
597.269	15744.95
597.466	15712.19
597.662	15689.66
597.859	15480.77
598.055	15765.43
598.252	15601.6
598.448	15540.16
598.645	15464.38
598.841	15536.06
599.038	15495.1
599.234	15587.26
599.431	15327.17
599.627	15310.79
599.824	15816.63
600.02	15282.11
600.217	15300.55
600.413	15280.07
600.609	15036.36
600.806	15579.07
601.002	15181.76
601.198	15282.11
601.395	15392.7
601.591	15538.11
601.787	15425.47
601.984	15450.05
602.18	15540.16
602.376	15265.73
602.572	15198.15
602.769	15466.43
602.965	15058.88
603.161	15574.97
603.357	15329.22
603.553	15527.87
603.75	15425.47
603.946	14962.63
604.142	15353.79
604.338	15321.02
604.534	15118.28
604.73	15384.51
604.926	15343.55
605.122	15704
605.318	15366.08
605.514	15140.8
605.71	15245.25
605.906	15292.35
606.102	15300.55
606.298	15413.18
606.494	15292.35
606.69	15337.41
606.886	15318.98
607.082	15144.9
607.278	15441.86
607.474	15232.96
607.67	15458.24
607.866	15306.69
608.062	15550.4
608.257	15413.18
608.453	15425.47
608.649	15491.01
608.845	15173.57
609.041	15335.36
609.236	15605.69
609.432	15493.05
609.628	15482.81
609.824	15445.95
610.019	15474.62
610.215	15400.9
610.411	15763.39
610.606	15402.94
610.802	15613.88
610.998	15409.09
611.193	15585.21
611.389	15560.64
611.584	15464.38
611.78	15534.01
611.976	15577.02
612.171	15878.07
612.367	15685.56
612.562	15400.9
612.758	15034.31
612.953	15392.7
613.149	15865.78
613.344	15251.39
613.539	15775.67
613.735	15685.56
613.93	15427.52
614.126	15486.91
614.321	15585.21
614.517	15814.59
614.712	15572.93
614.907	15441.86
615.103	15744.95
615.298	15675.32
615.493	15613.88
615.688	15306.69
615.884	15816.63
616.079	15474.62
616.274	15646.65
616.47	15675.32
616.665	15736.76
616.86	15462.33
617.055	15531.97
617.25	15574.97
617.445	15896.5
617.641	15300.55
617.836	15736.76
618.031	15382.46
618.226	15427.52
618.421	15579.07
618.616	15556.54
618.811	15200.19
619.006	15663.04
619.201	15265.73
619.396	15321.02
619.591	14972.87
619.786	15458.24
619.981	14923.72
620.176	15040.45
620.371	14901.19
620.566	14880.71
620.761	15036.36
620.956	15151.04
621.151	14677.96
621.346	14847.94
621.541	14815.18
621.735	14790.6
621.93	14843.85
622.125	14669.77
622.32	14168.02
622.515	14718.92
622.709	14645.2
622.904	14532.56
623.099	14446.54
623.294	14020.56
623.488	14194.64
623.683	14174.16
623.878	13998.04
624.072	14276.56
624.267	13856.73
624.462	13793.24
624.656	13840.34
624.851	14051.28
625.046	13582.3
625.24	13572.06
625.435	13500.38
625.629	13602.78
625.824	13524.96
626.018	13359.07
626.213	13178.85
626.407	13340.64
626.602	12914.66
626.796	13107.17
626.991	13098.98
627.185	13004.77
627.38	13049.83
627.574	12806.12
627.768	12898.28
627.963	12861.41
628.157	12808.17
628.352	12695.53
628.546	12421.1
628.74	12679.15
628.935	12290.03
629.129	12455.92
629.323	12261.36
629.517	12167.15
629.712	12384.24
629.906	12232.69
630.1	11927.54
630.294	12253.17
630.489	11898.87
630.683	12181.49
630.877	11859.96
631.071	11845.62
631.265	12019.7
631.459	11696.12
631.653	11696.12
631.848	11671.54
632.042	11476.99
632.236	11845.62
632.43	11425.79
632.624	11546.62
632.818	11403.26
633.012	11194.37
633.206	11186.18
633.4	11276.29
633.594	10883.08
633.788	10924.04
633.982	11182.08
634.176	10999.81
634.369	10842.12
634.563	10758.15
634.757	10819.59
634.951	10590.22
635.145	10887.17
635.339	10547.21
635.533	10475.53
635.726	10719.24
635.92	10477.58
636.114	10381.32
636.308	10358.8
636.501	10319.89
636.695	10256.4
636.889	10209.29
637.083	10051.6
637.276	10108.94
637.47	10072.08
637.664	9809.94
637.857	10002.45
638.051	9846.8
638.244	9818.13
638.438	9711.64
638.632	9687.06
638.825	9623.58
639.019	9527.32
639.212	9617.43
639.406	9515.03
639.599	9486.36
639.793	9353.24
639.986	9177.12
640.18	9369.63
640.373	9113.63
640.567	9041.95
640.76	9195.55
640.954	9072.67
641.147	9101.34
641.34	8986.66
641.534	9023.52
641.727	8968.23
641.92	8812.58
642.114	8869.92
642.307	8790.05
642.5	8669.22
642.694	8472.62
642.887	8525.86
643.08	8640.55
643.273	8435.75
643.467	8495.15
643.66	8364.08
643.853	8222.77
644.046	8249.39
644.239	8237.1
644.432	8331.31
644.626	8196.14
644.819	8128.56
645.012	7958.58
645.205	7974.96
645.398	7927.86
645.591	7651.38
645.784	7825.46
645.977	7790.64
646.17	7721.01
646.363	7712.82
646.556	7637.05
646.749	7673.91
646.942	7782.45
647.135	7571.51
647.328	7577.66
647.521	7358.52
647.714	7460.92
647.907	7428.15
648.099	7307.32
648.292	7381.05
648.485	7305.28
648.678	7270.46
648.871	7231.55
649.064	7125.05
649.256	6942.78
649.449	7059.52
649.642	6977.6
649.835	7041.09
650.027	6944.83
650.22	6977.6
650.413	6897.73
650.605	6830.15
650.798	6766.66
650.991	6764.61
651.183	6774.85
651.376	6672.45
651.568	6830.15
651.761	6592.58
651.954	6647.88
652.146	6408.26
652.339	6535.24
652.531	6481.99
652.724	6398.03
652.916	6414.41
653.109	6250.57
653.301	6393.93
653.494	6275.15
653.686	6176.84
653.879	6287.43
654.071	6070.35
654.263	6135.89
654.456	6264.91
654.648	6041.68
654.84	6127.69
655.033	5935.18
655.225	5984.34
655.417	6127.69
655.61	6074.45
655.802	5949.52
655.994	5924.94
656.186	5781.59
656.379	5808.21
656.571	5730.39
656.763	5521.49
656.955	5681.24
657.148	5914.7
657.34	5615.7
657.532	5535.83
657.724	5482.58
657.916	5578.84
658.108	5541.97
658.3	5636.18
658.492	5380.18
658.684	5525.59
658.876	5345.37
659.068	5361.75
659.26	5290.07
659.452	5337.18
659.644	5318.75
659.836	5173.34
660.028	5279.83
660.22	5050.46
660.412	5173.34
660.604	5107.8
660.796	5040.22
660.988	4929.63
661.18	5111.9
661.372	4986.97
661.563	4989.02
661.755	4896.86
661.947	4972.64
662.139	4878.43
662.331	4825.19
662.522	4745.31
662.714	4749.41
662.906	4722.79
663.097	4737.12
663.289	4675.68
663.481	4730.98
663.673	4819.04
663.864	4644.96
664.056	4620.39
664.247	4507.75
664.439	4554.85
664.631	4651.11
664.822	4423.78
665.014	4366.44
665.205	4458.6
665.397	4411.5
665.588	4450.41
665.78	4479.08
665.971	4509.8
666.163	4345.96
666.354	4329.58
666.546	4243.56
666.737	4296.81
666.929	4118.64
667.12	4313.19
667.311	4149.36
667.503	4214.89
667.694	4302.95
667.885	4223.08
668.077	4300.91
668.268	4067.44
668.459	4118.64
668.651	4038.77
668.842	4094.06
669.033	3954.8
669.224	3917.93
669.416	4028.53
669.607	3993.71
669.798	3821.68
669.989	3879.02
670.18	3995.76
670.371	3876.98
670.563	3813.49
670.754	3965.04
670.945	3739.76
671.136	3754.1
671.327	3805.3
671.518	3797.1
671.709	3907.7
671.9	3739.76
672.091	3850.35
672.282	3684.47
672.473	3551.35
672.664	3795.06
672.855	3666.03
673.046	3610.74
673.237	3694.71
673.428	3571.83
673.619	3666.03
673.809	3553.4
674	3577.97
674.191	3614.84
674.382	3502.2
674.573	3477.62
674.764	3547.25
674.954	3453.05
675.145	3350.65
675.336	3391.61
675.527	3461.24
675.717	3451
675.908	3412.09
676.099	3283.06
676.289	3446.9
676.48	3420.28
676.671	3321.98
676.861	3379.32
677.052	3393.65
677.243	3285.11
677.433	3340.41
677.624	3305.59
677.814	3313.78
678.005	3166.33
678.195	3330.17
678.386	3328.12
678.576	3229.82
678.767	3145.85
678.957	3233.91
679.148	3207.29
679.338	3256.44
679.529	3137.66
679.719	3174.52
679.909	3213.43
680.1	3178.62
680.29	3244.15
680.481	3080.32
680.671	3133.56
680.861	3092.6
681.052	3111.04
681.242	3055.74
681.432	3176.57
681.622	3076.22
681.813	3059.84
682.003	2977.92
682.193	3018.88
682.383	3199.1
682.573	3149.95
682.764	3088.51
682.954	2936.96
683.144	3039.36
683.334	2949.25
683.524	3018.88
683.714	2969.73
683.904	2846.85
684.094	2924.67
684.284	3049.6
684.474	2908.29
684.664	2977.92
684.854	2986.11
685.044	2939.01
685.234	2801.79
685.424	2986.11
685.614	2883.71
685.804	3020.92
685.994	2969.73
686.184	2781.31
686.374	2769.02
686.564	2842.75
686.753	2723.97
686.943	2846.85
687.133	2906.24
687.323	2822.27
687.513	2801.79
687.702	2848.9
687.892	2658.43
688.082	2871.42
688.272	2756.74
688.461	2793.6
688.651	2775.17
688.841	2683.01
689.03	2703.49
689.22	2709.63
689.41	2701.44
689.599	2756.74
689.789	2838.66
689.979	2740.35
690.168	2615.43
690.358	2687.11
690.547	2584.71
690.737	2764.93
690.926	2764.93
691.116	2715.78
691.305	2644.1
691.495	2691.2
691.684	2621.57
691.874	2640
692.063	2607.23
692.252	2658.43
692.442	2717.83
692.631	2424.97
692.82	2607.23
693.01	2502.79
693.199	2427.01
693.388	2490.5
693.578	2461.83
693.767	2584.71
693.956	2459.78
694.146	2457.73
694.335	2513.03
694.524	2435.21
694.713	2527.36
694.902	2488.45
695.092	2404.49
695.281	2523.27
695.47	2404.49
695.659	2527.36
695.848	2551.94
696.037	2437.25
696.226	2601.09
696.415	2404.49
696.604	2379.91
696.793	2496.64
696.982	2388.1
697.171	2424.97
697.36	2410.63
697.549	2314.38
697.738	2269.32
697.927	2412.68
698.116	2297.99
698.305	2332.81
698.494	2412.68
698.683	2252.94
698.872	2482.31
699.061	2357.38
699.25	2199.69
699.438	2355.33
699.627	2320.52
699.816	2373.77
700.005	2254.98
700.193	2314.38
700.382	2267.27
700.571	2265.22
700.76	2257.03
700.948	2351.24
701.137	2275.46
701.326	2322.57
701.514	2259.08
701.703	2195.59
701.892	2259.08
702.08	2242.7
702.269	2207.88
702.457	2183.31
702.646	2158.73
702.834	2193.55
703.023	2140.3
703.212	2289.8
703.4	2338.95
703.589	2359.43
703.777	2154.63
703.965	2166.92
704.154	2152.59
704.342	2168.97
704.531	2234.5
704.719	2074.76
704.907	2211.98
705.096	2134.15
705.284	2177.16
705.472	2003.08
705.661	2076.81
705.849	2101.39
706.037	2046.09
706.226	2201.74
706.414	2037.9
706.602	2005.13
706.79	1992.84
706.979	2046.09
707.167	2115.72
707.355	2078.86
707.543	2023.56
707.731	1958.03
707.919	2037.9
708.107	1988.75
708.296	1933.45
708.484	1974.41
708.672	1955.98
708.86	1986.7
709.048	1937.55
709.236	1972.36
709.424	1923.21
709.612	1996.94
709.8	1900.69
709.988	1976.46
710.176	1894.54
710.364	1908.88
710.551	1867.92
710.739	1964.17
710.927	1798.29
711.115	1890.45
711.303	1947.79
711.491	1900.69
711.679	1953.93
711.866	1880.21
712.054	1833.1
712.242	1849.49
712.43	1945.74
712.617	1781.9
712.805	1837.2
712.993	1861.77
713.181	1769.62
713.368	1888.4
713.556	1818.77
713.744	1753.23
713.931	1865.87
714.119	1783.95
714.306	1872.01
714.494	1767.57
714.682	1794.19
714.869	1654.93
715.057	1742.99
715.244	1638.55
715.432	1736.85
715.619	1755.28
715.807	1728.66
715.994	1767.57
716.182	1681.55
716.369	1699.98
716.556	1618.07
716.744	1681.55
716.931	1605.78
717.119	1728.66
717.306	1726.61
717.493	1699.98
717.681	1669.27
717.868	1548.44
718.055	1720.46
718.242	1718.42
718.43	1622.16
718.617	1659.03
718.804	1644.69
718.991	1642.64
719.179	1613.97
719.366	1538.2
719.553	1622.16
719.74	1564.82
719.927	1573.01
720.114	1523.86
720.301	1530
720.488	1507.48
720.676	1589.39
720.863	1570.96
721.05	1591.44
721.237	1765.52
721.424	1497.24
721.611	1583.25
721.798	1462.42
721.985	1546.39
722.172	1607.83
722.358	1478.8
722.545	1607.83
722.732	1538.2
722.919	1462.42
723.106	1544.34
723.293	1417.37
723.48	1601.68
723.667	1460.37
723.853	1501.33
724.04	1605.78
724.227	1415.32
724.414	1476.76
724.6	1388.69
724.787	1423.51
724.974	1374.36
725.161	1407.13
725.347	1462.42
725.534	1450.13
725.72	1429.65
725.907	1433.75
726.094	1405.08
726.28	1355.93
726.467	1317.01
726.653	1286.3
726.84	1458.32
727.027	1446.04
727.213	1407.13
727.4	1341.59
727.586	1282.2
727.773	1398.93
727.959	1286.3
728.145	1341.59
728.332	1302.68
728.518	1400.98
728.705	1314.97
728.891	1331.35
729.077	1357.97
729.264	1183.9
729.45	1286.3
729.636	1300.63
729.823	1267.86
730.009	1267.86
730.195	1212.57
730.382	1321.11
730.568	1233.05
730.754	1233.05
730.94	1239.19
731.126	1284.25
731.313	1257.62
731.499	1251.48
731.685	1308.82
731.871	1187.99
732.057	1237.14
732.243	1292.44
732.429	1314.97
732.615	1298.58
732.801	1212.57
732.987	1251.48
733.173	1251.48
733.359	1218.71
733.545	1274.01
733.731	1126.55
733.917	1259.67
734.103	1153.18
734.289	1216.66
734.475	1237.14
734.661	1259.67
734.847	1161.37
735.033	1208.47
735.219	1142.94
735.404	1216.66
735.59	1167.51
735.776	1175.7
735.962	1253.53
736.148	1249.43
736.333	1202.33
736.519	1206.42
736.705	1147.03
736.89	1069.21
737.076	1204.38
737.262	1101.98
737.447	1132.7
737.633	987.29
737.819	1069.21
738.004	1130.65
738.19	1026.2
738.375	1095.83
738.561	1122.46
738.747	1120.41
738.932	1011.87
739.118	1044.63
739.303	1083.55
739.489	1065.11
739.674	1042.59
739.859	1015.96
740.045	1144.99
740.23	1040.54
740.416	1085.59
740.601	1077.4
740.786	1040.54
740.972	1013.92
741.157	1007.77
741.342	991.39
741.528	1011.87
741.713	1118.36
741.898	1005.72
742.084	1040.54
742.269	979.1
742.454	1079.45
742.639	954.52
742.824	1085.59
743.01	946.33
743.195	1128.6
743.38	1015.96
743.565	954.52
743.75	987.29
743.935	983.2
744.12	1036.44
744.305	948.38
744.49	970.91
744.675	921.76
744.86	921.76
745.045	876.7
745.23	833.69
745.415	872.61
745.6	972.96
745.785	954.52
745.97	979.1
746.155	850.08
746.34	970.91
746.525	884.89
746.71	934.04
746.895	888.99
747.079	839.84
747.264	874.65
747.449	886.94
747.634	848.03
747.819	934.04
748.003	719.01
748.188	766.11
748.373	778.4
748.557	839.84
748.742	868.51
748.927	839.84
749.111	780.45
749.296	735.39
749.481	917.66
749.665	790.69
749.85	759.97
750.034	764.06
750.219	790.69
750.404	809.12
750.588	762.02
750.773	766.11
750.957	733.34
751.141	708.77
751.326	762.02
751.51	678.05
751.695	704.67
751.879	768.16
752.064	688.29
752.248	719.01
752.432	766.11
752.617	790.69
752.801	725.15
752.985	678.05
753.17	794.78
753.354	700.58
753.538	598.18
753.722	690.34
753.907	678.05
754.091	594.08
754.275	712.86
754.459	628.9
754.643	626.85
754.828	714.91
755.012	692.38
755.196	676
755.38	676
755.564	598.18
755.748	645.28
755.932	696.48
756.116	628.9
756.3	712.86
756.484	577.7
756.668	585.89
756.852	645.28
757.036	641.18
757.22	594.08
757.404	575.65
757.588	557.22
757.772	635.04
757.956	612.51
758.14	647.33
758.323	610.47
758.507	573.6
758.691	549.03
758.875	583.84
759.059	694.43
759.242	503.97
759.426	585.89
759.61	514.21
759.794	559.27
759.977	520.35
760.161	589.99
760.345	553.12
760.528	612.51
760.712	499.88
760.895	555.17
761.079	520.35
761.263	503.97
761.446	522.4
761.63	508.07
761.813	573.6
761.997	536.74
762.18	444.58
762.364	526.5
762.547	372.9
762.731	458.92
762.914	465.06
763.098	555.17
763.281	540.83
763.464	469.16
763.648	374.95
763.831	454.82
764.015	555.17
764.198	522.4
764.381	512.16
764.564	489.64
764.748	495.78
764.931	409.76
765.114	495.78
765.297	538.79
765.481	460.96
765.664	448.68
765.847	524.45
766.03	467.11
766.213	456.87
766.397	448.68
766.58	456.87
766.763	495.78
766.946	350.37
767.129	479.4
767.312	438.44
767.495	391.33
767.678	424.1
767.861	442.53
768.044	522.4
768.227	424.1
768.41	448.68
768.593	473.25
768.776	434.34
768.959	417.96
769.142	503.97
769.324	387.24
769.507	446.63
769.69	417.96
769.873	366.76
770.056	594.08
770.239	477.35
770.421	497.83
770.604	456.87
770.787	413.86
770.97	508.07
771.152	397.48
771.335	366.76
771.518	405.67
771.7	436.39
771.883	471.2
772.066	483.49
772.248	385.19
772.431	432.29
772.613	434.34
772.796	358.57
772.978	446.63
773.161	524.45
773.343	387.24
773.526	389.28
773.708	317.61
773.891	340.13
774.073	348.33
774.256	399.52
774.438	454.82
774.621	426.15
774.803	417.96
774.985	411.81
775.168	471.2
775.35	303.27
775.532	405.67
775.715	276.65
775.897	432.29
776.079	315.56
776.261	342.18
776.444	432.29
776.626	487.59
776.808	356.52
776.99	311.46
777.173	442.53
777.355	336.04
777.537	356.52
777.719	311.46
777.901	299.17
778.083	282.79
778.265	329.89
778.447	364.71
778.629	303.27
778.811	366.76
778.993	311.46
779.175	364.71
779.357	336.04
779.539	247.97
779.721	315.56
779.903	307.37
780.085	323.75
780.267	340.13
780.449	299.17
780.631	331.94
780.812	290.98
780.994	276.65
781.176	290.98
781.358	250.02
781.54	282.79
781.721	274.6
781.903	299.17
782.085	290.98
782.267	270.5
782.448	239.78
782.63	235.69
782.812	327.85
782.993	286.89
783.175	200.87
783.357	274.6
783.538	250.02
783.72	209.06
783.901	209.06
784.083	168.1
784.264	284.84
784.446	241.83
784.627	143.53
784.809	280.74
784.99	278.69
785.172	286.89
785.353	233.64
785.535	235.69
785.716	290.98
785.897	196.78
786.079	190.63
786.26	241.83
786.441	200.87
786.623	161.96
786.804	211.11
786.985	219.3
787.167	307.37
787.348	200.87
787.529	225.45
787.71	325.8
787.891	250.02
788.073	209.06
788.254	178.34
788.435	243.88
788.616	262.31
788.797	147.62
788.978	245.93
789.159	215.21
789.34	254.12
789.522	200.87
789.703	200.87
789.884	254.12
790.065	227.5
790.246	266.41
790.427	176.3
790.607	241.83
790.788	168.1
790.969	155.82
791.15	151.72
791.331	174.25
791.512	190.63
791.693	114.86
791.874	143.53
792.054	229.54
792.235	231.59
792.416	118.95
792.597	159.91
792.778	250.02
792.958	225.45
793.139	213.16
793.32	131.24
793.5	88.23
793.681	243.88
793.862	170.15
794.042	86.19
794.223	114.86
794.404	168.1
794.584	200.87
794.765	135.34
794.945	114.86
795.126	225.45
795.306	153.77
795.487	116.9
795.667	110.76
795.848	204.97
796.028	82.09
796.209	184.49
796.389	127.14
796.57	209.06
796.75	63.66
796.93	123.05
797.111	59.56
797.291	110.76
797.471	123.05
797.652	77.99
797.832	143.53
798.012	151.72
798.192	159.91
798.373	123.05
798.553	94.38
798.733	121
798.913	176.3
799.093	192.68
799.274	129.19
799.454	159.91
799.634	180.39
799.814	143.53
799.994	143.53
800.174	170.15
800.354	176.3
800.534	86.19
800.714	151.72
800.894	63.66
801.074	123.05
801.254	77.99
801.434	178.34
801.614	131.24
801.794	129.19
801.974	774.3
802.154	77.99
802.334	168.1
802.514	104.62
802.693	69.8
802.873	77.99
803.053	270.5
803.233	110.76
803.413	121
803.592	57.51
803.772	118.95
803.952	32.94
804.131	41.13
804.311	118.95
804.491	176.3
804.67	82.09
804.85	127.14
805.03	82.09
805.209	176.3
805.389	80.04
805.568	53.42
805.748	49.32
805.928	98.47
806.107	102.57
806.287	164.01
806.466	73.9
806.646	63.66
806.825	161.96
807.004	73.9
807.184	80.04
807.363	65.71
807.543	118.95
807.722	37.03
807.901	108.71
808.081	110.76
808.26	26.79
808.439	127.14
808.619	90.28
808.798	108.71
808.977	96.43
809.156	112.81
809.336	82.09
809.515	104.62
809.694	41.13
809.873	102.57
810.052	61.61
810.231	118.95
810.411	88.23
810.59	118.95
810.769	32.94
810.948	139.43
811.127	4.27
811.306	12.46
811.485	110.76
811.664	65.71
811.843	100.52
812.022	100.52
812.201	121
812.38	73.9
812.559	37.03
812.737	151.72
812.916	28.84
813.095	65.71
813.274	47.27
813.453	90.28
813.632	37.03
813.811	28.84
813.989	57.51
814.168	94.38
814.347	39.08
814.526	8.36
814.704	151.72
814.883	94.38
815.062	45.23
815.24	137.38
815.419	16.55
815.598	139.43
815.776	37.03
815.955	121
816.133	20.65
816.312	45.23
816.49	125.1
816.669	123.05
816.847	59.56
817.026	61.61
817.204	-1.88
817.383	57.51
817.561	71.85
817.74	69.8
817.918	53.42
818.097	41.13
818.275	37.03
818.453	106.67
818.632	110.76
818.81	34.99
818.988	53.42
819.167	55.47
819.345	86.19
819.523	8.36
819.701	20.65
819.879	80.04
820.058	82.09
820.236	49.32
820.414	104.62
820.592	16.55
820.77	102.57
820.948	-16.21
821.127	65.71
821.305	69.8
821.483	28.84
821.661	98.47
821.839	77.99
822.017	47.27
822.195	114.86
822.373	143.53
822.551	55.47
822.729	47.27
822.907	34.99
823.085	32.94
823.262	94.38
823.44	61.61
823.618	57.51
823.796	12.46
823.974	53.42
824.152	37.03
824.329	84.14
824.507	114.86
824.685	127.14
824.863	69.8
825.04	20.65
825.218	4.27
825.396	53.42
825.574	43.18
825.751	24.75
825.929	53.42
826.107	0.17
826.284	12.46
826.462	-61.27
826.639	69.8
826.817	0.17
826.994	39.08
827.172	39.08
827.349	90.28
827.527	96.43
827.704	61.61
827.882	24.75
828.059	112.81
828.237	0.17
828.414	84.14
828.591	10.41
828.769	102.57
828.946	53.42
829.124	41.13
829.301	55.47
829.478	61.61
829.655	57.51
829.833	88.23
830.01	-61.27
830.187	51.37
830.364	73.9
830.542	45.23
830.719	75.95
830.896	32.94
831.073	73.9
831.25	80.04
831.427	53.42
831.604	80.04
831.782	-12.12
831.959	53.42
832.136	65.71
832.313	57.51
832.49	-12.12
832.667	45.23
832.844	28.84
833.021	57.51
833.198	69.8
833.374	67.75
833.551	32.94
833.728	-20.31
833.905	41.13
834.082	14.51
834.259	-10.07
834.436	37.03
834.612	-24.4
834.789	80.04
834.966	53.42
835.143	20.65
835.319	-24.4
835.496	30.89
835.673	-3.93
835.85	73.9
836.026	61.61
836.203	12.46
836.38	-38.74
836.556	-12.12
836.733	45.23
836.909	118.95
837.086	2.22
837.262	28.84
837.439	47.27
837.616	-26.45
837.792	45.23
837.968	55.47
838.145	18.6
838.321	45.23
838.498	55.47
838.674	-14.17
838.851	47.27
839.027	-16.21
839.203	45.23
839.38	4.27
839.556	-28.5
839.732	-1.88
839.909	53.42
840.085	67.75
840.261	-36.69
840.437	0.17
840.614	28.84
840.79	6.31
840.966	59.56
841.142	14.51
841.318	32.94
841.494	53.42
841.671	94.38
841.847	-24.4
842.023	28.84
842.199	61.61
842.375	45.23
842.551	12.46
842.727	-48.98
842.903	6.31
843.079	55.47
843.255	61.61
843.431	28.84
843.607	112.81
843.783	-51.03
843.959	28.84
844.134	-10.07
844.31	20.65
844.486	-28.5
844.662	127.14
844.838	-1.88
845.013	20.65
845.189	-42.84
845.365	-12.12
845.541	6.31
845.716	0.17
845.892	-51.03
846.068	22.7
846.244	12.46
846.419	-1.88
846.595	4.27
846.77	-18.26
846.946	30.89
847.122	69.8
847.297	24.75
847.473	102.57
847.648	20.65
847.824	-3.93
847.999	-61.27
848.175	57.51
848.35	41.13
848.526	14.51
848.701	32.94
848.876	57.51
849.052	61.61
849.227	-12.12
849.403	-3.93
849.578	-3.93
849.753	16.55
849.929	-3.93
850.104	39.08
850.279	-10.07
850.454	-5.97
850.63	32.94
850.805	41.13
850.98	34.99
851.155	71.85
851.33	-16.21
851.505	-8.02
851.681	-14.17
851.856	-69.46
852.031	63.66
852.206	49.32
852.381	82.09
852.556	-24.4
852.731	-53.08
852.906	-5.97
853.081	-1.88
853.256	41.13
853.431	-40.79
853.606	41.13
853.781	-3.93
853.956	-18.26
854.131	80.04
854.305	-12.12
854.48	-16.21
854.655	-51.03
854.83	-8.02
855.005	-63.32
855.18	14.51
855.354	-24.4
855.529	47.27
855.704	18.6
855.879	-32.6
856.053	28.84
856.228	-26.45
856.403	-53.08
856.577	14.51
856.752	24.75
856.926	57.51
857.101	0.17
857.276	-102.23
857.45	10.41
857.625	57.51
857.799	43.18
857.974	-24.4
858.148	-89.94
858.323	55.47
858.497	0.17
858.672	26.79
858.846	24.75
859.02	14.51
859.195	-24.4
859.369	55.47
859.543	53.42
859.718	24.75
859.892	-18.26
860.066	-1.88
860.241	-81.75
860.415	55.47
860.589	-5.97
860.763	45.23
860.938	34.99
861.112	22.7
861.286	-34.64
861.46	6.31
861.634	53.42
861.808	-1.88
861.982	4.27
862.157	-20.31
862.331	-12.12
862.505	-69.46
862.679	8.36
862.853	-1.88
863.027	-1.88
863.201	24.75
863.375	12.46
863.549	71.85
863.722	-40.79
863.896	-20.31
864.07	-34.64
864.244	-20.31
864.418	45.23
864.592	57.51
864.766	-16.21
864.939	53.42
865.113	-34.64
865.287	86.19
865.461	-28.5
865.634	-26.45
865.808	41.13
865.982	-20.31
866.156	32.94
866.329	-22.36
866.503	8.36
866.676	43.18
866.85	-1.88
867.024	-28.5
867.197	28.84
867.371	-5.97
867.544	26.79
867.718	47.27
867.891	-14.17
868.065	22.7
868.238	4.27
868.412	63.66
868.585	-46.93
868.759	-36.69
868.932	-14.17
869.105	14.51
869.279	-36.69
869.452	-34.64
869.625	-67.41
869.799	-10.07
869.972	-28.5
870.145	-1.88
870.319	28.84
870.492	-53.08
870.665	-12.12
870.838	16.55
871.011	-53.08
871.185	-14.17
871.358	16.55
871.531	14.51
871.704	-34.64
871.877	-40.79
872.05	4.27
872.223	-44.88
872.396	71.85
872.569	-16.21
872.742	-59.22
872.915	14.51
873.088	-44.88
873.261	-57.17
873.434	-8.02
873.607	-18.26
873.78	53.42
873.953	-67.41
874.126	-40.79
874.299	4.27
874.471	-36.69
874.644	-36.69
874.817	20.65
874.99	71.85
875.163	-34.64
875.335	-36.69
875.508	-10.07
875.681	37.03
875.853	-12.12
876.026	18.6
876.199	4.27
876.371	20.65
876.544	-28.5
876.717	37.03
876.889	30.89
877.062	22.7
877.234	-102.23
877.407	-32.6
877.579	-18.26
877.752	-28.5
877.924	-10.07
878.097	12.46
878.269	2.22
878.442	-16.21
878.614	-5.97
878.786	45.23
878.959	0.17
879.131	20.65
879.303	-38.74
879.476	-18.26
879.648	61.61
879.82	-3.93
879.993	-3.93
880.165	-10.07
880.337	-69.46
880.509	6.31
880.681	-44.88
880.854	-8.02
881.026	-67.41
881.198	-40.79
881.37	-34.64
881.542	39.08
881.714	0.17
881.886	45.23
882.058	-57.17
882.23	-18.26
882.402	47.27
882.574	28.84
882.746	43.18
882.918	37.03
883.09	45.23
883.262	22.7
883.434	-18.26
883.606	-32.6
883.778	-18.26
883.95	67.75
884.122	4.27
884.293	86.19
884.465	-16.21
884.637	-8.02
884.809	-26.45
884.98	-59.22
885.152	12.46
885.324	73.9
885.496	-20.31
885.667	-38.74
885.839	-10.07
886.011	28.84
886.182	-3.93
886.354	55.47
886.525	112.81
886.697	22.7
886.869	73.9
887.04	-20.31
887.212	28.84
887.383	-16.21
887.555	12.46
887.726	-12.12
887.897	14.51
888.069	88.23
888.24	-5.97
888.412	61.61
888.583	49.32
888.754	-69.46
888.926	-18.26
889.097	-20.31
889.268	-12.12
889.44	-20.31
889.611	-77.65
889.782	-48.98
889.953	26.79
890.125	49.32
890.296	-69.46
890.467	-1.88
890.638	-53.08
890.809	37.03
890.98	-32.6
891.151	28.84
891.323	55.47
891.494	24.75
891.665	0.17
891.836	28.84
892.007	20.65
892.178	69.8
892.349	-12.12
892.52	-36.69
892.691	32.94
892.862	12.46
893.032	-106.32
893.203	14.51
893.374	4.27
893.545	65.71
893.716	-59.22
893.887	69.8
894.057	-28.5
894.228	-51.03
894.399	-24.4
894.57	30.89
894.74	61.61
894.911	-48.98
895.082	-8.02
895.253	-53.08
895.423	-36.69
895.594	59.56
895.764	45.23
895.935	-57.17
896.106	28.84
896.276	-16.21
896.447	14.51
896.617	32.94
896.788	0.17
896.958	30.89
897.129	14.51
897.299	2.22
897.47	55.47
897.64	-1.88
897.81	-3.93
897.981	-1.88
898.151	-48.98
898.322	28.84
898.492	16.55
898.662	53.42
898.832	2.22
899.003	30.89
899.173	-53.08
899.343	-44.88
899.513	-8.02
