Data from USB4F104151__114__14-31-09-787.txt Node

Date: Thu Mar 13 14:31:09 EDT 2025
User: louis
Spectrometer: USB4F10415
Trigger mode: 4
Integration Time (sec): 2.500000E-2
Scans to average: 1
Electric dark correction enabled: true
Nonlinearity correction enabled: false
Boxcar width: 0
XAxis mode: Wavelengths
Number of Pixels in Spectrum: 3648
>>>>>Begin Spectral Data<<<<<
178.204	-101.2
178.424	-101.2
178.644	-101.2
178.864	-150.36
179.084	-154.45
179.304	3.24
179.524	36.01
179.744	36.01
179.964	42.15
180.184	-13.14
180.404	21.67
180.624	-37.72
180.844	-11.09
181.064	-39.76
181.283	-4.95
181.503	-33.62
181.723	1.19
181.943	-47.96
182.163	29.87
182.383	21.67
182.602	83.11
182.822	89.26
183.042	58.54
183.262	38.06
183.482	25.77
183.701	11.43
183.921	50.35
184.141	89.26
184.361	150.7
184.58	33.96
184.8	27.82
185.02	103.59
185.239	97.45
185.459	66.73
185.679	58.54
185.898	70.83
186.118	33.96
186.338	-15.19
186.557	46.25
186.777	50.35
186.997	46.25
187.216	58.54
187.436	165.03
187.655	60.59
187.875	27.82
188.095	72.87
188.314	83.11
188.534	93.35
188.753	21.67
188.973	103.59
189.192	144.55
189.412	136.36
189.631	97.45
189.851	-7
190.07	111.78
190.29	-43.86
190.509	-7
190.729	25.77
190.948	115.88
191.168	232.62
191.387	83.11
191.607	50.35
191.826	124.07
192.045	79.02
192.265	66.73
192.484	9.39
192.704	50.35
192.923	-4.95
193.142	142.5
193.362	101.55
193.581	124.07
193.8	119.98
194.02	46.25
194.239	85.16
194.458	46.25
194.678	33.96
194.897	-13.14
195.116	27.82
195.335	25.77
195.555	54.44
195.774	83.11
195.993	68.78
196.212	-27.48
196.432	64.68
196.651	74.92
196.87	5.29
197.089	128.17
197.308	38.06
197.528	25.77
197.747	-35.67
197.966	46.25
198.185	91.31
198.404	99.5
198.623	107.69
198.842	21.67
199.062	64.68
199.281	85.16
199.5	17.58
199.719	19.63
199.938	117.93
200.157	138.41
200.376	124.07
200.595	33.96
200.814	93.35
201.033	54.44
201.252	50.35
201.471	74.92
201.69	124.07
201.909	117.93
202.128	124.07
202.347	54.44
202.566	56.49
202.785	50.35
203.004	5.29
203.223	117.93
203.442	81.07
203.661	7.34
203.879	101.55
204.098	68.78
204.317	54.44
204.536	33.96
204.755	21.67
204.974	81.07
205.193	38.06
205.411	105.64
205.63	99.5
205.849	29.87
206.068	66.73
206.287	46.25
206.505	66.73
206.724	42.15
206.943	27.82
207.162	52.39
207.381	-7
207.599	9.39
207.818	1.19
208.037	31.91
208.255	-25.43
208.474	15.53
208.693	66.73
208.911	76.97
209.13	-15.19
209.349	91.31
209.567	38.06
209.786	68.78
210.005	48.3
210.223	89.26
210.442	-43.86
210.661	33.96
210.879	74.92
211.098	91.31
211.316	1.19
211.535	83.11
211.753	27.82
211.972	58.54
212.191	31.91
212.409	27.82
212.628	101.55
212.846	109.74
213.065	74.92
213.283	79.02
213.502	52.39
213.72	109.74
213.938	-4.95
214.157	58.54
214.375	29.87
214.594	29.87
214.812	29.87
215.031	58.54
215.249	46.25
215.467	13.48
215.686	9.39
215.904	58.54
216.122	42.15
216.341	103.59
216.559	33.96
216.778	111.78
216.996	27.82
217.214	33.96
217.432	109.74
217.651	-13.14
217.869	54.44
218.087	93.35
218.306	58.54
218.524	74.92
218.742	25.77
218.96	66.73
219.179	46.25
219.397	52.39
219.615	79.02
219.833	140.46
220.051	68.78
220.27	107.69
220.488	144.55
220.706	60.59
220.924	140.46
221.142	62.63
221.36	119.98
221.578	58.54
221.796	25.77
222.015	83.11
222.233	87.21
222.451	162.98
222.669	79.02
222.887	199.85
223.105	50.35
223.323	74.92
223.541	9.39
223.759	81.07
223.977	136.36
224.195	85.16
224.413	79.02
224.631	101.55
224.849	85.16
225.067	132.26
225.285	31.91
225.503	11.43
225.721	17.58
225.939	79.02
226.157	177.32
226.375	175.27
226.592	-27.48
226.81	70.83
227.028	54.44
227.246	99.5
227.464	152.74
227.682	-7
227.9	83.11
228.117	99.5
228.335	89.26
228.553	85.16
228.771	95.4
228.989	44.2
229.206	25.77
229.424	-15.19
229.642	-52.05
229.86	42.15
230.077	70.83
230.295	9.39
230.513	81.07
230.731	74.92
230.948	150.7
231.166	171.18
231.384	25.77
231.601	52.39
231.819	126.12
232.037	74.92
232.254	17.58
232.472	99.5
232.689	42.15
232.907	105.64
233.125	42.15
233.342	23.72
233.56	-31.57
233.777	15.53
233.995	117.93
234.213	95.4
234.43	64.68
234.648	76.97
234.865	-25.43
235.083	74.92
235.3	46.25
235.518	-2.9
235.735	83.11
235.953	50.35
236.17	29.87
236.388	19.63
236.605	58.54
236.822	140.46
237.04	79.02
237.257	33.96
237.475	11.43
237.692	11.43
237.909	42.15
238.127	91.31
238.344	21.67
238.562	-21.33
238.779	109.74
238.996	107.69
239.214	62.63
239.431	150.7
239.648	17.58
239.865	93.35
240.083	107.69
240.3	52.39
240.517	124.07
240.735	42.15
240.952	52.39
241.169	107.69
241.386	38.06
241.603	29.87
241.821	58.54
242.038	169.13
242.255	87.21
242.472	21.67
242.689	62.63
242.907	70.83
243.124	81.07
243.341	9.39
243.558	95.4
243.775	126.12
243.992	-7
244.209	70.83
244.426	132.26
244.643	48.3
244.86	132.26
245.078	95.4
245.295	103.59
245.512	54.44
245.729	50.35
245.946	79.02
246.163	87.21
246.38	74.92
246.597	91.31
246.814	60.59
247.031	42.15
247.248	60.59
247.464	3.24
247.681	17.58
247.898	101.55
248.115	83.11
248.332	17.58
248.549	122.02
248.766	79.02
248.983	109.74
249.2	91.31
249.417	76.97
249.633	50.35
249.85	107.69
250.067	13.48
250.284	62.63
250.501	136.36
250.717	136.36
250.934	23.72
251.151	68.78
251.368	54.44
251.585	38.06
251.801	70.83
252.018	44.2
252.235	19.63
252.451	40.11
252.668	17.58
252.885	74.92
253.102	52.39
253.318	25.77
253.535	103.59
253.752	101.55
253.968	68.78
254.185	38.06
254.401	36.01
254.618	130.22
254.835	33.96
255.051	152.74
255.268	132.26
255.484	83.11
255.701	95.4
255.917	83.11
256.134	27.82
256.351	62.63
256.567	58.54
256.784	70.83
257	48.3
257.217	160.94
257.433	74.92
257.65	107.69
257.866	54.44
258.082	21.67
258.299	81.07
258.515	33.96
258.732	124.07
258.948	29.87
259.165	91.31
259.381	85.16
259.597	122.02
259.814	58.54
260.03	3.24
260.246	54.44
260.463	115.88
260.679	115.88
260.895	54.44
261.112	136.36
261.328	33.96
261.544	27.82
261.761	142.5
261.977	68.78
262.193	11.43
262.409	89.26
262.626	93.35
262.842	68.78
263.058	74.92
263.274	97.45
263.49	93.35
263.707	140.46
263.923	85.16
264.139	-2.9
264.355	130.22
264.571	50.35
264.787	46.25
265.004	76.97
265.22	48.3
265.436	38.06
265.652	42.15
265.868	103.59
266.084	50.35
266.3	113.83
266.516	40.11
266.732	101.55
266.948	21.67
267.164	52.39
267.38	52.39
267.596	48.3
267.812	109.74
268.028	38.06
268.244	9.39
268.46	27.82
268.676	87.21
268.892	91.31
269.108	46.25
269.324	3.24
269.54	87.21
269.756	115.88
269.972	64.68
270.188	38.06
270.403	33.96
270.619	79.02
270.835	91.31
271.051	40.11
271.267	74.92
271.483	29.87
271.698	68.78
271.914	81.07
272.13	74.92
272.346	-7
272.562	62.63
272.777	50.35
272.993	21.67
273.209	13.48
273.425	44.2
273.64	126.12
273.856	117.93
274.072	79.02
274.287	46.25
274.503	183.46
274.719	128.17
274.934	68.78
275.15	33.96
275.366	19.63
275.581	19.63
275.797	68.78
276.012	-15.19
276.228	60.59
276.444	113.83
276.659	58.54
276.875	-31.57
277.09	56.49
277.306	36.01
277.521	40.11
277.737	5.29
277.952	83.11
278.168	60.59
278.383	58.54
278.599	11.43
278.814	68.78
279.03	66.73
279.245	150.7
279.461	91.31
279.676	68.78
279.892	25.77
280.107	91.31
280.322	25.77
280.538	107.69
280.753	3.24
280.969	42.15
281.184	99.5
281.399	79.02
281.615	50.35
281.83	-0.85
282.045	111.78
282.26	11.43
282.476	66.73
282.691	113.83
282.906	25.77
283.122	91.31
283.337	-4.95
283.552	72.87
283.767	50.35
283.983	62.63
284.198	46.25
284.413	60.59
284.628	19.63
284.843	83.11
285.058	91.31
285.274	1.19
285.489	-9.05
285.704	62.63
285.919	76.97
286.134	74.92
286.349	54.44
286.564	62.63
286.779	83.11
286.995	58.54
287.21	25.77
287.425	31.91
287.64	19.63
287.855	99.5
288.07	11.43
288.285	95.4
288.5	83.11
288.715	122.02
288.93	19.63
289.145	1.19
289.36	36.01
289.575	58.54
289.79	107.69
290.004	33.96
290.219	158.89
290.434	13.48
290.649	107.69
290.864	134.31
291.079	3.24
291.294	115.88
291.509	113.83
291.724	132.26
291.938	85.16
292.153	93.35
292.368	3.24
292.583	93.35
292.798	58.54
293.012	132.26
293.227	128.17
293.442	68.78
293.657	62.63
293.871	152.74
294.086	60.59
294.301	81.07
294.516	83.11
294.73	33.96
294.945	1.19
295.16	29.87
295.374	66.73
295.589	150.7
295.804	-9.05
296.018	62.63
296.233	70.83
296.447	101.55
296.662	62.63
296.877	40.11
297.091	64.68
297.306	97.45
297.52	99.5
297.735	68.78
297.949	-11.09
298.164	52.39
298.378	52.39
298.593	46.25
298.807	74.92
299.022	103.59
299.236	17.58
299.451	21.67
299.665	36.01
299.88	29.87
300.094	87.21
300.309	124.07
300.523	74.92
300.737	124.07
300.952	66.73
301.166	62.63
301.381	58.54
301.595	87.21
301.809	21.67
302.024	91.31
302.238	42.15
302.452	101.55
302.667	-11.09
302.881	115.88
303.095	115.88
303.309	103.59
303.524	33.96
303.738	11.43
303.952	76.97
304.166	17.58
304.381	46.25
304.595	167.08
304.809	46.25
305.023	189.61
305.237	128.17
305.452	74.92
305.666	50.35
305.88	79.02
306.094	-9.05
306.308	169.13
306.522	93.35
306.736	46.25
306.95	83.11
307.164	52.39
307.379	95.4
307.593	81.07
307.807	146.6
308.021	60.59
308.235	44.2
308.449	54.44
308.663	144.55
308.877	222.38
309.091	66.73
309.305	160.94
309.519	-52.05
309.733	105.64
309.947	87.21
310.161	128.17
310.374	101.55
310.588	134.31
310.802	29.87
311.016	95.4
311.23	83.11
311.444	46.25
311.658	85.16
311.872	138.41
312.085	48.3
312.299	189.61
312.513	144.55
312.727	140.46
312.941	-19.29
313.154	107.69
313.368	111.78
313.582	134.31
313.796	140.46
314.009	76.97
314.223	140.46
314.437	91.31
314.651	60.59
314.864	95.4
315.078	58.54
315.292	50.35
315.505	33.96
315.719	44.2
315.933	48.3
316.146	91.31
316.36	-15.19
316.573	27.82
316.787	25.77
317.001	25.77
317.214	93.35
317.428	40.11
317.641	50.35
317.855	97.45
318.068	58.54
318.282	76.97
318.495	91.31
318.709	79.02
318.922	46.25
319.136	148.65
319.349	70.83
319.563	124.07
319.776	124.07
319.99	-31.57
320.203	38.06
320.417	103.59
320.63	148.65
320.843	128.17
321.057	107.69
321.27	62.63
321.483	46.25
321.697	70.83
321.91	83.11
322.124	115.88
322.337	44.2
322.55	46.25
322.763	148.65
322.977	-23.38
323.19	40.11
323.403	62.63
323.617	21.67
323.83	74.92
324.043	97.45
324.256	1.19
324.469	46.25
324.683	91.31
324.896	48.3
325.109	101.55
325.322	3.24
325.535	105.64
325.748	58.54
325.962	44.2
326.175	58.54
326.388	87.21
326.601	95.4
326.814	58.54
327.027	74.92
327.24	126.12
327.453	44.2
327.666	52.39
327.879	150.7
328.092	117.93
328.305	46.25
328.518	128.17
328.731	42.15
328.944	50.35
329.157	60.59
329.37	95.4
329.583	103.59
329.796	140.46
330.009	79.02
330.222	42.15
330.435	81.07
330.648	74.92
330.861	60.59
331.073	113.83
331.286	148.65
331.499	134.31
331.712	-31.57
331.925	29.87
332.138	33.96
332.35	171.18
332.563	3.24
332.776	109.74
332.989	27.82
333.202	115.88
333.414	165.03
333.627	97.45
333.84	33.96
334.053	25.77
334.265	144.55
334.478	-47.96
334.691	19.63
334.903	181.42
335.116	-19.29
335.329	79.02
335.541	132.26
335.754	199.85
335.966	79.02
336.179	99.5
336.392	62.63
336.604	58.54
336.817	99.5
337.029	173.22
337.242	107.69
337.454	156.84
337.667	87.21
337.88	122.02
338.092	64.68
338.305	89.26
338.517	83.11
338.729	83.11
338.942	74.92
339.154	91.31
339.367	-4.95
339.579	9.39
339.792	31.91
340.004	103.59
340.217	70.83
340.429	95.4
340.641	54.44
340.854	60.59
341.066	38.06
341.278	87.21
341.491	187.56
341.703	50.35
341.915	25.77
342.128	126.12
342.34	17.58
342.552	33.96
342.764	91.31
342.977	44.2
343.189	97.45
343.401	68.78
343.613	44.2
343.826	74.92
344.038	66.73
344.25	36.01
344.462	19.63
344.674	83.11
344.886	173.22
345.099	128.17
345.311	68.78
345.523	107.69
345.735	58.54
345.947	3.24
346.159	109.74
346.371	85.16
346.583	83.11
346.795	183.46
347.007	101.55
347.219	70.83
347.431	17.58
347.643	101.55
347.855	83.11
348.067	58.54
348.279	-0.85
348.491	93.35
348.703	101.55
348.915	124.07
349.127	42.15
349.339	156.84
349.551	50.35
349.763	83.11
349.975	62.63
350.187	87.21
350.399	126.12
350.61	70.83
350.822	42.15
351.034	50.35
351.246	119.98
351.458	79.02
351.669	83.11
351.881	162.98
352.093	124.07
352.305	158.89
352.517	97.45
352.728	181.42
352.94	50.35
353.152	93.35
353.363	87.21
353.575	76.97
353.787	175.27
353.999	101.55
354.21	148.65
354.422	99.5
354.633	9.39
354.845	52.39
355.057	33.96
355.268	50.35
355.48	150.7
355.692	79.02
355.903	54.44
356.115	70.83
356.326	17.58
356.538	148.65
356.749	-33.62
356.961	140.46
357.172	93.35
357.384	-21.33
357.595	83.11
357.807	19.63
358.018	-21.33
358.23	66.73
358.441	103.59
358.653	113.83
358.864	19.63
359.075	19.63
359.287	72.87
359.498	109.74
359.709	72.87
359.921	42.15
360.132	3.24
360.344	115.88
360.555	-27.48
360.766	9.39
360.977	117.93
361.189	91.31
361.4	62.63
361.611	107.69
361.823	130.22
362.034	138.41
362.245	25.77
362.456	25.77
362.667	44.2
362.879	33.96
363.09	74.92
363.301	91.31
363.512	101.55
363.723	95.4
363.935	95.4
364.146	46.25
364.357	66.73
364.568	183.46
364.779	-15.19
364.99	156.84
365.201	119.98
365.412	33.96
365.623	76.97
365.834	79.02
366.045	99.5
366.256	99.5
366.467	111.78
366.678	66.73
366.889	99.5
367.1	89.26
367.311	68.78
367.522	27.82
367.733	109.74
367.944	33.96
368.155	17.58
368.366	119.98
368.577	91.31
368.788	146.6
368.999	66.73
369.209	68.78
369.42	181.42
369.631	279.72
369.842	95.4
370.053	81.07
370.264	93.35
370.474	31.91
370.685	126.12
370.896	128.17
371.107	169.13
371.317	76.97
371.528	42.15
371.739	138.41
371.95	107.69
372.16	101.55
372.371	-4.95
372.582	83.11
372.792	93.35
373.003	25.77
373.214	83.11
373.424	130.22
373.635	70.83
373.846	175.27
374.056	68.78
374.267	99.5
374.477	117.93
374.688	111.78
374.898	105.64
375.109	29.87
375.319	68.78
375.53	117.93
375.74	199.85
375.951	76.97
376.161	156.84
376.372	99.5
376.582	85.16
376.793	79.02
377.003	62.63
377.214	3.24
377.424	70.83
377.635	146.6
377.845	58.54
378.055	128.17
378.266	48.3
378.476	33.96
378.686	109.74
378.897	60.59
379.107	54.44
379.317	115.88
379.528	25.77
379.738	197.8
379.948	25.77
380.158	95.4
380.369	62.63
380.579	74.92
380.789	31.91
380.999	144.55
381.21	144.55
381.42	156.84
381.63	74.92
381.84	152.74
382.05	109.74
382.261	44.2
382.471	124.07
382.681	93.35
382.891	58.54
383.101	126.12
383.311	58.54
383.521	50.35
383.731	89.26
383.941	124.07
384.151	83.11
384.361	109.74
384.571	111.78
384.781	124.07
384.991	152.74
385.201	142.5
385.411	115.88
385.621	128.17
385.831	128.17
386.041	38.06
386.251	134.31
386.461	83.11
386.671	83.11
386.881	109.74
387.091	132.26
387.301	17.58
387.511	115.88
387.72	111.78
387.93	140.46
388.14	99.5
388.35	36.01
388.56	132.26
388.769	181.42
388.979	134.31
389.189	115.88
389.399	181.42
389.609	142.5
389.818	117.93
390.028	101.55
390.238	132.26
390.447	66.73
390.657	128.17
390.867	99.5
391.076	107.69
391.286	83.11
391.496	99.5
391.705	189.61
391.915	132.26
392.125	21.67
392.334	31.91
392.544	150.7
392.753	99.5
392.963	91.31
393.172	29.87
393.382	122.02
393.591	195.75
393.801	165.03
394.01	232.62
394.22	160.94
394.429	138.41
394.639	117.93
394.848	124.07
395.058	134.31
395.267	29.87
395.477	130.22
395.686	99.5
395.895	181.42
396.105	214.18
396.314	224.42
396.524	119.98
396.733	124.07
396.942	115.88
397.152	189.61
397.361	173.22
397.57	113.83
397.78	107.69
397.989	91.31
398.198	214.18
398.407	124.07
398.617	146.6
398.826	238.76
399.035	183.46
399.244	189.61
399.453	165.03
399.663	177.32
399.872	183.46
400.081	205.99
400.29	183.46
400.499	91.31
400.708	185.51
400.917	226.47
401.127	148.65
401.336	183.46
401.545	216.23
401.754	199.85
401.963	124.07
402.172	156.84
402.381	246.95
402.59	152.74
402.799	240.81
403.008	255.14
403.217	193.7
403.426	167.08
403.635	197.8
403.844	242.85
404.053	244.9
404.262	175.27
404.471	244.9
404.68	189.61
404.888	220.33
405.097	218.28
405.306	255.14
405.515	216.23
405.724	197.8
405.933	273.57
406.142	308.39
406.35	359.59
406.559	255.14
406.768	283.81
406.977	351.4
407.185	328.87
407.394	306.34
407.603	189.61
407.812	304.29
408.02	355.49
408.229	312.49
408.438	308.39
408.646	265.38
408.855	339.11
409.064	328.87
409.272	386.21
409.481	412.84
409.69	396.45
409.898	390.31
410.107	435.36
410.315	371.88
410.524	425.12
410.733	435.36
410.941	451.75
411.15	615.59
411.358	517.28
411.567	591.01
411.775	525.47
411.984	541.86
412.192	652.45
412.401	562.34
412.609	736.42
412.818	689.31
413.026	617.63
413.234	722.08
413.443	720.03
413.651	787.61
413.86	767.13
414.068	879.77
414.276	857.25
414.485	873.63
414.693	939.16
414.901	967.84
415.11	1016.99
415.318	959.64
415.526	937.12
415.734	1021.08
415.943	1025.18
416.151	1148.06
416.359	1086.62
416.567	1195.16
416.776	1236.12
416.984	1397.91
417.192	1297.56
417.4	1279.13
417.608	1272.98
417.817	1367.19
418.025	1469.59
418.233	1625.23
418.441	1553.55
418.649	1660.05
418.857	1676.43
419.065	1739.92
419.273	1803.41
419.481	1848.46
419.689	1942.67
419.897	2000.01
420.105	2083.98
420.313	1989.77
420.521	2122.89
420.729	2131.08
420.937	2241.67
421.145	2397.32
421.353	2489.48
421.561	2643.07
421.769	2600.07
421.977	2706.56
422.185	2796.67
422.393	2909.31
422.601	3126.39
422.809	3179.64
423.017	3148.92
423.224	3126.39
423.432	3318.9
423.64	3310.71
423.848	3687.54
424.056	3509.37
424.263	3796.08
424.471	3837.04
424.679	3925.1
424.887	4183.15
425.094	4152.43
425.302	4344.94
425.51	4416.62
425.718	4549.73
425.925	4656.23
426.133	4832.35
426.341	4947.04
426.548	5147.74
426.756	5350.49
426.964	5278.81
427.171	5442.65
427.379	5844.05
427.586	5817.43
427.794	5874.77
428.001	6204.49
428.209	6474.82
428.417	6468.68
428.624	6775.88
428.832	6812.74
429.039	6779.97
429.247	6702.15
429.454	7603.25
429.662	8078.38
429.869	7365.69
430.076	8068.14
430.284	7760.95
430.491	8180.78
430.699	8594.47
430.906	8643.62
431.114	8571.94
431.321	8987.68
431.528	8864.8
431.736	9520.15
431.943	10089.49
432.15	9839.64
432.358	9954.32
432.565	10480.65
432.772	10439.69
432.979	11154.43
433.187	11385.85
433.394	11406.33
433.601	11963.38
433.808	12116.98
434.016	11873.27
434.223	12569.58
434.43	13435.87
434.637	12862.44
434.844	13943.77
435.052	13687.77
435.259	13894.61
435.466	13960.15
435.673	14011.35
435.88	14779.34
436.087	15424.45
436.294	15578.04
436.501	15164.36
436.708	15440.83
436.915	15942.58
437.122	16733.1
437.329	16729
437.537	17173.41
437.743	17329.06
437.95	17417.12
438.157	18365.33
438.364	18883.47
438.571	18719.63
438.778	18783.12
438.985	20622.19
439.192	19817.34
439.399	20577.14
439.606	20204.41
439.813	21181.29
440.02	22070.11
440.227	21828.45
440.433	21633.89
440.64	22444.88
440.847	22479.7
441.054	22995.79
441.261	24335.16
441.467	23890.75
441.674	24589.11
441.881	25271.08
442.088	25328.42
442.294	24996.65
442.501	25740.07
442.708	26481.43
442.914	27185.93
443.121	28146.43
443.328	27665.16
443.534	29594.34
443.741	28547.83
443.948	28177.15
444.154	30382.81
444.361	30397.15
444.568	30829.27
444.774	30395.1
444.981	30913.23
445.187	31732.42
445.394	32783.03
445.6	32389.82
445.807	35631.75
446.013	34032.29
446.22	34851.48
446.426	36098.69
446.633	36366.98
446.839	37708.4
447.046	35975.81
447.252	38036.07
447.459	37823.08
447.665	37831.27
447.871	39508.56
448.078	41353.78
448.284	39105.11
448.491	40333.89
448.697	41988.65
448.903	42342.95
449.11	42674.72
449.316	41779.76
449.522	42816.03
449.728	43979.28
449.935	44206.6
450.141	44368.39
450.347	44956.16
450.553	43649.55
450.76	44304.9
450.966	45480.44
451.172	44859.9
451.378	46406.12
451.584	45306.36
451.791	46074.35
451.997	46375.4
452.203	47161.82
452.409	46967.26
452.615	46600.68
452.821	45314.55
453.027	44767.74
453.233	47206.87
453.44	44866.05
453.646	45789.68
453.852	46111.21
454.058	46698.98
454.264	45300.22
454.47	45742.58
454.676	44947.96
454.882	46508.52
455.088	42666.53
455.294	42902.04
455.5	43823.63
455.705	44032.52
455.911	42494.5
456.117	41517.62
456.323	41122.36
456.529	38926.94
456.735	40835.64
456.941	39621.2
457.147	38853.21
457.352	38140.52
457.558	37614.19
457.764	37632.62
457.97	36891.26
458.176	35951.24
458.381	35766.92
458.587	34149.03
458.793	34042.53
458.999	32783.03
459.204	34507.42
459.41	33809.06
459.616	31591.11
459.821	31814.34
460.027	31738.57
460.233	30292.7
460.438	29364.97
460.644	29676.26
460.85	28191.48
461.055	28017.41
461.261	27616.01
461.466	25692.96
461.672	24841.01
461.878	26610.45
462.083	24685.36
462.289	24666.93
462.494	24152.89
462.7	23366.47
462.905	22457.17
463.111	23210.82
463.316	23546.69
463.522	22985.55
463.727	22971.21
463.932	22618.96
464.138	22508.37
464.343	22743.89
464.549	22072.15
464.754	22592.34
464.959	22952.78
465.165	22559.57
465.37	21365.6
465.575	20837.23
465.781	21793.63
465.986	21822.3
466.191	21203.82
466.397	20876.14
466.602	19723.13
466.807	20403.06
467.012	20474.74
467.218	20386.68
467.423	19850.11
467.628	19909.5
467.833	20896.62
468.038	20165.49
468.244	19780.48
468.449	20388.72
468.654	19768.19
468.859	19417.99
469.064	19180.42
469.269	18451.35
469.474	19125.13
469.679	19245.96
469.885	18793.36
470.09	18877.32
470.295	18281.36
470.5	18133.91
470.705	18408.34
470.91	17953.69
471.115	17767.32
471.32	18267.03
471.525	18019.22
471.73	17560.48
471.935	17142.69
472.139	16774.06
472.344	17142.69
472.549	16858.03
472.754	16882.6
472.959	16405.42
473.164	16239.54
473.369	15836.09
473.574	16274.35
473.778	16509.87
473.983	16079.8
474.188	15875
474.393	15588.28
474.598	15320
474.802	15197.12
475.007	15432.64
475.212	15041.48
475.417	14715.85
475.621	14820.3
475.826	14859.21
476.031	14472.14
476.235	14023.64
476.44	14476.24
476.645	14027.73
476.849	14044.12
477.054	13857.75
477.259	13759.45
477.463	13867.99
477.668	13528.03
477.872	13722.59
478.077	13407.2
478.282	12911.59
478.486	12993.51
478.691	12872.68
478.895	12686.31
479.1	12608.49
479.304	12645.35
479.509	12272.62
479.713	12764.14
479.918	12366.83
480.122	12119.03
480.326	12307.44
480.531	12282.86
480.735	12246
480.94	11985.91
481.144	12473.32
481.348	11893.75
481.553	12037.11
481.757	11832.31
481.961	11676.66
482.166	12041.2
482.37	12084.21
482.574	11875.32
482.778	11699.19
482.983	12104.69
483.187	11899.89
483.391	12028.92
483.595	11826.17
483.8	11650.04
484.004	11863.03
484.208	11891.7
484.412	11875.32
484.616	11613.18
484.821	11822.07
485.025	11609.08
485.229	11883.51
485.433	11457.53
485.637	11807.73
485.841	11441.15
486.045	11666.42
486.249	11785.21
486.453	11797.49
486.657	11901.94
486.861	11813.88
487.065	11418.62
487.269	11715.58
487.473	11596.79
487.677	11809.78
487.881	11858.93
488.085	11662.33
488.289	11838.45
488.493	11625.47
488.697	11875.32
488.901	11963.38
489.105	11609.08
489.309	11947
489.512	11930.61
489.716	12026.87
489.92	11723.77
490.124	11899.89
490.328	12059.63
490.531	11899.89
490.735	12147.7
490.939	12096.5
491.143	11977.72
491.346	11967.48
491.55	12035.06
491.754	12186.61
491.958	12248.05
492.161	12094.45
492.365	12264.43
492.569	12178.42
492.772	12215.28
492.976	12346.35
493.18	12350.45
493.383	12700.65
493.587	12452.84
493.79	12583.91
493.994	12272.62
494.197	12872.68
494.401	12827.62
494.605	12905.45
494.808	13011.94
495.012	13065.19
495.215	13315.04
495.419	13251.55
495.622	13136.87
495.825	13489.12
496.029	13427.68
496.232	13439.97
496.436	13435.87
496.639	13962.2
496.843	13767.64
497.046	13956.05
497.249	14511.05
497.453	14326.74
497.656	14427.09
497.859	14435.28
498.063	14762.95
498.266	14617.55
498.469	14926.79
498.673	15072.2
498.876	15203.27
499.079	15211.46
499.282	15231.94
499.485	15614.91
499.689	15782.84
499.892	15963.06
500.095	16057.27
500.298	16296.88
500.501	16126.9
500.705	16690.09
500.908	16673.71
501.111	17327.01
501.314	17089.45
501.517	16982.95
501.72	17372.07
501.923	17439.65
502.126	17976.22
502.329	17812.38
502.532	18201.49
502.735	18244.5
502.938	18516.88
503.141	18645.9
503.344	18783.12
503.547	19102.6
503.75	19217.29
503.953	19549.06
504.156	19587.97
504.359	19839.87
504.562	20165.49
504.765	20333.43
504.968	20437.87
505.17	20587.38
505.373	20685.68
505.576	20884.33
505.779	21568.35
505.982	21269.35
506.185	21838.69
506.387	21822.3
506.59	21853.02
506.793	22508.37
506.996	22684.5
507.198	23044.94
507.401	23081.8
507.604	23233.35
507.807	23327.56
508.009	23442.24
508.212	23753.54
508.415	24238.9
508.617	24302.39
508.82	24613.68
509.022	24480.57
509.225	25127.72
509.428	25338.66
509.63	25512.74
509.833	25641.76
510.035	26526.49
510.238	25764.64
510.44	26374.94
510.643	26899.22
510.845	27075.34
511.048	26983.18
511.25	27294.47
511.453	27628.29
511.655	28545.78
511.858	28115.71
512.06	28457.72
512.262	28472.06
512.465	28578.55
512.667	29090.54
512.87	29528.81
513.072	29278.96
513.274	29819.62
513.477	30018.27
513.679	30479.07
513.881	30913.23
514.084	30900.95
514.286	30859.99
514.488	31425.23
514.69	32148.16
514.893	31853.25
515.095	32004.8
515.297	32230.08
515.499	32940.72
515.701	32819.89
515.904	33514.16
516.106	33811.11
516.308	33620.65
516.51	34220.7
516.712	34396.83
516.914	34589.34
517.116	35023.51
517.318	35011.22
517.52	35164.82
517.722	35332.75
517.925	35701.39
518.127	36491.9
518.329	36559.48
518.531	36377.22
518.733	36842.1
518.935	37116.53
519.136	37263.99
519.338	37716.59
519.54	38031.97
519.742	38253.15
519.944	38255.2
520.146	38509.15
520.348	39135.83
520.55	38713.95
520.752	39152.21
520.954	39772.75
521.155	39449.17
521.357	40235.59
521.559	40149.57
521.761	40522.3
521.963	40870.46
522.164	40759.87
522.366	40831.55
522.568	41167.41
522.77	41196.09
522.971	41974.31
523.173	41835.05
523.375	41556.53
523.576	41777.71
523.778	41706.03
523.98	42476.07
524.181	42455.59
524.383	42572.32
524.584	43074.07
524.786	42912.28
524.988	42695.2
525.189	43448.85
525.391	43215.38
525.592	43407.89
525.794	43584.02
525.995	43760.14
526.197	43508.24
526.398	43729.42
526.6	43895.31
526.801	44241.42
527.003	44112.39
527.204	43946.51
527.406	44167.69
527.607	44626.43
527.808	44646.91
528.01	43624.98
528.211	44247.56
528.412	45283.83
528.614	45115.9
528.815	44724.74
529.016	44978.68
529.218	44399.11
529.419	44448.26
529.62	44888.57
529.822	44968.44
530.023	44698.11
530.224	44859.9
530.425	44876.29
530.626	44614.15
530.828	44466.69
531.029	45634.03
531.23	44907.01
531.431	44993.02
531.632	45119.99
531.833	45081.08
532.035	44841.47
532.236	44810.75
532.437	45011.45
532.638	44773.89
532.839	44857.85
533.04	45298.17
533.241	44448.26
533.442	45152.76
533.643	44808.7
533.844	44581.38
534.045	45234.68
534.246	44231.18
534.447	44704.26
534.648	44458.5
534.849	44726.78
535.05	44233.22
535.251	44982.78
535.451	44511.75
535.652	44839.42
535.853	44464.64
536.054	44564.99
536.255	44759.55
536.456	44515.84
536.657	45007.36
536.857	44300.81
537.058	44448.26
537.259	44749.31
537.46	44608
537.66	44669.44
537.861	44767.74
538.062	44339.72
538.263	44777.98
538.463	43907.6
538.664	44005.9
538.865	44272.14
539.065	44538.37
539.266	43813.39
539.466	44147.21
539.667	43758.09
539.868	44298.76
540.068	44087.82
540.269	44016.14
540.469	44741.12
540.67	43897.36
540.87	44177.93
541.071	43831.82
541.271	44354.05
541.472	43833.87
541.672	43713.04
541.873	43301.4
542.073	43448.85
542.274	44495.36
542.474	43569.68
542.675	43455
542.875	44112.39
543.075	43739.66
543.276	43092.51
543.476	43792.91
543.676	43682.32
543.877	43866.64
544.077	43692.56
544.277	43362.84
544.478	43538.96
544.678	43530.77
544.878	43309.59
545.078	43622.93
545.279	43217.43
545.479	43393.56
545.679	43715.09
545.879	43596.31
546.079	43221.53
546.28	43448.85
546.48	43567.63
546.68	43432.47
546.88	43457.04
547.08	43729.42
547.28	43252.25
547.48	43252.25
547.68	43723.28
547.88	42983.96
548.081	43596.31
548.281	44055.05
548.481	43397.65
548.681	43966.99
548.881	43915.79
549.081	43801.1
549.28	43268.63
549.48	43541.01
549.68	43719.18
549.88	44276.23
550.08	43170.33
550.28	43768.33
550.48	43667.98
550.68	43676.18
550.88	43135.51
551.08	43498
551.279	43508.24
551.479	43260.44
551.679	43624.98
551.879	43547.15
552.079	43635.22
552.278	43518.48
552.478	43684.37
552.678	43700.75
552.878	43184.66
553.077	43872.78
553.277	43231.77
553.477	43964.94
553.676	43526.67
553.876	43606.55
554.076	43342.36
554.275	43287.06
554.475	43069.98
554.674	43436.56
554.874	43637.26
555.074	43358.74
555.273	43631.12
555.473	43737.62
555.672	42848.8
555.872	43452.95
556.071	43686.42
556.271	43995.66
556.47	43604.5
556.67	43207.19
556.869	43581.97
557.068	43434.52
557.268	43276.82
557.467	43629.07
557.667	43768.33
557.866	43538.96
558.065	43977.23
558.265	43641.36
558.464	43428.37
558.663	44012.04
558.863	43397.65
559.062	44309
559.261	43581.97
559.461	43872.78
559.66	43256.34
559.859	43522.58
560.058	43516.43
560.258	43606.55
560.457	43250.2
560.656	43530.77
560.855	43407.89
561.054	43457.04
561.253	43512.34
561.453	43563.54
561.652	43403.8
561.851	43837.97
562.05	43475.48
562.249	43203.1
562.448	43694.61
562.647	43270.68
562.846	43338.26
563.045	43242.01
563.244	42832.41
563.443	43819.53
563.642	42521.12
563.841	43092.51
564.04	43248.15
564.239	43340.31
564.438	43094.55
564.637	42981.91
564.836	43303.45
565.035	42748.45
565.234	43129.37
565.432	43049.5
565.631	42938.91
565.83	42955.29
566.029	42590.75
566.228	42598.94
566.427	42650.14
566.625	42568.23
566.824	42338.85
567.023	42908.19
567.222	42121.77
567.42	42687.01
567.619	42691.1
567.818	42013.23
568.016	42281.51
568.215	42789.41
568.414	42560.03
568.612	42295.85
568.811	42031.66
569.01	42035.75
569.208	41644.59
569.407	42306.09
569.605	41841.2
569.804	42113.58
570.002	41783.85
570.201	41876.01
570.4	41382.45
570.598	41740.85
570.797	41284.15
570.995	41318.96
571.193	41073.21
571.392	41153.08
571.59	40968.76
571.789	41603.63
571.987	41321.01
572.186	41187.89
572.384	41062.97
572.582	40839.74
572.781	41087.54
572.979	40559.17
573.177	40841.79
573.376	40710.72
573.574	40299.08
573.772	40778.3
573.971	40487.49
574.169	39893.58
574.367	39701.07
574.565	40168.01
574.763	40059.46
574.962	39768.65
575.16	39789.13
575.358	39721.55
575.556	39236.18
575.754	39934.54
575.952	39166.55
576.151	39924.3
576.349	39078.49
576.547	39539.28
576.745	39055.96
576.943	39404.11
577.141	39326.29
577.339	39158.36
577.537	38885.98
577.735	39123.54
577.933	38720.09
578.131	38845.02
578.329	38259.3
578.527	38527.58
578.725	38150.76
578.923	38435.42
579.121	38339.17
579.319	38046.31
579.516	38095.46
579.714	38169.19
579.912	37861.99
580.11	37708.4
580.308	38124.13
580.506	37839.47
580.704	37059.19
580.901	37739.11
581.099	37958.25
581.297	37223.03
581.495	37216.88
581.692	37812.84
581.89	36924.02
582.088	37173.88
582.285	36846.2
582.483	37376.62
582.681	36649.6
582.878	36713.08
583.076	36313.73
583.274	37001.85
583.471	36780.67
583.669	36369.02
583.866	36371.07
584.064	36418.17
584.262	35881.61
584.459	36471.42
584.657	36194.95
584.854	36586.11
585.052	35308.18
585.249	35889.8
585.447	36065.92
585.644	35549.84
585.841	35408.53
586.039	35713.67
586.236	35242.64
586.434	35392.14
586.631	35326.61
586.828	35211.92
587.026	35181.2
587.223	34701.98
587.42	35082.9
587.618	34747.03
587.815	34855.57
588.012	34552.48
588.21	34400.93
588.407	34880.15
588.604	34503.32
588.801	34185.89
588.999	34450.08
589.196	34261.66
589.393	34491.04
589.59	34228.9
589.787	34036.39
589.984	34175.65
590.182	33743.53
590.379	34087.59
590.576	33933.99
590.773	33702.57
590.97	33653.42
591.167	33542.83
591.364	33618.6
591.561	33954.47
591.758	33370.8
591.955	33041.07
592.152	33389.23
592.349	33016.5
592.546	33036.98
592.743	33057.46
592.94	32832.18
593.137	33151.66
593.334	32967.35
593.531	32617.14
593.727	32879.28
593.924	33129.14
594.121	32502.46
594.318	32918.2
594.515	32326.33
594.712	32553.66
594.908	32187.07
595.105	32488.12
595.302	32178.88
595.499	32289.47
595.696	32012.99
595.892	31961.79
596.089	32285.37
596.286	32234.17
596.482	31974.08
596.679	32000.71
596.876	32090.82
597.072	32029.38
597.269	31537.87
597.466	31972.03
597.662	31767.24
597.859	31320.78
598.055	31410.89
598.252	31486.67
598.448	31507.15
598.645	31226.57
598.841	30933.71
599.038	31484.62
599.234	31277.77
599.431	31023.83
599.627	31111.89
599.824	31140.56
600.02	30941.91
600.217	31394.51
600.413	31351.5
600.609	30515.93
600.806	30911.19
601.002	30976.72
601.198	30726.87
601.395	30532.31
601.591	30821.08
601.787	30870.23
601.984	30915.28
602.18	31079.12
602.376	30585.56
602.572	30587.61
602.769	30614.23
602.965	30530.26
603.161	30573.27
603.357	30343.9
603.553	30413.53
603.75	30900.95
603.946	30497.5
604.142	30569.18
604.338	30370.52
604.534	30280.41
604.73	30198.49
604.926	30509.79
605.122	30431.96
605.318	30423.77
605.514	30417.63
605.71	30292.7
605.906	30319.32
606.102	30264.03
606.298	30464.73
606.494	30382.81
606.69	30509.79
606.886	30612.18
607.082	30030.56
607.278	30554.84
607.474	29983.46
607.67	30272.22
607.866	29762.28
608.062	30773.97
608.257	30339.8
608.453	30282.46
608.649	30526.17
608.845	29997.79
609.041	30247.65
609.236	30241.5
609.432	30255.84
609.628	30165.73
609.824	30120.67
610.019	30155.49
610.215	30198.49
610.411	30481.11
610.606	30089.95
610.802	30370.52
610.998	30270.17
611.193	30276.32
611.389	30032.61
611.584	30096.1
611.78	30251.74
611.976	30530.26
612.171	30233.31
612.367	29975.27
612.562	30243.55
612.758	29999.84
612.953	30120.67
613.149	30223.07
613.344	30186.21
613.539	30739.16
613.735	30374.62
613.93	30321.37
614.126	30175.97
614.321	30218.97
614.517	30276.32
614.712	30169.82
614.907	30167.77
615.103	30386.91
615.298	29749.99
615.493	30563.03
615.688	30241.5
615.884	30634.71
616.079	30003.94
616.274	29907.68
616.47	30075.62
616.665	29934.31
616.86	29881.06
617.055	29862.63
617.25	29913.83
617.445	29827.81
617.641	29416.17
617.836	30065.38
618.031	29670.12
618.226	29874.91
618.421	29903.59
618.616	29879.01
618.811	29102.83
619.006	29866.72
619.201	29424.36
619.396	29653.73
619.591	28852.98
619.786	29393.64
619.981	29051.63
620.176	29395.69
620.371	28728.05
620.566	28885.75
620.761	28781.3
620.956	28822.26
621.151	28361.47
621.346	28855.03
621.541	28236.54
621.735	28713.72
621.93	27925.25
622.125	28183.29
622.32	27783.94
622.515	28003.07
622.709	27900.67
622.904	27923.2
623.099	27489.03
623.294	27347.72
623.488	27392.78
623.683	27427.59
623.878	26829.59
624.072	26954.51
624.267	27196.17
624.462	26811.15
624.656	26503.96
624.851	26387.22
625.046	26481.43
625.24	26301.21
625.435	26104.6
625.629	26161.95
625.824	26016.54
626.018	26090.27
626.213	25293.61
626.407	25221.93
626.602	24955.69
626.796	25416.49
626.991	25266.99
627.185	25260.84
627.38	24857.39
627.574	24623.92
627.768	24853.3
627.963	24212.28
628.157	24138.55
628.352	24603.44
628.546	23987
628.74	24107.83
628.935	23923.52
629.129	24007.48
629.323	23642.95
629.517	23599.94
629.712	23612.23
629.906	23429.96
630.1	23415.62
630.294	23202.63
630.489	23278.41
630.683	23225.16
630.877	22801.23
631.071	22473.56
631.265	22999.88
631.459	22578
631.653	22217.56
631.848	22707.02
632.042	22235.99
632.236	22256.47
632.43	22109.02
632.624	21982.04
632.818	21824.35
633.012	21744.48
633.206	21721.95
633.4	21582.69
633.594	21195.62
633.788	21394.28
633.982	21150.57
634.176	21105.51
634.369	20853.61
634.563	21076.84
634.757	20822.89
634.951	20642.67
635.145	20599.66
635.339	20648.82
635.533	20513.65
635.726	20310.9
635.92	19862.4
636.114	20388.72
636.308	19858.3
636.501	20097.91
636.695	19725.18
636.889	19555.2
637.083	19356.55
637.276	19411.84
637.47	19635.07
637.664	19256.2
637.857	19223.43
638.051	19258.24
638.244	19022.73
638.438	19082.12
638.632	18924.43
638.825	18822.03
639.019	18619.28
639.212	18269.08
639.406	18246.55
639.599	18162.58
639.793	18484.11
639.986	18207.64
640.18	18097.05
640.373	17982.36
640.567	17785.76
640.76	17601.44
640.954	17357.73
641.147	17748.89
641.34	17488.8
641.534	17443.74
641.727	17261.48
641.92	17392.55
642.114	17066.92
642.307	16868.27
642.5	16800.68
642.694	16653.23
642.887	16423.86
643.08	16864.17
643.273	16491.44
643.467	16540.59
643.66	16434.1
643.853	16090.04
644.046	16206.77
644.239	16274.35
644.432	15969.21
644.626	15655.87
644.819	15958.97
645.012	15748.03
645.205	15508.41
645.398	15459.26
645.591	15451.07
645.784	15334.34
645.977	15199.17
646.17	15188.93
646.363	14867.4
646.556	14918.6
646.749	15084.48
646.942	15270.85
647.135	14832.58
647.328	14660.55
647.521	14652.36
647.714	14668.75
647.907	14369.74
648.099	14560.2
648.292	14253.01
648.485	14253.01
648.678	14244.82
648.871	14111.7
649.064	13911
649.256	14146.51
649.449	13829.08
649.642	13775.83
649.835	13661.15
650.027	13771.74
650.22	13689.82
650.413	13337.57
650.605	13530.08
650.798	13689.82
650.991	13095.91
651.183	13253.6
651.376	13304.8
651.568	13249.5
651.761	13095.91
651.954	13003.75
652.146	12819.43
652.339	12751.85
652.531	12602.35
652.724	12698.6
652.916	12278.77
653.109	12493.8
653.301	12710.89
653.494	12628.97
653.686	12340.21
653.879	12354.54
654.071	12282.86
654.263	12076.02
654.456	11994.1
654.648	12102.64
654.84	11920.37
655.033	11918.32
655.225	11813.88
655.417	11654.14
655.61	11914.23
655.802	11830.26
655.994	11496.44
656.186	11592.7
656.379	11615.23
656.571	11461.63
656.763	11265.02
656.955	11230.21
657.148	11367.42
657.34	11052.03
657.532	11203.58
657.724	11043.84
657.916	10947.59
658.108	10906.63
658.3	10744.84
658.492	10851.33
658.684	10546.19
658.876	10691.59
659.068	10740.74
659.26	10443.79
659.452	10685.45
659.644	10578.95
659.836	10546.19
660.028	10349.58
660.22	10269.71
660.412	10183.7
660.604	10269.71
660.796	10101.78
660.988	10161.17
661.18	10187.79
661.372	9970.71
661.563	10128.4
661.755	9896.98
661.947	9901.08
662.139	9786.39
662.331	9819.16
662.522	9749.53
662.714	9559.06
662.906	9727
663.097	9497.63
663.289	9434.14
663.481	9409.56
663.673	9489.43
663.864	9411.61
664.056	9280.54
664.247	9237.53
664.439	9176.09
664.631	9131.04
664.822	9217.05
665.014	9022.5
665.205	8985.63
665.397	9085.98
665.588	8856.61
665.78	8858.66
665.971	8662.05
666.163	8842.28
666.354	8834.08
666.546	8676.39
666.737	8621.1
666.929	8545.32
667.12	8561.7
667.311	8625.19
667.503	8283.18
667.694	8567.85
667.885	8612.9
668.077	8516.65
668.268	8234.03
668.459	8373.29
668.651	8391.72
668.842	8234.03
669.033	8127.53
669.224	8113.2
669.416	8172.59
669.607	7990.32
669.798	8000.56
669.989	8119.34
670.18	8033.33
670.371	7914.55
670.563	7752.76
670.754	7728.18
670.945	7996.46
671.136	7926.83
671.327	7660.6
671.518	7570.49
671.709	7699.51
671.9	7803.96
672.091	7674.93
672.282	7578.68
672.473	7476.28
672.664	7556.15
672.855	7423.03
673.046	7513.14
673.237	7578.68
673.428	7457.85
673.619	7382.07
673.809	7453.75
674	7259.2
674.191	7455.8
674.382	7236.67
674.573	7107.65
674.764	7169.09
674.954	7291.96
675.145	7146.56
675.336	7068.73
675.527	7164.99
675.717	7224.38
675.908	7130.17
676.099	7046.21
676.289	7205.95
676.48	6917.19
676.671	6888.51
676.861	6841.41
677.052	6908.99
677.243	6704.2
677.433	6718.53
677.624	7040.06
677.814	6841.41
678.005	7068.73
678.195	6857.79
678.386	6722.63
678.576	6736.96
678.767	6831.17
678.957	6769.73
679.148	6702.15
679.338	6743.11
679.529	6759.49
679.719	6753.35
679.909	6720.58
680.1	6673.48
680.29	6749.25
680.481	6673.48
680.671	6661.19
680.861	6820.93
681.052	6589.51
681.242	6550.6
681.432	6704.2
681.622	6442.06
681.813	6601.8
682.003	6446.15
682.193	6237.26
682.383	6550.6
682.573	6319.18
682.764	6317.13
682.954	6364.23
683.144	6442.06
683.334	6296.65
683.524	6282.31
683.714	6378.57
683.904	6358.09
684.094	6433.86
684.284	6216.78
684.474	6251.6
684.664	6255.69
684.854	6347.85
685.044	6188.11
685.234	6138.96
685.424	6229.07
685.614	6057.04
685.804	6212.68
685.994	5983.31
686.184	6034.51
686.374	6231.12
686.564	6227.02
686.753	5928.02
686.943	5917.78
687.133	5948.5
687.323	6005.84
687.513	5942.35
687.702	5850.19
687.892	6011.98
688.082	6009.93
688.272	5878.86
688.461	5821.52
688.651	5735.51
688.841	5678.16
689.03	5637.2
689.22	5801.04
689.41	5782.61
689.599	5616.72
689.789	5762.13
689.979	5674.07
690.168	5661.78
690.358	5456.98
690.547	5456.98
690.737	5514.33
690.926	5606.49
691.116	5338.2
691.305	5485.65
691.495	5383.26
691.684	5465.18
691.874	5368.92
692.063	5497.94
692.252	5375.06
692.442	5448.79
692.631	5395.54
692.82	5364.82
693.01	5237.85
693.199	5360.73
693.388	5194.84
693.578	5272.67
693.767	5354.58
693.956	5319.77
694.146	5155.93
694.335	5153.88
694.524	5243.99
694.713	5207.13
694.902	5241.95
695.092	5237.85
695.281	5141.6
695.47	5090.4
695.659	5121.12
695.848	4906.08
696.037	5112.92
696.226	4914.27
696.415	5047.39
696.604	4953.18
696.793	4799.59
696.982	4942.94
697.171	4916.32
697.36	4955.23
697.549	4930.66
697.738	4705.38
697.927	4842.59
698.116	4901.98
698.305	4793.44
698.494	4732
698.683	4705.38
698.872	4828.26
699.061	4686.95
699.25	4633.7
699.438	4719.71
699.627	4670.56
699.816	4748.39
700.005	4564.07
700.193	4719.71
700.382	4672.61
700.571	4578.4
700.76	4588.64
700.948	4658.28
701.137	4572.26
701.326	4736.1
701.514	4502.63
701.703	4574.31
701.892	4557.93
702.08	4596.84
702.269	4461.67
702.457	4377.7
702.646	4265.07
702.834	4445.29
703.023	4451.43
703.212	4531.3
703.4	4498.53
703.589	4342.89
703.777	4512.87
703.965	4301.93
704.154	4363.37
704.342	4256.87
704.531	4297.83
704.719	4238.44
704.907	4392.04
705.096	4162.67
705.284	4101.23
705.472	4275.31
705.661	4332.65
705.849	4140.14
706.037	4195.43
706.226	4136.04
706.414	4072.56
706.602	4033.65
706.79	4228.2
706.979	4136.04
707.167	4156.52
707.355	4205.67
707.543	4093.04
707.731	3970.16
707.919	4179.05
708.107	4066.41
708.296	3941.49
708.484	3941.49
708.672	4041.84
708.86	3972.21
709.048	3863.66
709.236	3966.06
709.424	3988.59
709.612	3845.23
709.8	3908.72
709.988	3869.81
710.176	3902.58
710.364	3810.42
710.551	3867.76
710.739	3847.28
710.927	3908.72
711.115	3703.92
711.303	3681.39
711.491	3814.51
711.679	3705.97
711.866	3712.11
712.054	3824.75
712.242	3865.71
712.43	3761.27
712.617	3759.22
712.805	3736.69
712.993	3572.85
713.181	3687.54
713.368	3755.12
713.556	3599.48
713.744	3705.97
713.931	3605.62
714.119	3693.68
714.306	3523.7
714.494	3650.67
714.682	3562.61
714.869	3505.27
715.057	3454.07
715.244	3286.14
715.432	3617.91
715.619	3378.3
715.807	3449.97
715.994	3507.32
716.182	3445.88
716.369	3474.55
716.556	3579
716.744	3396.73
716.931	3318.9
717.119	3517.56
717.306	3257.46
717.493	3380.34
717.681	3314.81
717.868	3335.29
718.055	3294.33
718.242	3261.56
718.43	3505.27
718.617	3222.65
718.804	3253.37
718.991	3312.76
719.179	3382.39
719.366	3294.33
719.553	3267.7
719.74	3343.48
719.927	3241.08
720.114	3214.46
720.301	3210.36
720.488	3126.39
720.676	3122.3
720.863	3150.97
721.05	3232.89
721.237	3175.55
721.424	3089.53
721.611	3267.7
721.798	3011.71
721.985	3144.83
722.172	2983.04
722.358	3122.3
722.545	3087.48
722.732	2987.13
722.919	3120.25
723.106	3150.97
723.293	3021.95
723.48	2921.6
723.667	3015.8
723.853	2968.7
724.04	3007.61
724.227	2837.63
724.414	2851.97
724.6	2937.98
724.787	3003.52
724.974	3081.34
725.161	2970.75
725.347	2974.85
725.534	2878.59
725.72	2970.75
725.907	2958.46
726.094	2811.01
726.28	2796.67
726.467	2858.11
726.653	2837.63
726.84	2864.25
727.027	2901.12
727.213	2794.62
727.4	2860.16
727.586	2837.63
727.773	2827.39
727.959	2798.72
728.145	2753.66
728.332	2749.57
728.518	2800.77
728.705	2774.14
728.891	2638.98
729.077	2778.24
729.264	2679.94
729.45	2866.3
729.636	2624.64
729.823	2665.6
730.009	2786.43
730.195	2667.65
730.382	2618.5
730.568	2557.06
730.754	2720.9
730.94	2579.59
731.126	2585.73
731.313	2696.32
731.499	2569.35
731.685	2530.44
731.871	2589.83
732.057	2518.15
732.243	2663.55
732.429	2548.87
732.615	2591.88
732.801	2534.53
732.987	2647.17
733.173	2501.76
733.359	2649.22
733.545	2587.78
733.731	2493.57
733.917	2528.39
734.103	2645.12
734.289	2464.9
734.475	2278.54
734.661	2581.64
734.847	2532.48
735.033	2548.87
735.219	2407.56
735.404	2446.47
735.59	2405.51
735.776	2522.24
735.962	2428.04
736.148	2475.14
736.333	2419.85
736.519	2524.29
736.705	2335.88
736.89	2327.69
737.076	2462.85
737.262	2393.22
737.447	2434.18
737.633	2354.31
737.819	2327.69
738.004	2339.97
738.19	2370.69
738.375	2346.12
738.561	2360.45
738.747	2434.18
738.932	2311.3
739.118	2483.33
739.303	2331.78
739.489	2266.25
739.674	2286.73
739.859	2188.43
740.045	2292.87
740.23	2184.33
740.416	2186.38
740.601	2272.39
740.786	2219.14
740.972	2239.62
741.157	2213
741.342	2192.52
741.528	2110.6
741.713	2378.89
741.898	2053.26
742.084	2108.55
742.269	2028.68
742.454	2131.08
742.639	2118.79
742.824	2280.58
743.01	2040.97
743.195	2086.03
743.38	2131.08
743.565	2030.73
743.75	2102.41
743.935	1991.82
744.12	2198.67
744.305	2016.4
744.49	2016.4
744.675	1942.67
744.86	1987.72
745.045	1918.09
745.23	1973.39
745.415	1897.61
745.6	2002.06
745.785	1959.05
745.97	1936.53
746.155	1926.29
746.34	1948.81
746.525	1940.62
746.71	1930.38
746.895	1856.65
747.079	1905.81
747.264	1909.9
747.449	1922.19
747.634	1934.48
747.819	1774.74
748.003	1737.87
748.188	1696.91
748.373	1830.03
748.557	1713.3
748.742	1789.07
748.927	1811.6
749.111	1840.27
749.296	1692.82
749.481	1696.91
749.665	1746.06
749.85	1703.06
750.034	1729.68
750.219	1637.52
750.404	1594.51
750.588	1623.19
750.773	1733.78
750.957	1684.62
751.141	1649.81
751.326	1696.91
751.51	1541.27
751.695	1508.5
751.879	1524.88
752.064	1668.24
752.248	1520.79
752.432	1684.62
752.617	1567.89
752.801	1543.32
752.985	1445.01
753.17	1590.42
753.354	1555.6
753.538	1510.55
753.722	1430.68
753.907	1492.12
754.091	1410.2
754.275	1469.59
754.459	1442.96
754.643	1369.24
754.828	1416.34
755.012	1365.14
755.196	1264.79
755.38	1496.21
755.564	1473.68
755.748	1328.28
755.932	1461.4
756.116	1348.76
756.3	1287.32
756.484	1426.58
756.668	1344.66
756.852	1229.98
757.036	1324.18
757.22	1307.8
757.404	1270.94
757.588	1311.89
757.772	1303.7
757.956	1199.26
758.14	1356.95
758.323	1197.21
758.507	1256.6
758.691	1270.94
758.875	1275.03
759.059	1197.21
759.242	1111.19
759.426	1201.3
759.61	1272.98
759.794	1225.88
759.977	1256.6
760.161	1213.59
760.345	1207.45
760.528	1248.41
760.712	1139.87
760.895	1156.25
761.079	1164.44
761.263	1164.44
761.446	1074.33
761.63	1127.58
761.813	1109.15
761.997	912.54
762.18	1152.15
762.364	1082.52
762.547	1037.47
762.731	1119.39
762.914	1066.14
763.098	1064.09
763.281	1000.6
763.464	1049.75
763.648	1059.99
763.831	1066.14
764.015	1092.76
764.198	1068.19
764.381	1156.25
764.564	1057.95
764.748	1033.37
764.931	1043.61
765.114	1033.37
765.297	1033.37
765.481	1021.08
765.664	1027.23
765.847	1021.08
766.03	1035.42
766.213	1019.04
766.397	1031.32
766.58	953.5
766.763	976.03
766.946	902.3
767.129	955.55
767.312	1019.04
767.495	1008.8
767.678	943.26
767.861	1074.33
768.044	922.78
768.227	1019.04
768.41	1008.8
768.593	998.56
768.776	902.3
768.959	904.35
769.142	1012.89
769.324	959.64
769.507	1025.18
769.69	1021.08
769.873	928.92
770.056	996.51
770.239	971.93
770.421	996.51
770.604	806.05
770.787	951.45
770.97	1027.23
771.152	763.04
771.335	883.87
771.518	961.69
771.7	973.98
771.883	926.88
772.066	867.49
772.248	877.73
772.431	871.58
772.613	947.36
772.796	814.24
772.978	871.58
773.161	814.24
773.343	869.53
773.526	820.38
773.708	828.57
773.891	779.42
774.073	896.16
774.256	804
774.438	943.26
774.621	849.05
774.803	804
774.985	748.7
775.168	750.75
775.35	810.14
775.532	756.9
775.715	822.43
775.897	793.76
776.079	812.19
776.261	857.25
776.444	734.37
776.626	734.37
776.808	730.27
776.99	738.46
777.173	754.85
777.355	758.94
777.537	701.6
777.719	746.66
777.901	763.04
778.083	709.79
778.265	713.89
778.447	705.7
778.629	732.32
778.811	699.55
778.993	689.31
779.175	797.85
779.357	689.31
779.539	648.35
779.721	664.74
779.903	685.22
780.085	631.97
780.267	595.11
780.449	640.16
780.631	689.31
780.812	738.46
780.994	568.48
781.176	619.68
781.358	640.16
781.54	605.35
781.721	656.54
781.903	615.59
782.085	564.39
782.267	674.98
782.448	599.2
782.63	582.82
782.812	595.11
782.993	617.63
783.175	607.39
783.357	593.06
783.538	652.45
783.72	566.43
783.901	560.29
784.083	574.63
784.264	623.78
784.446	511.14
784.627	414.88
784.809	500.9
784.99	539.81
785.172	502.95
785.353	484.52
785.535	537.76
785.716	509.09
785.897	543.91
786.079	523.43
786.26	453.8
786.441	533.67
786.623	517.28
786.804	410.79
786.985	461.99
787.167	556.19
787.348	476.32
787.529	478.37
787.71	529.57
787.891	554.15
788.073	386.21
788.254	425.12
788.435	521.38
788.616	423.08
788.797	349.35
788.978	388.26
789.159	455.84
789.34	527.52
789.522	431.27
789.703	451.75
789.884	472.23
790.065	418.98
790.246	380.07
790.427	378.02
790.607	423.08
790.788	461.99
790.969	418.98
791.15	402.6
791.331	443.56
791.512	441.51
791.693	347.3
791.874	394.4
792.054	539.81
792.235	373.92
792.416	378.02
792.597	394.4
792.778	357.54
792.958	341.16
793.139	408.74
793.32	380.07
793.5	380.07
793.681	427.17
793.862	410.79
794.042	351.4
794.223	312.49
794.404	312.49
794.584	345.25
794.765	345.25
794.945	386.21
795.126	418.98
795.306	427.17
795.487	396.45
795.667	388.26
795.848	396.45
796.028	314.53
796.209	378.02
796.389	310.44
796.57	439.46
796.75	373.92
796.93	369.83
797.111	341.16
797.291	369.83
797.471	355.49
797.652	292.01
797.832	328.87
798.012	306.34
798.192	281.77
798.373	322.73
798.553	244.9
798.733	353.45
798.913	267.43
799.093	283.81
799.274	298.15
799.454	320.68
799.634	296.1
799.814	371.88
799.994	267.43
800.174	375.97
800.354	304.29
800.534	337.06
800.714	232.62
800.894	271.53
801.074	234.66
801.254	275.62
801.434	271.53
801.614	271.53
801.794	296.1
801.974	918.68
802.154	322.73
802.334	230.57
802.514	230.57
802.693	322.73
802.873	255.14
803.053	271.53
803.233	271.53
803.413	314.53
803.592	201.9
803.772	240.81
803.952	341.16
804.131	222.38
804.311	246.95
804.491	289.96
804.67	238.76
804.85	218.28
805.03	263.33
805.209	249
805.389	234.66
805.568	208.04
805.748	308.39
805.928	269.48
806.107	224.42
806.287	273.57
806.466	226.47
806.646	255.14
806.825	265.38
807.004	165.03
807.184	224.42
807.363	249
807.543	197.8
807.722	208.04
807.901	349.35
808.081	267.43
808.26	126.12
808.439	210.09
808.619	246.95
808.798	279.72
808.977	285.86
809.156	214.18
809.336	255.14
809.515	222.38
809.694	226.47
809.873	222.38
810.052	218.28
810.231	287.91
810.411	271.53
810.59	230.57
810.769	183.46
810.948	222.38
811.127	234.66
811.306	173.22
811.485	203.94
811.664	287.91
811.843	191.66
812.022	267.43
812.201	201.9
812.38	181.42
812.559	140.46
812.737	267.43
812.916	156.84
813.095	177.32
813.274	183.46
813.453	214.18
813.632	173.22
813.811	246.95
813.989	154.79
814.168	226.47
814.347	117.93
814.526	185.51
814.704	193.7
814.883	292.01
815.062	185.51
815.24	224.42
815.419	181.42
815.598	234.66
815.776	117.93
815.955	230.57
816.133	185.51
816.312	179.37
816.49	181.42
816.669	181.42
816.847	144.55
817.026	169.13
817.204	179.37
817.383	165.03
817.561	128.17
817.74	224.42
817.918	191.66
818.097	97.45
818.275	140.46
818.453	191.66
818.632	193.7
818.81	165.03
818.988	122.02
819.167	124.07
819.345	115.88
819.523	144.55
819.701	197.8
819.879	83.11
820.058	128.17
820.236	263.33
820.414	124.07
820.592	181.42
820.77	181.42
820.948	158.89
821.127	189.61
821.305	124.07
821.483	87.21
821.661	259.24
821.839	165.03
822.017	113.83
822.195	197.8
822.373	205.99
822.551	175.27
822.729	132.26
822.907	115.88
823.085	87.21
823.262	173.22
823.44	109.74
823.618	124.07
823.796	115.88
823.974	107.69
824.152	140.46
824.329	175.27
824.507	169.13
824.685	156.84
824.863	101.55
825.04	87.21
825.218	191.66
825.396	152.74
825.574	222.38
825.751	126.12
825.929	185.51
826.107	109.74
826.284	115.88
826.462	181.42
826.639	99.5
826.817	107.69
826.994	101.55
827.172	103.59
827.349	191.66
827.527	140.46
827.704	103.59
827.882	136.36
828.059	193.7
828.237	56.49
828.414	113.83
828.591	1.19
828.769	109.74
828.946	93.35
829.124	165.03
829.301	132.26
829.478	111.78
829.655	91.31
829.833	158.89
830.01	81.07
830.187	107.69
830.364	107.69
830.542	124.07
830.719	177.32
830.896	181.42
831.073	130.22
831.25	175.27
831.427	122.02
831.604	93.35
831.782	134.31
831.959	83.11
832.136	124.07
832.313	136.36
832.49	128.17
832.667	175.27
832.844	74.92
833.021	136.36
833.198	115.88
833.374	109.74
833.551	117.93
833.728	124.07
833.905	99.5
834.082	83.11
834.259	64.68
834.436	119.98
834.612	130.22
834.789	132.26
834.966	111.78
835.143	115.88
835.319	40.11
835.496	85.16
835.673	185.51
835.85	140.46
836.026	117.93
836.203	101.55
836.38	107.69
836.556	103.59
836.733	134.31
836.909	265.38
837.086	105.64
837.262	36.01
837.439	91.31
837.616	126.12
837.792	103.59
837.968	95.4
838.145	58.54
838.321	74.92
838.498	107.69
838.674	115.88
838.851	105.64
839.027	62.63
839.203	83.11
839.38	136.36
839.556	50.35
839.732	50.35
839.909	128.17
840.085	113.83
840.261	42.15
840.437	128.17
840.614	54.44
840.79	115.88
840.966	93.35
841.142	146.6
841.318	136.36
841.494	109.74
841.671	132.26
841.847	154.79
842.023	25.77
842.199	124.07
842.375	132.26
842.551	-9.05
842.727	160.94
842.903	107.69
843.079	62.63
843.255	101.55
843.431	72.87
843.607	91.31
843.783	-52.05
843.959	109.74
844.134	111.78
844.31	156.84
844.486	62.63
844.662	-29.52
844.838	107.69
845.013	117.93
845.189	126.12
845.365	66.73
845.541	44.2
845.716	50.35
845.892	136.36
846.068	85.16
846.244	46.25
846.419	156.84
846.595	44.2
846.77	74.92
846.946	91.31
847.122	109.74
847.297	27.82
847.473	83.11
847.648	79.02
847.824	156.84
847.999	79.02
848.175	62.63
848.35	89.26
848.526	132.26
848.701	119.98
848.876	124.07
849.052	58.54
849.227	97.45
849.403	-0.85
849.578	119.98
849.753	72.87
849.929	117.93
850.104	109.74
850.279	95.4
850.454	89.26
850.63	17.58
850.805	-7
850.98	50.35
851.155	99.5
851.33	-7
851.505	83.11
851.681	167.08
851.856	87.21
852.031	117.93
852.206	-0.85
852.381	36.01
852.556	72.87
852.731	117.93
852.906	128.17
853.081	109.74
853.256	179.37
853.431	103.59
853.606	36.01
853.781	60.59
853.956	48.3
854.131	52.39
854.305	-15.19
854.48	-0.85
854.655	60.59
854.83	91.31
855.005	58.54
855.18	48.3
855.354	111.78
855.529	95.4
855.704	33.96
855.879	44.2
856.053	42.15
856.228	54.44
856.403	17.58
856.577	56.49
856.752	29.87
856.926	83.11
857.101	72.87
857.276	50.35
857.45	54.44
857.625	165.03
857.799	68.78
857.974	60.59
858.148	64.68
858.323	111.78
858.497	76.97
858.672	11.43
858.846	-2.9
859.02	1.19
859.195	60.59
859.369	128.17
859.543	44.2
859.718	36.01
859.892	68.78
860.066	46.25
860.241	62.63
860.415	13.48
860.589	7.34
860.763	52.39
860.938	-15.19
861.112	68.78
861.286	76.97
861.46	85.16
861.634	19.63
861.808	126.12
861.982	70.83
862.157	-15.19
862.331	13.48
862.505	29.87
862.679	119.98
862.853	62.63
863.027	25.77
863.201	167.08
863.375	-19.29
863.549	183.46
863.722	-2.9
863.896	107.69
864.07	50.35
864.244	140.46
864.418	52.39
864.592	46.25
864.766	54.44
864.939	117.93
865.113	33.96
865.287	44.2
865.461	31.91
865.634	46.25
865.808	83.11
865.982	29.87
866.156	33.96
866.329	-33.62
866.503	76.97
866.676	54.44
866.85	3.24
867.024	52.39
867.197	1.19
867.371	132.26
867.544	42.15
867.718	68.78
867.891	29.87
868.065	-27.48
868.238	64.68
868.412	62.63
868.585	99.5
868.759	107.69
868.932	33.96
869.105	42.15
869.279	27.82
869.452	38.06
869.625	142.5
869.799	93.35
869.972	48.3
870.145	58.54
870.319	91.31
870.492	117.93
870.665	52.39
870.838	-7
871.011	1.19
871.185	17.58
871.358	9.39
871.531	11.43
871.704	19.63
871.877	33.96
872.05	46.25
872.223	29.87
872.396	79.02
872.569	40.11
872.742	-21.33
872.915	105.64
873.088	13.48
873.261	117.93
873.434	95.4
873.607	62.63
873.78	66.73
873.953	42.15
874.126	54.44
874.299	111.78
874.471	13.48
874.644	109.74
874.817	85.16
874.99	66.73
875.163	29.87
875.335	40.11
875.508	-37.72
875.681	87.21
875.853	3.24
876.026	46.25
876.199	27.82
876.371	17.58
876.544	-33.62
876.717	13.48
876.889	33.96
877.062	64.68
877.234	-17.24
877.407	52.39
877.579	42.15
877.752	109.74
877.924	60.59
878.097	40.11
878.269	58.54
878.442	40.11
878.614	132.26
878.786	-29.52
878.959	91.31
879.131	25.77
879.303	87.21
879.476	74.92
879.648	76.97
879.82	-29.52
879.993	-11.09
880.165	9.39
880.337	9.39
880.509	85.16
880.681	9.39
880.854	19.63
881.026	50.35
881.198	111.78
881.37	36.01
881.542	17.58
881.714	50.35
881.886	3.24
882.058	79.02
882.23	25.77
882.402	29.87
882.574	99.5
882.746	46.25
882.918	68.78
883.09	36.01
883.262	27.82
883.434	42.15
883.606	40.11
883.778	-35.67
883.95	109.74
884.122	3.24
884.293	-23.38
884.465	46.25
884.637	46.25
884.809	64.68
884.98	74.92
885.152	76.97
885.324	38.06
885.496	-19.29
885.667	17.58
885.839	11.43
886.011	64.68
886.182	25.77
886.354	70.83
886.525	7.34
886.697	-43.86
886.869	1.19
887.04	21.67
887.212	93.35
887.383	124.07
887.555	-35.67
887.726	48.3
887.897	25.77
888.069	9.39
888.24	132.26
888.412	13.48
888.583	66.73
888.754	-93.01
888.926	42.15
889.097	-31.57
889.268	-31.57
889.44	-7
889.611	36.01
889.782	-11.09
889.953	13.48
890.125	13.48
890.296	1.19
890.467	79.02
890.638	79.02
890.809	72.87
890.98	-4.95
891.151	50.35
891.323	54.44
891.494	124.07
891.665	83.11
891.836	17.58
892.007	3.24
892.178	66.73
892.349	93.35
892.52	-52.05
892.691	11.43
892.862	11.43
893.032	5.29
893.203	42.15
893.374	27.82
893.545	58.54
893.716	25.77
893.887	5.29
894.057	-21.33
894.228	62.63
894.399	48.3
894.57	103.59
894.74	50.35
894.911	-7
895.082	54.44
895.253	15.53
895.423	93.35
895.594	52.39
895.764	66.73
895.935	42.15
896.106	-4.95
896.276	38.06
896.447	76.97
896.617	3.24
896.788	-37.72
896.958	-47.96
897.129	36.01
897.299	15.53
897.47	115.88
897.64	109.74
897.81	-43.86
897.981	79.02
898.151	40.11
898.322	9.39
898.492	52.39
898.662	-13.14
898.832	-11.09
899.003	58.54
899.173	87.21
899.343	46.25
899.513	17.58
