Data from USB4F104151__246__14-34-12-835.txt Node

Date: Thu Mar 13 14:34:12 EDT 2025
User: louis
Spectrometer: USB4F10415
Trigger mode: 4
Integration Time (sec): 2.500000E-2
Scans to average: 1
Electric dark correction enabled: true
Nonlinearity correction enabled: false
Boxcar width: 0
XAxis mode: Wavelengths
Number of Pixels in Spectrum: 3648
>>>>>Begin Spectral Data<<<<<
178.204	-125.27
178.424	-125.27
178.644	-125.27
178.864	-127.32
179.084	-123.22
179.304	-22.87
179.524	-4.44
179.744	44.71
179.964	59.05
180.184	-22.87
180.404	22.19
180.624	-2.39
180.844	-22.87
181.064	-53.59
181.283	26.28
181.503	-61.78
181.723	38.57
181.943	-57.68
182.163	104.11
182.383	30.38
182.602	126.63
182.822	32.43
183.042	-6.49
183.262	48.81
183.482	89.77
183.701	110.25
183.921	75.43
184.141	87.72
184.361	118.44
184.58	50.86
184.8	42.67
185.02	-18.77
185.239	102.06
185.459	63.15
185.679	128.68
185.898	-63.83
186.118	26.28
186.338	26.28
186.557	11.95
186.777	28.33
186.997	97.96
187.216	40.62
187.436	173.74
187.655	28.33
187.875	61.1
188.095	50.86
188.314	38.57
188.534	136.87
188.753	50.86
188.973	34.47
189.192	120.49
189.412	36.52
189.631	13.99
189.851	44.71
190.07	151.21
190.29	28.33
190.509	42.67
190.729	22.19
190.948	149.16
191.168	177.83
191.387	71.34
191.607	59.05
191.826	42.67
192.045	-69.97
192.265	79.53
192.484	20.14
192.704	52.91
192.923	-63.83
193.142	181.93
193.362	5.8
193.581	91.82
193.8	97.96
194.02	104.11
194.239	-41.3
194.458	59.05
194.678	102.06
194.897	75.43
195.116	34.47
195.335	52.91
195.555	77.48
195.774	28.33
195.993	44.71
196.212	30.38
196.432	100.01
196.651	-26.96
196.87	11.95
197.089	134.82
197.308	52.91
197.528	71.34
197.747	-18.77
197.966	36.52
198.185	57
198.404	46.76
198.623	34.47
198.842	79.53
199.062	104.11
199.281	57
199.5	120.49
199.719	83.63
199.938	71.34
200.157	87.72
200.376	100.01
200.595	126.63
200.814	167.59
201.033	61.1
201.252	44.71
201.471	9.9
201.69	54.95
201.909	77.48
202.128	95.91
202.347	54.95
202.566	42.67
202.785	-26.96
203.004	50.86
203.223	173.74
203.442	106.15
203.661	54.95
203.879	106.15
204.098	87.72
204.317	63.15
204.536	91.82
204.755	97.96
204.974	44.71
205.193	63.15
205.411	126.63
205.63	11.95
205.849	75.43
206.068	44.71
206.287	18.09
206.505	91.82
206.724	44.71
206.943	-4.44
207.162	93.87
207.381	50.86
207.599	77.48
207.818	67.24
208.037	61.1
208.255	67.24
208.474	126.63
208.693	106.15
208.911	7.85
209.13	20.14
209.349	102.06
209.567	1.71
209.786	83.63
210.005	85.67
210.223	18.09
210.442	24.23
210.661	26.28
210.879	130.73
211.098	20.14
211.316	38.57
211.535	79.53
211.753	5.8
211.972	100.01
212.191	3.75
212.409	24.23
212.628	28.33
212.846	79.53
213.065	59.05
213.283	118.44
213.502	-12.63
213.72	48.81
213.938	81.58
214.157	67.24
214.375	54.95
214.594	54.95
214.812	44.71
215.031	11.95
215.249	34.47
215.467	-12.63
215.686	-4.44
215.904	59.05
216.122	34.47
216.341	44.71
216.559	52.91
216.778	52.91
216.996	77.48
217.214	104.11
217.432	59.05
217.651	61.1
217.869	71.34
218.087	30.38
218.306	87.72
218.524	42.67
218.742	100.01
218.96	-6.49
219.179	16.04
219.397	116.39
219.615	134.82
219.833	44.71
220.051	63.15
220.27	22.19
220.488	54.95
220.706	95.91
220.924	67.24
221.142	114.34
221.36	50.86
221.578	46.76
221.796	26.28
222.015	75.43
222.233	75.43
222.451	93.87
222.669	-47.44
222.887	128.68
223.105	-33.11
223.323	61.1
223.541	-6.49
223.759	75.43
223.977	26.28
224.195	128.68
224.413	34.47
224.631	-22.87
224.849	-31.06
225.067	102.06
225.285	50.86
225.503	67.24
225.721	36.52
225.939	52.91
226.157	9.9
226.375	71.34
226.592	-18.77
226.81	34.47
227.028	69.29
227.246	71.34
227.464	26.28
227.682	85.67
227.9	71.34
228.117	26.28
228.335	79.53
228.553	97.96
228.771	26.28
228.989	32.43
229.206	75.43
229.424	26.28
229.642	5.8
229.86	-39.25
230.077	-39.25
230.295	26.28
230.513	140.97
230.731	61.1
230.948	93.87
231.166	30.38
231.384	28.33
231.601	34.47
231.819	63.15
232.037	16.04
232.254	1.71
232.472	110.25
232.689	44.71
232.907	108.2
233.125	91.82
233.342	63.15
233.56	26.28
233.777	16.04
233.995	28.33
234.213	18.09
234.43	63.15
234.648	38.57
234.865	-10.58
235.083	79.53
235.3	108.2
235.518	52.91
235.735	145.06
235.953	71.34
236.17	-18.77
236.388	22.19
236.605	79.53
236.822	5.8
237.04	71.34
237.257	-14.68
237.475	22.19
237.692	42.67
237.909	69.29
238.127	38.57
238.344	118.44
238.562	143.02
238.779	26.28
238.996	50.86
239.214	-0.34
239.431	69.29
239.648	-10.58
239.865	42.67
240.083	91.82
240.3	40.62
240.517	-29.01
240.735	50.86
240.952	16.04
241.169	67.24
241.386	18.09
241.603	28.33
241.821	93.87
242.038	136.87
242.255	59.05
242.472	1.71
242.689	81.58
242.907	34.47
243.124	-10.58
243.341	9.9
243.558	71.34
243.775	1.71
243.992	-80.21
244.209	63.15
244.426	71.34
244.643	118.44
244.86	87.72
245.078	22.19
245.295	13.99
245.512	-4.44
245.729	-14.68
245.946	75.43
246.163	13.99
246.38	34.47
246.597	-31.06
246.814	34.47
247.031	59.05
247.248	85.67
247.464	34.47
247.681	59.05
247.898	46.76
248.115	28.33
248.332	1.71
248.549	50.86
248.766	132.78
248.983	91.82
249.2	122.54
249.417	132.78
249.633	63.15
249.85	50.86
250.067	100.01
250.284	79.53
250.501	83.63
250.717	77.48
250.934	7.85
251.151	28.33
251.368	79.53
251.585	71.34
251.801	36.52
252.018	7.85
252.235	134.82
252.451	-72.02
252.668	-26.96
252.885	77.48
253.102	77.48
253.318	1.71
253.535	36.52
253.752	22.19
253.968	50.86
254.185	18.09
254.401	42.67
254.618	89.77
254.835	50.86
255.051	161.45
255.268	116.39
255.484	67.24
255.701	28.33
255.917	75.43
256.134	-47.44
256.351	32.43
256.567	-24.92
256.784	36.52
257	-14.68
257.217	79.53
257.433	44.71
257.65	-4.44
257.866	93.87
258.082	-39.25
258.299	-18.77
258.515	61.1
258.732	5.8
258.948	18.09
259.165	30.38
259.381	-14.68
259.597	-12.63
259.814	93.87
260.03	5.8
260.246	44.71
260.463	140.97
260.679	42.67
260.895	63.15
261.112	93.87
261.328	71.34
261.544	50.86
261.761	147.11
261.977	-4.44
262.193	112.3
262.409	69.29
262.626	79.53
262.842	77.48
263.058	22.19
263.274	120.49
263.49	5.8
263.707	1.71
263.923	34.47
264.139	20.14
264.355	38.57
264.571	97.96
264.787	42.67
265.004	104.11
265.22	5.8
265.436	-20.82
265.652	42.67
265.868	132.78
266.084	-45.4
266.3	-14.68
266.516	-6.49
266.732	32.43
266.948	30.38
267.164	61.1
267.38	85.67
267.596	85.67
267.812	87.72
268.028	79.53
268.244	22.19
268.46	110.25
268.676	63.15
268.892	54.95
269.108	69.29
269.324	59.05
269.54	-31.06
269.756	126.63
269.972	26.28
270.188	42.67
270.403	42.67
270.619	50.86
270.835	91.82
271.051	116.39
271.267	57
271.483	9.9
271.698	5.8
271.914	93.87
272.13	149.16
272.346	73.39
272.562	-4.44
272.777	77.48
272.993	132.78
273.209	26.28
273.425	61.1
273.64	1.71
273.856	85.67
274.072	50.86
274.287	28.33
274.503	52.91
274.719	91.82
274.934	65.19
275.15	30.38
275.366	36.52
275.581	-31.06
275.797	71.34
276.012	91.82
276.228	91.82
276.444	52.91
276.659	140.97
276.875	1.71
277.09	36.52
277.306	-55.64
277.521	44.71
277.737	-14.68
277.952	91.82
278.168	-0.34
278.383	63.15
278.599	18.09
278.814	-18.77
279.03	1.71
279.245	118.44
279.461	73.39
279.676	38.57
279.892	1.71
280.107	1.71
280.322	-14.68
280.538	-33.11
280.753	-10.58
280.969	61.1
281.184	65.19
281.399	97.96
281.615	93.87
281.83	65.19
282.045	-80.21
282.26	-39.25
282.476	52.91
282.691	63.15
282.906	65.19
283.122	71.34
283.337	-29.01
283.552	89.77
283.767	61.1
283.983	169.64
284.198	36.52
284.413	59.05
284.628	-14.68
284.843	67.24
285.058	54.95
285.274	1.71
285.489	18.09
285.704	134.82
285.919	-12.63
286.134	22.19
286.349	3.75
286.564	91.82
286.779	122.54
286.995	26.28
287.21	20.14
287.425	104.11
287.64	5.8
287.855	118.44
288.07	77.48
288.285	1.71
288.5	120.49
288.715	22.19
288.93	-31.06
289.145	69.29
289.36	100.01
289.575	59.05
289.79	42.67
290.004	-2.39
290.219	91.82
290.434	-10.58
290.649	42.67
290.864	71.34
291.079	26.28
291.294	85.67
291.509	40.62
291.724	34.47
291.938	52.91
292.153	63.15
292.368	20.14
292.583	38.57
292.798	124.58
293.012	108.2
293.227	69.29
293.442	-31.06
293.657	100.01
293.871	124.58
294.086	87.72
294.301	85.67
294.516	52.91
294.73	3.75
294.945	1.71
295.16	30.38
295.374	126.63
295.589	89.77
295.804	59.05
296.018	67.24
296.233	116.39
296.447	124.58
296.662	26.28
296.877	108.2
297.091	11.95
297.306	95.91
297.52	22.19
297.735	16.04
297.949	81.58
298.164	18.09
298.378	104.11
298.593	42.67
298.807	48.81
299.022	36.52
299.236	114.34
299.451	-4.44
299.665	9.9
299.88	22.19
300.094	57
300.309	112.3
300.523	102.06
300.737	50.86
300.952	75.43
301.166	69.29
301.381	42.67
301.595	13.99
301.809	42.67
302.024	67.24
302.238	50.86
302.452	118.44
302.667	75.43
302.881	42.67
303.095	71.34
303.309	108.2
303.524	-6.49
303.738	87.72
303.952	-0.34
304.166	42.67
304.381	22.19
304.595	95.91
304.809	32.43
305.023	108.2
305.237	44.71
305.452	22.19
305.666	18.09
305.88	83.63
306.094	1.71
306.308	132.78
306.522	61.1
306.736	30.38
306.95	93.87
307.164	46.76
307.379	83.63
307.593	116.39
307.807	59.05
308.021	42.67
308.235	85.67
308.449	9.9
308.663	46.76
308.877	100.01
309.091	69.29
309.305	118.44
309.519	13.99
309.733	-26.96
309.947	-53.59
310.161	95.91
310.374	89.77
310.588	71.34
310.802	67.24
311.016	30.38
311.23	102.06
311.444	-45.4
311.658	9.9
311.872	110.25
312.085	50.86
312.299	83.63
312.513	91.82
312.727	67.24
312.941	48.81
313.154	-39.25
313.368	-14.68
313.582	5.8
313.796	1.71
314.009	9.9
314.223	79.53
314.437	42.67
314.651	102.06
314.864	79.53
315.078	13.99
315.292	38.57
315.505	-10.58
315.719	79.53
315.933	44.71
316.146	18.09
316.36	9.9
316.573	112.3
316.787	50.86
317.001	110.25
317.214	1.71
317.428	63.15
317.641	71.34
317.855	104.11
318.068	75.43
318.282	50.86
318.495	153.26
318.709	59.05
318.922	44.71
319.136	214.7
319.349	20.14
319.563	-4.44
319.776	61.1
319.99	-14.68
320.203	42.67
320.417	28.33
320.63	46.76
320.843	114.34
321.057	75.43
321.27	52.91
321.483	112.3
321.697	116.39
321.91	87.72
322.124	140.97
322.337	69.29
322.55	-39.25
322.763	26.28
322.977	38.57
323.19	132.78
323.403	140.97
323.617	11.95
323.83	59.05
324.043	44.71
324.256	128.68
324.469	13.99
324.683	124.58
324.896	48.81
325.109	71.34
325.322	-26.96
325.535	71.34
325.748	95.91
325.962	77.48
326.175	38.57
326.388	75.43
326.601	91.82
326.814	11.95
327.027	93.87
327.24	79.53
327.453	1.71
327.666	77.48
327.879	42.67
328.092	75.43
328.305	50.86
328.518	77.48
328.731	-18.77
328.944	83.63
329.157	122.54
329.37	50.86
329.583	69.29
329.796	46.76
330.009	-24.92
330.222	11.95
330.435	11.95
330.648	22.19
330.861	36.52
331.073	151.21
331.286	75.43
331.499	-4.44
331.712	71.34
331.925	36.52
332.138	75.43
332.35	46.76
332.563	-12.63
332.776	149.16
332.989	34.47
333.202	46.76
333.414	83.63
333.627	67.24
333.84	42.67
334.053	9.9
334.265	44.71
334.478	26.28
334.691	93.87
334.903	59.05
335.116	13.99
335.329	30.38
335.541	108.2
335.754	83.63
335.966	48.81
336.179	40.62
336.392	18.09
336.604	44.71
336.817	28.33
337.029	116.39
337.242	75.43
337.454	11.95
337.667	34.47
337.88	140.97
338.092	18.09
338.305	91.82
338.517	85.67
338.729	116.39
338.942	126.63
339.154	20.14
339.367	26.28
339.579	61.1
339.792	59.05
340.004	165.54
340.217	1.71
340.429	63.15
340.641	128.68
340.854	91.82
341.066	42.67
341.278	75.43
341.491	93.87
341.703	-2.39
341.915	81.58
342.128	42.67
342.34	67.24
342.552	61.1
342.764	22.19
342.977	20.14
343.189	1.71
343.401	38.57
343.613	9.9
343.826	-35.16
344.038	18.09
344.25	100.01
344.462	30.38
344.674	34.47
344.886	83.63
345.099	34.47
345.311	77.48
345.523	1.71
345.735	11.95
345.947	120.49
346.159	44.71
346.371	48.81
346.583	85.67
346.795	151.21
347.007	112.3
347.219	54.95
347.431	69.29
347.643	100.01
347.855	79.53
348.067	93.87
348.279	-2.39
348.491	52.91
348.703	87.72
348.915	67.24
349.127	30.38
349.339	128.68
349.551	50.86
349.763	63.15
349.975	59.05
350.187	128.68
350.399	24.23
350.61	30.38
350.822	71.34
351.034	-2.39
351.246	54.95
351.458	57
351.669	126.63
351.881	71.34
352.093	67.24
352.305	42.67
352.517	112.3
352.728	95.91
352.94	132.78
353.152	63.15
353.363	5.8
353.575	-6.49
353.787	147.11
353.999	108.2
354.21	102.06
354.422	32.43
354.633	71.34
354.845	77.48
355.057	67.24
355.268	149.16
355.48	126.63
355.692	-26.96
355.903	9.9
356.115	104.11
356.326	11.95
356.538	91.82
356.749	63.15
356.961	110.25
357.172	40.62
357.384	87.72
357.595	120.49
357.807	79.53
358.018	87.72
358.23	52.91
358.441	110.25
358.653	26.28
358.864	108.2
359.075	16.04
359.287	9.9
359.498	114.34
359.709	83.63
359.921	71.34
360.132	87.72
360.344	59.05
360.555	75.43
360.766	79.53
360.977	75.43
361.189	75.43
361.4	52.91
361.611	108.2
361.823	124.58
362.034	75.43
362.245	28.33
362.456	77.48
362.667	38.57
362.879	42.67
363.09	24.23
363.301	134.82
363.512	30.38
363.723	59.05
363.935	59.05
364.146	100.01
364.357	44.71
364.568	116.39
364.779	67.24
364.99	75.43
365.201	46.76
365.412	165.54
365.623	18.09
365.834	69.29
366.045	83.63
366.256	95.91
366.467	24.23
366.678	-4.44
366.889	50.86
367.1	67.24
367.311	89.77
367.522	-8.53
367.733	73.39
367.944	75.43
368.155	22.19
368.366	85.67
368.577	120.49
368.788	89.77
368.999	22.19
369.209	97.96
369.42	54.95
369.631	122.54
369.842	85.67
370.053	28.33
370.264	114.34
370.474	71.34
370.685	71.34
370.896	69.29
371.107	130.73
371.317	87.72
371.528	83.63
371.739	132.78
371.95	61.1
372.16	108.2
372.371	-14.68
372.582	22.19
372.792	112.3
373.003	61.1
373.214	61.1
373.424	102.06
373.635	20.14
373.846	67.24
374.056	42.67
374.267	26.28
374.477	124.58
374.688	57
374.898	67.24
375.109	54.95
375.319	120.49
375.53	83.63
375.74	42.67
375.951	75.43
376.161	87.72
376.372	132.78
376.582	42.67
376.793	69.29
377.003	30.38
377.214	50.86
377.424	124.58
377.635	42.67
377.845	-53.59
378.055	89.77
378.266	36.52
378.476	128.68
378.686	83.63
378.897	57
379.107	104.11
379.317	67.24
379.528	18.09
379.738	36.52
379.948	38.57
380.158	50.86
380.369	67.24
380.579	22.19
380.789	93.87
380.999	87.72
381.21	36.52
381.42	163.5
381.63	26.28
381.84	149.16
382.05	100.01
382.261	140.97
382.471	102.06
382.681	34.47
382.891	100.01
383.101	75.43
383.311	24.23
383.521	54.95
383.731	149.16
383.941	104.11
384.151	9.9
384.361	116.39
384.571	87.72
384.781	9.9
384.991	120.49
385.201	165.54
385.411	102.06
385.621	138.92
385.831	124.58
386.041	18.09
386.251	26.28
386.461	210.6
386.671	67.24
386.881	75.43
387.091	40.62
387.301	138.92
387.511	69.29
387.72	50.86
387.93	93.87
388.14	36.52
388.35	9.9
388.56	120.49
388.769	89.77
388.979	57
389.189	36.52
389.399	106.15
389.609	116.39
389.818	77.48
390.028	128.68
390.238	132.78
390.447	18.09
390.657	26.28
390.867	26.28
391.076	59.05
391.286	116.39
391.496	100.01
391.705	75.43
391.915	165.54
392.125	108.2
392.334	7.85
392.544	130.73
392.753	61.1
392.963	-10.58
393.172	100.01
393.382	75.43
393.591	157.35
393.801	54.95
394.01	159.4
394.22	57
394.429	42.67
394.639	71.34
394.848	110.25
395.058	120.49
395.267	91.82
395.477	87.72
395.686	52.91
395.895	173.74
396.105	143.02
396.314	147.11
396.524	157.35
396.733	175.78
396.942	71.34
397.152	120.49
397.361	235.18
397.57	116.39
397.78	126.63
397.989	126.63
398.198	159.4
398.407	134.82
398.617	175.78
398.826	136.87
399.035	122.54
399.244	177.83
399.453	126.63
399.663	63.15
399.872	112.3
400.081	108.2
400.29	190.12
400.499	126.63
400.708	151.21
400.917	194.22
401.127	186.02
401.336	165.54
401.545	175.78
401.754	149.16
401.963	83.63
402.172	87.72
402.381	102.06
402.59	116.39
402.799	198.31
403.008	157.35
403.217	149.16
403.426	104.11
403.635	136.87
403.844	231.08
404.053	183.98
404.262	175.78
404.471	224.94
404.68	220.84
404.888	173.74
405.097	143.02
405.306	190.12
405.515	190.12
405.724	169.64
405.933	263.85
406.142	222.89
406.35	233.13
406.559	190.12
406.768	167.59
406.977	302.76
407.185	267.94
407.394	186.02
407.603	255.65
407.812	306.85
408.02	386.72
408.229	267.94
408.438	317.09
408.646	317.09
408.855	356.01
409.064	337.57
409.272	235.18
409.481	331.43
409.69	353.96
409.898	274.09
410.107	380.58
410.315	255.65
410.524	448.16
410.733	376.48
410.941	419.49
411.15	435.88
411.358	480.93
411.567	476.84
411.775	382.63
411.984	476.84
412.192	485.03
412.401	427.68
412.609	599.71
412.818	593.57
413.026	609.95
413.234	671.39
413.443	640.67
413.651	657.06
413.86	673.44
414.068	732.83
414.276	677.54
414.485	698.02
414.693	790.17
414.901	818.85
415.11	734.88
415.318	835.23
415.526	812.7
415.734	937.63
415.943	886.43
416.151	1035.93
416.359	992.92
416.567	1132.19
416.776	1001.12
416.984	1123.99
417.192	1181.34
417.4	1164.95
417.608	1136.28
417.817	1263.26
418.025	1273.5
418.233	1386.13
418.441	1316.5
418.649	1312.41
418.857	1588.88
419.065	1568.4
419.273	1527.44
419.481	1527.44
419.689	1611.41
419.897	1681.04
420.105	1750.67
420.313	1701.52
420.521	1846.93
420.729	1873.55
420.937	1934.99
421.145	2010.76
421.353	2084.49
421.561	2180.75
421.769	2211.46
421.977	2424.45
422.185	2236.04
422.393	2467.46
422.601	2625.15
422.809	2653.83
423.017	2729.6
423.224	2766.46
423.432	2852.48
423.64	2922.11
423.848	3055.23
424.056	3090.04
424.263	3180.15
424.471	3305.08
424.679	3384.95
424.887	3589.75
425.094	3581.56
425.302	3720.82
425.51	3790.45
425.718	3909.23
425.925	3896.94
426.133	4064.88
426.341	4255.34
426.548	4359.78
426.756	4572.77
426.964	4517.48
427.171	4992.61
427.379	4998.75
427.586	4916.83
427.794	5072.48
428.001	5353.05
428.209	5539.41
428.417	5533.27
428.624	5998.16
428.832	5803.6
429.039	5752.4
429.247	5924.43
429.454	6448.71
429.662	6741.57
429.869	6374.99
430.076	6751.81
430.284	6760
430.491	6915.65
430.699	7329.34
430.906	7257.66
431.114	7374.39
431.321	7718.45
431.528	7874.1
431.736	8420.91
431.943	8695.33
432.15	8322.6
432.358	8619.56
432.565	9004.58
432.772	8840.74
432.979	9432.6
433.187	9571.86
433.394	9635.35
433.601	10212.88
433.808	10284.56
434.016	10235.41
434.223	10690.06
434.43	11425.28
434.637	11138.56
434.844	11759.1
435.052	11912.69
435.259	11896.31
435.466	12080.63
435.673	11830.77
435.88	12609
436.087	13317.6
436.294	13166.05
436.501	13057.51
436.708	13340.13
436.915	13567.45
437.122	14134.74
437.329	14132.69
437.537	14861.77
437.743	14894.54
437.95	14833.1
438.157	15566.27
438.364	15988.15
438.571	16074.17
438.778	16188.85
438.985	17620.38
439.192	16666.03
439.399	17360.29
439.606	16924.07
439.813	17995.16
440.02	19017.1
440.227	18634.13
440.433	18640.27
440.64	19264.9
440.847	19031.43
441.054	19395.97
441.261	21083.5
441.467	20346.23
441.674	21046.63
441.881	21658.98
442.088	21503.33
442.294	21146.98
442.501	21908.83
442.708	22424.92
442.914	23354.69
443.121	24059.2
443.328	23543.11
443.534	25074.99
443.741	24519.99
443.948	24280.38
444.154	25898.27
444.361	25849.12
444.568	26055.97
444.774	25763.11
444.981	26176.8
445.187	26705.17
445.394	28148.99
445.6	27725.06
445.807	30610.65
446.013	29103.34
446.22	29758.69
446.426	31046.86
446.633	30708.95
446.839	31663.3
447.046	30549.21
447.252	32443.58
447.459	32191.68
447.665	32029.89
447.871	33612.97
448.078	35071.12
448.284	33510.57
448.491	34071.71
448.697	35697.8
448.903	36084.87
449.11	36170.88
449.316	35662.99
449.522	36578.43
449.728	37557.36
449.935	38186.08
450.141	37880.94
450.347	38524
450.553	37194.87
450.76	38165.6
450.966	39177.3
451.172	38816.86
451.378	39904.33
451.584	38767.71
451.791	39545.94
451.997	39697.48
452.203	40336.45
452.409	40369.22
452.615	40195.14
452.821	38440.03
453.027	38036.58
453.233	40365.12
453.44	38378.59
453.646	39269.46
453.852	39050.33
454.058	39955.53
454.264	38657.12
454.47	39273.56
454.676	38673.5
454.882	39658.57
455.088	36146.31
455.294	36766.84
455.5	37690.48
455.705	38286.43
455.911	36129.92
456.117	35947.65
456.323	35101.84
456.529	33420.46
456.735	35026.07
456.941	34055.33
457.147	33096.88
457.352	32218.3
457.558	31868.1
457.764	32038.08
457.97	31464.65
458.176	30641.37
458.381	30977.23
458.587	29519.08
458.793	29291.76
458.999	27479.3
459.204	29498.6
459.41	28753.14
459.616	27198.73
459.821	27260.17
460.027	26699.03
460.233	26256.67
460.438	25099.56
460.644	25312.55
460.85	24016.19
461.055	23557.44
461.261	23676.23
461.466	21902.68
461.672	21083.5
461.878	22754.64
462.083	21159.27
462.289	20721.01
462.494	20741.49
462.7	19676.54
462.905	19139.97
463.111	19553.66
463.316	19950.97
463.522	19262.85
463.727	19400.07
463.932	19332.48
464.138	18998.66
464.343	19207.56
464.549	18705.81
464.754	19117.45
464.959	19133.83
465.165	18845.07
465.37	18042.26
465.575	17618.33
465.781	18019.74
465.986	18126.23
466.191	17499.55
466.397	17419.68
466.602	16569.77
466.807	16942.5
467.012	16973.22
467.218	16950.7
467.423	16573.87
467.628	16940.46
467.833	17491.36
468.038	16801.19
468.244	16287.15
468.449	17075.62
468.654	16217.52
468.859	16174.52
469.064	16274.87
469.269	15717.82
469.474	15881.66
469.679	16205.24
469.885	15656.38
470.09	15574.46
470.295	15455.68
470.5	14982.6
470.705	15549.89
470.91	14898.63
471.115	14906.82
471.32	15072.71
471.525	15080.9
471.73	14591.44
471.935	14534.09
472.139	14020.05
472.344	14280.14
472.549	13757.91
472.754	13845.98
472.959	13569.5
473.164	13489.63
473.369	13069.8
473.574	13669.85
473.778	13438.43
473.983	13250.02
474.188	13290.98
474.393	12813.8
474.598	12670.44
474.802	12615.15
475.007	12531.18
475.212	12633.58
475.417	12119.54
475.621	12146.16
475.826	12195.31
476.031	11765.24
476.235	11677.18
476.44	12129.78
476.645	11652.6
476.849	11535.87
477.054	11711.99
477.259	11480.57
477.463	11290.11
477.668	10896.9
477.872	10966.53
478.077	10980.87
478.282	10731.01
478.486	10724.87
478.691	10610.18
478.895	10546.7
479.1	10618.38
479.304	10434.06
479.509	10223.12
479.713	10444.3
479.918	10036.75
480.122	9975.31
480.326	10237.45
480.531	10442.25
480.735	9881.11
480.94	9991.7
481.144	10239.5
481.348	9645.59
481.553	9891.35
481.757	9672.22
481.961	9897.49
482.166	9932.31
482.37	9723.41
482.574	9621.02
482.778	9580.06
482.983	9897.49
483.187	9700.89
483.391	9809.43
483.595	9752.09
483.8	9434.65
484.004	9807.38
484.208	9963.03
484.412	9520.67
484.616	9811.48
484.821	9799.19
485.025	9631.26
485.229	9791
485.433	9434.65
485.637	9799.19
485.841	9561.62
486.045	9629.21
486.249	9623.06
486.453	9522.71
486.657	9721.37
486.861	9522.71
487.065	9313.82
487.269	9586.2
487.473	9557.53
487.677	9436.7
487.881	9831.96
488.085	9514.52
488.289	9807.38
488.493	9535
488.697	9623.06
488.901	9508.38
489.105	9522.71
489.309	9365.02
489.512	9608.73
489.716	9645.59
489.92	9565.72
490.124	9635.35
490.328	10104.34
490.531	9631.26
490.735	9729.56
490.939	9686.55
491.143	9741.85
491.346	9807.38
491.55	9840.15
491.754	9999.89
491.958	9711.13
492.161	9786.9
492.365	9877.01
492.569	9946.64
492.772	9897.49
492.976	10216.97
493.18	9993.75
493.383	10165.78
493.587	10176.02
493.79	10198.54
493.994	9924.12
494.197	10159.63
494.401	10429.96
494.605	10302.99
494.808	10458.64
495.012	10370.57
495.215	10696.2
495.419	10700.3
495.622	10685.96
495.825	10911.24
496.029	10733.06
496.232	10939.91
496.436	10683.91
496.639	11046.4
496.843	11195.9
497.046	11417.08
497.249	11507.2
497.453	11478.52
497.656	11556.35
497.859	11394.56
498.063	11695.61
498.266	12008.95
498.469	11664.89
498.673	11832.82
498.876	12142.07
499.079	12420.59
499.282	12127.73
499.485	12604.91
499.689	12363.25
499.892	12725.74
500.095	12774.89
500.298	13051.36
500.501	13041.12
500.705	13276.64
500.908	13395.42
501.111	13395.42
501.314	13503.96
501.517	13632.99
501.72	13776.34
501.923	13915.61
502.126	14112.21
502.329	14331.34
502.532	14460.37
502.735	14364.11
502.938	15037.89
503.141	14728.65
503.344	14872.01
503.547	15037.89
503.75	15031.75
503.953	15338.94
504.156	15508.93
504.359	15592.89
504.562	15945.14
504.765	15957.43
504.968	16215.48
505.17	16043.45
505.373	16561.58
505.576	16604.59
505.779	16938.41
505.982	16711.08
506.185	17153.44
506.387	17067.43
506.59	17438.11
506.793	17499.55
506.996	17739.16
507.198	18091.41
507.401	18087.32
507.604	18220.44
507.807	18433.43
508.009	18779.53
508.212	18736.52
508.415	19137.93
508.617	19451.27
508.82	19533.18
509.022	19541.38
509.225	19684.73
509.428	19989.88
509.63	20360.56
509.833	20139.38
510.035	20686.19
510.238	20448.63
510.44	21048.68
510.643	21298.53
510.845	21392.74
511.048	21171.56
511.25	21759.33
511.453	21826.91
511.655	22326.61
511.858	22125.91
512.06	22648.15
512.262	22797.65
512.465	22938.96
512.667	23053.64
512.87	23457.09
513.072	23438.66
513.274	23752
513.477	24173.88
513.679	23991.61
513.881	24149.31
514.084	24366.39
514.286	24726.83
514.488	24917.29
514.69	25621.8
514.893	25648.42
515.095	25271.59
515.297	25795.87
515.499	25773.35
515.701	25963.81
515.904	26727.7
516.106	26889.49
516.308	26856.72
516.51	27395.34
516.712	27356.43
516.914	27606.28
517.116	27788.55
517.318	27737.35
517.52	28245.24
517.722	28232.96
517.925	28394.75
518.127	28820.72
518.329	28945.65
518.531	28841.2
518.733	29494.5
518.935	29474.02
519.136	29705.45
519.338	29859.04
519.54	29932.77
519.742	30125.28
519.944	30323.93
520.146	30561.5
520.348	31020.24
520.55	31036.63
520.752	31171.79
520.954	31653.06
521.155	31573.19
521.357	32052.42
521.559	32226.49
521.761	32677.05
521.963	32365.76
522.164	32801.97
522.366	32808.12
522.568	32847.03
522.77	32939.19
522.971	33617.07
523.173	33141.94
523.375	33442.99
523.576	33350.83
523.778	33432.75
523.98	34161.83
524.181	33873.06
524.383	34104.48
524.584	34141.35
524.786	34256.03
524.988	34067.62
525.189	34851.99
525.391	34704.54
525.592	34737.3
525.794	34849.94
525.995	34780.31
526.197	34524.32
526.398	34927.77
526.6	35402.89
526.801	35413.13
527.003	35122.32
527.204	35150.99
527.406	35583.12
527.607	35421.33
527.808	35652.75
528.01	34974.87
528.211	35314.83
528.412	35662.99
528.614	35529.87
528.815	35490.96
529.016	35814.54
529.218	35423.37
529.419	35964.04
529.62	35503.24
529.822	35267.73
530.023	35427.47
530.224	35460.24
530.425	35282.06
530.626	35204.24
530.828	35187.86
531.029	35869.83
531.23	35370.13
531.431	35204.24
531.632	35286.16
531.833	35435.66
532.035	35378.32
532.236	35046.55
532.437	35753.1
532.638	34935.96
532.839	35214.48
533.04	35171.47
533.241	35011.73
533.442	35626.12
533.643	35554.44
533.844	34989.2
534.045	35124.37
534.246	34639
534.447	35437.71
534.648	34598.04
534.849	34905.24
535.05	34698.39
535.251	34935.96
535.451	34380.96
535.652	34935.96
535.853	34296.99
536.054	34694.3
536.255	34573.47
536.456	34172.07
536.657	34833.56
536.857	34282.66
537.058	34235.55
537.259	34552.99
537.46	34356.38
537.66	34446.49
537.861	34221.22
538.062	34143.39
538.263	34108.58
538.463	33938.6
538.664	33961.12
538.865	34016.42
539.065	34483.36
539.266	33748.14
539.466	33926.31
539.667	33389.74
539.868	34145.44
540.068	33825.96
540.269	33825.96
540.469	33785
540.67	33709.22
540.87	33965.22
541.071	33643.69
541.271	33655.98
541.472	33850.53
541.672	33408.17
541.873	33141.94
542.073	32971.96
542.274	33809.57
542.474	33332.4
542.675	33436.84
542.875	33684.65
543.075	33365.17
543.276	32863.41
543.476	33526.96
543.676	33387.69
543.877	33383.6
544.077	33537.19
544.277	33389.74
544.478	33465.52
544.678	33432.75
544.878	33473.71
545.078	33322.16
545.279	32820.41
545.479	33230
545.679	33492.14
545.879	33146.03
546.079	33281.2
546.28	33197.23
546.48	32806.07
546.68	33297.58
546.88	33281.2
547.08	33152.18
547.28	33168.56
547.48	32773.3
547.68	33066.16
547.88	32670.9
548.081	33483.95
548.281	33297.58
548.481	32715.96
548.681	33119.41
548.881	33174.7
549.081	33154.22
549.28	33160.37
549.48	33166.51
549.68	33492.14
549.88	33664.17
550.08	32963.76
550.28	33416.36
550.48	33375.41
550.68	33379.5
550.88	33023.15
551.08	32965.81
551.279	33129.65
551.479	32847.03
551.679	33404.08
551.879	33244.34
552.079	33637.55
552.278	33201.33
552.478	33275.05
552.678	33586.35
552.878	34051.24
553.077	33373.36
553.277	33127.6
553.477	33901.73
553.676	33324.21
553.876	33641.64
554.076	33541.29
554.275	33598.63
554.475	33350.83
554.674	33694.89
554.874	33780.9
555.074	33645.74
555.273	33584.3
555.473	33778.86
555.672	33203.38
555.872	33475.76
556.071	33866.92
556.271	34165.92
556.47	33569.96
556.67	33422.51
556.869	33823.91
557.068	33987.75
557.268	33569.96
557.467	34028.71
557.667	33578.15
557.866	34086.05
558.065	33746.09
558.265	34057.38
558.464	33647.79
558.663	34253.98
558.863	33508.52
559.062	34069.67
559.261	33641.64
559.461	34264.22
559.66	33930.4
559.859	33901.73
560.058	33828.01
560.258	33807.53
560.457	33758.38
560.656	33744.04
560.855	33594.54
561.054	34006.18
561.253	33735.85
561.453	34145.44
561.652	33825.96
561.851	34167.97
562.05	34020.52
562.249	33780.9
562.448	33905.83
562.647	33950.88
562.846	33662.12
563.045	33561.77
563.244	33383.6
563.443	33995.94
563.642	33645.74
563.841	34102.43
564.04	33660.07
564.239	34127.01
564.438	33463.47
564.637	34016.42
564.836	33580.2
565.035	33275.05
565.234	33408.17
565.432	33535.15
565.631	33445.04
565.83	33637.55
566.029	33242.29
566.228	33092.79
566.427	33053.87
566.625	33047.73
566.824	32584.89
567.023	33332.4
567.222	32769.21
567.42	33402.03
567.619	32879.8
567.818	33068.21
568.016	32550.07
568.215	33078.45
568.414	32709.82
568.612	32998.58
568.811	32824.5
569.01	32867.51
569.208	32275.65
569.407	32433.34
569.605	32267.45
569.804	32593.08
570.002	31980.74
570.201	32292.03
570.4	31851.72
570.598	32191.68
570.797	31804.61
570.995	31990.98
571.193	31595.72
571.392	32101.57
571.59	31462.6
571.789	31515.85
571.987	31669.45
572.186	31472.84
572.384	31280.33
572.582	31284.43
572.781	31294.67
572.979	30536.92
573.177	31106.26
573.376	30989.52
573.574	30870.74
573.772	31083.73
573.971	30850.26
574.169	30545.11
574.367	30426.33
574.565	30682.33
574.763	30346.46
574.962	30590.17
575.16	30170.33
575.358	30555.35
575.556	29816.04
575.754	30510.3
575.952	29617.38
576.151	30352.6
576.349	29492.46
576.547	29809.89
576.745	29730.02
576.943	29844.71
577.141	29525.22
577.339	29334.76
577.537	29070.58
577.735	29441.26
577.933	28970.22
578.131	29426.92
578.329	28933.36
578.527	28749.04
578.725	28706.04
578.923	28736.76
579.121	28771.57
579.319	28660.98
579.516	28642.55
579.714	28505.34
579.912	28423.42
580.11	28241.15
580.308	28437.75
580.506	28253.44
580.704	27718.92
580.901	28312.83
581.099	28345.59
581.297	27743.49
581.495	27909.38
581.692	27954.43
581.89	27301.13
582.088	27694.34
582.285	27286.79
582.483	27610.37
582.681	27475.21
582.878	27442.44
583.076	26918.16
583.274	27358.47
583.471	26862.86
583.669	27125
583.866	26813.71
584.064	26856.72
584.262	26586.39
584.459	26985.74
584.657	26633.49
584.854	26748.18
585.052	26361.11
585.249	26371.35
585.447	26846.48
585.644	26471.7
585.841	26348.82
586.039	26309.91
586.236	26262.81
586.434	25914.66
586.631	25879.84
586.828	25951.52
587.026	26080.54
587.223	25853.22
587.42	25980.19
587.618	25888.03
587.815	25853.22
588.012	25634.08
588.21	25173.29
588.407	25716
588.604	25402.66
588.801	25195.82
588.999	25339.18
589.196	25242.92
589.393	25515.3
589.59	25081.13
589.787	24935.73
589.984	25193.77
590.182	24794.42
590.379	25003.31
590.576	24980.78
590.773	24757.55
590.97	24821.04
591.167	25103.66
591.364	24610.1
591.561	24689.97
591.758	24556.85
591.955	24667.44
592.152	24712.5
592.349	24524.08
592.546	24911.15
592.743	24517.94
592.94	24382.77
593.137	24390.97
593.334	24274.23
593.531	23946.56
593.727	24175.93
593.924	24405.3
594.121	24169.79
594.318	24282.42
594.515	23780.67
594.712	24431.93
594.908	24020.28
595.105	24151.35
595.302	23930.17
595.499	24171.83
595.696	23958.85
595.892	23833.92
596.089	24378.68
596.286	24167.74
596.482	24159.55
596.679	23688.51
596.876	24059.2
597.072	24110.39
597.269	23819.58
597.466	23805.25
597.662	23987.52
597.859	24073.53
598.055	24128.83
598.252	23921.98
598.448	23876.93
598.645	23956.8
598.841	24114.49
599.038	24134.97
599.234	23870.78
599.431	23835.97
599.627	23582.02
599.824	24280.38
600.02	23590.21
600.217	23627.07
600.413	23964.99
600.609	23831.87
600.806	24120.63
601.002	23950.65
601.198	23819.58
601.395	23565.64
601.591	24079.68
601.787	23909.69
601.984	23797.06
602.18	24202.55
602.376	23749.95
602.572	23647.55
602.769	23745.86
602.965	23772.48
603.161	24419.64
603.357	23954.75
603.553	23911.74
603.75	24063.29
603.946	23782.72
604.142	24147.26
604.338	23713.09
604.534	24163.64
604.73	23708.99
604.926	24079.68
605.122	24530.23
605.318	24128.83
605.514	24139.07
605.71	24038.72
605.906	24319.29
606.102	24274.23
606.298	24536.37
606.494	24378.68
606.69	24208.7
606.886	24417.59
607.082	23872.83
607.278	24259.9
607.474	23907.65
607.67	24290.62
607.866	24343.86
608.062	24667.44
608.257	24350.01
608.453	24761.65
608.649	24427.83
608.845	24386.87
609.041	24587.57
609.236	24651.06
609.432	24470.84
609.628	24608.05
609.824	24634.67
610.019	24765.74
610.215	24958.25
610.411	24821.04
610.606	24720.69
610.802	24804.66
610.998	24935.73
611.193	25007.41
611.389	24507.7
611.584	24868.14
611.78	24626.48
611.976	25019.69
612.171	24853.81
612.367	25152.81
612.562	25007.41
612.758	24997.17
612.953	24866.1
613.149	25195.82
613.344	24773.94
613.539	25316.65
613.735	25212.2
613.93	25273.64
614.126	25126.19
614.321	25275.69
614.517	25484.58
614.712	25382.18
614.907	24937.77
615.103	25290.02
615.298	25171.24
615.493	25447.72
615.688	24814.9
615.884	25539.88
616.079	25021.74
616.274	25349.42
616.47	25027.88
616.665	25335.08
616.86	25228.59
617.055	25242.92
617.25	24767.79
617.445	25453.86
617.641	24542.52
617.836	25195.82
618.031	24698.16
618.226	25365.8
618.421	25140.52
618.616	25091.37
618.811	24692.02
619.006	25083.18
619.201	24601.91
619.396	25142.57
619.591	24360.25
619.786	24427.83
619.981	24470.84
620.176	24687.92
620.371	24515.89
620.566	24497.46
620.761	24483.13
620.956	24378.68
621.151	24059.2
621.346	24048.96
621.541	23878.97
621.735	24089.92
621.93	23594.31
622.125	23975.23
622.32	23319.88
622.515	23539.01
622.709	23653.7
622.904	23475.52
623.099	23602.5
623.294	23262.54
623.488	23248.2
623.683	23055.69
623.878	22887.76
624.072	22676.82
624.267	23059.79
624.462	22799.69
624.656	22484.31
624.851	22705.49
625.046	22254.94
625.24	22363.48
625.435	22185.3
625.629	22285.65
625.824	21976.41
626.018	22285.65
626.213	21466.47
626.407	21775.71
626.602	21464.42
626.796	21734.75
626.991	21519.71
627.185	21366.12
627.38	21151.08
627.574	21265.77
627.768	20821.36
627.963	20974.95
628.157	20759.92
628.352	21028.2
628.546	20602.22
628.74	20661.62
628.935	20342.13
629.129	20477.3
629.323	19989.88
629.517	20346.23
629.712	20129.14
629.906	20223.35
630.1	19711.36
630.294	20006.27
630.489	19719.55
630.683	19541.38
630.877	19414.4
631.071	19555.71
631.265	19287.43
631.459	19150.21
631.653	19322.24
631.848	19279.24
632.042	18918.79
632.236	18996.62
632.43	18736.52
632.624	18877.83
632.818	18517.39
633.012	18613.65
633.206	18378.13
633.4	18517.39
633.594	18380.18
633.788	18408.85
633.982	18199.96
634.176	18193.81
634.369	17929.63
634.563	17862.04
634.757	17687.96
634.951	17835.42
635.145	17608.09
635.339	17444.26
635.533	17388.96
635.726	17737.12
635.92	17051.05
636.114	17288.61
636.308	16983.46
636.501	17012.14
636.695	17069.48
636.889	16719.28
637.083	16891.3
637.276	16688.56
637.47	16442.8
637.664	16645.55
637.857	16385.46
638.051	16475.57
638.244	16151.99
638.438	16123.32
638.632	15951.29
638.825	15895.99
639.019	15701.44
639.212	15523.26
639.406	15879.61
639.599	15615.42
639.793	15670.72
639.986	15353.28
640.18	15201.73
640.373	15164.87
640.567	14859.72
640.76	14953.93
640.954	14888.39
641.147	15121.86
641.34	14640.59
641.534	14724.55
641.727	14765.51
641.92	14581.2
642.114	14474.7
642.307	14403.02
642.5	14202.32
642.694	14009.81
642.887	14353.87
643.08	14067.16
643.273	14022.1
643.467	13821.4
643.66	13823.45
643.853	13512.16
644.046	13467.1
644.239	13610.46
644.432	13475.29
644.626	13372.89
644.819	13129.19
645.012	13438.43
645.205	13297.12
645.398	13356.51
645.591	13004.26
645.784	12924.39
645.977	12920.29
646.17	12887.53
646.363	12715.5
646.556	12441.07
646.749	12604.91
646.942	12434.92
647.135	12459.5
647.328	12416.49
647.521	12281.33
647.714	12310
647.907	12240.37
648.099	12056.05
648.292	12062.19
648.485	12119.54
648.678	11920.88
648.871	11795.96
649.064	11822.58
649.256	11720.18
649.449	11724.28
649.642	11537.91
649.835	11537.91
650.027	11488.76
650.22	11376.13
650.413	11326.97
650.605	11396.6
650.798	11228.67
650.991	11019.78
651.183	11183.62
651.376	11044.35
651.568	10841.61
651.761	10837.51
651.954	10839.56
652.146	10739.21
652.339	10712.58
652.531	10708.49
652.724	10552.84
652.916	10634.76
653.109	10452.49
653.301	10563.08
653.494	10429.96
653.686	10229.26
653.879	10192.4
654.071	10145.3
654.263	10208.78
654.456	10249.74
654.648	10104.34
654.84	10055.19
655.033	9852.44
655.225	10079.76
655.417	9813.52
655.61	9795.09
655.802	9768.47
655.994	9733.65
656.186	9590.3
656.379	9594.39
656.571	9623.06
656.763	9479.71
656.955	9283.1
657.148	9455.13
657.34	9389.6
657.532	9233.95
657.724	9057.82
657.916	8963.62
658.108	9270.81
658.3	9053.73
658.492	9102.88
658.684	8629.8
658.876	8844.84
659.068	8693.29
659.26	8689.19
659.452	8799.78
659.644	8771.11
659.836	8414.76
660.028	8605.22
660.22	8496.68
660.412	8705.57
660.604	8488.49
660.796	8590.89
660.988	8465.96
661.18	8332.84
661.372	8234.54
661.563	8291.88
661.755	8128.05
661.947	8111.66
662.139	8115.76
662.331	7949.87
662.522	7976.5
662.714	7798.32
662.906	7923.25
663.097	7851.57
663.289	7577.14
663.481	7755.32
663.673	7755.32
663.864	7745.08
664.056	7564.86
664.247	7710.26
664.439	7482.94
664.631	7571
664.822	7562.81
665.014	7235.13
665.205	7525.94
665.397	7417.4
665.588	7306.81
665.78	7194.17
665.971	7226.94
666.163	7204.41
666.354	7235.13
666.546	7093.82
666.737	7120.45
666.929	7007.81
667.12	6719.04
667.311	6942.27
667.503	7042.62
667.694	6876.74
667.885	6854.21
668.077	6798.91
668.268	6735.43
668.459	6901.31
668.651	6803.01
668.842	6743.62
669.033	6592.07
669.224	6477.38
669.416	6647.37
669.607	6645.32
669.798	6622.79
669.989	6461
670.18	6573.64
670.371	6395.47
670.563	6473.29
670.754	6313.55
670.945	6442.57
671.136	6463.05
671.327	6178.38
671.518	6325.83
671.709	6291.02
671.9	6356.55
672.091	6174.28
672.282	6116.94
672.473	6147.66
672.664	6407.75
672.855	5953.1
673.046	6252.11
673.237	6243.92
673.428	6233.68
673.619	6082.13
673.809	5998.16
674	5983.82
674.191	6049.36
674.382	5871.19
674.573	5869.14
674.764	5899.86
674.954	5862.99
675.145	5805.65
675.336	5819.99
675.527	5830.23
675.717	5854.8
675.908	5842.51
676.099	5908.05
676.289	5656.15
676.48	5613.14
676.671	5568.09
676.861	5801.55
677.052	5729.88
677.243	5639.76
677.433	5584.47
677.624	5727.83
677.814	5682.77
678.005	5539.41
678.195	5670.48
678.386	5699.16
678.576	5410.39
678.767	5514.84
678.957	5344.86
679.148	5551.7
679.338	5621.33
679.529	5473.88
679.719	5631.57
679.909	5670.48
680.1	5449.3
680.29	5402.2
680.481	5547.61
680.671	5437.02
680.861	5467.74
681.052	5385.82
681.242	5375.58
681.432	5377.62
681.622	5328.47
681.813	5260.89
682.003	5256.79
682.193	5418.58
682.383	5391.96
682.573	5439.06
682.764	5178.97
682.954	5181.02
683.144	5271.13
683.334	5361.24
683.524	5281.37
683.714	5187.16
683.904	5289.56
684.094	5197.4
684.284	5318.23
684.474	5181.02
684.664	5187.16
684.854	5195.36
685.044	5228.12
685.234	5111.39
685.424	5129.82
685.614	5140.06
685.804	5248.6
685.994	5006.94
686.184	5195.36
686.374	5138.01
686.564	5107.29
686.753	5052
686.943	4945.5
687.133	4867.68
687.323	4959.84
687.513	4920.93
687.702	4929.12
687.892	5090.91
688.082	4927.07
688.272	4961.89
688.461	4968.03
688.651	5019.23
688.841	5031.52
689.03	4871.78
689.22	4882.02
689.41	4982.37
689.599	4908.64
689.789	4904.54
689.979	4863.58
690.168	4744.8
690.358	4714.08
690.547	4703.84
690.737	4765.28
690.926	4769.38
691.116	4720.23
691.305	4855.39
691.495	4681.32
691.684	4615.78
691.874	4718.18
692.063	4742.75
692.252	4666.98
692.442	4691.56
692.631	4726.37
692.82	4511.33
693.01	4589.16
693.199	4689.51
693.388	4370.02
693.578	4564.58
693.767	4619.88
693.956	4474.47
694.146	4468.33
694.335	4404.84
694.524	4654.69
694.713	4419.18
694.902	4333.16
695.092	4474.47
695.281	4437.61
695.47	4435.56
695.659	4376.17
695.848	4441.7
696.037	4259.43
696.226	4413.03
696.415	4406.89
696.604	4363.88
696.793	4359.78
696.982	4265.58
697.171	4343.4
697.36	4255.34
697.549	4343.4
697.738	4281.96
697.927	4138.6
698.116	4187.75
698.305	4208.23
698.494	4279.91
698.683	4122.22
698.872	4214.38
699.061	4130.41
699.25	4228.71
699.438	4171.37
699.627	4228.71
699.816	4210.28
700.005	3995.25
700.193	4118.12
700.382	4200.04
700.571	4236.91
700.76	4064.88
700.948	4161.13
701.137	4073.07
701.326	4052.59
701.514	4169.32
701.703	4079.21
701.892	3927.66
702.08	4263.53
702.269	4081.26
702.457	4081.26
702.646	3982.96
702.834	3954.29
703.023	3925.61
703.212	4048.49
703.4	3843.7
703.589	4007.53
703.777	3966.57
703.965	3870.32
704.154	3886.7
704.342	3786.35
704.531	3942
704.719	3821.17
704.907	3880.56
705.096	3858.03
705.284	3862.13
705.472	3876.46
705.661	3925.61
705.849	3712.63
706.037	3702.39
706.226	3878.51
706.414	3647.09
706.602	3708.53
706.79	3810.93
706.979	3733.11
707.167	3741.3
707.355	3663.47
707.543	3696.24
707.731	3714.67
707.919	3696.24
708.107	3655.28
708.296	3679.86
708.484	3536.5
708.672	3577.46
708.86	3647.09
709.048	3679.86
709.236	3597.94
709.424	3581.56
709.612	3593.84
709.8	3501.69
709.988	3559.03
710.176	3540.6
710.364	3532.4
710.551	3614.32
710.739	3387
710.927	3411.57
711.115	3352.18
711.303	3489.4
711.491	3425.91
711.679	3425.91
711.866	3550.84
712.054	3341.94
712.242	3485.3
712.43	3356.28
712.617	3446.39
712.805	3300.98
712.993	3395.19
713.181	3333.75
713.368	3368.57
713.556	3335.8
713.744	3298.94
713.931	3387
714.119	3257.98
714.306	3298.94
714.494	3395.19
714.682	3298.94
714.869	3198.59
715.057	3241.59
715.244	3233.4
715.432	3384.95
715.619	3253.88
715.807	3188.35
715.994	3294.84
716.182	3190.39
716.369	3184.25
716.556	3239.55
716.744	3270.26
716.931	3251.83
717.119	3174.01
717.306	3298.94
717.493	3075.71
717.681	3147.39
717.868	3106.43
718.055	3307.13
718.242	2995.84
718.43	3069.56
718.617	3075.71
718.804	3098.24
718.991	3038.84
719.179	2950.78
719.366	3040.89
719.553	3071.61
719.74	3088
719.927	2983.55
720.114	3090.04
720.301	2979.45
720.488	2934.4
720.676	3014.27
720.863	3024.51
721.05	2889.34
721.237	2856.58
721.424	2799.23
721.611	2860.67
721.798	2823.81
721.985	2938.49
722.172	2811.52
722.358	2840.19
722.545	2965.12
722.732	2815.62
722.919	2872.96
723.106	2868.86
723.293	2911.87
723.48	2819.71
723.667	2827.9
723.853	2920.06
724.04	2756.22
724.227	2854.53
724.414	3051.13
724.6	2811.52
724.787	2686.59
724.974	2795.14
725.161	2805.38
725.347	2721.41
725.534	2840.19
725.72	2872.96
725.907	2741.89
726.094	2739.84
726.28	2745.98
726.467	2627.2
726.653	2754.18
726.84	2690.69
727.027	2782.85
727.213	2680.45
727.4	2776.7
727.586	2684.55
727.773	2649.73
727.959	2713.22
728.145	2698.88
728.332	2619.01
728.518	2641.54
728.705	2639.49
728.891	2518.66
729.077	2549.38
729.264	2633.35
729.45	2666.11
729.636	2625.15
729.823	2535.04
730.009	2561.67
730.195	2594.44
730.382	2565.76
730.568	2565.76
730.754	2557.57
730.94	2606.72
731.126	2594.44
731.313	2582.15
731.499	2655.87
731.685	2598.53
731.871	2567.81
732.057	2504.32
732.243	2479.75
732.429	2471.56
732.615	2602.63
732.801	2422.41
732.987	2510.47
733.173	2420.36
733.359	2528.9
733.545	2461.32
733.731	2391.69
733.917	2483.84
734.103	2414.21
734.289	2336.39
734.475	2397.83
734.661	2430.6
734.847	2469.51
735.033	2440.84
735.219	2410.12
735.404	2426.5
735.59	2369.16
735.776	2305.67
735.962	2518.66
736.148	2533
736.333	2459.27
736.519	2436.74
736.705	2412.17
736.89	2379.4
737.076	2393.73
737.262	2201.23
737.447	2291.34
737.633	2311.82
737.819	2377.35
738.004	2262.66
738.19	2320.01
738.375	2451.08
738.561	2287.24
738.747	2141.83
738.932	2279.05
739.118	2328.2
739.303	2307.72
739.489	2295.43
739.674	2164.36
739.859	2213.51
740.045	2250.38
740.23	2229.9
740.416	2115.21
740.601	2190.99
740.786	2160.27
740.972	2199.18
741.157	2131.59
741.342	2115.21
741.528	2045.58
741.713	2082.44
741.898	2219.66
742.084	2096.78
742.269	2180.75
742.454	2066.06
742.639	2143.88
742.824	2049.68
743.01	2059.92
743.195	2082.44
743.38	1963.66
743.565	2119.31
743.75	2102.92
743.935	1992.33
744.12	2135.69
744.305	1934.99
744.49	2082.44
744.675	2043.53
744.86	2021
745.045	1961.61
745.23	1902.22
745.415	1877.65
745.6	1978
745.785	1851.02
745.97	1818.25
746.155	1965.71
746.34	1844.88
746.525	1773.2
746.71	1963.66
746.895	1840.78
747.079	1767.06
747.264	1824.4
747.449	1896.08
747.634	1865.36
747.819	1722
748.003	1738.38
748.188	1689.23
748.373	1734.29
748.557	1812.11
748.742	1738.38
748.927	1795.73
749.111	1730.19
749.296	1693.33
749.481	1742.48
749.665	1674.9
749.85	1697.42
750.034	1674.9
750.219	1638.03
750.404	1601.17
750.588	1601.17
750.773	1615.51
750.957	1552.02
751.141	1615.51
751.326	1584.79
751.51	1595.03
751.695	1492.63
751.879	1609.36
752.064	1582.74
752.248	1584.79
752.432	1668.75
752.617	1566.35
752.801	1525.4
752.985	1455.76
753.17	1511.06
753.354	1470.1
753.538	1519.25
753.722	1369.75
753.907	1459.86
754.091	1341.08
754.275	1410.71
754.459	1449.62
754.643	1339.03
754.828	1402.52
755.012	1451.67
755.196	1388.18
755.38	1308.31
755.564	1418.9
755.748	1412.76
755.932	1347.22
756.116	1279.64
756.3	1341.08
756.484	1230.49
756.668	1343.13
756.852	1193.62
757.036	1226.39
757.22	1316.5
757.404	1289.88
757.588	1210.01
757.772	1328.79
757.956	1085.08
758.14	1242.78
758.323	1218.2
758.507	1169.05
758.691	1210.01
758.875	1255.06
759.059	1265.3
759.242	1199.77
759.426	1132.19
759.61	1183.38
759.794	1181.34
759.977	1246.87
760.161	1234.58
760.345	1189.53
760.528	1097.37
760.712	1142.43
760.895	1128.09
761.079	1134.23
761.263	1097.37
761.446	1121.95
761.63	1152.67
761.813	1156.76
761.997	1091.23
762.18	1115.8
762.364	980.64
762.547	1033.88
762.731	1042.07
762.914	1060.51
763.098	1023.64
763.281	1099.42
763.464	1017.5
763.648	1085.08
763.831	968.35
764.015	986.78
764.198	1017.5
764.381	1025.69
764.564	1005.21
764.748	1037.98
764.931	988.83
765.114	1044.12
765.297	988.83
765.481	1023.64
765.664	927.39
765.847	1037.98
766.03	990.88
766.213	1013.4
766.397	1031.83
766.58	943.77
766.763	962.2
766.946	911
767.129	896.67
767.312	878.24
767.495	857.76
767.678	872.09
767.861	972.44
768.044	863.9
768.227	968.35
768.41	929.44
768.593	874.14
768.776	902.81
768.959	904.86
769.142	954.01
769.324	888.48
769.507	865.95
769.69	890.53
769.873	874.14
770.056	847.52
770.239	863.9
770.421	941.72
770.604	820.89
770.787	870.05
770.97	874.14
771.152	837.28
771.335	874.14
771.518	857.76
771.7	831.13
771.883	919.2
772.066	808.61
772.248	804.51
772.431	1001.12
772.613	845.47
772.796	775.84
772.978	796.32
773.161	841.37
773.343	847.52
773.526	816.8
773.708	749.22
773.891	671.39
774.073	743.07
774.256	892.57
774.438	816.8
774.621	724.64
774.803	876.19
774.985	747.17
775.168	773.79
775.35	730.78
775.532	775.84
775.715	722.59
775.897	751.26
776.079	726.69
776.261	773.79
776.444	743.07
776.626	716.45
776.808	652.96
776.99	638.62
777.173	683.68
777.355	681.63
777.537	661.15
777.719	714.4
777.901	650.91
778.083	605.86
778.265	628.39
778.447	616.1
778.629	685.73
778.811	691.87
778.993	591.52
779.175	673.44
779.357	646.82
779.539	636.58
779.721	620.19
779.903	657.06
780.085	534.18
780.267	652.96
780.449	612
780.631	702.11
780.812	577.19
780.994	591.52
781.176	599.71
781.358	614.05
781.54	585.38
781.721	612
781.903	517.79
782.085	495.27
782.267	642.72
782.448	517.79
782.63	624.29
782.812	607.91
782.993	476.84
783.175	593.57
783.357	485.03
783.538	517.79
783.72	513.7
783.901	521.89
784.083	515.75
784.264	534.18
784.446	519.84
784.627	513.7
784.809	509.6
784.99	452.26
785.172	427.68
785.353	439.97
785.535	517.79
785.716	460.45
785.897	356.01
786.079	446.12
786.26	534.18
786.441	562.85
786.623	358.05
786.804	419.49
786.985	421.54
787.167	399.01
787.348	482.98
787.529	437.92
787.71	493.22
787.891	380.58
788.073	415.4
788.254	415.4
788.435	454.31
788.616	386.72
788.797	427.68
788.978	419.49
789.159	411.3
789.34	415.4
789.522	351.91
789.703	327.33
789.884	419.49
790.065	435.88
790.246	427.68
790.427	331.43
790.607	384.68
790.788	403.11
790.969	417.44
791.15	468.64
791.331	413.35
791.512	411.3
791.693	272.04
791.874	308.9
792.054	470.69
792.235	458.4
792.416	388.77
792.597	280.23
792.778	370.34
792.958	370.34
793.139	321.19
793.32	353.96
793.5	417.44
793.681	325.29
793.862	390.82
794.042	411.3
794.223	259.75
794.404	296.61
794.584	298.66
794.765	272.04
794.945	313
795.126	288.42
795.306	267.94
795.487	296.61
795.667	341.67
795.848	276.13
796.028	288.42
796.209	298.66
796.389	356.01
796.57	272.04
796.75	345.77
796.93	288.42
797.111	315.05
797.291	313
797.471	315.05
797.652	323.24
797.832	226.98
798.012	323.24
798.192	304.81
798.373	259.75
798.553	229.03
798.733	358.05
798.913	294.57
799.093	280.23
799.274	243.37
799.454	353.96
799.634	313
799.814	272.04
799.994	317.09
800.174	347.81
800.354	224.94
800.534	272.04
800.714	224.94
800.894	249.51
801.074	257.7
801.254	239.27
801.434	360.1
801.614	263.85
801.794	296.61
801.974	980.64
802.154	284.33
802.334	243.37
802.514	229.03
802.693	241.32
802.873	216.74
803.053	272.04
803.233	282.28
803.413	177.83
803.592	276.13
803.772	249.51
803.952	317.09
804.131	224.94
804.311	218.79
804.491	192.17
804.67	259.75
804.85	222.89
805.03	214.7
805.209	251.56
805.389	231.08
805.568	239.27
805.748	263.85
805.928	206.5
806.107	220.84
806.287	247.46
806.466	183.98
806.646	206.5
806.825	181.93
807.004	261.8
807.184	167.59
807.363	231.08
807.543	249.51
807.722	151.21
807.901	278.18
808.081	259.75
808.26	120.49
808.439	198.31
808.619	190.12
808.798	181.93
808.977	218.79
809.156	212.65
809.336	239.27
809.515	173.74
809.694	243.37
809.873	159.4
810.052	134.82
810.231	175.78
810.411	95.91
810.59	149.16
810.769	157.35
810.948	253.61
811.127	85.67
811.306	190.12
811.485	167.59
811.664	247.46
811.843	163.5
812.022	134.82
812.201	106.15
812.38	157.35
812.559	167.59
812.737	167.59
812.916	165.54
813.095	140.97
813.274	175.78
813.453	173.74
813.632	206.5
813.811	145.06
813.989	63.15
814.168	200.36
814.347	181.93
814.526	231.08
814.704	190.12
814.883	208.55
815.062	124.58
815.24	181.93
815.419	216.74
815.598	175.78
815.776	124.58
815.955	161.45
816.133	91.82
816.312	97.96
816.49	77.48
816.669	206.5
816.847	173.74
817.026	165.54
817.204	181.93
817.383	175.78
817.561	140.97
817.74	151.21
817.918	132.78
818.097	143.02
818.275	124.58
818.453	157.35
818.632	196.26
818.81	177.83
818.988	224.94
819.167	149.16
819.345	198.31
819.523	124.58
819.701	181.93
819.879	181.93
820.058	169.64
820.236	100.01
820.414	79.53
820.592	108.2
820.77	165.54
820.948	100.01
821.127	116.39
821.305	149.16
821.483	38.57
821.661	214.7
821.839	145.06
822.017	140.97
822.195	87.72
822.373	159.4
822.551	114.34
822.729	159.4
822.907	122.54
823.085	126.63
823.262	110.25
823.44	91.82
823.618	110.25
823.796	110.25
823.974	79.53
824.152	75.43
824.329	165.54
824.507	239.27
824.685	126.63
824.863	93.87
825.04	11.95
825.218	143.02
825.396	100.01
825.574	173.74
825.751	128.68
825.929	140.97
826.107	95.91
826.284	71.34
826.462	145.06
826.639	30.38
826.817	140.97
826.994	106.15
827.172	20.14
827.349	190.12
827.527	100.01
827.704	36.52
827.882	169.64
828.059	120.49
828.237	157.35
828.414	93.87
828.591	59.05
828.769	69.29
828.946	75.43
829.124	149.16
829.301	59.05
829.478	173.74
829.655	50.86
829.833	77.48
830.01	112.3
830.187	124.58
830.364	91.82
830.542	140.97
830.719	124.58
830.896	165.54
831.073	159.4
831.25	138.92
831.427	147.11
831.604	83.63
831.782	67.24
831.959	114.34
832.136	106.15
832.313	118.44
832.49	108.2
832.667	110.25
832.844	177.83
833.021	83.63
833.198	83.63
833.374	110.25
833.551	95.91
833.728	110.25
833.905	116.39
834.082	83.63
834.259	85.67
834.436	120.49
834.612	69.29
834.789	100.01
834.966	38.57
835.143	153.26
835.319	44.71
835.496	175.78
835.673	63.15
835.85	108.2
836.026	157.35
836.203	59.05
836.38	40.62
836.556	102.06
836.733	-4.44
836.909	106.15
837.086	38.57
837.262	52.91
837.439	50.86
837.616	69.29
837.792	102.06
837.968	95.91
838.145	-6.49
838.321	42.67
838.498	83.63
838.674	177.83
838.851	114.34
839.027	85.67
839.203	79.53
839.38	34.47
839.556	93.87
839.732	75.43
839.909	85.67
840.085	20.14
840.261	91.82
840.437	83.63
840.614	61.1
840.79	77.48
840.966	83.63
841.142	95.91
841.318	81.58
841.494	124.58
841.671	75.43
841.847	116.39
842.023	73.39
842.199	100.01
842.375	138.92
842.551	13.99
842.727	1.71
842.903	110.25
843.079	1.71
843.255	77.48
843.431	22.19
843.607	100.01
843.783	-37.2
843.959	50.86
844.134	-12.63
844.31	93.87
844.486	59.05
844.662	-0.34
844.838	75.43
845.013	69.29
845.189	120.49
845.365	67.24
845.541	36.52
845.716	32.43
845.892	42.67
846.068	-4.44
846.244	-4.44
846.419	190.12
846.595	1.71
846.77	28.33
846.946	61.1
847.122	61.1
847.297	26.28
847.473	169.64
847.648	5.8
847.824	50.86
847.999	9.9
848.175	28.33
848.35	69.29
848.526	161.45
848.701	69.29
848.876	75.43
849.052	77.48
849.227	61.1
849.403	67.24
849.578	95.91
849.753	26.28
849.929	136.87
850.104	-6.49
850.279	22.19
850.454	67.24
850.63	83.63
850.805	87.72
850.98	116.39
851.155	42.67
851.33	83.63
851.505	73.39
851.681	100.01
851.856	3.75
852.031	77.48
852.206	9.9
852.381	95.91
852.556	65.19
852.731	87.72
852.906	52.91
853.081	5.8
853.256	75.43
853.431	34.47
853.606	59.05
853.781	120.49
853.956	-39.25
854.131	9.9
854.305	7.85
854.48	36.52
854.655	54.95
854.83	54.95
855.005	48.81
855.18	73.39
855.354	67.24
855.529	13.99
855.704	104.11
855.879	134.82
856.053	67.24
856.228	42.67
856.403	26.28
856.577	81.58
856.752	26.28
856.926	36.52
857.101	161.45
857.276	26.28
857.45	95.91
857.625	61.1
857.799	73.39
857.974	-37.2
858.148	61.1
858.323	83.63
858.497	63.15
858.672	9.9
858.846	30.38
859.02	100.01
859.195	-39.25
859.369	67.24
859.543	46.76
859.718	106.15
859.892	36.52
860.066	61.1
860.241	91.82
860.415	57
860.589	26.28
860.763	-39.25
860.938	5.8
861.112	30.38
861.286	-14.68
861.46	52.91
861.634	-2.39
861.808	26.28
861.982	26.28
862.157	-55.64
862.331	-82.26
862.505	-12.63
862.679	59.05
862.853	-6.49
863.027	61.1
863.201	69.29
863.375	26.28
863.549	44.71
863.722	75.43
863.896	120.49
864.07	30.38
864.244	38.57
864.418	79.53
864.592	85.67
864.766	22.19
864.939	30.38
865.113	9.9
865.287	186.02
865.461	-4.44
865.634	22.19
865.808	59.05
865.982	16.04
866.156	44.71
866.329	-10.58
866.503	9.9
866.676	83.63
866.85	73.39
867.024	28.33
867.197	16.04
867.371	36.52
867.544	13.99
867.718	-53.59
867.891	91.82
868.065	-8.53
868.238	3.75
868.412	108.2
868.585	30.38
868.759	65.19
868.932	52.91
869.105	34.47
869.279	26.28
869.452	1.71
869.625	38.57
869.799	22.19
869.972	-0.34
870.145	5.8
870.319	13.99
870.492	50.86
870.665	34.47
870.838	81.58
871.011	42.67
871.185	-47.44
871.358	59.05
871.531	89.77
871.704	-18.77
871.877	54.95
872.05	28.33
872.223	44.71
872.396	61.1
872.569	59.05
872.742	-55.64
872.915	93.87
873.088	-39.25
873.261	28.33
873.434	75.43
873.607	61.1
873.78	57
873.953	-67.92
874.126	20.14
874.299	34.47
874.471	46.76
874.644	71.34
874.817	42.67
874.99	93.87
875.163	75.43
875.335	-8.53
875.508	-29.01
875.681	40.62
875.853	-24.92
876.026	87.72
876.199	26.28
876.371	26.28
876.544	22.19
876.717	-10.58
876.889	-10.58
877.062	1.71
877.234	59.05
877.407	83.63
877.579	-12.63
877.752	26.28
877.924	140.97
878.097	110.25
878.269	-41.3
878.442	-2.39
878.614	116.39
878.786	128.68
878.959	22.19
879.131	-18.77
879.303	-96.6
879.476	-33.11
879.648	9.9
879.82	69.29
879.993	20.14
880.165	50.86
880.337	-29.01
880.509	44.71
880.681	-61.78
880.854	34.47
881.026	18.09
881.198	32.43
881.37	-10.58
881.542	-10.58
881.714	1.71
881.886	67.24
882.058	65.19
882.23	44.71
882.402	-45.4
882.574	-18.77
882.746	-6.49
882.918	89.77
883.09	87.72
883.262	46.76
883.434	42.67
883.606	-80.21
883.778	5.8
883.95	52.91
884.122	54.95
884.293	112.3
884.465	22.19
884.637	77.48
884.809	42.67
884.98	-18.77
885.152	22.19
885.324	34.47
885.496	-33.11
885.667	-12.63
885.839	11.95
886.011	57
886.182	16.04
886.354	50.86
886.525	77.48
886.697	-69.97
886.869	-51.54
887.04	-10.58
887.212	91.82
887.383	42.67
887.555	32.43
887.726	-55.64
887.897	3.75
888.069	-43.35
888.24	20.14
888.412	42.67
888.583	18.09
888.754	1.71
888.926	-31.06
889.097	-45.4
889.268	-37.2
889.44	85.67
889.611	-16.73
889.782	32.43
889.953	42.67
890.125	155.3
890.296	-26.96
890.467	-10.58
890.638	59.05
890.809	59.05
890.98	-14.68
891.151	59.05
891.323	100.01
891.494	26.28
891.665	30.38
891.836	52.91
892.007	-47.44
892.178	44.71
892.349	20.14
892.52	9.9
892.691	9.9
892.862	46.76
893.032	-47.44
893.203	-31.06
893.374	44.71
893.545	44.71
893.716	63.15
893.887	52.91
894.057	-6.49
894.228	3.75
894.399	-92.5
894.57	85.67
894.74	69.29
894.911	42.67
895.082	22.19
895.253	61.1
895.423	-37.2
895.594	18.09
895.764	-22.87
895.935	-2.39
896.106	83.63
896.276	-88.4
896.447	36.52
896.617	18.09
896.788	30.38
896.958	-35.16
897.129	-2.39
897.299	-63.83
897.47	-31.06
897.64	32.43
897.81	-6.49
897.981	22.19
898.151	-63.83
898.322	22.19
898.492	-4.44
898.662	20.14
898.832	-31.06
899.003	34.47
899.173	67.24
899.343	-31.06
899.513	-63.83
