Data from USB4F104151__144__14-31-50-900.txt Node

Date: Thu Mar 13 14:31:50 EDT 2025
User: louis
Spectrometer: USB4F10415
Trigger mode: 4
Integration Time (sec): 2.500000E-2
Scans to average: 1
Electric dark correction enabled: true
Nonlinearity correction enabled: false
Boxcar width: 0
XAxis mode: Wavelengths
Number of Pixels in Spectrum: 3648
>>>>>Begin Spectral Data<<<<<
178.204	-147.28
178.424	-147.28
178.644	-147.28
178.864	-165.71
179.084	-151.38
179.304	-32.6
179.524	24.75
179.744	-40.79
179.964	61.61
180.184	12.46
180.404	-10.07
180.624	28.84
180.844	-20.31
181.064	30.89
181.283	69.8
181.503	-28.5
181.723	-96.08
181.943	-65.36
182.163	45.23
182.383	63.66
182.602	37.03
182.822	-1.88
183.042	28.84
183.262	-42.84
183.482	-1.88
183.701	-38.74
183.921	90.28
184.141	-36.69
184.361	57.51
184.58	86.19
184.8	6.31
185.02	-10.07
185.239	20.65
185.459	98.47
185.679	32.94
185.898	-26.45
186.118	49.32
186.338	41.13
186.557	45.23
186.777	10.41
186.997	61.61
187.216	22.7
187.436	153.77
187.655	20.65
187.875	32.94
188.095	43.18
188.314	45.23
188.534	-14.17
188.753	-48.98
188.973	106.67
189.192	114.86
189.412	73.9
189.631	45.23
189.851	20.65
190.07	57.51
190.29	2.22
190.509	16.55
190.729	10.41
190.948	12.46
191.168	209.06
191.387	12.46
191.607	4.27
191.826	12.46
192.045	14.51
192.265	0.17
192.484	51.37
192.704	71.85
192.923	37.03
193.142	145.58
193.362	2.22
193.581	80.04
193.8	86.19
194.02	41.13
194.239	67.75
194.458	65.71
194.678	88.23
194.897	49.32
195.116	-24.4
195.335	45.23
195.555	26.79
195.774	16.55
195.993	30.89
196.212	63.66
196.432	-44.88
196.651	12.46
196.87	32.94
197.089	92.33
197.308	86.19
197.528	8.36
197.747	-3.93
197.966	-20.31
198.185	131.24
198.404	2.22
198.623	-12.12
198.842	-10.07
199.062	73.9
199.281	43.18
199.5	49.32
199.719	53.42
199.938	16.55
200.157	-3.93
200.376	96.43
200.595	0.17
200.814	16.55
201.033	45.23
201.252	57.51
201.471	77.99
201.69	69.8
201.909	28.84
202.128	16.55
202.347	102.57
202.566	16.55
202.785	22.7
203.004	-28.5
203.223	108.71
203.442	28.84
203.661	-8.02
203.879	100.52
204.098	-3.93
204.317	12.46
204.536	77.99
204.755	26.79
204.974	94.38
205.193	16.55
205.411	88.23
205.63	71.85
205.849	-3.93
206.068	20.65
206.287	26.79
206.505	49.32
206.724	-3.93
206.943	30.89
207.162	112.81
207.381	26.79
207.599	30.89
207.818	43.18
208.037	12.46
208.255	24.75
208.474	71.85
208.693	12.46
208.911	39.08
209.13	20.65
209.349	55.47
209.567	-12.12
209.786	14.51
210.005	53.42
210.223	61.61
210.442	-20.31
210.661	69.8
210.879	24.75
211.098	104.62
211.316	96.43
211.535	143.53
211.753	-12.12
211.972	84.14
212.191	12.46
212.409	-1.88
212.628	45.23
212.846	-36.69
213.065	61.61
213.283	90.28
213.502	-36.69
213.72	47.27
213.938	63.66
214.157	73.9
214.375	-8.02
214.594	-1.88
214.812	-28.5
215.031	39.08
215.249	22.7
215.467	28.84
215.686	45.23
215.904	88.23
216.122	41.13
216.341	22.7
216.559	-48.98
216.778	112.81
216.996	129.19
217.214	53.42
217.432	24.75
217.651	-44.88
217.869	63.66
218.087	82.09
218.306	0.17
218.524	96.43
218.742	-73.56
218.96	-18.26
219.179	-3.93
219.397	-59.22
219.615	4.27
219.833	73.9
220.051	-20.31
220.27	30.89
220.488	77.99
220.706	32.94
220.924	82.09
221.142	-3.93
221.36	69.8
221.578	-16.21
221.796	-1.88
222.015	-20.31
222.233	14.51
222.451	55.47
222.669	61.61
222.887	55.47
223.105	24.75
223.323	82.09
223.541	-28.5
223.759	-38.74
223.977	53.42
224.195	110.76
224.413	-30.55
224.631	69.8
224.849	45.23
225.067	135.34
225.285	-53.08
225.503	20.65
225.721	-94.04
225.939	80.04
226.157	110.76
226.375	118.95
226.592	20.65
226.81	4.27
227.028	77.99
227.246	159.91
227.464	-20.31
227.682	30.89
227.9	102.57
228.117	45.23
228.335	71.85
228.553	-3.93
228.771	22.7
228.989	28.84
229.206	61.61
229.424	37.03
229.642	-32.6
229.86	53.42
230.077	73.9
230.295	49.32
230.513	53.42
230.731	102.57
230.948	69.8
231.166	145.58
231.384	63.66
231.601	20.65
231.819	-1.88
232.037	4.27
232.254	28.84
232.472	-18.26
232.689	-20.31
232.907	118.95
233.125	49.32
233.342	96.43
233.56	53.42
233.777	-12.12
233.995	20.65
234.213	-1.88
234.43	6.31
234.648	45.23
234.865	24.75
235.083	51.37
235.3	86.19
235.518	57.51
235.735	94.38
235.953	67.75
236.17	110.76
236.388	28.84
236.605	24.75
236.822	75.95
237.04	8.36
237.257	-10.07
237.475	4.27
237.692	63.66
237.909	-22.36
238.127	-26.45
238.344	-18.26
238.562	65.71
238.779	32.94
238.996	24.75
239.214	-28.5
239.431	53.42
239.648	20.65
239.865	6.31
240.083	28.84
240.3	0.17
240.517	-3.93
240.735	55.47
240.952	57.51
241.169	4.27
241.386	14.51
241.603	4.27
241.821	39.08
242.038	45.23
242.255	37.03
242.472	6.31
242.689	55.47
242.907	-14.17
243.124	28.84
243.341	37.03
243.558	61.61
243.775	22.7
243.992	-94.04
244.209	30.89
244.426	139.43
244.643	69.8
244.86	22.7
245.078	45.23
245.295	86.19
245.512	-36.69
245.729	18.6
245.946	28.84
246.163	71.85
246.38	73.9
246.597	53.42
246.814	8.36
247.031	-20.31
247.248	55.47
247.464	22.7
247.681	37.03
247.898	53.42
248.115	121
248.332	16.55
248.549	75.95
248.766	110.76
248.983	80.04
249.2	69.8
249.417	94.38
249.633	82.09
249.85	12.46
250.067	16.55
250.284	8.36
250.501	51.37
250.717	39.08
250.934	-44.88
251.151	26.79
251.368	22.7
251.585	28.84
251.801	-12.12
252.018	53.42
252.235	37.03
252.451	28.84
252.668	61.61
252.885	69.8
253.102	20.65
253.318	28.84
253.535	-65.36
253.752	71.85
253.968	28.84
254.185	61.61
254.401	-22.36
254.618	-28.5
254.835	69.8
255.051	65.71
255.268	84.14
255.484	16.55
255.701	45.23
255.917	45.23
256.134	30.89
256.351	71.85
256.567	18.6
256.784	37.03
257	80.04
257.217	12.46
257.433	28.84
257.65	45.23
257.866	28.84
258.082	86.19
258.299	12.46
258.515	-1.88
258.732	59.56
258.948	-91.99
259.165	80.04
259.381	118.95
259.597	39.08
259.814	69.8
260.03	53.42
260.246	37.03
260.463	37.03
260.679	4.27
260.895	-24.4
261.112	104.62
261.328	-12.12
261.544	20.65
261.761	45.23
261.977	8.36
262.193	55.47
262.409	28.84
262.626	53.42
262.842	88.23
263.058	53.42
263.274	39.08
263.49	41.13
263.707	71.85
263.923	37.03
264.139	53.42
264.355	22.7
264.571	61.61
264.787	16.55
265.004	75.95
265.22	22.7
265.436	45.23
265.652	-48.98
265.868	65.71
266.084	-5.97
266.3	127.14
266.516	0.17
266.732	26.79
266.948	-20.31
267.164	59.56
267.38	34.99
267.596	28.84
267.812	125.1
268.028	39.08
268.244	8.36
268.46	57.51
268.676	-28.5
268.892	24.75
269.108	12.46
269.324	6.31
269.54	20.65
269.756	37.03
269.972	-53.08
270.188	12.46
270.403	12.46
270.619	-36.69
270.835	20.65
271.051	20.65
271.267	0.17
271.483	20.65
271.698	57.51
271.914	131.24
272.13	12.46
272.346	41.13
272.562	20.65
272.777	77.99
272.993	53.42
273.209	69.8
273.425	-14.17
273.64	55.47
273.856	41.13
274.072	110.76
274.287	16.55
274.503	-3.93
274.719	82.09
274.934	37.03
275.15	-61.27
275.366	51.37
275.581	-24.4
275.797	22.7
276.012	-44.88
276.228	0.17
276.444	-36.69
276.659	67.75
276.875	-44.88
277.09	4.27
277.306	37.03
277.521	96.43
277.737	-12.12
277.952	77.99
278.168	12.46
278.383	22.7
278.599	20.65
278.814	30.89
279.03	26.79
279.245	39.08
279.461	30.89
279.676	102.57
279.892	0.17
280.107	-24.4
280.322	6.31
280.538	63.66
280.753	-40.79
280.969	57.51
281.184	61.61
281.399	-1.88
281.615	12.46
281.83	71.85
282.045	8.36
282.26	55.47
282.476	6.31
282.691	16.55
282.906	-12.12
283.122	92.33
283.337	-18.26
283.552	67.75
283.767	-20.31
283.983	75.95
284.198	37.03
284.413	61.61
284.628	57.51
284.843	82.09
285.058	28.84
285.274	47.27
285.489	-40.79
285.704	-32.6
285.919	-5.97
286.134	61.61
286.349	-12.12
286.564	47.27
286.779	55.47
286.995	28.84
287.21	-24.4
287.425	88.23
287.64	47.27
287.855	65.71
288.07	12.46
288.285	82.09
288.5	112.81
288.715	86.19
288.93	45.23
289.145	55.47
289.36	55.47
289.575	39.08
289.79	65.71
290.004	12.46
290.219	47.27
290.434	12.46
290.649	6.31
290.864	53.42
291.079	-12.12
291.294	-57.17
291.509	-12.12
291.724	22.7
291.938	26.79
292.153	71.85
292.368	45.23
292.583	20.65
292.798	39.08
293.012	24.75
293.227	6.31
293.442	86.19
293.657	-3.93
293.871	102.57
294.086	24.75
294.301	77.99
294.516	47.27
294.73	57.51
294.945	-36.69
295.16	6.31
295.374	2.22
295.589	45.23
295.804	10.41
296.018	-3.93
296.233	59.56
296.447	22.7
296.662	-3.93
296.877	96.43
297.091	55.47
297.306	86.19
297.52	43.18
297.735	-28.5
297.949	-16.21
298.164	32.94
298.378	-38.74
298.593	41.13
298.807	-26.45
299.022	125.1
299.236	77.99
299.451	80.04
299.665	-16.21
299.88	-20.31
300.094	14.51
300.309	24.75
300.523	49.32
300.737	73.9
300.952	67.75
301.166	39.08
301.381	-20.31
301.595	-1.88
301.809	28.84
302.024	24.75
302.238	20.65
302.452	41.13
302.667	-51.03
302.881	71.85
303.095	88.23
303.309	55.47
303.524	32.94
303.738	59.56
303.952	0.17
304.166	73.9
304.381	-38.74
304.595	63.66
304.809	45.23
305.023	86.19
305.237	22.7
305.452	12.46
305.666	28.84
305.88	98.47
306.094	4.27
306.308	47.27
306.522	65.71
306.736	73.9
306.95	14.51
307.164	28.84
307.379	-46.93
307.593	8.36
307.807	82.09
308.021	45.23
308.235	24.75
308.449	-3.93
308.663	41.13
308.877	137.38
309.091	-57.17
309.305	127.14
309.519	-130.9
309.733	53.42
309.947	34.99
310.161	32.94
310.374	41.13
310.588	108.71
310.802	-44.88
311.016	59.56
311.23	4.27
311.444	73.9
311.658	-3.93
311.872	86.19
312.085	129.19
312.299	57.51
312.513	94.38
312.727	14.51
312.941	47.27
313.154	8.36
313.368	-10.07
313.582	18.6
313.796	32.94
314.009	39.08
314.223	135.34
314.437	28.84
314.651	53.42
314.864	-42.84
315.078	37.03
315.292	45.23
315.505	-73.56
315.719	88.23
315.933	-20.31
316.146	4.27
316.36	20.65
316.573	114.86
316.787	-24.4
317.001	45.23
317.214	14.51
317.428	45.23
317.641	-32.6
317.855	39.08
318.068	39.08
318.282	49.32
318.495	127.14
318.709	-3.93
318.922	61.61
319.136	88.23
319.349	82.09
319.563	53.42
319.776	65.71
319.99	57.51
320.203	84.14
320.417	30.89
320.63	73.9
320.843	92.33
321.057	118.95
321.27	129.19
321.483	82.09
321.697	37.03
321.91	37.03
322.124	86.19
322.337	6.31
322.55	14.51
322.763	67.75
322.977	73.9
323.19	49.32
323.403	63.66
323.617	24.75
323.83	90.28
324.043	84.14
324.256	22.7
324.469	-20.31
324.683	26.79
324.896	20.65
325.109	57.51
325.322	4.27
325.535	125.1
325.748	94.38
325.962	37.03
326.175	-46.93
326.388	84.14
326.601	28.84
326.814	-20.31
327.027	32.94
327.24	98.47
327.453	-65.36
327.666	112.81
327.879	82.09
328.092	102.57
328.305	71.85
328.518	32.94
328.731	41.13
328.944	45.23
329.157	65.71
329.37	88.23
329.583	37.03
329.796	4.27
330.009	-3.93
330.222	45.23
330.435	69.8
330.648	57.51
330.861	61.61
331.073	80.04
331.286	24.75
331.499	43.18
331.712	32.94
331.925	98.47
332.138	51.37
332.35	106.67
332.563	-36.69
332.776	59.56
332.989	51.37
333.202	2.22
333.414	16.55
333.627	-22.36
333.84	6.31
334.053	39.08
334.265	4.27
334.478	39.08
334.691	71.85
334.903	4.27
335.116	34.99
335.329	53.42
335.541	90.28
335.754	39.08
335.966	77.99
336.179	20.65
336.392	28.84
336.604	86.19
336.817	43.18
337.029	43.18
337.242	0.17
337.454	88.23
337.667	20.65
337.88	37.03
338.092	45.23
338.305	-10.07
338.517	-10.07
338.729	104.62
338.942	53.42
339.154	20.65
339.367	22.7
339.579	22.7
339.792	77.99
340.004	49.32
340.217	65.71
340.429	47.27
340.641	34.99
340.854	34.99
341.066	82.09
341.278	86.19
341.491	63.66
341.703	6.31
341.915	26.79
342.128	86.19
342.34	12.46
342.552	53.42
342.764	-18.26
342.977	53.42
343.189	53.42
343.401	41.13
343.613	-53.08
343.826	47.27
344.038	-16.21
344.25	53.42
344.462	-18.26
344.674	-34.64
344.886	41.13
345.099	84.14
345.311	30.89
345.523	16.55
345.735	-53.08
345.947	49.32
346.159	-18.26
346.371	34.99
346.583	-3.93
346.795	39.08
347.007	-20.31
347.219	77.99
347.431	8.36
347.643	155.82
347.855	16.55
348.067	47.27
348.279	12.46
348.491	-26.45
348.703	63.66
348.915	32.94
349.127	55.47
349.339	-38.74
349.551	55.47
349.763	71.85
349.975	-59.22
350.187	151.72
350.399	102.57
350.61	39.08
350.822	6.31
351.034	61.61
351.246	8.36
351.458	37.03
351.669	47.27
351.881	51.37
352.093	86.19
352.305	53.42
352.517	94.38
352.728	135.34
352.94	63.66
353.152	69.8
353.363	45.23
353.575	67.75
353.787	92.33
353.999	0.17
354.21	143.53
354.422	-12.12
354.633	-20.31
354.845	53.42
355.057	39.08
355.268	73.9
355.48	20.65
355.692	-5.97
355.903	24.75
356.115	14.51
356.326	63.66
356.538	110.76
356.749	57.51
356.961	92.33
357.172	59.56
357.384	37.03
357.595	151.72
357.807	57.51
358.018	20.65
358.23	77.99
358.441	104.62
358.653	55.47
358.864	-20.31
359.075	-1.88
359.287	77.99
359.498	125.1
359.709	104.62
359.921	59.56
360.132	127.14
360.344	61.61
360.555	53.42
360.766	0.17
360.977	59.56
361.189	80.04
361.4	53.42
361.611	86.19
361.823	47.27
362.034	98.47
362.245	0.17
362.456	26.79
362.667	-28.5
362.879	51.37
363.09	45.23
363.301	73.9
363.512	-24.4
363.723	69.8
363.935	34.99
364.146	73.9
364.357	77.99
364.568	63.66
364.779	12.46
364.99	77.99
365.201	86.19
365.412	88.23
365.623	-34.64
365.834	65.71
366.045	63.66
366.256	6.31
366.467	96.43
366.678	45.23
366.889	53.42
367.1	20.65
367.311	69.8
367.522	14.51
367.733	47.27
367.944	98.47
368.155	49.32
368.366	53.42
368.577	110.76
368.788	77.99
368.999	16.55
369.209	73.9
369.42	125.1
369.631	47.27
369.842	34.99
370.053	61.61
370.264	51.37
370.474	-12.12
370.685	116.9
370.896	55.47
371.107	100.52
371.317	53.42
371.528	94.38
371.739	88.23
371.95	12.46
372.16	69.8
372.371	41.13
372.582	-24.4
372.792	102.57
373.003	45.23
373.214	18.6
373.424	28.84
373.635	41.13
373.846	127.14
374.056	86.19
374.267	98.47
374.477	96.43
374.688	-18.26
374.898	4.27
375.109	53.42
375.319	59.56
375.53	77.99
375.74	86.19
375.951	88.23
376.161	123.05
376.372	75.95
376.582	14.51
376.793	80.04
377.003	-32.6
377.214	30.89
377.424	143.53
377.635	129.19
377.845	-67.41
378.055	110.76
378.266	6.31
378.476	94.38
378.686	-24.4
378.897	55.47
379.107	53.42
379.317	53.42
379.528	16.55
379.738	73.9
379.948	67.75
380.158	149.67
380.369	114.86
380.579	22.7
380.789	28.84
380.999	57.51
381.21	118.95
381.42	112.81
381.63	16.55
381.84	102.57
382.05	77.99
382.261	86.19
382.471	12.46
382.681	133.29
382.891	61.61
383.101	69.8
383.311	57.51
383.521	94.38
383.731	123.05
383.941	65.71
384.151	69.8
384.361	57.51
384.571	-3.93
384.781	106.67
384.991	133.29
385.201	104.62
385.411	57.51
385.621	77.99
385.831	22.7
386.041	88.23
386.251	98.47
386.461	102.57
386.671	102.57
386.881	121
387.091	65.71
387.301	104.62
387.511	67.75
387.72	77.99
387.93	22.7
388.14	30.89
388.35	98.47
388.56	110.76
388.769	151.72
388.979	94.38
389.189	-3.93
389.399	55.47
389.609	22.7
389.818	131.24
390.028	106.67
390.238	114.86
390.447	53.42
390.657	123.05
390.867	4.27
391.076	-16.21
391.286	12.46
391.496	92.33
391.705	37.03
391.915	67.75
392.125	86.19
392.334	65.71
392.544	96.43
392.753	55.47
392.963	77.99
393.172	20.65
393.382	53.42
393.591	102.57
393.801	96.43
394.01	125.1
394.22	88.23
394.429	6.31
394.639	102.57
394.848	71.85
395.058	135.34
395.267	47.27
395.477	20.65
395.686	114.86
395.895	164.01
396.105	135.34
396.314	59.56
396.524	170.15
396.733	121
396.942	102.57
397.152	86.19
397.361	127.14
397.57	37.03
397.78	28.84
397.989	180.39
398.198	137.38
398.407	86.19
398.617	131.24
398.826	131.24
399.035	86.19
399.244	121
399.453	47.27
399.663	147.62
399.872	61.61
400.081	96.43
400.29	137.38
400.499	137.38
400.708	71.85
400.917	170.15
401.127	61.61
401.336	129.19
401.545	211.11
401.754	182.44
401.963	198.82
402.172	123.05
402.381	104.62
402.59	65.71
402.799	102.57
403.008	186.54
403.217	153.77
403.426	159.91
403.635	88.23
403.844	170.15
404.053	143.53
404.262	104.62
404.471	225.45
404.68	159.91
404.888	161.96
405.097	104.62
405.306	172.2
405.515	143.53
405.724	172.2
405.933	211.11
406.142	98.47
406.35	233.64
406.559	188.58
406.768	213.16
406.977	327.85
407.185	204.97
407.394	204.97
407.603	190.63
407.812	274.6
408.02	354.47
408.229	282.79
408.438	262.31
408.646	233.64
408.855	250.02
409.064	290.98
409.272	274.6
409.481	258.21
409.69	258.21
409.898	397.48
410.107	313.51
410.315	301.22
410.524	407.72
410.733	356.52
410.941	372.9
411.15	370.85
411.358	448.68
411.567	422.05
411.775	483.49
411.984	495.78
412.192	530.59
412.401	389.28
412.609	544.93
412.818	516.26
413.026	493.73
413.234	561.31
413.443	557.22
413.651	610.47
413.86	553.12
414.068	688.29
414.276	759.97
414.485	667.81
414.693	737.44
414.901	757.92
415.11	772.25
415.318	848.03
415.526	876.7
415.734	891.04
415.943	888.99
416.151	946.33
416.359	866.46
416.567	1081.5
416.776	1020.06
416.984	1028.25
417.192	1079.45
417.4	1183.9
417.608	1032.35
417.817	1147.03
418.025	1323.16
418.233	1341.59
418.441	1261.72
418.649	1333.4
418.857	1390.74
419.065	1527.96
419.273	1413.27
419.481	1556.63
419.689	1585.3
419.897	1648.79
420.105	1618.07
420.313	1802.38
420.521	1814.67
420.729	1874.06
420.937	1921.17
421.145	2089.1
421.353	2033.8
421.561	2273.42
421.769	2267.27
421.977	2306.18
422.185	2322.57
422.393	2343.05
422.601	2572.42
422.809	2553.99
423.017	2521.22
423.224	2683.01
423.432	2773.12
423.64	2766.98
423.848	3078.27
424.056	3129.47
424.263	3192.95
424.471	3262.58
424.679	3342.46
424.887	3364.98
425.094	3657.84
425.302	3414.13
425.51	3713.14
425.718	3747.95
425.925	4014.19
426.133	3962.99
426.341	4305
426.548	4360.3
426.756	4452.45
426.964	4423.78
427.171	4651.11
427.379	4741.22
427.586	4866.14
427.794	5042.27
428.001	5355.61
428.209	5681.24
428.417	5249.11
428.624	5976.14
428.832	5627.99
429.039	5742.68
429.247	5707.86
429.454	6379.59
429.662	6807.62
429.869	6254.67
430.076	6787.14
430.284	6565.96
430.491	6991.94
430.699	7110.72
430.906	7202.88
431.114	7290.94
431.321	7499.83
431.528	7759.92
431.736	8093.74
431.943	8534.06
432.15	8296.49
432.358	8349.74
432.565	8949.79
432.772	8867.88
432.979	9105.44
433.187	9175.07
433.394	9687.06
433.601	10133.52
433.808	10088.46
434.016	10186.77
434.223	10637.32
434.43	11055.11
434.637	10952.71
434.844	11638.78
435.052	11837.43
435.259	11618.3
435.466	11937.78
435.673	11722.74
435.88	12437.48
436.087	13242.34
436.294	12896.23
436.501	12879.85
436.708	12849.13
436.915	13412.32
437.122	14256.08
437.329	14024.66
437.537	14481.36
437.743	14725.07
437.95	14606.28
438.157	15347.65
438.364	15826.87
438.571	15910.84
438.778	15935.42
438.985	17274.79
439.192	16637.87
439.399	17100.71
439.606	16826.28
439.813	17878.94
440.02	18786.19
440.227	18392.98
440.433	18337.68
440.64	19109.77
440.847	18821
441.054	19300.23
441.261	20748.14
441.467	20504.43
441.674	20576.11
441.881	21593.95
442.088	21176.17
442.294	21311.33
442.501	21718.88
442.708	22234.97
442.914	23099.21
443.121	23848.77
443.328	23406.41
443.534	25546.53
443.741	24379.19
443.948	24194.87
444.154	25544.48
444.361	25804.58
444.568	25538.34
444.774	25712.42
444.981	26044.19
445.187	26611.48
445.394	27750.15
445.6	27295.5
445.807	30025.44
446.013	28983.02
446.22	29263.6
446.426	30363.36
446.633	30850.77
446.839	31846.08
447.046	30377.69
447.252	32192.19
447.459	31923.91
447.665	31919.81
447.871	33509.04
448.078	35192.47
448.284	33162.93
448.491	34135.71
448.697	35004.05
448.903	35765.9
449.11	36071.04
449.316	35440.27
449.522	36097.67
449.728	37340.78
449.935	37275.25
450.141	37262.96
450.347	38352.48
450.553	36744.83
450.76	37213.81
450.966	38647.39
451.172	38112.87
451.378	39523.92
451.584	38176.36
451.791	39425.62
451.997	39059.03
452.203	40101.45
452.409	39951.95
452.615	39581.26
452.821	37975.66
453.027	37408.37
453.233	39259.73
453.44	37910.12
453.646	38379.11
453.852	38669.92
454.058	39196.24
454.264	38202.98
454.47	39302.74
454.676	37848.68
454.882	39194.2
455.088	35796.62
455.294	36474.49
455.5	36585.08
455.705	37035.64
455.911	35796.62
456.117	34803.35
456.323	34647.71
456.529	32499.39
456.735	33965.73
456.941	33234.61
457.147	32599.74
457.352	31635.14
457.558	31229.65
457.764	31315.66
457.97	31018.71
458.176	30201.57
458.381	29892.32
458.587	28657.4
458.793	28247.8
458.999	27078.41
459.204	28872.43
459.41	28233.47
459.616	26429.21
459.821	26384.15
460.027	26113.82
460.233	25741.09
460.438	24284.98
460.644	24373.05
460.85	23648.07
461.055	23195.46
461.261	22931.28
461.466	21669.73
461.672	20920.17
461.878	22243.16
462.083	20928.36
462.289	20330.36
462.494	20137.85
462.7	19355.52
462.905	18636.69
463.111	19132.29
463.316	19699.58
463.522	19027.85
463.727	19314.56
463.932	19099.53
464.138	18595.73
464.343	18700.17
464.549	18399.12
464.754	18950.03
464.959	18491.28
465.165	18628.49
465.37	17774.49
465.575	17649.57
465.781	17893.27
465.986	18247.57
466.191	17608.61
466.397	17074.09
466.602	16220.08
466.807	17063.85
467.012	16979.88
467.218	16775.08
467.423	16545.71
467.628	16764.84
467.833	17156
468.038	16852.91
468.244	16263.09
468.449	16779.18
468.654	16203.7
468.859	16269.23
469.064	16170.93
469.269	15404.99
469.474	15579.07
469.679	16035.77
469.885	15509.44
470.09	15706.04
470.295	15560.64
470.5	15339.46
470.705	15531.97
470.91	14954.44
471.115	14645.2
471.32	15011.78
471.525	14884.81
471.73	14663.63
471.935	14505.93
472.139	13875.16
472.344	14268.37
472.549	13907.93
472.754	13930.45
472.959	13475.81
473.164	13232.1
473.369	13023.2
473.574	13889.49
473.778	13406.17
473.983	13307.87
474.188	13228
474.393	12746.73
474.598	12668.91
474.802	12496.88
475.007	12842.98
475.212	12460.01
475.417	12072.95
475.621	12113.91
475.826	12003.32
476.031	11968.5
476.235	11661.3
476.44	11956.21
476.645	11507.71
476.849	11577.34
477.054	11548.67
477.259	11485.18
477.463	11257.85
477.668	10940.42
477.872	11186.18
478.077	11204.61
478.282	10653.7
478.486	10633.22
478.691	10432.52
478.895	10463.24
479.1	10549.26
479.304	10352.65
479.509	10219.53
479.713	10123.28
479.918	10113.04
480.122	10053.65
480.326	10287.12
480.531	10244.11
480.735	10104.85
480.94	10033.17
481.144	10194.96
481.348	9793.56
481.553	9730.07
481.757	9631.77
481.961	9895.96
482.166	9928.72
482.37	9885.72
482.574	9478.17
482.778	9744.41
482.983	9766.93
483.187	9717.78
483.391	9986.07
483.595	9715.73
483.8	9648.15
484.004	9601.05
484.208	9811.99
484.412	9599
484.616	9807.89
484.821	9599
485.025	9654.3
485.229	9631.77
485.433	9515.03
485.637	9621.53
485.841	9586.71
486.045	9601.05
486.249	9642.01
486.453	9478.17
486.657	9627.67
486.861	9668.63
487.065	9541.66
487.269	9664.54
487.473	9506.84
487.677	9504.79
487.881	9771.03
488.085	9658.39
488.289	9783.32
488.493	9588.76
488.697	9574.42
488.901	9885.72
489.105	9539.61
489.309	9615.38
489.512	9523.23
489.716	9664.54
489.92	9764.89
490.124	9631.77
490.328	9875.48
490.531	9625.62
490.735	9830.42
490.939	9895.96
491.143	9881.62
491.346	9809.94
491.55	9932.82
491.754	9859.09
491.958	9875.48
492.161	9959.44
492.365	10156.05
492.569	9949.2
492.772	9912.34
492.976	10156.05
493.18	10156.05
493.383	10076.18
493.587	10235.92
493.79	10438.67
493.994	10098.7
494.197	10442.76
494.401	10366.99
494.605	10625.03
494.808	10670.09
495.012	10633.22
495.215	10727.43
495.419	11010.05
495.622	10743.81
495.825	10872.84
496.029	11040.77
496.232	11075.59
496.436	10713.1
496.639	11309.05
496.843	11319.29
497.046	11548.67
497.249	11775.99
497.453	11771.9
497.656	11671.54
497.859	11917.3
498.063	12023.8
498.266	12228.59
498.469	12060.66
498.673	12124.15
498.876	12347.37
499.079	12476.4
499.282	12396.53
499.485	12785.64
499.689	12830.69
499.892	13088.74
500.095	12965.86
500.298	13430.75
500.501	13213.67
500.705	13277.15
500.908	13543.39
501.111	13680.6
501.314	13928.41
501.517	13887.45
501.72	14208.98
501.923	14297.04
502.126	14364.62
502.329	14505.93
502.532	14540.75
502.735	14661.58
502.938	15130.56
503.141	15169.48
503.344	15355.84
503.547	15087.56
503.75	15857.59
503.953	15837.11
504.156	15898.55
504.359	16129.97
504.562	16019.38
504.765	16424.88
504.968	16766.89
505.17	16813.99
505.373	16779.18
505.576	17059.75
505.779	17237.92
505.982	17346.47
506.185	17794.97
506.387	17778.59
506.59	18034.58
506.793	18196.37
506.996	18077.59
507.198	18503.57
507.401	18632.59
507.604	18716.56
507.807	19101.58
508.009	19105.67
508.212	19304.32
508.415	19746.69
508.617	19888
508.82	19769.21
509.022	19529.6
509.225	20354.93
509.428	20375.41
509.63	20744.05
509.833	20985.71
510.035	21210.98
510.238	21213.03
510.44	21559.14
510.643	21692.26
510.845	21978.97
511.048	21700.45
511.25	22062.94
511.453	22091.61
511.655	22773.58
511.858	22746.96
512.06	22939.47
512.262	23570.24
512.465	23205.7
512.667	23361.35
512.87	23881.53
513.072	23887.68
513.274	24268.6
513.477	24670
513.679	24446.77
513.881	24563.51
514.084	24868.66
514.286	25265.96
514.488	25288.49
514.69	26261.27
514.893	25988.89
515.095	26009.37
515.297	26427.16
515.499	26478.36
515.701	26492.69
515.904	26754.83
516.106	27242.25
516.308	27326.22
516.51	27567.88
516.712	27559.69
516.914	27805.44
517.116	28315.39
517.318	28438.26
517.52	28489.46
517.722	28745.46
517.925	29210.35
518.127	29294.32
518.329	29429.48
518.531	29261.55
518.733	29759.2
518.935	29781.73
519.136	29931.23
519.338	30541.53
519.54	30523.1
519.742	31049.42
519.944	31076.05
520.146	31364.81
520.348	31473.35
520.55	31465.16
520.752	31659.72
520.954	32149.18
521.155	31542.99
521.357	32239.29
521.559	32423.61
521.761	32947.89
521.963	32855.73
522.164	33156.78
522.366	33101.49
522.568	33171.12
522.77	33420.97
522.971	33707.69
523.173	33697.45
523.375	33380.01
523.576	33619.63
523.778	33953.44
523.98	34211.49
524.181	34387.61
524.383	34399.9
524.584	34784.92
524.786	34713.24
524.988	34584.22
525.189	35186.32
525.391	34842.26
525.592	35313.3
525.794	35305.1
525.995	35231.38
526.197	35090.07
526.398	35186.32
526.6	35610.25
526.801	35546.76
527.003	35839.62
527.204	35798.66
527.406	35901.06
527.607	35591.82
527.808	35919.49
528.01	35487.37
528.211	35737.23
528.412	36806.27
528.614	35962.5
528.815	35757.71
529.016	36142.72
529.218	36177.54
529.419	35823.24
529.62	35958.41
529.822	35726.99
530.023	36327.04
530.224	36263.55
530.425	35782.28
530.626	35872.39
530.828	35745.42
531.029	36378.24
531.23	35823.24
531.431	35970.69
531.632	36142.72
531.833	36200.07
532.035	35747.47
532.236	36009.61
532.437	36193.92
532.638	35745.42
532.839	36167.3
533.04	36482.69
533.241	35792.52
533.442	36312.7
533.643	36152.96
533.844	35659.4
534.045	36038.28
534.246	35503.76
534.447	35960.45
534.648	35862.15
534.849	35931.78
535.05	35548.81
535.251	35651.21
535.451	35694.22
535.652	35853.96
535.853	35317.39
536.054	35655.31
536.255	35989.13
536.456	35573.39
536.657	35880.58
536.857	35438.22
537.058	35669.64
537.259	35909.25
537.46	35450.51
537.66	35575.44
537.861	35346.06
538.062	35350.16
538.263	35741.32
538.463	35604.11
538.664	35118.74
538.865	35735.18
539.065	35501.71
539.266	34844.31
539.466	35571.34
539.667	34938.52
539.868	35473.04
540.068	35319.44
540.269	34930.33
540.469	35327.63
540.67	35456.65
540.87	35034.77
541.071	34866.84
541.271	35403.41
541.472	35423.89
541.672	34967.19
541.873	34776.73
542.073	34584.22
542.274	35004.05
542.474	34977.43
542.675	34653.85
542.875	35452.56
543.075	35194.51
543.276	34307.74
543.476	35286.67
543.676	34487.96
543.877	35208.85
544.077	35063.44
544.277	34748.06
544.478	34576.03
544.678	34907.8
544.878	34975.38
545.078	34422.43
545.279	34471.58
545.479	34813.59
545.679	34586.27
545.879	34485.92
546.079	34940.57
546.28	34492.06
546.48	34594.46
546.68	34883.22
546.88	35085.97
547.08	34703
547.28	34514.59
547.48	34168.48
547.68	34764.44
547.88	34569.88
548.081	34662.04
548.281	34686.62
548.481	34467.48
548.681	34424.48
548.881	34766.49
549.081	34889.37
549.28	34481.82
549.48	34700.95
549.68	34717.34
549.88	35155.6
550.08	34498.2
550.28	34688.67
550.48	34619.03
550.68	34868.89
550.88	34612.89
551.08	34973.33
551.279	34842.26
551.479	34201.25
551.679	34899.61
551.879	34504.35
552.079	34586.27
552.278	34752.15
552.478	34723.48
552.678	34868.89
552.878	34901.65
553.077	34924.18
553.277	34467.48
553.477	35110.55
553.676	34461.34
553.876	34750.1
554.076	34545.31
554.275	34492.06
554.475	34367.13
554.674	35014.29
554.874	34838.17
555.074	34748.06
555.273	34875.03
555.473	34823.83
555.672	34406.05
555.872	34936.47
556.071	34786.97
556.271	34815.64
556.47	34346.65
556.67	34494.11
556.869	34717.34
557.068	34762.39
557.268	34711.19
557.467	34524.83
557.667	34467.48
557.866	34545.31
558.065	34483.87
558.265	34504.35
558.464	34197.15
558.663	34995.86
558.863	34559.64
559.062	34909.85
559.261	34184.87
559.461	34770.58
559.66	34424.48
559.859	34244.26
560.058	34330.27
560.258	34510.49
560.457	34629.27
560.656	34961.05
560.855	34430.62
561.054	34492.06
561.253	34408.09
561.453	34547.36
561.652	34625.18
561.851	34719.38
562.05	34756.25
562.249	34510.49
562.448	34852.5
562.647	34522.78
562.846	34305.7
563.045	34328.22
563.244	34272.93
563.443	34565.79
563.642	34191.01
563.841	34506.4
564.04	34072.23
564.239	34743.96
564.438	34301.6
564.637	34334.37
564.836	34162.34
565.035	34002.6
565.234	34653.85
565.432	34119.33
565.631	33863.33
565.83	34047.65
566.029	33892.01
566.228	33875.62
566.427	33849
566.625	33619.63
566.824	33339.05
567.023	34078.37
567.222	33263.28
567.42	34035.36
567.619	33867.43
567.818	33564.33
568.016	33564.33
568.215	33820.33
568.414	33404.59
568.612	33513.13
568.811	33435.31
569.01	33466.03
569.208	32962.23
569.407	33646.25
569.605	32890.55
569.804	33255.09
570.002	32913.08
570.201	33277.61
570.4	32954.04
570.598	32786.1
570.797	32915.12
570.995	32667.32
571.193	32540.35
571.392	33076.91
571.59	32224.96
571.789	32634.55
571.987	32208.58
572.186	32384.7
572.384	31966.91
572.582	32177.86
572.781	32472.76
572.979	32024.26
573.177	32349.89
573.376	32247.49
573.574	32196.29
573.772	32353.98
573.971	31833.8
574.169	31876.8
574.367	31708.87
574.565	31672.01
574.763	31504.07
574.962	31471.31
575.16	31108.82
575.358	31430.35
575.556	31129.3
575.754	31696.58
575.952	31172.3
576.151	31258.32
576.349	30818
576.547	30887.64
576.745	31063.76
576.943	31129.3
577.141	30957.27
577.339	30639.83
577.537	30801.62
577.735	30353.12
577.933	30349.02
578.131	30746.33
578.329	30465.75
578.527	30367.45
578.725	30314.2
578.923	30498.52
579.121	29964
579.319	29947.62
579.516	30211.81
579.714	30111.46
579.912	29890.27
580.11	30133.98
580.308	29875.94
580.506	29740.77
580.704	29566.7
580.901	29617.89
581.099	29902.56
581.297	29155.05
581.495	29132.53
581.692	29628.13
581.89	29148.91
582.088	29460.2
582.285	29120.24
582.483	29290.22
582.681	28931.83
582.878	28864.24
583.076	28638.97
583.274	28790.52
583.471	28665.59
583.669	28706.55
583.866	28382.97
584.064	28681.97
584.262	28010.24
584.459	28802.8
584.657	27889.41
584.854	28675.83
585.052	27858.69
585.249	28382.97
585.447	28315.39
585.644	27516.68
585.841	27811.59
586.039	28262.14
586.236	27412.23
586.434	27778.82
586.631	27651.84
586.828	27795.2
587.026	27414.28
587.223	27426.57
587.42	27623.17
587.618	27299.59
587.815	27266.83
588.012	27047.69
588.21	26824.47
588.407	27266.83
588.604	27158.28
588.801	27037.45
588.999	26922.77
589.196	26810.13
589.393	27062.03
589.59	26787.6
589.787	26711.83
589.984	26322.71
590.182	26357.53
590.379	26832.66
590.576	26500.89
590.773	26601.24
590.97	26353.43
591.167	26472.21
591.364	26199.83
591.561	26285.85
591.758	25827.1
591.955	26355.48
592.152	26443.54
592.349	26429.21
592.546	26165.02
592.743	26318.62
592.94	25775.91
593.137	25704.23
593.334	25796.39
593.531	25489.19
593.727	25685.79
593.924	25059.12
594.121	25296.68
594.318	25536.29
594.515	25356.07
594.712	25401.13
594.908	25448.23
595.105	25472.81
595.302	25145.13
595.499	25487.14
595.696	25161.51
595.892	25040.68
596.089	25399.08
596.286	25351.98
596.482	25157.42
596.679	25118.51
596.876	24987.44
597.072	24911.66
597.269	24713.01
597.466	24733.49
597.662	24753.97
597.859	25044.78
598.055	24848.18
598.252	24667.95
598.448	24831.79
598.645	24909.61
598.841	24778.54
599.038	24614.71
599.234	24928.05
599.431	24649.52
599.627	24524.6
599.824	24762.16
600.02	24559.41
600.217	24676.15
600.413	24342.33
600.609	24366.9
600.806	24309.56
601.002	24592.18
601.198	24256.31
601.395	24293.18
601.591	24383.29
601.787	24104.76
601.984	24272.7
602.18	24364.85
602.376	24037.18
602.572	24303.42
602.769	24119.1
602.965	24002.36
603.161	24389.43
603.357	24317.75
603.553	23981.88
603.75	24260.41
603.946	24143.67
604.142	24149.82
604.338	24004.41
604.534	23981.88
604.73	24016.7
604.926	24061.76
605.122	24342.33
605.318	23893.82
605.514	24192.83
605.71	23779.14
605.906	23971.64
606.102	24061.76
606.298	24098.62
606.494	24338.23
606.69	24022.84
606.886	24129.34
607.082	24123.19
607.278	24080.19
607.474	23652.16
607.67	24092.48
607.866	23813.95
608.062	24497.97
608.257	24031.04
608.453	24180.54
608.649	24303.42
608.845	23951.17
609.041	24168.25
609.236	24151.87
609.432	23985.98
609.628	24184.63
609.824	24084.28
610.019	24006.46
610.215	24119.1
610.411	24373.05
610.606	24344.38
610.802	24416.05
610.998	24221.5
611.193	24592.18
611.389	24149.82
611.584	24280.89
611.78	24106.81
611.976	24342.33
612.171	24250.17
612.367	24549.17
612.562	24049.47
612.758	24049.47
612.953	23811.9
613.149	24260.41
613.344	24469.3
613.539	24565.56
613.735	24395.57
613.93	24379.19
614.126	24403.77
614.321	24817.46
614.517	24721.2
614.712	24219.45
614.907	24297.27
615.103	24534.84
615.298	24563.51
615.493	24487.73
615.688	24141.63
615.884	24803.12
616.079	24264.5
616.274	24317.75
616.47	24356.66
616.665	24395.57
616.86	24121.15
617.055	24264.5
617.25	24205.11
617.445	24913.71
617.641	23834.43
617.836	24201.02
618.031	23973.69
618.226	24186.68
618.421	23850.81
618.616	23834.43
618.811	23689.03
619.006	24391.48
619.201	23705.41
619.396	23994.17
619.591	23473.99
619.786	23969.6
619.981	23402.31
620.176	23529.28
620.371	23531.33
620.566	23306.06
620.761	23334.73
620.956	23361.35
621.151	23207.75
621.346	23334.73
621.541	22619.99
621.735	23349.06
621.93	22314.84
622.125	22855.5
622.32	22556.5
622.515	22613.84
622.709	22660.94
622.904	22654.8
623.099	22531.92
623.294	22349.65
623.488	21778.27
623.683	22296.41
623.878	21847.9
624.072	22212.44
624.267	21710.69
624.462	21794.65
624.656	21591.91
624.851	21573.47
625.046	21645.15
625.24	21571.43
625.435	21344.1
625.629	21159.78
625.824	21000.04
626.018	21325.67
626.213	20676.46
626.407	20807.53
626.602	20451.19
626.796	20625.26
626.991	20385.65
627.185	20367.22
627.38	20334.45
627.574	19943.29
627.768	19957.63
627.963	19824.51
628.157	19898.24
628.352	19953.53
628.546	19502.98
628.74	19668.86
628.935	19187.59
629.129	19427.2
629.323	18941.83
629.517	19222.41
629.712	19136.39
629.906	19140.49
630.1	18911.11
630.294	18861.96
630.489	18753.42
630.683	18884.49
630.877	18712.46
631.071	18304.92
631.265	18392.98
631.459	18399.12
631.653	18257.81
631.848	18352.02
632.042	17915.8
632.236	18112.41
632.43	17915.8
632.624	18020.25
632.818	18116.5
633.012	17586.08
633.206	17577.89
633.4	17633.18
633.594	17377.19
633.788	17246.12
633.982	17434.53
634.176	17108.9
634.369	17094.57
634.563	17100.71
634.757	16783.27
634.951	16799.66
635.145	16736.17
635.339	16670.64
635.533	16912.3
635.726	16441.26
635.92	16146.36
636.114	16431.02
636.308	16281.52
636.501	16144.31
636.695	16308.15
636.889	15896.5
637.083	15697.85
637.276	15894.46
637.47	15814.59
637.664	15534.01
637.857	15673.28
638.051	15701.95
638.244	15613.88
638.438	15497.15
638.632	15226.82
638.825	15175.62
639.019	15089.6
639.212	14743.5
639.406	15003.59
639.599	14831.56
639.793	14993.35
639.986	14397.39
640.18	14563.28
640.373	14573.52
640.567	14405.58
640.76	14442.45
640.954	14217.17
641.147	14315.47
641.34	14026.71
641.534	14039
641.727	14141.39
641.92	13789.14
642.114	13922.26
642.307	13692.89
642.5	13842.39
642.694	13430.75
642.887	13311.97
643.08	13635.55
643.273	13262.82
643.467	13209.57
643.66	13225.95
643.853	13236.19
644.046	13080.55
644.239	13088.74
644.432	12976.1
644.626	12693.48
644.819	12707.82
645.012	12584.94
645.205	12685.29
645.398	12582.89
645.591	12445.68
645.784	12247.02
645.977	12120.05
646.17	12376.05
646.363	12103.67
646.556	11931.64
646.749	11862.01
646.942	11972.6
647.135	11816.95
647.328	11775.99
647.521	11775.99
647.714	11599.87
647.907	11866.1
648.099	11657.21
648.292	11468.8
648.485	11368.45
648.678	11284.48
648.871	11354.11
649.064	11317.25
649.256	11243.52
649.449	11008
649.642	11079.68
649.835	11161.6
650.027	10907.65
650.22	10965
650.413	10713.1
650.605	10881.03
650.798	10788.87
650.991	10657.8
651.183	10680.33
651.376	10569.74
651.568	10571.79
651.761	10616.84
651.954	10549.26
652.146	10211.34
652.339	10149.9
652.531	10129.42
652.724	10188.82
652.916	10074.13
653.109	10094.61
653.301	10151.95
653.494	10137.62
653.686	9719.83
653.879	10110.99
654.071	9822.23
654.263	9773.08
654.456	9543.71
654.648	9811.99
654.84	9549.85
655.033	9443.35
655.225	9420.83
655.417	9369.63
655.61	9363.48
655.802	9269.28
655.994	9220.13
656.186	9343
656.379	9105.44
656.571	9326.62
656.763	9093.15
656.955	8970.27
657.148	9121.82
657.34	9078.82
657.532	8904.74
657.724	8749.09
657.916	8812.58
658.108	8790.05
658.3	8663.08
658.492	8722.47
658.684	8689.7
658.876	8624.17
659.068	8370.22
659.26	8456.23
659.452	8341.55
659.644	8575.02
659.836	8368.17
660.028	8517.67
660.22	8106.03
660.412	8220.72
660.604	8155.18
660.796	8323.12
660.988	8063.02
661.18	8063.02
661.372	8001.58
661.563	8046.64
661.755	7895.09
661.947	7886.9
662.139	7854.13
662.331	8017.97
662.522	7753.78
662.714	7610.42
662.906	7643.19
663.097	7460.92
663.289	7483.45
663.481	7456.82
663.673	7436.35
663.864	7540.79
664.056	7264.32
664.247	7217.21
664.439	7114.81
664.631	7286.84
664.822	7327.8
665.014	7225.4
665.205	7114.81
665.397	7237.69
665.588	7090.24
665.78	6967.36
665.971	6993.98
666.163	7063.61
666.354	7110.72
666.546	6910.02
666.737	6817.86
666.929	6881.35
667.12	6895.68
667.311	6987.84
667.503	6895.68
667.694	6705.22
667.885	6729.8
668.077	6680.64
668.268	6721.6
668.459	6649.93
668.651	6463.56
668.842	6498.38
669.033	6453.32
669.224	6477.9
669.416	6512.71
669.607	6287.43
669.798	6350.92
669.989	6551.62
670.18	6219.85
670.371	6381.64
670.563	6414.41
670.754	6287.43
670.945	6193.23
671.136	6393.93
671.327	6238.28
671.518	6115.41
671.709	6252.62
671.9	6226
672.091	6144.08
672.282	6299.72
672.473	6189.13
672.664	5953.62
672.855	5951.57
673.046	6115.41
673.237	6027.34
673.428	5836.88
673.619	6004.82
673.809	5820.5
674	5693.52
674.191	5828.69
674.382	5623.89
674.573	5830.74
674.764	5668.95
674.954	5830.74
675.145	5681.24
675.336	5660.76
675.527	5675.09
675.717	5838.93
675.908	5722.2
676.099	5699.67
676.289	5619.8
676.48	5527.64
676.671	5437.53
676.861	5683.28
677.052	5402.71
677.243	5501.01
677.433	5458.01
677.624	5560.41
677.814	5451.86
678.005	5599.32
678.195	5513.3
678.386	5378.14
678.576	5476.44
678.767	5443.67
678.957	5306.46
679.148	5472.34
679.338	5392.47
679.529	5498.97
679.719	5357.66
679.909	5349.47
680.1	5296.22
680.29	5369.94
680.481	5322.84
680.671	5314.65
680.861	5169.24
681.052	5429.34
681.242	5263.45
681.432	5279.83
681.622	5195.87
681.813	5159
682.003	5202.01
682.193	5204.06
682.383	5093.47
682.573	5320.79
682.764	5046.37
682.954	5128.28
683.144	5124.19
683.334	5097.56
683.524	5124.19
683.714	5089.37
683.904	4991.07
684.094	5116
684.284	5118.04
684.474	5156.96
684.664	5161.05
684.854	5005.41
685.044	4919.39
685.234	5011.55
685.424	4896.86
685.614	4960.35
685.804	5013.6
685.994	4952.16
686.184	4946.02
686.374	4868.19
686.564	4878.43
686.753	4849.76
686.943	4733.03
687.133	4862.05
687.323	4788.32
687.513	4831.33
687.702	4761.7
687.892	4847.71
688.082	4780.13
688.272	4888.67
688.461	4739.17
688.651	4763.75
688.841	4716.64
689.03	4737.12
689.22	4577.38
689.41	4647.01
689.599	4649.06
689.789	4673.64
689.979	4683.88
690.168	4610.15
690.358	4528.23
690.547	4569.19
690.737	4509.8
690.926	4657.25
691.116	4452.45
691.305	4530.28
691.495	4395.11
691.684	4362.34
691.874	4356.2
692.063	4474.98
692.252	4305
692.442	4477.03
692.631	4460.65
692.82	4493.41
693.01	4323.43
693.199	4481.13
693.388	4257.9
693.578	4362.34
693.767	4409.45
693.956	4249.71
694.146	4280.43
694.335	4284.52
694.524	4167.79
694.713	4376.68
694.902	4239.47
695.092	4305
695.281	4214.89
695.47	4169.84
695.659	4206.7
695.848	4038.77
696.037	4153.45
696.226	4307.05
696.415	4225.13
696.604	4038.77
696.793	4149.36
696.982	4128.88
697.171	4108.4
697.36	4034.67
697.549	4247.66
697.738	3965.04
697.927	3905.65
698.116	4079.72
698.305	4001.9
698.494	4014.19
698.683	4053.1
698.872	3930.22
699.061	3997.81
699.25	3850.35
699.438	3989.61
699.627	3952.75
699.816	3954.8
700.005	3905.65
700.193	3702.9
700.382	3983.47
700.571	3741.81
700.76	3823.73
700.948	3891.31
701.137	3840.11
701.326	3780.72
701.514	3872.88
701.703	3840.11
701.892	3606.64
702.08	3717.23
702.269	3692.66
702.457	3702.9
702.646	3682.42
702.834	3801.2
703.023	3725.43
703.212	3715.19
703.4	3668.08
703.589	3627.12
703.777	3661.94
703.965	3602.55
704.154	3725.43
704.342	3616.88
704.531	3588.21
704.719	3469.43
704.907	3510.39
705.096	3448.95
705.284	3596.4
705.472	3631.22
705.661	3500.15
705.849	3608.69
706.037	3528.82
706.226	3633.27
706.414	3455.09
706.602	3534.96
706.79	3459.19
706.979	3424.37
707.167	3434.61
707.355	3338.36
707.543	3412.09
707.731	3467.38
707.919	3371.13
708.107	3317.88
708.296	3272.82
708.484	3278.97
708.672	3256.44
708.86	3346.55
709.048	3348.6
709.236	3321.98
709.424	3295.35
709.612	3379.32
709.8	3223.67
709.988	3231.87
710.176	3250.3
710.364	3215.48
710.551	3104.89
710.739	3207.29
710.927	3289.21
711.115	3174.52
711.303	3182.71
711.491	3059.84
711.679	3281.02
711.866	3029.12
712.054	3121.28
712.242	3182.71
712.43	3088.51
712.617	3018.88
712.805	3127.42
712.993	2959.49
713.181	3160.19
713.368	2998.4
713.556	2963.58
713.744	2838.66
713.931	3020.92
714.119	2904.19
714.306	2963.58
714.494	3059.84
714.682	2988.16
714.869	2865.28
715.057	2881.66
715.244	2867.33
715.432	2850.94
715.619	2824.32
715.807	2850.94
715.994	2840.7
716.182	2912.38
716.369	2871.42
716.556	2961.53
716.744	2822.27
716.931	2832.51
717.119	2939.01
717.306	2822.27
717.493	2775.17
717.681	2797.7
717.868	2744.45
718.055	2814.08
718.242	2701.44
718.43	2695.3
718.617	2752.64
718.804	2687.11
718.991	2789.5
719.179	2717.83
719.366	2752.64
719.553	2723.97
719.74	2576.52
719.927	2631.81
720.114	2635.91
720.301	2613.38
720.488	2582.66
720.676	2543.75
720.863	2560.13
721.05	2588.8
721.237	2644.1
721.424	2625.67
721.611	2580.61
721.798	2517.12
721.985	2519.17
722.172	2470.02
722.358	2510.98
722.545	2564.23
722.732	2420.87
722.919	2578.56
723.106	2572.42
723.293	2427.01
723.48	2394.25
723.667	2449.54
723.853	2592.9
724.04	2386.05
724.227	2502.79
724.414	2539.65
724.6	2490.5
724.787	2433.16
724.974	2437.25
725.161	2461.83
725.347	2398.34
725.534	2422.92
725.72	2324.62
725.907	2316.42
726.094	2359.43
726.28	2349.19
726.467	2300.04
726.653	2330.76
726.84	2254.98
727.027	2424.97
727.213	2250.89
727.4	2168.97
727.586	2285.7
727.773	2349.19
727.959	2259.08
728.145	2332.81
728.332	2365.57
728.518	2226.31
728.705	2291.85
728.891	2240.65
729.077	2193.55
729.264	2244.74
729.45	2132.11
729.636	2250.89
729.823	2267.27
730.009	2177.16
730.195	2300.04
730.382	2142.35
730.568	2156.68
730.754	2152.59
730.94	2134.15
731.126	2146.44
731.313	2130.06
731.499	2259.08
731.685	2134.15
731.871	2103.43
732.057	2185.35
732.243	2095.24
732.429	2111.63
732.615	2115.72
732.801	2060.43
732.987	2146.44
733.173	2134.15
733.359	2052.24
733.545	2187.4
733.731	2140.3
733.917	2085
734.103	2152.59
734.289	2019.47
734.475	1931.41
734.661	2130.06
734.847	1986.7
735.033	2076.81
735.219	2109.58
735.404	2060.43
735.59	1966.22
735.776	1970.32
735.962	1929.36
736.148	2003.08
736.333	2027.66
736.519	1962.12
736.705	1955.98
736.89	1919.12
737.076	1908.88
737.262	1937.55
737.447	1902.73
737.633	1970.32
737.819	1939.6
738.004	1955.98
738.19	1962.12
738.375	1974.41
738.561	1900.69
738.747	1941.65
738.932	1798.29
739.118	1931.41
739.303	1824.91
739.489	1732.75
739.674	1921.17
739.859	1759.38
740.045	1790.1
740.23	1921.17
740.416	1759.38
740.601	1953.93
740.786	1806.48
740.972	1833.1
741.157	1759.38
741.342	1683.6
741.528	1712.27
741.713	1751.18
741.898	1706.13
742.084	1757.33
742.269	1679.51
742.454	1865.87
742.639	1685.65
742.824	1716.37
743.01	1757.33
743.195	1732.75
743.38	1683.6
743.565	1663.12
743.75	1767.57
743.935	1683.6
744.12	1710.22
744.305	1603.73
744.49	1654.93
744.675	1593.49
744.86	1585.3
745.045	1671.31
745.23	1626.26
745.415	1613.97
745.6	1646.74
745.785	1695.89
745.97	1669.27
746.155	1654.93
746.34	1616.02
746.525	1527.96
746.71	1568.91
746.895	1417.37
747.079	1499.28
747.264	1470.61
747.449	1597.59
747.634	1439.89
747.819	1456.28
748.003	1448.08
748.188	1437.84
748.373	1513.62
748.557	1366.17
748.742	1462.42
748.927	1407.13
749.111	1392.79
749.296	1276.06
749.481	1421.46
749.665	1427.6
749.85	1362.07
750.034	1454.23
750.219	1282.2
750.404	1274.01
750.588	1323.16
750.773	1292.44
750.957	1360.02
751.141	1265.82
751.326	1400.98
751.51	1183.9
751.695	1343.64
751.879	1249.43
752.064	1290.39
752.248	1282.2
752.432	1298.58
752.617	1245.34
752.801	1276.06
752.985	1202.33
753.17	1304.73
753.354	1216.66
753.538	1351.83
753.722	1142.94
753.907	1128.6
754.091	1169.56
754.275	1093.79
754.459	1151.13
754.643	1171.61
754.828	1204.38
755.012	1126.55
755.196	1075.35
755.38	1151.13
755.564	987.29
755.748	1081.5
755.932	1122.46
756.116	1018.01
756.3	1050.78
756.484	1052.83
756.668	1142.94
756.852	932
757.036	1110.17
757.22	1003.68
757.404	1011.87
757.588	1048.73
757.772	972.96
757.956	942.24
758.14	964.76
758.323	979.1
758.507	966.81
758.691	983.2
758.875	954.52
759.059	962.72
759.242	958.62
759.426	929.95
759.61	862.37
759.794	925.85
759.977	979.1
760.161	1028.25
760.345	1046.68
760.528	989.34
760.712	864.41
760.895	929.95
761.079	1032.35
761.263	893.09
761.446	923.8
761.63	923.8
761.813	872.61
761.997	886.94
762.18	903.32
762.364	897.18
762.547	893.09
762.731	880.8
762.914	823.45
763.098	850.08
763.281	827.55
763.464	858.27
763.648	921.76
763.831	762.02
764.015	835.74
764.198	794.78
764.381	807.07
764.564	850.08
764.748	817.31
764.931	774.3
765.114	807.07
765.297	907.42
765.481	839.84
765.664	839.84
765.847	757.92
766.03	817.31
766.213	753.82
766.397	776.35
766.58	757.92
766.763	798.88
766.946	768.16
767.129	708.77
767.312	712.86
767.495	733.34
767.678	759.97
767.861	768.16
768.044	835.74
768.227	839.84
768.41	684.19
768.593	897.18
768.776	796.83
768.959	757.92
769.142	712.86
769.324	714.91
769.507	735.39
769.69	651.42
769.873	739.49
770.056	743.58
770.239	807.07
770.421	770.21
770.604	766.11
770.787	692.38
770.97	784.54
771.152	684.19
771.335	719.01
771.518	700.58
771.7	661.66
771.883	708.77
772.066	618.66
772.248	780.45
772.431	725.15
772.613	708.77
772.796	721.06
772.978	673.95
773.161	745.63
773.343	608.42
773.526	651.42
773.708	585.89
773.891	565.41
774.073	673.95
774.256	563.36
774.438	700.58
774.621	643.23
774.803	581.79
774.985	604.32
775.168	686.24
775.35	671.9
775.532	577.7
775.715	596.13
775.897	630.95
776.079	635.04
776.261	635.04
776.444	608.42
776.626	571.55
776.808	520.35
776.99	589.99
777.173	569.51
777.355	532.64
777.537	594.08
777.719	561.31
777.901	536.74
778.083	538.79
778.265	442.53
778.447	561.31
778.629	538.79
778.811	544.93
778.993	546.98
779.175	491.68
779.357	503.97
779.539	440.48
779.721	540.83
779.903	635.04
780.085	526.5
780.267	440.48
780.449	540.83
780.631	512.16
780.812	479.4
780.994	495.78
781.176	495.78
781.358	436.39
781.54	454.82
781.721	528.55
781.903	465.06
782.085	489.64
782.267	463.01
782.448	475.3
782.63	413.86
782.812	481.44
782.993	497.83
783.175	415.91
783.357	432.29
783.538	542.88
783.72	448.68
783.901	397.48
784.083	413.86
784.264	405.67
784.446	360.61
784.627	448.68
784.809	385.19
784.99	477.35
785.172	389.28
785.353	342.18
785.535	356.52
785.716	377
785.897	354.47
786.079	342.18
786.26	450.72
786.441	377
786.623	350.37
786.804	317.61
786.985	331.94
787.167	360.61
787.348	340.13
787.529	317.61
787.71	407.72
787.891	370.85
788.073	372.9
788.254	323.75
788.435	307.37
788.616	307.37
788.797	331.94
788.978	372.9
789.159	338.09
789.34	319.65
789.522	288.93
789.703	389.28
789.884	323.75
790.065	340.13
790.246	336.04
790.427	290.98
790.607	389.28
790.788	276.65
790.969	235.69
791.15	358.57
791.331	282.79
791.512	252.07
791.693	250.02
791.874	348.33
792.054	348.33
792.235	252.07
792.416	237.74
792.597	278.69
792.778	266.41
792.958	282.79
793.139	278.69
793.32	245.93
793.5	262.31
793.681	319.65
793.862	301.22
794.042	274.6
794.223	235.69
794.404	307.37
794.584	282.79
794.765	309.41
794.945	290.98
795.126	299.17
795.306	311.46
795.487	184.49
795.667	213.16
795.848	252.07
796.028	272.55
796.209	276.65
796.389	284.84
796.57	229.54
796.75	227.5
796.93	266.41
797.111	276.65
797.291	209.06
797.471	229.54
797.652	250.02
797.832	258.21
798.012	344.23
798.192	266.41
798.373	172.2
798.553	227.5
798.733	227.5
798.913	184.49
799.093	233.64
799.274	256.17
799.454	274.6
799.634	250.02
799.814	217.26
799.994	299.17
800.174	227.5
800.354	266.41
800.534	200.87
800.714	282.79
800.894	159.91
801.074	151.72
801.254	211.11
801.434	192.68
801.614	223.4
801.794	180.39
801.974	913.56
802.154	151.72
802.334	211.11
802.514	135.34
802.693	204.97
802.873	184.49
803.053	266.41
803.233	227.5
803.413	243.88
803.592	223.4
803.772	121
803.952	209.06
804.131	102.57
804.311	266.41
804.491	286.89
804.67	180.39
804.85	127.14
805.03	207.02
805.209	227.5
805.389	118.95
805.568	174.25
805.748	194.73
805.928	143.53
806.107	90.28
806.287	231.59
806.466	139.43
806.646	178.34
806.825	135.34
807.004	112.81
807.184	200.87
807.363	155.82
807.543	151.72
807.722	192.68
807.901	213.16
808.081	112.81
808.26	149.67
808.439	202.92
808.619	223.4
808.798	172.2
808.977	188.58
809.156	153.77
809.336	137.38
809.515	180.39
809.694	209.06
809.873	135.34
810.052	139.43
810.231	168.1
810.411	133.29
810.59	149.67
810.769	116.9
810.948	178.34
811.127	139.43
811.306	127.14
811.485	161.96
811.664	184.49
811.843	159.91
812.022	149.67
812.201	143.53
812.38	73.9
812.559	41.13
812.737	137.38
812.916	139.43
813.095	157.86
813.274	88.23
813.453	77.99
813.632	145.58
813.811	176.3
813.989	151.72
814.168	182.44
814.347	102.57
814.526	131.24
814.704	209.06
814.883	153.77
815.062	121
815.24	172.2
815.419	145.58
815.598	174.25
815.776	69.8
815.955	200.87
816.133	10.41
816.312	159.91
816.49	108.71
816.669	135.34
816.847	96.43
817.026	110.76
817.204	82.09
817.383	94.38
817.561	143.53
817.74	102.57
817.918	104.62
818.097	80.04
818.275	77.99
818.453	151.72
818.632	159.91
818.81	139.43
818.988	61.61
819.167	86.19
819.345	61.61
819.523	88.23
819.701	118.95
819.879	145.58
820.058	73.9
820.236	118.95
820.414	63.66
820.592	65.71
820.77	149.67
820.948	53.42
821.127	53.42
821.305	147.62
821.483	102.57
821.661	121
821.839	159.91
822.017	65.71
822.195	16.55
822.373	164.01
822.551	139.43
822.729	88.23
822.907	82.09
823.085	147.62
823.262	30.89
823.44	47.27
823.618	112.81
823.796	82.09
823.974	80.04
824.152	22.7
824.329	65.71
824.507	75.95
824.685	63.66
824.863	75.95
825.04	61.61
825.218	45.23
825.396	65.71
825.574	127.14
825.751	24.75
825.929	112.81
826.107	49.32
826.284	61.61
826.462	114.86
826.639	45.23
826.817	45.23
826.994	53.42
827.172	28.84
827.349	108.71
827.527	80.04
827.704	147.62
827.882	80.04
828.059	69.8
828.237	102.57
828.414	118.95
828.591	55.47
828.769	131.24
828.946	71.85
829.124	63.66
829.301	192.68
829.478	26.79
829.655	16.55
829.833	112.81
830.01	12.46
830.187	116.9
830.364	149.67
830.542	73.9
830.719	176.3
830.896	145.58
831.073	77.99
831.25	4.27
831.427	86.19
831.604	104.62
831.782	69.8
831.959	47.27
832.136	4.27
832.313	22.7
832.49	80.04
832.667	30.89
832.844	12.46
833.021	106.67
833.198	61.61
833.374	84.14
833.551	86.19
833.728	45.23
833.905	112.81
834.082	-59.22
834.259	30.89
834.436	102.57
834.612	22.7
834.789	37.03
834.966	53.42
835.143	30.89
835.319	57.51
835.496	159.91
835.673	22.7
835.85	106.67
836.026	28.84
836.203	164.01
836.38	90.28
836.556	121
836.733	-57.17
836.909	133.29
837.086	102.57
837.262	22.7
837.439	69.8
837.616	-8.02
837.792	0.17
837.968	53.42
838.145	0.17
838.321	71.85
838.498	55.47
838.674	-3.93
838.851	59.56
839.027	61.61
839.203	61.61
839.38	45.23
839.556	55.47
839.732	47.27
839.909	45.23
840.085	84.14
840.261	-104.28
840.437	65.71
840.614	10.41
840.79	92.33
840.966	45.23
841.142	80.04
841.318	88.23
841.494	80.04
841.671	-20.31
841.847	24.75
842.023	-18.26
842.199	98.47
842.375	41.13
842.551	18.6
842.727	-8.02
842.903	69.8
843.079	-34.64
843.255	47.27
843.431	114.86
843.607	67.75
843.783	-12.12
843.959	86.19
844.134	0.17
844.31	61.61
844.486	26.79
844.662	92.33
844.838	65.71
845.013	69.8
845.189	61.61
845.365	69.8
845.541	41.13
845.716	47.27
845.892	55.47
846.068	37.03
846.244	12.46
846.419	-1.88
846.595	-26.45
846.77	45.23
846.946	86.19
847.122	86.19
847.297	82.09
847.473	114.86
847.648	-32.6
847.824	20.65
847.999	20.65
848.175	49.32
848.35	49.32
848.526	47.27
848.701	28.84
848.876	32.94
849.052	53.42
849.227	-53.08
849.403	37.03
849.578	12.46
849.753	20.65
849.929	55.47
850.104	61.61
850.279	49.32
850.454	63.66
850.63	94.38
850.805	55.47
850.98	-1.88
851.155	22.7
851.33	41.13
851.505	4.27
851.681	47.27
851.856	53.42
852.031	16.55
852.206	30.89
852.381	22.7
852.556	4.27
852.731	34.99
852.906	102.57
853.081	6.31
853.256	49.32
853.431	53.42
853.606	-28.5
853.781	65.71
853.956	12.46
854.131	26.79
854.305	30.89
854.48	37.03
854.655	-44.88
854.83	-3.93
855.005	-12.12
855.18	39.08
855.354	-12.12
855.529	28.84
855.704	-36.69
855.879	51.37
856.053	20.65
856.228	43.18
856.403	-8.02
856.577	73.9
856.752	-36.69
856.926	-20.31
857.101	61.61
857.276	45.23
857.45	61.61
857.625	61.61
857.799	37.03
857.974	-12.12
858.148	-3.93
858.323	22.7
858.497	53.42
858.672	12.46
858.846	61.61
859.02	51.37
859.195	-16.21
859.369	12.46
859.543	45.23
859.718	45.23
859.892	49.32
860.066	98.47
860.241	-3.93
860.415	-3.93
860.589	80.04
860.763	22.7
860.938	14.51
861.112	49.32
861.286	-12.12
861.46	75.95
861.634	-18.26
861.808	49.32
861.982	-18.26
862.157	12.46
862.331	4.27
862.505	4.27
862.679	4.27
862.853	47.27
863.027	24.75
863.201	55.47
863.375	49.32
863.549	12.46
863.722	18.6
863.896	30.89
864.07	32.94
864.244	6.31
864.418	39.08
864.592	28.84
864.766	69.8
864.939	24.75
865.113	-24.4
865.287	22.7
865.461	30.89
865.634	55.47
865.808	8.36
865.982	4.27
866.156	-36.69
866.329	-16.21
866.503	86.19
866.676	94.38
866.85	32.94
867.024	20.65
867.197	94.38
867.371	82.09
867.544	0.17
867.718	20.65
867.891	114.86
868.065	-26.45
868.238	-67.41
868.412	57.51
868.585	28.84
868.759	-28.5
868.932	12.46
869.105	-12.12
869.279	61.61
869.452	-44.88
869.625	67.75
869.799	65.71
869.972	-57.17
870.145	-18.26
870.319	14.51
870.492	22.7
870.665	-1.88
870.838	4.27
871.011	-135
871.185	16.55
871.358	22.7
871.531	43.18
871.704	14.51
871.877	-3.93
872.05	4.27
872.223	-30.55
872.396	0.17
872.569	80.04
872.742	69.8
872.915	98.47
873.088	-26.45
873.261	24.75
873.434	-24.4
873.607	47.27
873.78	4.27
873.953	0.17
874.126	-16.21
874.299	45.23
874.471	37.03
874.644	-12.12
874.817	28.84
874.99	51.37
875.163	-63.32
875.335	-3.93
875.508	-3.93
875.681	143.53
875.853	47.27
876.026	-1.88
876.199	18.6
876.371	41.13
876.544	18.6
876.717	16.55
876.889	-24.4
877.062	24.75
877.234	0.17
877.407	-12.12
877.579	30.89
877.752	45.23
877.924	86.19
878.097	86.19
878.269	12.46
878.442	24.75
878.614	-10.07
878.786	88.23
878.959	37.03
879.131	41.13
879.303	34.99
879.476	53.42
879.648	71.85
879.82	55.47
879.993	-48.98
880.165	12.46
880.337	-12.12
880.509	26.79
880.681	22.7
880.854	4.27
881.026	37.03
881.198	26.79
881.37	45.23
881.542	-44.88
881.714	-26.45
881.886	-18.26
882.058	30.89
882.23	18.6
882.402	4.27
882.574	-3.93
882.746	125.1
882.918	57.51
883.09	86.19
883.262	16.55
883.434	20.65
883.606	-40.79
883.778	37.03
883.95	84.14
884.122	8.36
884.293	-32.6
884.465	-3.93
884.637	22.7
884.809	-96.08
884.98	-8.02
885.152	96.43
885.324	12.46
885.496	-20.31
885.667	-12.12
885.839	-28.5
886.011	96.43
886.182	37.03
886.354	61.61
886.525	26.79
886.697	16.55
886.869	-147.28
887.04	-20.31
887.212	67.75
887.383	110.76
887.555	37.03
887.726	12.46
887.897	16.55
888.069	10.41
888.24	47.27
888.412	37.03
888.583	90.28
888.754	65.71
888.926	-12.12
889.097	4.27
889.268	20.65
889.44	-3.93
889.611	41.13
889.782	-36.69
889.953	20.65
890.125	61.61
890.296	-16.21
890.467	57.51
890.638	-28.5
890.809	12.46
890.98	-36.69
891.151	-12.12
891.323	61.61
891.494	10.41
891.665	24.75
891.836	-36.69
892.007	6.31
892.178	14.51
892.349	32.94
892.52	-44.88
892.691	41.13
892.862	6.31
893.032	-48.98
893.203	-12.12
893.374	-10.07
893.545	96.43
893.716	-3.93
893.887	71.85
894.057	-8.02
894.228	127.14
894.399	-28.5
894.57	-3.93
894.74	24.75
894.911	18.6
895.082	14.51
895.253	-26.45
895.423	30.89
895.594	6.31
895.764	43.18
895.935	-26.45
896.106	71.85
896.276	-44.88
896.447	28.84
896.617	-40.79
896.788	6.31
896.958	37.03
897.129	-75.6
897.299	4.27
897.47	4.27
897.64	39.08
897.81	-16.21
897.981	61.61
898.151	-12.12
898.322	65.71
898.492	-48.98
898.662	-14.17
898.832	63.66
899.003	-16.21
899.173	65.71
899.343	6.31
899.513	55.47
