Data from USB4F104151__173__14-32-31-664.txt Node

Date: Thu Mar 13 14:32:31 EDT 2025
User: louis
Spectrometer: USB4F10415
Trigger mode: 4
Integration Time (sec): 2.500000E-2
Scans to average: 1
Electric dark correction enabled: true
Nonlinearity correction enabled: false
Boxcar width: 0
XAxis mode: Wavelengths
Number of Pixels in Spectrum: 3648
>>>>>Begin Spectral Data<<<<<
178.204	-180.05
178.424	-180.05
178.644	-180.05
178.864	-169.81
179.084	-190.29
179.304	-18.26
179.524	6.31
179.744	-83.8
179.964	-1.88
180.184	106.67
180.404	-18.26
180.624	8.36
180.844	-1.88
181.064	-24.4
181.283	-16.21
181.503	-14.17
181.723	57.51
181.943	-59.22
182.163	49.32
182.383	39.08
182.602	22.7
182.822	47.27
183.042	26.79
183.262	28.84
183.482	-1.88
183.701	-67.41
183.921	30.89
184.141	-36.69
184.361	49.32
184.58	104.62
184.8	-34.64
185.02	-24.4
185.239	104.62
185.459	39.08
185.679	8.36
185.898	-77.65
186.118	55.47
186.338	-10.07
186.557	75.95
186.777	-1.88
186.997	-71.51
187.216	0.17
187.436	80.04
187.655	47.27
187.875	-1.88
188.095	14.51
188.314	32.94
188.534	47.27
188.753	-34.64
188.973	-16.21
189.192	63.66
189.412	57.51
189.631	80.04
189.851	47.27
190.07	82.09
190.29	-12.12
190.509	41.13
190.729	14.51
190.948	96.43
191.168	143.53
191.387	90.28
191.607	20.65
191.826	37.03
192.045	49.32
192.265	8.36
192.484	63.66
192.704	6.31
192.923	22.7
193.142	49.32
193.362	47.27
193.581	71.85
193.8	100.52
194.02	186.54
194.239	59.56
194.458	41.13
194.678	30.89
194.897	14.51
195.116	6.31
195.335	47.27
195.555	59.56
195.774	96.43
195.993	30.89
196.212	71.85
196.432	-69.46
196.651	18.6
196.87	-26.45
197.089	96.43
197.308	22.7
197.528	55.47
197.747	-16.21
197.966	-16.21
198.185	59.56
198.404	8.36
198.623	41.13
198.842	75.95
199.062	75.95
199.281	125.1
199.5	-18.26
199.719	0.17
199.938	80.04
200.157	92.33
200.376	94.38
200.595	100.52
200.814	90.28
201.033	37.03
201.252	18.6
201.471	96.43
201.69	94.38
201.909	39.08
202.128	22.7
202.347	51.37
202.566	-24.4
202.785	-14.17
203.004	16.55
203.223	73.9
203.442	71.85
203.661	-12.12
203.879	80.04
204.098	55.47
204.317	32.94
204.536	145.58
204.755	65.71
204.974	37.03
205.193	80.04
205.411	65.71
205.63	61.61
205.849	-28.5
206.068	-79.7
206.287	-1.88
206.505	71.85
206.724	-10.07
206.943	24.75
207.162	-40.79
207.381	65.71
207.599	32.94
207.818	-1.88
208.037	20.65
208.255	-32.6
208.474	30.89
208.693	71.85
208.911	-5.97
209.13	6.31
209.349	55.47
209.567	104.62
209.786	22.7
210.005	71.85
210.223	53.42
210.442	-48.98
210.661	-12.12
210.879	49.32
211.098	30.89
211.316	57.51
211.535	65.71
211.753	8.36
211.972	71.85
212.191	-16.21
212.409	2.22
212.628	14.51
212.846	49.32
213.065	55.47
213.283	55.47
213.502	22.7
213.72	61.61
213.938	-65.36
214.157	98.47
214.375	18.6
214.594	14.51
214.812	47.27
215.031	104.62
215.249	39.08
215.467	6.31
215.686	47.27
215.904	-16.21
216.122	-5.97
216.341	82.09
216.559	-26.45
216.778	24.75
216.996	0.17
217.214	4.27
217.432	18.6
217.651	55.47
217.869	26.79
218.087	-18.26
218.306	2.22
218.524	32.94
218.742	-16.21
218.96	24.75
219.179	-18.26
219.397	-28.5
219.615	86.19
219.833	2.22
220.051	80.04
220.27	41.13
220.488	30.89
220.706	55.47
220.924	6.31
221.142	73.9
221.36	10.41
221.578	39.08
221.796	34.99
222.015	51.37
222.233	4.27
222.451	96.43
222.669	32.94
222.887	96.43
223.105	-8.02
223.323	41.13
223.541	73.9
223.759	-1.88
223.977	28.84
224.195	32.94
224.413	71.85
224.631	67.75
224.849	39.08
225.067	80.04
225.285	67.75
225.503	39.08
225.721	-59.22
225.939	86.19
226.157	6.31
226.375	30.89
226.592	14.51
226.81	55.47
227.028	114.86
227.246	57.51
227.464	-38.74
227.682	75.95
227.9	110.76
228.117	49.32
228.335	-24.4
228.553	30.89
228.771	39.08
228.989	57.51
229.206	30.89
229.424	10.41
229.642	39.08
229.86	-18.26
230.077	139.43
230.295	63.66
230.513	59.56
230.731	71.85
230.948	92.33
231.166	51.37
231.384	14.51
231.601	6.31
231.819	49.32
232.037	-8.02
232.254	-1.88
232.472	-34.64
232.689	-20.31
232.907	39.08
233.125	71.85
233.342	14.51
233.56	39.08
233.777	32.94
233.995	80.04
234.213	98.47
234.43	14.51
234.648	49.32
234.865	-30.55
235.083	63.66
235.3	10.41
235.518	49.32
235.735	155.82
235.953	65.71
236.17	-46.93
236.388	-1.88
236.605	26.79
236.822	82.09
237.04	92.33
237.257	2.22
237.475	-14.17
237.692	-26.45
237.909	6.31
238.127	22.7
238.344	59.56
238.562	121
238.779	-28.5
238.996	-34.64
239.214	0.17
239.431	24.75
239.648	43.18
239.865	-10.07
240.083	73.9
240.3	47.27
240.517	0.17
240.735	67.75
240.952	88.23
241.169	28.84
241.386	2.22
241.603	8.36
241.821	-1.88
242.038	88.23
242.255	73.9
242.472	-40.79
242.689	55.47
242.907	51.37
243.124	2.22
243.341	30.89
243.558	22.7
243.775	96.43
243.992	65.71
244.209	98.47
244.426	75.95
244.643	-26.45
244.86	-16.21
245.078	39.08
245.295	32.94
245.512	41.13
245.729	22.7
245.946	63.66
246.163	34.99
246.38	-40.79
246.597	-30.55
246.814	22.7
247.031	-10.07
247.248	-16.21
247.464	-18.26
247.681	88.23
247.898	73.9
248.115	106.67
248.332	26.79
248.549	88.23
248.766	88.23
248.983	20.65
249.2	14.51
249.417	-34.64
249.633	80.04
249.85	57.51
250.067	24.75
250.284	88.23
250.501	49.32
250.717	14.51
250.934	-24.4
251.151	47.27
251.368	-44.88
251.585	-12.12
251.801	43.18
252.018	-36.69
252.235	116.9
252.451	4.27
252.668	-57.17
252.885	-46.93
253.102	39.08
253.318	-5.97
253.535	39.08
253.752	12.46
253.968	61.61
254.185	-26.45
254.401	30.89
254.618	16.55
254.835	26.79
255.051	82.09
255.268	43.18
255.484	47.27
255.701	14.51
255.917	39.08
256.134	59.56
256.351	-16.21
256.567	-34.64
256.784	-10.07
257	55.47
257.217	80.04
257.433	71.85
257.65	37.03
257.866	10.41
258.082	-51.03
258.299	39.08
258.515	22.7
258.732	-73.56
258.948	75.95
259.165	129.19
259.381	-79.7
259.597	16.55
259.814	80.04
260.03	-34.64
260.246	39.08
260.463	65.71
260.679	104.62
260.895	6.31
261.112	32.94
261.328	-20.31
261.544	-77.65
261.761	73.9
261.977	80.04
262.193	26.79
262.409	59.56
262.626	-1.88
262.842	0.17
263.058	39.08
263.274	41.13
263.49	-32.6
263.707	59.56
263.923	16.55
264.139	22.7
264.355	55.47
264.571	84.14
264.787	-28.5
265.004	4.27
265.22	92.33
265.436	18.6
265.652	-14.17
265.868	47.27
266.084	-10.07
266.3	129.19
266.516	24.75
266.732	26.79
266.948	67.75
267.164	112.81
267.38	-18.26
267.596	149.67
267.812	63.66
268.028	39.08
268.244	53.42
268.46	94.38
268.676	-91.99
268.892	45.23
269.108	30.89
269.324	8.36
269.54	-42.84
269.756	114.86
269.972	127.14
270.188	47.27
270.403	-18.26
270.619	55.47
270.835	-20.31
271.051	39.08
271.267	-5.97
271.483	-16.21
271.698	39.08
271.914	96.43
272.13	22.7
272.346	18.6
272.562	30.89
272.777	71.85
272.993	39.08
273.209	-10.07
273.425	14.51
273.64	8.36
273.856	63.66
274.072	30.89
274.287	0.17
274.503	80.04
274.719	108.71
274.934	41.13
275.15	43.18
275.366	-10.07
275.581	20.65
275.797	14.51
276.012	47.27
276.228	-10.07
276.444	32.94
276.659	34.99
276.875	-26.45
277.09	-1.88
277.306	53.42
277.521	57.51
277.737	86.19
277.952	6.31
278.168	51.37
278.383	6.31
278.599	55.47
278.814	51.37
279.03	63.66
279.245	34.99
279.461	-8.02
279.676	22.7
279.892	-26.45
280.107	65.71
280.322	-16.21
280.538	30.89
280.753	14.51
280.969	14.51
281.184	-34.64
281.399	26.79
281.615	47.27
281.83	59.56
282.045	-48.98
282.26	18.6
282.476	14.51
282.691	47.27
282.906	-26.45
283.122	-5.97
283.337	51.37
283.552	18.6
283.767	-14.17
283.983	71.85
284.198	-1.88
284.413	16.55
284.628	34.99
284.843	55.47
285.058	37.03
285.274	39.08
285.489	-20.31
285.704	80.04
285.919	39.08
286.134	43.18
286.349	8.36
286.564	-16.21
286.779	57.51
286.995	41.13
287.21	-46.93
287.425	71.85
287.64	-42.84
287.855	82.09
288.07	-44.88
288.285	112.81
288.5	22.7
288.715	14.51
288.93	-8.02
289.145	2.22
289.36	8.36
289.575	-1.88
289.79	71.85
290.004	14.51
290.219	55.47
290.434	28.84
290.649	24.75
290.864	80.04
291.079	10.41
291.294	39.08
291.509	-1.88
291.724	55.47
291.938	2.22
292.153	16.55
292.368	10.41
292.583	14.51
292.798	71.85
293.012	-67.41
293.227	43.18
293.442	39.08
293.657	28.84
293.871	90.28
294.086	6.31
294.301	73.9
294.516	55.47
294.73	16.55
294.945	0.17
295.16	47.27
295.374	-10.07
295.589	16.55
295.804	-16.21
296.018	6.31
296.233	157.86
296.447	39.08
296.662	-5.97
296.877	8.36
297.091	22.7
297.306	88.23
297.52	57.51
297.735	47.27
297.949	80.04
298.164	26.79
298.378	-20.31
298.593	-10.07
298.807	18.6
299.022	84.14
299.236	-14.17
299.451	-32.6
299.665	90.28
299.88	-20.31
300.094	59.56
300.309	0.17
300.523	22.7
300.737	57.51
300.952	51.37
301.166	59.56
301.381	43.18
301.595	51.37
301.809	18.6
302.024	47.27
302.238	-12.12
302.452	73.9
302.667	-1.88
302.881	41.13
303.095	59.56
303.309	47.27
303.524	80.04
303.738	-14.17
303.952	77.99
304.166	24.75
304.381	-51.03
304.595	32.94
304.809	-14.17
305.023	90.28
305.237	41.13
305.452	-26.45
305.666	55.47
305.88	67.75
306.094	51.37
306.308	14.51
306.522	-42.84
306.736	43.18
306.95	14.51
307.164	32.94
307.379	55.47
307.593	39.08
307.807	104.62
308.021	12.46
308.235	-10.07
308.449	55.47
308.663	6.31
308.877	141.48
309.091	82.09
309.305	18.6
309.519	39.08
309.733	49.32
309.947	-16.21
310.161	98.47
310.374	55.47
310.588	90.28
310.802	-3.93
311.016	-8.02
311.23	14.51
311.444	14.51
311.658	26.79
311.872	55.47
312.085	49.32
312.299	41.13
312.513	88.23
312.727	49.32
312.941	-1.88
313.154	2.22
313.368	43.18
313.582	6.31
313.796	-10.07
314.009	34.99
314.223	24.75
314.437	65.71
314.651	123.05
314.864	-24.4
315.078	-18.26
315.292	-24.4
315.505	16.55
315.719	30.89
315.933	43.18
316.146	20.65
316.36	-12.12
316.573	24.75
316.787	49.32
317.001	116.9
317.214	63.66
317.428	14.51
317.641	-26.45
317.855	10.41
318.068	14.51
318.282	51.37
318.495	104.62
318.709	67.75
318.922	-30.55
319.136	96.43
319.349	84.14
319.563	16.55
319.776	65.71
319.99	-24.4
320.203	47.27
320.417	32.94
320.63	16.55
320.843	125.1
321.057	57.51
321.27	47.27
321.483	59.56
321.697	63.66
321.91	71.85
322.124	39.08
322.337	39.08
322.55	24.75
322.763	0.17
322.977	73.9
323.19	39.08
323.403	8.36
323.617	-5.97
323.83	22.7
324.043	51.37
324.256	18.6
324.469	-10.07
324.683	80.04
324.896	10.41
325.109	67.75
325.322	-28.5
325.535	34.99
325.748	39.08
325.962	65.71
326.175	55.47
326.388	121
326.601	75.95
326.814	80.04
327.027	88.23
327.24	47.27
327.453	8.36
327.666	71.85
327.879	63.66
328.092	92.33
328.305	37.03
328.518	8.36
328.731	-22.36
328.944	30.89
329.157	34.99
329.37	30.89
329.583	141.48
329.796	61.61
330.009	-42.84
330.222	88.23
330.435	61.61
330.648	80.04
330.861	41.13
331.073	59.56
331.286	49.32
331.499	26.79
331.712	4.27
331.925	63.66
332.138	112.81
332.35	20.65
332.563	-32.6
332.776	30.89
332.989	63.66
333.202	39.08
333.414	-42.84
333.627	80.04
333.84	-8.02
334.053	137.38
334.265	6.31
334.478	61.61
334.691	49.32
334.903	41.13
335.116	18.6
335.329	112.81
335.541	88.23
335.754	71.85
335.966	39.08
336.179	75.95
336.392	47.27
336.604	59.56
336.817	47.27
337.029	10.41
337.242	71.85
337.454	45.23
337.667	51.37
337.88	-18.26
338.092	32.94
338.305	59.56
338.517	-32.6
338.729	47.27
338.942	96.43
339.154	22.7
339.367	18.6
339.579	32.94
339.792	47.27
340.004	106.67
340.217	-28.5
340.429	51.37
340.641	57.51
340.854	10.41
341.066	49.32
341.278	86.19
341.491	69.8
341.703	59.56
341.915	57.51
342.128	2.22
342.34	65.71
342.552	-67.41
342.764	53.42
342.977	-16.21
343.189	65.71
343.401	82.09
343.613	18.6
343.826	28.84
344.038	-18.26
344.25	-22.36
344.462	30.89
344.674	47.27
344.886	-1.88
345.099	-12.12
345.311	59.56
345.523	59.56
345.735	-10.07
345.947	116.9
346.159	-40.79
346.371	10.41
346.583	14.51
346.795	139.43
347.007	6.31
347.219	4.27
347.431	41.13
347.643	59.56
347.855	-28.5
348.067	88.23
348.279	77.99
348.491	49.32
348.703	30.89
348.915	0.17
349.127	0.17
349.339	63.66
349.551	-46.93
349.763	43.18
349.975	123.05
350.187	80.04
350.399	2.22
350.61	37.03
350.822	77.99
351.034	6.31
351.246	34.99
351.458	121
351.669	69.8
351.881	22.7
352.093	63.66
352.305	121
352.517	88.23
352.728	129.19
352.94	104.62
353.152	49.32
353.363	-5.97
353.575	30.89
353.787	55.47
353.999	51.37
354.21	98.47
354.422	-16.21
354.633	-28.5
354.845	43.18
355.057	16.55
355.268	2.22
355.48	43.18
355.692	24.75
355.903	41.13
356.115	-38.74
356.326	18.6
356.538	43.18
356.749	39.08
356.961	135.34
357.172	41.13
357.384	-44.88
357.595	145.58
357.807	59.56
358.018	55.47
358.23	2.22
358.441	96.43
358.653	82.09
358.864	-10.07
359.075	55.47
359.287	37.03
359.498	6.31
359.709	84.14
359.921	71.85
360.132	28.84
360.344	41.13
360.555	-3.93
360.766	49.32
360.977	-44.88
361.189	-55.12
361.4	6.31
361.611	90.28
361.823	69.8
362.034	82.09
362.245	-24.4
362.456	73.9
362.667	82.09
362.879	-24.4
363.09	6.31
363.301	37.03
363.512	-51.03
363.723	-16.21
363.935	26.79
364.146	129.19
364.357	26.79
364.568	133.29
364.779	-42.84
364.99	41.13
365.201	-34.64
365.412	114.86
365.623	-26.45
365.834	96.43
366.045	75.95
366.256	77.99
366.467	30.89
366.678	49.32
366.889	-40.79
367.1	47.27
367.311	53.42
367.522	10.41
367.733	10.41
367.944	108.71
368.155	45.23
368.366	104.62
368.577	82.09
368.788	34.99
368.999	71.85
369.209	12.46
369.42	145.58
369.631	51.37
369.842	84.14
370.053	-10.07
370.264	14.51
370.474	59.56
370.685	39.08
370.896	104.62
371.107	112.81
371.317	49.32
371.528	10.41
371.739	80.04
371.95	84.14
372.16	22.7
372.371	39.08
372.582	14.51
372.792	22.7
373.003	43.18
373.214	32.94
373.424	63.66
373.635	49.32
373.846	145.58
374.056	-34.64
374.267	90.28
374.477	28.84
374.688	-1.88
374.898	18.6
375.109	84.14
375.319	34.99
375.53	34.99
375.74	57.51
375.951	96.43
376.161	55.47
376.372	43.18
376.582	41.13
376.793	80.04
377.003	6.31
377.214	6.31
377.424	39.08
377.635	30.89
377.845	77.99
378.055	0.17
378.266	24.75
378.476	71.85
378.686	8.36
378.897	65.71
379.107	41.13
379.317	67.75
379.528	47.27
379.738	96.43
379.948	0.17
380.158	133.29
380.369	75.95
380.579	90.28
380.789	6.31
380.999	6.31
381.21	30.89
381.42	41.13
381.63	37.03
381.84	88.23
382.05	88.23
382.261	112.81
382.471	59.56
382.681	47.27
382.891	108.71
383.101	47.27
383.311	24.75
383.521	22.7
383.731	137.38
383.941	104.62
384.151	47.27
384.361	30.89
384.571	112.81
384.781	43.18
384.991	145.58
385.201	100.52
385.411	47.27
385.621	26.79
385.831	84.14
386.041	73.9
386.251	24.75
386.461	55.47
386.671	96.43
386.881	129.19
387.091	41.13
387.301	43.18
387.511	47.27
387.72	0.17
387.93	69.8
388.14	43.18
388.35	92.33
388.56	86.19
388.769	71.85
388.979	30.89
389.189	-30.55
389.399	131.24
389.609	96.43
389.818	65.71
390.028	106.67
390.238	77.99
390.447	-32.6
390.657	69.8
390.867	-26.45
391.076	121
391.286	61.61
391.496	92.33
391.705	30.89
391.915	55.47
392.125	112.81
392.334	41.13
392.544	80.04
392.753	88.23
392.963	45.23
393.172	143.53
393.382	-10.07
393.591	125.1
393.801	55.47
394.01	63.66
394.22	-1.88
394.429	10.41
394.639	75.95
394.848	47.27
395.058	43.18
395.267	90.28
395.477	20.65
395.686	149.67
395.895	129.19
396.105	80.04
396.314	112.81
396.524	84.14
396.733	104.62
396.942	73.9
397.152	47.27
397.361	73.9
397.57	141.48
397.78	59.56
397.989	82.09
398.198	121
398.407	43.18
398.617	55.47
398.826	96.43
399.035	47.27
399.244	184.49
399.453	47.27
399.663	39.08
399.872	131.24
400.081	55.47
400.29	159.91
400.499	92.33
400.708	190.63
400.917	63.66
401.127	65.71
401.336	34.99
401.545	129.19
401.754	59.56
401.963	112.81
402.172	59.56
402.381	0.17
402.59	110.76
402.799	155.82
403.008	180.39
403.217	129.19
403.426	104.62
403.635	71.85
403.844	75.95
404.053	131.24
404.262	75.95
404.471	157.86
404.68	108.71
404.888	86.19
405.097	100.52
405.306	39.08
405.515	147.62
405.724	92.33
405.933	231.59
406.142	129.19
406.35	178.34
406.559	157.86
406.768	184.49
406.977	223.4
407.185	233.64
407.394	172.2
407.603	180.39
407.812	178.34
408.02	260.26
408.229	223.4
408.438	194.73
408.646	202.92
408.855	241.83
409.064	213.16
409.272	268.45
409.481	233.64
409.69	194.73
409.898	213.16
410.107	303.27
410.315	325.8
410.524	313.51
410.733	350.37
410.941	229.54
411.15	370.85
411.358	374.95
411.567	364.71
411.775	333.99
411.984	321.7
412.192	465.06
412.401	440.48
412.609	377
412.818	460.96
413.026	454.82
413.234	477.35
413.443	436.39
413.651	381.09
413.86	510.11
414.068	542.88
414.276	594.08
414.485	616.61
414.693	606.37
414.901	772.25
415.11	612.51
415.318	637.09
415.526	680.1
415.734	749.73
415.943	663.71
416.151	694.43
416.359	747.68
416.567	784.54
416.776	764.06
416.984	975
417.192	903.32
417.4	858.27
417.608	909.47
417.817	1022.11
418.025	1018.01
418.233	1089.69
418.441	1079.45
418.649	964.76
418.857	1144.99
419.065	1198.23
419.273	1169.56
419.481	1235.1
419.689	1331.35
419.897	1441.94
420.105	1306.77
420.313	1425.56
420.521	1476.76
420.729	1423.51
420.937	1609.87
421.145	1652.88
421.353	1718.42
421.561	1826.96
421.769	1833.1
421.977	1931.41
422.185	1941.65
422.393	1960.08
422.601	2173.07
422.809	2152.59
423.017	2080.91
423.224	2205.83
423.432	2367.62
423.64	2218.12
423.848	2500.74
424.056	2320.52
424.263	2529.41
424.471	2539.65
424.679	2558.08
424.887	2771.07
425.094	2934.91
425.302	2840.7
425.51	2926.72
425.718	3078.27
425.925	3061.88
426.133	3170.43
426.341	3496.05
426.548	3457.14
426.756	3618.93
426.964	3635.32
427.171	3670.13
427.379	3840.11
427.586	4085.87
427.794	4120.68
428.001	4202.6
428.209	4364.39
428.417	4343.91
428.624	4728.93
428.832	4681.83
429.039	4702.31
429.247	4681.83
429.454	5150.81
429.662	5460.06
429.869	5060.7
430.076	5445.72
430.284	5298.27
430.491	5429.34
430.699	5810.26
430.906	5767.25
431.114	5922.9
431.321	6076.49
431.528	6152.27
431.736	6625.35
431.943	6731.84
432.15	6721.6
432.358	6781
432.565	6957.12
432.772	7159.87
432.979	7505.98
433.187	7665.72
433.394	7835.7
433.601	8165.42
433.808	8333.36
434.016	8300.59
434.223	8525.86
434.43	8984.61
434.637	8878.12
434.844	9508.89
435.052	9701.4
435.259	9623.58
435.466	9560.09
435.673	9535.51
435.88	10235.92
436.087	10754.05
436.294	10602.5
436.501	10178.58
436.708	10647.56
436.915	10868.74
437.122	11466.75
437.329	11444.22
437.537	11929.59
437.743	11804.66
437.95	11790.33
438.157	12558.32
438.364	12933.09
438.571	13047.78
438.778	12890.09
438.985	13940.69
439.192	13457.37
439.399	13899.73
439.606	13668.31
439.813	14505.93
440.02	15034.31
440.227	15038.41
440.433	14915.53
440.64	15384.51
440.847	15071.17
441.054	15427.52
441.261	16578.48
441.467	16248.75
441.674	16885.67
441.881	17348.51
442.088	17194.92
442.294	16975.78
442.501	17561.5
442.708	17842.07
442.914	18814.86
443.121	19255.17
443.328	18886.54
443.534	20172.66
443.741	19965.82
443.948	19732.35
444.154	21020.52
444.361	20584.3
444.568	21012.33
444.774	20785.01
444.981	21284.71
445.187	22042.46
445.394	22450
445.6	22216.54
445.807	24260.41
446.013	23328.58
446.22	23265.1
446.426	24629.04
446.633	24573.75
446.839	25702.18
447.046	24745.78
447.252	26058.53
447.459	26072.86
447.665	25806.62
447.871	26840.85
448.078	27928.32
448.284	27117.32
448.491	27428.62
448.697	28759.8
448.903	29284.08
449.11	29173.49
449.316	28630.77
449.522	29689.57
449.728	30324.44
449.935	30527.19
450.141	30244.57
450.347	30787.28
450.553	29884.13
450.76	30217.95
450.966	31338.19
451.172	31063.76
451.378	31999.68
451.584	30977.75
451.791	31874.76
451.997	31299.28
452.203	32587.45
452.409	32517.82
452.615	32077.51
452.821	30955.22
453.027	30633.69
453.233	32284.35
453.44	31045.33
453.646	30981.84
453.852	31067.86
454.058	31934.15
454.264	30781.14
454.47	31538.89
454.676	30854.87
454.882	31715.01
455.088	29245.16
455.294	29269.74
455.5	29626.09
455.705	30213.85
455.911	28962.54
456.117	28116.73
456.323	28153.6
456.529	26294.04
456.735	27782.91
456.941	26689.3
457.147	26468.12
457.352	25505.57
457.558	25351.98
457.764	25749.28
457.97	24942.38
458.176	24405.81
458.381	24325.94
458.587	23244.62
458.793	23019.34
458.999	22034.27
459.204	23250.76
459.41	22837.07
459.616	21415.78
459.821	21378.92
460.027	21182.31
460.233	20979.56
460.438	19804.03
460.644	19961.72
460.85	19214.21
461.055	18982.79
461.261	18806.67
461.466	17479.58
461.672	16635.82
461.878	18169.75
462.083	16850.86
462.289	16445.36
462.494	16318.39
462.7	15355.84
462.905	15099.84
463.111	15603.64
463.316	16037.81
463.522	15472.57
463.727	15687.61
463.932	15452.09
464.138	15196.1
464.343	15310.79
464.549	14862.28
464.754	15529.92
464.959	15017.93
465.165	15220.67
465.37	14561.23
465.575	14086.1
465.781	14483.41
465.986	14704.59
466.191	14303.18
466.397	14039
466.602	13051.88
466.807	13899.73
467.012	13727.71
467.218	13686.75
467.423	13465.57
467.628	13426.65
467.833	14239.7
468.038	13406.17
468.244	13090.79
468.449	13735.9
468.654	13025.25
468.859	12892.13
469.064	12988.39
469.269	12586.99
469.474	12683.24
469.679	12738.54
469.885	12529.64
470.09	12718.06
470.295	12558.32
470.5	12183.54
470.705	12425.2
470.91	12115.95
471.115	11931.64
471.32	12111.86
471.525	12244.98
471.73	11878.39
471.935	11726.84
472.139	11155.46
472.344	11350.01
472.549	11290.62
472.754	11139.07
472.959	11073.54
473.164	10782.73
473.369	10541.07
473.574	10983.43
473.778	10975.24
473.983	10756.1
474.188	10833.93
474.393	10280.97
474.598	10410
474.802	10172.43
475.007	10092.56
475.212	10422.28
475.417	9760.79
475.621	9668.63
475.826	9730.07
476.031	9553.94
476.235	9480.22
476.44	9549.85
476.645	9248.8
476.849	9478.17
477.054	9144.35
477.259	8874.02
477.463	9213.98
477.668	8937.51
477.872	9082.91
478.077	8910.88
478.282	8667.17
478.486	8419.37
478.691	8558.63
478.895	8480.81
479.1	8542.25
479.304	8478.76
479.509	8407.08
479.713	8441.9
479.918	8392.75
480.122	8081.46
480.326	8433.71
480.531	8394.79
480.735	8167.47
480.94	8085.55
481.144	8411.18
481.348	8069.17
481.553	8026.16
481.757	7974.96
481.961	7841.84
482.166	8128.56
482.37	8011.82
482.574	7934
482.778	7811.12
482.983	8036.4
483.187	8001.58
483.391	8034.35
483.595	7782.45
483.8	7813.17
484.004	7886.9
484.208	7960.63
484.412	7850.03
484.616	8112.17
484.821	7872.56
485.025	7921.71
485.229	7985.2
485.433	7807.03
485.637	7811.12
485.841	7639.09
486.045	7827.51
486.249	7972.91
486.453	7581.75
486.657	7823.41
486.861	7854.13
487.065	7716.92
487.269	7868.47
487.473	7770.16
487.677	7899.19
487.881	7860.27
488.085	7833.65
488.289	7782.45
488.493	7866.42
488.697	7841.84
488.901	7911.47
489.105	7864.37
489.309	7977.01
489.512	8001.58
489.716	7843.89
489.92	8013.87
490.124	7866.42
490.328	8230.96
490.531	7983.15
490.735	8034.35
490.939	7903.28
491.143	7948.34
491.346	7981.1
491.55	7960.63
491.754	8126.51
491.958	8151.09
492.161	8192.05
492.365	8060.98
492.569	8063.02
492.772	8233.01
492.976	8091.7
493.18	8435.75
493.383	8474.67
493.587	8304.68
493.79	8480.81
493.994	8362.03
494.197	8476.71
494.401	8591.4
494.605	8366.12
494.808	8658.98
495.012	8802.34
495.215	8816.68
495.419	8675.37
495.622	8740.9
495.825	8790.05
496.029	9074.72
496.232	9125.92
496.436	9117.73
496.639	9353.24
496.843	9127.97
497.046	9232.41
497.249	9500.7
497.453	9500.7
497.656	9631.77
497.859	9754.65
498.063	9742.36
498.266	10022.93
498.469	9828.37
498.673	9771.03
498.876	10330.13
499.079	10160.14
499.282	10229.77
499.485	10522.63
499.689	10371.08
499.892	10606.6
500.095	10719.24
500.298	10952.71
500.501	10702.86
500.705	10936.32
500.908	11419.64
501.111	11276.29
501.314	11204.61
501.517	11532.28
501.72	11775.99
501.923	11540.47
502.126	11771.9
502.329	11917.3
502.532	12158.96
502.735	12206.06
502.938	12148.72
503.141	12623.85
503.344	12376.05
503.547	12599.27
503.75	12941.29
503.953	12795.88
504.156	13074.4
504.359	13174.75
504.562	12996.58
504.765	13494.24
504.968	13615.07
505.17	13844.44
505.373	13672.41
505.576	13889.49
505.779	14350.29
505.982	14254.03
506.185	14591.95
506.387	14479.31
506.59	14577.61
506.793	14907.34
506.996	14751.69
507.198	15196.1
507.401	15163.33
507.604	15443.9
507.807	15525.82
508.009	15646.65
508.212	15691.71
508.415	15810.49
508.617	15941.56
508.82	16297.91
509.022	16373.68
509.225	16514.99
509.428	16805.8
509.63	16709.55
509.833	16953.26
510.035	17450.91
510.238	17325.99
510.44	17502.11
510.643	17762.2
510.845	17897.37
511.048	18028.44
511.25	18093.97
511.453	18306.96
511.655	18853.77
511.858	18542.48
512.06	18677.65
512.262	19101.58
512.465	19023.75
512.667	19056.52
512.87	19406.72
513.072	19480.45
513.274	19783.55
513.477	20064.12
513.679	20133.75
513.881	20420.47
514.084	20885.36
514.286	20758.38
514.488	20838.25
514.69	21249.89
514.893	21460.84
515.095	21337.96
515.297	21841.76
515.499	21661.54
515.701	21905.24
515.904	22191.96
516.106	22222.68
516.308	22814.54
516.51	22777.68
516.712	22617.94
516.914	22802.25
517.116	23316.29
517.318	23254.86
517.52	23478.08
517.722	23871.29
517.925	23990.08
518.127	24205.11
518.329	24213.31
518.531	24606.52
518.733	24708.91
518.935	24915.76
519.136	25052.97
519.338	25081.64
519.54	25380.65
519.742	25435.94
519.944	25524.01
520.146	25433.89
520.348	25966.37
520.55	26083.1
520.752	26056.48
520.954	26437.4
521.155	26208.03
521.357	26826.51
521.559	26793.75
521.761	27526.92
521.963	27225.87
522.164	27150.09
522.366	27434.76
522.568	27524.87
522.77	27623.17
522.971	27842.31
523.173	27666.18
523.375	27983.62
523.576	28243.71
523.778	28004.1
523.98	28290.81
524.181	28667.64
524.383	28557.05
524.584	28712.69
524.786	28911.35
524.988	28610.29
525.189	28976.88
525.391	29030.13
525.592	29191.92
525.794	29234.92
525.995	29196.01
526.197	28806.9
526.398	29153.01
526.6	29331.18
526.801	29495.02
527.003	29486.82
527.204	29808.36
527.406	29593.32
527.607	29535.98
527.808	29535.98
528.01	29161.2
528.211	29820.64
528.412	30119.65
528.614	29824.74
528.815	29871.84
529.016	30308.06
529.218	29773.54
529.419	29765.35
529.62	29437.67
529.822	29617.89
530.023	29824.74
530.224	29665
530.425	29669.09
530.626	29560.55
530.828	29306.6
531.029	30193.37
531.23	29572.84
531.431	29587.18
531.632	29951.71
531.833	29705.96
532.035	29538.02
532.236	29751.01
532.437	29771.49
532.638	29212.4
532.839	29597.42
533.04	29767.4
533.241	29331.18
533.442	29703.91
533.643	29429.48
533.844	29603.56
534.045	29873.89
534.246	29148.91
534.447	29468.39
534.648	29361.9
534.849	29345.51
535.05	29050.61
535.251	29282.03
535.451	29355.75
535.652	29210.35
535.853	29011.7
536.054	29101.81
536.255	29032.18
536.456	29415.15
536.657	29503.21
536.857	29134.57
537.058	28884.72
537.259	29376.23
537.46	29247.21
537.66	28843.76
537.861	29265.64
538.062	28624.63
538.263	28878.58
538.463	28751.6
538.664	28878.58
538.865	28897.01
539.065	28675.83
539.266	28698.36
539.466	29062.9
539.667	28563.19
539.868	28929.78
540.068	28237.56
540.269	28602.1
540.469	28782.32
540.67	28684.02
540.87	28628.73
541.071	28385.02
541.271	29042.42
541.472	28667.64
541.672	28628.73
541.873	28446.46
542.073	28110.59
542.274	28575.48
542.474	28292.86
542.675	28155.65
542.875	28301.05
543.075	28262.14
543.276	28014.34
543.476	28473.08
543.676	28108.54
543.877	28161.79
544.077	28286.72
544.277	28288.76
544.478	28477.18
544.678	28188.41
544.878	28555
545.078	28309.24
545.279	28458.74
545.479	28327.67
545.679	28370.68
545.879	27997.95
546.079	28258.04
546.28	28190.46
546.48	27963.14
546.68	28229.37
546.88	28684.02
547.08	28038.91
547.28	28067.58
547.48	27780.87
547.68	28182.27
547.88	28208.89
548.081	28333.82
548.281	28311.29
548.481	27985.66
548.681	28325.63
548.881	28262.14
549.081	28380.92
549.28	27805.44
549.48	28184.32
549.68	28481.27
549.88	28698.36
550.08	28120.83
550.28	28595.96
550.48	28090.11
550.68	28290.81
550.88	28110.59
551.08	27815.68
551.279	28460.79
551.479	28284.67
551.679	28260.09
551.879	28073.73
552.079	28468.98
552.278	28319.48
552.478	28473.08
552.678	28645.11
552.878	28233.47
553.077	28151.55
553.277	28157.69
553.477	28892.91
553.676	28468.98
553.876	28507.9
554.076	28161.79
554.275	28557.05
554.475	28587.77
554.674	28290.81
554.874	28118.78
555.074	28651.25
555.273	28540.66
555.473	28706.55
555.672	28591.86
555.872	28555
556.071	28557.05
556.271	28589.81
556.47	28415.74
556.67	28094.21
556.869	28886.77
557.068	28583.67
557.268	28559.09
557.467	28487.42
557.667	28790.52
557.866	28540.66
558.065	28520.18
558.265	28450.55
558.464	28671.73
558.663	28675.83
558.863	28090.11
559.062	29077.23
559.261	28194.56
559.461	29007.6
559.66	28299
559.859	28659.45
560.058	28315.39
560.258	28628.73
560.457	28511.99
560.656	28477.18
560.855	28473.08
561.054	28534.52
561.253	28376.83
561.453	28638.97
561.652	28612.34
561.851	28462.84
562.05	28624.63
562.249	28348.15
562.448	28524.28
562.647	28442.36
562.846	28184.32
563.045	28534.52
563.244	28212.99
563.443	28585.72
563.642	28280.57
563.841	28135.17
564.04	28417.79
564.239	28563.19
564.438	28129.02
564.637	28237.56
564.836	28284.67
565.035	27887.36
565.234	28049.15
565.432	28159.74
565.631	28012.29
565.83	28126.97
566.029	27981.57
566.228	27703.04
566.427	27909.89
566.625	27662.08
566.824	27545.35
567.023	28047.1
567.222	27465.48
567.42	27709.19
567.619	27715.33
567.818	27746.05
568.016	27997.95
568.215	27717.38
568.414	27705.09
568.612	27770.63
568.811	27367.18
569.01	27600.65
569.208	27174.67
569.407	27635.46
569.605	26883.86
569.804	27287.31
570.002	26965.78
570.201	27557.64
570.4	27207.44
570.598	27137.8
570.797	26978.06
570.995	27203.34
571.193	26703.64
571.392	27150.09
571.59	26601.24
571.789	26658.58
571.987	26832.66
572.186	26384.15
572.384	26541.85
572.582	26527.51
572.781	26756.88
572.979	26421.02
573.177	26132.25
573.376	26117.92
573.574	25872.16
573.772	26136.35
573.971	25710.37
574.169	25958.17
574.367	25904.93
574.565	25708.32
574.763	25845.54
574.962	25818.91
575.16	25526.05
575.358	25884.45
575.556	25046.83
575.754	25638.69
575.952	24956.72
576.151	25607.97
576.349	25366.31
576.547	25366.31
576.745	25263.91
576.943	25067.31
577.141	25251.63
577.339	25020.2
577.537	25007.92
577.735	24768.3
577.933	24577.84
578.131	24733.49
578.329	24450.87
578.527	24481.59
578.725	24409.91
578.923	24766.26
579.121	24143.67
579.319	24348.47
579.516	24198.97
579.714	24409.91
579.912	24133.43
580.11	24069.95
580.308	23945.02
580.506	23887.68
580.704	23484.23
580.901	23992.12
581.099	23926.59
581.297	23842.62
581.495	23539.52
581.692	23658.31
581.89	23226.18
582.088	23725.89
582.285	23291.72
582.483	23600.96
582.681	23490.37
582.878	23340.87
583.076	23140.17
583.274	23560
583.471	22931.28
583.669	23148.36
583.866	22742.86
584.064	23181.13
584.262	22675.28
584.459	22837.07
584.657	22329.17
584.854	22751.06
585.052	22347.61
585.249	22632.27
585.447	22558.55
585.644	22468.44
585.841	22447.96
586.039	22597.46
586.236	22249.3
586.434	22298.45
586.631	22179.67
586.828	22355.8
587.026	22282.07
587.223	21895
587.42	21911.39
587.618	22069.08
587.815	21649.25
588.012	21854.05
588.21	21788.51
588.407	21759.84
588.604	21786.46
588.801	21632.86
588.999	21942.11
589.196	21575.52
589.393	21890.91
589.59	21495.65
589.787	21407.59
589.984	21030.76
590.182	21155.69
590.379	21499.75
590.576	21317.48
590.773	21286.76
590.97	21305.19
591.167	21180.26
591.364	20813.68
591.561	21235.56
591.758	20991.85
591.955	21174.12
592.152	21231.46
592.349	20944.75
592.546	21036.91
592.743	20911.98
592.94	20602.74
593.137	20795.25
593.334	21100.39
593.531	20492.15
593.727	20649.84
593.924	20731.76
594.121	20508.53
594.318	20852.59
594.515	20242.29
594.712	20750.19
594.908	20600.69
595.105	20778.86
595.302	20205.43
595.499	20414.32
595.696	20911.98
595.892	20207.48
596.089	20504.43
596.286	20356.98
596.482	20399.99
596.679	20615.02
596.876	20301.68
597.072	20402.04
597.269	20359.03
597.466	20201.33
597.662	20266.87
597.859	20092.79
598.055	20340.6
598.252	19990.39
598.448	20219.77
598.645	20037.5
598.841	19982.2
599.038	20242.29
599.234	19990.39
599.431	19986.3
599.627	19986.3
599.824	20318.07
600.02	19894.14
600.217	19826.56
600.413	20088.7
600.609	19916.67
600.806	19906.43
601.002	20189.05
601.198	19982.2
601.395	19969.91
601.591	19976.06
601.787	20189.05
601.984	19863.42
602.18	20240.25
602.376	19943.29
602.572	19912.57
602.769	20025.21
602.965	19806.08
603.161	19849.08
603.357	20076.41
603.553	19922.81
603.75	19998.59
603.946	20199.29
604.142	19894.14
604.338	19668.86
604.534	20055.93
604.73	19810.17
604.926	20117.37
605.122	19967.87
605.318	19943.29
605.514	19902.33
605.71	19912.57
605.906	20207.48
606.102	20109.18
606.298	20137.85
606.494	20006.78
606.69	20078.46
606.886	19898.24
607.082	19773.31
607.278	20127.61
607.474	19857.28
607.67	20381.56
607.866	19980.15
608.062	20424.56
608.257	20025.21
608.453	20105.08
608.649	20094.84
608.845	20014.97
609.041	20006.78
609.236	19836.8
609.432	20309.88
609.628	20350.84
609.824	20500.34
610.019	20078.46
610.215	19996.54
610.411	20316.02
610.606	20125.56
610.802	20473.71
610.998	20404.08
611.193	20414.32
611.389	20268.92
611.584	20121.46
611.78	20139.9
611.976	20201.33
612.171	20217.72
612.367	20365.17
612.562	20160.38
612.758	20356.98
612.953	20227.96
613.149	20584.3
613.344	20217.72
613.539	20719.47
613.735	20662.13
613.93	20623.22
614.126	20199.29
614.321	20590.45
614.517	20416.37
614.712	20537.2
614.907	20365.17
615.103	20561.78
615.298	20299.64
615.493	20608.88
615.688	20311.92
615.884	20709.23
616.079	20170.61
616.274	20494.19
616.47	20479.86
616.665	20324.21
616.86	20463.47
617.055	20240.25
617.25	20129.66
617.445	20627.31
617.641	20033.4
617.836	20504.43
618.031	20039.54
618.226	20078.46
618.421	20219.77
618.616	20490.1
618.811	20062.07
619.006	20232.05
619.201	19902.33
619.396	20133.75
619.591	19531.65
619.786	20053.88
619.981	19599.23
620.176	19947.39
620.371	19466.11
620.566	19619.71
620.761	19500.93
620.956	19402.63
621.151	19314.56
621.346	19486.59
621.541	19265.41
621.735	19564.42
621.93	19095.43
622.125	18988.94
622.32	18814.86
622.515	18962.31
622.709	18773.9
622.904	18780.04
623.099	18888.59
623.294	19003.27
623.488	18392.98
623.683	18831.24
623.878	18266
624.072	18460.56
624.267	18329.49
624.462	18196.37
624.656	17901.47
624.851	17915.8
625.046	17850.27
625.24	17811.35
625.435	17659.81
625.629	17842.07
625.824	17600.41
626.018	17350.56
626.213	17524.64
626.407	17504.16
626.602	17188.77
626.796	16981.93
626.991	17168.29
627.185	16742.32
627.38	17031.08
627.574	16768.94
627.768	16631.72
627.963	16684.97
628.157	16469.94
628.352	16496.56
628.546	16113.59
628.74	16676.78
628.935	16310.19
629.129	16351.15
629.323	16003
629.517	16142.26
629.712	15771.58
629.906	15861.69
630.1	15638.46
630.294	15970.23
630.489	15466.43
630.683	15808.44
630.877	15300.55
631.071	15480.77
631.265	15710.14
631.459	15407.04
631.653	15177.67
631.848	15546.3
632.042	15181.76
632.236	15175.62
632.43	15011.78
632.624	14862.28
632.818	14893
633.012	14768.07
633.206	14563.28
633.4	14583.76
633.594	14534.6
633.788	14419.92
633.982	14297.04
634.176	14188.5
634.369	14284.75
634.563	14272.46
634.757	14116.82
634.951	14184.4
635.145	14137.3
635.339	14008.28
635.533	13836.25
635.726	13866.97
635.92	13647.83
636.114	13959.13
636.308	13600.73
636.501	13551.58
636.695	13645.79
636.889	13457.37
637.083	13285.34
637.276	13133.79
637.47	13096.93
637.664	12986.34
637.857	12949.48
638.051	12797.93
638.244	12869.61
638.438	12820.46
638.632	12765.16
638.825	12611.56
639.019	12629.99
639.212	12486.64
639.406	12457.96
639.599	12187.63
639.793	12390.38
639.986	12253.17
640.18	12179.44
640.373	11974.64
640.567	11663.35
640.76	11929.59
640.954	11878.39
641.147	11649.02
641.34	11593.72
641.534	11696.12
641.727	11677.69
641.92	11732.98
642.114	11364.35
642.307	11409.4
642.5	11341.82
642.694	11233.28
642.887	11241.47
643.08	11198.46
643.273	11044.87
643.467	10979.33
643.66	10924.04
643.853	10971.14
644.046	10649.61
644.239	11077.63
644.432	10692.62
644.626	10596.36
644.819	10565.64
645.012	10549.26
645.205	10612.74
645.398	10457.1
645.591	10377.23
645.784	10491.91
645.977	10262.54
646.17	10078.22
646.363	10000.4
646.556	10031.12
646.749	10035.22
646.942	10170.38
647.135	9814.04
647.328	9799.7
647.521	9619.48
647.714	9590.81
647.907	9814.04
648.099	9482.27
648.292	9609.24
648.485	9594.9
648.678	9302.04
648.871	9347.1
649.064	9398.3
649.256	9279.52
649.449	9400.35
649.642	9134.11
649.835	9037.86
650.027	9097.25
650.22	9013.28
650.413	8951.84
650.605	8923.17
650.798	8843.3
650.991	8706.09
651.183	8759.33
651.376	8699.94
651.568	8640.55
651.761	8542.25
651.954	8558.63
652.146	8525.86
652.339	8634.41
652.531	8570.92
652.724	8439.85
652.916	8316.97
653.109	8421.42
653.301	8060.98
653.494	8443.95
653.686	8110.13
653.879	8108.08
654.071	7989.3
654.263	7952.43
654.456	7905.33
654.648	8220.72
654.84	8198.19
655.033	7731.25
655.225	7837.75
655.417	7608.37
655.61	7837.75
655.802	7718.96
655.994	7563.32
656.186	7661.62
656.379	7569.46
656.571	7608.37
656.763	7526.46
656.955	7469.11
657.148	7561.27
657.34	7372.86
657.532	7286.84
657.724	7311.42
657.916	7401.53
658.108	7018.56
658.3	7219.26
658.492	7356.47
658.684	7075.9
658.876	7096.38
659.068	7106.62
659.26	6979.65
659.452	6971.46
659.644	6817.86
659.836	6760.52
660.028	6850.63
660.22	6668.36
660.412	6768.71
660.604	6578.25
660.796	6744.13
660.988	6703.17
661.18	6469.7
661.372	6570.05
661.563	6563.91
661.755	6355.02
661.947	6514.76
662.139	6273.1
662.331	6404.17
662.522	6289.48
662.714	6350.92
662.906	6379.59
663.097	6232.14
663.289	6180.94
663.481	6084.69
663.673	6080.59
663.864	6201.42
664.056	6058.06
664.247	5894.22
664.439	5894.22
664.631	5935.18
664.822	6070.35
665.014	5945.42
665.205	5965.9
665.397	5814.35
665.588	5947.47
665.78	5677.14
665.971	5769.3
666.163	5757.01
666.354	5675.09
666.546	5574.74
666.737	5494.87
666.929	5615.7
667.12	5748.82
667.311	5554.26
667.503	5304.41
667.694	5537.88
667.885	5455.96
668.077	5431.38
668.268	5453.91
668.459	5408.86
668.651	5519.45
668.842	5347.42
669.033	5128.28
669.224	5259.35
669.416	5247.07
669.607	5193.82
669.798	5134.43
669.989	5085.28
670.18	5009.5
670.371	5167.2
670.563	5093.47
670.754	5089.37
670.945	5068.89
671.136	5085.28
671.327	4995.17
671.518	5062.75
671.709	5021.79
671.9	5095.52
672.091	4986.97
672.282	4800.61
672.473	4782.18
672.664	4939.87
672.855	4800.61
673.046	4860
673.237	4876.38
673.428	4866.14
673.619	4776.03
673.809	4724.83
674	4706.4
674.191	4653.16
674.382	4743.27
674.573	4681.83
674.764	4675.68
674.954	4610.15
675.145	4491.37
675.336	4526.18
675.527	4702.31
675.717	4655.2
675.908	4556.9
676.099	4526.18
676.289	4708.45
676.48	4348.01
676.671	4522.09
676.861	4532.33
677.052	4491.37
677.243	4407.4
677.433	4528.23
677.624	4522.09
677.814	4440.17
678.005	4499.56
678.195	4454.5
678.386	4249.71
678.576	4235.37
678.767	4290.67
678.957	4300.91
679.148	4276.33
679.338	4364.39
679.529	4366.44
679.719	4391.02
679.909	4399.21
680.1	4288.62
680.29	4249.71
680.481	4089.96
680.671	4237.42
680.861	4192.36
681.052	4274.28
681.242	4327.53
681.432	4364.39
681.622	4147.31
681.813	4194.41
682.003	4212.84
682.193	4063.34
682.383	4151.4
682.573	4132.97
682.764	4053.1
682.954	4341.86
683.144	4243.56
683.334	4073.58
683.524	4120.68
683.714	4098.16
683.904	3991.66
684.094	4300.91
684.284	4020.33
684.474	4055.15
684.664	4077.68
684.854	4069.48
685.044	3995.76
685.234	3938.41
685.424	4071.53
685.614	3829.87
685.804	4081.77
685.994	3965.04
686.184	3889.26
686.374	3924.08
686.564	3823.73
686.753	3930.22
686.943	3725.43
687.133	3905.65
687.323	3827.82
687.513	3922.03
687.702	3842.16
687.892	3905.65
688.082	3764.34
688.272	3774.58
688.461	3840.11
688.651	3782.77
688.841	3848.3
689.03	3760.24
689.22	3704.95
689.41	3758.19
689.599	3801.2
689.789	3766.39
689.979	3678.32
690.168	3580.02
690.358	3833.97
690.547	3745.91
690.737	3645.56
690.926	3577.97
691.116	3688.56
691.305	3569.78
691.495	3764.34
691.684	3606.64
691.874	3547.25
692.063	3332.22
692.252	3555.44
692.442	3522.68
692.631	3577.97
692.82	3483.77
693.01	3553.4
693.199	3416.18
693.388	3399.8
693.578	3487.86
693.767	3520.63
693.956	3532.92
694.146	3479.67
694.335	3463.29
694.524	3487.86
694.713	3575.92
694.902	3373.18
695.092	3373.18
695.281	3385.46
695.47	3326.07
695.659	3387.51
695.848	3272.82
696.037	3278.97
696.226	3342.46
696.415	3389.56
696.604	3311.74
696.793	3330.17
696.982	3311.74
697.171	3252.35
697.36	3229.82
697.549	3340.41
697.738	3176.57
697.927	3287.16
698.116	3170.43
698.305	3356.79
698.494	3268.73
698.683	3119.23
698.872	3303.54
699.061	3176.57
699.25	3166.33
699.438	3131.51
699.627	3082.36
699.816	3168.38
700.005	3094.65
700.193	3154.04
700.382	3082.36
700.571	3078.27
700.76	3143.8
700.948	3121.28
701.137	3115.13
701.326	3127.42
701.514	3082.36
701.703	3086.46
701.892	3063.93
702.08	3037.31
702.269	3031.16
702.457	3000.44
702.646	3033.21
702.834	2971.77
703.023	3053.69
703.212	3119.23
703.4	2969.73
703.589	2947.2
703.777	2939.01
703.965	2840.7
704.154	2873.47
704.342	2775.17
704.531	2838.66
704.719	2939.01
704.907	2979.97
705.096	2799.74
705.284	2818.18
705.472	2836.61
705.661	2955.39
705.849	2920.57
706.037	2926.72
706.226	2664.58
706.414	2846.85
706.602	2742.4
706.79	2900.09
706.979	2879.61
707.167	2687.11
707.355	2814.08
707.543	2840.7
707.731	2795.65
707.919	2750.59
708.107	2728.07
708.296	2717.83
708.484	2652.29
708.672	2644.1
708.86	2805.89
709.048	2674.82
709.236	2670.72
709.424	2676.87
709.612	2613.38
709.8	2668.67
709.988	2699.39
710.176	2654.34
710.364	2676.87
710.551	2551.94
710.739	2652.29
710.927	2619.52
711.115	2558.08
711.303	2582.66
711.491	2578.56
711.679	2529.41
711.866	2531.46
712.054	2527.36
712.242	2490.5
712.43	2502.79
712.617	2572.42
712.805	2519.17
712.993	2431.11
713.181	2427.01
713.368	2465.93
713.556	2492.55
713.744	2414.73
713.931	2521.22
714.119	2474.12
714.306	2492.55
714.494	2431.11
714.682	2427.01
714.869	2381.96
715.057	2422.92
715.244	2324.62
715.432	2322.57
715.619	2373.77
715.807	2365.57
715.994	2316.42
716.182	2351.24
716.369	2390.15
716.556	2308.23
716.744	2181.26
716.931	2254.98
717.119	2291.85
717.306	2328.71
717.493	2316.42
717.681	2211.98
717.868	2267.27
718.055	2240.65
718.242	2259.08
718.43	2222.22
718.617	2338.95
718.804	2160.78
718.991	2238.6
719.179	2144.39
719.366	2216.07
719.553	2265.22
719.74	2148.49
719.927	2158.73
720.114	2209.93
720.301	2070.67
720.488	2185.35
720.676	2058.38
720.863	2105.48
721.05	2183.31
721.237	2144.39
721.424	2218.12
721.611	2072.72
721.798	2054.28
721.985	2023.56
722.172	2037.9
722.358	2119.82
722.545	2216.07
722.732	2056.33
722.919	2072.72
723.106	1998.99
723.293	2029.71
723.48	2046.09
723.667	2001.04
723.853	1884.3
724.04	2037.9
724.227	1984.65
724.414	1998.99
724.6	2013.32
724.787	2048.14
724.974	1990.8
725.161	1947.79
725.347	1927.31
725.534	2025.61
725.72	2005.13
725.907	1898.64
726.094	1939.6
726.28	1884.3
726.467	1892.49
726.653	1851.53
726.84	1927.31
727.027	1974.41
727.213	1882.25
727.4	1859.73
727.586	1845.39
727.773	1892.49
727.959	1898.64
728.145	1853.58
728.332	1798.29
728.518	1816.72
728.705	1867.92
728.891	1890.45
729.077	1816.72
729.264	1865.87
729.45	1802.38
729.636	1824.91
729.823	1745.04
730.009	1904.78
730.195	1837.2
730.382	1798.29
730.568	1779.86
730.754	1855.63
730.94	1734.8
731.126	1812.62
731.313	1861.77
731.499	1779.86
731.685	1810.58
731.871	1777.81
732.057	1732.75
732.243	1841.29
732.429	1728.66
732.615	1757.33
732.801	1722.51
732.987	1663.12
733.173	1611.92
733.359	1745.04
733.545	1638.55
733.731	1661.07
733.917	1712.27
734.103	1587.35
734.289	1763.47
734.475	1669.27
734.661	1685.65
734.847	1654.93
735.033	1609.87
735.219	1654.93
735.404	1603.73
735.59	1550.48
735.776	1693.84
735.962	1734.8
736.148	1710.22
736.333	1661.07
736.519	1603.73
736.705	1513.62
736.89	1517.72
737.076	1530
737.262	1589.39
737.447	1558.67
737.633	1587.35
737.819	1472.66
738.004	1489.04
738.19	1505.43
738.375	1595.54
738.561	1460.37
738.747	1546.39
738.932	1546.39
739.118	1566.87
739.303	1515.67
739.489	1597.59
739.674	1521.81
739.859	1446.04
740.045	1523.86
740.23	1532.05
740.416	1372.31
740.601	1499.28
740.786	1446.04
740.972	1544.34
741.157	1423.51
741.342	1433.75
741.528	1417.37
741.713	1366.17
741.898	1390.74
742.084	1292.44
742.269	1448.08
742.454	1435.8
742.639	1546.39
742.824	1392.79
743.01	1362.07
743.195	1403.03
743.38	1464.47
743.565	1333.4
743.75	1390.74
743.935	1405.08
744.12	1378.45
744.305	1288.34
744.49	1327.25
744.675	1382.55
744.86	1249.43
745.045	1366.17
745.23	1259.67
745.415	1231
745.6	1368.21
745.785	1333.4
745.97	1300.63
746.155	1308.82
746.34	1292.44
746.525	1317.01
746.71	1198.23
746.895	1149.08
747.079	1247.38
747.264	1161.37
747.449	1306.77
747.634	1247.38
747.819	1159.32
748.003	1177.75
748.188	1161.37
748.373	1204.38
748.557	1147.03
748.742	1161.37
748.927	1239.19
749.111	1202.33
749.296	1104.03
749.481	1134.75
749.665	1104.03
749.85	1124.51
750.034	1032.35
750.219	1138.84
750.404	1042.59
750.588	1075.35
750.773	1063.07
750.957	1040.54
751.141	1044.63
751.326	1097.88
751.51	964.76
751.695	972.96
751.879	1042.59
752.064	1095.83
752.248	1116.31
752.432	1130.65
752.617	966.81
752.801	1081.5
752.985	1026.2
753.17	997.53
753.354	987.29
753.538	919.71
753.722	923.8
753.907	858.27
754.091	970.91
754.275	956.57
754.459	944.28
754.643	932
754.828	874.65
755.012	817.31
755.196	856.22
755.38	899.23
755.564	833.69
755.748	895.13
755.932	850.08
756.116	891.04
756.3	938.14
756.484	864.41
756.668	907.42
756.852	798.88
757.036	821.41
757.22	831.65
757.404	829.6
757.588	802.97
757.772	786.59
757.956	891.04
758.14	817.31
758.323	850.08
758.507	860.32
758.691	755.87
758.875	770.21
759.059	852.13
759.242	874.65
759.426	727.2
759.61	784.54
759.794	727.2
759.977	817.31
760.161	901.28
760.345	811.17
760.528	821.41
760.712	751.78
760.895	766.11
761.079	714.91
761.263	688.29
761.446	663.71
761.63	733.34
761.813	743.58
761.997	759.97
762.18	669.86
762.364	630.95
762.547	739.49
762.731	592.03
762.914	710.82
763.098	710.82
763.281	678.05
763.464	645.28
763.648	755.87
763.831	622.75
764.015	729.25
764.198	612.51
764.381	706.72
764.564	706.72
764.748	772.25
764.931	710.82
765.114	655.52
765.297	727.2
765.481	616.61
765.664	698.53
765.847	682.14
766.03	716.96
766.213	530.59
766.397	649.38
766.58	641.18
766.763	637.09
766.946	592.03
767.129	630.95
767.312	630.95
767.495	555.17
767.678	522.4
767.861	630.95
768.044	645.28
768.227	628.9
768.41	608.42
768.593	569.51
768.776	573.6
768.959	606.37
769.142	641.18
769.324	661.66
769.507	602.27
769.69	612.51
769.873	587.94
770.056	635.04
770.239	622.75
770.421	583.84
770.604	581.79
770.787	647.33
770.97	678.05
771.152	510.11
771.335	575.65
771.518	575.65
771.7	542.88
771.883	573.6
772.066	555.17
772.248	620.71
772.431	598.18
772.613	485.54
772.796	680.1
772.978	538.79
773.161	604.32
773.343	491.68
773.526	555.17
773.708	469.16
773.891	571.55
774.073	522.4
774.256	555.17
774.438	630.95
774.621	577.7
774.803	573.6
774.985	491.68
775.168	508.07
775.35	485.54
775.532	530.59
775.715	456.87
775.897	501.92
776.079	510.11
776.261	538.79
776.444	465.06
776.626	434.34
776.808	508.07
776.99	503.97
777.173	440.48
777.355	473.25
777.537	465.06
777.719	469.16
777.901	436.39
778.083	428.2
778.265	475.3
778.447	354.47
778.629	413.86
778.811	456.87
778.993	456.87
779.175	460.96
779.357	491.68
779.539	391.33
779.721	465.06
779.903	471.2
780.085	422.05
780.267	487.59
780.449	467.11
780.631	491.68
780.812	411.81
780.994	383.14
781.176	379.04
781.358	370.85
781.54	348.33
781.721	403.62
781.903	432.29
782.085	354.47
782.267	401.57
782.448	358.57
782.63	270.5
782.812	374.95
782.993	348.33
783.175	370.85
783.357	327.85
783.538	370.85
783.72	385.19
783.901	354.47
784.083	305.32
784.264	393.38
784.446	247.97
784.627	256.17
784.809	301.22
784.99	311.46
785.172	290.98
785.353	377
785.535	352.42
785.716	342.18
785.897	284.84
786.079	286.89
786.26	317.61
786.441	372.9
786.623	313.51
786.804	293.03
786.985	268.45
787.167	354.47
787.348	336.04
787.529	243.88
787.71	327.85
787.891	342.18
788.073	272.55
788.254	241.83
788.435	247.97
788.616	354.47
788.797	245.93
788.978	288.93
789.159	270.5
789.34	270.5
789.522	293.03
789.703	190.63
789.884	303.27
790.065	354.47
790.246	313.51
790.427	276.65
790.607	196.78
790.788	260.26
790.969	254.12
791.15	268.45
791.331	223.4
791.512	262.31
791.693	157.86
791.874	243.88
792.054	288.93
792.235	268.45
792.416	188.58
792.597	231.59
792.778	243.88
792.958	221.35
793.139	260.26
793.32	252.07
793.5	170.15
793.681	256.17
793.862	202.92
794.042	245.93
794.223	180.39
794.404	221.35
794.584	221.35
794.765	215.21
794.945	307.37
795.126	219.3
795.306	260.26
795.487	170.15
795.667	182.44
795.848	313.51
796.028	262.31
796.209	223.4
796.389	235.69
796.57	229.54
796.75	170.15
796.93	211.11
797.111	213.16
797.291	268.45
797.471	241.83
797.652	190.63
797.832	161.96
798.012	192.68
798.192	161.96
798.373	260.26
798.553	202.92
798.733	245.93
798.913	170.15
799.093	194.73
799.274	104.62
799.454	235.69
799.634	186.54
799.814	196.78
799.994	229.54
800.174	211.11
800.354	157.86
800.534	204.97
800.714	207.02
800.894	149.67
801.074	121
801.254	139.43
801.434	182.44
801.614	123.05
801.794	198.82
801.974	862.37
802.154	108.71
802.334	182.44
802.514	86.19
802.693	137.38
802.873	133.29
803.053	204.97
803.233	149.67
803.413	172.2
803.592	108.71
803.772	153.77
803.952	100.52
804.131	94.38
804.311	157.86
804.491	194.73
804.67	129.19
804.85	186.54
805.03	155.82
805.209	231.59
805.389	172.2
805.568	125.1
805.748	145.58
805.928	157.86
806.107	100.52
806.287	170.15
806.466	164.01
806.646	153.77
806.825	178.34
807.004	73.9
807.184	82.09
807.363	186.54
807.543	125.1
807.722	114.86
807.901	192.68
808.081	213.16
808.26	63.66
808.439	155.82
808.619	63.66
808.798	104.62
808.977	194.73
809.156	176.3
809.336	137.38
809.515	55.47
809.694	98.47
809.873	108.71
810.052	168.1
810.231	153.77
810.411	77.99
810.59	174.25
810.769	88.23
810.948	96.43
811.127	86.19
811.306	114.86
811.485	92.33
811.664	188.58
811.843	90.28
812.022	141.48
812.201	59.56
812.38	129.19
812.559	123.05
812.737	137.38
812.916	47.27
813.095	63.66
813.274	80.04
813.453	121
813.632	145.58
813.811	170.15
813.989	6.31
814.168	121
814.347	90.28
814.526	114.86
814.704	168.1
814.883	96.43
815.062	22.7
815.24	166.06
815.419	96.43
815.598	80.04
815.776	63.66
815.955	147.62
816.133	84.14
816.312	57.51
816.49	61.61
816.669	65.71
816.847	53.42
817.026	88.23
817.204	96.43
817.383	131.24
817.561	96.43
817.74	30.89
817.918	182.44
818.097	80.04
818.275	71.85
818.453	75.95
818.632	77.99
818.81	75.95
818.988	80.04
819.167	106.67
819.345	77.99
819.523	67.75
819.701	104.62
819.879	121
820.058	63.66
820.236	63.66
820.414	6.31
820.592	73.9
820.77	84.14
820.948	121
821.127	55.47
821.305	65.71
821.483	49.32
821.661	106.67
821.839	32.94
822.017	82.09
822.195	96.43
822.373	125.1
822.551	75.95
822.729	73.9
822.907	75.95
823.085	67.75
823.262	121
823.44	123.05
823.618	41.13
823.796	153.77
823.974	63.66
824.152	94.38
824.329	47.27
824.507	30.89
824.685	96.43
824.863	51.37
825.04	110.76
825.218	61.61
825.396	-1.88
825.574	73.9
825.751	88.23
825.929	80.04
826.107	10.41
826.284	121
826.462	141.48
826.639	63.66
826.817	39.08
826.994	65.71
827.172	123.05
827.349	161.96
827.527	-18.26
827.704	-14.17
827.882	41.13
828.059	82.09
828.237	-10.07
828.414	84.14
828.591	67.75
828.769	71.85
828.946	18.6
829.124	59.56
829.301	-14.17
829.478	-24.4
829.655	170.15
829.833	57.51
830.01	-42.84
830.187	39.08
830.364	-46.93
830.542	73.9
830.719	147.62
830.896	174.25
831.073	80.04
831.25	30.89
831.427	69.8
831.604	39.08
831.782	-20.31
831.959	63.66
832.136	69.8
832.313	41.13
832.49	57.51
832.667	32.94
832.844	53.42
833.021	55.47
833.198	92.33
833.374	82.09
833.551	92.33
833.728	63.66
833.905	-5.97
834.082	-40.79
834.259	108.71
834.436	-26.45
834.612	39.08
834.789	26.79
834.966	65.71
835.143	98.47
835.319	2.22
835.496	63.66
835.673	14.51
835.85	108.71
836.026	80.04
836.203	20.65
836.38	63.66
836.556	12.46
836.733	-26.45
836.909	121
837.086	45.23
837.262	-5.97
837.439	6.31
837.616	39.08
837.792	6.31
837.968	71.85
838.145	63.66
838.321	63.66
838.498	6.31
838.674	90.28
838.851	149.67
839.027	30.89
839.203	30.89
839.38	71.85
839.556	30.89
839.732	10.41
839.909	55.47
840.085	39.08
840.261	22.7
840.437	67.75
840.614	26.79
840.79	98.47
840.966	34.99
841.142	80.04
841.318	96.43
841.494	41.13
841.671	47.27
841.847	26.79
842.023	32.94
842.199	45.23
842.375	90.28
842.551	-67.41
842.727	49.32
842.903	80.04
843.079	-42.84
843.255	14.51
843.431	-12.12
843.607	75.95
843.783	2.22
843.959	30.89
844.134	-14.17
844.31	82.09
844.486	-40.79
844.662	14.51
844.838	-57.17
845.013	24.75
845.189	30.89
845.365	22.7
845.541	26.79
845.716	49.32
845.892	45.23
846.068	22.7
846.244	-34.64
846.419	-10.07
846.595	57.51
846.77	6.31
846.946	96.43
847.122	0.17
847.297	-69.46
847.473	67.75
847.648	20.65
847.824	84.14
847.999	2.22
848.175	6.31
848.35	20.65
848.526	88.23
848.701	-3.93
848.876	41.13
849.052	82.09
849.227	67.75
849.403	-10.07
849.578	37.03
849.753	28.84
849.929	28.84
850.104	51.37
850.279	41.13
850.454	49.32
850.63	69.8
850.805	71.85
850.98	30.89
851.155	-8.02
851.33	-8.02
851.505	-48.98
851.681	28.84
851.856	47.27
852.031	39.08
852.206	-79.7
852.381	-44.88
852.556	-24.4
852.731	47.27
852.906	-51.03
853.081	-20.31
853.256	26.79
853.431	24.75
853.606	2.22
853.781	-14.17
853.956	-81.75
854.131	14.51
854.305	-18.26
854.48	63.66
854.655	-12.12
854.83	30.89
855.005	2.22
855.18	69.8
855.354	0.17
855.529	47.27
855.704	41.13
855.879	43.18
856.053	24.75
856.228	0.17
856.403	-22.36
856.577	-5.97
856.752	-16.21
856.926	65.71
857.101	57.51
857.276	14.51
857.45	-26.45
857.625	82.09
857.799	16.55
857.974	71.85
858.148	49.32
858.323	18.6
858.497	24.75
858.672	-48.98
858.846	18.6
859.02	14.51
859.195	-40.79
859.369	-34.64
859.543	59.56
859.718	88.23
859.892	80.04
860.066	73.9
860.241	-5.97
860.415	-42.84
860.589	6.31
860.763	55.47
860.938	-12.12
861.112	0.17
861.286	-38.74
861.46	-12.12
861.634	-26.45
861.808	0.17
861.982	16.55
862.157	-10.07
862.331	-59.22
862.505	6.31
862.679	6.31
862.853	-30.55
863.027	-36.69
863.201	65.71
863.375	14.51
863.549	73.9
863.722	-42.84
863.896	98.47
864.07	22.7
864.244	-3.93
864.418	80.04
864.592	-8.02
864.766	2.22
864.939	-42.84
865.113	32.94
865.287	59.56
865.461	24.75
865.634	22.7
865.808	-5.97
865.982	14.51
866.156	14.51
866.329	-12.12
866.503	22.7
866.676	16.55
866.85	-40.79
867.024	-1.88
867.197	41.13
867.371	2.22
867.544	26.79
867.718	-18.26
867.891	41.13
868.065	-65.36
868.238	10.41
868.412	39.08
868.585	39.08
868.759	6.31
868.932	2.22
869.105	-24.4
869.279	24.75
869.452	24.75
869.625	22.7
869.799	55.47
869.972	-5.97
870.145	8.36
870.319	41.13
870.492	14.51
870.665	10.41
870.838	-57.17
871.011	-18.26
871.185	34.99
871.358	-71.51
871.531	61.61
871.704	-120.66
871.877	16.55
872.05	14.51
872.223	-75.6
872.396	6.31
872.569	8.36
872.742	30.89
872.915	16.55
873.088	-40.79
873.261	71.85
873.434	-10.07
873.607	14.51
873.78	-32.6
873.953	-59.22
874.126	16.55
874.299	-8.02
874.471	-8.02
874.644	24.75
874.817	-57.17
874.99	80.04
875.163	22.7
875.335	26.79
875.508	-59.22
875.681	0.17
875.853	-18.26
876.026	-1.88
876.199	-26.45
876.371	51.37
876.544	-26.45
876.717	39.08
876.889	-3.93
877.062	0.17
877.234	-55.12
877.407	-32.6
877.579	12.46
877.752	-48.98
877.924	-28.5
878.097	-10.07
878.269	20.65
878.442	-1.88
878.614	0.17
878.786	14.51
878.959	-32.6
879.131	-28.5
879.303	-38.74
879.476	-20.31
879.648	16.55
879.82	-16.21
879.993	-1.88
880.165	8.36
880.337	-42.84
880.509	53.42
880.681	-18.26
880.854	-63.32
881.026	22.7
881.198	80.04
881.37	-38.74
881.542	47.27
881.714	-30.55
881.886	-18.26
882.058	49.32
882.23	41.13
882.402	-3.93
882.574	34.99
882.746	53.42
882.918	84.14
883.09	8.36
883.262	-38.74
883.434	-1.88
883.606	-10.07
883.778	-5.97
883.95	84.14
884.122	-51.03
884.293	49.32
884.465	16.55
884.637	71.85
884.809	49.32
884.98	-18.26
885.152	47.27
885.324	-26.45
885.496	-24.4
885.667	4.27
885.839	-75.6
886.011	-30.55
886.182	-24.4
886.354	-14.17
886.525	67.75
886.697	63.66
886.869	14.51
887.04	-5.97
887.212	-38.74
887.383	30.89
887.555	-57.17
887.726	-8.02
887.897	18.6
888.069	22.7
888.24	51.37
888.412	-46.93
888.583	-100.18
888.754	-10.07
888.926	-12.12
889.097	22.7
889.268	4.27
889.44	18.6
889.611	22.7
889.782	6.31
889.953	-48.98
890.125	-57.17
890.296	-83.8
890.467	18.6
890.638	14.51
890.809	34.99
890.98	-24.4
891.151	-42.84
891.323	88.23
891.494	8.36
891.665	-51.03
891.836	-67.41
892.007	-5.97
892.178	-51.03
892.349	-30.55
892.52	16.55
892.691	-34.64
892.862	-22.36
893.032	-61.27
893.203	-30.55
893.374	22.7
893.545	-34.64
893.716	43.18
893.887	55.47
894.057	2.22
894.228	0.17
894.399	-34.64
894.57	55.47
894.74	71.85
894.911	43.18
895.082	14.51
895.253	-100.18
895.423	10.41
895.594	26.79
895.764	-18.26
895.935	-46.93
896.106	-40.79
896.276	-5.97
896.447	-40.79
896.617	16.55
896.788	-75.6
896.958	57.51
897.129	-112.47
897.299	30.89
897.47	39.08
897.64	-1.88
897.81	-30.55
897.981	-5.97
898.151	-34.64
898.322	-16.21
898.492	24.75
898.662	32.94
898.832	43.18
899.003	-48.98
899.173	14.51
899.343	-26.45
899.513	-42.84
