Data from USB4F104151__90__14-30-42-245.txt Node

Date: Thu Mar 13 14:30:42 EDT 2025
User: louis
Spectrometer: USB4F10415
Trigger mode: 4
Integration Time (sec): 2.500000E-2
Scans to average: 1
Electric dark correction enabled: true
Nonlinearity correction enabled: false
Boxcar width: 0
XAxis mode: Wavelengths
Number of Pixels in Spectrum: 3648
>>>>>Begin Spectral Data<<<<<
178.204	-129.02
178.424	-129.02
178.644	-129.02
178.864	-106.49
179.084	-157.69
179.304	53.25
179.524	-12.29
179.744	36.86
179.964	47.1
180.184	-63.49
180.404	6.14
180.624	-75.77
180.844	36.86
181.064	-71.68
181.283	-2.05
181.503	-14.34
181.723	59.39
181.943	-14.34
182.163	69.63
182.383	40.96
182.602	-6.14
182.822	38.91
183.042	36.86
183.262	0
183.482	-12.29
183.701	67.58
183.921	59.39
184.141	-14.34
184.361	102.4
184.58	34.82
184.8	43.01
185.02	34.82
185.239	-6.14
185.459	30.72
185.679	63.49
185.898	-36.86
186.118	118.78
186.338	-51.2
186.557	149.5
186.777	-47.1
186.997	10.24
187.216	40.96
187.436	14.34
187.655	83.97
187.875	86.01
188.095	28.67
188.314	47.1
188.534	90.11
188.753	-18.43
188.973	28.67
189.192	65.54
189.412	53.25
189.631	63.49
189.851	18.43
190.07	77.82
190.29	28.67
190.509	79.87
190.729	-20.48
190.948	53.25
191.168	143.36
191.387	34.82
191.607	-38.91
191.826	-40.96
192.045	59.39
192.265	30.72
192.484	-8.19
192.704	22.53
192.923	-61.44
193.142	98.3
193.362	6.14
193.581	61.44
193.8	86.01
194.02	108.54
194.239	26.62
194.458	-12.29
194.678	81.92
194.897	43.01
195.116	77.82
195.335	4.1
195.555	94.21
195.774	59.39
195.993	2.05
196.212	-28.67
196.432	2.05
196.651	10.24
196.87	-2.05
197.089	94.21
197.308	67.58
197.528	51.2
197.747	30.72
197.966	18.43
198.185	92.16
198.404	36.86
198.623	34.82
198.842	36.86
199.062	61.44
199.281	102.4
199.5	10.24
199.719	83.97
199.938	75.77
200.157	69.63
200.376	61.44
200.595	34.82
200.814	40.96
201.033	18.43
201.252	6.14
201.471	67.58
201.69	55.3
201.909	43.01
202.128	106.49
202.347	-51.2
202.566	59.39
202.785	45.06
203.004	47.1
203.223	92.16
203.442	14.34
203.661	2.05
203.879	53.25
204.098	51.2
204.317	59.39
204.536	59.39
204.755	47.1
204.974	34.82
205.193	-14.34
205.411	83.97
205.63	75.77
205.849	8.19
206.068	2.05
206.287	6.14
206.505	67.58
206.724	59.39
206.943	22.53
207.162	34.82
207.381	-14.34
207.599	100.35
207.818	36.86
208.037	2.05
208.255	-10.24
208.474	24.58
208.693	28.67
208.911	30.72
209.13	45.06
209.349	26.62
209.567	36.86
209.786	73.73
210.005	69.63
210.223	92.16
210.442	38.91
210.661	100.35
210.879	92.16
211.098	34.82
211.316	-8.19
211.535	81.92
211.753	12.29
211.972	43.01
212.191	34.82
212.409	0
212.628	124.93
212.846	-30.72
213.065	20.48
213.283	79.87
213.502	71.68
213.72	51.2
213.938	100.35
214.157	-57.34
214.375	61.44
214.594	59.39
214.812	-4.1
215.031	6.14
215.249	10.24
215.467	-12.29
215.686	30.72
215.904	26.62
216.122	2.05
216.341	61.44
216.559	94.21
216.778	59.39
216.996	28.67
217.214	100.35
217.432	112.64
217.651	10.24
217.869	59.39
218.087	16.38
218.306	45.06
218.524	30.72
218.742	36.86
218.96	98.3
219.179	55.3
219.397	108.54
219.615	63.49
219.833	45.06
220.051	4.1
220.27	69.63
220.488	75.77
220.706	51.2
220.924	18.43
221.142	67.58
221.36	75.77
221.578	129.02
221.796	-6.14
222.015	75.77
222.233	-22.53
222.451	-14.34
222.669	-4.1
222.887	34.82
223.105	-10.24
223.323	51.2
223.541	36.86
223.759	94.21
223.977	-12.29
224.195	102.4
224.413	79.87
224.631	47.1
224.849	53.25
225.067	151.55
225.285	4.1
225.503	-2.05
225.721	-10.24
225.939	-30.72
226.157	47.1
226.375	141.31
226.592	-16.38
226.81	14.34
227.028	73.73
227.246	157.69
227.464	67.58
227.682	126.97
227.9	75.77
228.117	20.48
228.335	61.44
228.553	75.77
228.771	36.86
228.989	65.54
229.206	114.69
229.424	2.05
229.642	-30.72
229.86	67.58
230.077	133.12
230.295	-34.82
230.513	131.07
230.731	124.93
230.948	112.64
231.166	104.45
231.384	98.3
231.601	-22.53
231.819	18.43
232.037	75.77
232.254	-12.29
232.472	61.44
232.689	24.58
232.907	4.1
233.125	-2.05
233.342	43.01
233.56	-26.62
233.777	47.1
233.995	-10.24
234.213	73.73
234.43	61.44
234.648	26.62
234.865	28.67
235.083	59.39
235.3	-14.34
235.518	34.82
235.735	10.24
235.953	59.39
236.17	14.34
236.388	-36.86
236.605	92.16
236.822	67.58
237.04	94.21
237.257	59.39
237.475	-4.1
237.692	55.3
237.909	-4.1
238.127	26.62
238.344	-10.24
238.562	18.43
238.779	-30.72
238.996	6.14
239.214	120.83
239.431	45.06
239.648	26.62
239.865	6.14
240.083	51.2
240.3	69.63
240.517	-14.34
240.735	34.82
240.952	100.35
241.169	43.01
241.386	61.44
241.603	43.01
241.821	18.43
242.038	108.54
242.255	79.87
242.472	-36.86
242.689	86.01
242.907	133.12
243.124	77.82
243.341	12.29
243.558	10.24
243.775	63.49
243.992	12.29
244.209	34.82
244.426	94.21
244.643	53.25
244.86	51.2
245.078	26.62
245.295	96.25
245.512	-26.62
245.729	34.82
245.946	71.68
246.163	16.38
246.38	26.62
246.597	-36.86
246.814	96.25
247.031	-14.34
247.248	69.63
247.464	108.54
247.681	20.48
247.898	2.05
248.115	81.92
248.332	38.91
248.549	71.68
248.766	143.36
248.983	75.77
249.2	86.01
249.417	131.07
249.633	8.19
249.85	90.11
250.067	43.01
250.284	10.24
250.501	167.93
250.717	-6.14
250.934	2.05
251.151	63.49
251.368	-22.53
251.585	-2.05
251.801	63.49
252.018	-55.3
252.235	104.45
252.451	-14.34
252.668	18.43
252.885	63.49
253.102	102.4
253.318	71.68
253.535	-61.44
253.752	116.73
253.968	2.05
254.185	59.39
254.401	-40.96
254.618	-71.68
254.835	6.14
255.051	92.16
255.268	8.19
255.484	116.73
255.701	16.38
255.917	165.89
256.134	22.53
256.351	79.87
256.567	38.91
256.784	59.39
257	30.72
257.217	45.06
257.433	77.82
257.65	38.91
257.866	45.06
258.082	-4.1
258.299	2.05
258.515	67.58
258.732	38.91
258.948	26.62
259.165	2.05
259.381	20.48
259.597	22.53
259.814	71.68
260.03	120.83
260.246	36.86
260.463	77.82
260.679	28.67
260.895	120.83
261.112	63.49
261.328	34.82
261.544	-38.91
261.761	71.68
261.977	61.44
262.193	-69.63
262.409	67.58
262.626	-47.1
262.842	102.4
263.058	57.34
263.274	16.38
263.49	55.3
263.707	55.3
263.923	43.01
264.139	-45.06
264.355	55.3
264.571	157.69
264.787	53.25
265.004	43.01
265.22	53.25
265.436	-6.14
265.652	-30.72
265.868	92.16
266.084	12.29
266.3	26.62
266.516	-22.53
266.732	38.91
266.948	-36.86
267.164	59.39
267.38	10.24
267.596	71.68
267.812	57.34
268.028	12.29
268.244	55.3
268.46	-10.24
268.676	6.14
268.892	61.44
269.108	98.3
269.324	-71.68
269.54	-6.14
269.756	2.05
269.972	88.06
270.188	-16.38
270.403	51.2
270.619	-10.24
270.835	-20.48
271.051	98.3
271.267	16.38
271.483	65.54
271.698	104.45
271.914	59.39
272.13	65.54
272.346	40.96
272.562	30.72
272.777	79.87
272.993	10.24
273.209	43.01
273.425	-4.1
273.64	14.34
273.856	92.16
274.072	57.34
274.287	10.24
274.503	106.49
274.719	92.16
274.934	-20.48
275.15	-36.86
275.366	63.49
275.581	2.05
275.797	83.97
276.012	16.38
276.228	36.86
276.444	-30.72
276.659	65.54
276.875	-14.34
277.09	77.82
277.306	-38.91
277.521	43.01
277.737	2.05
277.952	110.59
278.168	22.53
278.383	26.62
278.599	100.35
278.814	120.83
279.03	77.82
279.245	63.49
279.461	59.39
279.676	34.82
279.892	22.53
280.107	30.72
280.322	10.24
280.538	34.82
280.753	100.35
280.969	133.12
281.184	36.86
281.399	79.87
281.615	18.43
281.83	22.53
282.045	14.34
282.26	-10.24
282.476	100.35
282.691	75.77
282.906	73.73
283.122	65.54
283.337	10.24
283.552	63.49
283.767	-14.34
283.983	2.05
284.198	-47.1
284.413	45.06
284.628	53.25
284.843	38.91
285.058	14.34
285.274	69.63
285.489	28.67
285.704	71.68
285.919	-4.1
286.134	43.01
286.349	92.16
286.564	34.82
286.779	67.58
286.995	-36.86
287.21	-55.3
287.425	157.69
287.64	69.63
287.855	67.58
288.07	12.29
288.285	100.35
288.5	112.64
288.715	94.21
288.93	65.54
289.145	2.05
289.36	133.12
289.575	47.1
289.79	100.35
290.004	92.16
290.219	26.62
290.434	24.58
290.649	-2.05
290.864	100.35
291.079	-8.19
291.294	67.58
291.509	10.24
291.724	20.48
291.938	59.39
292.153	10.24
292.368	2.05
292.583	63.49
292.798	-20.48
293.012	36.86
293.227	94.21
293.442	61.44
293.657	118.78
293.871	45.06
294.086	59.39
294.301	108.54
294.516	71.68
294.73	47.1
294.945	-26.62
295.16	63.49
295.374	51.2
295.589	88.06
295.804	8.19
296.018	2.05
296.233	100.35
296.447	96.25
296.662	-12.29
296.877	116.73
297.091	75.77
297.306	88.06
297.52	16.38
297.735	34.82
297.949	63.49
298.164	61.44
298.378	51.2
298.593	10.24
298.807	59.39
299.022	40.96
299.236	137.21
299.451	18.43
299.665	-30.72
299.88	6.14
300.094	-4.1
300.309	69.63
300.523	-55.3
300.737	47.1
300.952	53.25
301.166	34.82
301.381	55.3
301.595	53.25
301.809	61.44
302.024	120.83
302.238	18.43
302.452	79.87
302.667	6.14
302.881	83.97
303.095	67.58
303.309	59.39
303.524	26.62
303.738	67.58
303.952	-16.38
304.166	133.12
304.381	-22.53
304.595	83.97
304.809	-14.34
305.023	47.1
305.237	45.06
305.452	-6.14
305.666	43.01
305.88	12.29
306.094	83.97
306.308	108.54
306.522	157.69
306.736	79.87
306.95	34.82
307.164	116.73
307.379	2.05
307.593	75.77
307.807	94.21
308.021	59.39
308.235	75.77
308.449	28.67
308.663	14.34
308.877	176.13
309.091	-6.14
309.305	67.58
309.519	79.87
309.733	69.63
309.947	26.62
310.161	83.97
310.374	45.06
310.588	116.73
310.802	26.62
311.016	61.44
311.23	-34.82
311.444	83.97
311.658	36.86
311.872	116.73
312.085	47.1
312.299	102.4
312.513	49.15
312.727	100.35
312.941	2.05
313.154	67.58
313.368	92.16
313.582	59.39
313.796	24.58
314.009	102.4
314.223	92.16
314.437	30.72
314.651	83.97
314.864	2.05
315.078	65.54
315.292	36.86
315.505	92.16
315.719	4.1
315.933	36.86
316.146	18.43
316.36	6.14
316.573	14.34
316.787	47.1
317.001	63.49
317.214	2.05
317.428	28.67
317.641	-30.72
317.855	34.82
318.068	-4.1
318.282	32.77
318.495	63.49
318.709	86.01
318.922	12.29
319.136	100.35
319.349	96.25
319.563	20.48
319.776	59.39
319.99	20.48
320.203	83.97
320.417	55.3
320.63	45.06
320.843	102.4
321.057	112.64
321.27	-30.72
321.483	83.97
321.697	100.35
321.91	55.3
322.124	26.62
322.337	86.01
322.55	83.97
322.763	75.77
322.977	-34.82
323.19	63.49
323.403	94.21
323.617	43.01
323.83	36.86
324.043	51.2
324.256	10.24
324.469	20.48
324.683	86.01
324.896	34.82
325.109	51.2
325.322	14.34
325.535	75.77
325.748	53.25
325.962	-4.1
326.175	51.2
326.388	-6.14
326.601	96.25
326.814	100.35
327.027	69.63
327.24	53.25
327.453	26.62
327.666	73.73
327.879	-2.05
328.092	51.2
328.305	16.38
328.518	18.43
328.731	-38.91
328.944	90.11
329.157	55.3
329.37	55.3
329.583	26.62
329.796	83.97
330.009	14.34
330.222	55.3
330.435	51.2
330.648	8.19
330.861	83.97
331.073	16.38
331.286	75.77
331.499	51.2
331.712	83.97
331.925	45.06
332.138	32.77
332.35	129.02
332.563	-36.86
332.776	124.93
332.989	59.39
333.202	73.73
333.414	57.34
333.627	34.82
333.84	20.48
334.053	57.34
334.265	-14.34
334.478	92.16
334.691	6.14
334.903	14.34
335.116	32.77
335.329	75.77
335.541	24.58
335.754	34.82
335.966	43.01
336.179	34.82
336.392	18.43
336.604	147.45
336.817	4.1
337.029	28.67
337.242	79.87
337.454	94.21
337.667	45.06
337.88	104.45
338.092	55.3
338.305	94.21
338.517	67.58
338.729	71.68
338.942	79.87
339.154	92.16
339.367	18.43
339.579	59.39
339.792	-18.43
340.004	69.63
340.217	43.01
340.429	22.53
340.641	75.77
340.854	102.4
341.066	-14.34
341.278	51.2
341.491	69.63
341.703	102.4
341.915	75.77
342.128	86.01
342.34	51.2
342.552	2.05
342.764	18.43
342.977	79.87
343.189	67.58
343.401	77.82
343.613	-24.58
343.826	67.58
344.038	12.29
344.25	118.78
344.462	2.05
344.674	-6.14
344.886	71.68
345.099	34.82
345.311	92.16
345.523	28.67
345.735	45.06
345.947	100.35
346.159	36.86
346.371	0
346.583	16.38
346.795	149.5
347.007	55.3
347.219	28.67
347.431	36.86
347.643	51.2
347.855	61.44
348.067	165.89
348.279	18.43
348.491	75.77
348.703	79.87
348.915	32.77
349.127	75.77
349.339	73.73
349.551	-6.14
349.763	83.97
349.975	-6.14
350.187	53.25
350.399	94.21
350.61	22.53
350.822	96.25
351.034	51.2
351.246	61.44
351.458	102.4
351.669	51.2
351.881	63.49
352.093	86.01
352.305	65.54
352.517	6.14
352.728	108.54
352.94	43.01
353.152	67.58
353.363	-28.67
353.575	106.49
353.787	124.93
353.999	75.77
354.21	133.12
354.422	-32.77
354.633	69.63
354.845	10.24
355.057	73.73
355.268	67.58
355.48	55.3
355.692	53.25
355.903	65.54
356.115	104.45
356.326	49.15
356.538	14.34
356.749	10.24
356.961	167.93
357.172	61.44
357.384	75.77
357.595	83.97
357.807	67.58
358.018	-6.14
358.23	67.58
358.441	71.68
358.653	71.68
358.864	51.2
359.075	-26.62
359.287	28.67
359.498	57.34
359.709	67.58
359.921	75.77
360.132	34.82
360.344	133.12
360.555	14.34
360.766	86.01
360.977	34.82
361.189	104.45
361.4	71.68
361.611	100.35
361.823	176.13
362.034	133.12
362.245	43.01
362.456	55.3
362.667	45.06
362.879	92.16
363.09	34.82
363.301	14.34
363.512	10.24
363.723	53.25
363.935	2.05
364.146	86.01
364.357	51.2
364.568	65.54
364.779	-16.38
364.99	94.21
365.201	-2.05
365.412	120.83
365.623	-26.62
365.834	-14.34
366.045	69.63
366.256	53.25
366.467	18.43
366.678	45.06
366.889	94.21
367.1	71.68
367.311	18.43
367.522	10.24
367.733	110.59
367.944	141.31
368.155	-6.14
368.366	88.06
368.577	94.21
368.788	53.25
368.999	77.82
369.209	94.21
369.42	139.26
369.631	161.79
369.842	63.49
370.053	36.86
370.264	75.77
370.474	86.01
370.685	67.58
370.896	36.86
371.107	63.49
371.317	47.1
371.528	34.82
371.739	100.35
371.95	20.48
372.16	43.01
372.371	86.01
372.582	30.72
372.792	114.69
373.003	141.31
373.214	92.16
373.424	67.58
373.635	61.44
373.846	143.36
374.056	36.86
374.267	53.25
374.477	90.11
374.688	30.72
374.898	-4.1
375.109	59.39
375.319	47.1
375.53	143.36
375.74	51.2
375.951	94.21
376.161	14.34
376.372	67.58
376.582	18.43
376.793	73.73
377.003	34.82
377.214	77.82
377.424	30.72
377.635	36.86
377.845	-20.48
378.055	47.1
378.266	88.06
378.476	69.63
378.686	98.3
378.897	10.24
379.107	133.12
379.317	126.97
379.528	43.01
379.738	137.21
379.948	75.77
380.158	86.01
380.369	28.67
380.579	151.55
380.789	116.73
380.999	49.15
381.21	83.97
381.42	190.46
381.63	59.39
381.84	88.06
382.05	73.73
382.261	174.08
382.471	22.53
382.681	102.4
382.891	108.54
383.101	79.87
383.311	22.53
383.521	36.86
383.731	124.93
383.941	100.35
384.151	102.4
384.361	26.62
384.571	81.92
384.781	141.31
384.991	122.88
385.201	157.69
385.411	53.25
385.621	73.73
385.831	75.77
386.041	63.49
386.251	30.72
386.461	96.25
386.671	69.63
386.881	71.68
387.091	55.3
387.301	86.01
387.511	67.58
387.72	67.58
387.93	122.88
388.14	26.62
388.35	14.34
388.56	94.21
388.769	92.16
388.979	112.64
389.189	51.2
389.399	112.64
389.609	106.49
389.818	79.87
390.028	83.97
390.238	108.54
390.447	88.06
390.657	61.44
390.867	77.82
391.076	53.25
391.286	26.62
391.496	108.54
391.705	10.24
391.915	135.17
392.125	69.63
392.334	116.73
392.544	100.35
392.753	110.59
392.963	88.06
393.172	88.06
393.382	28.67
393.591	110.59
393.801	43.01
394.01	126.97
394.22	79.87
394.429	104.45
394.639	98.3
394.848	135.17
395.058	40.96
395.267	75.77
395.477	174.08
395.686	75.77
395.895	131.07
396.105	157.69
396.314	149.5
396.524	135.17
396.733	18.43
396.942	129.02
397.152	141.31
397.361	145.41
397.57	73.73
397.78	133.12
397.989	141.31
398.198	192.51
398.407	100.35
398.617	32.77
398.826	88.06
399.035	129.02
399.244	34.82
399.453	169.98
399.663	131.07
399.872	278.52
400.081	88.06
400.29	192.51
400.499	108.54
400.708	161.79
400.917	102.4
401.127	145.41
401.336	190.46
401.545	157.69
401.754	153.6
401.963	96.25
402.172	182.27
402.381	200.7
402.59	137.21
402.799	110.59
403.008	165.89
403.217	133.12
403.426	126.97
403.635	124.93
403.844	176.13
404.053	182.27
404.262	182.27
404.471	124.93
404.68	225.28
404.888	178.17
405.097	178.17
405.306	208.89
405.515	174.08
405.724	200.7
405.933	239.61
406.142	194.56
406.35	192.51
406.559	284.67
406.768	192.51
406.977	251.9
407.185	272.38
407.394	194.56
407.603	194.56
407.812	344.06
408.02	315.39
408.229	288.76
408.438	274.43
408.646	348.15
408.855	352.25
409.064	387.07
409.272	368.63
409.481	378.87
409.69	372.73
409.898	374.78
410.107	344.06
410.315	436.22
410.524	391.16
410.733	419.83
410.941	395.26
411.15	528.38
411.358	462.84
411.567	528.38
411.775	614.39
411.984	567.29
412.192	632.82
412.401	563.19
412.609	638.97
412.818	657.4
413.026	628.73
413.234	657.4
413.443	667.64
413.651	757.75
413.86	698.36
414.068	737.27
414.276	763.89
414.485	827.38
414.693	845.81
414.901	872.43
415.11	944.11
415.318	976.88
415.526	1001.46
415.734	985.07
415.943	1021.94
416.151	1077.23
416.359	1159.15
416.567	1091.57
416.776	1255.4
416.984	1226.73
417.192	1363.95
417.4	1312.75
417.608	1378.28
417.817	1273.84
418.025	1501.16
418.233	1628.14
418.441	1452.01
418.649	1615.85
418.857	1656.81
419.065	1738.73
419.273	1517.54
419.481	1763.3
419.689	1859.56
419.897	1968.1
420.105	1964
420.313	2027.49
420.521	2136.03
420.729	2082.78
420.937	2289.63
421.145	2408.41
421.353	2406.36
421.561	2537.43
421.769	2465.75
421.977	2742.23
422.185	2633.69
422.393	2838.48
422.601	2940.88
422.809	3059.67
423.017	2967.51
423.224	3045.33
423.432	3338.19
423.64	3186.64
423.848	3504.07
424.056	3516.36
424.263	3643.34
424.471	3602.38
424.679	3874.76
424.887	4026.31
425.094	4188.1
425.302	4120.51
425.51	4405.18
425.718	4237.25
425.925	4448.19
426.133	4706.23
426.341	4917.17
426.548	5081.01
426.756	5058.48
426.964	5175.22
427.171	5474.22
427.379	5713.83
427.586	5443.5
427.794	5883.81
428.001	6154.15
428.209	6377.37
428.417	6293.41
428.624	6705.05
428.832	6639.51
429.039	6762.39
429.247	6803.35
429.454	7434.13
429.662	7901.06
429.869	7227.28
430.076	7972.74
430.284	7735.18
430.491	8017.8
430.699	8329.09
430.906	8402.82
431.114	8515.45
431.321	8787.83
431.528	8888.18
431.736	9711.47
431.943	10131.3
432.15	9633.64
432.358	9869.16
432.565	10164.07
432.772	10205.03
432.979	10749.79
433.187	10782.56
433.394	11032.41
433.601	11755.34
433.808	11923.27
434.016	11568.98
434.223	12185.41
434.43	12832.57
434.637	12437.31
434.844	13432.63
435.052	13813.55
435.259	13676.34
435.466	13688.62
435.673	13580.08
435.88	14477.09
436.087	15073.05
436.294	15419.16
436.501	14937.88
436.708	15161.11
436.915	15533.84
437.122	16279.3
437.329	16500.48
437.537	16948.99
437.743	17139.45
437.95	17204.99
438.157	17731.31
438.364	18454.25
438.571	18423.53
438.778	18446.05
438.985	20260.55
439.192	19631.83
439.399	19951.31
439.606	19361.5
439.813	20551.37
440.02	21919.41
440.227	21735.09
440.433	21077.69
440.64	22070.96
440.847	21984.94
441.054	22484.65
441.261	24053.39
441.467	23416.47
441.674	24250
441.881	24805
442.088	24839.81
442.294	24878.72
442.501	25458.3
442.708	25720.44
442.914	26756.71
443.121	27686.49
443.328	27297.38
443.534	28849.74
443.741	28257.87
443.948	27647.58
444.154	29867.58
444.361	29615.68
444.568	29892.15
444.774	29992.5
444.981	30436.91
445.187	31440.42
445.394	32286.23
445.6	32316.95
445.807	35139.05
446.013	33248.77
446.22	34594.29
446.426	35220.97
446.633	35800.54
446.839	37000.65
447.046	35163.62
447.252	37598.66
447.459	37557.7
447.665	37404.1
447.871	38598.07
448.078	40402.33
448.284	38532.53
448.491	39546.28
448.697	41057.68
448.903	41614.72
449.11	42153.34
449.316	41328.01
449.522	41856.39
449.728	43263.34
449.935	43541.86
450.141	43134.32
450.347	44383.58
450.553	43060.59
450.76	43894.11
450.966	44862.8
451.172	44229.98
451.378	45364.56
451.584	44627.29
451.791	45438.28
451.997	45555.02
452.203	46386.49
452.409	46191.94
452.615	45901.12
452.821	44512.6
453.027	43984.22
453.233	46355.77
453.44	44186.97
453.646	44662.1
453.852	45145.42
454.058	45737.29
454.264	44457.31
454.47	45339.98
454.676	44066.14
454.882	45684.04
455.088	41926.02
455.294	42466.68
455.5	42958.19
455.705	43584.87
455.911	41807.23
456.117	40582.55
456.323	40351.13
456.529	38520.24
456.735	39724.45
456.941	38987.18
457.147	38161.85
457.352	37223.88
457.558	36554.19
457.764	36687.31
457.97	35898.84
458.176	34905.58
458.381	35407.33
458.587	33293.83
458.793	33656.32
458.999	31962.65
459.204	34330.1
459.41	33033.74
459.616	30864.94
459.821	30823.98
460.027	30733.87
460.233	30078.52
460.438	28612.17
460.644	29029.96
460.85	27571.8
461.055	27178.59
461.261	26947.17
461.466	25151.1
461.672	24254.09
461.878	25935.48
462.083	24274.57
462.289	23967.38
462.494	23850.64
462.7	22834.85
462.905	22116.01
463.111	22924.96
463.316	22886.05
463.522	22347.44
463.727	22593.19
463.932	22228.65
464.138	22042.29
464.343	22316.72
464.549	21272.25
464.754	22353.58
464.959	22060.72
465.165	21804.72
465.37	21110.46
465.575	20276.94
465.781	21262.01
465.986	21417.66
466.191	20342.47
466.397	20272.84
466.602	19226.33
466.807	19918.54
467.012	19863.25
467.218	19973.84
467.423	19629.78
467.628	19373.78
467.833	20354.76
468.038	19812.05
468.244	19306.2
468.449	19750.61
468.654	19261.15
468.859	18851.55
469.064	18892.51
469.269	18327.27
469.474	18323.18
469.679	19115.74
469.885	18075.37
470.09	18482.92
470.295	18448.1
470.5	17794.8
470.705	18204.39
470.91	17512.18
471.115	17536.76
471.32	17663.73
471.525	17280.76
471.73	17078.01
471.935	16912.13
472.139	16574.21
472.344	16598.79
472.549	16480
472.754	16150.28
472.959	15988.49
473.164	15388.44
473.369	15607.57
473.574	15943.44
473.778	15920.91
473.983	15572.75
474.188	15673.1
474.393	15036.19
474.598	15003.42
474.802	15001.37
475.007	14669.6
475.212	14636.83
475.417	14001.96
475.621	14122.79
475.826	14087.98
476.031	13930.28
476.235	13621.04
476.44	13975.34
476.645	13485.87
476.849	13608.75
477.054	13504.31
477.259	13363
477.463	13240.12
477.668	13027.13
477.872	13092.66
478.077	12896.06
478.282	12685.12
478.486	12703.55
478.691	12404.55
478.895	12203.85
479.1	12457.79
479.304	12492.61
479.509	11761.48
479.713	12158.79
479.918	12117.83
480.122	11728.72
480.326	11915.08
480.531	11835.21
480.735	11800.4
480.94	11556.69
481.144	12087.11
481.348	11540.3
481.553	11536.21
481.757	11546.45
481.961	11448.15
482.166	11599.69
482.37	11595.6
482.574	11245.4
482.778	11233.11
482.983	11530.06
483.187	11341.65
483.391	11452.24
483.595	11411.28
483.8	11282.26
484.004	11437.91
484.208	11540.3
484.412	11482.96
484.616	11364.18
484.821	11521.87
485.025	11118.42
485.229	11530.06
485.433	11161.43
485.637	11323.22
485.841	11218.77
486.045	11169.62
486.249	11128.66
486.453	11421.52
486.657	11523.92
486.861	11573.07
487.065	10872.67
487.269	11409.23
487.473	11095.89
487.677	11134.81
487.881	11276.12
488.085	11153.24
488.289	11110.23
488.493	11429.71
488.697	11372.37
488.901	11452.24
489.105	11175.77
489.309	11249.49
489.512	11417.43
489.716	11437.91
489.92	11347.79
490.124	11364.18
490.328	11677.52
490.531	11468.62
490.735	11530.06
490.939	11398.99
491.143	11351.89
491.346	11542.35
491.55	11609.93
491.754	11624.27
491.958	11650.89
492.161	11577.17
492.365	11771.72
492.569	11667.28
492.772	11642.7
492.976	11806.54
493.18	11822.92
493.383	12107.59
493.587	11972.43
493.79	12177.22
493.994	12007.24
494.197	12341.06
494.401	12265.28
494.605	12347.2
494.808	12420.93
495.012	12412.74
495.215	12654.4
495.419	12609.34
495.622	12554.05
495.825	12773.18
496.029	12822.33
496.232	12830.52
496.436	12943.16
496.639	13266.74
496.843	13301.56
497.046	13651.76
497.249	13680.43
497.453	13750.06
497.656	13426.48
497.859	13829.93
498.063	13815.6
498.266	14288.68
498.469	14227.24
498.673	14260.01
498.876	14604.07
499.079	14749.47
499.282	14634.78
499.485	15279.89
499.689	15038.23
499.892	15501.08
500.095	15421.2
500.298	15777.55
500.501	15531.8
500.705	16117.51
500.908	16193.29
501.111	16107.27
501.314	16209.67
501.517	16748.29
501.72	16842.5
501.923	16807.68
502.126	17002.24
502.329	17190.65
502.532	17501.94
502.735	17428.21
502.938	17993.45
503.141	17907.44
503.344	18171.63
503.547	18142.96
503.75	18515.69
503.953	18749.15
504.156	18915.04
504.359	19187.42
504.562	19080.92
504.765	19404.5
504.968	19545.81
505.17	20020.94
505.373	19721.94
505.576	20088.53
505.779	20278.99
505.982	20457.16
506.185	20913.86
506.387	21163.71
506.59	21012.16
506.793	21530.3
506.996	21667.51
507.198	22103.73
507.401	21767.86
507.604	22040.24
507.807	22451.88
508.009	22709.93
508.212	23027.36
508.415	22812.32
508.617	23441.05
508.82	23432.86
509.022	23574.17
509.225	24170.13
509.428	24227.47
509.63	24508.04
509.833	24366.73
510.035	25255.55
510.238	24655.5
510.44	25394.81
510.643	25599.61
510.845	25951.86
511.048	25859.7
511.25	26500.72
511.453	26588.78
511.655	27143.78
511.858	26623.59
512.06	27027.04
512.262	27663.96
512.465	27227.74
512.667	27833.94
512.87	28350.03
513.072	28188.24
513.274	28716.62
513.477	28722.76
513.679	29093.44
513.881	29568.57
514.084	29650.49
514.286	29843
514.488	30318.13
514.69	30838.31
514.893	30862.89
515.095	30924.33
515.297	31493.66
515.499	31458.85
515.701	31876.63
515.904	32030.23
516.106	32357.91
516.308	32552.46
516.51	33105.41
516.712	33009.16
516.914	33308.16
517.116	33990.14
517.318	34051.58
517.52	34326
517.722	34344.44
517.925	34702.83
518.127	35036.65
518.329	35175.91
518.531	35227.11
518.733	35775.97
518.935	35960.28
519.136	35677.66
519.338	36527.57
519.54	36371.92
519.742	36879.82
519.944	37107.15
520.146	37580.23
520.348	37762.5
520.55	37526.98
520.752	38073.79
520.954	38342.07
521.155	38104.51
521.357	39011.76
521.559	38718.9
521.761	39433.64
521.963	39048.62
522.164	39675.3
522.366	39521.7
522.568	39855.52
522.77	39959.97
522.971	40494.49
523.173	40000.93
523.375	40545.69
523.576	40877.46
523.778	40994.19
523.98	40940.94
524.181	41442.7
524.383	41389.45
524.584	42110.33
524.786	41475.46
524.988	41409.93
525.189	42030.46
525.391	41964.93
525.592	41868.67
525.794	42212.73
525.995	42325.37
526.197	42544.5
526.398	42579.32
526.6	42603.89
526.801	42950
527.003	42710.39
527.204	42530.17
527.406	43156.85
527.607	42802.55
527.808	43562.34
528.01	42163.58
528.211	43103.6
528.412	43736.42
528.614	43105.65
528.815	43271.53
529.016	43683.17
529.218	42642.81
529.419	43337.07
529.62	43273.58
529.822	43162.99
530.023	43179.37
530.224	43347.31
530.425	42687.86
530.626	42802.55
530.828	42429.82
531.029	43644.26
531.23	42780.02
531.431	43218.28
531.632	43273.58
531.833	43400.55
532.035	42845.55
532.236	42509.69
532.437	43154.8
532.638	42892.66
532.839	43064.69
533.04	43074.93
533.241	42268.03
533.442	43249
533.643	42866.03
533.844	42831.22
534.045	42691.96
534.246	42366.33
534.447	42540.41
534.648	42597.75
534.849	42202.49
535.05	42216.83
535.251	42857.84
535.451	42270.07
535.652	42245.5
535.853	42177.92
536.054	42263.93
536.255	42618.23
536.456	41919.87
536.657	42149.24
536.857	42110.33
537.058	41860.48
537.259	42132.86
537.46	41911.68
537.66	41713.03
537.861	41962.88
538.062	42233.21
538.263	41524.61
538.463	41674.12
538.664	41584.01
538.865	41936.26
539.065	41872.77
539.266	41495.94
539.466	41692.55
539.667	41123.21
539.868	41952.64
540.068	41012.62
540.269	41104.78
540.469	41733.51
540.67	41340.3
540.87	41045.39
541.071	41383.3
541.271	41270.67
541.472	40664.47
541.672	41192.84
541.873	40824.21
542.073	40555.93
542.274	40928.66
542.474	41170.32
542.675	41137.55
542.875	41088.4
543.075	41020.81
543.276	40496.53
543.476	41074.06
543.676	40801.68
543.877	40746.39
544.077	40979.85
544.277	40732.05
544.478	40459.67
544.678	40850.83
544.878	40807.83
545.078	40635.8
545.279	40240.54
545.479	40357.27
545.679	40306.07
545.879	40488.34
546.079	40154.52
546.28	40590.74
546.48	40643.99
546.68	40918.42
546.88	40912.27
547.08	40562.07
547.28	40463.77
547.48	40359.32
547.68	40543.64
547.88	40396.18
548.081	40721.81
548.281	40373.66
548.481	40504.73
548.681	40826.26
548.881	40533.4
549.081	40596.88
549.28	40463.77
549.48	40852.88
549.68	40680.85
549.88	40942.99
550.08	40537.49
550.28	40842.64
550.48	40734.1
550.68	40789.39
550.88	40678.8
551.08	40500.63
551.279	41045.39
551.479	40230.3
551.679	40652.18
551.879	40474.01
552.079	41072.01
552.278	40697.23
552.478	40623.51
552.678	40768.91
552.878	40723.86
553.077	40883.6
553.277	40531.35
553.477	41483.65
553.676	40967.57
553.876	40877.46
554.076	40676.76
554.275	40932.75
554.475	40646.04
554.674	41166.22
554.874	40914.32
555.074	40865.17
555.273	40668.56
555.473	41299.34
555.672	40721.81
555.872	41014.67
556.071	41301.39
556.271	41108.88
556.47	41307.53
556.67	40869.26
556.869	40953.23
557.068	41170.32
557.268	40938.9
557.467	40924.56
557.667	40986
557.866	41102.73
558.065	41278.86
558.265	40730
558.464	40957.33
558.663	41311.63
558.863	40983.95
559.062	41328.01
559.261	40813.97
559.461	41354.63
559.66	40844.69
559.859	41196.94
560.058	41100.68
560.258	40998.29
560.457	40586.64
560.656	41133.45
560.855	40437.14
561.054	41031.05
561.253	40697.23
561.453	41174.41
561.652	40809.87
561.851	41293.19
562.05	40842.64
562.249	40811.92
562.448	41072.01
562.647	40983.95
562.846	40529.3
563.045	41059.73
563.244	40744.34
563.443	41229.71
563.642	40234.39
563.841	40830.35
564.04	40406.42
564.239	40605.08
564.438	40205.72
564.637	40560.02
564.836	40527.25
565.035	40295.83
565.234	40664.47
565.432	40512.92
565.631	40256.92
565.83	40504.73
566.029	40134.04
566.228	40269.21
566.427	40187.29
566.625	39804.32
566.824	39347.62
567.023	40211.87
567.222	39447.97
567.42	40281.5
567.619	39894.43
567.818	39894.43
568.016	39427.49
568.215	39939.49
568.414	39511.46
568.612	39959.97
568.811	39497.13
569.01	39529.89
569.208	39124.39
569.407	39316.9
569.605	38800.82
569.804	39454.12
570.002	38704.56
570.201	39255.46
570.4	39112.11
570.598	38946.22
570.797	38774.19
570.995	38608.31
571.193	38153.66
571.392	38561.2
571.59	38317.5
571.789	38403.51
571.987	38403.51
572.186	38663.6
572.384	38047.16
572.582	38458.81
572.781	38380.98
572.979	37512.64
573.177	38038.97
573.376	38133.18
573.574	37508.55
573.772	37666.24
573.971	37969.34
574.169	37141.96
574.367	37264.84
574.565	37176.78
574.763	37213.64
574.962	36976.08
575.16	36552.15
575.358	36939.21
575.556	36470.23
575.754	37041.61
575.952	36451.8
576.151	36589.01
576.349	36142.55
576.547	36146.65
576.745	36261.33
576.943	36292.05
577.141	35825.12
577.339	36007.39
577.537	35802.59
577.735	35857.88
577.933	35382.76
578.131	35429.86
578.329	35405.28
578.527	35372.52
578.725	35266.02
578.923	35202.53
579.121	35358.18
579.319	34952.68
579.516	34915.82
579.714	34993.64
579.912	35220.97
580.11	34909.68
580.308	34457.07
580.506	34430.45
580.704	34059.77
580.901	34178.55
581.099	34350.58
581.297	33949.18
581.495	34188.79
581.692	34190.84
581.89	33762.81
582.088	34047.48
582.285	33707.52
582.483	33869.31
582.681	33963.51
582.878	33672.7
583.076	33119.75
583.274	33447.43
583.471	33238.53
583.669	33191.43
583.866	32577.04
584.064	33119.75
584.262	32955.91
584.459	32888.33
584.657	32626.19
584.854	32763.4
585.052	32312.85
585.249	32570.9
585.447	32646.67
585.644	32253.46
585.841	32357.91
586.039	32296.47
586.236	32226.84
586.434	32007.7
586.631	31800.86
586.828	32175.64
587.026	31895.07
587.223	31536.67
587.42	31346.21
587.618	31931.93
587.815	31553.05
588.012	31462.94
588.21	31391.27
588.407	31886.87
588.604	31421.98
588.801	31049.25
588.999	31372.83
589.196	30846.51
589.393	31133.22
589.59	30932.52
589.787	31000.1
589.984	30527.02
590.182	30670.38
590.379	30991.91
590.576	30506.54
590.773	30584.37
590.97	30451.25
591.167	30678.57
591.364	30211.64
591.561	30504.49
591.758	30055.99
591.955	30152.24
592.152	30473.78
592.349	29963.83
592.546	30219.83
592.743	30154.29
592.94	29972.02
593.137	29527.61
593.334	30109.24
593.531	29933.11
593.727	29902.39
593.924	29959.73
594.121	29711.93
594.318	29855.29
594.515	29498.94
594.712	29824.57
594.908	29539.9
595.105	29789.75
595.302	29195.84
595.499	29531.71
595.696	29419.07
595.892	29386.3
596.089	29488.7
596.286	29308.48
596.482	29333.06
596.679	29171.27
596.876	29300.29
597.072	28905.03
597.269	29251.14
597.466	28616.27
597.662	29075.01
597.859	28984.9
598.055	28976.71
598.252	28954.18
598.448	28825.16
598.645	29253.19
598.841	28440.14
599.038	28857.93
599.234	28933.7
599.431	28587.6
599.627	28816.97
599.824	29115.97
600.02	28339.79
600.217	29103.68
600.413	28720.71
600.609	28911.17
600.806	28859.98
601.002	29171.27
601.198	28378.7
601.395	28661.32
601.591	28663.37
601.787	28878.41
601.984	28608.08
602.18	29118.02
602.376	28554.83
602.572	28743.24
602.769	28593.74
602.965	28384.85
603.161	28753.48
603.357	28517.96
603.553	28462.67
603.75	28689.99
603.946	28362.32
604.142	28706.38
604.338	28411.47
604.534	28614.22
604.73	28524.11
604.926	28261.97
605.122	28673.61
605.318	28515.92
605.514	28356.18
605.71	28075.6
605.906	28616.27
606.102	28483.15
606.298	28479.05
606.494	28534.35
606.69	28571.21
606.886	28542.54
607.082	28474.96
607.278	28763.72
607.474	28014.16
607.67	28626.51
607.866	28198.48
608.062	28646.99
608.257	28331.6
608.453	28653.13
608.649	28530.25
608.845	28417.61
609.041	28597.84
609.236	28720.71
609.432	28595.79
609.628	28925.51
609.824	28532.3
610.019	29034.05
610.215	28485.2
610.411	29384.26
610.606	28730.95
610.802	28685.9
610.998	28853.83
611.193	28638.8
611.389	28710.47
611.584	28563.02
611.78	28558.92
611.976	28593.74
612.171	28696.14
612.367	28962.37
612.562	28696.14
612.758	28571.21
612.953	28610.12
613.149	28724.81
613.344	28677.71
613.539	28945.99
613.735	28753.48
613.93	29001.29
614.126	28554.83
614.321	28923.46
614.517	28792.39
614.712	28612.17
614.907	28298.83
615.103	28868.17
615.298	28704.33
615.493	29032.01
615.688	28646.99
615.884	29144.64
616.079	28546.64
616.274	28945.99
616.47	28659.27
616.665	28733
616.86	28556.88
617.055	28253.78
617.25	28452.43
617.445	28837.45
617.641	28171.86
617.836	28468.81
618.031	28145.23
618.226	28544.59
618.421	28307.02
618.616	28665.42
618.811	27885.14
619.006	28710.47
619.201	27680.35
619.396	27977.3
619.591	27922.01
619.786	27936.34
619.981	27651.67
620.176	27960.92
620.371	27682.39
620.566	27588.19
620.761	27416.16
620.956	27848.28
621.151	27076.19
621.346	27213.41
621.541	26936.93
621.735	27430.49
621.93	26857.06
622.125	27045.48
622.32	26492.52
622.515	26654.31
622.709	26134.13
622.904	26592.87
623.099	25716.34
623.294	26285.68
623.488	25855.61
623.683	26080.88
623.878	25554.55
624.072	25677.43
624.267	25603.71
624.462	25634.42
624.656	25325.18
624.851	25124.48
625.046	25097.86
625.24	25044.61
625.435	24895.11
625.629	24735.37
625.824	24270.48
626.018	24553.1
626.213	24098.45
626.407	24419.98
626.602	23766.68
626.796	24499.85
626.991	24157.84
627.185	23565.98
627.38	23627.42
627.574	23555.74
627.768	23918.23
627.963	23529.11
628.157	23191.2
628.352	23576.22
628.546	22859.43
628.74	22875.81
628.935	22922.91
629.129	22988.45
629.323	22484.65
629.517	22296.24
629.712	22400.68
629.906	22369.96
630.1	22140.59
630.294	21933.75
630.489	21679.8
630.683	22292.14
630.877	21546.68
631.071	21595.83
631.265	21434.04
631.459	21653.17
631.653	21350.07
631.848	21434.04
632.042	21161.66
632.236	21118.65
632.43	20881.09
632.624	21028.54
632.818	20793.03
633.012	20604.61
633.206	20627.14
633.4	20694.72
633.594	19957.46
633.788	20192.97
633.982	20133.58
634.176	20031.18
634.369	19742.42
634.563	19807.95
634.757	19564.25
634.951	20014.8
635.145	19642.07
635.339	19672.79
635.533	19099.36
635.726	19306.2
635.92	19023.58
636.114	19089.12
636.308	19234.52
636.501	19058.4
636.695	18558.69
636.889	18495.21
637.083	18484.97
637.276	18224.87
637.47	18280.17
637.664	18276.07
637.857	18259.69
638.051	18171.63
638.244	18108.14
638.438	17846
638.632	17731.31
638.825	17499.89
639.019	17553.14
639.212	17712.88
639.406	17475.32
639.599	17352.44
639.793	17317.62
639.986	17008.38
640.18	17020.67
640.373	16850.69
640.567	16774.91
640.76	16756.48
640.954	16543.49
641.147	16520.96
641.34	16576.26
641.534	16449.28
641.727	16461.57
641.92	16412.42
642.114	16049.93
642.307	16066.31
642.5	15875.85
642.694	15662.86
642.887	15841.04
643.08	15816.46
643.273	15591.19
643.467	15513.36
643.66	15220.5
643.853	15447.83
644.046	14808.86
644.239	15060.76
644.432	14997.28
644.626	14698.27
644.819	14796.57
645.012	14563.11
645.205	14772
645.398	14473
645.591	14737.18
645.784	14237.48
645.977	14329.64
646.17	14362.4
646.363	14130.98
646.556	13971.24
646.749	13926.19
646.942	14186.28
647.135	13647.66
647.328	13754.16
647.521	13868.84
647.714	13672.24
647.907	13748.01
648.099	13432.63
648.292	13324.08
648.485	13274.93
648.678	13229.88
648.871	13182.77
649.064	13076.28
649.256	13096.76
649.449	12947.26
649.642	12652.35
649.835	12648.25
650.027	12777.28
650.22	12685.12
650.413	12572.48
650.605	12384.07
650.798	12212.04
650.991	12134.21
651.183	12177.22
651.376	12281.67
651.568	12134.21
651.761	12117.83
651.954	12089.16
652.146	12048.2
652.339	11831.12
652.531	11710.29
652.724	11814.73
652.916	11618.13
653.109	11695.95
653.301	11521.87
653.494	11663.18
653.686	11339.6
653.879	11409.23
654.071	11269.97
654.263	11222.87
654.456	11335.51
654.648	11114.33
654.84	10946.39
655.033	11130.71
655.225	11147.09
655.417	10815.32
655.61	10925.91
655.802	11061.08
655.994	10692.44
656.186	10639.2
656.379	10684.25
656.571	10674.01
656.763	10325.86
656.955	10395.49
657.148	10497.89
657.34	10471.26
657.532	10221.41
657.724	10329.95
657.916	10217.32
658.108	10104.68
658.3	10145.64
658.492	10012.52
658.684	10061.67
658.876	9930.6
659.068	9973.61
659.26	9695.08
659.452	9848.68
659.644	9887.59
659.836	9645.93
660.028	9615.21
660.22	9504.62
660.412	9418.61
660.604	9381.74
660.796	9398.13
660.988	9508.72
661.18	9318.26
661.372	9150.32
661.563	9293.68
661.755	9045.88
661.947	9033.59
662.139	9111.41
662.331	8923
662.522	8808.31
662.714	8859.51
662.906	8595.32
663.097	8857.46
663.289	8726.39
663.481	8730.49
663.673	8742.78
663.864	8384.38
664.056	8480.64
664.247	8746.87
664.439	8165.25
664.631	8546.17
664.822	8292.23
665.014	8554.37
665.205	8368
665.397	8128.39
665.588	8146.82
665.78	8136.58
665.971	8181.64
666.163	7907.21
666.354	8152.96
666.546	7929.73
666.737	7882.63
666.929	7808.9
667.12	7829.38
667.311	7679.88
667.503	7649.16
667.694	7731.08
667.885	7686.03
668.077	7597.96
668.268	7518.09
668.459	7577.48
668.651	7534.48
668.842	7661.45
669.033	7536.52
669.224	7530.38
669.416	7352.21
669.607	7393.17
669.798	7204.75
669.989	7391.12
670.18	7212.95
670.371	7227.28
670.563	7243.67
670.754	7278.48
670.945	7122.84
671.136	7049.11
671.327	7014.29
671.518	7210.9
671.709	7083.92
671.9	7206.8
672.091	6940.57
672.282	6926.23
672.473	7047.06
672.664	7102.36
672.855	6731.67
673.046	6938.52
673.237	6932.37
673.428	6965.14
673.619	6852.5
673.809	6850.46
674	6604.7
674.191	6641.56
674.382	6645.66
674.573	6678.43
674.764	6598.56
674.954	6481.82
675.145	6565.79
675.336	6541.21
675.527	6547.36
675.717	6604.7
675.908	6432.67
676.099	6344.61
676.289	6533.02
676.48	6354.85
676.671	6444.96
676.861	6506.4
677.052	6358.94
677.243	6330.27
677.433	6303.65
677.624	6326.18
677.814	6178.72
678.005	6115.23
678.195	6393.76
678.386	6246.3
678.576	6205.35
678.767	6068.13
678.957	6240.16
679.148	6199.2
679.338	6209.44
679.529	6035.36
679.719	6111.14
679.909	6154.15
680.1	6100.9
680.29	6137.76
680.481	6180.77
680.671	6182.82
680.861	6180.77
681.052	6059.94
681.242	6125.47
681.432	6229.92
681.622	6016.93
681.813	5973.92
682.003	5908.39
682.193	5810.09
682.383	6027.17
682.573	5916.58
682.764	5951.4
682.954	6066.08
683.144	5781.42
683.334	5918.63
683.524	5805.99
683.714	6000.55
683.904	5873.57
684.094	5857.19
684.284	5904.29
684.474	6012.84
684.664	5805.99
684.854	5826.47
685.044	5801.9
685.234	5834.66
685.424	5736.36
685.614	5795.75
685.804	5699.5
685.994	5695.4
686.184	5580.71
686.374	5484.46
686.564	5597.1
686.753	5537.71
686.943	5461.93
687.133	5521.32
687.323	5670.83
687.513	5593
687.702	5476.27
687.892	5480.36
688.082	5558.19
688.272	5558.19
688.461	5482.41
688.651	5572.52
688.841	5484.46
689.03	5423.02
689.22	5425.07
689.41	5400.49
689.599	5271.47
689.789	5375.92
689.979	5339.05
690.168	5326.77
690.358	5205.94
690.547	5255.09
690.737	5294
690.926	5277.62
691.116	5015.48
691.305	5177.26
691.495	5185.46
691.684	5064.63
691.874	5064.63
692.063	5234.61
692.252	5044.15
692.442	5109.68
692.631	4911.03
692.82	5072.82
693.01	5074.87
693.199	4966.32
693.388	5044.15
693.578	4962.23
693.767	5121.97
693.956	4911.03
694.146	4859.83
694.335	4865.97
694.524	4954.04
694.713	4978.61
694.902	4841.4
695.092	4929.46
695.281	4833.21
695.47	4974.52
695.659	4874.17
695.848	4822.97
696.037	4716.47
696.226	4644.79
696.415	4728.76
696.604	4837.3
696.793	4794.29
696.982	4767.67
697.171	4798.39
697.36	4855.73
697.549	4708.28
697.738	4560.83
697.927	4515.77
698.116	4569.02
698.305	4745.14
698.494	4583.35
698.683	4605.88
698.872	4630.46
699.061	4378.56
699.25	4593.59
699.438	4534.2
699.627	4470.72
699.816	4575.16
700.005	4384.7
700.193	4566.97
700.382	4448.19
700.571	4343.74
700.76	4403.13
700.948	4419.52
701.137	4446.14
701.326	4323.26
701.514	4298.69
701.703	4341.69
701.892	4409.28
702.08	4497.34
702.269	4302.78
702.457	4300.73
702.646	4286.4
702.834	4306.88
703.023	4188.1
703.212	4403.13
703.4	4165.57
703.589	4130.75
703.777	4147.14
703.965	4085.7
704.154	4216.77
704.342	4069.31
704.531	4061.12
704.719	4057.03
704.907	4198.34
705.096	4014.02
705.284	4108.23
705.472	4116.42
705.661	3925.96
705.849	4083.65
706.037	4089.79
706.226	4065.22
706.414	3993.54
706.602	4114.37
706.79	4116.42
706.979	3921.86
707.167	3952.58
707.355	3764.17
707.543	3928
707.731	4016.07
707.919	3868.61
708.107	3852.23
708.296	3764.17
708.484	3706.82
708.672	3999.68
708.86	3823.56
709.048	3852.23
709.236	3876.8
709.424	3798.98
709.612	3782.6
709.8	3647.43
709.988	3622.86
710.176	3803.08
710.364	3755.97
710.551	3696.58
710.739	3643.34
710.927	3708.87
711.115	3626.95
711.303	3567.56
711.491	3712.97
711.679	3620.81
711.866	3712.97
712.054	3751.88
712.242	3590.09
712.43	3626.95
712.617	3633.1
712.805	3391.44
712.993	3418.06
713.181	3393.48
713.368	3583.95
713.556	3430.35
713.744	3499.98
713.931	3524.55
714.119	3557.32
714.306	3385.29
714.494	3604.43
714.682	3377.1
714.869	3375.05
715.057	3465.16
715.244	3413.96
715.432	3432.4
715.619	3352.52
715.807	3438.54
715.994	3373
716.182	3379.15
716.369	3370.96
716.556	3223.5
716.744	3276.75
716.931	3350.48
717.119	3385.29
717.306	3297.23
717.493	3250.13
717.681	3286.99
717.868	3297.23
718.055	3254.22
718.242	3229.65
718.43	3164.11
718.617	3282.89
718.804	3198.93
718.991	3131.34
719.179	3180.5
719.366	3223.5
719.553	3153.87
719.74	3184.59
719.927	3196.88
720.114	3076.05
720.301	3063.76
720.488	3125.2
720.676	3119.06
720.863	3049.43
721.05	3088.34
721.237	3162.06
721.424	3043.28
721.611	3045.33
721.798	2951.12
721.985	2901.97
722.172	2961.36
722.358	2885.59
722.545	3000.27
722.732	3008.47
722.919	3035.09
723.106	2869.2
723.293	3016.66
723.48	2863.06
723.667	2797.53
723.853	2934.74
724.04	2953.17
724.227	2897.88
724.414	2901.97
724.6	3041.23
724.787	2936.79
724.974	2861.01
725.161	2861.01
725.347	2783.19
725.534	2820.05
725.72	2854.87
725.907	2762.71
726.094	2781.14
726.28	2815.96
726.467	2643.93
726.653	2643.93
726.84	2781.14
727.027	2742.23
727.213	2623.45
727.4	2797.53
727.586	2740.18
727.773	2787.29
727.959	2738.13
728.145	2684.89
728.332	2566.1
728.518	2639.83
728.705	2711.51
728.891	2574.3
729.077	2764.76
729.264	2738.13
729.45	2662.36
729.636	2691.03
729.823	2705.37
730.009	2734.04
730.195	2598.87
730.382	2672.6
730.568	2519
730.754	2699.22
730.94	2680.79
731.126	2582.49
731.313	2705.37
731.499	2592.73
731.685	2543.58
731.871	2611.16
732.057	2652.12
732.243	2648.02
732.429	2471.9
732.615	2570.2
732.801	2607.06
732.987	2543.58
733.173	2461.66
733.359	2486.23
733.545	2478.04
733.731	2531.29
733.917	2543.58
734.103	2519
734.289	2535.39
734.475	2590.68
734.661	2576.34
734.847	2516.95
735.033	2443.23
735.219	2426.84
735.404	2420.7
735.59	2404.32
735.776	2389.98
735.962	2459.61
736.148	2400.22
736.333	2484.19
736.519	2379.74
736.705	2408.41
736.89	2322.4
737.076	2387.93
737.262	2281.44
737.447	2441.18
737.633	2224.09
737.819	2373.6
738.004	2281.44
738.19	2254.81
738.375	2265.05
738.561	2303.96
738.747	2246.62
738.932	2224.09
739.118	2271.2
739.303	2306.01
739.489	2217.95
739.674	2236.38
739.859	2185.18
740.045	2238.43
740.23	2164.7
740.416	2142.18
740.601	2246.62
740.786	2172.89
740.972	2181.09
741.157	2131.94
741.342	2074.59
741.528	2160.61
741.713	2062.3
741.898	2176.99
742.084	2074.59
742.269	2050.02
742.454	2086.88
742.639	2142.18
742.824	2072.54
743.01	2029.54
743.195	2115.55
743.38	2054.11
743.565	2099.17
743.75	2050.02
743.935	2002.91
744.12	2004.96
744.305	1959.91
744.49	1961.95
744.675	2021.35
744.86	1955.81
745.045	1880.04
745.23	1947.62
745.415	1861.6
745.6	1968.1
745.785	1974.24
745.97	1988.58
746.155	1837.03
746.34	2004.96
746.525	1894.37
746.71	1982.43
746.895	1865.7
747.079	1867.75
747.264	1873.89
747.449	1927.14
747.634	1775.59
747.819	1920.99
748.003	1748.97
748.188	1648.61
748.373	1796.07
748.557	1781.73
748.742	1814.5
748.927	1853.41
749.111	1652.71
749.296	1630.18
749.481	1677.29
749.665	1683.43
749.85	1656.81
750.034	1611.75
750.219	1675.24
750.404	1585.13
750.588	1714.15
750.773	1603.56
750.957	1585.13
751.141	1544.17
751.326	1716.2
751.51	1533.93
751.695	1525.74
751.879	1435.63
752.064	1617.9
752.248	1589.22
752.432	1593.32
752.617	1632.23
752.801	1601.51
752.985	1572.84
753.17	1607.66
753.354	1531.88
753.538	1452.01
753.722	1394.67
753.907	1400.81
754.091	1429.48
754.275	1550.31
754.459	1361.9
754.643	1355.76
754.828	1378.28
755.012	1404.91
755.196	1417.19
755.38	1361.9
755.564	1247.21
755.748	1284.08
755.932	1409
756.116	1255.4
756.3	1239.02
756.484	1273.84
756.668	1359.85
756.852	1245.17
757.036	1279.98
757.22	1226.73
757.404	1312.75
757.588	1308.65
757.772	1310.7
757.956	1234.93
758.14	1300.46
758.323	1239.02
758.507	1173.49
758.691	1157.1
758.875	1220.59
759.059	1247.21
759.242	1210.35
759.426	1218.54
759.61	1255.4
759.794	1105.9
759.977	1136.62
760.161	1210.35
760.345	1134.57
760.528	1165.29
760.712	1112.05
760.895	1099.76
761.079	1218.54
761.263	1077.23
761.446	1017.84
761.63	1091.57
761.813	1189.87
761.997	1161.2
762.18	1110
762.364	1052.66
762.547	1050.61
762.731	1050.61
762.914	1103.86
763.098	1075.18
763.281	1107.95
763.464	1026.03
763.648	1009.65
763.831	1064.94
764.015	1023.98
764.198	1032.18
764.381	935.92
764.564	1001.46
764.748	1017.84
764.931	1009.65
765.114	978.93
765.297	993.26
765.481	976.88
765.664	1071.09
765.847	911.35
766.03	1054.7
766.213	978.93
766.397	927.73
766.58	937.97
766.763	968.69
766.946	993.26
767.129	1009.65
767.312	899.06
767.495	950.26
767.678	968.69
767.861	1019.89
768.044	864.24
768.227	940.02
768.41	886.77
768.593	950.26
768.776	897.01
768.959	923.63
769.142	1011.7
769.324	919.54
769.507	913.39
769.69	874.48
769.873	819.19
770.056	917.49
770.239	841.72
770.421	860.15
770.604	823.28
770.787	874.48
770.97	790.52
771.152	856.05
771.335	870.39
771.518	837.62
771.7	905.2
771.883	905.2
772.066	937.97
772.248	851.96
772.431	845.81
772.613	796.66
772.796	780.28
772.978	835.57
773.161	813.04
773.343	806.9
773.526	794.61
773.708	649.21
773.891	817.14
774.073	763.89
774.256	747.51
774.438	774.13
774.621	770.04
774.803	774.13
774.985	776.18
775.168	720.88
775.35	739.32
775.532	780.28
775.715	790.52
775.897	681.97
776.079	667.64
776.261	767.99
776.444	669.69
776.626	808.95
776.808	714.74
776.99	698.36
777.173	757.75
777.355	782.32
777.537	716.79
777.719	706.55
777.901	661.49
778.083	641.01
778.265	735.22
778.447	706.55
778.629	686.07
778.811	628.73
778.993	618.49
779.175	702.45
779.357	722.93
779.539	624.63
779.721	667.64
779.903	657.4
780.085	575.48
780.267	649.21
780.449	598.01
780.631	583.67
780.812	696.31
780.994	602.1
781.176	585.72
781.358	536.57
781.54	643.06
781.721	649.21
781.903	552.95
782.085	622.58
782.267	555
782.448	511.99
782.63	493.56
782.812	530.42
782.993	567.29
783.175	591.86
783.357	526.33
783.538	546.81
783.72	473.08
783.901	495.61
784.083	514.04
784.264	542.71
784.446	489.46
784.627	528.38
784.809	610.29
784.99	536.57
785.172	536.57
785.353	542.71
785.535	460.79
785.716	452.6
785.897	444.41
786.079	438.27
786.26	403.45
786.441	419.83
786.623	442.36
786.804	362.49
786.985	481.27
787.167	444.41
787.348	479.22
787.529	432.12
787.71	481.27
787.891	503.8
788.073	456.7
788.254	354.3
788.435	436.22
788.616	395.26
788.797	333.82
788.978	409.59
789.159	370.68
789.34	421.88
789.522	382.97
789.703	403.45
789.884	407.55
790.065	393.21
790.246	432.12
790.427	346.11
790.607	432.12
790.788	354.3
790.969	403.45
791.15	485.37
791.331	378.87
791.512	380.92
791.693	268.28
791.874	346.11
792.054	466.94
792.235	415.74
792.416	342.01
792.597	337.91
792.778	407.55
792.958	376.83
793.139	325.63
793.32	411.64
793.5	321.53
793.681	325.63
793.862	350.2
794.042	366.59
794.223	317.44
794.404	282.62
794.584	284.67
794.765	305.15
794.945	315.39
795.126	321.53
795.306	329.72
795.487	329.72
795.667	339.96
795.848	288.76
796.028	256
796.209	294.91
796.389	309.24
796.57	270.33
796.75	305.15
796.93	276.48
797.111	233.47
797.291	305.15
797.471	276.48
797.652	333.82
797.832	266.24
798.012	346.11
798.192	266.24
798.373	124.93
798.553	299
798.733	288.76
798.913	239.61
799.093	225.28
799.274	229.37
799.454	325.63
799.634	280.57
799.814	323.58
799.994	282.62
800.174	274.43
800.354	290.81
800.534	237.56
800.714	233.47
800.894	206.84
801.074	284.67
801.254	239.61
801.434	260.09
801.614	315.39
801.794	176.13
801.974	821.24
802.154	280.57
802.334	247.8
802.514	202.75
802.693	217.08
802.873	231.42
803.053	282.62
803.233	239.61
803.413	184.32
803.592	239.61
803.772	184.32
803.952	210.94
804.131	190.46
804.311	208.89
804.491	223.23
804.67	206.84
804.85	223.23
805.03	272.38
805.209	313.34
805.389	212.99
805.568	227.32
805.748	202.75
805.928	229.37
806.107	163.84
806.287	174.08
806.466	260.09
806.646	174.08
806.825	157.69
807.004	133.12
807.184	161.79
807.363	215.04
807.543	186.37
807.722	153.6
807.901	292.86
808.081	221.18
808.26	124.93
808.439	266.24
808.619	219.13
808.798	217.08
808.977	235.52
809.156	231.42
809.336	190.46
809.515	247.8
809.694	137.21
809.873	217.08
810.052	157.69
810.231	129.02
810.411	243.71
810.59	260.09
810.769	143.36
810.948	260.09
811.127	124.93
811.306	149.5
811.485	155.65
811.664	182.27
811.843	124.93
812.022	182.27
812.201	190.46
812.38	124.93
812.559	120.83
812.737	147.45
812.916	137.21
813.095	141.31
813.274	239.61
813.453	83.97
813.632	96.25
813.811	190.46
813.989	120.83
814.168	145.41
814.347	151.55
814.526	139.26
814.704	192.51
814.883	323.58
815.062	176.13
815.24	141.31
815.419	59.39
815.598	167.93
815.776	151.55
815.955	145.41
816.133	71.68
816.312	157.69
816.49	116.73
816.669	208.89
816.847	141.31
817.026	157.69
817.204	96.25
817.383	141.31
817.561	108.54
817.74	190.46
817.918	141.31
818.097	141.31
818.275	59.39
818.453	200.7
818.632	137.21
818.81	157.69
818.988	124.93
819.167	86.01
819.345	79.87
819.523	102.4
819.701	129.02
819.879	129.02
820.058	77.82
820.236	176.13
820.414	176.13
820.592	174.08
820.77	126.97
820.948	129.02
821.127	53.25
821.305	92.16
821.483	163.84
821.661	81.92
821.839	116.73
822.017	133.12
822.195	94.21
822.373	161.79
822.551	178.17
822.729	100.35
822.907	77.82
823.085	104.45
823.262	83.97
823.44	67.58
823.618	108.54
823.796	126.97
823.974	88.06
824.152	69.63
824.329	135.17
824.507	206.84
824.685	102.4
824.863	112.64
825.04	53.25
825.218	139.26
825.396	51.2
825.574	141.31
825.751	129.02
825.929	149.5
826.107	163.84
826.284	120.83
826.462	141.31
826.639	55.3
826.817	47.1
826.994	122.88
827.172	53.25
827.349	137.21
827.527	104.45
827.704	94.21
827.882	153.6
828.059	57.34
828.237	100.35
828.414	77.82
828.591	83.97
828.769	114.69
828.946	161.79
829.124	129.02
829.301	135.17
829.478	94.21
829.655	77.82
829.833	145.41
830.01	131.07
830.187	112.64
830.364	8.19
830.542	110.59
830.719	176.13
830.896	69.63
831.073	67.58
831.25	118.78
831.427	92.16
831.604	88.06
831.782	118.78
831.959	40.96
832.136	79.87
832.313	141.31
832.49	77.82
832.667	137.21
832.844	88.06
833.021	182.27
833.198	110.59
833.374	92.16
833.551	112.64
833.728	81.92
833.905	100.35
834.082	22.53
834.259	100.35
834.436	110.59
834.612	73.73
834.789	77.82
834.966	43.01
835.143	100.35
835.319	12.29
835.496	126.97
835.673	69.63
835.85	92.16
836.026	88.06
836.203	118.78
836.38	71.68
836.556	34.82
836.733	36.86
836.909	145.41
837.086	6.14
837.262	20.48
837.439	67.58
837.616	100.35
837.792	83.97
837.968	71.68
838.145	6.14
838.321	34.82
838.498	69.63
838.674	110.59
838.851	-26.62
839.027	73.73
839.203	45.06
839.38	124.93
839.556	18.43
839.732	112.64
839.909	18.43
840.085	67.58
840.261	92.16
840.437	59.39
840.614	90.11
840.79	100.35
840.966	69.63
841.142	45.06
841.318	51.2
841.494	-4.1
841.671	75.77
841.847	67.58
842.023	61.44
842.199	86.01
842.375	59.39
842.551	75.77
842.727	77.82
842.903	98.3
843.079	67.58
843.255	100.35
843.431	-24.58
843.607	75.77
843.783	2.05
843.959	47.1
844.134	45.06
844.31	108.54
844.486	92.16
844.662	59.39
844.838	67.58
845.013	40.96
845.189	2.05
845.365	67.58
845.541	102.4
845.716	100.35
845.892	79.87
846.068	75.77
846.244	-6.14
846.419	67.58
846.595	75.77
846.77	6.14
846.946	92.16
847.122	2.05
847.297	53.25
847.473	100.35
847.648	24.58
847.824	77.82
847.999	26.62
848.175	65.54
848.35	14.34
848.526	59.39
848.701	22.53
848.876	92.16
849.052	38.91
849.227	34.82
849.403	22.53
849.578	55.3
849.753	59.39
849.929	124.93
850.104	38.91
850.279	45.06
850.454	18.43
850.63	12.29
850.805	30.72
850.98	94.21
851.155	43.01
851.33	53.25
851.505	30.72
851.681	116.73
851.856	34.82
852.031	-43.01
852.206	20.48
852.381	18.43
852.556	34.82
852.731	-10.24
852.906	108.54
853.081	143.36
853.256	59.39
853.431	-6.14
853.606	67.58
853.781	100.35
853.956	-18.43
854.131	51.2
854.305	-45.06
854.48	83.97
854.655	-55.3
854.83	61.44
855.005	38.91
855.18	-43.01
855.354	2.05
855.529	-6.14
855.704	2.05
855.879	71.68
856.053	14.34
856.228	92.16
856.403	34.82
856.577	90.11
856.752	36.86
856.926	10.24
857.101	-26.62
857.276	61.44
857.45	36.86
857.625	141.31
857.799	73.73
857.974	-43.01
858.148	-8.19
858.323	51.2
858.497	61.44
858.672	73.73
858.846	30.72
859.02	12.29
859.195	49.15
859.369	18.43
859.543	26.62
859.718	24.58
859.892	26.62
860.066	18.43
860.241	61.44
860.415	-26.62
860.589	-55.3
860.763	14.34
860.938	12.29
861.112	30.72
861.286	26.62
861.46	65.54
861.634	67.58
861.808	30.72
861.982	0
862.157	28.67
862.331	40.96
862.505	-18.43
862.679	-34.82
862.853	2.05
863.027	32.77
863.201	61.44
863.375	90.11
863.549	75.77
863.722	51.2
863.896	51.2
864.07	-34.82
864.244	-51.2
864.418	26.62
864.592	67.58
864.766	-40.96
864.939	-4.1
865.113	36.86
865.287	100.35
865.461	34.82
865.634	-4.1
865.808	34.82
865.982	24.58
866.156	49.15
866.329	-47.1
866.503	92.16
866.676	75.77
866.85	36.86
867.024	-53.25
867.197	22.53
867.371	34.82
867.544	-30.72
867.718	-8.19
867.891	26.62
868.065	26.62
868.238	14.34
868.412	51.2
868.585	100.35
868.759	108.54
868.932	-47.1
869.105	57.34
869.279	43.01
869.452	-12.29
869.625	59.39
869.799	-14.34
869.972	18.43
870.145	4.1
870.319	141.31
870.492	51.2
870.665	36.86
870.838	-38.91
871.011	-34.82
871.185	24.58
871.358	59.39
871.531	38.91
871.704	40.96
871.877	-2.05
872.05	-2.05
872.223	-14.34
872.396	83.97
872.569	77.82
872.742	10.24
872.915	16.38
873.088	6.14
873.261	-34.82
873.434	-32.77
873.607	12.29
873.78	14.34
873.953	-22.53
874.126	-63.49
874.299	-14.34
874.471	2.05
874.644	-6.14
874.817	59.39
874.99	34.82
875.163	26.62
875.335	16.38
875.508	12.29
875.681	81.92
875.853	-30.72
876.026	-22.53
876.199	24.58
876.371	55.3
876.544	26.62
876.717	22.53
876.889	2.05
877.062	24.58
877.234	-40.96
877.407	45.06
877.579	-32.77
877.752	34.82
877.924	-2.05
878.097	-14.34
878.269	30.72
878.442	18.43
878.614	-71.68
878.786	47.1
878.959	14.34
879.131	47.1
879.303	-47.1
879.476	73.73
879.648	55.3
879.82	2.05
879.993	43.01
880.165	22.53
880.337	-34.82
880.509	34.82
880.681	28.67
880.854	10.24
881.026	18.43
881.198	57.34
881.37	-26.62
881.542	-20.48
881.714	-47.1
881.886	43.01
882.058	18.43
882.23	106.49
882.402	86.01
882.574	71.68
882.746	28.67
882.918	71.68
883.09	18.43
883.262	26.62
883.434	53.25
883.606	-30.72
883.778	-14.34
883.95	45.06
884.122	-77.82
884.293	75.77
884.465	18.43
884.637	77.82
884.809	-77.82
884.98	26.62
885.152	55.3
885.324	-49.15
885.496	36.86
885.667	-6.14
885.839	-88.06
886.011	-6.14
886.182	-22.53
886.354	10.24
886.525	-4.1
886.697	73.73
886.869	28.67
887.04	38.91
887.212	-6.14
887.383	59.39
887.555	-18.43
887.726	22.53
887.897	4.1
888.069	63.49
888.24	102.4
888.412	-71.68
888.583	-73.73
888.754	-28.67
888.926	-4.1
889.097	-18.43
889.268	-47.1
889.44	34.82
889.611	10.24
889.782	-6.14
889.953	18.43
890.125	12.29
890.296	-43.01
890.467	-24.58
890.638	12.29
890.809	-30.72
890.98	12.29
891.151	100.35
891.323	47.1
891.494	12.29
891.665	86.01
891.836	-36.86
892.007	2.05
892.178	-12.29
892.349	26.62
892.52	-6.14
892.691	2.05
892.862	51.2
893.032	-38.91
893.203	18.43
893.374	-32.77
893.545	34.82
893.716	14.34
893.887	0
894.057	-43.01
894.228	10.24
894.399	-12.29
894.57	49.15
894.74	-14.34
894.911	-10.24
895.082	38.91
895.253	-45.06
895.423	-18.43
895.594	49.15
895.764	-38.91
895.935	-18.43
896.106	-45.06
896.276	-20.48
896.447	10.24
896.617	2.05
896.788	-28.67
896.958	2.05
897.129	-4.1
897.299	18.43
897.47	92.16
897.64	14.34
897.81	28.67
897.981	86.01
898.151	18.43
898.322	108.54
898.492	-6.14
898.662	10.24
898.832	-47.1
899.003	51.2
899.173	-2.05
899.343	-22.53
899.513	4.1
