Data from USB4F104151__61__14-30-07-655.txt Node

Date: Thu Mar 13 14:30:07 EDT 2025
User: louis
Spectrometer: USB4F10415
Trigger mode: 4
Integration Time (sec): 2.500000E-2
Scans to average: 1
Electric dark correction enabled: true
Nonlinearity correction enabled: false
Boxcar width: 0
XAxis mode: Wavelengths
Number of Pixels in Spectrum: 3648
>>>>>Begin Spectral Data<<<<<
178.204	-128.85
178.424	-128.85
178.644	-128.85
178.864	-165.71
179.084	-85.84
179.304	-28.5
179.524	0.17
179.744	0.17
179.964	-22.36
180.184	14.51
180.404	43.18
180.624	28.84
180.844	43.18
181.064	-38.74
181.283	-38.74
181.503	-55.12
181.723	53.42
181.943	-63.32
182.163	53.42
182.383	4.27
182.602	37.03
182.822	59.56
183.042	22.7
183.262	4.27
183.482	12.46
183.701	6.31
183.921	8.36
184.141	45.23
184.361	10.41
184.58	77.99
184.8	-3.93
185.02	-10.07
185.239	49.32
185.459	18.6
185.679	53.42
185.898	-12.12
186.118	47.27
186.338	2.22
186.557	-20.31
186.777	-34.64
186.997	45.23
187.216	-73.56
187.436	8.36
187.655	49.32
187.875	14.51
188.095	16.55
188.314	2.22
188.534	57.51
188.753	-42.84
188.973	51.37
189.192	24.75
189.412	61.61
189.631	51.37
189.851	53.42
190.07	63.66
190.29	-77.65
190.509	-28.5
190.729	-5.97
190.948	43.18
191.168	139.43
191.387	47.27
191.607	20.65
191.826	4.27
192.045	22.7
192.265	47.27
192.484	63.66
192.704	26.79
192.923	-26.45
193.142	159.91
193.362	26.79
193.581	8.36
193.8	16.55
194.02	116.9
194.239	-30.55
194.458	4.27
194.678	53.42
194.897	-26.45
195.116	34.99
195.335	67.75
195.555	12.46
195.774	28.84
195.993	-30.55
196.212	37.03
196.432	18.6
196.651	-14.17
196.87	-26.45
197.089	92.33
197.308	131.24
197.528	84.14
197.747	-10.07
197.966	112.81
198.185	69.8
198.404	-40.79
198.623	45.23
198.842	43.18
199.062	-87.89
199.281	30.89
199.5	59.56
199.719	55.47
199.938	26.79
200.157	86.19
200.376	2.22
200.595	49.32
200.814	-5.97
201.033	2.22
201.252	80.04
201.471	59.56
201.69	67.75
201.909	-20.31
202.128	28.84
202.347	63.66
202.566	69.8
202.785	63.66
203.004	-5.97
203.223	112.81
203.442	39.08
203.661	39.08
203.879	65.71
204.098	-30.55
204.317	-10.07
204.536	45.23
204.755	20.65
204.974	47.27
205.193	14.51
205.411	141.48
205.63	26.79
205.849	10.41
206.068	57.51
206.287	-46.93
206.505	141.48
206.724	51.37
206.943	-10.07
207.162	10.41
207.381	73.9
207.599	-30.55
207.818	67.75
208.037	47.27
208.255	-40.79
208.474	53.42
208.693	-5.97
208.911	-8.02
209.13	-38.74
209.349	-46.93
209.567	34.99
209.786	-63.32
210.005	14.51
210.223	63.66
210.442	-96.08
210.661	59.56
210.879	26.79
211.098	4.27
211.316	10.41
211.535	47.27
211.753	100.52
211.972	61.61
212.191	30.89
212.409	125.1
212.628	-5.97
212.846	43.18
213.065	18.6
213.283	2.22
213.502	34.99
213.72	39.08
213.938	12.46
214.157	75.95
214.375	80.04
214.594	-16.21
214.812	39.08
215.031	45.23
215.249	28.84
215.467	61.61
215.686	114.86
215.904	-28.5
216.122	10.41
216.341	71.85
216.559	51.37
216.778	82.09
216.996	67.75
217.214	2.22
217.432	28.84
217.651	-53.08
217.869	-3.93
218.087	34.99
218.306	-22.36
218.524	-5.97
218.742	-30.55
218.96	28.84
219.179	71.85
219.397	18.6
219.615	57.51
219.833	-28.5
220.051	59.56
220.27	77.99
220.488	-1.88
220.706	45.23
220.924	-20.31
221.142	4.27
221.36	37.03
221.578	41.13
221.796	10.41
222.015	-20.31
222.233	-20.31
222.451	90.28
222.669	-38.74
222.887	37.03
223.105	-26.45
223.323	-10.07
223.541	-12.12
223.759	59.56
223.977	67.75
224.195	53.42
224.413	-12.12
224.631	67.75
224.849	26.79
225.067	67.75
225.285	10.41
225.503	51.37
225.721	34.99
225.939	28.84
226.157	59.56
226.375	143.53
226.592	75.95
226.81	47.27
227.028	71.85
227.246	112.81
227.464	-14.17
227.682	-36.69
227.9	65.71
228.117	28.84
228.335	-38.74
228.553	-5.97
228.771	6.31
228.989	53.42
229.206	0.17
229.424	69.8
229.642	39.08
229.86	-14.17
230.077	63.66
230.295	26.79
230.513	84.14
230.731	10.41
230.948	141.48
231.166	112.81
231.384	-53.08
231.601	2.22
231.819	43.18
232.037	-5.97
232.254	-20.31
232.472	28.84
232.689	28.84
232.907	-5.97
233.125	133.29
233.342	59.56
233.56	8.36
233.777	57.51
233.995	34.99
234.213	110.76
234.43	69.8
234.648	73.9
234.865	22.7
235.083	61.61
235.3	43.18
235.518	53.42
235.735	106.67
235.953	49.32
236.17	-18.26
236.388	20.65
236.605	61.61
236.822	71.85
237.04	16.55
237.257	-14.17
237.475	-8.02
237.692	6.31
237.909	30.89
238.127	53.42
238.344	14.51
238.562	96.43
238.779	-14.17
238.996	-20.31
239.214	67.75
239.431	51.37
239.648	-22.36
239.865	67.75
240.083	41.13
240.3	-34.64
240.517	16.55
240.735	53.42
240.952	39.08
241.169	2.22
241.386	37.03
241.603	-10.07
241.821	2.22
242.038	77.99
242.255	10.41
242.472	-5.97
242.689	-30.55
242.907	92.33
243.124	10.41
243.341	-5.97
243.558	43.18
243.775	59.56
243.992	2.22
244.209	61.61
244.426	2.22
244.643	4.27
244.86	-12.12
245.078	51.37
245.295	84.14
245.512	84.14
245.729	2.22
245.946	106.67
246.163	69.8
246.38	-69.46
246.597	51.37
246.814	28.84
247.031	22.7
247.248	-14.17
247.464	55.47
247.681	-46.93
247.898	-8.02
248.115	34.99
248.332	-20.31
248.549	28.84
248.766	65.71
248.983	55.47
249.2	34.99
249.417	57.51
249.633	-53.08
249.85	-18.26
250.067	-12.12
250.284	51.37
250.501	51.37
250.717	53.42
250.934	45.23
251.151	-5.97
251.368	22.7
251.585	-18.26
251.801	-8.02
252.018	80.04
252.235	-24.4
252.451	28.84
252.668	-42.84
252.885	37.03
253.102	14.51
253.318	2.22
253.535	39.08
253.752	30.89
253.968	10.41
254.185	67.75
254.401	30.89
254.618	22.7
254.835	-46.93
255.051	100.52
255.268	41.13
255.484	86.19
255.701	6.31
255.917	153.77
256.134	-71.51
256.351	47.27
256.567	37.03
256.784	-12.12
257	-5.97
257.217	26.79
257.433	12.46
257.65	57.51
257.866	57.51
258.082	-34.64
258.299	-44.88
258.515	43.18
258.732	-38.74
258.948	22.7
259.165	-26.45
259.381	26.79
259.597	67.75
259.814	34.99
260.03	-10.07
260.246	26.79
260.463	61.61
260.679	63.66
260.895	28.84
261.112	18.6
261.328	2.22
261.544	24.75
261.761	26.79
261.977	26.79
262.193	-59.22
262.409	59.56
262.626	34.99
262.842	45.23
263.058	-20.31
263.274	-20.31
263.49	0.17
263.707	37.03
263.923	100.52
264.139	18.6
264.355	-36.69
264.571	86.19
264.787	80.04
265.004	39.08
265.22	14.51
265.436	20.65
265.652	28.84
265.868	34.99
266.084	-26.45
266.3	-38.74
266.516	-75.6
266.732	77.99
266.948	41.13
267.164	82.09
267.38	80.04
267.596	6.31
267.812	43.18
268.028	90.28
268.244	-12.12
268.46	63.66
268.676	125.1
268.892	61.61
269.108	-51.03
269.324	14.51
269.54	-1.88
269.756	18.6
269.972	47.27
270.188	6.31
270.403	-71.51
270.619	53.42
270.835	-26.45
271.051	41.13
271.267	-22.36
271.483	16.55
271.698	-30.55
271.914	-5.97
272.13	41.13
272.346	63.66
272.562	61.61
272.777	22.7
272.993	118.95
273.209	18.6
273.425	92.33
273.64	-75.6
273.856	-1.88
274.072	-32.6
274.287	32.94
274.503	43.18
274.719	-22.36
274.934	22.7
275.15	-28.5
275.366	-24.4
275.581	-34.64
275.797	51.37
276.012	34.99
276.228	45.23
276.444	26.79
276.659	47.27
276.875	-69.46
277.09	16.55
277.306	75.95
277.521	-30.55
277.737	-3.93
277.952	59.56
278.168	-20.31
278.383	12.46
278.599	-1.88
278.814	43.18
279.03	10.41
279.245	39.08
279.461	63.66
279.676	10.41
279.892	39.08
280.107	-10.07
280.322	10.41
280.538	41.13
280.753	2.22
280.969	75.95
281.184	73.9
281.399	61.61
281.615	18.6
281.83	104.62
282.045	-3.93
282.26	10.41
282.476	37.03
282.691	30.89
282.906	69.8
283.122	53.42
283.337	-22.36
283.552	18.6
283.767	-18.26
283.983	67.75
284.198	49.32
284.413	-14.17
284.628	10.41
284.843	-5.97
285.058	102.57
285.274	51.37
285.489	-18.26
285.704	-38.74
285.919	10.41
286.134	71.85
286.349	28.84
286.564	69.8
286.779	12.46
286.995	-3.93
287.21	12.46
287.425	84.14
287.64	-44.88
287.855	16.55
288.07	2.22
288.285	75.95
288.5	84.14
288.715	30.89
288.93	49.32
289.145	86.19
289.36	63.66
289.575	51.37
289.79	10.41
290.004	-44.88
290.219	100.52
290.434	59.56
290.649	12.46
290.864	92.33
291.079	-18.26
291.294	32.94
291.509	86.19
291.724	-18.26
291.938	30.89
292.153	22.7
292.368	116.9
292.583	69.8
292.798	51.37
293.012	88.23
293.227	-20.31
293.442	-42.84
293.657	43.18
293.871	75.95
294.086	110.76
294.301	43.18
294.516	34.99
294.73	69.8
294.945	-55.12
295.16	34.99
295.374	43.18
295.589	43.18
295.804	14.51
296.018	34.99
296.233	86.19
296.447	32.94
296.662	14.51
296.877	67.75
297.091	16.55
297.306	28.84
297.52	-28.5
297.735	37.03
297.949	61.61
298.164	-30.55
298.378	18.6
298.593	18.6
298.807	-63.32
299.022	45.23
299.236	-14.17
299.451	8.36
299.665	34.99
299.88	61.61
300.094	51.37
300.309	10.41
300.523	65.71
300.737	53.42
300.952	-26.45
301.166	47.27
301.381	30.89
301.595	-8.02
301.809	26.79
302.024	-38.74
302.238	-104.28
302.452	30.89
302.667	12.46
302.881	116.9
303.095	-28.5
303.309	22.7
303.524	-69.46
303.738	43.18
303.952	-20.31
304.166	51.37
304.381	34.99
304.595	53.42
304.809	26.79
305.023	65.71
305.237	51.37
305.452	100.52
305.666	82.09
305.88	47.27
306.094	43.18
306.308	0.17
306.522	34.99
306.736	-5.97
306.95	-5.97
307.164	10.41
307.379	-30.55
307.593	53.42
307.807	88.23
308.021	75.95
308.235	43.18
308.449	10.41
308.663	-18.26
308.877	137.38
309.091	39.08
309.305	14.51
309.519	-79.7
309.733	37.03
309.947	-46.93
310.161	82.09
310.374	16.55
310.588	71.85
310.802	-22.36
311.016	59.56
311.23	43.18
311.444	2.22
311.658	-3.93
311.872	59.56
312.085	67.75
312.299	10.41
312.513	84.14
312.727	14.51
312.941	57.51
313.154	-22.36
313.368	71.85
313.582	12.46
313.796	34.99
314.009	-22.36
314.223	20.65
314.437	-3.93
314.651	34.99
314.864	18.6
315.078	59.56
315.292	12.46
315.505	-1.88
315.719	59.56
315.933	-3.93
316.146	34.99
316.36	-14.17
316.573	67.75
316.787	4.27
317.001	4.27
317.214	-1.88
317.428	4.27
317.641	18.6
317.855	32.94
318.068	73.9
318.282	-38.74
318.495	67.75
318.709	28.84
318.922	96.43
319.136	71.85
319.349	80.04
319.563	80.04
319.776	73.9
319.99	20.65
320.203	55.47
320.417	41.13
320.63	-10.07
320.843	86.19
321.057	16.55
321.27	-26.45
321.483	92.33
321.697	96.43
321.91	80.04
322.124	77.99
322.337	16.55
322.55	84.14
322.763	88.23
322.977	59.56
323.19	-22.36
323.403	41.13
323.617	67.75
323.83	12.46
324.043	41.13
324.256	53.42
324.469	-55.12
324.683	51.37
324.896	59.56
325.109	28.84
325.322	-42.84
325.535	-14.17
325.748	96.43
325.962	100.52
326.175	51.37
326.388	22.7
326.601	-30.55
326.814	-18.26
327.027	47.27
327.24	110.76
327.453	55.47
327.666	14.51
327.879	71.85
328.092	100.52
328.305	26.79
328.518	-3.93
328.731	-5.97
328.944	77.99
329.157	26.79
329.37	30.89
329.583	37.03
329.796	133.29
330.009	-38.74
330.222	80.04
330.435	47.27
330.648	86.19
330.861	-38.74
331.073	10.41
331.286	71.85
331.499	30.89
331.712	12.46
331.925	34.99
332.138	69.8
332.35	-38.74
332.563	12.46
332.776	53.42
332.989	26.79
333.202	26.79
333.414	47.27
333.627	26.79
333.84	53.42
334.053	63.66
334.265	43.18
334.478	12.46
334.691	18.6
334.903	-18.26
335.116	34.99
335.329	12.46
335.541	20.65
335.754	102.57
335.966	39.08
336.179	28.84
336.392	86.19
336.604	-38.74
336.817	14.51
337.029	71.85
337.242	4.27
337.454	77.99
337.667	88.23
337.88	6.31
338.092	0.17
338.305	69.8
338.517	22.7
338.729	80.04
338.942	84.14
339.154	77.99
339.367	-22.36
339.579	55.47
339.792	-20.31
340.004	26.79
340.217	-26.45
340.429	18.6
340.641	-28.5
340.854	-38.74
341.066	92.33
341.278	92.33
341.491	94.38
341.703	43.18
341.915	26.79
342.128	28.84
342.34	47.27
342.552	20.65
342.764	30.89
342.977	-1.88
343.189	4.27
343.401	37.03
343.613	18.6
343.826	121
344.038	30.89
344.25	10.41
344.462	28.84
344.674	10.41
344.886	71.85
345.099	4.27
345.311	39.08
345.523	51.37
345.735	-18.26
345.947	53.42
346.159	30.89
346.371	26.79
346.583	47.27
346.795	43.18
347.007	34.99
347.219	6.31
347.431	-5.97
347.643	22.7
347.855	-44.88
348.067	159.91
348.279	24.75
348.491	34.99
348.703	57.51
348.915	88.23
349.127	47.27
349.339	51.37
349.551	61.61
349.763	55.47
349.975	8.36
350.187	43.18
350.399	30.89
350.61	51.37
350.822	-8.02
351.034	67.75
351.246	26.79
351.458	102.57
351.669	34.99
351.881	53.42
352.093	80.04
352.305	114.86
352.517	67.75
352.728	77.99
352.94	20.65
353.152	61.61
353.363	-1.88
353.575	-5.97
353.787	61.61
353.999	108.71
354.21	39.08
354.422	37.03
354.633	2.22
354.845	37.03
355.057	18.6
355.268	88.23
355.48	82.09
355.692	26.79
355.903	26.79
356.115	2.22
356.326	22.7
356.538	112.81
356.749	51.37
356.961	8.36
357.172	-3.93
357.384	45.23
357.595	71.85
357.807	71.85
358.018	-14.17
358.23	16.55
358.441	84.14
358.653	86.19
358.864	41.13
359.075	59.56
359.287	-38.74
359.498	67.75
359.709	-1.88
359.921	-8.02
360.132	53.42
360.344	49.32
360.555	71.85
360.766	26.79
360.977	77.99
361.189	43.18
361.4	47.27
361.611	-3.93
361.823	37.03
362.034	84.14
362.245	6.31
362.456	-18.26
362.667	57.51
362.879	102.57
363.09	2.22
363.301	59.56
363.512	69.8
363.723	43.18
363.935	59.56
364.146	63.66
364.357	63.66
364.568	75.95
364.779	63.66
364.99	63.66
365.201	39.08
365.412	149.67
365.623	-22.36
365.834	90.28
366.045	20.65
366.256	71.85
366.467	65.71
366.678	-8.02
366.889	26.79
367.1	-14.17
367.311	143.53
367.522	69.8
367.733	14.51
367.944	100.52
368.155	73.9
368.366	43.18
368.577	104.62
368.788	34.99
368.999	-46.93
369.209	43.18
369.42	92.33
369.631	141.48
369.842	63.66
370.053	18.6
370.264	12.46
370.474	75.95
370.685	65.71
370.896	53.42
371.107	75.95
371.317	14.51
371.528	-12.12
371.739	71.85
371.95	-12.12
372.16	92.33
372.371	94.38
372.582	80.04
372.792	51.37
373.003	121
373.214	12.46
373.424	18.6
373.635	6.31
373.846	37.03
374.056	59.56
374.267	18.6
374.477	-12.12
374.688	10.41
374.898	102.57
375.109	98.47
375.319	39.08
375.53	100.52
375.74	88.23
375.951	10.41
376.161	28.84
376.372	116.9
376.582	82.09
376.793	37.03
377.003	-3.93
377.214	69.8
377.424	18.6
377.635	53.42
377.845	28.84
378.055	104.62
378.266	26.79
378.476	63.66
378.686	37.03
378.897	28.84
379.107	71.85
379.317	2.22
379.528	49.32
379.738	59.56
379.948	63.66
380.158	12.46
380.369	-14.17
380.579	39.08
380.789	26.79
380.999	96.43
381.21	94.38
381.42	106.67
381.63	80.04
381.84	118.95
382.05	75.95
382.261	59.56
382.471	100.52
382.681	28.84
382.891	86.19
383.101	168.1
383.311	63.66
383.521	34.99
383.731	102.57
383.941	43.18
384.151	12.46
384.361	53.42
384.571	20.65
384.781	61.61
384.991	133.29
385.201	135.34
385.411	55.47
385.621	69.8
385.831	45.23
386.041	55.47
386.251	-12.12
386.461	94.38
386.671	-3.93
386.881	61.61
387.091	96.43
387.301	26.79
387.511	37.03
387.72	75.95
387.93	-5.97
388.14	-12.12
388.35	71.85
388.56	18.6
388.769	100.52
388.979	108.71
389.189	59.56
389.399	45.23
389.609	92.33
389.818	86.19
390.028	22.7
390.238	26.79
390.447	-44.88
390.657	77.99
390.867	108.71
391.076	100.52
391.286	26.79
391.496	-14.17
391.705	94.38
391.915	108.71
392.125	10.41
392.334	82.09
392.544	75.95
392.753	90.28
392.963	26.79
393.172	75.95
393.382	59.56
393.591	108.71
393.801	55.47
394.01	149.67
394.22	67.75
394.429	34.99
394.639	-12.12
394.848	155.82
395.058	63.66
395.267	77.99
395.477	37.03
395.686	84.14
395.895	217.26
396.105	100.52
396.314	112.81
396.524	92.33
396.733	51.37
396.942	69.8
397.152	110.76
397.361	51.37
397.57	106.67
397.78	94.38
397.989	125.1
398.198	121
398.407	135.34
398.617	96.43
398.826	32.94
399.035	121
399.244	80.04
399.453	94.38
399.663	75.95
399.872	116.9
400.081	96.43
400.29	82.09
400.499	123.05
400.708	149.67
400.917	80.04
401.127	98.47
401.336	49.32
401.545	182.44
401.754	118.95
401.963	166.06
402.172	172.2
402.381	110.76
402.59	104.62
402.799	88.23
403.008	112.81
403.217	100.52
403.426	174.25
403.635	106.67
403.844	100.52
404.053	170.15
404.262	159.91
404.471	211.11
404.68	137.38
404.888	149.67
405.097	137.38
405.306	157.86
405.515	192.68
405.724	202.92
405.933	223.4
406.142	231.59
406.35	182.44
406.559	272.55
406.768	211.11
406.977	276.65
407.185	157.86
407.394	321.7
407.603	215.21
407.812	260.26
408.02	284.84
408.229	241.83
408.438	307.37
408.646	272.55
408.855	323.75
409.064	290.98
409.272	336.04
409.481	366.76
409.69	327.85
409.898	362.66
410.107	354.47
410.315	352.42
410.524	377
410.733	389.28
410.941	338.09
411.15	411.81
411.358	415.91
411.567	501.92
411.775	460.96
411.984	444.58
412.192	456.87
412.401	503.97
412.609	561.31
412.818	567.46
413.026	626.85
413.234	559.27
413.443	673.95
413.651	671.9
413.86	690.34
414.068	733.34
414.276	813.21
414.485	659.62
414.693	759.97
414.901	764.06
415.11	845.98
415.318	895.13
415.526	895.13
415.734	940.19
415.943	903.32
416.151	1067.16
416.359	1026.2
416.567	1069.21
416.776	1071.26
416.984	1018.01
417.192	1099.93
417.4	1214.62
417.608	1124.51
417.817	1321.11
418.025	1353.88
418.233	1386.65
418.441	1364.12
418.649	1487
418.857	1495.19
419.065	1656.98
419.273	1484.95
419.481	1595.54
419.689	1673.36
419.897	1788.05
420.105	1697.94
420.313	1804.43
420.521	1941.65
420.729	1960.08
420.937	2062.48
421.145	2259.08
421.353	2160.78
421.561	2341
421.769	2341
421.977	2510.98
422.185	2506.88
422.393	2592.9
422.601	2693.25
422.809	2721.92
423.017	2877.57
423.224	2926.72
423.432	3012.73
423.64	2959.49
423.848	3303.54
424.056	3240.06
424.263	3391.61
424.471	3496.05
424.679	3506.29
424.887	3725.43
425.094	3754.1
425.302	3819.63
425.51	3895.41
425.718	4122.73
425.925	4143.21
426.133	4225.13
426.341	4452.45
426.548	4720.74
426.756	4796.51
426.964	4675.68
427.171	5165.15
427.379	5089.37
427.586	5154.91
427.794	5376.09
428.001	5722.2
428.209	5918.8
428.417	5843.03
428.624	6127.69
428.832	6285.39
429.039	6164.56
429.247	6103.12
429.454	6692.93
429.662	7190.59
429.869	6680.64
430.076	7360.57
430.284	7059.52
430.491	7432.25
430.699	7745.59
430.906	7901.23
431.114	7571.51
431.321	8124.46
431.528	8316.97
431.736	8728.61
431.943	9300
432.15	9037.86
432.358	9054.24
432.565	9527.32
432.772	9555.99
432.979	9875.48
433.187	10162.19
433.394	10098.7
433.601	10752.01
433.808	10899.46
434.016	10901.51
434.223	11044.87
434.43	12040.18
434.637	11716.6
434.844	12519.4
435.052	12701.67
435.259	12703.72
435.466	12824.55
435.673	12656.62
435.88	13350.88
436.087	14182.35
436.294	14036.95
436.501	13731.8
436.708	14288.85
436.915	14602.19
437.122	15108.04
437.329	15167.43
437.537	15597.5
437.743	15876.02
437.95	15689.66
438.157	16441.26
438.364	16842.67
438.571	17135.53
438.778	17076.13
438.985	18657.17
439.192	17747.87
439.399	18589.58
439.606	18073.49
439.813	19122.05
440.02	20258.68
440.227	19906.43
440.433	19750.78
440.64	20395.89
440.847	20442.99
441.054	20625.26
441.261	21911.39
441.467	21923.68
441.674	22083.42
441.881	23086.92
442.088	23091.02
442.294	22824.78
442.501	23551.81
442.708	23955.26
442.914	24680.24
443.121	25700.13
443.328	25067.31
443.534	26892.05
443.741	25939.74
443.948	25939.74
444.154	27502.34
444.361	27109.13
444.568	27318.03
444.774	27926.27
444.981	27815.68
445.187	28876.53
445.394	29929.19
445.6	29433.58
445.807	32450.24
446.013	30729.94
446.22	31559.37
446.426	32677.56
446.633	32837.3
446.839	34178.72
447.046	32745.14
447.252	34524.83
447.459	34426.53
447.665	33914.53
447.871	35794.57
448.078	37662.32
448.284	35415.69
448.491	36183.68
448.697	38223.46
448.903	38680.16
449.11	38463.07
449.316	38245.99
449.522	39063.13
449.728	39812.68
449.935	39892.55
450.141	40123.97
450.347	40828.48
450.553	39663.18
450.76	40357.44
450.966	41268.79
451.172	40900.15
451.378	42083.88
451.584	41236.02
451.791	42098.22
451.997	42429.99
452.203	43034.14
452.409	42763.81
452.615	42565.15
452.821	41033.27
453.027	40474.18
453.233	42769.95
453.44	40648.25
453.646	41223.73
453.852	41414.19
454.058	42022.44
454.264	40975.93
454.47	41657.9
454.676	40828.48
454.882	42159.66
455.088	38428.26
455.294	39036.5
455.5	39706.19
455.705	40371.78
455.911	38362.72
456.117	37336.69
456.323	37084.79
456.529	35473.04
456.735	36740.73
456.941	35937.93
457.147	35161.75
457.352	34516.64
457.558	33986.21
457.764	34125.47
457.97	33375.92
458.176	32804.53
458.381	32710.33
458.587	31334.09
458.793	30992.08
458.999	29259.5
459.204	31340.24
459.41	30484.19
459.616	28380.92
459.821	28618.49
460.027	28800.76
460.233	27948.8
460.438	26150.68
460.644	26666.77
460.85	25521.96
461.055	24862.51
461.261	24844.08
461.466	23373.64
461.672	22581.07
461.878	23848.77
462.083	22474.58
462.289	21798.75
462.494	21759.84
462.7	20807.53
462.905	20322.16
463.111	20862.83
463.316	21200.74
463.522	20889.45
463.727	20635.5
463.932	20162.42
464.138	19804.03
464.343	20176.76
464.549	19853.18
464.754	20334.45
464.959	20203.38
465.165	20004.73
465.37	18984.84
465.575	18550.67
465.781	19505.03
465.986	19560.32
466.191	18769.8
466.397	18507.66
466.602	17256.36
466.807	18325.4
467.012	18028.44
467.218	17936.28
467.423	18309.01
467.628	17762.2
467.833	18622.35
468.038	17848.22
468.244	17516.45
468.449	17788.83
468.654	17766.3
468.859	17520.54
469.064	17270.69
469.269	16578.48
469.474	16668.59
469.679	16744.36
469.885	16279.47
470.09	16576.43
470.295	16631.72
470.5	16132.02
470.705	16412.59
470.91	15830.97
471.115	15617.98
471.32	15919.03
471.525	15790.01
471.73	15273.92
471.935	15304.64
472.139	14919.62
472.344	15161.28
472.549	14987.21
472.754	14886.86
472.959	14247.89
473.164	14278.61
473.369	14200.79
473.574	14415.82
473.778	14567.37
473.983	14012.37
474.188	13969.37
474.393	13686.75
474.598	13623.26
474.802	13418.46
475.007	13324.26
475.212	13293.54
475.417	12699.62
475.621	12847.08
475.826	12718.06
476.031	12777.45
476.235	12445.68
476.44	12548.08
476.645	12312.56
476.849	12453.87
477.054	12257.26
477.259	12091.38
477.463	12201.97
477.668	11782.13
477.872	11923.44
478.077	11708.41
478.282	11372.54
478.486	11108.35
478.691	11225.09
478.895	11149.31
479.1	11110.4
479.304	11186.18
479.509	10737.67
479.713	10917.89
479.918	10799.11
480.122	10780.68
480.326	10965
480.531	10614.79
480.735	10506.25
480.94	10459.15
481.144	10815.49
481.348	10305.55
481.553	10221.58
481.757	10084.37
481.961	10459.15
482.166	10477.58
482.37	10221.58
482.574	10151.95
482.778	10321.93
482.983	10299.41
483.187	10242.06
483.391	10387.47
483.595	10242.06
483.8	10151.95
484.004	10375.18
484.208	10416.14
484.412	10332.17
484.616	10315.79
484.821	10377.23
485.025	10154
485.229	10209.29
485.433	10098.7
485.637	10115.09
485.841	10201.1
486.045	10270.73
486.249	10178.58
486.453	10190.86
486.657	10323.98
486.861	10047.51
487.065	9881.62
487.269	10029.07
487.473	9949.2
487.677	9938.96
487.881	10280.97
488.085	10145.81
488.289	10127.38
488.493	9947.15
488.697	10106.9
488.901	10051.6
489.105	10260.49
489.309	10063.89
489.512	10117.14
489.716	10375.18
489.92	10182.67
490.124	10176.53
490.328	10285.07
490.531	10201.1
490.735	10203.15
490.939	10301.45
491.143	10258.45
491.346	10283.02
491.55	10477.58
491.754	10391.56
491.958	10471.43
492.161	10504.2
492.365	10549.26
492.569	10477.58
492.772	10375.18
492.976	10596.36
493.18	10725.38
493.383	10629.13
493.587	10606.6
493.79	11008
493.994	10733.57
494.197	10817.54
494.401	10823.69
494.605	10921.99
494.808	11210.75
495.012	11114.5
495.215	11167.74
495.419	11315.2
495.622	11122.69
495.825	11364.35
496.029	11407.36
496.232	11726.84
496.436	11669.5
496.639	11808.76
496.843	11890.68
497.046	12046.32
497.249	12242.93
497.453	11993.08
497.656	12382.19
497.859	12421.1
498.063	12445.68
498.266	12838.89
498.469	12707.82
498.673	12673
498.876	12883.94
499.079	13121.51
499.282	12906.47
499.485	13291.49
499.689	13201.38
499.892	13643.74
500.095	13408.22
500.298	13838.3
500.501	13682.65
500.705	14272.46
500.908	14319.57
501.111	14356.43
501.314	14428.11
501.517	14835.66
501.72	14563.28
501.923	14806.98
502.126	14927.81
502.329	15249.35
502.532	15341.5
502.735	15579.07
502.938	15681.47
503.141	15986.61
503.344	16037.81
503.547	15849.4
503.75	16304.05
503.953	16474.03
504.156	16721.84
504.359	16691.12
504.562	16963.5
504.765	17356.71
504.968	17252.26
505.17	17373.09
505.373	17594.27
505.576	17928.09
505.779	18024.34
505.982	18376.59
506.185	18159.51
506.387	18573.2
506.59	18575.25
506.793	18978.7
506.996	18868.11
507.198	19558.27
507.401	19167.11
507.604	19474.31
507.807	20023.16
508.009	19990.39
508.212	20031.35
508.415	20356.98
508.617	20543.35
508.82	20840.3
509.022	20795.25
509.225	21311.33
509.428	21340.01
509.63	21550.95
509.833	21518.18
510.035	22294.36
510.238	22009.69
510.44	22572.88
510.643	22419.28
510.845	22982.48
511.048	22912.85
511.25	23109.45
511.453	23406.41
511.655	23930.69
511.858	23588.67
512.06	24006.46
512.262	24227.64
512.465	24254.26
512.667	24524.6
512.87	24850.22
513.072	24813.36
513.274	25239.34
513.477	25677.6
513.679	25900.83
513.881	25671.46
514.084	25972.51
514.286	26302.23
514.488	26246.94
514.69	26916.62
514.893	27281.16
515.095	27528.97
515.297	27578.12
515.499	27680.52
515.701	27752.2
515.904	28147.45
516.106	28585.72
516.308	28743.41
516.51	28823.28
516.712	28942.07
516.914	29435.63
517.116	29734.63
517.318	29902.56
517.52	30037.73
517.722	30232.29
517.925	30508.76
518.127	30881.49
518.329	30826.2
518.531	30602.97
518.733	31571.66
518.935	31512.27
519.136	31766.21
519.338	32200.38
519.54	32032.45
519.742	32347.84
519.944	32495.29
520.146	32888.5
520.348	33277.61
520.55	33132.21
520.752	33439.4
520.954	33554.09
521.155	33337.01
521.357	34127.52
521.559	34260.64
521.761	34201.25
521.963	34567.84
522.164	34580.12
522.366	34332.32
522.568	34901.65
522.77	34932.37
522.971	35700.36
523.173	35405.45
523.375	35716.75
523.576	35702.41
523.778	35522.19
523.98	35974.79
524.181	36114.05
524.383	36095.62
524.584	36597.37
524.786	36329.09
524.988	36327.04
525.189	36939.38
525.391	36884.09
525.592	37152.37
525.794	37285.49
525.995	37041.78
526.197	37097.08
526.398	37144.18
526.6	37144.18
526.801	37410.42
527.003	37547.63
527.204	37234.29
527.406	37473.9
527.607	37518.96
527.808	38147.68
528.01	37310.07
528.211	37615.21
528.412	37926.5
528.614	37981.8
528.815	37789.29
529.016	38002.28
529.218	37504.62
529.419	37557.87
529.62	37707.37
529.822	38065.77
530.023	37901.93
530.224	37817.96
530.425	37652.08
530.626	37336.69
530.828	37385.84
531.029	38178.4
531.23	37805.67
531.431	37850.73
531.632	37664.36
531.833	37856.87
532.035	37705.32
532.236	37531.25
532.437	37746.28
532.638	37543.53
532.839	37598.83
533.04	37678.7
533.241	37138.04
533.442	37899.88
533.643	37383.79
533.844	37430.9
534.045	37404.27
534.246	37078.64
534.447	37437.04
534.648	37041.78
534.849	37312.11
535.05	36900.47
535.251	37097.08
535.451	36963.96
535.652	37291.63
535.853	36927.1
536.054	36994.68
536.255	37140.08
536.456	36904.57
536.657	37355.12
536.857	36871.8
537.058	36650.62
537.259	36636.28
537.46	37072.5
537.66	36609.66
537.861	36335.23
538.062	37035.64
538.263	36830.84
538.463	36599.42
538.664	36834.94
538.865	36472.45
539.065	36531.84
539.266	36249.22
539.466	36353.66
539.667	35948.17
539.868	36847.22
540.068	36228.74
540.269	36165.25
540.469	36513.41
540.67	36007.56
540.87	36425.34
541.071	36173.44
541.271	36439.68
541.472	36368
541.672	36101.76
541.873	36204.16
542.073	35425.93
542.274	36097.67
542.474	36206.21
542.675	35866.25
542.875	36171.39
543.075	36044.42
543.276	35559.05
543.476	36265.6
543.676	35384.97
543.877	36247.17
544.077	36273.79
544.277	35763.85
544.478	35720.84
544.678	36099.72
544.878	35952.26
545.078	35675.79
545.279	35604.11
545.479	35475.09
545.679	35993.22
545.879	35538.57
546.079	35509.9
546.28	35901.06
546.48	35608.2
546.68	35950.21
546.88	36122.24
547.08	35669.64
547.28	35872.39
547.48	35399.31
547.68	35815.05
547.88	35632.78
548.081	35829.38
548.281	35884.68
548.481	35518.09
548.681	35810.95
548.881	35403.41
549.081	35593.87
549.28	35493.52
549.48	35853.96
549.68	35542.67
549.88	36099.72
550.08	35688.07
550.28	35561.1
550.48	35921.54
550.68	36091.52
550.88	35628.68
551.08	35837.58
551.279	35649.16
551.479	35395.21
551.679	35995.27
551.879	35753.61
552.079	36087.43
552.278	35405.45
552.478	35886.73
552.678	35792.52
552.878	36034.18
553.077	35761.8
553.277	35677.83
553.477	35833.48
553.676	36034.18
553.876	35724.94
554.076	35831.43
554.275	35987.08
554.475	35604.11
554.674	36081.28
554.874	35784.33
555.074	35698.31
555.273	35882.63
555.473	36202.11
555.672	35669.64
555.872	35661.45
556.071	36091.52
556.271	36339.33
556.47	35739.27
556.67	35577.48
556.869	35608.2
557.068	35788.42
557.268	35696.27
557.467	35659.4
557.667	36320.9
557.866	36089.48
558.065	35937.93
558.265	35681.93
558.464	35710.6
558.663	36114.05
558.863	35583.63
559.062	36075.14
559.261	35829.38
559.461	36198.02
559.66	35571.34
559.859	35946.12
560.058	35352.21
560.258	36087.43
560.457	35761.8
560.656	35593.87
560.855	35747.47
561.054	36189.83
561.253	35917.45
561.453	35915.4
561.652	35765.9
561.851	36103.81
562.05	35835.53
562.249	35491.47
562.448	35886.73
562.647	36071.04
562.846	35688.07
563.045	35581.58
563.244	35403.41
563.443	36435.58
563.642	35022.48
563.841	35876.49
564.04	35346.06
564.239	35853.96
564.438	35608.2
564.637	35806.86
564.836	35700.36
565.035	35026.58
565.234	35272.34
565.432	35321.49
565.631	35335.82
565.83	35276.43
566.029	35153.55
566.228	35204.75
566.427	34858.65
566.625	34743.96
566.824	34885.27
567.023	35051.16
567.222	34236.06
567.42	34967.19
567.619	35038.87
567.818	34897.56
568.016	34610.84
568.215	35098.26
568.414	34408.09
568.612	34907.8
568.811	34401.95
569.01	34934.42
569.208	33865.38
569.407	34698.91
569.605	34360.99
569.804	34401.95
570.002	33978.02
570.201	34602.65
570.4	34012.84
570.598	33881.77
570.797	33625.77
570.995	33998.5
571.193	33490.6
571.392	33865.38
571.59	33701.54
571.789	33617.58
571.987	33527.47
572.186	33162.93
572.384	33138.35
572.582	33240.75
572.781	33449.64
572.979	32802.49
573.177	32943.8
573.376	33212.08
573.574	33132.21
573.772	32747.19
573.971	32702.14
574.169	32136.9
574.367	32671.42
574.565	32286.4
574.763	32384.7
574.962	32233.15
575.16	32128.7
575.358	32691.9
575.556	31651.53
575.754	32503.48
575.952	31620.81
576.151	31522.51
576.349	31499.98
576.547	31528.65
576.745	31676.1
576.943	31649.48
577.141	31438.54
577.339	31723.21
577.537	31278.8
577.735	31438.54
577.933	31129.3
578.131	31213.26
578.329	31078.1
578.527	30717.65
578.725	30631.64
578.923	30957.27
579.121	30668.5
579.319	30410.46
579.516	30901.97
579.714	30660.31
579.912	30580.44
580.11	30205.66
580.308	30619.35
580.506	30187.23
580.704	29748.96
580.901	29753.06
581.099	30383.84
581.297	29759.2
581.495	29781.73
581.692	29972.19
581.89	29628.13
582.088	29589.22
582.285	29232.88
582.483	29396.71
582.681	29417.19
582.878	29142.77
583.076	29365.99
583.274	29165.29
583.471	29200.11
583.669	29136.62
583.866	28847.86
584.064	29052.66
584.262	28925.68
584.459	29279.98
584.657	28860.15
584.854	28825.33
585.052	28571.38
585.249	28522.23
585.447	28495.61
585.644	28202.75
585.841	28595.96
586.039	28659.45
586.236	28358.39
586.434	27979.52
586.631	27909.89
586.828	28395.26
587.026	28040.96
587.223	27621.13
587.42	27770.63
587.618	27913.98
587.815	27533.06
588.012	27698.95
588.21	27436.81
588.407	27879.17
588.604	27979.52
588.801	27350.79
588.999	27479.82
589.196	27084.56
589.393	27342.6
589.59	27096.85
589.787	27146
589.984	26859.28
590.182	26715.92
590.379	27150.09
590.576	26838.8
590.773	26793.75
590.97	26484.5
591.167	26797.84
591.364	26392.34
591.561	26480.41
591.758	26631.96
591.955	26337.05
592.152	26584.85
592.349	26150.68
592.546	26345.24
592.743	26445.59
592.94	26181.4
593.137	26218.27
593.334	26584.85
593.531	25992.99
593.727	26355.48
593.924	26339.1
594.121	26124.06
594.318	26122.01
594.515	25749.28
594.712	25863.97
594.908	25483.05
595.105	25890.59
595.302	25390.89
595.499	25794.34
595.696	25939.74
595.892	25413.41
596.089	25741.09
596.286	25814.82
596.482	25614.12
596.679	25554.72
596.876	25595.68
597.072	25534.25
597.269	25237.29
597.466	25429.8
597.662	25102.12
597.859	25343.78
598.055	25593.64
598.252	25423.65
598.448	25454.37
598.645	25175.85
598.841	24944.43
599.038	25507.62
599.234	25265.96
599.431	24985.39
599.627	25024.3
599.824	25196.33
600.02	25194.28
600.217	25415.46
600.413	24940.33
600.609	25130.8
600.806	25077.55
601.002	25046.83
601.198	25218.86
601.395	24676.15
601.591	25120.56
601.787	25145.13
601.984	25132.84
602.18	25315.11
602.376	25351.98
602.572	25190.19
602.769	24903.47
602.965	25009.97
603.161	25085.74
603.357	24702.77
603.553	24923.95
603.75	25040.68
603.946	25016.11
604.142	25065.26
604.338	24989.49
604.534	25130.8
604.73	25145.13
604.926	24862.51
605.122	25093.93
605.318	25001.77
605.514	24903.47
605.71	24741.68
605.906	25276.2
606.102	25130.8
606.298	25239.34
606.494	25306.92
606.69	25184.04
606.886	25214.76
607.082	24911.66
607.278	25220.91
607.474	24835.89
607.67	25112.36
607.866	25085.74
608.062	25620.26
608.257	25204.52
608.453	25460.52
608.649	25343.78
608.845	25356.07
609.041	25562.92
609.236	25427.75
609.432	25526.05
609.628	25589.54
609.824	25384.74
610.019	25128.75
610.215	25700.13
610.411	25820.96
610.606	25433.89
610.802	25610.02
610.998	25659.17
611.193	25782.05
611.389	25513.77
611.584	25898.78
611.78	25478.95
611.976	25429.8
612.171	25696.03
612.367	25560.87
612.562	25657.12
612.758	25427.75
612.953	25597.73
613.149	25964.32
613.344	25433.89
613.539	25894.69
613.735	25638.69
613.93	26212.12
614.126	25491.24
614.321	26070.81
614.517	25745.19
614.712	25843.49
614.907	25927.46
615.103	26111.77
615.298	25634.6
615.493	26165.02
615.688	25736.99
615.884	26441.5
616.079	25892.64
616.274	26089.24
616.47	26101.53
616.665	26109.72
616.86	25861.92
617.055	25872.16
617.25	25790.24
617.445	26124.06
617.641	25345.83
617.836	25564.96
618.031	25728.8
618.226	25851.68
618.421	25595.68
618.616	25724.71
618.811	25124.65
619.006	26244.89
619.201	25251.63
619.396	25626.4
619.591	24917.81
619.786	25505.57
619.981	24975.15
620.176	25284.39
620.371	24903.47
620.566	25194.28
620.761	24891.18
620.956	24905.52
621.151	24493.88
621.346	24850.22
621.541	24626.99
621.735	24690.48
621.93	24397.62
622.125	24446.77
622.32	23998.27
622.515	24278.84
622.709	24252.22
622.904	24024.89
623.099	23961.41
623.294	23945.02
623.488	23758.66
623.683	23918.4
623.878	23375.69
624.072	23400.26
624.267	23691.07
624.462	23119.69
624.656	23144.27
624.851	23471.94
625.046	22843.21
625.24	22726.48
625.435	22740.82
625.629	22779.73
625.824	22501.2
626.018	22368.09
626.213	21882.72
626.407	22206.3
626.602	21999.45
626.796	22026.07
626.991	22140.76
627.185	22044.51
627.38	21507.94
627.574	21516.13
627.768	21395.3
627.963	21266.28
628.157	21311.33
628.352	21186.41
628.546	20997.99
628.74	21272.42
628.935	20709.23
629.129	21084.01
629.323	20432.75
629.517	20768.62
629.712	20469.62
629.906	20469.62
630.1	20219.77
630.294	20230.01
630.489	20279.16
630.683	20242.29
630.877	19965.82
631.071	19537.79
631.265	19937.15
631.459	19656.57
631.653	19552.13
631.848	19425.15
632.042	19439.49
632.236	19525.5
632.43	19036.04
632.624	19224.45
632.818	18788.24
633.012	18849.68
633.206	18732.94
633.4	18706.32
633.594	18485.14
633.788	18620.3
633.982	18743.18
634.176	18489.23
634.369	18149.27
634.563	18284.44
634.757	17999.77
634.951	18220.95
635.145	17901.47
635.339	17969.05
635.533	17631.13
635.726	17848.22
635.92	17725.34
636.114	17612.7
636.308	17278.88
636.501	17495.97
636.695	17334.18
636.889	16922.54
637.083	16977.83
637.276	16998.31
637.47	16695.21
637.664	16691.12
637.857	16594.86
638.051	16453.55
638.244	16562.09
638.438	16209.84
638.632	16246.71
638.825	16103.35
639.019	15878.07
639.212	15988.66
639.406	16021.43
639.599	16035.77
639.793	15660.99
639.986	15439.81
640.18	15626.17
640.373	15558.59
640.567	15243.2
640.76	15302.59
640.954	15198.15
641.147	15118.28
641.34	15214.53
641.534	14804.94
641.727	14821.32
641.92	14784.46
642.114	14792.65
642.307	14753.74
642.5	14677.96
642.694	14495.69
642.887	14198.74
643.08	14362.58
643.273	14362.58
643.467	14127.06
643.66	13995.99
643.853	13780.95
644.046	13772.76
644.239	13735.9
644.432	13744.09
644.626	13527
644.819	13305.82
645.012	13412.32
645.205	13219.81
645.398	13238.24
645.591	13101.03
645.784	13012.96
645.977	13004.77
646.17	13141.99
646.363	12750.82
646.556	12826.6
646.749	12890.09
646.942	12685.29
647.135	12543.98
647.328	12498.92
647.521	12611.56
647.714	12437.48
647.907	12498.92
648.099	12249.07
648.292	12386.29
648.485	12419.05
648.678	11808.76
648.871	11982.84
649.064	11978.74
649.256	12079.09
649.449	11687.93
649.642	11851.77
649.835	11390.97
650.027	11581.43
650.22	11378.69
650.413	11333.63
650.605	11462.65
650.798	11317.25
650.991	11188.22
651.183	11065.35
651.376	11008
651.568	11128.83
651.761	11005.95
651.954	10999.81
652.146	10854.41
652.339	11079.68
652.531	10835.97
652.724	10801.16
652.916	10450.96
653.109	10555.4
653.301	10598.41
653.494	10715.14
653.686	10270.73
653.879	10553.35
654.071	10377.23
654.263	10194.96
654.456	10323.98
654.648	10285.07
654.84	10127.38
655.033	10086.42
655.225	9947.15
655.417	10227.73
655.61	9877.52
655.802	10027.03
655.994	9965.59
656.186	9703.45
656.379	9728.02
656.571	9603.1
656.763	9623.58
656.955	9570.33
657.148	9615.38
657.34	9482.27
657.532	9154.59
657.724	9244.7
657.916	9275.42
658.108	9117.73
658.3	9127.97
658.492	9070.62
658.684	9066.53
658.876	8960.03
659.068	9109.54
659.26	8996.9
659.452	8912.93
659.644	8933.41
659.836	8755.24
660.028	8726.57
660.22	8501.29
660.412	8742.95
660.604	8726.57
660.796	8632.36
660.988	8499.24
661.18	8472.62
661.372	8314.92
661.563	8579.11
661.755	8427.56
661.947	8220.72
662.139	8286.25
662.331	8263.72
662.522	8177.71
662.714	8050.74
662.906	7997.49
663.097	7983.15
663.289	7847.99
663.481	7837.75
663.673	7792.69
663.864	7909.43
664.056	7610.42
664.247	7655.48
664.439	7645.24
664.631	7702.58
664.822	7712.82
665.014	7577.66
665.205	7458.87
665.397	7340.09
665.588	7514.17
665.78	7440.44
665.971	7575.61
666.163	7370.81
666.354	7436.35
666.546	7133.25
666.737	7116.86
666.929	7368.76
667.12	7245.88
667.311	7034.94
667.503	6914.11
667.694	7034.94
667.885	6903.87
668.077	7008.32
668.268	7118.91
668.459	6928.45
668.651	6776.9
668.842	6846.53
669.033	6817.86
669.224	6701.12
669.416	6740.04
669.607	6682.69
669.798	6525
669.989	6776.9
670.18	6889.54
670.371	6522.95
670.563	6420.55
670.754	6574.15
670.945	6506.57
671.136	6492.23
671.327	6535.24
671.518	6436.94
671.709	6606.92
671.9	6441.03
672.091	6436.94
672.282	6228.04
672.473	6252.62
672.664	6342.73
672.855	6486.09
673.046	6350.92
673.237	6350.92
673.428	6187.08
673.619	6199.37
673.809	6086.73
674	6254.67
674.191	5959.76
674.382	6066.25
674.573	6105.17
674.764	6035.53
674.954	5959.76
675.145	5957.71
675.336	5972.05
675.527	5957.71
675.717	5965.9
675.908	5738.58
676.099	5945.42
676.289	5875.79
676.48	5736.53
676.671	5597.27
676.861	5779.54
677.052	5818.45
677.243	5830.74
677.433	5703.76
677.624	5726.29
677.814	5744.72
678.005	5787.73
678.195	5828.69
678.386	5679.19
678.576	5550.17
678.767	5605.46
678.957	5658.71
679.148	5722.2
679.338	5681.24
679.529	5615.7
679.719	5646.42
679.909	5587.03
680.1	5529.69
680.29	5650.52
680.481	5584.98
680.671	5486.68
680.861	5437.53
681.052	5494.87
681.242	5441.62
681.432	5646.42
681.622	5490.77
681.813	5574.74
682.003	5546.07
682.193	5490.77
682.383	5453.91
682.573	5501.01
682.764	5492.82
682.954	5408.86
683.144	5474.39
683.334	5455.96
683.524	5439.58
683.714	5423.19
683.904	5476.44
684.094	5474.39
684.284	5539.93
684.474	5341.27
684.664	5294.17
684.854	5322.84
685.044	5216.35
685.234	5214.3
685.424	5294.17
685.614	5208.16
685.804	5304.41
685.994	5126.24
686.184	5294.17
686.374	5171.29
686.564	5128.28
686.753	5195.87
686.943	5085.28
687.133	5175.39
687.323	5054.56
687.513	5058.65
687.702	5245.02
687.892	5140.57
688.082	4843.62
688.272	5165.15
688.461	5048.41
688.651	5015.65
688.841	4946.02
689.03	5040.22
689.22	4943.97
689.41	4946.02
689.599	4960.35
689.789	5075.04
689.979	4806.75
690.168	4921.44
690.358	4751.46
690.547	4730.98
690.737	4986.97
690.926	4798.56
691.116	4671.59
691.305	4878.43
691.495	4810.85
691.684	4819.04
691.874	4788.32
692.063	4829.28
692.252	4767.84
692.442	4876.38
692.631	4730.98
692.82	4733.03
693.01	4647.01
693.199	4577.38
693.388	4716.64
693.578	4569.19
693.767	4579.43
693.956	4649.06
694.146	4505.7
694.335	4542.57
694.524	4507.75
694.713	4515.94
694.902	4636.77
695.092	4640.87
695.281	4524.13
695.47	4368.49
695.659	4460.65
695.848	4456.55
696.037	4530.28
696.226	4419.69
696.415	4536.42
696.604	4546.66
696.793	4321.38
696.982	4458.6
697.171	4440.17
697.36	4323.43
697.549	4438.12
697.738	4348.01
697.927	4524.13
698.116	4360.3
698.305	4237.42
698.494	4294.76
698.683	4466.79
698.872	4315.24
699.061	4259.95
699.25	4155.5
699.438	4237.42
699.627	4413.54
699.816	4309.1
700.005	4112.49
700.193	4345.96
700.382	4178.03
700.571	4382.82
700.76	4151.4
700.948	4175.98
701.137	4040.81
701.326	4126.83
701.514	4225.13
701.703	4069.48
701.892	4092.01
702.08	4214.89
702.269	4237.42
702.457	4143.21
702.646	3981.42
702.834	3917.93
703.023	4053.1
703.212	4073.58
703.4	3879.02
703.589	3829.87
703.777	3985.52
703.965	3883.12
704.154	3983.47
704.342	3897.46
704.531	3891.31
704.719	3895.41
704.907	3981.42
705.096	3891.31
705.284	3924.08
705.472	3946.61
705.661	3905.65
705.849	3821.68
706.037	3793.01
706.226	3801.2
706.414	3799.15
706.602	3827.82
706.79	3862.64
706.979	3725.43
707.167	3870.83
707.355	3713.14
707.543	3735.67
707.731	3741.81
707.919	3944.56
708.107	3688.56
708.296	3723.38
708.484	3711.09
708.672	3715.19
708.86	3616.88
709.048	3610.74
709.236	3700.85
709.424	3625.08
709.612	3639.41
709.8	3534.96
709.988	3680.37
710.176	3627.12
710.364	3537.01
710.551	3516.53
710.739	3549.3
710.927	3584.12
711.115	3639.41
711.303	3477.62
711.491	3555.44
711.679	3444.85
711.866	3434.61
712.054	3389.56
712.242	3537.01
712.43	3580.02
712.617	3418.23
712.805	3328.12
712.993	3518.58
713.181	3360.89
713.368	3334.26
713.556	3494.01
713.744	3229.82
713.931	3471.48
714.119	3371.13
714.306	3369.08
714.494	3281.02
714.682	3340.41
714.869	3383.42
715.057	3278.97
715.244	3352.7
715.432	3395.7
715.619	3231.87
715.807	3278.97
715.994	3266.68
716.182	3188.86
716.369	3248.25
716.556	3281.02
716.744	3188.86
716.931	3231.87
717.119	3188.86
717.306	3201.15
717.493	3176.57
717.681	3344.5
717.868	3041.4
718.055	3104.89
718.242	3172.47
718.43	3137.66
718.617	3106.94
718.804	3076.22
718.991	3084.41
719.179	3190.91
719.366	3080.32
719.553	3045.5
719.74	3170.43
719.927	3043.45
720.114	3041.4
720.301	2939.01
720.488	2953.34
720.676	2900.09
720.863	3100.8
721.05	3037.31
721.237	3020.92
721.424	2951.29
721.611	2881.66
721.798	2783.36
721.985	2756.74
722.172	2959.49
722.358	3004.54
722.545	2914.43
722.732	2828.42
722.919	2943.1
723.106	2893.95
723.293	2877.57
723.48	2918.53
723.667	2680.96
723.853	2822.27
724.04	2805.89
724.227	2805.89
724.414	2750.59
724.6	2820.22
724.787	2896
724.974	2879.61
725.161	2828.42
725.347	2773.12
725.534	2885.76
725.72	2650.24
725.907	2789.5
726.094	2762.88
726.28	2766.98
726.467	2693.25
726.653	2691.2
726.84	2838.66
727.027	2742.4
727.213	2656.39
727.4	2676.87
727.586	2863.23
727.773	2631.81
727.959	2594.95
728.145	2644.1
728.332	2570.37
728.518	2830.46
728.705	2549.89
728.891	2730.11
729.077	2564.23
729.264	2666.63
729.45	2529.41
729.636	2609.28
729.823	2525.32
730.009	2648.19
730.195	2674.82
730.382	2689.15
730.568	2599.04
730.754	2547.84
730.94	2611.33
731.126	2588.8
731.313	2576.52
731.499	2539.65
731.685	2605.19
731.871	2576.52
732.057	2531.46
732.243	2529.41
732.429	2599.04
732.615	2656.39
732.801	2500.74
732.987	2467.97
733.173	2427.01
733.359	2441.35
733.545	2461.83
733.731	2508.93
733.917	2541.7
734.103	2543.75
734.289	2361.48
734.475	2457.73
734.661	2420.87
734.847	2377.86
735.033	2494.6
735.219	2418.82
735.404	2310.28
735.59	2410.63
735.776	2353.29
735.962	2375.81
736.148	2347.14
736.333	2295.94
736.519	2304.14
736.705	2263.18
736.89	2291.85
737.076	2398.34
737.262	2248.84
737.447	2353.29
737.633	2320.52
737.819	2320.52
738.004	2334.86
738.19	2232.46
738.375	2277.51
738.561	2437.25
738.747	2259.08
738.932	2271.37
739.118	2353.29
739.303	2238.6
739.489	2224.26
739.674	2201.74
739.859	2156.68
740.045	2123.91
740.23	2168.97
740.416	2101.39
740.601	2281.61
740.786	2105.48
740.972	2173.07
741.157	2109.58
741.342	2050.19
741.528	2154.63
741.713	2214.02
741.898	2152.59
742.084	2105.48
742.269	2023.56
742.454	2005.13
742.639	2099.34
742.824	2058.38
743.01	1960.08
743.195	2033.8
743.38	1984.65
743.565	1943.69
743.75	1978.51
743.935	2070.67
744.12	2019.47
744.305	1964.17
744.49	1978.51
744.675	1968.27
744.86	1910.93
745.045	1986.7
745.23	1966.22
745.415	1865.87
745.6	2027.66
745.785	1972.36
745.97	1937.55
746.155	1833.1
746.34	1962.12
746.525	1976.46
746.71	1861.77
746.895	1890.45
747.079	1783.95
747.264	1888.4
747.449	1833.1
747.634	1845.39
747.819	1829.01
748.003	1708.18
748.188	1783.95
748.373	1722.51
748.557	1681.55
748.742	1706.13
748.927	1628.31
749.111	1595.54
749.296	1648.79
749.481	1697.94
749.665	1636.5
749.85	1591.44
750.034	1683.6
750.219	1654.93
750.404	1554.58
750.588	1605.78
750.773	1558.67
750.957	1487
751.141	1671.31
751.326	1656.98
751.51	1591.44
751.695	1464.47
751.879	1521.81
752.064	1497.24
752.248	1509.52
752.432	1491.09
752.617	1468.56
752.801	1519.76
752.985	1540.24
753.17	1433.75
753.354	1396.89
753.538	1487
753.722	1364.12
753.907	1538.2
754.091	1239.19
754.275	1437.84
754.459	1357.97
754.643	1341.59
754.828	1388.69
755.012	1419.41
755.196	1304.73
755.38	1368.21
755.564	1255.58
755.748	1329.3
755.932	1368.21
756.116	1323.16
756.3	1214.62
756.484	1274.01
756.668	1280.15
756.852	1249.43
757.036	1183.9
757.22	1259.67
757.404	1206.42
757.588	1247.38
757.772	1249.43
757.956	1222.81
758.14	1214.62
758.323	1239.19
758.507	1261.72
758.691	1173.66
758.875	1185.94
759.059	1206.42
759.242	1175.7
759.426	1183.9
759.61	1132.7
759.794	1140.89
759.977	1181.85
760.161	1104.03
760.345	1144.99
760.528	1110.17
760.712	1058.97
760.895	1071.26
761.079	1179.8
761.263	1067.16
761.446	1065.11
761.63	1069.21
761.813	1124.51
761.997	1036.44
762.18	1083.55
762.364	1063.07
762.547	1075.35
762.731	1018.01
762.914	1050.78
763.098	956.57
763.281	1067.16
763.464	1026.2
763.648	952.48
763.831	1038.49
764.015	987.29
764.198	1038.49
764.381	1003.68
764.564	991.39
764.748	993.44
764.931	1077.4
765.114	1071.26
765.297	1054.87
765.481	938.14
765.664	919.71
765.847	938.14
766.03	938.14
766.213	886.94
766.397	960.67
766.58	964.76
766.763	960.67
766.946	1018.01
767.129	880.8
767.312	997.53
767.495	854.17
767.678	895.13
767.861	952.48
768.044	903.32
768.227	972.96
768.41	946.33
768.593	985.24
768.776	897.18
768.959	985.24
769.142	968.86
769.324	962.72
769.507	919.71
769.69	856.22
769.873	854.17
770.056	868.51
770.239	899.23
770.421	981.15
770.604	921.76
770.787	893.09
770.97	872.61
771.152	866.46
771.335	895.13
771.518	829.6
771.7	927.9
771.883	897.18
772.066	913.56
772.248	800.93
772.431	874.65
772.613	845.98
772.796	850.08
772.978	823.45
773.161	798.88
773.343	774.3
773.526	802.97
773.708	716.96
773.891	766.11
774.073	733.34
774.256	712.86
774.438	895.13
774.621	731.3
774.803	692.38
774.985	813.21
775.168	805.02
775.35	813.21
775.532	739.49
775.715	706.72
775.897	716.96
776.079	641.18
776.261	661.66
776.444	739.49
776.626	649.38
776.808	749.73
776.99	667.81
777.173	673.95
777.355	706.72
777.537	649.38
777.719	600.23
777.901	739.49
778.083	669.86
778.265	696.48
778.447	708.77
778.629	581.79
778.811	618.66
778.993	583.84
779.175	583.84
779.357	618.66
779.539	551.07
779.721	626.85
779.903	632.99
780.085	563.36
780.267	665.76
780.449	616.61
780.631	585.89
780.812	616.61
780.994	667.81
781.176	553.12
781.358	575.65
781.54	546.98
781.721	632.99
781.903	628.9
782.085	536.74
782.267	608.42
782.448	508.07
782.63	524.45
782.812	575.65
782.993	583.84
783.175	594.08
783.357	501.92
783.538	514.21
783.72	483.49
783.901	428.2
784.083	559.27
784.264	579.75
784.446	460.96
784.627	512.16
784.809	534.69
784.99	417.96
785.172	538.79
785.353	454.82
785.535	454.82
785.716	444.58
785.897	493.73
786.079	479.4
786.26	424.1
786.441	542.88
786.623	358.57
786.804	420
786.985	424.1
787.167	415.91
787.348	333.99
787.529	391.33
787.71	444.58
787.891	460.96
788.073	395.43
788.254	368.81
788.435	352.42
788.616	467.11
788.797	381.09
788.978	399.52
789.159	395.43
789.34	436.39
789.522	379.04
789.703	299.17
789.884	440.48
790.065	366.76
790.246	389.28
790.427	438.44
790.607	354.47
790.788	356.52
790.969	219.3
791.15	329.89
791.331	309.41
791.512	397.48
791.693	338.09
791.874	379.04
792.054	325.8
792.235	391.33
792.416	331.94
792.597	309.41
792.778	368.81
792.958	315.56
793.139	313.51
793.32	366.76
793.5	272.55
793.681	381.09
793.862	305.32
794.042	338.09
794.223	270.5
794.404	311.46
794.584	276.65
794.765	272.55
794.945	350.37
795.126	307.37
795.306	362.66
795.487	325.8
795.667	229.54
795.848	381.09
796.028	272.55
796.209	297.13
796.389	317.61
796.57	227.5
796.75	264.36
796.93	266.41
797.111	227.5
797.291	301.22
797.471	325.8
797.652	280.74
797.832	245.93
798.012	239.78
798.192	209.06
798.373	262.31
798.553	223.4
798.733	278.69
798.913	211.11
799.093	297.13
799.274	256.17
799.454	280.74
799.634	243.88
799.814	340.13
799.994	192.68
800.174	247.97
800.354	231.59
800.534	247.97
800.714	174.25
800.894	223.4
801.074	250.02
801.254	245.93
801.434	354.47
801.614	116.9
801.794	223.4
801.974	845.98
802.154	207.02
802.334	247.97
802.514	186.54
802.693	141.48
802.873	186.54
803.053	233.64
803.233	221.35
803.413	192.68
803.592	176.3
803.772	217.26
803.952	260.26
804.131	207.02
804.311	243.88
804.491	198.82
804.67	133.29
804.85	280.74
805.03	299.17
805.209	266.41
805.389	190.63
805.568	274.6
805.748	211.11
805.928	207.02
806.107	256.17
806.287	178.34
806.466	264.36
806.646	223.4
806.825	276.65
807.004	178.34
807.184	190.63
807.363	168.1
807.543	209.06
807.722	198.82
807.901	207.02
808.081	258.21
808.26	94.38
808.439	174.25
808.619	207.02
808.798	190.63
808.977	180.39
809.156	215.21
809.336	247.97
809.515	223.4
809.694	188.58
809.873	84.14
810.052	166.06
810.231	207.02
810.411	141.48
810.59	186.54
810.769	145.58
810.948	215.21
811.127	145.58
811.306	170.15
811.485	143.53
811.664	215.21
811.843	178.34
812.022	151.72
812.201	118.95
812.38	133.29
812.559	153.77
812.737	108.71
812.916	116.9
813.095	157.86
813.274	209.06
813.453	133.29
813.632	190.63
813.811	108.71
813.989	108.71
814.168	135.34
814.347	125.1
814.526	215.21
814.704	184.49
814.883	194.73
815.062	153.77
815.24	207.02
815.419	123.05
815.598	141.48
815.776	59.56
815.955	166.06
816.133	182.44
816.312	94.38
816.49	149.67
816.669	166.06
816.847	86.19
817.026	116.9
817.204	75.95
817.383	149.67
817.561	32.94
817.74	145.58
817.918	84.14
818.097	145.58
818.275	26.79
818.453	108.71
818.632	161.96
818.81	47.27
818.988	24.75
819.167	94.38
819.345	108.71
819.523	84.14
819.701	133.29
819.879	145.58
820.058	157.86
820.236	141.48
820.414	59.56
820.592	102.57
820.77	118.95
820.948	129.19
821.127	153.77
821.305	102.57
821.483	125.1
821.661	106.67
821.839	53.42
822.017	161.96
822.195	125.1
822.373	149.67
822.551	94.38
822.729	75.95
822.907	102.57
823.085	34.99
823.262	88.23
823.44	77.99
823.618	47.27
823.796	118.95
823.974	86.19
824.152	26.79
824.329	133.29
824.507	61.61
824.685	127.14
824.863	100.52
825.04	133.29
825.218	121
825.396	104.62
825.574	108.71
825.751	88.23
825.929	84.14
826.107	51.37
826.284	88.23
826.462	125.1
826.639	104.62
826.817	67.75
826.994	80.04
827.172	10.41
827.349	170.15
827.527	37.03
827.704	125.1
827.882	47.27
828.059	71.85
828.237	20.65
828.414	141.48
828.591	-8.02
828.769	84.14
828.946	49.32
829.124	133.29
829.301	43.18
829.478	67.75
829.655	84.14
829.833	96.43
830.01	30.89
830.187	61.61
830.364	139.43
830.542	75.95
830.719	149.67
830.896	96.43
831.073	30.89
831.25	86.19
831.427	118.95
831.604	116.9
831.782	104.62
831.959	71.85
832.136	34.99
832.313	26.79
832.49	112.81
832.667	51.37
832.844	67.75
833.021	30.89
833.198	55.47
833.374	110.76
833.551	100.52
833.728	51.37
833.905	75.95
834.082	57.51
834.259	43.18
834.436	61.61
834.612	80.04
834.789	100.52
834.966	67.75
835.143	149.67
835.319	43.18
835.496	14.51
835.673	69.8
835.85	80.04
836.026	118.95
836.203	67.75
836.38	43.18
836.556	45.23
836.733	-12.12
836.909	139.43
837.086	-34.64
837.262	2.22
837.439	161.96
837.616	84.14
837.792	18.6
837.968	43.18
838.145	-12.12
838.321	37.03
838.498	59.56
838.674	45.23
838.851	108.71
839.027	86.19
839.203	47.27
839.38	84.14
839.556	34.99
839.732	61.61
839.909	-1.88
840.085	104.62
840.261	59.56
840.437	-5.97
840.614	-12.12
840.79	77.99
840.966	108.71
841.142	-1.88
841.318	34.99
841.494	30.89
841.671	34.99
841.847	51.37
842.023	-28.5
842.199	110.76
842.375	114.86
842.551	57.51
842.727	18.6
842.903	37.03
843.079	92.33
843.255	51.37
843.431	63.66
843.607	10.41
843.783	10.41
843.959	10.41
844.134	24.75
844.31	84.14
844.486	34.99
844.662	-22.36
844.838	43.18
845.013	57.51
845.189	71.85
845.365	43.18
845.541	-28.5
845.716	37.03
845.892	100.52
846.068	-1.88
846.244	4.27
846.419	34.99
846.595	14.51
846.77	43.18
846.946	61.61
847.122	26.79
847.297	-5.97
847.473	86.19
847.648	-30.55
847.824	110.76
847.999	8.36
848.175	55.47
848.35	63.66
848.526	45.23
848.701	32.94
848.876	22.7
849.052	51.37
849.227	10.41
849.403	6.31
849.578	-22.36
849.753	0.17
849.929	22.7
850.104	2.22
850.279	41.13
850.454	20.65
850.63	80.04
850.805	43.18
850.98	77.99
851.155	32.94
851.33	61.61
851.505	-26.45
851.681	88.23
851.856	-110.42
852.031	34.99
852.206	18.6
852.381	71.85
852.556	22.7
852.731	20.65
852.906	37.03
853.081	45.23
853.256	22.7
853.431	-14.17
853.606	34.99
853.781	84.14
853.956	10.41
854.131	75.95
854.305	26.79
854.48	69.8
854.655	-3.93
854.83	67.75
855.005	-5.97
855.18	53.42
855.354	12.46
855.529	96.43
855.704	73.9
855.879	63.66
856.053	-38.74
856.228	26.79
856.403	30.89
856.577	69.8
856.752	-75.6
856.926	16.55
857.101	-8.02
857.276	-14.17
857.45	71.85
857.625	67.75
857.799	43.18
857.974	61.61
858.148	-112.47
858.323	18.6
858.497	123.05
858.672	26.79
858.846	45.23
859.02	55.47
859.195	-38.74
859.369	34.99
859.543	45.23
859.718	59.56
859.892	34.99
860.066	53.42
860.241	22.7
860.415	34.99
860.589	65.71
860.763	57.51
860.938	-20.31
861.112	30.89
861.286	-46.93
861.46	26.79
861.634	-1.88
861.808	47.27
861.982	16.55
862.157	-61.27
862.331	-44.88
862.505	-3.93
862.679	-22.36
862.853	-18.26
863.027	-63.32
863.201	43.18
863.375	47.27
863.549	63.66
863.722	20.65
863.896	110.76
864.07	34.99
864.244	-91.99
864.418	-40.79
864.592	59.56
864.766	-3.93
864.939	37.03
865.113	-44.88
865.287	30.89
865.461	-1.88
865.634	14.51
865.808	59.56
865.982	30.89
866.156	-69.46
866.329	-53.08
866.503	63.66
866.676	47.27
866.85	-10.07
867.024	-1.88
867.197	67.75
867.371	47.27
867.544	-14.17
867.718	-10.07
867.891	6.31
868.065	51.37
868.238	-46.93
868.412	51.37
868.585	20.65
868.759	-63.32
868.932	16.55
869.105	14.51
869.279	59.56
869.452	18.6
869.625	45.23
869.799	55.47
869.972	-63.32
870.145	10.41
870.319	51.37
870.492	-61.27
870.665	-32.6
870.838	-102.23
871.011	10.41
871.185	-46.93
871.358	-79.7
871.531	20.65
871.704	-14.17
871.877	96.43
872.05	34.99
872.223	26.79
872.396	14.51
872.569	4.27
872.742	4.27
872.915	16.55
873.088	-65.36
873.261	-38.74
873.434	84.14
873.607	6.31
873.78	-26.45
873.953	-1.88
874.126	6.31
874.299	47.27
874.471	-22.36
874.644	-67.41
874.817	98.47
874.99	45.23
875.163	-59.22
875.335	2.22
875.508	6.31
875.681	75.95
875.853	14.51
876.026	-79.7
876.199	30.89
876.371	37.03
876.544	41.13
876.717	2.22
876.889	-22.36
877.062	-61.27
877.234	-53.08
877.407	-12.12
877.579	-55.12
877.752	28.84
877.924	26.79
878.097	43.18
878.269	-63.32
878.442	2.22
878.614	-3.93
878.786	10.41
878.959	65.71
879.131	-12.12
879.303	-83.8
879.476	-5.97
879.648	30.89
879.82	43.18
879.993	43.18
880.165	47.27
880.337	-48.98
880.509	104.62
880.681	-5.97
880.854	22.7
881.026	-40.79
881.198	6.31
881.37	-5.97
881.542	-28.5
881.714	-46.93
881.886	69.8
882.058	-5.97
882.23	-118.61
882.402	55.47
882.574	-1.88
882.746	8.36
882.918	2.22
883.09	-46.93
883.262	51.37
883.434	-20.31
883.606	-28.5
883.778	4.27
883.95	59.56
884.122	-46.93
884.293	63.66
884.465	20.65
884.637	2.22
884.809	0.17
884.98	12.46
885.152	55.47
885.324	10.41
885.496	-46.93
885.667	-30.55
885.839	-26.45
886.011	80.04
886.182	20.65
886.354	20.65
886.525	8.36
886.697	-22.36
886.869	-18.26
887.04	34.99
887.212	67.75
887.383	-26.45
887.555	34.99
887.726	34.99
887.897	18.6
888.069	-44.88
888.24	-20.31
888.412	-8.02
888.583	-59.22
888.754	45.23
888.926	-30.55
889.097	4.27
889.268	-14.17
889.44	98.47
889.611	-85.84
889.782	-53.08
889.953	10.41
890.125	57.51
890.296	2.22
890.467	-5.97
890.638	-1.88
890.809	-14.17
890.98	-22.36
891.151	65.71
891.323	-40.79
891.494	47.27
891.665	28.84
891.836	-38.74
892.007	51.37
892.178	61.61
892.349	-30.55
892.52	-32.6
892.691	43.18
892.862	-26.45
893.032	0.17
893.203	-22.36
893.374	65.71
893.545	18.6
893.716	-22.36
893.887	-44.88
894.057	47.27
894.228	22.7
894.399	2.22
894.57	10.41
894.74	18.6
894.911	22.7
895.082	39.08
895.253	-46.93
895.423	-28.5
895.594	92.33
895.764	67.75
895.935	-20.31
896.106	28.84
896.276	-5.97
896.447	26.79
896.617	-12.12
896.788	-44.88
896.958	22.7
897.129	-69.46
897.299	4.27
897.47	26.79
897.64	55.47
897.81	51.37
897.981	71.85
898.151	-44.88
898.322	-22.36
898.492	34.99
898.662	43.18
898.832	26.79
899.003	34.99
899.173	-46.93
899.343	-46.93
899.513	-5.97
