Data from USB4F104151__31__14-29-39-238.txt Node

Date: Thu Mar 13 14:29:39 EDT 2025
User: louis
Spectrometer: USB4F10415
Trigger mode: 4
Integration Time (sec): 2.500000E-2
Scans to average: 1
Electric dark correction enabled: true
Nonlinearity correction enabled: false
Boxcar width: 0
XAxis mode: Wavelengths
Number of Pixels in Spectrum: 3648
>>>>>Begin Spectral Data<<<<<
178.204	-84.31
178.424	-84.31
178.644	-84.31
178.864	-125.27
179.084	-160.08
179.304	24.23
179.524	16.04
179.744	-10.58
179.964	63.15
180.184	22.19
180.404	-29.01
180.624	-14.68
180.844	-43.35
181.064	-61.78
181.283	-4.44
181.503	-0.34
181.723	38.57
181.943	-61.78
182.163	28.33
182.383	7.85
182.602	-24.92
182.822	110.25
183.042	20.14
183.262	-22.87
183.482	28.33
183.701	-8.53
183.921	57
184.141	-18.77
184.361	36.52
184.58	20.14
184.8	16.04
185.02	57
185.239	132.78
185.459	20.14
185.679	16.04
185.898	-61.78
186.118	44.71
186.338	61.1
186.557	32.43
186.777	-24.92
186.997	46.76
187.216	-47.44
187.436	73.39
187.655	-4.44
187.875	20.14
188.095	-72.02
188.314	44.71
188.534	-12.63
188.753	-37.2
188.973	42.67
189.192	118.44
189.412	7.85
189.631	3.75
189.851	69.29
190.07	67.24
190.29	-12.63
190.509	28.33
190.729	-12.63
190.948	-24.92
191.168	145.06
191.387	20.14
191.607	-8.53
191.826	77.48
192.045	-53.59
192.265	3.75
192.484	1.71
192.704	63.15
192.923	-57.68
193.142	32.43
193.362	89.77
193.581	95.91
193.8	28.33
194.02	20.14
194.239	-33.11
194.458	-10.58
194.678	59.05
194.897	34.47
195.116	30.38
195.335	77.48
195.555	11.95
195.774	52.91
195.993	24.23
196.212	5.8
196.432	46.76
196.651	24.23
196.87	-35.16
197.089	93.87
197.308	36.52
197.528	-0.34
197.747	-2.39
197.966	-22.87
198.185	52.91
198.404	5.8
198.623	-33.11
198.842	11.95
199.062	18.09
199.281	-22.87
199.5	22.19
199.719	20.14
199.938	-53.59
200.157	11.95
200.376	-12.63
200.595	-20.82
200.814	40.62
201.033	-35.16
201.252	44.71
201.471	104.11
201.69	73.39
201.909	-31.06
202.128	75.43
202.347	-22.87
202.566	-82.26
202.785	28.33
203.004	-4.44
203.223	48.81
203.442	26.28
203.661	-24.92
203.879	16.04
204.098	32.43
204.317	-74.07
204.536	20.14
204.755	32.43
204.974	28.33
205.193	7.85
205.411	59.05
205.63	16.04
205.849	7.85
206.068	24.23
206.287	-26.96
206.505	22.19
206.724	54.95
206.943	67.24
207.162	57
207.381	11.95
207.599	102.06
207.818	-18.77
208.037	-4.44
208.255	16.04
208.474	87.72
208.693	11.95
208.911	32.43
209.13	-43.35
209.349	5.8
209.567	32.43
209.786	40.62
210.005	34.47
210.223	7.85
210.442	-20.82
210.661	32.43
210.879	36.52
211.098	40.62
211.316	-29.01
211.535	40.62
211.753	54.95
211.972	36.52
212.191	11.95
212.409	40.62
212.628	1.71
212.846	-47.44
213.065	3.75
213.283	95.91
213.502	20.14
213.72	5.8
213.938	42.67
214.157	-10.58
214.375	20.14
214.594	-37.2
214.812	52.91
215.031	91.82
215.249	-16.73
215.467	30.38
215.686	5.8
215.904	71.34
216.122	13.99
216.341	-10.58
216.559	69.29
216.778	57
216.996	38.57
217.214	-37.2
217.432	-78.16
217.651	20.14
217.869	-26.96
218.087	-69.97
218.306	13.99
218.524	38.57
218.742	-0.34
218.96	112.3
219.179	69.29
219.397	30.38
219.615	61.1
219.833	3.75
220.051	-29.01
220.27	24.23
220.488	24.23
220.706	79.53
220.924	-39.25
221.142	52.91
221.36	-14.68
221.578	79.53
221.796	-16.73
222.015	79.53
222.233	30.38
222.451	89.77
222.669	-6.49
222.887	13.99
223.105	26.28
223.323	-29.01
223.541	9.9
223.759	40.62
223.977	3.75
224.195	97.96
224.413	-0.34
224.631	7.85
224.849	13.99
225.067	112.3
225.285	-10.58
225.503	28.33
225.721	36.52
225.939	52.91
226.157	32.43
226.375	57
226.592	22.19
226.81	71.34
227.028	34.47
227.246	46.76
227.464	36.52
227.682	11.95
227.9	138.92
228.117	13.99
228.335	40.62
228.553	16.04
228.771	24.23
228.989	-12.63
229.206	-6.49
229.424	38.57
229.642	-2.39
229.86	-59.73
230.077	91.82
230.295	59.05
230.513	28.33
230.731	36.52
230.948	28.33
231.166	44.71
231.384	-22.87
231.601	128.68
231.819	22.19
232.037	22.19
232.254	-8.53
232.472	97.96
232.689	-26.96
232.907	20.14
233.125	7.85
233.342	54.95
233.56	-33.11
233.777	-20.82
233.995	52.91
234.213	30.38
234.43	5.8
234.648	124.58
234.865	28.33
235.083	3.75
235.3	-35.16
235.518	20.14
235.735	42.67
235.953	38.57
236.17	-2.39
236.388	-0.34
236.605	69.29
236.822	28.33
237.04	77.48
237.257	22.19
237.475	-35.16
237.692	11.95
237.909	26.28
238.127	-29.01
238.344	-16.73
238.562	36.52
238.779	3.75
238.996	85.67
239.214	-20.82
239.431	11.95
239.648	-35.16
239.865	65.19
240.083	28.33
240.3	44.71
240.517	85.67
240.735	20.14
240.952	-16.73
241.169	110.25
241.386	-14.68
241.603	-41.3
241.821	-59.73
242.038	77.48
242.255	32.43
242.472	-6.49
242.689	44.71
242.907	85.67
243.124	-12.63
243.341	110.25
243.558	38.57
243.775	-2.39
243.992	69.29
244.209	-8.53
244.426	38.57
244.643	-22.87
244.86	67.24
245.078	-4.44
245.295	26.28
245.512	93.87
245.729	24.23
245.946	-63.83
246.163	87.72
246.38	3.75
246.597	-20.82
246.814	61.1
247.031	-20.82
247.248	63.15
247.464	-49.49
247.681	9.9
247.898	-16.73
248.115	18.09
248.332	-53.59
248.549	102.06
248.766	97.96
248.983	89.77
249.2	85.67
249.417	20.14
249.633	32.43
249.85	46.76
250.067	40.62
250.284	-10.58
250.501	57
250.717	118.44
250.934	-57.68
251.151	-4.44
251.368	-14.68
251.585	61.1
251.801	32.43
252.018	-24.92
252.235	46.76
252.451	52.91
252.668	34.47
252.885	89.77
253.102	52.91
253.318	3.75
253.535	-4.44
253.752	-12.63
253.968	3.75
254.185	-35.16
254.401	-29.01
254.618	-20.82
254.835	16.04
255.051	77.48
255.268	44.71
255.484	11.95
255.701	-10.58
255.917	-12.63
256.134	-43.35
256.351	-0.34
256.567	-4.44
256.784	16.04
257	16.04
257.217	52.91
257.433	-20.82
257.65	52.91
257.866	69.29
258.082	-37.2
258.299	38.57
258.515	11.95
258.732	13.99
258.948	-4.44
259.165	5.8
259.381	-12.63
259.597	-12.63
259.814	-20.82
260.03	24.23
260.246	54.95
260.463	20.14
260.679	30.38
260.895	11.95
261.112	69.29
261.328	-4.44
261.544	3.75
261.761	67.24
261.977	-41.3
262.193	13.99
262.409	28.33
262.626	28.33
262.842	85.67
263.058	-10.58
263.274	30.38
263.49	3.75
263.707	69.29
263.923	30.38
264.139	24.23
264.355	44.71
264.571	63.15
264.787	69.29
265.004	44.71
265.22	44.71
265.436	67.24
265.652	-8.53
265.868	32.43
266.084	-51.54
266.3	24.23
266.516	-29.01
266.732	81.58
266.948	28.33
267.164	48.81
267.38	20.14
267.596	83.63
267.812	52.91
268.028	110.25
268.244	1.71
268.46	46.76
268.676	-16.73
268.892	-61.78
269.108	-45.4
269.324	3.75
269.54	61.1
269.756	22.19
269.972	48.81
270.188	-57.68
270.403	-0.34
270.619	-20.82
270.835	100.01
271.051	63.15
271.267	-43.35
271.483	52.91
271.698	1.71
271.914	13.99
272.13	-4.44
272.346	1.71
272.562	11.95
272.777	32.43
272.993	32.43
273.209	-4.44
273.425	38.57
273.64	-4.44
273.856	77.48
274.072	52.91
274.287	-29.01
274.503	-4.44
274.719	44.71
274.934	36.52
275.15	-53.59
275.366	3.75
275.581	81.58
275.797	3.75
276.012	3.75
276.228	-2.39
276.444	-26.96
276.659	36.52
276.875	-67.92
277.09	77.48
277.306	18.09
277.521	-0.34
277.737	24.23
277.952	102.06
278.168	20.14
278.383	-29.01
278.599	13.99
278.814	48.81
279.03	-24.92
279.245	46.76
279.461	26.28
279.676	40.62
279.892	-51.54
280.107	-16.73
280.322	16.04
280.538	3.75
280.753	-2.39
280.969	143.02
281.184	54.95
281.399	93.87
281.615	-10.58
281.83	11.95
282.045	-12.63
282.26	28.33
282.476	81.58
282.691	77.48
282.906	63.15
283.122	13.99
283.337	11.95
283.552	22.19
283.767	24.23
283.983	18.09
284.198	-35.16
284.413	30.38
284.628	-74.07
284.843	48.81
285.058	7.85
285.274	22.19
285.489	16.04
285.704	71.34
285.919	-37.2
286.134	11.95
286.349	5.8
286.564	114.34
286.779	50.86
286.995	7.85
287.21	-26.96
287.425	26.28
287.64	11.95
287.855	3.75
288.07	-24.92
288.285	28.33
288.5	-29.01
288.715	54.95
288.93	1.71
289.145	-22.87
289.36	97.96
289.575	52.91
289.79	50.86
290.004	54.95
290.219	73.39
290.434	69.29
290.649	-53.59
290.864	-2.39
291.079	-35.16
291.294	-4.44
291.509	112.3
291.724	11.95
291.938	7.85
292.153	-4.44
292.368	-14.68
292.583	81.58
292.798	69.29
293.012	5.8
293.227	61.1
293.442	16.04
293.657	16.04
293.871	11.95
294.086	83.63
294.301	106.15
294.516	54.95
294.73	-14.68
294.945	44.71
295.16	22.19
295.374	-12.63
295.589	-14.68
295.804	-2.39
296.018	5.8
296.233	104.11
296.447	28.33
296.662	30.38
296.877	71.34
297.091	-29.01
297.306	-10.58
297.52	-22.87
297.735	-4.44
297.949	85.67
298.164	73.39
298.378	5.8
298.593	95.91
298.807	69.29
299.022	22.19
299.236	5.8
299.451	48.81
299.665	52.91
299.88	32.43
300.094	-0.34
300.309	-10.58
300.523	61.1
300.737	-10.58
300.952	26.28
301.166	59.05
301.381	69.29
301.595	106.15
301.809	32.43
302.024	5.8
302.238	38.57
302.452	11.95
302.667	-69.97
302.881	69.29
303.095	38.57
303.309	73.39
303.524	24.23
303.738	11.95
303.952	40.62
304.166	11.95
304.381	-29.01
304.595	30.38
304.809	-16.73
305.023	40.62
305.237	-33.11
305.452	87.72
305.666	5.8
305.88	-16.73
306.094	-6.49
306.308	40.62
306.522	73.39
306.736	110.25
306.95	5.8
307.164	69.29
307.379	-29.01
307.593	-18.77
307.807	81.58
308.021	22.19
308.235	-49.49
308.449	18.09
308.663	1.71
308.877	106.15
309.091	42.67
309.305	-14.68
309.519	-65.88
309.733	36.52
309.947	-18.77
310.161	69.29
310.374	40.62
310.588	97.96
310.802	-39.25
311.016	20.14
311.23	32.43
311.444	-49.49
311.658	32.43
311.872	128.68
312.085	102.06
312.299	16.04
312.513	61.1
312.727	52.91
312.941	-82.26
313.154	20.14
313.368	1.71
313.582	-49.49
313.796	20.14
314.009	16.04
314.223	-4.44
314.437	50.86
314.651	-18.77
314.864	-45.4
315.078	11.95
315.292	-86.36
315.505	-16.73
315.719	20.14
315.933	79.53
316.146	28.33
316.36	-6.49
316.573	104.11
316.787	69.29
317.001	-20.82
317.214	-29.01
317.428	126.63
317.641	-2.39
317.855	61.1
318.068	30.38
318.282	102.06
318.495	61.1
318.709	52.91
318.922	52.91
319.136	67.24
319.349	77.48
319.563	48.81
319.776	40.62
319.99	38.57
320.203	-20.82
320.417	81.58
320.63	-29.01
320.843	54.95
321.057	-6.49
321.27	20.14
321.483	50.86
321.697	61.1
321.91	52.91
322.124	-16.73
322.337	77.48
322.55	46.76
322.763	-22.87
322.977	-0.34
323.19	7.85
323.403	46.76
323.617	-2.39
323.83	106.15
324.043	65.19
324.256	52.91
324.469	11.95
324.683	46.76
324.896	36.52
325.109	42.67
325.322	-0.34
325.535	110.25
325.748	11.95
325.962	102.06
326.175	11.95
326.388	32.43
326.601	93.87
326.814	-18.77
327.027	-35.16
327.24	69.29
327.453	-43.35
327.666	44.71
327.879	50.86
328.092	71.34
328.305	-61.78
328.518	81.58
328.731	-39.25
328.944	-37.2
329.157	-37.2
329.37	32.43
329.583	118.44
329.796	16.04
330.009	1.71
330.222	-12.63
330.435	28.33
330.648	52.91
330.861	50.86
331.073	77.48
331.286	32.43
331.499	69.29
331.712	-22.87
331.925	32.43
332.138	5.8
332.35	61.1
332.563	-4.44
332.776	24.23
332.989	-37.2
333.202	-14.68
333.414	-33.11
333.627	11.95
333.84	26.28
334.053	11.95
334.265	52.91
334.478	3.75
334.691	11.95
334.903	54.95
335.116	-6.49
335.329	-16.73
335.541	16.04
335.754	79.53
335.966	-63.83
336.179	61.1
336.392	3.75
336.604	71.34
336.817	67.24
337.029	32.43
337.242	36.52
337.454	83.63
337.667	69.29
337.88	61.1
338.092	-4.44
338.305	-37.2
338.517	-10.58
338.729	46.76
338.942	52.91
339.154	-57.68
339.367	38.57
339.579	-33.11
339.792	-12.63
340.004	5.8
340.217	38.57
340.429	30.38
340.641	-55.64
340.854	-22.87
341.066	-82.26
341.278	22.19
341.491	40.62
341.703	24.23
341.915	-53.59
342.128	26.28
342.34	-45.4
342.552	-26.96
342.764	-37.2
342.977	48.81
343.189	-20.82
343.401	97.96
343.613	34.47
343.826	11.95
344.038	63.15
344.25	-37.2
344.462	30.38
344.674	28.33
344.886	38.57
345.099	61.1
345.311	46.76
345.523	65.19
345.735	-47.44
345.947	-2.39
346.159	13.99
346.371	30.38
346.583	28.33
346.795	65.19
347.007	-16.73
347.219	85.67
347.431	26.28
347.643	71.34
347.855	52.91
348.067	97.96
348.279	-16.73
348.491	30.38
348.703	77.48
348.915	18.09
349.127	36.52
349.339	3.75
349.551	-39.25
349.763	22.19
349.975	-35.16
350.187	73.39
350.399	65.19
350.61	110.25
350.822	-12.63
351.034	11.95
351.246	87.72
351.458	18.09
351.669	134.82
351.881	73.39
352.093	36.52
352.305	48.81
352.517	48.81
352.728	50.86
352.94	28.33
353.152	46.76
353.363	30.38
353.575	77.48
353.787	116.39
353.999	40.62
354.21	97.96
354.422	11.95
354.633	-74.07
354.845	13.99
355.057	-45.4
355.268	147.11
355.48	91.82
355.692	120.49
355.903	54.95
356.115	40.62
356.326	38.57
356.538	69.29
356.749	-0.34
356.961	50.86
357.172	-12.63
357.384	57
357.595	81.58
357.807	52.91
358.018	38.57
358.23	30.38
358.441	134.82
358.653	32.43
358.864	-0.34
359.075	32.43
359.287	28.33
359.498	-4.44
359.709	73.39
359.921	36.52
360.132	52.91
360.344	69.29
360.555	30.38
360.766	77.48
360.977	57
361.189	36.52
361.4	-41.3
361.611	30.38
361.823	81.58
362.034	87.72
362.245	30.38
362.456	5.8
362.667	-16.73
362.879	20.14
363.09	71.34
363.301	36.52
363.512	57
363.723	97.96
363.935	-57.68
364.146	73.39
364.357	40.62
364.568	77.48
364.779	3.75
364.99	97.96
365.201	22.19
365.412	134.82
365.623	73.39
365.834	97.96
366.045	11.95
366.256	79.53
366.467	38.57
366.678	11.95
366.889	22.19
367.1	7.85
367.311	120.49
367.522	65.19
367.733	77.48
367.944	63.15
368.155	46.76
368.366	11.95
368.577	75.43
368.788	30.38
368.999	28.33
369.209	46.76
369.42	48.81
369.631	65.19
369.842	40.62
370.053	32.43
370.264	-4.44
370.474	5.8
370.685	28.33
370.896	65.19
371.107	44.71
371.317	61.1
371.528	3.75
371.739	61.1
371.95	87.72
372.16	28.33
372.371	73.39
372.582	65.19
372.792	22.19
373.003	85.67
373.214	-26.96
373.424	44.71
373.635	-20.82
373.846	22.19
374.056	11.95
374.267	13.99
374.477	-24.92
374.688	-10.58
374.898	38.57
375.109	54.95
375.319	-4.44
375.53	73.39
375.74	44.71
375.951	-12.63
376.161	-16.73
376.372	44.71
376.582	3.75
376.793	11.95
377.003	-4.44
377.214	81.58
377.424	1.71
377.635	9.9
377.845	-76.12
378.055	57
378.266	-18.77
378.476	-24.92
378.686	52.91
378.897	-29.01
379.107	67.24
379.317	110.25
379.528	-4.44
379.738	30.38
379.948	-0.34
380.158	67.24
380.369	5.8
380.579	44.71
380.789	61.1
380.999	20.14
381.21	57
381.42	65.19
381.63	-24.92
381.84	11.95
382.05	11.95
382.261	-4.44
382.471	-0.34
382.681	104.11
382.891	132.78
383.101	59.05
383.311	-45.4
383.521	-0.34
383.731	126.63
383.941	36.52
384.151	32.43
384.361	77.48
384.571	20.14
384.781	120.49
384.991	110.25
385.201	157.35
385.411	110.25
385.621	36.52
385.831	46.76
386.041	-22.87
386.251	16.04
386.461	71.34
386.671	32.43
386.881	38.57
387.091	-4.44
387.301	73.39
387.511	83.63
387.72	20.14
387.93	-16.73
388.14	34.47
388.35	3.75
388.56	11.95
388.769	69.29
388.979	46.76
389.189	95.91
389.399	32.43
389.609	104.11
389.818	104.11
390.028	18.09
390.238	155.3
390.447	-0.34
390.657	61.1
390.867	54.95
391.076	69.29
391.286	59.05
391.496	85.67
391.705	89.77
391.915	44.71
392.125	87.72
392.334	95.91
392.544	93.87
392.753	28.33
392.963	26.28
393.172	-2.39
393.382	28.33
393.591	-12.63
393.801	77.48
394.01	28.33
394.22	16.04
394.429	30.38
394.639	73.39
394.848	89.77
395.058	11.95
395.267	85.67
395.477	87.72
395.686	36.52
395.895	159.4
396.105	161.45
396.314	77.48
396.524	130.73
396.733	77.48
396.942	126.63
397.152	81.58
397.361	134.82
397.57	81.58
397.78	106.15
397.989	79.53
398.198	151.21
398.407	93.87
398.617	118.44
398.826	63.15
399.035	102.06
399.244	34.47
399.453	63.15
399.663	118.44
399.872	97.96
400.081	20.14
400.29	126.63
400.499	73.39
400.708	132.78
400.917	52.91
401.127	130.73
401.336	32.43
401.545	151.21
401.754	169.64
401.963	128.68
402.172	102.06
402.381	85.67
402.59	57
402.799	126.63
403.008	161.45
403.217	134.82
403.426	87.72
403.635	110.25
403.844	63.15
404.053	89.77
404.262	118.44
404.471	147.11
404.68	130.73
404.888	63.15
405.097	112.3
405.306	120.49
405.515	77.48
405.724	118.44
405.933	134.82
406.142	196.26
406.35	249.51
406.559	145.06
406.768	116.39
406.977	267.94
407.185	196.26
407.394	134.82
407.603	134.82
407.812	274.09
408.02	173.74
408.229	183.98
408.438	175.78
408.646	269.99
408.855	231.08
409.064	206.5
409.272	237.22
409.481	218.79
409.69	243.37
409.898	161.45
410.107	251.56
410.315	349.86
410.524	300.71
410.733	300.71
410.941	386.72
411.15	339.62
411.358	347.81
411.567	374.44
411.775	380.58
411.984	425.64
412.192	380.58
412.401	417.44
412.609	423.59
412.818	495.27
413.026	437.92
413.234	470.69
413.443	374.44
413.651	482.98
413.86	528.03
414.068	542.37
414.276	577.19
414.485	624.29
414.693	636.58
414.901	726.69
415.11	718.5
415.318	609.95
415.526	716.45
415.734	753.31
415.943	847.52
416.151	810.65
416.359	743.07
416.567	767.65
416.776	820.89
416.984	923.29
417.192	933.53
417.4	941.72
417.608	968.35
417.817	962.2
418.025	970.4
418.233	1052.31
418.441	1095.32
418.649	1031.83
418.857	1234.58
419.065	1324.69
419.273	1169.05
419.481	1248.92
419.689	1369.75
419.897	1423
420.105	1435.28
420.313	1400.47
420.521	1601.17
420.729	1670.8
420.937	1494.68
421.145	1650.32
421.353	1853.07
421.561	1820.3
421.769	1824.4
421.977	1916.56
422.185	1992.33
422.393	2008.72
422.601	2084.49
422.809	2121.35
423.017	2150.03
423.224	2207.37
423.432	2332.3
423.64	2313.86
423.848	2567.81
424.056	2504.32
424.263	2723.46
424.471	2576
424.679	2735.74
424.887	2805.38
425.094	2922.11
425.302	2950.78
425.51	3102.33
425.718	3133.05
425.925	3264.12
426.133	3237.5
426.341	3530.36
426.548	3663.47
426.756	3559.03
426.964	3872.37
427.171	4003.44
427.379	4032.11
427.586	4185.71
427.794	4204.14
428.001	4427.37
428.209	4533.86
428.417	4593.25
428.624	4841.06
428.832	4863.58
429.039	4826.72
429.247	4763.23
429.454	5254.75
429.662	5654.1
429.869	5213.79
430.076	5607
430.284	5402.2
430.491	5799.51
430.699	5949.01
430.906	5971.54
431.114	6164.04
431.321	6196.81
431.528	6387.27
431.736	6843.97
431.943	7218.75
432.15	6909.51
432.358	7106.11
432.565	7476.79
432.772	7269.95
432.979	7697.97
433.187	7927.35
433.394	8046.13
433.601	8398.38
433.808	8588.84
434.016	8443.43
434.223	8691.24
434.43	9135.65
434.637	9172.51
434.844	9725.46
435.052	9956.88
435.259	9815.57
435.466	9981.46
435.673	9817.62
435.88	10587.66
436.087	10888.71
436.294	10999.3
436.501	10849.8
436.708	11062.79
436.915	11243.01
437.122	11851.25
437.329	11693.56
437.537	12172.78
437.743	12578.28
437.95	12189.17
438.157	12963.3
438.364	13401.57
438.571	13153.76
438.778	13288.93
438.985	14618.06
439.192	14321.1
439.399	14415.31
439.606	14245.33
439.813	15058.37
440.02	15685.05
440.227	15742.39
440.433	15619.52
440.64	15928.76
440.847	15994.29
441.054	16240.05
441.261	17057.19
441.467	16815.53
441.674	17155.49
441.881	17919.39
442.088	17571.23
442.294	17487.26
442.501	18267.54
442.708	18419.09
442.914	19299.72
443.121	19961.21
443.328	19389.83
443.534	20739.44
443.741	20168.05
443.948	20069.75
444.154	20979.05
444.361	21173.61
444.568	21325.16
444.774	21507.43
444.981	21691.74
445.187	22220.12
445.394	23057.74
445.6	22799.69
445.807	25009.45
446.013	23854.4
446.22	24573.24
446.426	25285.93
446.633	25797.92
446.839	26445.08
447.046	25584.93
447.252	26987.79
447.459	26893.58
447.665	26926.35
447.871	27952.38
448.078	29220.08
448.284	27725.06
448.491	28534.01
448.697	29609.19
448.903	30172.38
449.11	30221.53
449.316	29764.84
449.522	30547.16
449.728	31114.45
449.935	31100.11
450.141	31212.75
450.347	32160.96
450.553	30989.52
450.76	31177.93
450.966	32357.56
451.172	31984.83
451.378	33125.55
451.584	32279.74
451.791	33086.64
451.997	33141.94
452.203	33744.04
452.409	33594.54
452.615	33576.11
452.821	32095.42
453.027	31993.03
453.233	33684.65
453.44	32382.14
453.646	32978.1
453.852	32570.55
454.058	33346.73
454.264	32472.25
454.47	32795.83
454.676	32136.38
454.882	33215.66
455.088	30385.37
455.294	31349.96
455.5	31659.21
455.705	32070.85
455.911	30745.81
456.117	30178.53
456.323	29588.71
456.529	27802.88
456.735	29342.95
456.941	28720.37
457.147	28142.85
457.352	27344.14
457.558	27063.57
457.764	26850.58
457.97	26449.18
458.176	25619.75
458.381	25732.39
458.587	24706.35
458.793	24276.28
458.999	23311.69
459.204	25079.08
459.41	24474.93
459.616	22449.49
459.821	22586.71
460.027	22662.48
460.233	22406.48
460.438	20878.7
460.644	21386.6
460.85	20098.42
461.055	19697.02
461.261	19805.56
461.466	18269.59
461.672	17651.1
461.878	19021.19
462.083	17653.15
462.289	17477.02
462.494	17397.15
462.7	16500.14
462.905	16162.23
463.111	16760.23
463.316	16668.08
463.522	16113.08
463.727	16070.07
463.932	16238
464.138	16002.49
464.343	16119.22
464.549	15760.83
464.754	16057.78
464.959	16254.39
465.165	15918.52
465.37	15117.76
465.575	14751.18
465.781	15228.35
465.986	15322.56
466.191	14654.92
466.397	14568.91
466.602	13794.78
466.807	14108.12
467.012	14353.87
467.218	14138.83
467.423	13800.92
467.628	13852.12
467.833	14515.66
468.038	13962.71
468.244	13686.23
468.449	14179.79
468.654	13700.57
468.859	13485.53
469.064	13456.86
469.269	13127.14
469.474	13137.38
469.679	13368.8
469.885	12762.6
470.09	13071.84
470.295	12914.15
470.5	12502.51
470.705	12748.26
470.91	12398.06
471.115	12367.34
471.32	12660.2
471.525	12586.47
471.73	12209.65
471.935	11941.36
472.139	11570.68
472.344	11685.37
472.549	11886.07
472.754	11789.81
472.959	11259.39
473.164	11195.9
473.369	11128.32
473.574	11308.54
473.778	11202.05
473.983	11122.18
474.188	10898.95
474.393	10571.27
474.598	10628.62
474.802	10470.92
475.007	10579.47
475.212	10294.8
475.417	10063.38
475.621	10309.13
475.826	10137.1
476.031	10030.61
476.235	9707.03
476.44	9960.98
476.645	9735.7
476.849	9563.67
477.054	9535
477.259	9203.23
477.463	9455.13
477.668	9250.33
477.872	9291.29
478.077	9033.25
478.282	8965.67
478.486	8865.32
478.691	8943.14
478.895	8959.52
479.1	8767.01
479.304	8570.41
479.509	8539.69
479.713	8539.69
479.918	8402.47
480.122	8367.66
480.326	8465.96
480.531	8398.38
480.735	8187.44
480.94	8252.97
481.144	8558.12
481.348	8134.19
481.553	8363.56
481.757	8042.03
481.961	8042.03
482.166	8230.45
482.37	8091.18
482.574	7996.98
482.778	7958.07
482.983	8107.57
483.187	8082.99
483.391	8138.29
483.595	7904.82
483.8	7820.85
484.004	8097.33
484.208	8027.7
484.412	7910.96
484.616	8076.85
484.821	7917.11
485.025	7673.4
485.229	7818.8
485.433	7958.07
485.637	7994.93
485.841	7888.43
486.045	7904.82
486.249	7904.82
486.453	8033.84
486.657	7953.97
486.861	7951.92
487.065	7820.85
487.269	7810.61
487.473	7534.14
487.677	7749.17
487.881	7818.8
488.085	7718.45
488.289	7902.77
488.493	7781.94
488.697	7814.71
488.901	7843.38
489.105	7999.02
489.309	7964.21
489.512	7802.42
489.716	7722.55
489.92	7910.96
490.124	7925.3
490.328	8009.26
490.531	7892.53
490.735	7962.16
490.939	7865.91
491.143	7886.39
491.346	7908.91
491.55	8017.46
491.754	7986.74
491.958	8009.26
492.161	7872.05
492.365	7902.77
492.569	8107.57
492.772	8052.27
492.976	8136.24
493.18	8273.45
493.383	8244.78
493.587	8123.95
493.79	8273.45
493.994	8097.33
494.197	8314.41
494.401	8293.93
494.605	8461.87
494.808	8429.1
495.012	8506.92
495.215	8367.66
495.419	8572.46
495.622	8537.64
495.825	8681
496.029	8619.56
496.232	8670.76
496.436	8803.88
496.639	9123.36
496.843	8826.4
497.046	9131.55
497.249	9076.26
497.453	9195.04
497.656	9350.68
497.859	9358.88
498.063	9362.97
498.266	9686.55
498.469	9455.13
498.673	9774.61
498.876	9639.45
499.079	10046.99
499.282	9868.82
499.485	9999.89
499.689	10161.68
499.892	10247.69
500.095	10186.26
500.298	10346
500.501	10300.94
500.705	10528.27
500.908	10755.59
501.111	10710.54
501.314	10874.37
501.517	11175.42
501.72	11099.65
501.923	11220.48
502.126	11496.96
502.329	11460.09
502.532	11566.59
502.735	11529.72
502.938	11828.73
503.141	11775.48
503.344	12135.92
503.547	11869.69
503.75	12221.94
503.953	12500.46
504.156	12627.43
504.359	12535.28
504.562	12717.54
504.765	12875.24
504.968	13075.94
505.17	13184.48
505.373	13075.94
505.576	13479.39
505.779	13581.79
505.982	13641.18
506.185	13921.75
506.387	13917.65
506.59	14130.64
506.793	14460.37
506.996	14175.7
507.198	14699.98
507.401	14546.38
507.604	14667.21
507.807	14785.99
508.009	14921.16
508.212	15166.92
508.415	15261.12
508.617	15336.9
508.82	15709.63
509.022	15584.7
509.225	15996.34
509.428	15961.53
509.63	16281.01
509.833	16018.87
510.035	16575.92
510.238	16586.16
510.44	16930.22
510.643	16838.06
510.845	17132.97
511.048	17208.74
511.25	17446.3
511.453	17477.02
511.655	18247.06
511.858	17972.63
512.06	18040.22
512.262	18218.39
512.465	18075.03
512.667	18501.01
512.87	18462.1
513.072	18654.61
513.274	18761.1
513.477	19123.59
513.679	19240.33
513.881	19445.12
514.084	19715.45
514.286	19615.1
514.488	19742.08
514.69	20440.43
514.893	20551.03
515.095	20303.22
515.297	20589.94
515.499	20688.24
515.701	20845.93
515.904	20956.52
516.106	21122.41
516.308	21380.45
516.51	21917.02
516.712	21720.42
516.914	21753.18
517.116	22297.94
517.318	22197.59
517.52	22474.07
517.722	22496.6
517.925	22934.86
518.127	23006.54
518.329	23092.55
518.531	22977.87
518.733	23752
518.935	23618.88
519.136	23741.76
519.338	24280.38
519.54	24008
519.742	24296.76
519.944	24388.92
520.146	24902.96
520.348	24694.07
520.55	24898.86
520.752	24814.9
520.954	25312.55
521.155	24993.07
521.357	25603.36
521.559	25638.18
521.761	25799.97
521.963	25883.94
522.164	25896.22
522.366	25859.36
522.568	26606.87
522.77	26189.08
522.971	26615.06
523.173	26483.99
523.375	26631.44
523.576	26834.19
523.778	26397.98
523.98	27065.61
524.181	27202.83
524.383	27141.39
524.584	27485.45
524.786	27301.13
524.988	26957.07
525.189	27598.09
525.391	27886.85
525.592	27682.05
525.794	27591.94
525.995	27704.58
526.197	27870.47
526.398	27825.41
526.6	28202.24
526.801	28056.83
527.003	28245.24
527.204	27661.57
527.406	28208.38
527.607	27968.77
527.808	28148.99
528.01	28036.35
528.211	27989.25
528.412	28847.35
528.614	28501.24
528.815	28251.39
529.016	28843.25
529.218	28445.94
529.419	28294.39
529.62	28480.76
529.822	28028.16
530.023	28460.28
530.224	28368.12
530.425	28108.03
530.626	28493.05
530.828	27839.75
531.029	28755.19
531.23	28357.88
531.431	28093.69
531.632	28552.44
531.833	28292.35
532.035	28032.25
532.236	28302.59
532.437	28288.25
532.638	28292.35
532.839	28458.23
533.04	28335.35
533.241	27737.35
533.442	28343.55
533.643	28026.11
533.844	28083.45
534.045	28368.12
534.246	28081.41
534.447	28323.07
534.648	27766.02
534.849	27942.14
535.05	27804.93
535.251	28263.68
535.451	27718.92
535.652	27942.14
535.853	27720.96
536.054	27798.79
536.255	28052.73
536.456	27854.08
536.657	27897.09
536.857	27809.03
537.058	27684.1
537.259	27942.14
537.46	27794.69
537.66	27761.92
537.861	27477.26
538.062	27817.22
538.263	27485.45
538.463	27555.08
538.664	27528.45
538.865	27553.03
539.065	27491.59
539.266	27012.37
539.466	27585.8
539.667	27102.48
539.868	27409.67
540.068	27329.8
540.269	27161.87
540.469	27190.54
540.67	27206.92
540.87	27116.81
541.071	27100.43
541.271	27348.23
541.472	27194.64
541.672	27450.63
541.873	27055.37
542.073	26799.38
542.274	27223.31
542.474	27202.83
542.675	27071.76
542.875	27077.9
543.075	26887.44
543.276	26600.72
543.476	27165.96
543.676	27053.33
543.877	27000.08
544.077	27075.85
544.277	27104.53
544.478	27004.17
544.678	26889.49
544.878	27051.28
545.078	26944.78
545.279	26549.53
545.479	26873.1
545.679	26985.74
545.879	26830.1
546.079	26975.5
546.28	26803.47
546.48	26473.75
546.68	26692.88
546.88	27174.16
547.08	27030.8
547.28	27086.09
547.48	26707.22
547.68	27145.48
547.88	26653.97
548.081	26875.15
548.281	26840.34
548.481	26522.9
548.681	27145.48
548.881	27063.57
549.081	26887.44
549.28	26873.1
549.48	26807.57
549.68	26715.41
549.88	26965.26
550.08	26428.7
550.28	26987.79
550.48	26887.44
550.68	27098.38
550.88	26957.07
551.08	26928.4
551.279	27041.04
551.479	26625.3
551.679	26973.46
551.879	26834.19
552.079	26656.02
552.278	26875.15
552.478	27010.32
552.678	26858.77
552.878	27264.27
553.077	27139.34
553.277	26481.94
553.477	27227.4
553.676	27045.13
553.876	26610.96
554.076	26856.72
554.275	26914.06
554.475	26596.63
554.674	27104.53
554.874	27270.41
555.074	27139.34
555.273	27032.85
555.473	26995.98
555.672	26942.74
555.872	27024.65
556.071	26848.53
556.271	27147.53
556.47	27180.3
556.67	26785.04
556.869	26739.99
557.068	27020.56
557.268	27106.57
557.467	27057.42
557.667	26850.58
557.866	27149.58
558.065	27192.59
558.265	27145.48
558.464	26723.6
558.663	27407.62
558.863	26572.05
559.062	27180.3
559.261	26936.59
559.461	27012.37
559.66	26709.27
559.859	27014.41
560.058	26928.4
560.258	27196.68
560.457	26899.73
560.656	27051.28
560.855	26926.35
561.054	26983.69
561.253	26971.41
561.453	27032.85
561.652	27211.02
561.851	27067.66
562.05	27108.62
562.249	26758.42
562.448	27286.79
562.647	26756.37
562.846	26940.69
563.045	26977.55
563.244	26852.62
563.443	27239.69
563.642	26551.57
563.841	26791.19
564.04	26883.34
564.239	27151.63
564.438	26729.75
564.637	26848.53
564.836	26789.14
565.035	26719.51
565.234	26842.39
565.432	26463.51
565.631	26641.68
565.83	26846.48
566.029	26645.78
566.228	26647.83
566.427	26531.09
566.625	26494.23
566.824	26154.27
567.023	26496.28
567.222	26088.73
567.42	26420.5
567.619	26428.7
567.818	26692.88
568.016	26498.33
568.215	26494.23
568.414	25814.3
568.612	26549.53
568.811	26346.78
569.01	26191.13
569.208	25840.93
569.407	25959.71
569.605	25398.57
569.804	26021.15
570.002	25840.93
570.201	25961.76
570.4	25429.29
570.598	25728.29
570.797	25802.02
570.995	25543.97
571.193	25347.37
571.392	25515.3
571.59	25408.81
571.789	25136.43
571.987	25328.94
572.186	25134.38
572.384	25206.06
572.582	25230.63
572.781	25165.1
572.979	24716.59
573.177	25115.95
573.376	25169.19
573.574	24751.41
573.772	24864.05
573.971	24900.91
574.169	24771.89
574.367	24401.21
574.565	24532.28
574.763	24737.07
574.962	24143.16
575.16	23981.37
575.358	24354.1
575.556	23999.8
575.754	24585.52
575.952	23893.31
576.151	24143.16
576.349	23797.06
576.547	23938.37
576.745	23854.4
576.943	24212.79
577.141	23815.49
577.339	24194.36
577.537	23764.29
577.735	23582.02
577.933	23360.84
578.131	23358.79
578.329	23309.64
578.527	23336.26
578.725	23387.46
578.923	23467.33
579.121	22988.11
579.319	23223.62
579.516	23160.14
579.714	23211.34
579.912	22867.28
580.11	22981.96
580.308	23199.05
580.506	22889.81
580.704	22480.21
580.901	22775.12
581.099	22908.24
581.297	22334.81
581.495	22627.67
581.692	22580.56
581.89	22222.17
582.088	22701.39
582.285	22535.51
582.483	22658.38
582.681	22361.43
582.878	22570.32
583.076	22289.75
583.274	22429.01
583.471	21882.2
583.669	21880.16
583.866	22117.72
584.064	21929.31
584.262	21720.42
584.459	21818.72
584.657	21767.52
584.854	21941.6
585.052	21503.33
585.249	21720.42
585.447	21402.98
585.644	21468.52
585.841	21452.13
586.039	21722.46
586.236	21032.3
586.434	21468.52
586.631	21501.28
586.828	21044.59
587.026	21384.55
587.223	21323.11
587.42	21366.12
587.618	21204.33
587.815	21005.67
588.012	21097.83
588.21	20942.19
588.407	20907.37
588.604	20737.39
588.801	20655.47
588.999	20776.3
589.196	20708.72
589.393	20870.51
589.59	20788.59
589.787	20456.82
589.984	20557.17
590.182	20217.21
590.379	20710.77
590.576	20297.08
590.773	20358.52
590.97	20123
591.167	20317.56
591.364	19862.91
591.561	20034.94
591.758	19697.02
591.955	20233.59
592.152	20108.66
592.349	20094.33
592.546	20188.53
592.743	19967.35
592.94	19676.54
593.137	19893.63
593.334	19916.15
593.531	19766.65
593.727	19701.12
593.924	19844.48
594.121	19555.71
594.318	19666.3
594.515	19510.66
594.712	19922.3
594.908	19408.26
595.105	19328.39
595.302	19273.09
595.499	19690.88
595.696	19701.12
595.892	19369.35
596.089	19635.58
596.286	19508.61
596.482	19383.68
596.679	19158.41
596.876	19467.65
597.072	19297.67
597.269	19570.05
597.466	19223.94
597.662	19346.82
597.859	19041.67
598.055	19410.31
598.252	18998.66
598.448	19162.5
598.645	19162.5
598.841	19350.92
599.038	19344.77
599.234	19422.59
599.431	19238.28
599.627	19148.17
599.824	19338.63
600.02	19049.86
600.217	19197.32
600.413	19133.83
600.609	19043.72
600.806	19414.4
601.002	19133.83
601.198	19066.25
601.395	19320.2
601.591	19367.3
601.787	19449.22
601.984	19322.24
602.18	19514.75
602.376	19156.36
602.572	19318.15
602.769	19207.56
602.965	19365.25
603.161	19402.11
603.357	19107.21
603.553	19289.48
603.75	19346.82
603.946	19193.22
604.142	19379.59
604.338	19481.99
604.534	19228.04
604.73	19172.74
604.926	19006.86
605.122	19410.31
605.318	19260.8
605.514	19320.2
605.71	19451.27
605.906	19416.45
606.102	19522.94
606.298	19694.97
606.494	19484.03
606.69	19541.38
606.886	19436.93
607.082	19545.47
607.278	19881.34
607.474	19418.5
607.67	19936.63
607.866	19629.44
608.062	19830.14
608.257	19815.8
608.453	20014.46
608.649	20153.72
608.845	19740.03
609.041	19967.35
609.236	19946.87
609.432	20088.18
609.628	20026.75
609.824	20100.47
610.019	19936.63
610.215	20094.33
610.411	20247.93
610.606	20206.97
610.802	20163.96
610.998	20168.05
611.193	20426.1
611.389	20346.23
611.584	20389.24
611.78	20163.96
611.976	20270.45
612.171	20565.36
612.367	20522.35
612.562	20071.8
612.758	20024.7
612.953	20163.96
613.149	20688.24
613.344	20563.31
613.539	20729.2
613.735	20413.81
613.93	20397.43
614.126	20620.66
614.321	20704.62
614.517	20487.54
614.712	20591.98
614.907	20491.63
615.103	20624.75
615.298	20485.49
615.493	20604.27
615.688	20221.3
615.884	20884.84
616.079	20313.46
616.274	20655.47
616.47	20424.05
616.665	20352.37
616.86	20632.94
617.055	20471.15
617.25	20520.31
617.445	20927.85
617.641	20321.65
617.836	20745.58
618.031	20422
618.226	20718.96
618.421	20514.16
618.616	20862.32
618.811	20157.82
619.006	20577.65
619.201	20188.53
619.396	20458.87
619.591	19932.54
619.786	20350.32
619.981	20077.94
620.176	20411.76
620.371	20159.86
620.566	20225.4
620.761	20071.8
620.956	20020.6
621.151	19776.89
621.346	19885.44
621.541	19420.55
621.735	20055.42
621.93	19750.27
622.125	19699.07
622.32	19414.4
622.515	19527.04
622.709	19201.41
622.904	19262.85
623.099	19144.07
623.294	19328.39
623.488	19139.97
623.683	18922.89
623.878	18900.36
624.072	18871.69
624.267	18871.69
624.462	18697.61
624.656	18627.98
624.851	18478.48
625.046	18431.38
625.24	18390.42
625.435	18228.63
625.629	18337.17
625.824	18154.9
626.018	17958.3
626.213	17606.05
626.407	17943.96
626.602	17526.18
626.796	17909.15
626.991	17747.36
627.185	17763.74
627.38	17395.11
627.574	17571.23
627.768	17264.04
627.963	17233.32
628.157	17325.47
628.352	17067.43
628.546	16907.69
628.74	17038.76
628.935	16774.57
629.129	16862.63
629.323	16895.4
629.517	16852.39
629.712	16801.19
629.906	16518.57
630.1	16235.95
630.294	16399.79
630.489	16170.42
630.683	16375.22
630.877	16125.36
631.071	15801.79
631.265	16205.24
631.459	15904.18
631.653	15705.53
631.848	15738.3
632.042	15852.98
632.236	15580.6
632.43	15347.14
632.624	15750.59
632.818	15357.38
633.012	15396.29
633.206	15199.68
633.4	15289.79
633.594	15046.09
633.788	15310.27
633.982	15021.51
634.176	15033.8
634.369	15093.19
634.563	14882.25
634.757	14511.57
634.951	14704.07
635.145	14540.24
635.339	14521.81
635.533	14360.02
635.726	14349.78
635.92	14087.64
636.114	14192.08
636.308	14054.87
636.501	13931.99
636.695	13970.9
636.889	13915.61
637.083	13950.42
637.276	13807.06
637.47	13800.92
637.664	13508.06
637.857	13702.62
638.051	13483.48
638.244	13309.41
638.438	13358.56
638.632	13133.28
638.825	12918.25
639.019	13022.69
639.212	12873.19
639.406	12899.81
639.599	12695.02
639.793	12787.18
639.986	12744.17
640.18	12819.94
640.373	12522.99
640.567	12629.48
640.76	12758.5
640.954	12348.91
641.147	12180.98
641.34	12336.62
641.534	12144.11
641.727	12232.18
641.92	12031.48
642.114	11775.48
642.307	11795.96
642.5	11714.04
642.694	11511.29
642.887	11523.58
643.08	11681.27
643.273	11679.22
643.467	11402.75
643.66	11365.89
643.853	11310.59
644.046	11472.38
644.239	10974.72
644.432	11124.22
644.626	10833.41
644.819	10831.37
645.012	11097.6
645.205	10956.29
645.398	10931.72
645.591	10548.75
645.784	10583.56
645.977	10448.4
646.17	10483.21
646.363	10544.65
646.556	10184.21
646.749	10214.93
646.942	10343.95
647.135	10165.78
647.328	10130.96
647.521	10167.82
647.714	9973.27
647.907	10055.19
648.099	9940.5
648.292	9948.69
648.485	9952.79
648.678	9762.33
648.871	9688.6
649.064	9694.74
649.256	9858.58
649.449	9502.23
649.642	9539.1
649.835	9489.95
650.027	9389.6
650.22	9311.77
650.413	9121.31
650.605	9217.57
650.798	9154.08
650.991	8932.9
651.183	9066.02
651.376	8957.47
651.568	9152.03
651.761	8928.8
651.954	8955.43
652.146	8795.68
652.339	8764.96
652.531	8721.96
652.724	8648.23
652.916	8748.58
653.109	8541.74
653.301	8482.35
653.494	8805.92
653.686	8480.3
653.879	8652.33
654.071	8359.47
654.263	8400.43
654.456	8343.08
654.648	8236.59
654.84	8220.21
655.033	8115.76
655.225	7990.83
655.417	7923.25
655.61	7802.42
655.802	7962.16
655.994	8017.46
656.186	7958.07
656.379	7867.95
656.571	7810.61
656.763	7614.01
656.955	7458.36
657.148	7753.27
657.34	7863.86
657.532	7556.66
657.724	7646.77
657.916	7622.2
658.108	7515.7
658.3	7384.63
658.492	7441.98
658.684	7261.76
658.876	7280.19
659.068	7321.15
659.26	7286.33
659.452	7206.46
659.644	7220.8
659.836	7063.1
660.028	7276.09
660.22	6989.38
660.412	7192.12
660.604	6872.64
660.796	7093.82
660.988	7065.15
661.18	6821.44
661.372	6917.7
661.563	6813.25
661.755	6784.58
661.947	6819.39
662.139	6608.45
662.331	6764.1
662.522	6641.22
662.714	6524.49
662.906	6526.54
663.097	6540.87
663.289	6452.81
663.481	6499.91
663.673	6549.06
663.864	6237.77
664.056	6110.8
664.247	6401.61
664.439	6055.5
664.631	6336.07
664.822	6043.21
665.014	6075.98
665.205	6090.32
665.397	6162
665.588	6075.98
665.78	6020.69
665.971	6131.28
666.163	5944.91
666.354	5846.61
666.546	5942.86
666.737	5766.74
666.929	5914.19
667.12	5881.42
667.311	5918.29
667.503	5510.74
667.694	5832.27
667.885	5656.15
668.077	5684.82
668.268	5529.17
668.459	5750.35
668.651	5654.1
668.842	5586.52
669.033	5512.79
669.224	5445.21
669.416	5404.25
669.607	5520.98
669.798	5428.82
669.989	5557.85
670.18	5410.39
670.371	5299.8
670.563	5322.33
670.754	5289.56
670.945	5224.03
671.136	5279.32
671.327	5353.05
671.518	5279.32
671.709	5197.4
671.9	5281.37
672.091	5070.43
672.282	5017.18
672.473	5078.62
672.664	5023.33
672.855	4978.27
673.046	5142.11
673.237	5004.89
673.428	4986.46
673.619	5033.57
673.809	5052
674	5082.72
674.191	5084.77
674.382	5008.99
674.573	4947.55
674.764	4906.59
674.954	5008.99
675.145	4822.63
675.336	4773.47
675.527	4738.66
675.717	4877.92
675.908	4783.71
676.099	4832.86
676.289	4929.12
676.48	4664.93
676.671	4701.79
676.861	4767.33
677.052	4687.46
677.243	4673.12
677.433	4707.94
677.624	4693.6
677.814	4568.68
678.005	4589.16
678.195	4666.98
678.386	4636.26
678.576	4462.18
678.767	4517.48
678.957	4591.2
679.148	4583.01
679.338	4599.4
679.529	4601.44
679.719	4355.69
679.909	4658.79
680.1	4509.29
680.29	4632.16
680.481	4544.1
680.671	4527.72
680.861	4470.37
681.052	4537.96
681.242	4503.14
681.432	4513.38
681.622	4456.04
681.813	4406.89
682.003	4681.32
682.193	4337.26
682.383	4570.72
682.573	4576.87
682.764	4525.67
682.954	4372.07
683.144	4486.76
683.334	4353.64
683.524	4640.36
683.714	4540.01
683.904	4431.46
684.094	4261.48
684.284	4267.63
684.474	4449.89
684.664	4486.76
684.854	4236.91
685.044	4451.94
685.234	4365.93
685.424	4214.38
685.614	4367.98
685.804	4486.76
685.994	4304.49
686.184	4208.23
686.374	4423.27
686.564	4335.21
686.753	4191.85
686.943	4157.04
687.133	4292.2
687.323	4255.34
687.513	4263.53
687.702	4275.82
687.892	4214.38
688.082	4189.8
688.272	4195.95
688.461	4148.84
688.651	4091.5
688.841	3985.01
689.03	4271.72
689.22	4099.69
689.41	4173.42
689.599	3950.19
689.789	4060.78
689.979	4036.21
690.168	4124.27
690.358	4116.08
690.547	3911.28
690.737	3952.24
690.926	4050.54
691.116	3886.7
691.305	4030.06
691.495	4025.97
691.684	3978.86
691.874	3833.46
692.063	4021.87
692.252	4011.63
692.442	3880.56
692.631	3923.57
692.82	3935.85
693.01	3837.55
693.199	3935.85
693.388	3855.98
693.578	3751.54
693.767	4060.78
693.956	3982.96
694.146	3782.26
694.335	3792.5
694.524	3898.99
694.713	3765.87
694.902	3796.59
695.092	3837.55
695.281	3702.39
695.47	3692.15
695.659	3776.11
695.848	3663.47
696.037	3755.63
696.226	3708.53
696.415	3634.8
696.604	3755.63
696.793	3663.47
696.982	3733.11
697.171	3767.92
697.36	3608.18
697.549	3659.38
697.738	3657.33
697.927	3569.27
698.116	3620.47
698.305	3636.85
698.494	3643
698.683	3505.78
698.872	3722.87
699.061	3538.55
699.25	3634.8
699.438	3608.18
699.627	3565.17
699.816	3575.41
700.005	3487.35
700.193	3501.69
700.382	3640.95
700.571	3542.64
700.76	3485.3
700.948	3479.16
701.137	3526.26
701.326	3468.92
701.514	3419.77
701.703	3567.22
701.892	3372.66
702.08	3559.03
702.269	3444.34
702.457	3309.18
702.646	3405.43
702.834	3288.7
703.023	3257.98
703.212	3407.48
703.4	3417.72
703.589	3200.63
703.777	3399.29
703.965	3255.93
704.154	3253.88
704.342	3384.95
704.531	3233.4
704.719	3364.47
704.907	3266.17
705.096	3356.28
705.284	3321.46
705.472	3239.55
705.661	3233.4
705.849	3274.36
706.037	3253.88
706.226	3137.15
706.414	3370.62
706.602	3231.35
706.79	3161.72
706.979	3157.63
707.167	3100.28
707.355	3112.57
707.543	3118.72
707.731	3157.63
707.919	3061.37
708.107	3116.67
708.296	2989.69
708.484	3116.67
708.672	3118.72
708.86	3067.52
709.048	3067.52
709.236	3020.41
709.424	3059.32
709.612	3085.95
709.8	2932.35
709.988	2944.64
710.176	2969.21
710.364	2993.79
710.551	3006.08
710.739	2862.72
710.927	2938.49
711.115	2854.53
711.303	2885.25
711.491	2936.45
711.679	2834.05
711.866	2932.35
712.054	3016.32
712.242	2832
712.43	2977.41
712.617	2872.96
712.805	2813.57
712.993	2920.06
713.181	2760.32
713.368	2741.89
713.556	2846.34
713.744	2913.92
713.931	2741.89
714.119	2895.49
714.306	2758.27
714.494	2725.51
714.682	2784.9
714.869	2563.72
715.057	2772.61
715.244	2729.6
715.432	2797.18
715.619	2707.07
715.807	2723.46
715.994	2657.92
716.182	2684.55
716.369	2668.16
716.556	2567.81
716.744	2592.39
716.931	2557.57
717.119	2623.11
717.306	2590.34
717.493	2649.73
717.681	2561.67
717.868	2633.35
718.055	2535.04
718.242	2537.09
718.43	2571.91
718.617	2606.72
718.804	2537.09
718.991	2653.83
719.179	2592.39
719.366	2477.7
719.553	2504.32
719.74	2514.56
719.927	2469.51
720.114	2496.13
720.301	2418.31
720.488	2410.12
720.676	2381.45
720.863	2446.98
721.05	2576
721.237	2395.78
721.424	2496.13
721.611	2463.37
721.798	2473.6
721.985	2303.62
722.172	2309.77
722.358	2397.83
722.545	2379.4
722.732	2397.83
722.919	2401.93
723.106	2371.21
723.293	2363.01
723.48	2395.78
723.667	2350.73
723.853	2350.73
724.04	2352.77
724.227	2295.43
724.414	2365.06
724.6	2317.96
724.787	2209.42
724.974	2348.68
725.161	2223.75
725.347	2217.61
725.534	2264.71
725.72	2272.9
725.907	2274.95
726.094	2107.02
726.28	2113.16
726.467	2309.77
726.653	2174.6
726.84	2217.61
727.027	2139.79
727.213	2199.18
727.4	2193.03
727.586	2236.04
727.773	2162.31
727.959	2166.41
728.145	2170.51
728.332	2018.96
728.518	2141.83
728.705	2227.85
728.891	2164.36
729.077	2082.44
729.264	2053.77
729.45	2064.01
729.636	2102.92
729.823	2141.83
730.009	2160.27
730.195	2119.31
730.382	2100.87
730.568	2051.72
730.754	1961.61
730.94	2059.92
731.126	2078.35
731.313	2119.31
731.499	2061.96
731.685	2029.2
731.871	2135.69
732.057	2125.45
732.243	2080.39
732.429	2057.87
732.615	2072.2
732.801	1986.19
732.987	2094.73
733.173	1994.38
733.359	1984.14
733.545	1986.19
733.731	1971.85
733.917	1943.18
734.103	1994.38
734.289	1951.37
734.475	1930.89
734.661	2002.57
734.847	1969.8
735.033	1998.48
735.219	1891.98
735.404	2027.15
735.59	1920.65
735.776	1828.49
735.962	2006.67
736.148	1920.65
736.333	1984.14
736.519	1928.85
736.705	1832.59
736.89	1851.02
737.076	1791.63
737.262	1836.69
737.447	1871.5
737.633	1859.21
737.819	1887.89
738.004	1808.02
738.19	1724.05
738.375	1791.63
738.561	1808.02
738.747	1793.68
738.932	1797.78
739.118	1719.95
739.303	1711.76
739.489	1752.72
739.674	1674.9
739.859	1840.78
740.045	1758.86
740.23	1666.71
740.416	1703.57
740.601	1672.85
740.786	1754.77
740.972	1748.62
741.157	1681.04
741.342	1601.17
741.528	1609.36
741.713	1683.09
741.898	1564.31
742.084	1609.36
742.269	1607.31
742.454	1703.57
742.639	1609.36
742.824	1592.98
743.01	1547.92
743.195	1674.9
743.38	1605.27
743.565	1513.11
743.75	1601.17
743.935	1560.21
744.12	1625.75
744.305	1494.68
744.49	1457.81
744.675	1521.3
744.86	1521.3
745.045	1558.16
745.23	1560.21
745.415	1527.44
745.6	1504.92
745.785	1478.29
745.97	1466
746.155	1519.25
746.34	1490.58
746.525	1463.96
746.71	1470.1
746.895	1396.37
747.079	1457.81
747.264	1429.14
747.449	1496.72
747.634	1371.8
747.819	1433.24
748.003	1382.04
748.188	1386.13
748.373	1382.04
748.557	1437.33
748.742	1347.22
748.927	1339.03
749.111	1330.84
749.296	1332.89
749.481	1269.4
749.665	1287.83
749.85	1298.07
750.034	1300.12
750.219	1236.63
750.404	1226.39
750.588	1322.65
750.773	1207.96
750.957	1255.06
751.141	1205.91
751.326	1357.46
751.51	1099.42
751.695	1232.54
751.879	1191.58
752.064	1277.59
752.248	1175.19
752.432	1279.64
752.617	1201.82
752.801	1183.38
752.985	1158.81
753.17	1265.3
753.354	1121.95
753.538	1158.81
753.722	1187.48
753.907	1062.55
754.091	1076.89
754.275	1087.13
754.459	1027.74
754.643	1113.75
754.828	1027.74
755.012	1126.04
755.196	988.83
755.38	1044.12
755.564	1056.41
755.748	1058.46
755.932	1107.61
756.116	978.59
756.3	994.97
756.484	964.25
756.668	1015.45
756.852	1013.4
757.036	929.44
757.22	1054.36
757.404	956.06
757.588	1003.16
757.772	970.4
757.956	915.1
758.14	974.49
758.323	839.33
758.507	982.68
758.691	917.15
758.875	913.05
759.059	986.78
759.242	855.71
759.426	911
759.61	908.96
759.794	978.59
759.977	994.97
760.161	933.53
760.345	896.67
760.528	986.78
760.712	876.19
760.895	888.48
761.079	827.04
761.263	732.83
761.446	814.75
761.63	818.85
761.813	872.09
761.997	831.13
762.18	784.03
762.364	872.09
762.547	667.3
762.731	870.05
762.914	798.37
763.098	790.17
763.281	736.93
763.464	685.73
763.648	892.57
763.831	773.79
764.015	843.42
764.198	679.58
764.381	724.64
764.564	859.81
764.748	710.3
764.931	765.6
765.114	765.6
765.297	663.2
765.481	792.22
765.664	788.13
765.847	743.07
766.03	798.37
766.213	655.01
766.397	741.02
766.58	614.05
766.763	749.22
766.946	724.64
767.129	722.59
767.312	589.47
767.495	777.89
767.678	675.49
767.861	595.62
768.044	657.06
768.227	784.03
768.41	753.31
768.593	777.89
768.776	683.68
768.959	749.22
769.142	683.68
769.324	698.02
769.507	638.62
769.69	648.86
769.873	710.3
770.056	712.35
770.239	698.02
770.421	743.07
770.604	601.76
770.787	659.1
770.97	640.67
771.152	626.34
771.335	708.26
771.518	605.86
771.7	636.58
771.883	710.3
772.066	609.95
772.248	675.49
772.431	650.91
772.613	738.98
772.796	571.04
772.978	671.39
773.161	683.68
773.343	577.19
773.526	622.24
773.708	568.99
773.891	517.79
774.073	634.53
774.256	560.8
774.438	640.67
774.621	554.66
774.803	597.67
774.985	448.16
775.168	626.34
775.35	568.99
775.532	585.38
775.715	511.65
775.897	587.43
776.079	521.89
776.261	554.66
776.444	513.7
776.626	546.47
776.808	552.61
776.99	499.36
777.173	585.38
777.355	437.92
777.537	523.94
777.719	505.51
777.901	482.98
778.083	530.08
778.265	538.27
778.447	583.33
778.629	452.26
778.811	470.69
778.993	507.55
779.175	493.22
779.357	462.5
779.539	454.31
779.721	403.11
779.903	454.31
780.085	503.46
780.267	456.36
780.449	499.36
780.631	536.23
780.812	528.03
780.994	442.02
781.176	491.17
781.358	382.63
781.54	458.4
781.721	366.25
781.903	487.08
782.085	503.46
782.267	415.4
782.448	392.87
782.63	425.64
782.812	417.44
782.993	405.16
783.175	382.63
783.357	323.24
783.538	382.63
783.72	376.48
783.901	374.44
784.083	423.59
784.264	487.08
784.446	423.59
784.627	382.63
784.809	419.49
784.99	337.57
785.172	376.48
785.353	364.2
785.535	437.92
785.716	433.83
785.897	356.01
786.079	315.05
786.26	380.58
786.441	376.48
786.623	290.47
786.804	310.95
786.985	401.06
787.167	396.96
787.348	323.24
787.529	310.95
787.71	323.24
787.891	366.25
788.073	337.57
788.254	347.81
788.435	349.86
788.616	294.57
788.797	329.38
788.978	290.47
789.159	233.13
789.34	382.63
789.522	298.66
789.703	251.56
789.884	292.52
790.065	286.37
790.246	315.05
790.427	300.71
790.607	343.72
790.788	265.89
790.969	306.85
791.15	298.66
791.331	292.52
791.512	249.51
791.693	245.41
791.874	253.61
792.054	347.81
792.235	325.29
792.416	186.02
792.597	200.36
792.778	265.89
792.958	282.28
793.139	298.66
793.32	192.17
793.5	233.13
793.681	282.28
793.862	198.31
794.042	292.52
794.223	245.41
794.404	298.66
794.584	247.46
794.765	249.51
794.945	249.51
795.126	286.37
795.306	216.74
795.487	249.51
795.667	269.99
795.848	253.61
796.028	194.22
796.209	249.51
796.389	259.75
796.57	257.7
796.75	274.09
796.93	284.33
797.111	218.79
797.291	233.13
797.471	229.03
797.652	196.26
797.832	210.6
798.012	212.65
798.192	192.17
798.373	163.5
798.553	198.31
798.733	229.03
798.913	192.17
799.093	231.08
799.274	235.18
799.454	261.8
799.634	149.16
799.814	267.94
799.994	186.02
800.174	175.78
800.354	128.68
800.534	181.93
800.714	222.89
800.894	192.17
801.074	175.78
801.254	134.82
801.434	210.6
801.614	208.55
801.794	147.11
801.974	908.96
802.154	181.93
802.334	159.4
802.514	159.4
802.693	153.26
802.873	179.88
803.053	208.55
803.233	241.32
803.413	167.59
803.592	128.68
803.772	161.45
803.952	163.5
804.131	136.87
804.311	179.88
804.491	208.55
804.67	89.77
804.85	54.95
805.03	188.07
805.209	196.26
805.389	177.83
805.568	190.12
805.748	122.54
805.928	128.68
806.107	132.78
806.287	163.5
806.466	136.87
806.646	214.7
806.825	130.73
807.004	110.25
807.184	126.63
807.363	196.26
807.543	169.64
807.722	186.02
807.901	97.96
808.081	241.32
808.26	95.91
808.439	167.59
808.619	102.06
808.798	65.19
808.977	108.2
809.156	171.69
809.336	110.25
809.515	175.78
809.694	132.78
809.873	81.58
810.052	194.22
810.231	159.4
810.411	102.06
810.59	138.92
810.769	104.11
810.948	143.02
811.127	46.76
811.306	118.44
811.485	97.96
811.664	118.44
811.843	147.11
812.022	169.64
812.201	155.3
812.38	147.11
812.559	151.21
812.737	169.64
812.916	110.25
813.095	194.22
813.274	136.87
813.453	87.72
813.632	149.16
813.811	126.63
813.989	36.52
814.168	138.92
814.347	85.67
814.526	77.48
814.704	104.11
814.883	218.79
815.062	73.39
815.24	106.15
815.419	81.58
815.598	120.49
815.776	63.15
815.955	112.3
816.133	83.63
816.312	36.52
816.49	97.96
816.669	130.73
816.847	124.58
817.026	122.54
817.204	106.15
817.383	120.49
817.561	54.95
817.74	140.97
817.918	93.87
818.097	126.63
818.275	30.38
818.453	100.01
818.632	112.3
818.81	89.77
818.988	36.52
819.167	69.29
819.345	67.24
819.523	52.91
819.701	52.91
819.879	104.11
820.058	134.82
820.236	65.19
820.414	73.39
820.592	85.67
820.77	44.71
820.948	52.91
821.127	104.11
821.305	118.44
821.483	20.14
821.661	73.39
821.839	73.39
822.017	81.58
822.195	-4.44
822.373	77.48
822.551	34.47
822.729	126.63
822.907	32.43
823.085	134.82
823.262	130.73
823.44	40.62
823.618	46.76
823.796	118.44
823.974	85.67
824.152	46.76
824.329	69.29
824.507	112.3
824.685	87.72
824.863	48.81
825.04	61.1
825.218	85.67
825.396	114.34
825.574	122.54
825.751	122.54
825.929	95.91
826.107	46.76
826.284	128.68
826.462	40.62
826.639	-4.44
826.817	38.57
826.994	30.38
827.172	16.04
827.349	118.44
827.527	87.72
827.704	87.72
827.882	95.91
828.059	-4.44
828.237	69.29
828.414	85.67
828.591	-35.16
828.769	63.15
828.946	38.57
829.124	-33.11
829.301	79.53
829.478	11.95
829.655	81.58
829.833	77.48
830.01	77.48
830.187	52.91
830.364	57
830.542	52.91
830.719	36.52
830.896	83.63
831.073	87.72
831.25	89.77
831.427	26.28
831.604	91.82
831.782	87.72
831.959	-12.63
832.136	61.1
832.313	52.91
832.49	65.19
832.667	-29.01
832.844	28.33
833.021	54.95
833.198	-24.92
833.374	32.43
833.551	57
833.728	28.33
833.905	-0.34
834.082	20.14
834.259	95.91
834.436	85.67
834.612	44.71
834.789	-10.58
834.966	38.57
835.143	44.71
835.319	3.75
835.496	57
835.673	69.29
835.85	79.53
836.026	44.71
836.203	71.34
836.38	95.91
836.556	-2.39
836.733	22.19
836.909	71.34
837.086	11.95
837.262	-4.44
837.439	-10.58
837.616	28.33
837.792	22.19
837.968	22.19
838.145	-43.35
838.321	32.43
838.498	38.57
838.674	52.91
838.851	65.19
839.027	91.82
839.203	-37.2
839.38	57
839.556	44.71
839.732	77.48
839.909	52.91
840.085	63.15
840.261	30.38
840.437	52.91
840.614	36.52
840.79	65.19
840.966	46.76
841.142	-43.35
841.318	32.43
841.494	5.8
841.671	85.67
841.847	-49.49
842.023	-20.82
842.199	46.76
842.375	-4.44
842.551	-0.34
842.727	3.75
842.903	108.2
843.079	-20.82
843.255	79.53
843.431	3.75
843.607	54.95
843.783	-49.49
843.959	3.75
844.134	30.38
844.31	32.43
844.486	63.15
844.662	-61.78
844.838	11.95
845.013	63.15
845.189	87.72
845.365	73.39
845.541	20.14
845.716	44.71
845.892	77.48
846.068	34.47
846.244	-41.3
846.419	16.04
846.595	-47.44
846.77	59.05
846.946	7.85
847.122	52.91
847.297	-16.73
847.473	77.48
847.648	28.33
847.824	9.9
847.999	-67.92
848.175	20.14
848.35	-14.68
848.526	81.58
848.701	22.19
848.876	48.81
849.052	30.38
849.227	-4.44
849.403	28.33
849.578	-12.63
849.753	24.23
849.929	134.82
850.104	-20.82
850.279	-2.39
850.454	5.8
850.63	-20.82
850.805	-94.55
850.98	44.71
851.155	5.8
851.33	22.19
851.505	-0.34
851.681	7.85
851.856	-2.39
852.031	77.48
852.206	1.71
852.381	61.1
852.556	79.53
852.731	63.15
852.906	46.76
853.081	13.99
853.256	77.48
853.431	-57.68
853.606	-0.34
853.781	44.71
853.956	20.14
854.131	59.05
854.305	-41.3
854.48	22.19
854.655	36.52
854.83	11.95
855.005	48.81
855.18	65.19
855.354	-29.01
855.529	93.87
855.704	32.43
855.879	16.04
856.053	-69.97
856.228	7.85
856.403	-16.73
856.577	-26.96
856.752	-94.55
856.926	52.91
857.101	16.04
857.276	-8.53
857.45	7.85
857.625	61.1
857.799	65.19
857.974	38.57
858.148	-121.17
858.323	-69.97
858.497	59.05
858.672	3.75
858.846	-0.34
859.02	44.71
859.195	11.95
859.369	-12.63
859.543	-10.58
859.718	20.14
859.892	7.85
860.066	50.86
860.241	-2.39
860.415	11.95
860.589	-49.49
860.763	65.19
860.938	-4.44
861.112	52.91
861.286	-29.01
861.46	-12.63
861.634	-35.16
861.808	61.1
861.982	-37.2
862.157	-4.44
862.331	69.29
862.505	-20.82
862.679	-4.44
862.853	-20.82
863.027	7.85
863.201	-12.63
863.375	-24.92
863.549	44.71
863.722	57
863.896	44.71
864.07	73.39
864.244	13.99
864.418	61.1
864.592	69.29
864.766	52.91
864.939	61.1
865.113	-106.84
865.287	85.67
865.461	-74.07
865.634	-45.4
865.808	-61.78
865.982	-41.3
866.156	-2.39
866.329	20.14
866.503	28.33
866.676	-4.44
866.85	28.33
867.024	-10.58
867.197	57
867.371	-29.01
867.544	118.44
867.718	11.95
867.891	-12.63
868.065	-53.59
868.238	-4.44
868.412	61.1
868.585	63.15
868.759	-43.35
868.932	3.75
869.105	9.9
869.279	-20.82
869.452	-69.97
869.625	-8.53
869.799	11.95
869.972	-53.59
870.145	11.95
870.319	65.19
870.492	36.52
870.665	-4.44
870.838	77.48
871.011	-22.87
871.185	44.71
871.358	-16.73
871.531	-8.53
871.704	-18.77
871.877	46.76
872.05	-29.01
872.223	-2.39
872.396	38.57
872.569	30.38
872.742	-2.39
872.915	95.91
873.088	36.52
873.261	-49.49
873.434	-20.82
873.607	44.71
873.78	71.34
873.953	-49.49
874.126	-12.63
874.299	26.28
874.471	77.48
874.644	-0.34
874.817	11.95
874.99	38.57
875.163	24.23
875.335	48.81
875.508	11.95
875.681	28.33
875.853	5.8
876.026	36.52
876.199	-4.44
876.371	-29.01
876.544	-24.92
876.717	-29.01
876.889	-4.44
877.062	11.95
877.234	-61.78
877.407	36.52
877.579	-8.53
877.752	-12.63
877.924	-37.2
878.097	20.14
878.269	30.38
878.442	44.71
878.614	20.14
878.786	-0.34
878.959	-24.92
879.131	30.38
879.303	-100.69
879.476	28.33
879.648	-26.96
879.82	44.71
879.993	-4.44
880.165	-35.16
880.337	5.8
880.509	83.63
880.681	102.06
880.854	-35.16
881.026	-10.58
881.198	48.81
881.37	-61.78
881.542	54.95
881.714	26.28
881.886	-45.4
882.058	7.85
882.23	5.8
882.402	-41.3
882.574	20.14
882.746	59.05
882.918	28.33
883.09	-4.44
883.262	-22.87
883.434	16.04
883.606	-45.4
883.778	-67.92
883.95	-4.44
884.122	-53.59
884.293	81.58
884.465	36.52
884.637	28.33
884.809	-80.21
884.98	28.33
885.152	28.33
885.324	79.53
885.496	26.28
885.667	28.33
885.839	-12.63
886.011	48.81
886.182	-39.25
886.354	7.85
886.525	-65.88
886.697	61.1
886.869	-69.97
887.04	-35.16
887.212	13.99
887.383	110.25
887.555	-37.2
887.726	16.04
887.897	-45.4
888.069	46.76
888.24	30.38
888.412	11.95
888.583	-12.63
888.754	13.99
888.926	-72.02
889.097	30.38
889.268	20.14
889.44	-57.68
889.611	-12.63
889.782	-10.58
889.953	-49.49
890.125	44.71
890.296	-0.34
890.467	-37.2
890.638	-2.39
890.809	-16.73
890.98	13.99
891.151	38.57
891.323	3.75
891.494	5.8
891.665	-0.34
891.836	-76.12
892.007	20.14
892.178	20.14
892.349	-4.44
892.52	-82.26
892.691	-31.06
892.862	9.9
893.032	-131.41
893.203	-76.12
893.374	-10.58
893.545	48.81
893.716	30.38
893.887	120.49
894.057	-41.3
894.228	-4.44
894.399	-20.82
894.57	-20.82
894.74	65.19
894.911	40.62
895.082	-39.25
895.253	46.76
895.423	-45.4
895.594	11.95
895.764	-31.06
895.935	-78.16
896.106	-100.69
896.276	-18.77
896.447	44.71
896.617	44.71
896.788	24.23
896.958	22.19
897.129	-53.59
897.299	-80.21
897.47	-59.73
897.64	11.95
897.81	-37.2
897.981	44.71
898.151	-16.73
898.322	22.19
898.492	-141.65
898.662	-4.44
898.832	-57.68
899.003	-8.53
899.173	-20.82
899.343	-2.39
899.513	-35.16
