Data from USB4F104151__171__14-32-30-739.txt Node

Date: Thu Mar 13 14:32:30 EDT 2025
User: louis
Spectrometer: USB4F10415
Trigger mode: 4
Integration Time (sec): 2.500000E-2
Scans to average: 1
Electric dark correction enabled: true
Nonlinearity correction enabled: false
Boxcar width: 0
XAxis mode: Wavelengths
Number of Pixels in Spectrum: 3648
>>>>>Begin Spectral Data<<<<<
178.204	-125.78
178.424	-125.78
178.644	-125.78
178.864	-113.49
179.084	-127.83
179.304	1.19
179.524	-4.95
179.744	-50
179.964	152.74
180.184	-29.52
180.404	21.67
180.624	-27.48
180.844	13.48
181.064	-0.85
181.283	3.24
181.503	-68.44
181.723	-11.09
181.943	-33.62
182.163	93.35
182.383	17.58
182.602	111.78
182.822	46.25
183.042	95.4
183.262	-4.95
183.482	42.15
183.701	-15.19
183.921	1.19
184.141	-7
184.361	70.83
184.58	29.87
184.8	66.73
185.02	50.35
185.239	101.55
185.459	74.92
185.679	134.31
185.898	33.96
186.118	13.48
186.338	17.58
186.557	144.55
186.777	40.11
186.997	36.01
187.216	97.45
187.436	99.5
187.655	91.31
187.875	52.39
188.095	31.91
188.314	-11.09
188.534	-11.09
188.753	21.67
188.973	117.93
189.192	93.35
189.412	81.07
189.631	50.35
189.851	91.31
190.07	89.26
190.29	68.78
190.509	3.24
190.729	66.73
190.948	33.96
191.168	197.8
191.387	103.59
191.607	89.26
191.826	99.5
192.045	115.88
192.265	60.59
192.484	70.83
192.704	19.63
192.923	-2.9
193.142	126.12
193.362	19.63
193.581	38.06
193.8	36.01
194.02	54.44
194.239	70.83
194.458	128.17
194.678	81.07
194.897	42.15
195.116	17.58
195.335	54.44
195.555	95.4
195.774	17.58
195.993	-2.9
196.212	38.06
196.432	109.74
196.651	58.54
196.87	25.77
197.089	148.65
197.308	48.3
197.528	31.91
197.747	-4.95
197.966	42.15
198.185	91.31
198.404	-11.09
198.623	-9.05
198.842	29.87
199.062	101.55
199.281	46.25
199.5	83.11
199.719	38.06
199.938	150.7
200.157	109.74
200.376	119.98
200.595	117.93
200.814	1.19
201.033	91.31
201.252	81.07
201.471	62.63
201.69	140.46
201.909	46.25
202.128	70.83
202.347	150.7
202.566	-39.76
202.785	21.67
203.004	-23.38
203.223	132.26
203.442	40.11
203.661	52.39
203.879	42.15
204.098	93.35
204.317	50.35
204.536	128.17
204.755	-15.19
204.974	9.39
205.193	68.78
205.411	140.46
205.63	36.01
205.849	91.31
206.068	-15.19
206.287	-7
206.505	99.5
206.724	19.63
206.943	64.68
207.162	52.39
207.381	33.96
207.599	-4.95
207.818	42.15
208.037	91.31
208.255	50.35
208.474	23.72
208.693	50.35
208.911	91.31
209.13	33.96
209.349	-37.72
209.567	62.63
209.786	38.06
210.005	-27.48
210.223	93.35
210.442	-11.09
210.661	-4.95
210.879	132.26
211.098	1.19
211.316	91.31
211.535	83.11
211.753	79.02
211.972	33.96
212.191	42.15
212.409	50.35
212.628	21.67
212.846	36.01
213.065	52.39
213.283	95.4
213.502	70.83
213.72	17.58
213.938	101.55
214.157	3.24
214.375	62.63
214.594	-31.57
214.812	19.63
215.031	-39.76
215.249	66.73
215.467	-29.52
215.686	-0.85
215.904	52.39
216.122	1.19
216.341	58.54
216.559	52.39
216.778	74.92
216.996	79.02
217.214	27.82
217.432	44.2
217.651	38.06
217.869	25.77
218.087	-27.48
218.306	27.82
218.524	156.84
218.742	-21.33
218.96	50.35
219.179	95.4
219.397	29.87
219.615	126.12
219.833	66.73
220.051	25.77
220.27	111.78
220.488	17.58
220.706	58.54
220.924	13.48
221.142	60.59
221.36	-23.38
221.578	5.29
221.796	25.77
222.015	15.53
222.233	27.82
222.451	85.16
222.669	66.73
222.887	27.82
223.105	58.54
223.323	17.58
223.541	1.19
223.759	50.35
223.977	44.2
224.195	58.54
224.413	173.22
224.631	83.11
224.849	44.2
225.067	156.84
225.285	83.11
225.503	-15.19
225.721	66.73
225.939	25.77
226.157	50.35
226.375	132.26
226.592	11.43
226.81	17.58
227.028	19.63
227.246	85.16
227.464	36.01
227.682	64.68
227.9	25.77
228.117	-4.95
228.335	107.69
228.553	11.43
228.771	54.44
228.989	23.72
229.206	54.44
229.424	17.58
229.642	-43.86
229.86	52.39
230.077	5.29
230.295	83.11
230.513	74.92
230.731	58.54
230.948	66.73
231.166	19.63
231.384	17.58
231.601	23.72
231.819	-31.57
232.037	70.83
232.254	-7
232.472	17.58
232.689	5.29
232.907	31.91
233.125	-7
233.342	17.58
233.56	15.53
233.777	17.58
233.995	1.19
234.213	44.2
234.43	58.54
234.648	21.67
234.865	74.92
235.083	91.31
235.3	-2.9
235.518	87.21
235.735	95.4
235.953	79.02
236.17	58.54
236.388	-13.14
236.605	33.96
236.822	74.92
237.04	99.5
237.257	85.16
237.475	17.58
237.692	1.19
237.909	119.98
238.127	29.87
238.344	89.26
238.562	29.87
238.779	-43.86
238.996	5.29
239.214	68.78
239.431	40.11
239.648	9.39
239.865	76.97
240.083	107.69
240.3	13.48
240.517	5.29
240.735	29.87
240.952	97.45
241.169	142.5
241.386	76.97
241.603	9.39
241.821	11.43
242.038	1.19
242.255	64.68
242.472	31.91
242.689	62.63
242.907	17.58
243.124	-15.19
243.341	62.63
243.558	1.19
243.775	136.36
243.992	11.43
244.209	91.31
244.426	134.31
244.643	79.02
244.86	-23.38
245.078	117.93
245.295	38.06
245.512	-4.95
245.729	54.44
245.946	33.96
246.163	27.82
246.38	17.58
246.597	27.82
246.814	52.39
247.031	115.88
247.248	83.11
247.464	23.72
247.681	-37.72
247.898	42.15
248.115	42.15
248.332	-7
248.549	87.21
248.766	115.88
248.983	81.07
249.2	29.87
249.417	9.39
249.633	11.43
249.85	50.35
250.067	38.06
250.284	46.25
250.501	58.54
250.717	89.26
250.934	-31.57
251.151	36.01
251.368	68.78
251.585	60.59
251.801	79.02
252.018	19.63
252.235	148.65
252.451	29.87
252.668	85.16
252.885	79.02
253.102	58.54
253.318	58.54
253.535	-11.09
253.752	13.48
253.968	-11.09
254.185	-15.19
254.401	52.39
254.618	46.25
254.835	-27.48
255.051	107.69
255.268	62.63
255.484	60.59
255.701	60.59
255.917	154.79
256.134	-23.38
256.351	58.54
256.567	36.01
256.784	9.39
257	-7
257.217	25.77
257.433	17.58
257.65	85.16
257.866	58.54
258.082	-4.95
258.299	-7
258.515	9.39
258.732	54.44
258.948	70.83
259.165	38.06
259.381	21.67
259.597	97.45
259.814	42.15
260.03	17.58
260.246	-15.19
260.463	107.69
260.679	58.54
260.895	66.73
261.112	85.16
261.328	23.72
261.544	33.96
261.761	154.79
261.977	42.15
262.193	25.77
262.409	-2.9
262.626	52.39
262.842	44.2
263.058	9.39
263.274	132.26
263.49	109.74
263.707	115.88
263.923	9.39
264.139	68.78
264.355	27.82
264.571	62.63
264.787	97.45
265.004	126.12
265.22	11.43
265.436	13.48
265.652	-29.52
265.868	52.39
266.084	38.06
266.3	85.16
266.516	25.77
266.732	-2.9
266.948	42.15
267.164	132.26
267.38	64.68
267.596	25.77
267.812	103.59
268.028	46.25
268.244	103.59
268.46	76.97
268.676	-27.48
268.892	70.83
269.108	50.35
269.324	42.15
269.54	29.87
269.756	54.44
269.972	54.44
270.188	85.16
270.403	9.39
270.619	58.54
270.835	50.35
271.051	19.63
271.267	3.24
271.483	62.63
271.698	79.02
271.914	76.97
272.13	46.25
272.346	85.16
272.562	17.58
272.777	81.07
272.993	33.96
273.209	21.67
273.425	17.58
273.64	-52.05
273.856	19.63
274.072	46.25
274.287	36.01
274.503	48.3
274.719	58.54
274.934	1.19
275.15	-7
275.366	72.87
275.581	66.73
275.797	31.91
276.012	72.87
276.228	9.39
276.444	42.15
276.659	85.16
276.875	7.34
277.09	46.25
277.306	60.59
277.521	74.92
277.737	66.73
277.952	54.44
278.168	17.58
278.383	58.54
278.599	13.48
278.814	66.73
279.03	-47.96
279.245	42.15
279.461	38.06
279.676	50.35
279.892	-15.19
280.107	27.82
280.322	66.73
280.538	81.07
280.753	50.35
280.969	50.35
281.184	95.4
281.399	117.93
281.615	17.58
281.83	1.19
282.045	25.77
282.26	-27.48
282.476	38.06
282.691	46.25
282.906	50.35
283.122	33.96
283.337	-4.95
283.552	-7
283.767	15.53
283.983	-15.19
284.198	83.11
284.413	74.92
284.628	-11.09
284.843	52.39
285.058	175.27
285.274	79.02
285.489	1.19
285.704	42.15
285.919	17.58
286.134	25.77
286.349	29.87
286.564	-37.72
286.779	117.93
286.995	54.44
287.21	136.36
287.425	29.87
287.64	3.24
287.855	-47.96
288.07	-74.58
288.285	97.45
288.5	68.78
288.715	83.11
288.93	33.96
289.145	44.2
289.36	38.06
289.575	27.82
289.79	62.63
290.004	27.82
290.219	107.69
290.434	52.39
290.649	58.54
290.864	21.67
291.079	83.11
291.294	74.92
291.509	33.96
291.724	33.96
291.938	11.43
292.153	83.11
292.368	-17.24
292.583	42.15
292.798	60.59
293.012	56.49
293.227	46.25
293.442	17.58
293.657	36.01
293.871	85.16
294.086	50.35
294.301	148.65
294.516	87.21
294.73	23.72
294.945	-7
295.16	19.63
295.374	115.88
295.589	58.54
295.804	62.63
296.018	-39.76
296.233	79.02
296.447	68.78
296.662	-31.57
296.877	44.2
297.091	74.92
297.306	27.82
297.52	25.77
297.735	27.82
297.949	3.24
298.164	58.54
298.378	-2.9
298.593	44.2
298.807	33.96
299.022	-0.85
299.236	97.45
299.451	91.31
299.665	50.35
299.88	50.35
300.094	50.35
300.309	-2.9
300.523	13.48
300.737	19.63
300.952	83.11
301.166	56.49
301.381	17.58
301.595	91.31
301.809	1.19
302.024	54.44
302.238	62.63
302.452	3.24
302.667	58.54
302.881	68.78
303.095	60.59
303.309	50.35
303.524	-2.9
303.738	21.67
303.952	21.67
304.166	52.39
304.381	-43.86
304.595	17.58
304.809	-13.14
305.023	36.01
305.237	40.11
305.452	54.44
305.666	38.06
305.88	87.21
306.094	87.21
306.308	111.78
306.522	56.49
306.736	58.54
306.95	115.88
307.164	66.73
307.379	68.78
307.593	126.12
307.807	85.16
308.021	66.73
308.235	99.5
308.449	68.78
308.663	29.87
308.877	126.12
309.091	36.01
309.305	117.93
309.519	25.77
309.733	144.55
309.947	42.15
310.161	19.63
310.374	68.78
310.588	93.35
310.802	-2.9
311.016	17.58
311.23	91.31
311.444	1.19
311.658	46.25
311.872	58.54
312.085	9.39
312.299	199.85
312.513	128.17
312.727	70.83
312.941	-23.38
313.154	33.96
313.368	56.49
313.582	76.97
313.796	19.63
314.009	144.55
314.223	74.92
314.437	48.3
314.651	93.35
314.864	38.06
315.078	25.77
315.292	17.58
315.505	19.63
315.719	140.46
315.933	-31.57
316.146	25.77
316.36	21.67
316.573	44.2
316.787	9.39
317.001	76.97
317.214	40.11
317.428	64.68
317.641	-21.33
317.855	79.02
318.068	74.92
318.282	-23.38
318.495	76.97
318.709	58.54
318.922	83.11
319.136	58.54
319.349	91.31
319.563	-17.24
319.776	58.54
319.99	-9.05
320.203	91.31
320.417	70.83
320.63	62.63
320.843	101.55
321.057	21.67
321.27	60.59
321.483	58.54
321.697	85.16
321.91	48.3
322.124	95.4
322.337	107.69
322.55	-4.95
322.763	40.11
322.977	13.48
323.19	85.16
323.403	13.48
323.617	85.16
323.83	74.92
324.043	1.19
324.256	25.77
324.469	56.49
324.683	126.12
324.896	-7
325.109	128.17
325.322	29.87
325.535	165.03
325.748	83.11
325.962	7.34
326.175	46.25
326.388	70.83
326.601	93.35
326.814	42.15
327.027	83.11
327.24	68.78
327.453	27.82
327.666	124.07
327.879	1.19
328.092	76.97
328.305	17.58
328.518	50.35
328.731	21.67
328.944	40.11
329.157	50.35
329.37	-7
329.583	21.67
329.796	74.92
330.009	17.58
330.222	5.29
330.435	99.5
330.648	113.83
330.861	54.44
331.073	64.68
331.286	40.11
331.499	54.44
331.712	50.35
331.925	64.68
332.138	36.01
332.35	66.73
332.563	70.83
332.776	85.16
332.989	58.54
333.202	83.11
333.414	-19.29
333.627	44.2
333.84	19.63
334.053	68.78
334.265	36.01
334.478	3.24
334.691	54.44
334.903	101.55
335.116	50.35
335.329	42.15
335.541	91.31
335.754	76.97
335.966	33.96
336.179	99.5
336.392	9.39
336.604	17.58
336.817	101.55
337.029	87.21
337.242	-15.19
337.454	99.5
337.667	132.26
337.88	44.2
338.092	70.83
338.305	58.54
338.517	25.77
338.729	50.35
338.942	119.98
339.154	50.35
339.367	33.96
339.579	44.2
339.792	99.5
340.004	17.58
340.217	38.06
340.429	9.39
340.641	9.39
340.854	107.69
341.066	83.11
341.278	79.02
341.491	132.26
341.703	25.77
341.915	46.25
342.128	83.11
342.34	29.87
342.552	99.5
342.764	66.73
342.977	103.59
343.189	91.31
343.401	105.64
343.613	-39.76
343.826	124.07
344.038	36.01
344.25	99.5
344.462	29.87
344.674	93.35
344.886	25.77
345.099	29.87
345.311	85.16
345.523	48.3
345.735	44.2
345.947	85.16
346.159	185.51
346.371	66.73
346.583	42.15
346.795	146.6
347.007	-19.29
347.219	95.4
347.431	33.96
347.643	60.59
347.855	107.69
348.067	107.69
348.279	-7
348.491	33.96
348.703	17.58
348.915	38.06
349.127	87.21
349.339	54.44
349.551	1.19
349.763	33.96
349.975	68.78
350.187	46.25
350.399	60.59
350.61	105.64
350.822	87.21
351.034	-7
351.246	27.82
351.458	46.25
351.669	140.46
351.881	99.5
352.093	74.92
352.305	101.55
352.517	66.73
352.728	93.35
352.94	-21.33
353.152	66.73
353.363	99.5
353.575	-4.95
353.787	107.69
353.999	-19.29
354.21	95.4
354.422	64.68
354.633	23.72
354.845	87.21
355.057	76.97
355.268	15.53
355.48	68.78
355.692	46.25
355.903	56.49
356.115	54.44
356.326	1.19
356.538	93.35
356.749	85.16
356.961	46.25
357.172	11.43
357.384	-13.14
357.595	85.16
357.807	101.55
358.018	56.49
358.23	33.96
358.441	74.92
358.653	36.01
358.864	17.58
359.075	76.97
359.287	95.4
359.498	-4.95
359.709	74.92
359.921	27.82
360.132	50.35
360.344	46.25
360.555	19.63
360.766	50.35
360.977	93.35
361.189	146.6
361.4	48.3
361.611	66.73
361.823	99.5
362.034	101.55
362.245	95.4
362.456	58.54
362.667	42.15
362.879	13.48
363.09	85.16
363.301	122.02
363.512	-39.76
363.723	17.58
363.935	23.72
364.146	74.92
364.357	93.35
364.568	132.26
364.779	-21.33
364.99	119.98
365.201	48.3
365.412	148.65
365.623	15.53
365.834	117.93
366.045	76.97
366.256	132.26
366.467	76.97
366.678	42.15
366.889	29.87
367.1	83.11
367.311	42.15
367.522	-2.9
367.733	81.07
367.944	128.17
368.155	66.73
368.366	38.06
368.577	66.73
368.788	21.67
368.999	54.44
369.209	44.2
369.42	165.03
369.631	85.16
369.842	68.78
370.053	66.73
370.264	95.4
370.474	56.49
370.685	-0.85
370.896	99.5
371.107	68.78
371.317	107.69
371.528	5.29
371.739	101.55
371.95	93.35
372.16	25.77
372.371	66.73
372.582	56.49
372.792	148.65
373.003	38.06
373.214	109.74
373.424	44.2
373.635	1.19
373.846	91.31
374.056	54.44
374.267	95.4
374.477	58.54
374.688	83.11
374.898	95.4
375.109	111.78
375.319	27.82
375.53	191.66
375.74	33.96
375.951	95.4
376.161	81.07
376.372	79.02
376.582	-25.43
376.793	124.07
377.003	70.83
377.214	62.63
377.424	74.92
377.635	66.73
377.845	-23.38
378.055	93.35
378.266	117.93
378.476	52.39
378.686	83.11
378.897	117.93
379.107	40.11
379.317	62.63
379.528	54.44
379.738	128.17
379.948	-4.95
380.158	58.54
380.369	3.24
380.579	66.73
380.789	25.77
380.999	95.4
381.21	91.31
381.42	93.35
381.63	58.54
381.84	60.59
382.05	107.69
382.261	95.4
382.471	58.54
382.681	33.96
382.891	142.5
383.101	17.58
383.311	-11.09
383.521	44.2
383.731	103.59
383.941	74.92
384.151	91.31
384.361	107.69
384.571	122.02
384.781	107.69
384.991	169.13
385.201	62.63
385.411	27.82
385.621	36.01
385.831	17.58
386.041	101.55
386.251	91.31
386.461	99.5
386.671	50.35
386.881	70.83
387.091	50.35
387.301	101.55
387.511	52.39
387.72	107.69
387.93	66.73
388.14	5.29
388.35	27.82
388.56	181.42
388.769	58.54
388.979	29.87
389.189	52.39
389.399	91.31
389.609	52.39
389.818	107.69
390.028	48.3
390.238	76.97
390.447	68.78
390.657	62.63
390.867	58.54
391.076	13.48
391.286	42.15
391.496	70.83
391.705	52.39
391.915	99.5
392.125	76.97
392.334	19.63
392.544	142.5
392.753	9.39
392.963	62.63
393.172	33.96
393.382	17.58
393.591	126.12
393.801	68.78
394.01	165.03
394.22	175.27
394.429	148.65
394.639	89.26
394.848	52.39
395.058	27.82
395.267	126.12
395.477	158.89
395.686	50.35
395.895	201.9
396.105	175.27
396.314	1.19
396.524	99.5
396.733	21.67
396.942	150.7
397.152	140.46
397.361	113.83
397.57	89.26
397.78	115.88
397.989	115.88
398.198	162.98
398.407	111.78
398.617	189.61
398.826	81.07
399.035	38.06
399.244	111.78
399.453	115.88
399.663	181.42
399.872	167.08
400.081	76.97
400.29	165.03
400.499	64.68
400.708	146.6
400.917	113.83
401.127	74.92
401.336	99.5
401.545	146.6
401.754	181.42
401.963	124.07
402.172	83.11
402.381	165.03
402.59	152.74
402.799	152.74
403.008	128.17
403.217	115.88
403.426	122.02
403.635	29.87
403.844	134.31
404.053	177.32
404.262	165.03
404.471	230.57
404.68	201.9
404.888	165.03
405.097	128.17
405.306	156.84
405.515	183.46
405.724	212.14
405.933	126.12
406.142	251.05
406.35	193.7
406.559	193.7
406.768	132.26
406.977	173.22
407.185	224.42
407.394	173.22
407.603	205.99
407.812	271.53
408.02	296.1
408.229	226.47
408.438	267.43
408.646	226.47
408.855	275.62
409.064	175.27
409.272	300.2
409.481	273.57
409.69	222.38
409.898	320.68
410.107	275.62
410.315	289.96
410.524	349.35
410.733	394.4
410.941	298.15
411.15	341.16
411.358	435.36
411.567	435.36
411.775	437.41
411.984	341.16
412.192	357.54
412.401	451.75
412.609	472.23
412.818	509.09
413.026	564.39
413.234	525.47
413.443	445.6
413.651	484.52
413.86	607.39
414.068	576.67
414.276	654.5
414.485	601.25
414.693	623.78
414.901	668.83
415.11	629.92
415.318	623.78
415.526	681.12
415.734	722.08
415.943	771.23
416.151	683.17
416.359	734.37
416.567	804
416.776	773.28
416.984	877.73
417.192	924.83
417.4	967.84
417.608	898.2
417.817	930.97
418.025	957.6
418.233	1100.95
418.441	1141.91
418.649	1158.3
418.857	1193.11
419.065	1209.5
419.273	1148.06
419.481	1168.54
419.689	1432.72
419.897	1361.05
420.105	1393.81
420.313	1455.25
420.521	1629.33
420.729	1582.23
420.937	1545.36
421.145	1690.77
421.353	1762.45
421.561	1893.52
421.769	1811.6
421.977	1950.86
422.185	2024.59
422.393	2122.89
422.601	2090.12
422.809	2208.9
423.017	2094.22
423.224	2376.84
423.432	2311.3
423.64	2403.46
423.848	2507.91
424.056	2434.18
424.263	2673.79
424.471	2761.86
424.679	2747.52
424.887	2862.21
425.094	2862.21
425.302	3003.52
425.51	3024
425.718	3253.37
425.925	3191.93
426.133	3198.07
426.341	3486.84
426.548	3601.52
426.756	3556.47
426.964	3648.63
427.171	3810.42
427.379	3966.06
427.586	4004.97
427.794	4023.41
428.001	4291.69
428.209	4433
428.417	4574.31
428.624	4842.59
428.832	4785.25
429.039	4721.76
429.247	4736.1
429.454	5137.5
429.662	5493.85
429.869	5071.97
430.076	5512.28
430.284	5411.93
430.491	5661.78
430.699	5790.8
430.906	5917.78
431.114	6079.57
431.321	6181.96
431.528	6509.64
431.736	6794.31
431.943	7099.45
432.15	6681.67
432.358	6884.42
432.565	7316.54
432.772	7160.89
432.979	7593.01
433.187	7496.76
433.394	7873.59
433.601	8264.75
433.808	8188.97
434.016	8119.34
434.223	8504.36
434.43	9030.69
434.637	9024.54
434.844	9557.02
435.052	9741.33
435.259	9657.37
435.466	9702.42
435.673	9643.03
435.88	10290.19
436.087	10904.58
436.294	10537.99
436.501	10425.36
436.708	10667.02
436.915	10978.31
437.122	11598.84
437.329	11652.09
437.537	11840.5
437.743	12198.9
437.95	11949.04
438.157	12821.48
438.364	12946.41
438.571	13102.05
438.778	13149.15
438.985	14128.08
439.192	13810.65
439.399	13960.15
439.606	13884.37
439.813	14791.62
440.02	15428.54
440.227	14994.37
440.433	14904.26
440.64	15442.88
440.847	15397.82
441.054	15977.4
441.261	16982.95
441.467	16763.82
441.674	16974.76
441.881	17580.96
442.088	17599.39
442.294	17402.79
442.501	17906.59
442.708	18305.94
442.914	18668.43
443.121	19624.83
443.328	19028.87
443.534	20343.67
443.741	19905.4
443.948	19417.99
444.154	20949.87
444.361	20816.75
444.568	21189.48
444.774	20681.58
444.981	21400.42
445.187	21879.64
445.394	22721.36
445.6	22457.17
445.807	24462.13
446.013	23491.4
446.22	24017.72
446.426	24728.37
446.633	25195.31
446.839	25758.5
447.046	24793.9
447.252	26352.41
447.459	25967.39
447.665	26092.32
447.871	27286.28
448.078	28588.79
448.284	27077.39
448.491	27702.02
448.697	28742.39
448.903	29635.3
449.11	29557.48
449.316	29139.69
449.522	29643.49
449.728	30700.25
449.935	30335.71
450.141	30692.05
450.347	30978.77
450.553	30032.61
450.76	30859.99
450.966	31707.85
451.172	31269.58
451.378	32037.57
451.584	31218.38
451.791	32113.34
451.997	32094.91
452.203	32633.53
452.409	32365.24
452.615	32611
452.821	31251.15
453.027	30823.12
453.233	32453.31
453.44	31249.1
453.646	31439.56
453.852	31584.97
454.058	31859.4
454.264	31189.71
454.47	31607.5
454.676	30794.45
454.882	32160.45
455.088	29545.19
455.294	29926.11
455.5	30524.12
455.705	30462.68
455.911	29471.46
456.117	28721.91
456.323	28371.71
456.529	26553.11
456.735	28101.37
456.941	27214.6
457.147	26708.76
457.352	25959.2
457.558	25383.72
457.764	25942.81
457.97	25133.87
458.176	24738.61
458.381	24707.89
458.587	23337.8
458.793	23391.05
458.999	22002.52
459.204	23610.18
459.41	23001.93
459.616	21418.85
459.821	21451.62
460.027	21488.48
460.233	20962.15
460.438	20220.79
460.644	20437.87
460.85	19129.22
461.055	18652.05
461.261	19004.3
461.466	17353.63
461.672	16802.73
461.878	18211.73
462.083	16925.61
462.289	16696.24
462.494	16612.27
462.7	15623.1
462.905	15266.75
463.111	15788.99
463.316	15801.27
463.522	15594.43
463.727	15590.33
463.932	15492.03
464.138	15211.46
464.343	15350.72
464.549	14877.64
464.754	15549.37
464.959	15131.59
465.165	15127.49
465.37	14480.33
465.575	14111.7
465.781	14441.42
465.986	14592.97
466.191	14322.64
466.397	14054.36
466.602	13382.62
466.807	13878.23
467.012	13751.26
467.218	13599.71
467.423	13564.89
467.628	13591.52
467.833	14242.77
468.038	13710.3
468.244	13403.1
468.449	13878.23
468.654	13288.42
468.859	13288.42
469.064	13356
469.269	12733.42
469.474	12878.82
469.679	13005.8
469.885	12717.03
470.09	12866.53
470.295	12536.81
470.5	12444.65
470.705	12415.98
470.91	12078.07
471.115	12035.06
471.32	12334.06
471.525	12258.29
471.73	11856.89
471.935	11981.81
472.139	11392
472.344	11691
472.549	11437.05
472.754	11404.28
472.959	11379.71
473.164	10818.57
473.369	10779.65
473.574	11281.41
473.778	11039.75
473.983	10882.05
474.188	10808.33
474.393	10390.54
474.598	10425.36
474.802	10150.93
475.007	10085.39
475.212	10421.26
475.417	9761.81
475.621	10009.62
475.826	9901.08
476.031	9673.75
476.235	9468.95
476.44	9683.99
476.645	9651.22
476.849	9626.65
477.054	9323.55
477.259	9223.2
477.463	9282.59
477.668	9165.85
477.872	9174.05
478.077	9010.21
478.282	8733.73
478.486	8860.71
478.691	8594.47
478.895	8700.97
479.1	8514.6
479.304	8684.58
479.509	8524.84
479.713	8592.42
479.918	8414.25
480.122	8299.56
480.326	8313.9
480.531	8440.87
480.735	8227.89
480.94	8244.27
481.144	8410.15
481.348	8125.49
481.553	8131.63
481.757	8023.09
481.961	7988.27
482.166	8016.94
482.37	8008.75
482.574	7865.39
482.778	8078.38
482.983	7947.31
483.187	7935.03
483.391	7988.27
483.595	7924.79
483.8	7760.95
484.004	7961.65
484.208	8100.91
484.412	7908.4
484.616	8074.29
484.821	8062
485.025	7801.91
485.229	7773.24
485.433	7775.28
485.637	7965.75
485.841	8074.29
486.045	7697.46
486.249	8025.14
486.453	7906.35
486.657	8086.58
486.861	8006.7
487.065	7742.52
487.269	7787.57
487.473	7697.46
487.677	7982.13
487.881	8014.9
488.085	7765.04
488.289	8074.29
488.493	8004.66
488.697	8037.42
488.901	8123.44
489.105	7932.98
489.309	7930.93
489.512	8047.66
489.716	8141.87
489.92	8045.62
490.124	8072.24
490.328	8213.55
490.531	8078.38
490.735	8199.21
490.939	7963.7
491.143	8205.36
491.346	8043.57
491.55	8234.03
491.754	8170.54
491.958	8156.21
492.161	8248.36
492.365	8219.69
492.569	8156.21
492.772	8166.45
492.976	8344.62
493.18	8334.38
493.383	8524.84
493.587	8422.44
493.79	8516.65
493.994	8479.79
494.197	8645.67
494.401	8686.63
494.605	8557.61
494.808	8696.87
495.012	8727.59
495.215	8815.65
495.419	8913.95
495.622	8891.43
495.825	8971.3
496.029	8961.06
496.232	9233.44
496.436	9227.29
496.639	9432.09
496.843	9172
497.046	9421.85
497.249	9552.92
497.453	9536.54
497.656	9733.14
497.859	9643.03
498.063	9944.08
498.266	10071.06
498.469	10134.54
498.673	10085.39
498.876	10339.34
499.079	10425.36
499.282	10290.19
499.485	10427.4
499.689	10533.9
499.892	10765.32
500.095	10572.81
500.298	11158.53
500.501	10806.28
500.705	11256.83
500.908	11181.06
501.111	11342.85
501.314	11695.1
501.517	11346.94
501.72	11662.33
501.923	11664.38
502.126	12018.68
502.329	12033.01
502.532	12368.88
502.735	12352.49
502.938	12391.41
503.141	12434.41
503.344	12624.87
503.547	12772.33
503.75	13054.95
503.953	13151.2
504.156	13204.45
504.359	13181.92
504.562	13323.23
504.765	13689.82
504.968	13646.81
505.17	13970.39
505.373	13919.19
505.576	13980.63
505.779	14461.9
505.982	14248.91
506.185	14580.68
506.387	14697.42
506.59	14703.56
506.793	14812.1
506.996	15057.86
507.198	15446.97
507.401	15330.24
507.604	15510.46
507.807	15731.64
508.009	16157.62
508.212	15879.1
508.415	16214.96
508.617	16165.81
508.82	16358.32
509.022	16561.07
509.225	16827.31
509.428	16982.95
509.63	17148.84
509.833	17191.84
510.035	17583.01
510.238	17562.53
510.44	17329.06
510.643	17832.86
510.845	18082.71
511.048	18252.69
511.25	18074.52
511.453	18611.09
511.655	19004.3
511.858	18662.29
512.06	19288.96
512.262	19178.37
512.465	19176.33
512.667	19268.48
512.87	19534.72
513.072	19833.72
513.274	20040.57
513.477	20276.09
513.679	20558.7
513.881	20433.78
514.084	20835.18
514.286	20450.16
514.488	20904.81
514.69	21400.42
514.893	21519.2
515.095	21785.44
515.297	22086.49
515.499	21859.17
515.701	22176.6
515.904	22571.86
516.106	22772.56
516.308	22518.61
516.51	22969.16
516.712	23139.15
516.914	23163.72
517.116	23499.59
517.318	23466.82
517.52	23950.14
517.722	23788.35
517.925	23984.96
518.127	24179.51
518.329	24568.63
518.531	24222.52
518.733	24982.32
518.935	24681.27
519.136	25117.48
519.338	25238.31
519.54	25479.97
519.742	25819.94
519.944	25727.78
520.146	26161.95
520.348	26141.47
520.55	26243.87
520.752	26288.92
520.954	27081.49
521.155	26209.05
521.357	27095.82
521.559	26895.12
521.761	27403.02
521.963	27415.3
522.164	27552.52
522.366	27620.1
522.568	27878.15
522.77	27986.69
522.971	28195.58
523.173	28017.41
523.375	28295.93
523.576	28095.23
523.778	28381.95
523.98	28474.1
524.181	28494.58
524.383	28359.42
524.584	28963.57
524.786	28816.11
524.988	28404.47
525.189	29000.43
525.391	29389.55
525.592	29393.64
525.794	29043.44
525.995	29313.77
526.197	29623.01
526.398	29508.33
526.6	29416.17
526.801	29528.81
527.003	29596.39
527.204	29514.47
527.406	30313.18
527.607	29661.93
527.808	30223.07
528.01	29547.24
528.211	29598.44
528.412	30364.38
528.614	30141.15
528.815	29885.15
529.016	30098.14
529.218	30106.34
529.419	29827.81
529.62	30237.41
529.822	29856.48
530.023	30040.8
530.224	30122.72
530.425	29840.1
530.626	29684.45
530.828	29862.63
531.029	30653.14
531.23	29977.31
531.431	29887.2
531.632	30210.78
531.833	29895.39
532.035	29797.09
532.236	29999.84
532.437	30032.61
532.638	29668.07
532.839	30106.34
533.04	30036.7
533.241	29743.84
533.442	30053.09
533.643	29850.34
533.844	29623.01
534.045	29948.64
534.246	29479.66
534.447	29559.53
534.648	29444.84
534.849	29569.77
535.05	29244.14
535.251	29733.6
535.451	29537
535.652	29635.3
535.853	29168.37
536.054	29455.08
536.255	29434.6
536.456	28947.18
536.657	29539.05
536.857	29276.91
537.058	29176.56
537.259	29371.11
537.46	29252.33
537.66	29108.97
537.861	29100.78
538.062	29135.6
538.263	29420.27
538.463	29070.06
538.664	29481.7
538.865	29338.35
539.065	29111.02
539.266	28369.66
539.466	29225.71
539.667	28783.35
539.868	29238
540.068	28801.78
540.269	28707.57
540.469	28861.17
540.67	28644.09
540.87	28535.54
541.071	28715.76
541.271	28836.59
541.472	28707.57
541.672	28840.69
541.873	28381.95
542.073	28447.48
542.274	29043.44
542.474	28592.89
542.675	28521.21
542.875	28934.9
543.075	28795.64
543.276	28619.51
543.476	28603.13
543.676	28218.11
543.877	28832.5
544.077	28635.89
544.277	28582.65
544.478	28885.75
544.678	28654.33
544.878	28097.28
545.078	28680.95
545.279	28412.67
545.479	28371.71
545.679	28283.64
545.879	28611.32
546.079	28766.96
546.28	28310.27
546.48	28199.68
546.68	28537.59
546.88	28459.77
547.08	28396.28
547.28	28637.94
547.48	28111.61
547.68	28355.32
547.88	28498.68
548.081	28625.65
548.281	28287.74
548.481	28183.29
548.681	28461.82
548.881	28580.6
549.081	28261.12
549.28	28261.12
549.48	28672.76
549.68	28408.57
549.88	28758.77
550.08	28502.78
550.28	28398.33
550.48	28429.05
550.68	28979.95
550.88	28304.12
551.08	28412.67
551.279	28588.79
551.479	28400.38
551.679	28510.97
551.879	28246.78
552.079	28699.38
552.278	28373.75
552.478	28637.94
552.678	28865.27
552.878	28756.72
553.077	28437.24
553.277	28525.3
553.477	29041.39
553.676	28793.59
553.876	28285.69
554.076	28791.54
554.275	28617.46
554.475	28297.98
554.674	28633.85
554.874	28599.03
555.074	28627.7
555.273	28576.5
555.473	28791.54
555.672	28685.04
555.872	28461.82
556.071	28687.09
556.271	28904.18
556.47	28359.42
556.67	28398.33
556.869	28621.56
557.068	29084.4
557.268	28750.58
557.467	28601.08
557.667	28553.97
557.866	28750.58
558.065	28951.28
558.265	28750.58
558.464	28848.88
558.663	28920.56
558.863	28578.55
559.062	29362.92
559.261	28664.57
559.461	28969.71
559.66	28599.03
559.859	28971.76
560.058	28736.24
560.258	28934.9
560.457	28635.89
560.656	28891.89
560.855	28599.03
561.054	28924.66
561.253	28566.26
561.453	28775.16
561.652	28812.02
561.851	29053.68
562.05	28615.41
562.249	28730.1
562.448	28873.46
562.647	28891.89
562.846	28633.85
563.045	28574.45
563.244	28502.78
563.443	28779.25
563.642	28449.53
563.841	28302.07
564.04	28451.58
564.239	28617.46
564.438	28254.97
564.637	28611.32
564.836	28588.79
565.035	28234.49
565.234	28621.56
565.432	28310.27
565.631	28205.82
565.83	28500.73
566.029	28068.61
566.228	28146.43
566.427	27964.16
566.625	27915.01
566.824	27747.08
567.023	27990.78
567.222	28015.36
567.42	28074.75
567.619	28128
567.818	27982.59
568.016	28019.46
568.215	27921.15
568.414	27521.8
568.612	28261.12
568.811	27769.6
569.01	27740.93
569.208	27415.3
569.407	27626.25
569.605	27417.35
569.804	27728.64
570.002	27628.29
570.201	27247.37
570.4	27261.71
570.598	27308.81
570.797	27149.07
570.995	27081.49
571.193	26743.57
571.392	27263.75
571.59	26739.47
571.789	26710.8
571.987	26874.64
572.186	26952.46
572.384	26651.41
572.582	26917.65
572.781	26860.3
572.979	26538.77
573.177	26817.3
573.376	26501.91
573.574	26065.69
573.772	26524.44
573.971	26053.41
574.169	25959.2
574.367	26051.36
574.565	26313.5
574.763	25821.98
574.962	26061.6
575.16	25858.85
575.358	25611.04
575.556	25355.05
575.754	25684.77
575.952	25125.68
576.151	25604.9
576.349	25377.58
576.547	25158.44
576.745	25461.54
576.943	25127.72
577.141	25228.07
577.339	25195.31
577.537	25185.07
577.735	24935.21
577.933	24859.44
578.131	24771.38
578.329	24832.82
578.527	24638.26
578.725	24982.32
578.923	24591.16
579.121	24648.5
579.319	24273.72
579.516	24654.64
579.714	24537.91
579.912	24519.48
580.11	24400.69
580.308	24361.78
580.506	23933.76
580.704	23685.95
580.901	24154.94
581.099	24408.89
581.297	23685.95
581.495	23737.15
581.692	24159.03
581.89	23563.08
582.088	23733.06
582.285	23546.69
582.483	23751.49
582.681	23726.91
582.878	23386.95
583.076	23130.95
583.274	23581.51
583.471	22991.69
583.669	23145.29
583.866	23040.84
584.064	23233.35
584.262	23034.7
584.459	23270.22
584.657	22836.05
584.854	22885.2
585.052	22653.78
585.249	22760.27
585.447	22940.49
585.644	22344.53
585.841	22709.07
586.039	22762.32
586.236	22563.67
586.434	22451.03
586.631	22424.4
586.828	22475.6
587.026	22676.3
587.223	22295.38
587.42	21930.84
587.618	22147.93
587.815	21955.42
588.012	22016.86
588.21	21967.71
588.407	22266.71
588.604	21773.15
588.801	22092.63
588.999	21877.6
589.196	21576.55
589.393	21746.53
589.59	21547.87
589.787	21836.64
589.984	21672.8
590.182	21410.66
590.379	21613.41
590.576	21361.51
590.773	21457.76
590.97	21314.41
591.167	21384.04
591.364	21406.56
591.561	21414.76
591.758	21162.86
591.955	21250.92
592.152	21597.03
592.349	21207.91
592.546	20986.73
592.743	21386.08
592.94	20806.51
593.137	21060.46
593.334	21021.55
593.531	20407.16
593.727	21226.34
593.924	20908.91
594.121	20683.63
594.318	20865.9
594.515	20648.82
594.712	20859.76
594.908	20878.19
595.105	20595.57
595.302	20382.58
595.499	20657.01
595.696	20476.79
595.892	20390.77
596.089	20730.73
596.286	20679.54
596.482	20523.89
596.679	20695.92
596.876	20441.97
597.072	20364.15
597.269	20786.03
597.466	20323.19
597.662	20392.82
597.859	20577.14
598.055	20505.46
598.252	20409.2
598.448	20317.04
598.645	20173.69
598.841	20200.31
599.038	20331.38
599.234	20284.28
599.431	20263.8
599.627	20271.99
599.824	20280.18
600.02	20120.44
600.217	19975.03
600.413	20153.21
600.609	20437.87
600.806	20167.54
601.002	20425.59
601.198	20228.98
601.395	19952.51
601.591	20181.88
601.787	20319.09
601.984	19950.46
602.18	20206.45
602.376	20202.36
602.572	20145.02
602.769	20308.85
602.965	20224.89
603.161	20149.11
603.357	20177.78
603.553	20038.52
603.75	20157.3
603.946	19897.21
604.142	20423.54
604.338	19862.4
604.534	20239.22
604.73	19807.1
604.926	20437.87
605.122	20188.02
605.318	20040.57
605.514	20351.86
605.71	19893.12
605.906	20190.07
606.102	20145.02
606.298	20380.53
606.494	20390.77
606.69	20300.66
606.886	20190.07
607.082	20046.71
607.278	20362.1
607.474	20136.82
607.67	20294.52
607.866	19766.14
608.062	20466.55
608.257	20306.8
608.453	20376.44
608.649	20573.04
608.845	20259.7
609.041	20296.56
609.236	20587.38
609.432	20470.64
609.628	20384.63
609.824	20276.09
610.019	20294.52
610.215	20474.74
610.411	20386.68
610.606	20472.69
610.802	20243.32
610.998	20505.46
611.193	20622.19
611.389	20409.2
611.584	20276.09
611.78	20448.11
611.976	20390.77
612.171	20448.11
612.367	20384.63
612.562	20188.02
612.758	20630.38
612.953	20460.4
613.149	20747.12
613.344	20429.68
613.539	20812.65
613.735	20403.06
613.93	20722.54
614.126	20335.48
614.321	20671.34
614.517	20603.76
614.712	20624.24
614.907	20452.21
615.103	20599.66
615.298	20798.32
615.493	20652.91
615.688	20294.52
615.884	21039.98
616.079	20542.32
616.274	20743.02
616.47	20411.25
616.665	20755.31
616.86	20355.96
617.055	20519.79
617.25	20208.5
617.445	20636.53
617.641	20321.14
617.836	20999.02
618.031	20216.69
618.226	20542.32
618.421	20263.8
618.616	20368.24
618.811	20247.41
619.006	20489.07
619.201	20192.12
619.396	20364.15
619.591	19714.94
619.786	19827.58
619.981	19528.58
620.176	20108.15
620.371	19641.21
620.566	19641.21
620.761	19630.98
620.956	19823.48
621.151	19745.66
621.346	19854.2
621.541	19399.55
621.735	19587.97
621.93	19168.13
622.125	19481.47
622.32	19090.31
622.515	19217.29
622.709	18996.1
622.904	19131.27
623.099	18697.1
623.294	18733.96
623.488	18779.02
623.683	18643.85
623.878	18527.12
624.072	18664.33
624.267	18443.15
624.462	18267.03
624.656	18017.18
624.851	18314.13
625.046	17916.83
625.24	17906.59
625.435	17810.33
625.629	18047.9
625.824	17607.58
626.018	17750.94
626.213	17345.44
626.407	17601.44
626.602	17386.4
626.796	17470.37
626.991	17277.86
627.185	17224.61
627.38	17073.06
627.574	16948.14
627.768	16821.16
627.963	16667.56
628.157	16636.84
628.352	16559.02
628.546	16530.35
628.74	16753.58
628.935	16524.21
629.129	16700.33
629.323	16364.46
629.517	16264.11
629.712	15954.87
629.906	16012.21
630.1	15772.6
630.294	16114.61
630.489	15764.41
630.683	15801.27
630.877	15406.02
631.071	15553.47
631.265	15631.29
631.459	15594.43
631.653	15410.11
631.848	15336.38
632.042	15141.83
632.236	15131.59
632.43	14918.6
632.624	15137.73
632.818	14830.54
633.012	14797.77
633.206	14754.76
633.4	14887.88
633.594	14447.57
633.788	14703.56
633.982	14623.69
634.176	14459.85
634.369	14357.46
634.563	14552.01
634.757	14351.31
634.951	14212.05
635.145	14091.22
635.339	14351.31
635.533	13984.73
635.726	14058.45
635.92	13724.63
636.114	13773.78
636.308	13538.27
636.501	13593.56
636.695	13542.36
636.889	13482.97
637.083	13274.08
637.276	13454.3
637.47	13177.83
637.664	13140.96
637.857	13224.93
638.051	13327.33
638.244	13030.37
638.438	12809.19
638.632	12788.71
638.825	12710.89
639.019	12616.68
639.212	12555.24
639.406	12512.24
639.599	12725.22
639.793	12540.91
639.986	12311.53
640.18	12309.49
640.373	12186.61
640.567	12139.51
640.76	12223.47
640.954	11957.24
641.147	11832.31
641.34	11889.65
641.534	11824.12
641.727	11760.63
641.92	11822.07
642.114	11512.83
642.307	11543.55
642.5	11379.71
642.694	11355.13
642.887	11236.35
643.08	11209.73
643.273	11107.33
643.467	11097.09
643.66	11056.13
643.853	11150.34
644.046	10888.2
644.239	10757.13
644.432	10927.11
644.626	10564.62
644.819	10609.67
645.012	10478.6
645.205	10519.56
645.398	10527.75
645.591	10271.76
645.784	10232.85
645.977	10296.33
646.17	10210.32
646.363	10083.34
646.556	9925.65
646.749	9964.56
646.942	10071.06
647.135	9835.54
647.328	10064.91
647.521	9980.95
647.714	9798.68
647.907	9987.09
648.099	9700.37
648.292	9628.7
648.485	9671.7
648.678	9542.68
648.871	9552.92
649.064	9286.68
649.256	9473.05
649.449	9045.02
649.642	9421.85
649.835	9032.74
650.027	9024.54
650.22	9126.94
650.413	9208.86
650.605	9151.52
650.798	9085.98
650.991	8913.95
651.183	8852.52
651.376	8719.4
651.568	8793.12
651.761	8832.04
651.954	8752.17
652.146	8711.21
652.339	8635.43
652.531	8451.11
652.724	8655.91
652.916	8399.91
653.109	8393.77
653.301	8533.03
653.494	8289.32
653.686	8236.08
653.879	8463.4
654.071	8080.43
654.263	7885.87
654.456	8109.1
654.648	8270.89
654.84	7877.68
655.033	7959.6
655.225	7990.32
655.417	8031.28
655.61	7924.79
655.802	7945.27
655.994	7971.89
656.186	7730.23
656.379	7730.23
656.571	7662.65
656.763	7648.31
656.955	7586.87
657.148	7486.52
657.34	7633.97
657.532	7369.79
657.724	7279.68
657.916	7337.02
658.108	7203.9
658.3	7308.35
658.492	7253.05
658.684	7128.13
658.876	7197.76
659.068	7142.46
659.26	7056.45
659.452	7099.45
659.644	7062.59
659.836	7040.06
660.028	6751.3
660.22	6681.67
660.412	6816.83
660.604	6718.53
660.796	6769.73
660.988	6726.72
661.18	6777.92
661.372	6532.17
661.563	6700.1
661.755	6491.21
661.947	6816.83
662.139	6364.23
662.331	6581.32
662.522	6349.9
662.714	6278.22
662.906	6458.44
663.097	6329.42
663.289	6089.81
663.481	6196.3
663.673	6261.84
663.864	6046.8
664.056	6231.12
664.247	6106.19
664.439	5989.46
664.631	6145.1
664.822	6136.91
665.014	6042.7
665.205	6020.17
665.397	5907.54
665.588	5876.82
665.78	5758.03
665.971	5753.94
666.163	5885.01
666.354	5719.12
666.546	5704.79
666.737	5751.89
666.929	5811.28
667.12	5839.95
667.311	5727.32
667.503	5653.59
667.694	5508.18
667.885	5534.81
668.077	5528.66
668.268	5481.56
668.459	5436.5
668.651	5270.62
668.842	5473.37
669.033	5391.45
669.224	5254.23
669.416	5278.81
669.607	5456.98
669.798	5260.38
669.989	5426.26
670.18	5137.5
670.371	5028.96
670.563	5149.79
670.754	5215.32
670.945	5141.6
671.136	5065.82
671.327	5063.77
671.518	5137.5
671.709	5055.58
671.9	5063.77
672.091	4940.9
672.282	4897.89
672.473	5010.53
672.664	5057.63
672.855	4854.88
673.046	4953.18
673.237	4973.66
673.428	4990.05
673.619	4858.98
673.809	4799.59
674	4781.15
674.191	4830.3
674.382	4633.7
674.573	4781.15
674.764	4697.19
674.954	4793.44
675.145	4594.79
675.336	4729.95
675.527	4650.08
675.717	4736.1
675.908	4592.74
676.099	4623.46
676.289	4787.3
676.48	4592.74
676.671	4648.04
676.861	4537.45
677.052	4547.69
677.243	4416.62
677.433	4516.97
677.624	4523.11
677.814	4541.54
678.005	4500.58
678.195	4437.09
678.386	4437.09
678.576	4449.38
678.767	4320.36
678.957	4369.51
679.148	4584.55
679.338	4482.15
679.529	4326.5
679.719	4318.31
679.909	4359.27
680.1	4379.75
680.29	4443.24
680.481	4269.16
680.671	4383.85
680.861	4402.28
681.052	4385.9
681.242	4295.79
681.432	4433
681.622	4349.03
681.813	4191.34
682.003	4359.27
682.193	4199.53
682.383	4289.64
682.573	4199.53
682.764	4164.72
682.954	4109.42
683.144	4340.84
683.334	4215.91
683.524	4082.8
683.714	4121.71
683.904	4013.17
684.094	4148.33
684.284	4189.29
684.474	4179.05
684.664	4123.76
684.854	4109.42
685.044	4080.75
685.234	4027.5
685.424	4115.56
685.614	3929.2
685.804	4150.38
685.994	3966.06
686.184	4013.17
686.374	4029.55
686.564	3957.87
686.753	4035.69
686.943	3964.01
687.133	3859.57
687.323	3828.85
687.513	3900.53
687.702	3974.25
687.892	3859.57
688.082	3970.16
688.272	3941.49
688.461	4000.88
688.651	3925.1
688.841	3826.8
689.03	3771.51
689.22	3839.09
689.41	3826.8
689.599	3802.22
689.789	3828.85
689.979	3902.58
690.168	3703.92
690.358	3671.15
690.547	3689.59
690.737	3646.58
690.926	3794.03
691.116	3753.07
691.305	3757.17
691.495	3738.74
691.684	3454.07
691.874	3687.54
692.063	3667.06
692.252	3691.63
692.442	3761.27
692.631	3679.35
692.82	3615.86
693.01	3708.02
693.199	3624.05
693.388	3382.39
693.578	3566.71
693.767	3615.86
693.956	3546.23
694.146	3546.23
694.335	3523.7
694.524	3470.45
694.713	3535.99
694.902	3425.4
695.092	3525.75
695.281	3449.97
695.47	3478.65
695.659	3392.63
695.848	3509.37
696.037	3236.99
696.226	3374.2
696.415	3267.7
696.604	3509.37
696.793	3417.21
696.982	3327.1
697.171	3392.63
697.36	3386.49
697.549	3323
697.738	3267.7
697.927	3284.09
698.116	3325.05
698.305	3374.2
698.494	3406.97
698.683	3288.18
698.872	3230.84
699.061	3277.94
699.25	3271.8
699.438	3216.51
699.627	3132.54
699.816	3261.56
700.005	3163.26
700.193	3179.64
700.382	3091.58
700.571	3142.78
700.76	3105.92
700.948	3196.03
701.137	3290.23
701.326	3187.83
701.514	3130.49
701.703	3142.78
701.892	3101.82
702.08	3132.54
702.269	3179.64
702.457	3073.15
702.646	3132.54
702.834	3044.48
703.023	3052.67
703.212	3073.15
703.4	2903.17
703.589	3003.52
703.777	2870.4
703.965	2974.85
704.154	2991.23
704.342	3024
704.531	2946.17
704.719	2958.46
704.907	3069.05
705.096	2851.97
705.284	3024
705.472	2905.21
705.661	2897.02
705.849	2802.82
706.037	2948.22
706.226	2954.37
706.414	2937.98
706.602	2952.32
706.79	2937.98
706.979	2692.23
707.167	2802.82
707.355	2835.58
707.543	2847.87
707.731	2901.12
707.919	2798.72
708.107	2811.01
708.296	2714.75
708.484	2663.55
708.672	2745.47
708.86	2739.33
709.048	2745.47
709.236	2737.28
709.424	2790.53
709.612	2583.68
709.8	2634.88
709.988	2763.9
710.176	2696.32
710.364	2679.94
710.551	2624.64
710.739	2626.69
710.927	2632.83
711.115	2622.59
711.303	2630.79
711.491	2651.27
711.679	2624.64
711.866	2634.88
712.054	2614.4
712.242	2450.57
712.43	2638.98
712.617	2542.72
712.805	2458.76
712.993	2577.54
713.181	2530.44
713.368	2512
713.556	2530.44
713.744	2425.99
713.931	2571.4
714.119	2589.83
714.306	2397.32
714.494	2458.76
714.682	2432.13
714.869	2417.8
715.057	2518.15
715.244	2362.5
715.432	2391.17
715.619	2434.18
715.807	2389.13
715.994	2432.13
716.182	2462.85
716.369	2313.35
716.556	2458.76
716.744	2352.26
716.931	2376.84
717.119	2479.24
717.306	2258.06
717.493	2272.39
717.681	2346.12
717.868	2229.38
718.055	2387.08
718.242	2356.36
718.43	2237.58
718.617	2274.44
718.804	2337.93
718.991	2417.8
719.179	2286.73
719.366	2305.16
719.553	2186.38
719.74	2264.2
719.927	2210.95
720.114	2290.82
720.301	2280.58
720.488	2231.43
720.676	2149.51
720.863	2176.14
721.05	2196.62
721.237	2126.99
721.424	2313.35
721.611	2131.08
721.798	2174.09
721.985	2016.4
722.172	2167.95
722.358	2053.26
722.545	2184.33
722.732	2102.41
722.919	2194.57
723.106	2043.02
723.293	2040.97
723.48	2081.93
723.667	2098.31
723.853	2059.4
724.04	2036.88
724.227	2081.93
724.414	2038.92
724.6	2073.74
724.787	2069.64
724.974	2081.93
725.161	2083.98
725.347	2051.21
725.534	2026.64
725.72	1959.05
725.907	1967.24
726.094	1934.48
726.28	2094.22
726.467	1920.14
726.653	1981.58
726.84	2061.45
727.027	2049.16
727.213	1950.86
727.4	1967.24
727.586	1946.76
727.773	1965.2
727.959	2043.02
728.145	2020.49
728.332	1934.48
728.518	1926.29
728.705	1844.37
728.891	1842.32
729.077	1811.6
729.264	1807.5
729.45	1862.8
729.636	1870.99
729.823	1901.71
730.009	1803.41
730.195	1819.79
730.382	1836.17
730.568	1805.46
730.754	1903.76
730.94	1834.13
731.126	1782.93
731.313	1838.22
731.499	1862.8
731.685	1885.33
731.871	1770.64
732.057	1887.37
732.243	1854.61
732.429	1858.7
732.615	1754.26
732.801	1811.6
732.987	1836.17
733.173	1698.96
733.359	1864.85
733.545	1729.68
733.731	1666.19
733.917	1750.16
734.103	1674.39
734.289	1713.3
734.475	1655.95
734.661	1701.01
734.847	1717.39
735.033	1766.54
735.219	1676.43
735.404	1737.87
735.59	1627.28
735.776	1621.14
735.962	1715.34
736.148	1580.18
736.333	1723.54
736.519	1590.42
736.705	1596.56
736.89	1631.38
737.076	1623.19
737.262	1578.13
737.447	1574.03
737.633	1658
737.819	1606.8
738.004	1658
738.19	1549.46
738.375	1590.42
738.561	1537.17
738.747	1590.42
738.932	1537.17
739.118	1651.86
739.303	1561.75
739.489	1559.7
739.674	1518.74
739.859	1504.4
740.045	1545.36
740.23	1549.46
740.416	1428.63
740.601	1559.7
740.786	1461.4
740.972	1518.74
741.157	1422.48
741.342	1508.5
741.528	1395.86
741.713	1553.55
741.898	1488.02
742.084	1500.31
742.269	1516.69
742.454	1475.73
742.639	1508.5
742.824	1531.03
743.01	1492.12
743.195	1508.5
743.38	1328.28
743.565	1483.92
743.75	1445.01
743.935	1354.9
744.12	1344.66
744.305	1420.44
744.49	1371.29
744.675	1420.44
744.86	1318.04
745.045	1387.67
745.23	1365.14
745.415	1332.37
745.6	1328.28
745.785	1332.37
745.97	1365.14
746.155	1305.75
746.34	1301.65
746.525	1320.09
746.71	1322.13
746.895	1211.54
747.079	1244.31
747.264	1279.13
747.449	1275.03
747.634	1318.04
747.819	1174.68
748.003	1158.3
748.188	1180.82
748.373	1180.82
748.557	1229.98
748.742	1172.63
748.927	1088.67
749.111	1168.54
749.296	1133.72
749.481	1139.87
749.665	1094.81
749.85	1057.95
750.034	1184.92
750.219	1256.6
750.404	1172.63
750.588	1160.34
750.773	1092.76
750.957	1154.2
751.141	1131.67
751.326	1045.66
751.51	1039.51
751.695	930.97
751.879	1107.1
752.064	1094.81
752.248	1078.43
752.432	1019.04
752.617	1070.23
752.801	1010.84
752.985	1041.56
753.17	1107.1
753.354	1049.75
753.538	1029.27
753.722	969.88
753.907	1074.33
754.091	1037.47
754.275	1039.51
754.459	914.59
754.643	937.12
754.828	1037.47
755.012	951.45
755.196	861.34
755.38	859.29
755.564	976.03
755.748	959.64
755.932	877.73
756.116	879.77
756.3	947.36
756.484	881.82
756.668	982.17
756.852	869.53
757.036	887.97
757.22	890.01
757.404	836.77
757.588	898.2
757.772	869.53
757.956	844.96
758.14	887.97
758.323	906.4
758.507	910.49
758.691	836.77
758.875	746.66
759.059	822.43
759.242	885.92
759.426	804
759.61	834.72
759.794	797.85
759.977	881.82
760.161	930.97
760.345	820.38
760.528	885.92
760.712	855.2
760.895	767.13
761.079	801.95
761.263	726.18
761.446	709.79
761.63	806.05
761.813	722.08
761.997	625.83
762.18	799.9
762.364	654.5
762.547	726.18
762.731	728.22
762.914	781.47
763.098	666.78
763.281	697.5
763.464	785.57
763.648	674.98
763.831	683.17
764.015	685.22
764.198	754.85
764.381	705.7
764.564	709.79
764.748	709.79
764.931	711.84
765.114	697.5
765.297	705.7
765.481	609.44
765.664	734.37
765.847	722.08
766.03	732.32
766.213	668.83
766.397	672.93
766.58	726.18
766.763	730.27
766.946	582.82
767.129	617.63
767.312	646.3
767.495	631.97
767.678	623.78
767.861	697.5
768.044	603.3
768.227	636.06
768.41	560.29
768.593	724.13
768.776	693.41
768.959	685.22
769.142	681.12
769.324	681.12
769.507	672.93
769.69	599.2
769.873	697.5
770.056	697.5
770.239	681.12
770.421	715.94
770.604	591.01
770.787	656.54
770.97	697.5
771.152	640.16
771.335	640.16
771.518	584.87
771.7	588.96
771.883	642.21
772.066	642.21
772.248	541.86
772.431	597.15
772.613	640.16
772.796	593.06
772.978	672.93
773.161	607.39
773.343	593.06
773.526	541.86
773.708	593.06
773.891	519.33
774.073	597.15
774.256	502.95
774.438	574.63
774.621	582.82
774.803	535.71
774.985	535.71
775.168	691.36
775.35	517.28
775.532	543.91
775.715	455.84
775.897	609.44
776.079	554.15
776.261	496.8
776.444	455.84
776.626	498.85
776.808	468.13
776.99	558.24
777.173	593.06
777.355	527.52
777.537	521.38
777.719	484.52
777.901	500.9
778.083	500.9
778.265	472.23
778.447	527.52
778.629	476.32
778.811	445.6
778.993	443.56
779.175	468.13
779.357	464.04
779.539	431.27
779.721	386.21
779.903	504.99
780.085	486.56
780.267	431.27
780.449	443.56
780.631	459.94
780.812	525.47
780.994	406.69
781.176	429.22
781.358	418.98
781.54	441.51
781.721	443.56
781.903	441.51
782.085	328.87
782.267	435.36
782.448	363.69
782.63	328.87
782.812	388.26
782.993	394.4
783.175	380.07
783.357	412.84
783.538	318.63
783.72	328.87
783.901	261.29
784.083	400.55
784.264	359.59
784.446	396.45
784.627	271.53
784.809	447.65
784.99	373.92
785.172	320.68
785.353	337.06
785.535	382.12
785.716	322.73
785.897	298.15
786.079	355.49
786.26	306.34
786.441	382.12
786.623	337.06
786.804	304.29
786.985	292.01
787.167	359.59
787.348	378.02
787.529	382.12
787.71	404.64
787.891	357.54
788.073	300.2
788.254	300.2
788.435	418.98
788.616	337.06
788.797	294.05
788.978	330.92
789.159	222.38
789.34	251.05
789.522	220.33
789.703	339.11
789.884	314.53
790.065	312.49
790.246	373.92
790.427	222.38
790.607	343.21
790.788	349.35
790.969	246.95
791.15	273.57
791.331	312.49
791.512	257.19
791.693	255.14
791.874	253.09
792.054	300.2
792.235	253.09
792.416	208.04
792.597	275.62
792.778	240.81
792.958	220.33
793.139	298.15
793.32	263.33
793.5	259.24
793.681	322.73
793.862	238.76
794.042	267.43
794.223	232.62
794.404	304.29
794.584	265.38
794.765	156.84
794.945	263.33
795.126	269.48
795.306	281.77
795.487	205.99
795.667	222.38
795.848	232.62
796.028	232.62
796.209	230.57
796.389	203.94
796.57	210.09
796.75	175.27
796.93	220.33
797.111	232.62
797.291	205.99
797.471	234.66
797.652	212.14
797.832	199.85
798.012	279.72
798.192	238.76
798.373	152.74
798.553	205.99
798.733	265.38
798.913	187.56
799.093	205.99
799.274	236.71
799.454	216.23
799.634	257.19
799.814	283.81
799.994	181.42
800.174	210.09
800.354	152.74
800.534	191.66
800.714	124.07
800.894	255.14
801.074	158.89
801.254	216.23
801.434	199.85
801.614	246.95
801.794	177.32
801.974	865.44
802.154	165.03
802.334	173.22
802.514	244.9
802.693	205.99
802.873	167.08
803.053	205.99
803.233	191.66
803.413	111.78
803.592	193.7
803.772	177.32
803.952	189.61
804.131	177.32
804.311	165.03
804.491	224.42
804.67	197.8
804.85	165.03
805.03	181.42
805.209	193.7
805.389	60.59
805.568	113.83
805.748	230.57
805.928	148.65
806.107	152.74
806.287	181.42
806.466	128.17
806.646	152.74
806.825	156.84
807.004	165.03
807.184	160.94
807.363	111.78
807.543	105.64
807.722	115.88
807.901	124.07
808.081	150.7
808.26	36.01
808.439	173.22
808.619	167.08
808.798	165.03
808.977	117.93
809.156	197.8
809.336	160.94
809.515	156.84
809.694	83.11
809.873	99.5
810.052	132.26
810.231	132.26
810.411	132.26
810.59	240.81
810.769	146.6
810.948	156.84
811.127	91.31
811.306	142.5
811.485	119.98
811.664	230.57
811.843	72.87
812.022	103.59
812.201	126.12
812.38	169.13
812.559	144.55
812.737	119.98
812.916	205.99
813.095	117.93
813.274	134.31
813.453	140.46
813.632	136.36
813.811	107.69
813.989	36.01
814.168	105.64
814.347	52.39
814.526	126.12
814.704	193.7
814.883	187.56
815.062	46.25
815.24	148.65
815.419	54.44
815.598	150.7
815.776	42.15
815.955	156.84
816.133	119.98
816.312	167.08
816.49	175.27
816.669	103.59
816.847	58.54
817.026	91.31
817.204	140.46
817.383	107.69
817.561	91.31
817.74	103.59
817.918	74.92
818.097	111.78
818.275	68.78
818.453	158.89
818.632	132.26
818.81	42.15
818.988	44.2
819.167	144.55
819.345	115.88
819.523	134.31
819.701	126.12
819.879	158.89
820.058	134.31
820.236	124.07
820.414	128.17
820.592	91.31
820.77	79.02
820.948	68.78
821.127	95.4
821.305	58.54
821.483	66.73
821.661	130.22
821.839	154.79
822.017	97.45
822.195	87.21
822.373	140.46
822.551	68.78
822.729	130.22
822.907	113.83
823.085	140.46
823.262	115.88
823.44	58.54
823.618	105.64
823.796	58.54
823.974	101.55
824.152	50.35
824.329	85.16
824.507	33.96
824.685	64.68
824.863	33.96
825.04	83.11
825.218	132.26
825.396	66.73
825.574	105.64
825.751	117.93
825.929	105.64
826.107	124.07
826.284	140.46
826.462	62.63
826.639	91.31
826.817	48.3
826.994	103.59
827.172	93.35
827.349	122.02
827.527	36.01
827.704	74.92
827.882	44.2
828.059	85.16
828.237	91.31
828.414	132.26
828.591	60.59
828.769	144.55
828.946	103.59
829.124	132.26
829.301	152.74
829.478	119.98
829.655	156.84
829.833	79.02
830.01	33.96
830.187	9.39
830.364	81.07
830.542	79.02
830.719	117.93
830.896	54.44
831.073	58.54
831.25	72.87
831.427	124.07
831.604	99.5
831.782	99.5
831.959	117.93
832.136	48.3
832.313	140.46
832.49	36.01
832.667	60.59
832.844	9.39
833.021	58.54
833.198	136.36
833.374	111.78
833.551	117.93
833.728	33.96
833.905	91.31
834.082	58.54
834.259	40.11
834.436	113.83
834.612	-19.29
834.789	148.65
834.966	107.69
835.143	83.11
835.319	-21.33
835.496	56.49
835.673	79.02
835.85	40.11
836.026	81.07
836.203	95.4
836.38	-13.14
836.556	52.39
836.733	-2.9
836.909	62.63
837.086	50.35
837.262	38.06
837.439	44.2
837.616	72.87
837.792	50.35
837.968	107.69
838.145	-31.57
838.321	124.07
838.498	-21.33
838.674	140.46
838.851	42.15
839.027	83.11
839.203	11.43
839.38	-35.67
839.556	50.35
839.732	91.31
839.909	70.83
840.085	40.11
840.261	27.82
840.437	33.96
840.614	33.96
840.79	76.97
840.966	68.78
841.142	83.11
841.318	29.87
841.494	68.78
841.671	99.5
841.847	56.49
842.023	-7
842.199	89.26
842.375	68.78
842.551	-7
842.727	25.77
842.903	93.35
843.079	7.34
843.255	74.92
843.431	29.87
843.607	11.43
843.783	17.58
843.959	36.01
844.134	50.35
844.31	91.31
844.486	9.39
844.662	91.31
844.838	36.01
845.013	70.83
845.189	50.35
845.365	74.92
845.541	85.16
845.716	111.78
845.892	74.92
846.068	52.39
846.244	83.11
846.419	64.68
846.595	9.39
846.77	40.11
846.946	93.35
847.122	25.77
847.297	79.02
847.473	3.24
847.648	-23.38
847.824	81.07
847.999	-43.86
848.175	95.4
848.35	27.82
848.526	91.31
848.701	93.35
848.876	50.35
849.052	64.68
849.227	38.06
849.403	93.35
849.578	38.06
849.753	44.2
849.929	3.24
850.104	1.19
850.279	79.02
850.454	9.39
850.63	101.55
850.805	38.06
850.98	29.87
851.155	-15.19
851.33	27.82
851.505	-4.95
851.681	87.21
851.856	-35.67
852.031	-4.95
852.206	-2.9
852.381	-11.09
852.556	60.59
852.731	44.2
852.906	93.35
853.081	91.31
853.256	93.35
853.431	62.63
853.606	7.34
853.781	33.96
853.956	33.96
854.131	111.78
854.305	9.39
854.48	58.54
854.655	-11.09
854.83	81.07
855.005	11.43
855.18	91.31
855.354	95.4
855.529	29.87
855.704	25.77
855.879	52.39
856.053	93.35
856.228	5.29
856.403	25.77
856.577	87.21
856.752	1.19
856.926	52.39
857.101	132.26
857.276	33.96
857.45	-4.95
857.625	89.26
857.799	3.24
857.974	33.96
858.148	-13.14
858.323	99.5
858.497	19.63
858.672	5.29
858.846	17.58
859.02	74.92
859.195	-4.95
859.369	29.87
859.543	13.48
859.718	7.34
859.892	46.25
860.066	38.06
860.241	70.83
860.415	72.87
860.589	-15.19
860.763	68.78
860.938	17.58
861.112	79.02
861.286	1.19
861.46	31.91
861.634	33.96
861.808	64.68
861.982	58.54
862.157	31.91
862.331	19.63
862.505	21.67
862.679	29.87
862.853	-4.95
863.027	-62.29
863.201	128.17
863.375	44.2
863.549	38.06
863.722	50.35
863.896	99.5
864.07	58.54
864.244	1.19
864.418	52.39
864.592	17.58
864.766	-43.86
864.939	60.59
865.113	36.01
865.287	-13.14
865.461	15.53
865.634	60.59
865.808	52.39
865.982	-4.95
866.156	31.91
866.329	17.58
866.503	-21.33
866.676	13.48
866.85	29.87
867.024	-7
867.197	74.92
867.371	17.58
867.544	-4.95
867.718	-76.63
867.891	85.16
868.065	-25.43
868.238	3.24
868.412	25.77
868.585	11.43
868.759	70.83
868.932	42.15
869.105	-45.91
869.279	17.58
869.452	25.77
869.625	-35.67
869.799	52.39
869.972	17.58
870.145	46.25
870.319	-7
870.492	21.67
870.665	25.77
870.838	54.44
871.011	-47.96
871.185	-15.19
871.358	33.96
871.531	33.96
871.704	-31.57
871.877	19.63
872.05	-47.96
872.223	-72.53
872.396	66.73
872.569	31.91
872.742	99.5
872.915	58.54
873.088	33.96
873.261	-47.96
873.434	66.73
873.607	-31.57
873.78	-9.05
873.953	-27.48
874.126	19.63
874.299	124.07
874.471	-33.62
874.644	-13.14
874.817	33.96
874.99	29.87
875.163	56.49
875.335	99.5
875.508	56.49
875.681	74.92
875.853	7.34
876.026	3.24
876.199	48.3
876.371	9.39
876.544	25.77
876.717	33.96
876.889	17.58
877.062	25.77
877.234	-13.14
877.407	83.11
877.579	15.53
877.752	70.83
877.924	1.19
878.097	91.31
878.269	11.43
878.442	-80.72
878.614	107.69
878.786	19.63
878.959	3.24
879.131	93.35
879.303	-56.15
879.476	33.96
879.648	25.77
879.82	1.19
879.993	-35.67
880.165	-27.48
880.337	-31.57
880.509	50.35
880.681	17.58
880.854	3.24
881.026	3.24
881.198	148.65
881.37	-31.57
881.542	3.24
881.714	62.63
881.886	-15.19
882.058	44.2
882.23	27.82
882.402	1.19
882.574	38.06
882.746	54.44
882.918	15.53
883.09	33.96
883.262	42.15
883.434	21.67
883.606	-13.14
883.778	58.54
883.95	46.25
884.122	44.2
884.293	-23.38
884.465	85.16
884.637	42.15
884.809	-13.14
884.98	17.58
885.152	5.29
885.324	9.39
885.496	-2.9
885.667	11.43
885.839	89.26
886.011	103.59
886.182	54.44
886.354	64.68
886.525	25.77
886.697	40.11
886.869	-2.9
887.04	27.82
887.212	25.77
887.383	91.31
887.555	11.43
887.726	-17.24
887.897	9.39
888.069	-80.72
888.24	42.15
888.412	66.73
888.583	68.78
888.754	5.29
888.926	-21.33
889.097	-45.91
889.268	-80.72
889.44	13.48
889.611	-31.57
889.782	-23.38
889.953	-7
890.125	33.96
890.296	58.54
890.467	15.53
890.638	23.72
890.809	-2.9
890.98	-0.85
891.151	38.06
891.323	50.35
891.494	-11.09
891.665	40.11
891.836	-64.34
892.007	50.35
892.178	60.59
892.349	89.26
892.52	144.55
892.691	68.78
892.862	70.83
893.032	9.39
893.203	42.15
893.374	-13.14
893.545	136.36
893.716	-23.38
893.887	68.78
894.057	-45.91
894.228	17.58
894.399	27.82
894.57	29.87
894.74	87.21
894.911	58.54
895.082	42.15
895.253	-43.86
895.423	44.2
895.594	33.96
895.764	56.49
895.935	-7
896.106	-0.85
896.276	42.15
896.447	25.77
896.617	64.68
896.788	3.24
896.958	83.11
897.129	17.58
897.299	-19.29
897.47	17.58
897.64	17.58
897.81	-72.53
897.981	58.54
898.151	56.49
898.322	29.87
898.492	11.43
898.662	52.39
898.832	9.39
899.003	48.3
899.173	-2.9
899.343	-15.19
899.513	-72.53
