Data from USB4F104151__62__14-30-10-604.txt Node

Date: Thu Mar 13 14:30:10 EDT 2025
User: louis
Spectrometer: USB4F10415
Trigger mode: 4
Integration Time (sec): 2.500000E-2
Scans to average: 1
Electric dark correction enabled: true
Nonlinearity correction enabled: false
Boxcar width: 0
XAxis mode: Wavelengths
Number of Pixels in Spectrum: 3648
>>>>>Begin Spectral Data<<<<<
178.204	-99.84
178.424	-99.84
178.644	-99.84
178.864	-169.47
179.084	-189.95
179.304	25.09
179.524	-34.3
179.744	8.7
179.964	37.38
180.184	2.56
180.404	-5.63
180.624	4.61
180.844	25.09
181.064	-97.79
181.283	8.7
181.503	16.9
181.723	8.7
181.943	-108.03
182.163	47.62
182.383	6.66
182.602	-15.87
182.822	35.33
183.042	-11.78
183.262	41.47
183.482	-9.73
183.701	35.33
183.921	14.85
184.141	-58.88
184.361	72.19
184.58	-1.54
184.8	53.76
185.02	47.62
185.239	16.9
185.459	45.57
185.679	55.81
185.898	12.8
186.118	12.8
186.338	-30.21
186.557	57.86
186.777	14.85
186.997	57.86
187.216	14.85
187.436	113.15
187.655	6.66
187.875	18.94
188.095	57.86
188.314	94.72
188.534	55.81
188.753	51.71
188.973	100.86
189.192	80.38
189.412	-1.54
189.631	23.04
189.851	16.9
190.07	25.09
190.29	-3.58
190.509	-22.02
190.729	14.85
190.948	66.05
191.168	182.78
191.387	-34.3
191.607	49.66
191.826	41.47
192.045	18.94
192.265	74.24
192.484	6.66
192.704	39.42
192.923	-13.82
193.142	88.57
193.362	55.81
193.581	98.81
193.8	82.43
194.02	47.62
194.239	25.09
194.458	59.9
194.678	16.9
194.897	80.38
195.116	70.14
195.335	80.38
195.555	23.04
195.774	37.38
195.993	74.24
196.212	31.23
196.432	0.51
196.651	14.85
196.87	-71.17
197.089	80.38
197.308	72.19
197.528	41.47
197.747	-91.65
197.966	-9.73
198.185	25.09
198.404	-32.26
198.623	66.05
198.842	-34.3
199.062	74.24
199.281	-1.54
199.5	-26.11
199.719	0.51
199.938	-26.11
200.157	33.28
200.376	80.38
200.595	23.04
200.814	68.09
201.033	68.09
201.252	43.52
201.471	-17.92
201.69	49.66
201.909	31.23
202.128	88.57
202.347	23.04
202.566	47.62
202.785	-15.87
203.004	78.33
203.223	53.76
203.442	4.61
203.661	35.33
203.879	-22.02
204.098	74.24
204.317	14.85
204.536	8.7
204.755	39.42
204.974	41.47
205.193	-9.73
205.411	131.58
205.63	47.62
205.849	16.9
206.068	-26.11
206.287	-50.69
206.505	27.14
206.724	-30.21
206.943	-17.92
207.162	-24.06
207.381	-67.07
207.599	49.66
207.818	-40.45
208.037	-50.69
208.255	-42.5
208.474	31.23
208.693	88.57
208.911	8.7
209.13	10.75
209.349	39.42
209.567	14.85
209.786	31.23
210.005	47.62
210.223	-60.93
210.442	-13.82
210.661	-1.54
210.879	6.66
211.098	59.9
211.316	10.75
211.535	96.77
211.753	25.09
211.972	27.14
212.191	-7.68
212.409	-1.54
212.628	53.76
212.846	43.52
213.065	23.04
213.283	55.81
213.502	0.51
213.72	-15.87
213.938	-11.78
214.157	72.19
214.375	-42.5
214.594	37.38
214.812	72.19
215.031	53.76
215.249	25.09
215.467	33.28
215.686	14.85
215.904	76.29
216.122	27.14
216.341	76.29
216.559	78.33
216.778	2.56
216.996	117.25
217.214	25.09
217.432	49.66
217.651	-9.73
217.869	6.66
218.087	-50.69
218.306	-50.69
218.524	55.81
218.742	16.9
218.96	20.99
219.179	43.52
219.397	35.33
219.615	92.67
219.833	16.9
220.051	-26.11
220.27	64
220.488	2.56
220.706	6.66
220.924	-3.58
221.142	-19.97
221.36	25.09
221.578	41.47
221.796	68.09
222.015	-9.73
222.233	-15.87
222.451	59.9
222.669	31.23
222.887	55.81
223.105	49.66
223.323	23.04
223.541	-50.69
223.759	72.19
223.977	-11.78
224.195	41.47
224.413	2.56
224.631	20.99
224.849	6.66
225.067	29.18
225.285	82.43
225.503	37.38
225.721	-34.3
225.939	100.86
226.157	-34.3
226.375	129.53
226.592	-28.16
226.81	49.66
227.028	59.9
227.246	41.47
227.464	51.71
227.682	6.66
227.9	117.25
228.117	20.99
228.335	-22.02
228.553	12.8
228.771	-26.11
228.989	10.75
229.206	82.43
229.424	80.38
229.642	49.66
229.86	39.42
230.077	72.19
230.295	-32.26
230.513	47.62
230.731	51.71
230.948	55.81
231.166	72.19
231.384	14.85
231.601	-26.11
231.819	18.94
232.037	12.8
232.254	-42.5
232.472	80.38
232.689	66.05
232.907	16.9
233.125	43.52
233.342	14.85
233.56	-34.3
233.777	74.24
233.995	4.61
234.213	55.81
234.43	20.99
234.648	39.42
234.865	-17.92
235.083	23.04
235.3	-19.97
235.518	82.43
235.735	47.62
235.953	53.76
236.17	-13.82
236.388	-9.73
236.605	39.42
236.822	109.05
237.04	88.57
237.257	94.72
237.475	47.62
237.692	39.42
237.909	0.51
238.127	41.47
238.344	96.77
238.562	61.95
238.779	14.85
238.996	-13.82
239.214	37.38
239.431	76.29
239.648	-5.63
239.865	-1.54
240.083	23.04
240.3	-40.45
240.517	-24.06
240.735	-40.45
240.952	74.24
241.169	45.57
241.386	55.81
241.603	84.48
241.821	-26.11
242.038	123.39
242.255	64
242.472	20.99
242.689	57.86
242.907	23.04
243.124	14.85
243.341	55.81
243.558	-9.73
243.775	-17.92
243.992	-17.92
244.209	31.23
244.426	123.39
244.643	6.66
244.86	-44.54
245.078	111.1
245.295	61.95
245.512	-3.58
245.729	39.42
245.946	25.09
246.163	37.38
246.38	-1.54
246.597	53.76
246.814	43.52
247.031	14.85
247.248	-15.87
247.464	-19.97
247.681	14.85
247.898	49.66
248.115	76.29
248.332	-28.16
248.549	-48.64
248.766	70.14
248.983	76.29
249.2	33.28
249.417	115.2
249.633	6.66
249.85	16.9
250.067	27.14
250.284	14.85
250.501	51.71
250.717	-1.54
250.934	47.62
251.151	-1.54
251.368	6.66
251.585	55.81
251.801	6.66
252.018	66.05
252.235	66.05
252.451	18.94
252.668	70.14
252.885	64
253.102	39.42
253.318	23.04
253.535	64
253.752	-7.68
253.968	86.53
254.185	31.23
254.401	41.47
254.618	-1.54
254.835	-5.63
255.051	90.62
255.268	-34.3
255.484	96.77
255.701	31.23
255.917	55.81
256.134	14.85
256.351	37.38
256.567	31.23
256.784	27.14
257	14.85
257.217	23.04
257.433	78.33
257.65	113.15
257.866	-11.78
258.082	0.51
258.299	37.38
258.515	33.28
258.732	14.85
258.948	-26.11
259.165	-42.5
259.381	27.14
259.597	47.62
259.814	16.9
260.03	10.75
260.246	113.15
260.463	29.18
260.679	14.85
260.895	39.42
261.112	47.62
261.328	64
261.544	29.18
261.761	55.81
261.977	76.29
262.193	10.75
262.409	8.7
262.626	43.52
262.842	66.05
263.058	18.94
263.274	-75.26
263.49	-15.87
263.707	55.81
263.923	66.05
264.139	-46.59
264.355	33.28
264.571	72.19
264.787	-9.73
265.004	43.52
265.22	55.81
265.436	8.7
265.652	33.28
265.868	45.57
266.084	25.09
266.3	57.86
266.516	6.66
266.732	-42.5
266.948	57.86
267.164	-7.68
267.38	39.42
267.596	14.85
267.812	137.73
268.028	39.42
268.244	41.47
268.46	-38.4
268.676	-28.16
268.892	61.95
269.108	-7.68
269.324	-24.06
269.54	-7.68
269.756	104.96
269.972	-5.63
270.188	125.44
270.403	2.56
270.619	-75.26
270.835	31.23
271.051	57.86
271.267	70.14
271.483	-58.88
271.698	0.51
271.914	39.42
272.13	80.38
272.346	-5.63
272.562	25.09
272.777	80.38
272.993	23.04
273.209	18.94
273.425	45.57
273.64	41.47
273.856	72.19
274.072	25.09
274.287	18.94
274.503	66.05
274.719	72.19
274.934	47.62
275.15	-30.21
275.366	6.66
275.581	96.77
275.797	64
276.012	53.76
276.228	33.28
276.444	43.52
276.659	55.81
276.875	35.33
277.09	104.96
277.306	4.61
277.521	51.71
277.737	0.51
277.952	72.19
278.168	-9.73
278.383	113.15
278.599	43.52
278.814	31.23
279.03	16.9
279.245	47.62
279.461	29.18
279.676	90.62
279.892	-30.21
280.107	-65.02
280.322	2.56
280.538	20.99
280.753	51.71
280.969	47.62
281.184	16.9
281.399	147.97
281.615	16.9
281.83	64
282.045	2.56
282.26	20.99
282.476	-26.11
282.691	33.28
282.906	59.9
283.122	31.23
283.337	4.61
283.552	74.24
283.767	41.47
283.983	33.28
284.198	35.33
284.413	-34.3
284.628	-44.54
284.843	47.62
285.058	39.42
285.274	49.66
285.489	25.09
285.704	-9.73
285.919	10.75
286.134	47.62
286.349	80.38
286.564	55.81
286.779	145.92
286.995	-26.11
287.21	4.61
287.425	80.38
287.64	33.28
287.855	68.09
288.07	-36.35
288.285	6.66
288.5	57.86
288.715	72.19
288.93	18.94
289.145	14.85
289.36	129.53
289.575	-15.87
289.79	84.48
290.004	-30.21
290.219	72.19
290.434	-50.69
290.649	23.04
290.864	80.38
291.079	33.28
291.294	47.62
291.509	-5.63
291.724	6.66
291.938	33.28
292.153	74.24
292.368	18.94
292.583	74.24
292.798	96.77
293.012	39.42
293.227	18.94
293.442	68.09
293.657	125.44
293.871	47.62
294.086	82.43
294.301	127.49
294.516	64
294.73	-1.54
294.945	8.7
295.16	2.56
295.374	41.47
295.589	104.96
295.804	14.85
296.018	82.43
296.233	27.14
296.447	82.43
296.662	-24.06
296.877	23.04
297.091	-9.73
297.306	64
297.52	-17.92
297.735	10.75
297.949	78.33
298.164	107.01
298.378	-58.88
298.593	-67.07
298.807	33.28
299.022	41.47
299.236	55.81
299.451	51.71
299.665	-15.87
299.88	14.85
300.094	25.09
300.309	59.9
300.523	39.42
300.737	4.61
300.952	47.62
301.166	35.33
301.381	80.38
301.595	-17.92
301.809	39.42
302.024	-9.73
302.238	6.66
302.452	74.24
302.667	12.8
302.881	96.77
303.095	78.33
303.309	27.14
303.524	39.42
303.738	23.04
303.952	-22.02
304.166	16.9
304.381	-75.26
304.595	61.95
304.809	-1.54
305.023	31.23
305.237	47.62
305.452	88.57
305.666	27.14
305.88	33.28
306.094	70.14
306.308	74.24
306.522	86.53
306.736	31.23
306.95	49.66
307.164	39.42
307.379	2.56
307.593	72.19
307.807	64
308.021	29.18
308.235	43.52
308.449	47.62
308.663	88.57
308.877	170.49
309.091	39.42
309.305	92.67
309.519	31.23
309.733	43.52
309.947	2.56
310.161	102.91
310.374	64
310.588	39.42
310.802	6.66
311.016	55.81
311.23	31.23
311.444	20.99
311.658	0.51
311.872	57.86
312.085	-9.73
312.299	64
312.513	6.66
312.727	51.71
312.941	6.66
313.154	35.33
313.368	-17.92
313.582	74.24
313.796	78.33
314.009	31.23
314.223	68.09
314.437	-7.68
314.651	35.33
314.864	-13.82
315.078	-1.54
315.292	31.23
315.505	49.66
315.719	39.42
315.933	41.47
316.146	25.09
316.36	-17.92
316.573	55.81
316.787	80.38
317.001	49.66
317.214	-50.69
317.428	2.56
317.641	47.62
317.855	53.76
318.068	68.09
318.282	68.09
318.495	133.63
318.709	14.85
318.922	31.23
319.136	74.24
319.349	96.77
319.563	51.71
319.776	8.7
319.99	39.42
320.203	72.19
320.417	-11.78
320.63	14.85
320.843	84.48
321.057	100.86
321.27	47.62
321.483	129.53
321.697	51.71
321.91	12.8
322.124	-7.68
322.337	82.43
322.55	76.29
322.763	18.94
322.977	35.33
323.19	-73.21
323.403	23.04
323.617	-42.5
323.83	100.86
324.043	80.38
324.256	84.48
324.469	-17.92
324.683	80.38
324.896	-46.59
325.109	31.23
325.322	25.09
325.535	59.9
325.748	76.29
325.962	-5.63
326.175	-26.11
326.388	113.15
326.601	68.09
326.814	80.38
327.027	55.81
327.24	23.04
327.453	-75.26
327.666	55.81
327.879	33.28
328.092	41.47
328.305	29.18
328.518	31.23
328.731	55.81
328.944	72.19
329.157	96.77
329.37	10.75
329.583	64
329.796	96.77
330.009	-32.26
330.222	31.23
330.435	47.62
330.648	51.71
330.861	115.2
331.073	84.48
331.286	113.15
331.499	10.75
331.712	14.85
331.925	14.85
332.138	74.24
332.35	61.95
332.563	47.62
332.776	90.62
332.989	4.61
333.202	41.47
333.414	6.66
333.627	41.47
333.84	49.66
334.053	88.57
334.265	10.75
334.478	-1.54
334.691	23.04
334.903	31.23
335.116	-38.4
335.329	70.14
335.541	29.18
335.754	70.14
335.966	41.47
336.179	-22.02
336.392	59.9
336.604	-7.68
336.817	59.9
337.029	31.23
337.242	18.94
337.454	14.85
337.667	92.67
337.88	131.58
338.092	39.42
338.305	-13.82
338.517	0.51
338.729	14.85
338.942	64
339.154	-26.11
339.367	20.99
339.579	57.86
339.792	31.23
340.004	61.95
340.217	-15.87
340.429	55.81
340.641	-1.54
340.854	66.05
341.066	88.57
341.278	-22.02
341.491	137.73
341.703	80.38
341.915	6.66
342.128	96.77
342.34	0.51
342.552	68.09
342.764	84.48
342.977	41.47
343.189	14.85
343.401	74.24
343.613	2.56
343.826	64
344.038	31.23
344.25	23.04
344.462	10.75
344.674	2.56
344.886	31.23
345.099	96.77
345.311	98.81
345.523	27.14
345.735	12.8
345.947	39.42
346.159	88.57
346.371	25.09
346.583	96.77
346.795	121.34
347.007	8.7
347.219	66.05
347.431	-9.73
347.643	76.29
347.855	18.94
348.067	96.77
348.279	25.09
348.491	43.52
348.703	27.14
348.915	6.66
349.127	18.94
349.339	39.42
349.551	-15.87
349.763	121.34
349.975	76.29
350.187	119.29
350.399	10.75
350.61	88.57
350.822	35.33
351.034	25.09
351.246	72.19
351.458	98.81
351.669	20.99
351.881	117.25
352.093	145.92
352.305	88.57
352.517	100.86
352.728	14.85
352.94	4.61
353.152	-26.11
353.363	-7.68
353.575	88.57
353.787	96.77
353.999	55.81
354.21	80.38
354.422	121.34
354.633	-5.63
354.845	14.85
355.057	23.04
355.268	51.71
355.48	55.81
355.692	57.86
355.903	47.62
356.115	100.86
356.326	51.71
356.538	102.91
356.749	80.38
356.961	96.77
357.172	6.66
357.384	49.66
357.595	88.57
357.807	27.14
358.018	55.81
358.23	-17.92
358.441	66.05
358.653	113.15
358.864	-7.68
359.075	-65.02
359.287	88.57
359.498	72.19
359.709	-11.78
359.921	70.14
360.132	6.66
360.344	41.47
360.555	78.33
360.766	88.57
360.977	59.9
361.189	82.43
361.4	33.28
361.611	47.62
361.823	186.88
362.034	129.53
362.245	74.24
362.456	59.9
362.667	39.42
362.879	-7.68
363.09	0.51
363.301	92.67
363.512	39.42
363.723	8.7
363.935	33.28
364.146	47.62
364.357	-7.68
364.568	64
364.779	33.28
364.99	82.43
365.201	-22.02
365.412	72.19
365.623	-7.68
365.834	39.42
366.045	39.42
366.256	131.58
366.467	90.62
366.678	57.86
366.889	25.09
367.1	31.23
367.311	74.24
367.522	64
367.733	29.18
367.944	80.38
368.155	39.42
368.366	29.18
368.577	131.58
368.788	96.77
368.999	27.14
369.209	57.86
369.42	115.2
369.631	51.71
369.842	66.05
370.053	41.47
370.264	68.09
370.474	117.25
370.685	33.28
370.896	31.23
371.107	113.15
371.317	129.53
371.528	25.09
371.739	88.57
371.95	61.95
372.16	6.66
372.371	10.75
372.582	47.62
372.792	72.19
373.003	145.92
373.214	20.99
373.424	51.71
373.635	-40.45
373.846	100.86
374.056	49.66
374.267	37.38
374.477	51.71
374.688	14.85
374.898	-7.68
375.109	18.94
375.319	92.67
375.53	188.93
375.74	49.66
375.951	27.14
376.161	49.66
376.372	72.19
376.582	39.42
376.793	96.77
377.003	68.09
377.214	16.9
377.424	41.47
377.635	33.28
377.845	61.95
378.055	123.39
378.266	27.14
378.476	35.33
378.686	82.43
378.897	104.96
379.107	18.94
379.317	76.29
379.528	45.57
379.738	139.77
379.948	-42.5
380.158	174.59
380.369	66.05
380.579	39.42
380.789	14.85
380.999	80.38
381.21	23.04
381.42	98.81
381.63	25.09
381.84	55.81
382.05	41.47
382.261	59.9
382.471	27.14
382.681	74.24
382.891	27.14
383.101	57.86
383.311	-22.02
383.521	14.85
383.731	86.53
383.941	133.63
384.151	18.94
384.361	76.29
384.571	145.92
384.781	70.14
384.991	139.77
385.201	107.01
385.411	119.29
385.621	27.14
385.831	-19.97
386.041	27.14
386.251	12.8
386.461	74.24
386.671	80.38
386.881	55.81
387.091	33.28
387.301	61.95
387.511	104.96
387.72	88.57
387.93	39.42
388.14	-5.63
388.35	25.09
388.56	84.48
388.769	113.15
388.979	76.29
389.189	39.42
389.399	72.19
389.609	98.81
389.818	129.53
390.028	109.05
390.238	90.62
390.447	-9.73
390.657	131.58
390.867	92.67
391.076	47.62
391.286	102.91
391.496	104.96
391.705	33.28
391.915	115.2
392.125	80.38
392.334	80.38
392.544	109.05
392.753	117.25
392.963	104.96
393.172	125.44
393.382	39.42
393.591	137.73
393.801	31.23
394.01	98.81
394.22	107.01
394.429	61.95
394.639	80.38
394.848	158.21
395.058	6.66
395.267	119.29
395.477	82.43
395.686	88.57
395.895	137.73
396.105	186.88
396.314	80.38
396.524	113.15
396.733	-7.68
396.942	64
397.152	109.05
397.361	98.81
397.57	139.77
397.78	47.62
397.989	82.43
398.198	121.34
398.407	104.96
398.617	47.62
398.826	74.24
399.035	84.48
399.244	190.97
399.453	104.96
399.663	107.01
399.872	182.78
400.081	164.35
400.29	182.78
400.499	150.01
400.708	104.96
400.917	84.48
401.127	156.16
401.336	137.73
401.545	164.35
401.754	133.63
401.963	104.96
402.172	84.48
402.381	119.29
402.59	133.63
402.799	117.25
403.008	145.92
403.217	158.21
403.426	104.96
403.635	96.77
403.844	162.3
404.053	139.77
404.262	137.73
404.471	279.04
404.68	174.59
404.888	190.97
405.097	129.53
405.306	150.01
405.515	100.86
405.724	195.07
405.933	305.66
406.142	236.03
406.35	299.52
406.559	178.69
406.768	190.97
406.977	207.36
407.185	256.51
407.394	236.03
407.603	221.69
407.812	276.99
408.02	270.84
408.229	276.99
408.438	276.99
408.646	256.51
408.855	340.47
409.064	358.91
409.272	311.8
409.481	295.42
409.69	297.47
409.898	342.52
410.107	379.39
410.315	387.58
410.524	412.15
410.733	455.16
410.941	451.07
411.15	467.45
411.358	514.55
411.567	498.17
411.775	492.02
411.984	436.73
412.192	506.36
412.401	469.5
412.609	494.07
412.818	596.47
413.026	600.57
413.234	600.57
413.443	594.42
413.651	629.24
413.86	748.02
414.068	752.12
414.276	715.25
414.485	760.31
414.693	840.18
414.901	879.09
415.11	895.47
415.318	948.72
415.526	885.23
415.734	860.66
415.943	913.91
416.151	1008.11
416.359	1014.26
416.567	1055.22
416.776	1124.85
416.984	1227.25
417.192	1217.01
417.4	1182.19
417.608	1235.44
417.817	1169.9
418.025	1268.2
418.233	1444.33
418.441	1376.75
418.649	1407.47
418.857	1528.3
419.065	1624.55
419.273	1462.76
419.481	1612.26
419.689	1851.88
419.897	1780.2
420.105	1815.01
420.313	1890.79
420.521	1962.47
420.729	1995.23
420.937	2054.62
421.145	2179.55
421.353	2144.74
421.561	2370.01
421.769	2343.39
421.977	2449.88
422.185	2417.12
422.393	2669.02
422.601	2744.79
422.809	2728.41
423.017	2689.49
423.224	2957.78
423.432	2941.4
423.64	2990.55
423.848	3234.25
424.056	3172.82
424.263	3402.19
424.471	3451.34
424.679	3561.93
424.887	3674.57
425.094	3850.69
425.302	3883.46
425.51	3805.64
425.718	4037.06
425.925	4172.22
426.133	4303.29
426.341	4594.11
426.548	4659.64
426.756	4710.84
426.964	4798.9
427.171	4942.26
427.379	5124.53
427.586	5071.28
427.794	5398.96
428.001	5515.69
428.209	5730.73
428.417	5874.09
428.624	6125.99
428.832	6277.54
429.039	6187.43
429.247	6320.54
429.454	6785.43
429.662	7178.64
429.869	6715.8
430.076	7301.52
430.284	6959.51
430.491	7330.19
430.699	7674.25
430.906	7764.36
431.114	7872.9
431.321	8292.74
431.528	8350.08
431.736	8808.83
431.943	9173.36
432.15	8966.52
432.358	9056.63
432.565	9601.39
432.772	9316.72
432.979	9908.58
433.187	10152.29
433.394	10303.84
433.601	10836.31
433.808	10942.81
434.016	10785.12
434.223	11014.49
434.43	11745.61
434.637	11778.38
434.844	12353.86
435.052	12470.59
435.259	12548.42
435.466	12583.23
435.673	12577.09
435.88	13340.98
436.087	13850.92
436.294	14018.86
436.501	13781.29
436.708	14084.39
436.915	14426.4
437.122	15026.46
437.329	15055.13
437.537	15378.71
437.743	15767.82
437.95	15558.93
438.157	16699.65
438.364	16935.17
438.571	16931.07
438.778	17150.2
438.985	18462.95
439.192	17752.31
439.399	18305.26
439.606	17903.85
439.813	18925.79
440.02	20211.92
440.227	19902.67
440.433	19548.37
440.64	20508.87
440.847	20037.84
441.054	20486.34
441.261	21807.28
441.467	21725.36
441.674	22137.01
441.881	22888.61
442.088	22864.04
442.294	22618.28
442.501	23128.22
442.708	23632.02
442.914	24494.22
443.121	25368.7
443.328	24625.29
443.534	26620.01
443.741	26054.77
443.948	25272.45
444.154	27267.17
444.361	27326.56
444.568	27353.18
444.774	27697.24
444.981	27844.7
445.187	28393.55
445.394	29855.8
445.6	29491.26
445.807	32464.91
446.013	30629.93
446.22	31287.33
446.426	32090.13
446.633	32880.65
446.839	33701.89
447.046	32444.43
447.252	34314.23
447.459	33927.16
447.665	33736.7
447.871	35551.2
448.078	37146.57
448.284	35246.05
448.491	36104.15
448.697	37521.35
448.903	38295.48
449.11	38291.38
449.316	37724.1
449.522	38897.58
449.728	39870.37
449.935	40167.32
450.141	39815.07
450.347	40621.97
450.553	39425.96
450.76	39806.88
450.966	41152.4
451.172	40456.09
451.378	41760.64
451.584	40963.98
451.791	42094.46
451.997	41750.4
452.203	42733.43
452.409	42678.13
452.615	41967.49
452.821	40724.37
453.027	40193.95
453.233	42680.18
453.44	40654.74
453.646	41129.87
453.852	41291.66
454.058	42536.82
454.264	40732.56
454.47	41799.55
454.676	40734.61
454.882	42229.63
455.088	38404.02
455.294	38983.6
455.5	39718.82
455.705	39972.77
455.911	38557.62
456.117	37476.29
456.323	36751.31
456.529	35016.68
456.735	36712.4
456.941	36022.23
457.147	35293.16
457.352	34267.13
457.558	33656.83
457.764	33337.35
457.97	32804.88
458.176	32145.43
458.381	32262.16
458.587	30681.13
458.793	30718
458.999	29237.31
459.204	31578.14
459.41	30568.49
459.616	28403.79
459.821	28536.91
460.027	28395.6
460.233	27592.79
460.438	26142.83
460.644	26630.25
460.85	25114.75
461.055	24924.29
461.261	24866.95
461.466	22968.48
461.672	22345.9
461.878	23709.85
462.083	22354.09
462.289	21901.49
462.494	21723.32
462.7	20738.24
462.905	19894.48
463.111	20889.79
463.316	20961.47
463.522	20314.31
463.727	20302.03
463.932	20531.4
464.138	20205.77
464.343	20302.03
464.549	19716.31
464.754	20338.89
464.959	20203.72
465.165	19724.5
465.37	18979.04
465.575	18657.51
465.781	19362.01
465.986	19316.95
466.191	18544.87
466.397	17959.15
466.602	17254.65
466.807	17889.52
467.012	17823.98
467.218	17836.27
467.423	17643.76
467.628	17651.95
467.833	18553.06
468.038	17737.97
468.244	17205.5
468.449	18147.56
468.654	17258.74
468.859	17236.22
469.064	16929.02
469.269	16529.67
469.474	16677.12
469.679	16943.36
469.885	16498.95
470.09	16435.46
470.295	16611.59
470.5	16142.6
470.705	16335.11
470.91	15790.35
471.115	15685.9
471.32	15810.83
471.525	15853.84
471.73	15216.92
471.935	15186.2
472.139	15112.47
472.344	14969.12
472.549	14756.13
472.754	14629.15
472.959	14446.88
473.164	13986.09
473.369	14260.52
473.574	14590.24
473.778	14235.94
473.983	13998.38
474.188	14078.25
474.393	13261.11
474.598	13441.33
474.802	13394.23
475.007	13250.87
475.212	13263.16
475.417	12884.28
475.621	12878.14
475.826	12781.88
476.031	12456.26
476.235	12294.47
476.44	12624.19
476.645	12210.5
476.849	12409.15
477.054	12124.49
477.259	11841.87
477.463	12108.1
477.668	11614.54
477.872	11692.37
478.077	11589.97
478.282	11360.59
478.486	11256.15
478.691	11127.13
478.895	11190.61
479.1	11282.77
479.304	11051.35
479.509	10592.61
479.713	11006.3
479.918	10596.7
480.122	10707.29
480.326	10883.42
480.531	10684.76
480.735	10322.27
480.94	10510.69
481.144	10697.05
481.348	10381.67
481.553	10320.23
481.757	9976.17
481.961	10529.12
482.166	10594.65
482.37	10428.77
482.574	10246.5
482.778	10135.91
482.983	10271.08
483.187	10303.84
483.391	10234.21
483.595	10295.65
483.8	9869.67
484.004	10297.7
484.208	10299.75
484.412	10146.15
484.616	10250.6
484.821	10223.97
485.025	9998.7
485.229	10185.06
485.433	10070.37
485.637	10338.66
485.841	10008.94
486.045	10248.55
486.249	10101.09
486.453	9918.82
486.657	10174.82
486.861	9998.7
487.065	9888.11
487.269	9841
487.473	9988.46
487.677	10158.44
487.881	10264.93
488.085	9787.75
488.289	9797.99
488.493	9978.22
488.697	10156.39
488.901	9990.5
489.105	10013.03
489.309	10010.98
489.512	10271.08
489.716	10035.56
489.92	10117.48
490.124	10058.09
490.328	10291.55
490.531	10172.77
490.735	10439.01
490.939	10109.29
491.143	10205.54
491.346	10346.85
491.55	10342.75
491.754	10305.89
491.958	10305.89
492.161	10262.88
492.365	10469.73
492.569	10582.37
492.772	10533.22
492.976	10465.63
493.18	10602.85
493.383	10901.85
493.587	10658.14
493.79	10932.57
493.994	10871.13
494.197	10838.36
494.401	10864.99
494.605	10971.48
494.808	11002.2
495.012	11114.84
495.215	11264.34
495.419	11266.39
495.622	11082.07
495.825	11417.94
496.029	11436.37
496.232	11784.52
496.436	11536.72
496.639	11870.54
496.843	11764.04
497.046	11854.16
497.249	11909.45
497.453	12171.59
497.656	12183.88
497.859	12187.97
498.063	12263.75
498.266	12675.39
498.469	12532.03
498.673	12845.37
498.876	12824.89
499.079	12951.87
499.282	12835.13
499.485	13121.85
499.689	13064.5
499.892	13465.91
500.095	13533.49
500.298	13750.57
500.501	13809.97
500.705	14014.76
500.908	14186.79
501.111	14336.29
501.314	14547.23
501.517	14635.3
501.72	14711.07
501.923	14674.21
502.126	14958.88
502.329	15190.3
502.532	15132.95
502.735	15489.3
502.938	15454.48
503.141	15468.82
503.344	16001.29
503.547	16034.06
503.75	15991.05
503.953	16441.61
504.156	16644.35
504.359	16720.13
504.562	16447.75
504.765	17131.77
504.968	17137.91
505.17	17383.67
505.373	17572.08
505.576	17705.2
505.779	17832.18
505.982	17916.14
506.185	18450.66
506.387	18442.47
506.59	18579.68
506.793	19169.5
506.996	18901.22
507.198	19568.85
507.401	19292.38
507.604	19224.79
507.807	19753.17
508.009	20074.7
508.212	20101.33
508.415	20273.35
508.617	20297.93
508.82	20555.97
509.022	20472.01
509.225	21094.59
509.428	21323.96
509.63	21573.81
509.833	21328.06
510.035	22081.71
510.238	21856.43
510.44	22313.13
510.643	22200.49
510.845	22689.96
511.048	22436.01
511.25	22935.71
511.453	23099.55
511.655	23963.79
511.858	23703.7
512.06	24127.63
512.262	24000.66
512.465	24068.24
512.667	24455.31
512.87	24877.19
513.072	24653.96
513.274	25266.3
513.477	25493.63
513.679	25702.52
513.881	26009.72
514.084	26046.58
514.286	26101.87
514.488	26245.23
514.69	26706.02
514.893	26933.35
515.095	27101.28
515.297	27336.8
515.499	27410.53
515.701	27850.84
515.904	28229.71
516.106	28291.15
516.308	28561.48
516.51	28586.06
516.712	28817.48
516.914	29141.06
517.116	29773.88
517.318	29765.69
517.52	29816.89
517.722	29698.11
517.925	30375.98
518.127	30548.01
518.329	30957.61
518.531	30273.59
518.733	31377.44
518.935	31168.55
519.136	31182.88
519.338	31991.83
519.54	31959.06
519.742	31850.52
519.944	32503.82
520.146	32657.42
520.348	32817.16
520.55	32901.13
520.752	33204.23
520.954	33323.01
521.155	33443.84
521.357	33871.87
521.559	33884.15
521.761	34058.23
521.963	34177.01
522.164	34308.08
522.366	34441.2
522.568	34758.64
522.77	34758.64
522.971	35614.69
523.173	35071.98
523.375	35436.52
523.576	35647.46
523.778	35229.67
523.98	35889.12
524.181	36048.86
524.383	35801.05
524.584	36222.94
524.786	36345.81
524.988	35704.8
525.189	36403.16
525.391	36761.55
525.592	36560.85
525.794	36763.6
525.995	36407.25
526.197	36521.94
526.398	37035.98
526.6	36786.13
526.801	37541.83
527.003	37138.38
527.204	37627.84
527.406	37650.37
527.607	37537.73
527.808	37334.98
528.01	37027.79
528.211	37658.56
528.412	37945.28
528.614	37679.04
528.815	37550.02
529.016	38299.58
529.218	37328.84
529.419	37560.26
529.62	37574.59
529.822	37644.23
530.023	37312.45
530.224	37777.34
530.425	37537.73
530.626	37285.83
530.828	37377.99
531.029	37752.77
531.23	37453.76
531.431	37564.35
531.632	37660.61
531.833	37408.71
532.035	37568.45
532.236	37644.23
532.437	37941.18
532.638	37173.19
532.839	37476.29
533.04	37375.94
533.241	37201.86
533.442	37607.36
533.643	37095.37
533.844	37169.1
534.045	37638.08
534.246	36650.96
534.447	37361.61
534.648	37103.56
534.849	37449.67
535.05	36806.61
535.251	36876.24
535.451	37165
535.652	36974.54
535.853	36636.62
536.054	36835.28
536.255	37009.36
536.456	36546.51
536.657	37318.6
536.857	36726.74
537.058	36581.33
537.259	36890.57
537.46	36714.45
537.66	36243.41
537.861	36589.52
538.062	36704.21
538.263	36454.36
538.463	36300.76
538.664	36247.51
538.865	36538.32
539.065	36657.1
539.266	35858.4
539.466	36718.54
539.667	35903.45
539.868	36173.78
540.068	36132.82
540.269	36052.95
540.469	36562.9
540.67	36098.01
540.87	35973.08
541.071	36149.21
541.271	36071.39
541.472	35893.21
541.672	36028.38
541.873	35497.95
542.073	35526.63
542.274	36351.96
542.474	35432.42
542.675	35731.42
542.875	36259.8
543.075	35913.69
543.276	35397.6
543.476	35956.7
543.676	35518.43
543.877	35784.67
544.077	35762.14
544.277	36075.48
544.478	35659.74
544.678	36177.88
544.878	35579.87
545.078	36239.32
545.279	35821.53
545.479	35444.71
545.679	35434.47
545.879	35665.89
546.079	35561.44
546.28	35391.46
546.48	35440.61
546.68	35780.57
546.88	35413.99
547.08	35547.11
547.28	35481.57
547.48	35225.57
547.68	35229.67
547.88	35205.09
548.081	35743.71
548.281	35594.21
548.481	35485.67
548.681	35502.05
548.881	35583.97
549.081	35219.43
549.28	35440.61
549.48	35590.11
549.68	35579.87
549.88	35985.37
550.08	35080.17
550.28	35882.97
550.48	35680.22
550.68	35721.18
550.88	35287.01
551.08	35332.07
551.279	35444.71
551.479	35295.21
551.679	35698.66
551.879	35602.4
552.079	35672.03
552.278	35344.36
552.478	35626.98
552.678	35852.25
552.878	35889.12
553.077	35450.85
553.277	35473.38
553.477	35766.24
553.676	35311.59
553.876	35309.54
554.076	35459.04
554.275	35626.98
554.475	35123.18
554.674	35549.15
554.874	35682.27
555.074	35438.56
555.273	35497.95
555.473	35815.39
555.672	35432.42
555.872	35997.66
556.071	35809.25
556.271	35626.98
556.47	35803.1
556.67	35278.82
556.869	35571.68
557.068	35874.78
557.268	35381.22
557.467	35663.84
557.667	35784.67
557.866	35764.19
558.065	35407.84
558.265	35631.07
558.464	35500
558.663	35964.89
558.863	35397.6
559.062	35964.89
559.261	35446.76
559.461	36288.47
559.66	35379.17
559.859	35686.37
560.058	35829.73
560.258	35614.69
560.457	35530.72
560.656	35870.68
560.855	35074.02
561.054	35854.3
561.253	35530.72
561.453	35805.15
561.652	35389.41
561.851	35878.88
562.05	35596.26
562.249	35534.82
562.448	35704.8
562.647	35534.82
562.846	35696.61
563.045	35305.45
563.244	35332.07
563.443	35852.25
563.642	34840.56
563.841	35475.43
564.04	35119.08
564.239	35626.98
564.438	35022.83
564.637	35233.77
564.836	35155.94
565.035	35278.82
565.234	35246.05
565.432	35205.09
565.631	34963.43
565.83	35110.89
566.029	35135.46
566.228	34969.58
566.427	34902
566.625	34768.88
566.824	34502.64
567.023	35110.89
567.222	34328.56
567.42	34527.22
567.619	34461.68
567.818	34295.8
568.016	34363.38
568.215	34746.35
568.414	34353.14
568.612	34703.34
568.811	34263.03
569.01	34680.81
569.208	33517.57
569.407	34580.46
569.605	33912.83
569.804	33896.44
570.002	33802.24
570.201	34127.86
570.4	33589.25
570.598	33779.71
570.797	33714.17
570.995	33841.15
571.193	33259.52
571.392	33439.75
571.59	33320.96
571.789	33171.46
571.987	33019.91
572.186	33075.21
572.384	32677.9
572.582	33132.55
572.781	33380.35
572.979	32688.14
573.177	32937.99
573.376	33007.62
573.574	32788.49
573.772	32813.07
573.971	32704.52
574.169	32311.31
574.367	32051.22
574.565	32161.81
574.763	32405.52
574.962	32227.35
575.16	31889.43
575.358	32061.46
575.556	31553.57
575.754	31926.3
575.952	31893.53
576.151	31572
576.349	31537.18
576.547	31461.41
576.745	31172.64
576.943	31301.67
577.141	31518.75
577.339	31291.43
577.537	31225.89
577.735	31303.71
577.933	30761
578.131	31031.33
578.329	31002.66
578.527	30705.71
578.725	30980.14
578.923	30779.43
579.121	30525.49
579.319	30795.82
579.516	30685.23
579.714	30543.92
579.912	30269.49
580.11	30183.48
580.308	30099.51
580.506	30150.71
580.704	29569.08
580.901	30038.07
581.099	30081.08
581.297	29556.8
581.495	29562.94
581.692	29913.14
581.89	29528.13
582.088	29855.8
582.285	29347.9
582.483	29450.3
582.681	29456.45
582.878	29321.28
583.076	29050.95
583.274	29341.76
583.471	28713.03
583.669	29143.11
583.866	28764.23
584.064	28829.77
584.262	28377.17
584.459	28616.78
584.657	28704.84
584.854	28737.61
585.052	28168.27
585.249	28594.25
585.447	28762.19
585.644	28172.37
585.841	28217.43
586.039	28135.51
586.236	28082.26
586.434	27965.53
586.631	28172.37
586.828	28035.16
587.026	27930.71
587.223	27856.98
587.42	27572.32
587.618	28049.49
587.815	27240.54
588.012	27418.72
588.21	27203.68
588.407	27725.91
588.604	27185.25
588.801	27009.12
588.999	27375.71
589.196	27064.42
589.393	27039.84
589.59	26869.86
589.787	26962.02
589.984	26882.15
590.182	26884.2
590.379	26658.92
590.576	26624.11
590.773	26904.68
590.97	26943.59
591.167	26734.7
591.364	25825.4
591.561	26312.81
591.758	26159.22
591.955	26198.13
592.152	26509.42
592.349	25972.85
592.546	26204.27
592.743	26351.73
592.94	25854.07
593.137	26073.2
593.334	26339.44
593.531	26122.35
593.727	25880.69
593.924	26353.77
594.121	25544.83
594.318	26028.15
594.515	25731.19
594.712	25880.69
594.908	25469.05
595.105	25536.63
595.302	25333.89
595.499	25792.63
595.696	25325.69
595.892	25270.4
596.089	25761.91
596.286	25479.29
596.482	25204.86
596.679	25104.51
596.876	25372.8
597.072	25294.97
597.269	25313.41
597.466	25280.64
597.662	25403.52
597.859	25546.87
598.055	25294.97
598.252	25127.04
598.448	25155.71
598.645	25196.67
598.841	24799.37
599.038	24914.05
599.234	24885.38
599.431	24785.03
599.627	24928.39
599.824	25383.04
600.02	24936.58
600.217	24977.54
600.413	24948.87
600.609	25184.38
600.806	24774.79
601.002	25041.03
601.198	24869
601.395	24930.44
601.591	24797.32
601.787	24834.18
601.984	24619.14
602.18	25194.62
602.376	24897.67
602.572	24838.28
602.769	24903.81
602.965	24770.69
603.161	24942.72
603.357	25108.61
603.553	24950.92
603.75	24920.2
603.946	24772.74
604.142	25172.1
604.338	24946.82
604.534	24983.68
604.73	24631.43
604.926	24635.53
605.122	25004.16
605.318	24404.11
605.514	24864.9
605.71	24975.49
605.906	24897.67
606.102	24807.56
606.298	25202.82
606.494	25495.67
606.69	24940.68
606.886	25225.34
607.082	24727.69
607.278	25290.88
607.474	25036.93
607.67	25313.41
607.866	24883.33
608.062	25507.96
608.257	25024.64
608.453	25086.08
608.649	25303.17
608.845	25063.55
609.041	25325.69
609.236	25491.58
609.432	25239.68
609.628	25397.37
609.824	24961.16
610.019	25135.23
610.215	25206.91
610.411	25434.24
610.606	25262.21
610.802	25550.97
610.998	25577.59
611.193	25577.59
611.389	25344.13
611.584	25391.23
611.78	25473.15
611.976	25929.84
612.171	25505.91
612.367	25583.74
612.562	25231.49
612.758	25327.74
612.953	25350.27
613.149	25821.3
613.344	25493.63
613.539	25927.8
613.735	25342.08
613.93	25802.87
614.126	25692.28
614.321	25819.25
614.517	25831.54
614.712	25811.06
614.907	25731.19
615.103	25759.86
615.298	25569.4
615.493	26161.26
615.688	25235.58
615.884	26040.43
616.079	25587.83
616.274	25868.41
616.47	25616.51
616.665	25880.69
616.86	25407.61
617.055	25583.74
617.25	25833.59
617.445	25897.08
617.641	25258.11
617.836	25600.12
618.031	25378.94
618.226	25700.47
618.421	25434.24
618.616	25766.01
618.811	25389.18
619.006	25546.87
619.201	25272.45
619.396	25481.34
619.591	24918.15
619.786	25462.91
619.981	25194.62
620.176	25245.82
620.371	24828.04
620.566	24744.07
620.761	24762.5
620.956	25069.7
621.151	24512.65
621.346	24797.32
621.541	24283.28
621.735	24479.88
621.93	24338.57
622.125	24262.8
622.32	24299.66
622.515	24146.06
622.709	23771.29
622.904	23814.29
623.099	23822.48
623.294	23967.89
623.488	23818.39
623.683	23842.96
623.878	23046.3
624.072	23255.2
624.267	23074.98
624.462	23046.3
624.656	23036.06
624.851	23017.63
625.046	22876.32
625.24	23124.13
625.435	22429.87
625.629	22538.41
625.824	22345.9
626.018	22358.19
626.213	21940.4
626.407	22425.77
626.602	21774.52
626.796	22194.35
626.991	22319.28
627.185	21704.88
627.38	21844.15
627.574	21524.66
627.768	21551.29
627.963	21276.86
628.157	21027.01
628.352	21403.83
628.546	20879.55
628.74	21160.13
628.935	20652.23
629.129	20697.28
629.323	20357.32
629.517	20308.17
629.712	20226.25
629.906	20637.89
630.1	19955.92
630.294	20410.57
630.489	20103.37
630.683	20125.9
630.877	19900.62
631.071	19744.98
631.265	19964.11
631.459	19691.73
631.653	19669.2
631.848	19368.15
632.042	19175.64
632.236	19196.12
632.43	19050.72
632.624	19032.29
632.818	19132.64
633.012	18548.96
633.206	18559.2
633.4	18757.86
633.594	18485.48
633.788	18622.69
633.982	18120.94
634.176	18315.5
634.369	18241.77
634.563	18061.55
634.757	18209
634.951	17965.29
635.145	18059.5
635.339	17840.37
635.533	17537.27
635.726	17768.69
635.92	17342.71
636.114	17365.24
636.308	17078.52
636.501	17207.55
636.695	17303.8
636.889	17117.43
637.083	16627.97
637.276	16896.25
637.47	16535.81
637.664	16568.58
637.857	16756.99
638.051	16476.42
638.244	16185.61
638.438	16328.97
638.632	16179.47
638.825	16226.57
639.019	16294.15
639.212	16105.74
639.406	16064.78
639.599	15718.67
639.793	15532.31
639.986	15364.37
640.18	15546.64
640.373	15462.68
640.567	15096.09
640.76	15266.07
640.954	15005.98
641.147	15169.82
641.34	14848.29
641.534	14891.29
641.727	14960.92
641.92	14666.02
642.114	14438.69
642.307	14686.5
642.5	14190.89
642.694	14240.04
642.887	14139.69
643.08	14352.68
643.273	14305.57
643.467	14223.65
643.66	13717.81
643.853	13859.12
644.046	13611.31
644.239	13756.72
644.432	13623.6
644.626	13472.05
644.819	13465.91
645.012	13343.03
645.205	13162.81
645.398	13244.73
645.591	13250.87
645.784	12951.87
645.977	12980.54
646.17	12898.62
646.363	12833.08
646.556	12640.58
646.749	12585.28
646.942	12689.73
647.135	12493.12
647.328	12644.67
647.521	12329.28
647.714	12185.93
647.907	12130.63
648.099	12310.85
648.292	12050.76
648.485	12099.91
648.678	11868.49
648.871	11868.49
649.064	11893.07
649.256	11960.65
649.449	11678.03
649.642	11614.54
649.835	11753.8
650.027	11612.49
650.22	11620.69
650.413	11508.05
650.605	11358.55
650.798	11247.96
650.991	11100.5
651.183	11245.91
651.376	10975.58
651.568	11143.51
651.761	10893.66
651.954	11188.57
652.146	10881.37
652.339	10742.11
652.531	10858.84
652.724	10625.37
652.916	10565.98
653.109	10672.48
653.301	10357.09
653.494	10633.57
653.686	10375.52
653.879	10443.1
654.071	10393.95
654.263	10219.88
654.456	9992.55
654.648	10377.57
654.84	10084.71
655.033	10027.37
655.225	10006.89
655.417	9953.64
655.61	9918.82
655.802	9804.14
655.994	9613.68
656.186	9808.23
656.379	9525.61
656.571	9808.23
656.763	9415.02
656.955	9468.27
657.148	9453.94
657.34	9681.26
657.532	9202.04
657.724	9361.78
657.916	9361.78
658.108	9316.72
658.3	8995.19
658.492	9009.53
658.684	9007.48
658.876	8851.83
659.068	8919.42
659.26	8731
659.452	8778.11
659.644	8839.55
659.836	8690.04
660.028	8831.35
660.22	8642.94
660.412	8583.55
660.604	8550.78
660.796	8501.63
660.988	8413.57
661.18	8475.01
661.372	8262.02
661.563	8450.43
661.755	8202.63
661.947	8178.05
662.139	8155.52
662.331	8188.29
662.522	8003.97
662.714	8001.93
662.906	7862.66
663.097	7979.4
663.289	7862.66
663.481	7895.43
663.673	7788.94
663.864	7727.5
664.056	7516.56
664.247	7731.59
664.439	7397.78
664.631	7563.66
664.822	7692.68
665.014	7655.82
665.205	7473.55
665.397	7518.61
665.588	7526.8
665.78	7362.96
665.971	7408.01
666.163	7293.33
666.354	7369.1
666.546	7096.72
666.737	7014.8
666.929	7119.25
667.12	7004.57
667.311	7109.01
667.503	7051.67
667.694	6924.69
667.885	6857.11
668.077	6994.33
668.268	6740.38
668.459	6738.33
668.651	6846.87
668.842	6902.17
669.033	6758.81
669.224	6721.95
669.416	6654.36
669.607	6920.6
669.798	6562.2
669.989	6728.09
670.18	6599.07
670.371	6547.87
670.563	6470.05
670.754	6488.48
670.945	6529.44
671.136	6498.72
671.327	6396.32
671.518	6300.06
671.709	6310.3
671.9	6152.61
672.091	6162.85
672.282	6338.98
672.473	6158.75
672.664	6179.23
672.855	6142.37
673.046	6062.5
673.237	5994.92
673.428	6035.88
673.619	6101.41
673.809	5968.29
674	6064.55
674.191	5902.76
674.382	5974.44
674.573	6035.88
674.764	6013.35
674.954	5953.96
675.145	5775.78
675.336	5902.76
675.527	5853.61
675.717	5865.89
675.908	5773.74
676.099	5765.54
676.289	5814.7
676.48	5740.97
676.671	5783.98
676.861	5763.5
677.052	5587.37
677.243	5570.99
677.433	5556.65
677.624	5691.82
677.814	5476.78
678.005	5636.52
678.195	5573.03
678.386	5401.01
678.576	5413.29
678.767	5439.92
678.957	5552.56
679.148	5478.83
679.338	5575.08
679.529	5478.83
679.719	5390.77
679.909	5427.63
680.1	5368.24
680.29	5409.2
680.481	5446.06
680.671	5325.23
680.861	5396.91
681.052	5374.38
681.242	5419.44
681.432	5466.54
681.622	5325.23
681.813	5314.99
682.003	5292.46
682.193	5284.27
682.383	5317.04
682.573	5208.5
682.764	5108.15
682.954	5153.2
683.144	5222.83
683.334	5091.76
683.524	5048.75
683.714	5224.88
683.904	5052.85
684.094	5173.68
684.284	5142.96
684.474	5286.32
684.664	5278.13
684.854	5104.05
685.044	4940.21
685.234	5071.28
685.424	4991.41
685.614	5050.8
685.804	5030.32
685.994	4925.88
686.184	5120.43
686.374	5007.8
686.564	4983.22
686.753	5028.28
686.943	4979.12
687.133	4798.9
687.323	4987.32
687.513	4915.64
687.702	4929.97
687.892	4983.22
688.082	4864.44
688.272	5036.47
688.461	4983.22
688.651	4946.36
688.841	4872.63
689.03	4694.46
689.22	4702.65
689.41	4905.4
689.599	4710.84
689.789	4827.57
689.979	4796.85
690.168	4704.7
690.358	4747.7
690.547	4680.12
690.737	4721.08
690.926	4782.52
691.116	4626.87
691.305	4837.81
691.495	4561.34
691.684	4544.95
691.874	4532.67
692.063	4514.24
692.252	4575.67
692.442	4692.41
692.631	4475.32
692.82	4506.04
693.01	4446.65
693.199	4438.46
693.388	4405.69
693.578	4551.1
693.767	4479.42
693.956	4454.84
694.146	4565.43
694.335	4397.5
694.524	4315.58
694.713	4432.32
694.902	4360.64
695.092	4372.93
695.281	4536.76
695.47	4426.17
695.659	4217.28
695.848	4305.34
696.037	4454.84
696.226	4319.68
696.415	4215.23
696.604	4454.84
696.793	4215.23
696.982	4204.99
697.171	4196.8
697.36	4178.37
697.549	4176.32
697.738	4217.28
697.927	4159.94
698.116	4307.39
698.305	4209.09
698.494	4178.37
698.683	4032.96
698.872	4225.47
699.061	4209.09
699.25	4209.09
699.438	4233.66
699.627	4143.55
699.816	4118.98
700.005	4067.78
700.193	4061.63
700.382	4129.22
700.571	4078.02
700.76	4104.64
700.948	4010.43
701.137	3992
701.326	3975.62
701.514	3981.76
701.703	4202.94
701.892	4063.68
702.08	4178.37
702.269	3916.23
702.457	3996.1
702.646	3971.52
702.834	3938.76
703.023	3867.08
703.212	4080.07
703.4	3891.65
703.589	3924.42
703.777	3916.23
703.965	3844.55
704.154	3826.12
704.342	3811.78
704.531	3893.7
704.719	3772.87
704.907	3811.78
705.096	3768.77
705.284	3695.05
705.472	3668.42
705.661	3695.05
705.849	3842.5
706.037	3686.86
706.226	3803.59
706.414	3766.73
706.602	3736.01
706.79	3865.03
706.979	3750.34
707.167	3766.73
707.355	3668.42
707.543	3649.99
707.731	3719.62
707.919	3615.18
708.107	3633.61
708.296	3492.3
708.484	3480.01
708.672	3555.79
708.86	3623.37
709.048	3580.36
709.236	3582.41
709.424	3514.83
709.612	3535.31
709.8	3406.28
709.988	3422.67
710.176	3676.62
710.364	3449.29
710.551	3453.39
710.739	3367.37
710.927	3346.89
711.115	3398.09
711.303	3563.98
711.491	3422.67
711.679	3504.59
711.866	3553.74
712.054	3498.44
712.242	3348.94
712.43	3332.56
712.617	3287.5
712.805	3269.07
712.993	3398.09
713.181	3138
713.368	3394
713.556	3258.83
713.744	3361.23
713.931	3459.53
714.119	3267.02
714.306	3189.2
714.494	3238.35
714.682	3244.49
714.869	3203.54
715.057	3201.49
715.244	3131.86
715.432	3172.82
715.619	3176.91
715.807	3135.95
715.994	3086.8
716.182	3135.95
716.369	3039.7
716.556	3133.9
716.744	2988.5
716.931	3099.09
717.119	3115.47
717.306	3152.34
717.493	3144.14
717.681	3250.64
717.868	3062.23
718.055	2931.16
718.242	3138
718.43	2914.77
718.617	3013.07
718.804	3070.42
718.991	2916.82
719.179	3058.13
719.366	3152.34
719.553	3033.55
719.74	2922.96
719.927	2927.06
720.114	2933.2
720.301	2879.96
720.488	2785.75
720.676	2978.26
720.863	2900.44
721.05	2935.25
721.237	2931.16
721.424	2771.41
721.611	2873.81
721.798	2724.31
721.985	2787.8
722.172	2836.95
722.358	2800.09
722.545	2927.06
722.732	2808.28
722.919	2767.32
723.106	2800.09
723.293	2828.76
723.48	2783.7
723.667	2775.51
723.853	2681.3
724.04	2722.26
724.227	2748.89
724.414	2630.1
724.6	2638.3
724.787	2628.06
724.974	2793.94
725.161	2583
725.347	2679.26
725.534	2628.06
725.72	2642.39
725.907	2654.68
726.094	2591.19
726.28	2574.81
726.467	2824.66
726.653	2531.8
726.84	2578.9
727.027	2775.51
727.213	2636.25
727.4	2759.13
727.586	2544.09
727.773	2535.9
727.959	2570.71
728.145	2458.07
728.332	2564.57
728.518	2595.29
728.705	2546.14
728.891	2550.23
729.077	2521.56
729.264	2501.08
729.45	2429.4
729.636	2525.66
729.823	2496.99
730.009	2554.33
730.195	2515.42
730.382	2437.59
730.568	2490.84
730.754	2329.05
730.94	2408.92
731.126	2433.5
731.313	2410.97
731.499	2345.44
731.685	2537.95
731.871	2376.16
732.057	2343.39
732.243	2494.94
732.429	2367.96
732.615	2435.55
732.801	2374.11
732.987	2361.82
733.173	2408.92
733.359	2433.5
733.545	2384.35
733.731	2259.42
733.917	2372.06
734.103	2296.28
734.289	2449.88
734.475	2316.76
734.661	2302.43
734.847	2302.43
735.033	2220.51
735.219	2261.47
735.404	2296.28
735.59	2240.99
735.776	2243.04
735.962	2347.48
736.148	2343.39
736.333	2249.18
736.519	2382.3
736.705	2206.17
736.89	2146.78
737.076	2234.85
737.262	2142.69
737.447	2073.06
737.633	2132.45
737.819	2183.65
738.004	2247.13
738.19	2144.74
738.375	2193.89
738.561	2177.5
738.747	2150.88
738.932	2017.76
739.118	2263.52
739.303	2126.3
739.489	2202.08
739.674	2089.44
739.859	2138.59
740.045	2007.52
740.23	2034.14
740.416	2097.63
740.601	2107.87
740.786	2032.1
740.972	1948.13
741.157	1954.27
741.342	2068.96
741.528	2062.82
741.713	2060.77
741.898	1997.28
742.084	1966.56
742.269	2001.38
742.454	1917.41
742.639	1954.27
742.824	1991.14
743.01	1925.6
743.195	1950.18
743.38	1931.75
743.565	1978.85
743.75	1898.98
743.935	1802.72
744.12	1845.73
744.305	1894.88
744.49	1911.27
744.675	1939.94
744.86	1878.5
745.045	1794.53
745.23	1905.12
745.415	1870.31
745.6	1847.78
745.785	1710.57
745.97	1890.79
746.155	1784.29
746.34	1784.29
746.525	1817.06
746.71	1772
746.895	1679.85
747.079	1731.05
747.264	1653.22
747.449	1673.7
747.634	1739.24
747.819	1710.57
748.003	1681.89
748.188	1776.1
748.373	1591.78
748.557	1696.23
748.742	1591.78
748.927	1671.65
749.111	1589.74
749.296	1630.7
749.481	1655.27
749.665	1636.84
749.85	1540.58
750.034	1665.51
750.219	1530.34
750.404	1507.82
750.588	1403.37
750.773	1511.91
750.957	1526.25
751.141	1559.02
751.326	1497.58
751.51	1520.1
751.695	1378.79
751.879	1473
752.064	1450.47
752.248	1448.43
752.432	1497.58
752.617	1366.51
752.801	1458.67
752.985	1450.47
753.17	1411.56
753.354	1401.32
753.538	1366.51
753.722	1319.4
753.907	1456.62
754.091	1309.16
754.275	1473
754.459	1247.72
754.643	1219.05
754.828	1329.64
755.012	1339.88
755.196	1292.78
755.38	1200.62
755.564	1171.95
755.748	1219.05
755.932	1178.09
756.116	1268.2
756.3	1321.45
756.484	1311.21
756.668	1147.37
756.852	1192.43
757.036	1188.33
757.22	1210.86
757.404	1147.37
757.588	1137.13
757.772	1196.53
757.956	1106.42
758.14	1163.76
758.323	1112.56
758.507	1114.61
758.691	1198.57
758.875	1178.09
759.059	1161.71
759.242	1112.56
759.426	1049.07
759.61	1133.04
759.794	1130.99
759.977	1118.7
760.161	1137.13
760.345	1014.26
760.528	1102.32
760.712	983.54
760.895	1024.5
761.079	940.53
761.263	1073.65
761.446	1024.5
761.63	1055.22
761.813	1055.22
761.997	1071.6
762.18	969.2
762.364	1047.02
762.547	948.72
762.731	1006.06
762.914	924.15
763.098	991.73
763.281	991.73
763.464	940.53
763.648	985.58
763.831	965.11
764.015	926.19
764.198	995.82
764.381	987.63
764.564	936.43
764.748	1032.69
764.931	1010.16
765.114	936.43
765.297	891.38
765.481	858.61
765.664	930.29
765.847	907.76
766.03	932.34
766.213	864.75
766.397	991.73
766.58	963.06
766.763	874.99
766.946	936.43
767.129	926.19
767.312	911.86
767.495	870.9
767.678	905.71
767.861	862.71
768.044	913.91
768.227	899.57
768.41	940.53
768.593	907.76
768.776	907.76
768.959	858.61
769.142	840.18
769.324	883.19
769.507	852.47
769.69	803.32
769.873	858.61
770.056	940.53
770.239	860.66
770.421	987.63
770.604	825.84
770.787	817.65
770.97	760.31
771.152	803.32
771.335	772.6
771.518	756.21
771.7	895.47
771.883	926.19
772.066	760.31
772.248	770.55
772.431	852.47
772.613	834.04
772.796	754.16
772.978	758.26
773.161	803.32
773.343	788.98
773.526	748.02
773.708	737.78
773.891	678.39
774.073	795.12
774.256	805.36
774.438	870.9
774.621	674.29
774.803	780.79
774.985	786.93
775.168	731.64
775.35	629.24
775.532	690.68
775.715	760.31
775.897	707.06
776.079	723.44
776.261	719.35
776.444	633.33
776.626	633.33
776.808	662.01
776.99	575.99
777.173	686.58
777.355	606.71
777.537	653.81
777.719	561.66
777.901	621.05
778.083	590.33
778.265	573.94
778.447	670.2
778.629	610.81
778.811	662.01
778.993	614.9
779.175	694.77
779.357	592.37
779.539	698.87
779.721	604.66
779.903	631.29
780.085	530.94
780.267	573.94
780.449	584.18
780.631	563.7
780.812	573.94
780.994	473.59
781.176	494.07
781.358	543.22
781.54	477.69
781.721	657.91
781.903	602.61
782.085	532.98
782.267	539.13
782.448	604.66
782.63	514.55
782.812	586.23
782.993	516.6
783.175	487.93
783.357	528.89
783.538	520.7
783.72	432.63
783.901	489.98
784.083	514.55
784.264	467.45
784.446	483.83
784.627	553.46
784.809	449.02
784.99	489.98
785.172	594.42
785.353	387.58
785.535	465.4
785.716	391.67
785.897	446.97
786.079	408.06
786.26	446.97
786.441	393.72
786.623	444.92
786.804	461.3
786.985	346.62
787.167	496.12
787.348	358.91
787.529	492.02
787.71	457.21
787.891	399.87
788.073	289.28
788.254	369.15
788.435	481.78
788.616	426.49
788.797	315.9
788.978	416.25
789.159	336.38
789.34	375.29
789.522	420.35
789.703	279.04
789.884	350.71
790.065	358.91
790.246	416.25
790.427	344.57
790.607	453.11
790.788	422.39
790.969	350.71
791.15	344.57
791.331	344.57
791.512	352.76
791.693	295.42
791.874	320
792.054	403.96
792.235	358.91
792.416	301.56
792.597	320
792.778	344.57
792.958	432.63
793.139	358.91
793.32	301.56
793.5	246.27
793.681	377.34
793.862	303.61
794.042	305.66
794.223	252.41
794.404	285.18
794.584	334.33
794.765	293.37
794.945	266.75
795.126	315.9
795.306	285.18
795.487	311.8
795.667	360.95
795.848	367.1
796.028	330.23
796.209	193.02
796.389	299.52
796.57	223.74
796.75	336.38
796.93	272.89
797.111	287.23
797.291	326.14
797.471	338.43
797.652	287.23
797.832	289.28
798.012	276.99
798.192	311.8
798.373	279.04
798.553	293.37
798.733	285.18
798.913	162.3
799.093	209.4
799.274	238.08
799.454	254.46
799.634	180.73
799.814	244.22
799.994	240.12
800.174	244.22
800.354	252.41
800.534	221.69
800.714	211.45
800.894	188.93
801.074	227.84
801.254	203.26
801.434	348.67
801.614	162.3
801.794	227.84
801.974	887.28
802.154	205.31
802.334	227.84
802.514	201.21
802.693	205.31
802.873	256.51
803.053	285.18
803.233	246.27
803.413	154.11
803.592	182.78
803.772	104.96
803.952	289.28
804.131	201.21
804.311	279.04
804.491	207.36
804.67	174.59
804.85	174.59
805.03	166.4
805.209	293.37
805.389	137.73
805.568	195.07
805.748	233.98
805.928	219.64
806.107	170.49
806.287	156.16
806.466	154.11
806.646	190.97
806.825	256.51
807.004	154.11
807.184	170.49
807.363	215.55
807.543	252.41
807.722	178.69
807.901	264.7
808.081	199.16
808.26	221.69
808.439	129.53
808.619	170.49
808.798	166.4
808.977	195.07
809.156	203.26
809.336	201.21
809.515	178.69
809.694	129.53
809.873	145.92
810.052	156.16
810.231	170.49
810.411	168.45
810.59	174.59
810.769	117.25
810.948	227.84
811.127	104.96
811.306	168.45
811.485	117.25
811.664	182.78
811.843	264.7
812.022	125.44
812.201	123.39
812.38	133.63
812.559	113.15
812.737	119.29
812.916	57.86
813.095	76.29
813.274	164.35
813.453	178.69
813.632	180.73
813.811	231.93
813.989	145.92
814.168	123.39
814.347	72.19
814.526	145.92
814.704	123.39
814.883	223.74
815.062	162.3
815.24	195.07
815.419	115.2
815.598	88.57
815.776	92.67
815.955	72.19
816.133	111.1
816.312	197.12
816.49	109.05
816.669	150.01
816.847	98.81
817.026	139.77
817.204	115.2
817.383	197.12
817.561	90.62
817.74	125.44
817.918	96.77
818.097	137.73
818.275	123.39
818.453	162.3
818.632	111.1
818.81	68.09
818.988	145.92
819.167	154.11
819.345	59.9
819.523	137.73
819.701	129.53
819.879	129.53
820.058	154.11
820.236	104.96
820.414	80.38
820.592	150.01
820.77	98.81
820.948	107.01
821.127	100.86
821.305	166.4
821.483	100.86
821.661	137.73
821.839	80.38
822.017	82.43
822.195	76.29
822.373	166.4
822.551	121.34
822.729	162.3
822.907	72.19
823.085	113.15
823.262	72.19
823.44	55.81
823.618	92.67
823.796	170.49
823.974	41.47
824.152	92.67
824.329	88.57
824.507	70.14
824.685	100.86
824.863	0.51
825.04	113.15
825.218	55.81
825.396	80.38
825.574	135.68
825.751	64
825.929	221.69
826.107	23.04
826.284	6.66
826.462	170.49
826.639	137.73
826.817	55.81
826.994	51.71
827.172	-5.63
827.349	170.49
827.527	86.53
827.704	66.05
827.882	107.01
828.059	104.96
828.237	57.86
828.414	147.97
828.591	82.43
828.769	121.34
828.946	23.04
829.124	117.25
829.301	113.15
829.478	113.15
829.655	123.39
829.833	154.11
830.01	-9.73
830.187	119.29
830.364	127.49
830.542	96.77
830.719	113.15
830.896	10.75
831.073	147.97
831.25	72.19
831.427	113.15
831.604	121.34
831.782	59.9
831.959	49.66
832.136	64
832.313	25.09
832.49	84.48
832.667	-5.63
832.844	80.38
833.021	76.29
833.198	84.48
833.374	14.85
833.551	82.43
833.728	80.38
833.905	170.49
834.082	-7.68
834.259	0.51
834.436	137.73
834.612	31.23
834.789	14.85
834.966	59.9
835.143	143.87
835.319	-1.54
835.496	64
835.673	80.38
835.85	98.81
836.026	94.72
836.203	98.81
836.38	2.56
836.556	16.9
836.733	68.09
836.909	145.92
837.086	12.8
837.262	23.04
837.439	-7.68
837.616	154.11
837.792	37.38
837.968	72.19
838.145	23.04
838.321	90.62
838.498	100.86
838.674	47.62
838.851	82.43
839.027	2.56
839.203	162.3
839.38	64
839.556	10.75
839.732	82.43
839.909	-5.63
840.085	80.38
840.261	35.33
840.437	76.29
840.614	-19.97
840.79	55.81
840.966	37.38
841.142	27.14
841.318	57.86
841.494	109.05
841.671	33.28
841.847	31.23
842.023	70.14
842.199	55.81
842.375	70.14
842.551	-9.73
842.727	-1.54
842.903	104.96
843.079	-26.11
843.255	68.09
843.431	31.23
843.607	47.62
843.783	-17.92
843.959	49.66
844.134	55.81
844.31	49.66
844.486	-42.5
844.662	33.28
844.838	-26.11
845.013	80.38
845.189	57.86
845.365	64
845.541	49.66
845.716	-1.54
845.892	41.47
846.068	27.14
846.244	14.85
846.419	14.85
846.595	33.28
846.77	25.09
846.946	84.48
847.122	47.62
847.297	0.51
847.473	66.05
847.648	-32.26
847.824	121.34
847.999	-32.26
848.175	96.77
848.35	64
848.526	72.19
848.701	117.25
848.876	78.33
849.052	68.09
849.227	-38.4
849.403	-40.45
849.578	61.95
849.753	55.81
849.929	70.14
850.104	0.51
850.279	35.33
850.454	96.77
850.63	6.66
850.805	-24.06
850.98	55.81
851.155	55.81
851.33	84.48
851.505	-73.21
851.681	117.25
851.856	-3.58
852.031	14.85
852.206	23.04
852.381	-30.21
852.556	-5.63
852.731	-9.73
852.906	92.67
853.081	35.33
853.256	84.48
853.431	6.66
853.606	39.42
853.781	4.61
853.956	-9.73
854.131	16.9
854.305	47.62
854.48	78.33
854.655	-38.4
854.83	111.1
855.005	51.71
855.18	68.09
855.354	-1.54
855.529	68.09
855.704	88.57
855.879	31.23
856.053	-54.78
856.228	47.62
856.403	-5.63
856.577	74.24
856.752	2.56
856.926	-3.58
857.101	18.94
857.276	14.85
857.45	35.33
857.625	39.42
857.799	88.57
857.974	-56.83
858.148	-50.69
858.323	14.85
858.497	59.9
858.672	-54.78
858.846	-1.54
859.02	-5.63
859.195	-24.06
859.369	31.23
859.543	33.28
859.718	14.85
859.892	18.94
860.066	47.62
860.241	-30.21
860.415	-26.11
860.589	88.57
860.763	20.99
860.938	-11.78
861.112	23.04
861.286	27.14
861.46	90.62
861.634	59.9
861.808	55.81
861.982	29.18
862.157	55.81
862.331	-3.58
862.505	31.23
862.679	-9.73
862.853	23.04
863.027	-1.54
863.201	55.81
863.375	47.62
863.549	14.85
863.722	33.28
863.896	0.51
864.07	16.9
864.244	-9.73
864.418	47.62
864.592	4.61
864.766	47.62
864.939	39.42
865.113	41.47
865.287	92.67
865.461	-91.65
865.634	74.24
865.808	-62.98
865.982	25.09
866.156	8.7
866.329	14.85
866.503	-46.59
866.676	25.09
866.85	14.85
867.024	64
867.197	-17.92
867.371	78.33
867.544	18.94
867.718	-71.17
867.891	31.23
868.065	-9.73
868.238	109.05
868.412	82.43
868.585	59.9
868.759	33.28
868.932	-50.69
869.105	2.56
869.279	-22.02
869.452	16.9
869.625	64
869.799	-9.73
869.972	-56.83
870.145	23.04
870.319	49.66
870.492	-42.5
870.665	35.33
870.838	-22.02
871.011	-75.26
871.185	45.57
871.358	-26.11
871.531	0.51
871.704	29.18
871.877	51.71
872.05	-1.54
872.223	0.51
872.396	102.91
872.569	16.9
872.742	-7.68
872.915	72.19
873.088	35.33
873.261	-9.73
873.434	53.76
873.607	-36.35
873.78	68.09
873.953	-58.88
874.126	-24.06
874.299	35.33
874.471	43.52
874.644	-26.11
874.817	6.66
874.99	16.9
875.163	-40.45
875.335	27.14
875.508	25.09
875.681	104.96
875.853	-5.63
876.026	51.71
876.199	-13.82
876.371	-48.64
876.544	8.7
876.717	-34.3
876.889	12.8
877.062	-7.68
877.234	-1.54
877.407	-13.82
877.579	47.62
877.752	51.71
877.924	16.9
878.097	47.62
878.269	18.94
878.442	23.04
878.614	18.94
878.786	39.42
878.959	20.99
879.131	84.48
879.303	-48.64
879.476	45.57
879.648	88.57
879.82	-1.54
879.993	-17.92
880.165	43.52
880.337	31.23
880.509	-34.3
880.681	-62.98
880.854	-9.73
881.026	18.94
881.198	-7.68
881.37	-17.92
881.542	25.09
881.714	-13.82
881.886	23.04
882.058	31.23
882.23	70.14
882.402	-58.88
882.574	10.75
882.746	31.23
882.918	92.67
883.09	14.85
883.262	-26.11
883.434	-5.63
883.606	6.66
883.778	-48.64
883.95	33.28
884.122	-9.73
884.293	35.33
884.465	-26.11
884.637	-1.54
884.809	20.99
884.98	51.71
885.152	-50.69
885.324	90.62
885.496	-67.07
885.667	0.51
885.839	8.7
886.011	88.57
886.182	64
886.354	31.23
886.525	18.94
886.697	-32.26
886.869	18.94
887.04	39.42
887.212	70.14
887.383	33.28
887.555	-44.54
887.726	-9.73
887.897	-1.54
888.069	-32.26
888.24	27.14
888.412	-22.02
888.583	25.09
888.754	39.42
888.926	-99.84
889.097	14.85
889.268	-58.88
889.44	14.85
889.611	-56.83
889.782	0.51
889.953	-75.26
890.125	16.9
890.296	-50.69
890.467	-58.88
890.638	-13.82
890.809	-15.87
890.98	-7.68
891.151	14.85
891.323	109.05
891.494	25.09
891.665	43.52
891.836	0.51
892.007	-34.3
892.178	12.8
892.349	31.23
892.52	23.04
892.691	-34.3
892.862	45.57
893.032	-50.69
893.203	-30.21
893.374	-24.06
893.545	49.66
893.716	-65.02
893.887	14.85
894.057	37.38
894.228	-1.54
894.399	-22.02
894.57	16.9
894.74	84.48
894.911	47.62
895.082	6.66
895.253	-11.78
895.423	43.52
895.594	4.61
895.764	14.85
895.935	-58.88
896.106	-17.92
896.276	-26.11
896.447	-9.73
896.617	-15.87
896.788	-40.45
896.958	-65.02
897.129	25.09
897.299	-40.45
897.47	23.04
897.64	0.51
897.81	-17.92
897.981	-38.4
898.151	39.42
898.322	-48.64
898.492	-83.45
898.662	35.33
898.832	33.28
899.003	-40.45
899.173	37.38
899.343	-30.21
899.513	-58.88
