Data from USB4F104151__198__14-33-11-777.txt Node

Date: Thu Mar 13 14:33:11 EDT 2025
User: louis
Spectrometer: USB4F10415
Trigger mode: 4
Integration Time (sec): 2.500000E-2
Scans to average: 1
Electric dark correction enabled: true
Nonlinearity correction enabled: false
Boxcar width: 0
XAxis mode: Wavelengths
Number of Pixels in Spectrum: 3648
>>>>>Begin Spectral Data<<<<<
178.204	-171.52
178.424	-171.52
178.644	-171.52
178.864	-208.38
179.084	-116.22
179.304	-32.26
179.524	27.14
179.744	43.52
179.964	6.66
180.184	-24.06
180.404	23.04
180.624	-38.4
180.844	-17.92
181.064	-19.97
181.283	12.8
181.503	-19.97
181.723	39.42
181.943	-75.26
182.163	131.58
182.383	-60.93
182.602	33.28
182.822	82.43
183.042	45.57
183.262	-24.06
183.482	10.75
183.701	-11.78
183.921	45.57
184.141	12.8
184.361	27.14
184.58	61.95
184.8	6.66
185.02	61.95
185.239	80.38
185.459	18.94
185.679	152.06
185.898	-77.31
186.118	43.52
186.338	-7.68
186.557	86.53
186.777	-19.97
186.997	61.95
187.216	-36.35
187.436	74.24
187.655	57.86
187.875	61.95
188.095	53.76
188.314	96.77
188.534	123.39
188.753	57.86
188.973	170.49
189.192	-19.97
189.412	39.42
189.631	55.81
189.851	39.42
190.07	61.95
190.29	86.53
190.509	31.23
190.729	2.56
190.948	51.71
191.168	94.72
191.387	127.49
191.607	8.7
191.826	123.39
192.045	53.76
192.265	57.86
192.484	55.81
192.704	45.57
192.923	68.09
193.142	121.34
193.362	90.62
193.581	16.9
193.8	86.53
194.02	61.95
194.239	27.14
194.458	72.19
194.678	53.76
194.897	-11.78
195.116	16.9
195.335	20.99
195.555	16.9
195.774	55.81
195.993	29.18
196.212	111.1
196.432	39.42
196.651	88.57
196.87	12.8
197.089	80.38
197.308	31.23
197.528	102.91
197.747	-24.06
197.966	72.19
198.185	135.68
198.404	25.09
198.623	45.57
198.842	51.71
199.062	20.99
199.281	-7.68
199.5	119.29
199.719	20.99
199.938	29.18
200.157	135.68
200.376	74.24
200.595	135.68
200.814	117.25
201.033	68.09
201.252	78.33
201.471	6.66
201.69	76.29
201.909	94.72
202.128	76.29
202.347	66.05
202.566	14.85
202.785	12.8
203.004	37.38
203.223	121.34
203.442	20.99
203.661	23.04
203.879	6.66
204.098	37.38
204.317	55.81
204.536	86.53
204.755	111.1
204.974	10.75
205.193	94.72
205.411	109.05
205.63	61.95
205.849	23.04
206.068	49.66
206.287	39.42
206.505	104.96
206.724	94.72
206.943	29.18
207.162	25.09
207.381	-26.11
207.599	119.29
207.818	47.62
208.037	18.94
208.255	27.14
208.474	20.99
208.693	16.9
208.911	4.61
209.13	53.76
209.349	41.47
209.567	4.61
209.786	41.47
210.005	76.29
210.223	55.81
210.442	8.7
210.661	57.86
210.879	102.91
211.098	45.57
211.316	4.61
211.535	66.05
211.753	20.99
211.972	14.85
212.191	18.94
212.409	84.48
212.628	104.96
212.846	-9.73
213.065	80.38
213.283	86.53
213.502	39.42
213.72	45.57
213.938	92.67
214.157	64
214.375	94.72
214.594	53.76
214.812	78.33
215.031	53.76
215.249	27.14
215.467	25.09
215.686	16.9
215.904	70.14
216.122	45.57
216.341	-1.54
216.559	49.66
216.778	41.47
216.996	29.18
217.214	20.99
217.432	80.38
217.651	72.19
217.869	-11.78
218.087	86.53
218.306	20.99
218.524	12.8
218.742	66.05
218.96	53.76
219.179	49.66
219.397	12.8
219.615	119.29
219.833	61.95
220.051	31.23
220.27	98.81
220.488	72.19
220.706	152.06
220.924	20.99
221.142	-9.73
221.36	29.18
221.578	18.94
221.796	88.57
222.015	33.28
222.233	61.95
222.451	80.38
222.669	29.18
222.887	35.33
223.105	6.66
223.323	98.81
223.541	39.42
223.759	39.42
223.977	78.33
224.195	203.26
224.413	119.29
224.631	-28.16
224.849	4.61
225.067	88.57
225.285	23.04
225.503	31.23
225.721	45.57
225.939	14.85
226.157	6.66
226.375	158.21
226.592	0.51
226.81	14.85
227.028	37.38
227.246	29.18
227.464	82.43
227.682	64
227.9	33.28
228.117	-7.68
228.335	86.53
228.553	29.18
228.771	94.72
228.989	119.29
229.206	61.95
229.424	37.38
229.642	-9.73
229.86	57.86
230.077	-3.58
230.295	-28.16
230.513	29.18
230.731	41.47
230.948	102.91
231.166	76.29
231.384	-1.54
231.601	-13.82
231.819	47.62
232.037	-7.68
232.254	14.85
232.472	82.43
232.689	43.52
232.907	49.66
233.125	49.66
233.342	102.91
233.56	-34.3
233.777	66.05
233.995	37.38
234.213	98.81
234.43	96.77
234.648	39.42
234.865	88.57
235.083	61.95
235.3	14.85
235.518	66.05
235.735	70.14
235.953	72.19
236.17	14.85
236.388	70.14
236.605	37.38
236.822	6.66
237.04	45.57
237.257	-17.92
237.475	35.33
237.692	100.86
237.909	70.14
238.127	102.91
238.344	45.57
238.562	88.57
238.779	96.77
238.996	-1.54
239.214	29.18
239.431	-22.02
239.648	12.8
239.865	45.57
240.083	94.72
240.3	96.77
240.517	23.04
240.735	61.95
240.952	23.04
241.169	53.76
241.386	78.33
241.603	70.14
241.821	20.99
242.038	59.9
242.255	45.57
242.472	45.57
242.689	55.81
242.907	94.72
243.124	29.18
243.341	66.05
243.558	70.14
243.775	-36.35
243.992	66.05
244.209	72.19
244.426	168.45
244.643	119.29
244.86	156.16
245.078	-13.82
245.295	115.2
245.512	25.09
245.729	76.29
245.946	53.76
246.163	29.18
246.38	47.62
246.597	37.38
246.814	86.53
247.031	78.33
247.248	86.53
247.464	72.19
247.681	-1.54
247.898	33.28
248.115	88.57
248.332	-11.78
248.549	53.76
248.766	150.01
248.983	41.47
249.2	-44.54
249.417	14.85
249.633	27.14
249.85	-26.11
250.067	61.95
250.284	-1.54
250.501	80.38
250.717	47.62
250.934	23.04
251.151	-26.11
251.368	-28.16
251.585	12.8
251.801	25.09
252.018	23.04
252.235	45.57
252.451	49.66
252.668	72.19
252.885	45.57
253.102	94.72
253.318	25.09
253.535	37.38
253.752	23.04
253.968	123.39
254.185	-15.87
254.401	37.38
254.618	39.42
254.835	68.09
255.051	102.91
255.268	86.53
255.484	70.14
255.701	31.23
255.917	96.77
256.134	33.28
256.351	104.96
256.567	25.09
256.784	74.24
257	6.66
257.217	45.57
257.433	74.24
257.65	45.57
257.866	133.63
258.082	47.62
258.299	6.66
258.515	78.33
258.732	12.8
258.948	16.9
259.165	94.72
259.381	-5.63
259.597	27.14
259.814	20.99
260.03	29.18
260.246	53.76
260.463	86.53
260.679	70.14
260.895	66.05
261.112	41.47
261.328	4.61
261.544	61.95
261.761	107.01
261.977	53.76
262.193	4.61
262.409	70.14
262.626	25.09
262.842	98.81
263.058	-9.73
263.274	98.81
263.49	86.53
263.707	86.53
263.923	78.33
264.139	-44.54
264.355	47.62
264.571	104.96
264.787	107.01
265.004	66.05
265.22	-1.54
265.436	12.8
265.652	61.95
265.868	82.43
266.084	41.47
266.3	6.66
266.516	-24.06
266.732	98.81
266.948	102.91
267.164	16.9
267.38	35.33
267.596	88.57
267.812	102.91
268.028	23.04
268.244	-36.35
268.46	12.8
268.676	20.99
268.892	8.7
269.108	-3.58
269.324	4.61
269.54	12.8
269.756	61.95
269.972	12.8
270.188	80.38
270.403	4.61
270.619	45.57
270.835	104.96
271.051	90.62
271.267	45.57
271.483	37.38
271.698	55.81
271.914	80.38
272.13	29.18
272.346	31.23
272.562	90.62
272.777	82.43
272.993	45.57
273.209	14.85
273.425	72.19
273.64	72.19
273.856	131.58
274.072	29.18
274.287	49.66
274.503	-3.58
274.719	102.91
274.934	64
275.15	12.8
275.366	78.33
275.581	39.42
275.797	45.57
276.012	129.53
276.228	31.23
276.444	86.53
276.659	123.39
276.875	45.57
277.09	45.57
277.306	23.04
277.521	88.57
277.737	51.71
277.952	113.15
278.168	20.99
278.383	45.57
278.599	94.72
278.814	47.62
279.03	61.95
279.245	90.62
279.461	6.66
279.676	102.91
279.892	23.04
280.107	39.42
280.322	104.96
280.538	111.1
280.753	-52.74
280.969	41.47
281.184	-9.73
281.399	133.63
281.615	45.57
281.83	53.76
282.045	20.99
282.26	74.24
282.476	68.09
282.691	14.85
282.906	47.62
283.122	25.09
283.337	-19.97
283.552	111.1
283.767	0.51
283.983	23.04
284.198	0.51
284.413	107.01
284.628	4.61
284.843	74.24
285.058	49.66
285.274	57.86
285.489	43.52
285.704	113.15
285.919	66.05
286.134	25.09
286.349	29.18
286.564	51.71
286.779	119.29
286.995	61.95
287.21	0.51
287.425	107.01
287.64	12.8
287.855	94.72
288.07	-1.54
288.285	72.19
288.5	20.99
288.715	113.15
288.93	-36.35
289.145	16.9
289.36	100.86
289.575	12.8
289.79	37.38
290.004	53.76
290.219	70.14
290.434	45.57
290.649	27.14
290.864	20.99
291.079	-19.97
291.294	4.61
291.509	94.72
291.724	-3.58
291.938	57.86
292.153	39.42
292.368	-24.06
292.583	64
292.798	66.05
293.012	29.18
293.227	78.33
293.442	-17.92
293.657	20.99
293.871	104.96
294.086	80.38
294.301	119.29
294.516	72.19
294.73	37.38
294.945	-1.54
295.16	49.66
295.374	78.33
295.589	111.1
295.804	61.95
296.018	94.72
296.233	104.96
296.447	16.9
296.662	-22.02
296.877	68.09
297.091	-52.74
297.306	49.66
297.52	72.19
297.735	47.62
297.949	-7.68
298.164	61.95
298.378	43.52
298.593	4.61
298.807	47.62
299.022	53.76
299.236	39.42
299.451	74.24
299.665	20.99
299.88	80.38
300.094	64
300.309	-28.16
300.523	76.29
300.737	111.1
300.952	88.57
301.166	27.14
301.381	20.99
301.595	94.72
301.809	74.24
302.024	8.7
302.238	16.9
302.452	96.77
302.667	64
302.881	119.29
303.095	102.91
303.309	119.29
303.524	59.9
303.738	20.99
303.952	72.19
304.166	82.43
304.381	-42.5
304.595	78.33
304.809	16.9
305.023	94.72
305.237	86.53
305.452	33.28
305.666	-15.87
305.88	107.01
306.094	88.57
306.308	31.23
306.522	29.18
306.736	49.66
306.95	72.19
307.164	70.14
307.379	51.71
307.593	180.73
307.807	102.91
308.021	102.91
308.235	-3.58
308.449	12.8
308.663	16.9
308.877	143.87
309.091	-11.78
309.305	20.99
309.519	-44.54
309.733	45.57
309.947	23.04
310.161	70.14
310.374	70.14
310.588	45.57
310.802	-17.92
311.016	47.62
311.23	-11.78
311.444	-1.54
311.658	51.71
311.872	53.76
312.085	109.05
312.299	41.47
312.513	84.48
312.727	127.49
312.941	0.51
313.154	23.04
313.368	64
313.582	20.99
313.796	76.29
314.009	-3.58
314.223	78.33
314.437	94.72
314.651	45.57
314.864	80.38
315.078	-3.58
315.292	2.56
315.505	45.57
315.719	96.77
315.933	-11.78
316.146	123.39
316.36	20.99
316.573	86.53
316.787	74.24
317.001	29.18
317.214	47.62
317.428	127.49
317.641	-56.83
317.855	92.67
318.068	152.06
318.282	64
318.495	127.49
318.709	47.62
318.922	18.94
319.136	66.05
319.349	70.14
319.563	-1.54
319.776	111.1
319.99	18.94
320.203	76.29
320.417	39.42
320.63	23.04
320.843	147.97
321.057	25.09
321.27	107.01
321.483	53.76
321.697	113.15
321.91	88.57
322.124	123.39
322.337	8.7
322.55	6.66
322.763	61.95
322.977	53.76
323.19	61.95
323.403	57.86
323.617	72.19
323.83	55.81
324.043	25.09
324.256	86.53
324.469	74.24
324.683	64
324.896	51.71
325.109	27.14
325.322	0.51
325.535	74.24
325.748	41.47
325.962	78.33
326.175	37.38
326.388	-1.54
326.601	104.96
326.814	55.81
327.027	29.18
327.24	59.9
327.453	-24.06
327.666	70.14
327.879	88.57
328.092	16.9
328.305	88.57
328.518	-11.78
328.731	-5.63
328.944	18.94
329.157	37.38
329.37	80.38
329.583	111.1
329.796	94.72
330.009	16.9
330.222	-3.58
330.435	39.42
330.648	16.9
330.861	82.43
331.073	-3.58
331.286	-9.73
331.499	98.81
331.712	-5.63
331.925	33.28
332.138	70.14
332.35	115.2
332.563	29.18
332.776	72.19
332.989	14.85
333.202	0.51
333.414	12.8
333.627	37.38
333.84	-50.69
334.053	113.15
334.265	20.99
334.478	-7.68
334.691	53.76
334.903	-7.68
335.116	49.66
335.329	94.72
335.541	61.95
335.754	145.92
335.966	115.2
336.179	111.1
336.392	57.86
336.604	72.19
336.817	94.72
337.029	96.77
337.242	78.33
337.454	86.53
337.667	61.95
337.88	82.43
338.092	92.67
338.305	29.18
338.517	80.38
338.729	86.53
338.942	135.68
339.154	33.28
339.367	31.23
339.579	55.81
339.792	-9.73
340.004	23.04
340.217	14.85
340.429	86.53
340.641	20.99
340.854	70.14
341.066	64
341.278	137.73
341.491	111.1
341.703	25.09
341.915	-17.92
342.128	20.99
342.34	121.34
342.552	16.9
342.764	35.33
342.977	117.25
343.189	104.96
343.401	31.23
343.613	61.95
343.826	107.01
344.038	27.14
344.25	64
344.462	29.18
344.674	137.73
344.886	29.18
345.099	39.42
345.311	61.95
345.523	66.05
345.735	25.09
345.947	127.49
346.159	70.14
346.371	8.7
346.583	49.66
346.795	84.48
347.007	20.99
347.219	12.8
347.431	86.53
347.643	131.58
347.855	74.24
348.067	76.29
348.279	59.9
348.491	31.23
348.703	96.77
348.915	90.62
349.127	70.14
349.339	74.24
349.551	70.14
349.763	84.48
349.975	-9.73
350.187	45.57
350.399	119.29
350.61	102.91
350.822	16.9
351.034	66.05
351.246	94.72
351.458	123.39
351.669	82.43
351.881	82.43
352.093	57.86
352.305	53.76
352.517	96.77
352.728	61.95
352.94	-11.78
353.152	59.9
353.363	68.09
353.575	70.14
353.787	70.14
353.999	70.14
354.21	121.34
354.422	16.9
354.633	41.47
354.845	129.53
355.057	37.38
355.268	68.09
355.48	88.57
355.692	29.18
355.903	31.23
356.115	131.58
356.326	33.28
356.538	88.57
356.749	94.72
356.961	55.81
357.172	0.51
357.384	66.05
357.595	160.25
357.807	33.28
358.018	55.81
358.23	104.96
358.441	57.86
358.653	27.14
358.864	23.04
359.075	53.76
359.287	78.33
359.498	113.15
359.709	107.01
359.921	70.14
360.132	109.05
360.344	104.96
360.555	88.57
360.766	37.38
360.977	94.72
361.189	47.62
361.4	18.94
361.611	188.93
361.823	96.77
362.034	111.1
362.245	-9.73
362.456	23.04
362.667	-17.92
362.879	-58.88
363.09	29.18
363.301	53.76
363.512	68.09
363.723	121.34
363.935	66.05
364.146	104.96
364.357	45.57
364.568	84.48
364.779	64
364.99	94.72
365.201	14.85
365.412	61.95
365.623	-40.45
365.834	25.09
366.045	111.1
366.256	37.38
366.467	47.62
366.678	43.52
366.889	39.42
367.1	70.14
367.311	64
367.522	129.53
367.733	53.76
367.944	94.72
368.155	29.18
368.366	55.81
368.577	90.62
368.788	37.38
368.999	39.42
369.209	29.18
369.42	139.77
369.631	154.11
369.842	86.53
370.053	53.76
370.264	47.62
370.474	20.99
370.685	55.81
370.896	104.96
371.107	39.42
371.317	180.73
371.528	-1.54
371.739	78.33
371.95	143.87
372.16	111.1
372.371	18.94
372.582	49.66
372.792	78.33
373.003	31.23
373.214	109.05
373.424	90.62
373.635	104.96
373.846	104.96
374.056	104.96
374.267	14.85
374.477	59.9
374.688	14.85
374.898	74.24
375.109	104.96
375.319	86.53
375.53	74.24
375.74	12.8
375.951	4.61
376.161	37.38
376.372	66.05
376.582	135.68
376.793	96.77
377.003	29.18
377.214	88.57
377.424	29.18
377.635	6.66
377.845	78.33
378.055	143.87
378.266	74.24
378.476	61.95
378.686	31.23
378.897	45.57
379.107	78.33
379.317	33.28
379.528	139.77
379.738	94.72
379.948	-7.68
380.158	119.29
380.369	80.38
380.579	127.49
380.789	16.9
380.999	111.1
381.21	102.91
381.42	195.07
381.63	51.71
381.84	78.33
382.05	16.9
382.261	129.53
382.471	94.72
382.681	61.95
382.891	96.77
383.101	43.52
383.311	-3.58
383.521	51.71
383.731	90.62
383.941	111.1
384.151	125.44
384.361	86.53
384.571	164.35
384.781	70.14
384.991	147.97
385.201	119.29
385.411	113.15
385.621	111.1
385.831	-11.78
386.041	47.62
386.251	84.48
386.461	57.86
386.671	98.81
386.881	96.77
387.091	102.91
387.301	131.58
387.511	131.58
387.72	137.73
387.93	141.82
388.14	39.42
388.35	31.23
388.56	92.67
388.769	98.81
388.979	39.42
389.189	-15.87
389.399	121.34
389.609	117.25
389.818	137.73
390.028	82.43
390.238	47.62
390.447	45.57
390.657	145.92
390.867	20.99
391.076	66.05
391.286	152.06
391.496	45.57
391.705	39.42
391.915	113.15
392.125	154.11
392.334	86.53
392.544	78.33
392.753	86.53
392.963	80.38
393.172	111.1
393.382	139.77
393.591	143.87
393.801	86.53
394.01	115.2
394.22	195.07
394.429	201.21
394.639	80.38
394.848	76.29
395.058	96.77
395.267	78.33
395.477	78.33
395.686	119.29
395.895	197.12
396.105	88.57
396.314	176.64
396.524	86.53
396.733	31.23
396.942	127.49
397.152	154.11
397.361	168.45
397.57	186.88
397.78	135.68
397.989	111.1
398.198	190.97
398.407	131.58
398.617	137.73
398.826	156.16
399.035	135.68
399.244	156.16
399.453	111.1
399.663	162.3
399.872	145.92
400.081	80.38
400.29	221.69
400.499	70.14
400.708	123.39
400.917	137.73
401.127	180.73
401.336	143.87
401.545	135.68
401.754	164.35
401.963	209.4
402.172	145.92
402.381	127.49
402.59	129.53
402.799	121.34
403.008	195.07
403.217	276.99
403.426	170.49
403.635	143.87
403.844	193.02
404.053	176.64
404.262	180.73
404.471	268.8
404.68	307.71
404.888	193.02
405.097	233.98
405.306	233.98
405.515	203.26
405.724	250.36
405.933	238.08
406.142	168.45
406.35	166.4
406.559	186.88
406.768	219.64
406.977	291.32
407.185	360.95
407.394	236.03
407.603	320
407.812	307.71
408.02	365.05
408.229	315.9
408.438	281.08
408.646	307.71
408.855	317.95
409.064	348.67
409.272	338.43
409.481	449.02
409.69	446.97
409.898	342.52
410.107	383.48
410.315	430.59
410.524	414.2
410.733	479.74
410.941	463.35
411.15	526.84
411.358	528.89
411.567	582.14
411.775	545.27
411.984	590.33
412.192	573.94
412.401	604.66
412.609	702.97
412.818	758.26
413.026	653.81
413.234	678.39
413.443	725.49
413.651	717.3
413.86	799.22
414.068	864.75
414.276	932.34
414.485	860.66
414.693	901.62
414.901	1004.02
415.11	950.77
415.318	989.68
415.526	1071.6
415.734	985.58
415.943	1118.7
416.151	1186.29
416.359	1120.75
416.567	1163.76
416.776	1323.5
416.984	1307.12
417.192	1341.93
417.4	1348.08
417.608	1247.72
417.817	1393.13
418.025	1595.88
418.233	1618.41
418.441	1669.61
418.649	1626.6
418.857	1722.85
419.065	1806.82
419.273	1800.68
419.481	1847.78
419.689	1970.66
419.897	2105.82
420.105	2159.07
420.313	2208.22
420.521	2308.57
420.729	2318.81
420.937	2423.26
421.145	2519.51
421.353	2609.62
421.561	2677.21
421.769	2834.9
421.977	2806.23
422.185	2851.28
422.393	2933.2
422.601	3191.25
422.809	3084.75
423.017	3154.38
423.224	3350.99
423.432	3369.42
423.64	3527.11
423.848	3709.38
424.056	3715.53
424.263	3953.09
424.471	3998.15
424.679	3973.57
424.887	4403.64
425.094	4450.75
425.302	4422.08
425.51	4559.29
425.718	4665.78
425.925	4745.66
426.133	4911.54
426.341	5142.96
426.548	5546.41
426.756	5431.73
426.964	5493.16
427.171	5902.76
427.379	6074.79
427.586	6011.3
427.794	6338.98
428.001	6441.37
428.209	6814.1
428.417	6721.95
428.624	7158.16
428.832	6984.09
429.039	7158.16
429.247	7109.01
429.454	7877
429.662	8282.5
429.869	7704.97
430.076	8354.18
430.284	8112.52
430.491	8466.81
430.699	8837.5
430.906	9040.25
431.114	8976.76
431.321	9292.15
431.528	9316.72
431.736	10183.01
431.943	10381.67
432.15	10336.61
432.358	10281.32
432.565	10971.48
432.772	10826.07
432.979	11344.21
433.187	11524.43
433.394	11688.27
433.601	12548.42
433.808	12489.03
434.016	12319.04
434.223	13039.93
434.43	13789.49
434.637	13379.89
434.844	14088.49
435.052	14512.42
435.259	14479.65
435.466	14702.88
435.673	14250.28
435.88	15255.83
436.087	16089.35
436.294	16136.46
436.501	15876.37
436.708	15929.61
436.915	16591.11
437.122	17355
437.329	17371.38
437.537	17959.15
437.743	18157.8
437.95	18118.89
438.157	18962.65
438.364	19577.05
438.571	19656.92
438.778	19710.16
438.985	21657.78
439.192	20553.93
439.399	21270.72
439.606	20558.02
439.813	22024.37
440.02	23277.72
440.227	22855.84
440.433	22366.38
440.64	23611.54
440.847	23105.7
441.054	23574.68
441.261	25362.56
441.467	25063.55
441.674	25495.67
441.881	26617.96
442.088	26120.31
442.294	26173.55
442.501	26787.94
442.708	27297.89
442.914	28285.01
443.121	29499.45
443.328	28895.3
443.534	30648.36
443.741	29769.79
443.948	29755.45
444.154	31127.59
444.361	31375.39
444.568	31539.23
444.774	31410.21
444.981	31766.56
445.187	32587.79
445.394	34101.24
445.6	33757.18
445.807	36720.59
446.013	35231.72
446.22	35780.57
446.426	37556.16
446.633	37627.84
446.839	38932.4
447.046	36984.78
447.252	39298.98
447.459	39882.66
447.665	39323.56
447.871	41045.9
448.078	42930.03
448.284	40734.61
448.491	41731.97
448.697	43140.97
448.903	43716.45
449.11	44146.53
449.316	43706.21
449.522	43827.04
449.728	45471.56
449.935	45647.69
450.141	45752.13
450.347	47028.02
450.553	45582.15
450.76	45991.75
450.966	47327.02
451.172	46300.99
451.378	47994.66
451.584	46886.71
451.791	48064.29
451.997	48144.16
452.203	49061.65
452.409	49016.6
452.615	48166.69
452.821	46438.2
453.027	46358.33
453.233	48529.18
453.44	46743.35
453.646	47200.05
453.852	47499.05
454.058	48402.21
454.264	46657.34
454.47	47441.71
454.676	46204.73
454.882	48031.52
455.088	43704.17
455.294	44672.85
455.5	45330.25
455.705	45403.98
455.911	44001.12
456.117	42925.94
456.323	42676.08
456.529	40165.28
456.735	42311.55
456.941	40755.09
457.147	40327.06
457.352	39151.53
457.558	38862.77
457.764	38795.18
457.97	37875.65
458.176	36937.68
458.381	36751.31
458.587	35291.11
458.793	35307.49
458.999	33624.06
459.204	35968.99
459.41	35155.94
459.616	32624.65
459.821	32464.91
460.027	32866.31
460.233	32073.75
460.438	30455.86
460.644	30605.36
460.85	29100.1
461.055	28776.52
461.261	28348.5
461.466	26474.6
461.672	25847.93
461.878	27664.47
462.083	25897.08
462.289	25325.69
462.494	25016.45
462.7	23670.93
462.905	23163.04
463.111	23900.31
463.316	24150.16
463.522	23650.46
463.727	23634.07
463.932	23388.32
464.138	23189.66
464.343	23031.97
464.549	22878.37
464.754	23298.2
464.959	23126.18
465.165	23142.56
465.37	21942.45
465.575	21498.04
465.781	22028.46
465.986	22278.32
466.191	21657.78
466.397	21262.52
466.602	20046.03
466.807	21137.6
467.012	21121.21
467.218	20859.07
467.423	20476.1
467.628	20641.99
467.833	21434.55
468.038	20601.03
468.244	19943.63
468.449	20699.33
468.654	20080.85
468.859	19882.19
469.064	19853.52
469.269	19187.93
469.474	19341.53
469.679	19427.54
469.885	19224.79
470.09	19396.82
470.295	19290.33
470.5	18532.58
470.705	18864.35
470.91	18321.64
471.115	18217.19
471.32	18534.63
471.525	18483.43
471.73	17910
471.935	17914.09
472.139	17064.19
472.344	17590.52
472.549	17137.91
472.754	17281.27
472.959	16920.83
473.164	16380.17
473.369	16054.54
473.574	16652.55
473.778	16574.72
473.983	16273.67
474.188	16302.34
474.393	16032.01
474.598	15796.49
474.802	15569.17
475.007	15573.27
475.212	15524.12
475.417	14926.11
475.621	14907.68
475.826	15071.51
476.031	14666.02
476.235	14311.72
476.44	14563.62
476.645	14352.68
476.849	14676.26
477.054	14010.67
477.259	14016.81
477.463	14121.26
477.668	13588.78
477.872	13891.88
478.077	13601.07
478.282	13183.29
478.486	13189.43
478.691	13015.35
478.895	13005.11
479.1	13107.51
479.304	12939.58
479.509	12687.68
479.713	12763.45
479.918	12425.54
480.122	12394.82
480.326	12489.03
480.531	12534.08
480.735	12472.64
480.94	12398.91
481.144	12820.8
481.348	11954.51
481.553	12206.41
481.757	11792.72
481.961	12194.12
482.166	12245.32
482.37	12325.19
482.574	11800.91
482.778	11827.53
482.983	12130.63
483.187	12067.14
483.391	12114.25
483.595	12007.75
483.8	11962.7
484.004	12286.28
484.208	12065.1
484.412	11829.58
484.616	12036.42
484.821	12112.2
485.025	11952.46
485.229	11966.79
485.433	11981.13
485.637	11966.79
485.841	11825.48
486.045	11827.53
486.249	11979.08
486.453	11899.21
486.657	11792.72
486.861	12007.75
487.065	11698.51
487.269	12058.95
487.473	11657.55
487.677	12089.67
487.881	12261.7
488.085	11694.41
488.289	11854.16
488.493	11645.26
488.697	12017.99
488.901	12015.94
489.105	11993.42
489.309	11936.07
489.512	11907.4
489.716	12032.33
489.92	12136.77
490.124	11997.51
490.328	12280.13
490.531	11981.13
490.735	12157.25
490.939	12415.3
491.143	12247.37
491.346	12255.56
491.55	12509.51
491.754	12439.87
491.958	12433.73
492.161	12042.57
492.365	12362.05
492.569	12546.37
492.772	12452.16
492.976	12728.64
493.18	12882.24
493.383	12890.43
493.587	12740.93
493.79	13054.26
493.994	12693.82
494.197	12720.45
494.401	12949.82
494.605	12962.11
494.808	13179.19
495.012	13326.64
495.215	13472.05
495.419	13447.47
495.622	13420.85
495.825	13682.99
496.029	13644.08
496.232	13797.68
496.436	13619.5
496.639	14332.2
496.843	13783.34
497.046	14166.31
497.249	14430.5
497.453	14434.6
497.656	14676.26
497.859	14614.82
498.063	14891.29
498.266	15089.95
498.469	14922.01
498.673	15239.45
498.876	15405.33
499.079	15532.31
499.282	15612.18
499.485	16087.31
499.689	15757.58
499.892	16165.13
500.095	16126.22
500.298	16701.7
500.501	16552.2
500.705	17033.47
500.908	16922.88
501.111	17293.56
501.314	17254.65
501.517	17553.65
501.72	17699.06
501.923	17641.71
502.126	17846.51
502.329	18170.09
502.532	18424.04
502.735	18454.76
502.938	18903.26
503.141	18915.55
503.344	19009.76
503.547	18796.77
503.75	19237.08
503.953	19607.76
504.156	19828.95
504.359	20066.51
504.562	20074.7
504.765	20127.95
504.968	20852.93
505.17	20838.59
505.373	20719.81
505.576	21231.8
505.779	21563.57
505.982	21702.84
506.185	22065.33
506.387	21975.22
506.59	22024.37
506.793	22786.21
506.996	22558.89
507.198	23148.7
507.401	23001.25
507.604	23505.05
507.807	23842.96
508.009	23941.27
508.212	24205.45
508.415	24354.96
508.617	24545.42
508.82	24854.66
509.022	24672.39
509.225	25440.38
509.428	25583.74
509.63	25890.93
509.833	25761.91
510.035	26189.94
510.238	26382.45
510.44	26407.02
510.643	27269.22
510.845	27062.37
511.048	27050.08
511.25	27600.99
511.453	27723.86
511.655	28500.05
511.858	28090.45
512.06	28373.07
512.262	28690.51
512.465	28938.31
512.667	29245.51
512.87	29376.58
513.072	29567.04
513.274	30040.12
513.477	30531.63
513.679	30824.49
513.881	31162.4
514.084	31240.23
514.286	31080.49
514.488	31688.73
514.69	32110.61
514.893	32376.85
515.095	32706.57
515.297	32620.56
515.499	32706.57
515.701	33576.96
515.904	33806.33
516.106	33562.62
516.308	33923.07
516.51	34488.31
516.712	34451.44
516.914	34623.47
517.116	35520.48
517.318	35377.12
517.52	35674.08
517.722	35782.62
517.925	36001.75
518.127	37029.83
518.329	36790.22
518.531	36458.45
518.733	37363.65
518.935	37570.5
519.136	37332.93
519.338	38231.99
519.54	38180.79
519.742	38143.93
519.944	38459.32
520.146	39020.46
520.348	39278.5
520.55	38772.66
520.752	39186.35
520.954	39681.95
521.155	39641
521.357	40081.31
521.559	40341.4
521.761	40837.01
521.963	41095.05
522.164	41072.53
522.366	40732.56
522.568	41572.23
522.77	41365.38
522.971	42256.25
523.173	41725.83
523.375	41961.34
523.576	42098.56
523.778	42459
523.98	42469.24
524.181	42577.78
524.383	42598.26
524.584	43513.7
524.786	43485.03
524.988	43515.75
525.189	43523.94
525.391	43847.52
525.592	43997.02
525.794	43902.82
525.995	44056.42
526.197	43925.35
526.398	43851.62
526.6	44324.7
526.801	44216.16
527.003	44302.17
527.204	44664.66
527.406	44805.97
527.607	44590.94
527.808	44801.88
528.01	43972.45
528.211	44423
528.412	45201.23
528.614	44738.39
528.815	44779.35
529.016	45238.09
529.218	45152.08
529.419	45168.46
529.62	44955.47
529.822	44803.92
530.023	45107.02
530.224	45182.8
530.425	45541.19
530.626	44457.82
530.828	44474.2
531.029	45125.46
531.23	44791.64
531.431	45078.35
531.632	45213.52
531.833	44992.34
532.035	45195.09
532.236	45107.02
532.437	44603.22
532.638	44369.75
532.839	44619.61
533.04	45010.77
533.241	44486.49
533.442	45332.3
533.643	44848.98
533.844	44705.62
534.045	44752.73
534.246	44486.49
534.447	44912.47
534.648	44746.58
534.849	44785.49
535.05	44394.33
535.251	44617.56
535.451	44302.17
535.652	44728.15
535.853	44054.37
536.054	44719.96
536.255	44203.87
536.456	43845.47
536.657	44732.25
536.857	44187.49
537.058	43689.83
537.259	44351.32
537.46	44095.33
537.66	43980.64
537.861	44296.03
538.062	43868
538.263	43659.11
538.463	43614.05
538.664	43661.16
538.865	43755.36
539.065	43728.74
539.266	43495.27
539.466	44228.45
539.667	43374.44
539.868	43911.01
540.068	43767.65
540.269	43523.94
540.469	44095.33
540.67	43229.04
540.87	43388.78
541.071	43577.19
541.271	43431.79
541.472	43591.53
541.672	43327.34
541.873	43075.44
542.073	42927.98
542.274	43485.03
542.474	43091.82
542.675	43022.19
542.875	43730.79
543.075	43167.6
543.276	43349.87
543.476	43206.51
543.676	43310.96
543.877	43016.05
544.077	42993.52
544.277	42958.7
544.478	42942.32
544.678	42997.62
544.878	42747.76
545.078	42985.33
545.279	42866.55
545.479	42848.11
545.679	42997.62
545.879	42737.52
546.079	42721.14
546.28	42874.74
546.48	42489.72
546.68	42749.81
546.88	42987.38
547.08	42899.31
547.28	42862.45
547.48	42393.47
547.68	42915.7
547.88	42731.38
548.081	42956.66
548.281	42768.24
548.481	42702.71
548.681	42821.49
548.881	43403.11
549.081	42829.68
549.28	42774.39
549.48	42762.1
549.68	42733.43
549.88	43190.12
550.08	42407.8
550.28	42823.54
550.48	42753.91
550.68	43181.93
550.88	42983.28
551.08	42968.94
551.279	42887.03
551.479	42590.07
551.679	42870.64
551.879	42893.17
552.079	43212.65
552.278	42764.15
552.478	42862.45
552.678	42866.55
552.878	43040.62
553.077	42626.93
553.277	42657.65
553.477	43646.82
553.676	43181.93
553.876	43118.45
554.076	42839.92
554.275	43175.79
554.475	42844.02
554.674	42792.82
554.874	42903.41
555.074	42678.13
555.273	42717.04
555.473	43235.18
555.672	42825.59
555.872	42973.04
556.071	43040.62
556.271	43548.52
556.47	42813.3
556.67	42372.99
556.869	42882.93
557.068	43112.3
557.268	42743.67
557.467	43163.5
557.667	43071.34
557.866	42741.62
558.065	43280.24
558.265	42678.13
558.464	42966.9
558.663	43188.08
558.863	42702.71
559.062	43501.42
559.261	42846.07
559.461	43343.72
559.66	42872.69
559.859	42999.66
560.058	42483.58
560.258	42852.21
560.457	42803.06
560.656	43153.26
560.855	42434.42
561.054	43048.82
561.253	42698.61
561.453	43298.67
561.652	43220.84
561.851	43100.01
562.05	42733.43
562.249	42669.94
562.448	43274.09
562.647	42932.08
562.846	42827.63
563.045	42872.69
563.244	42452.86
563.443	42927.98
563.642	42323.83
563.841	42379.13
564.04	42059.65
564.239	42844.02
564.438	42082.17
564.637	42280.83
564.836	42534.77
565.035	42047.36
565.234	42121.09
565.432	42039.17
565.631	42252.16
565.83	42221.44
566.029	42143.61
566.228	42149.76
566.427	41758.59
566.625	41906.05
566.824	41568.13
567.023	41994.11
567.222	41217.93
567.42	42063.74
567.619	41920.38
567.818	41740.16
568.016	41731.97
568.215	42045.31
568.414	41131.92
568.612	41844.61
568.811	41670.53
569.01	41559.94
569.208	40839.06
569.407	41461.64
569.605	40925.07
569.804	41379.72
570.002	40781.71
570.201	41183.12
570.4	40896.4
570.598	40609.68
570.797	40726.42
570.995	40744.85
571.193	40335.26
571.392	40712.08
571.59	40179.61
571.789	40331.16
571.987	39970.72
572.186	40228.76
572.384	39964.57
572.582	40185.75
572.781	40062.88
572.979	39565.22
573.177	39991.2
573.376	39976.86
573.574	39325.61
573.772	39847.84
573.971	39358.38
574.169	39266.22
574.367	38844.34
574.565	39221.16
574.763	39239.59
574.962	39102.38
575.16	38526.9
575.358	38762.42
575.556	38346.68
575.754	39157.67
575.952	38418.36
576.151	38608.82
576.349	38053.82
576.547	38322.1
576.745	38182.84
576.943	38211.51
577.141	37857.21
577.339	38223.8
577.537	37953.47
577.735	37662.66
577.933	37308.36
578.131	37797.82
578.329	37541.83
578.527	37218.25
578.725	37228.49
578.923	37404.61
579.121	37027.79
579.319	36743.12
579.516	37593.03
579.714	36665.3
579.912	36886.48
580.11	36573.14
580.308	36925.39
580.506	36612.05
580.704	36284.37
580.901	36784.08
581.099	36597.71
581.297	35907.55
581.495	35803.1
581.692	36069.34
581.89	35739.61
582.088	35856.35
582.285	35540.96
582.483	36394.96
582.681	35751.9
582.878	35764.19
583.076	35194.85
583.274	35573.73
583.471	35252.2
583.669	35405.8
583.866	35123.18
584.064	35270.63
584.262	35078.12
584.459	35293.16
584.657	34533.36
584.854	35000.3
585.052	34371.57
585.249	34727.92
585.447	34697.2
585.644	34619.38
585.841	34240.5
586.039	34781.17
586.236	34080.76
586.434	34199.54
586.631	33923.07
586.828	33953.79
587.026	34105.34
587.223	33824.76
587.42	33771.52
587.618	33744.89
587.815	33499.14
588.012	33505.28
588.21	33402.88
588.407	33882.11
588.604	33038.34
588.801	33216.52
588.999	33458.18
589.196	33271.81
589.393	32712.72
589.59	33280
589.787	33077.26
589.984	32976.9
590.182	32436.24
590.379	32837.64
590.576	32239.64
590.773	32671.76
590.97	31979.54
591.167	32274.45
591.364	32051.22
591.561	32620.56
591.758	32026.65
591.955	32022.55
592.152	32147.48
592.349	31991.83
592.546	32004.12
592.743	31971.35
592.94	31485.98
593.137	31930.39
593.334	32043.03
593.531	31225.89
593.727	31946.78
593.924	31545.37
594.121	31485.98
594.318	31967.26
594.515	31168.55
594.712	31367.2
594.908	31270.95
595.105	31608.86
595.302	31006.76
595.499	30900.26
595.696	31156.26
595.892	31100.97
596.089	31117.35
596.286	31072.29
596.482	30771.24
596.679	30681.13
596.876	31066.15
597.072	30814.25
597.269	30797.87
597.466	30296.11
597.662	30490.67
597.859	30580.78
598.055	30560.3
598.252	30468.14
598.448	30498.86
598.645	30445.62
598.841	30316.59
599.038	30267.44
599.234	30226.48
599.431	30033.97
599.627	30042.17
599.824	30388.27
600.02	30042.17
600.217	30187.57
600.413	30482.48
600.609	29943.86
600.806	30117.94
601.002	30343.22
601.198	29954.1
601.395	29980.73
601.591	29980.73
601.787	30040.12
601.984	29792.31
602.18	29952.05
602.376	30228.53
602.572	30015.54
602.769	29493.31
602.965	29376.58
603.161	29919.29
603.357	29691.96
603.553	29753.4
603.75	29982.77
603.946	29888.57
604.142	30036.02
604.338	29513.79
604.534	29595.71
604.73	29569.08
604.926	29632.57
605.122	29712.44
605.318	29648.96
605.514	29208.64
605.71	29503.55
605.906	29370.43
606.102	29655.1
606.298	29710.39
606.494	29775.93
606.69	29757.5
606.886	29804.6
607.082	29483.07
607.278	29755.45
607.474	29556.8
607.67	29845.56
607.866	29530.17
608.062	29900.86
608.257	29638.72
608.453	29866.04
608.649	29483.07
608.845	29462.59
609.041	29814.84
609.236	30058.55
609.432	29868.09
609.628	29784.12
609.824	29970.49
610.019	29577.28
610.215	29737.02
610.411	29868.09
610.606	29419.58
610.802	30113.84
610.998	29671.48
611.193	30191.67
611.389	29771.83
611.584	29988.92
611.78	29595.71
611.976	29995.06
612.171	29849.66
612.367	30070.84
612.562	29886.52
612.758	29732.92
612.953	29218.88
613.149	29962.29
613.344	29616.19
613.539	30335.03
613.735	29919.29
613.93	29687.87
614.126	29874.23
614.321	30111.8
614.517	30208.05
614.712	29806.65
614.907	29784.12
615.103	29939.77
615.298	29720.63
615.493	29972.53
615.688	29589.56
615.884	30378.03
616.079	29749.31
616.274	29841.46
616.47	29929.53
616.665	30058.55
616.86	29589.56
617.055	29485.12
617.25	29591.61
617.445	30074.93
617.641	29556.8
617.836	30101.56
618.031	29171.78
618.226	29577.28
618.421	29386.82
618.616	29892.66
618.811	29122.63
619.006	29380.67
619.201	28999.75
619.396	29495.36
619.591	28713.03
619.786	29118.53
619.981	28862.54
620.176	28948.55
620.371	28606.54
620.566	28799.05
620.761	28440.65
620.956	28829.77
621.151	28049.49
621.346	28434.51
621.541	27873.37
621.735	28313.68
621.93	27682.91
622.125	28024.92
622.32	27617.37
622.515	27707.48
622.709	27283.55
622.904	27424.86
623.099	27256.93
623.294	27301.98
623.488	27451.49
623.683	27193.44
623.878	26976.36
624.072	26720.36
624.267	26558.57
624.462	26632.3
624.656	26450.03
624.851	26198.13
625.046	26327.15
625.24	26118.26
625.435	25962.61
625.629	25481.34
625.824	25733.24
626.018	25890.93
626.213	25454.72
626.407	25712.76
626.602	24989.83
626.796	25395.32
626.991	25043.07
627.185	24887.43
627.38	24705.16
627.574	24588.42
627.768	24176.78
627.963	24440.97
628.157	24238.22
628.352	24111.25
628.546	23908.5
628.74	24084.62
628.935	23791.76
629.129	23824.53
629.323	23404.7
629.517	23451.8
629.712	23210.14
629.906	23312.54
630.1	22642.85
630.294	23330.97
630.489	22651.05
630.683	22999.2
630.877	22718.63
631.071	22544.55
631.265	22595.75
631.459	22362.28
631.653	22444.2
631.848	22515.88
632.042	21870.77
632.236	22169.77
632.43	21901.49
632.624	21704.88
632.818	22069.42
633.012	21463.22
633.206	21571.77
633.4	21575.86
633.594	21090.49
633.788	20969.66
633.982	20926.66
634.176	21094.59
634.369	20893.89
634.563	20541.64
634.757	20418.76
634.951	20713.67
635.145	20582.6
635.339	20832.45
635.533	20222.16
635.726	20367.56
635.92	19865.81
636.114	19857.62
636.308	19917.01
636.501	19755.22
636.695	19523.8
636.889	19343.58
637.083	19249.37
637.276	19249.37
637.47	19161.31
637.664	19110.11
637.857	19232.99
638.051	18919.65
638.244	18911.46
638.438	18602.21
638.632	18561.25
638.825	18737.38
639.019	18448.61
639.212	18262.25
639.406	18471.14
639.599	17879.28
639.793	18272.49
639.986	17729.78
640.18	18075.88
640.373	17768.69
640.567	17436.92
640.76	17639.67
640.954	17326.33
641.147	17527.03
641.34	17322.23
641.534	17385.72
641.727	17086.72
641.92	16922.88
642.114	16892.16
642.307	16914.69
642.5	16410.89
642.694	16410.89
642.887	16337.16
643.08	16414.98
643.273	16453.89
643.467	15978.76
643.66	15862.03
643.853	16113.93
644.046	15747.34
644.239	15825.17
644.432	15859.98
644.626	15481.11
644.819	15653.14
645.012	15634.71
645.205	15421.72
645.398	15241.5
645.591	15065.37
645.784	15012.12
645.977	15266.07
646.17	15145.24
646.363	14833.95
646.556	14670.11
646.749	14725.41
646.942	14838.05
647.135	14573.86
647.328	14489.89
647.521	14397.73
647.714	14260.52
647.907	14283.05
648.099	14133.54
648.292	14162.22
648.485	13824.3
648.678	14027.05
648.871	13791.53
649.064	13652.27
649.256	13693.23
649.449	13711.66
649.642	13470
649.835	13375.8
650.027	13453.62
650.22	13293.88
650.413	13193.53
650.605	13154.62
650.798	12851.52
650.991	12941.63
651.183	13113.66
651.376	12902.72
651.568	12818.75
651.761	12726.59
651.954	12781.88
652.146	12480.83
652.339	12415.3
652.531	12398.91
652.724	12409.15
652.916	12276.04
653.109	12368.2
653.301	12319.04
653.494	12022.09
653.686	11974.99
653.879	12061
654.071	11915.59
654.263	11778.38
654.456	11647.31
654.648	11837.77
654.84	11665.74
655.033	11802.96
655.225	11653.45
655.417	11589.97
655.61	11327.83
655.802	11469.14
655.994	11204.95
656.186	11317.59
656.379	10942.81
656.571	11153.75
656.763	11229.52
656.955	10797.4
657.148	11000.15
657.34	11176.28
657.532	10750.3
657.724	10688.86
657.916	10740.06
658.108	10731.87
658.3	10561.89
658.492	10482.02
658.684	10479.97
658.876	10525.02
659.068	10627.42
659.26	10047.85
659.452	10252.64
659.644	10391.91
659.836	10078.57
660.028	9980.26
660.22	9781.61
660.412	10002.79
660.604	9865.58
660.796	9795.95
660.988	9976.17
661.18	9775.47
661.372	9705.84
661.563	9879.91
661.755	9505.13
661.947	9582.96
662.139	9585.01
662.331	9542
662.522	9286
662.714	9251.19
662.906	9089.4
663.097	9220.47
663.289	9265.52
663.481	9083.25
663.673	9068.92
663.864	8962.42
664.056	8886.65
664.247	9003.38
664.439	8823.16
664.631	8946.04
664.822	8878.46
665.014	8728.95
665.205	8655.23
665.397	8724.86
665.588	8595.84
665.78	8378.75
665.971	8442.24
666.163	8558.97
666.354	8397.18
666.546	8401.28
666.737	8384.9
666.929	8270.21
667.12	8196.48
667.311	8198.53
667.503	8051.08
667.694	8317.31
667.885	7948.68
668.077	8165.76
668.268	7807.37
668.459	8139.14
668.651	7954.82
668.842	7809.42
669.033	7827.85
669.224	7809.42
669.416	7862.66
669.607	7688.59
669.798	7670.15
669.989	7702.92
670.18	7664.01
670.371	7428.49
670.563	7524.75
670.754	7475.6
670.945	7430.54
671.136	7348.62
671.327	7352.72
671.518	7278.99
671.709	7205.27
671.9	7373.2
672.091	7205.27
672.282	7414.16
672.473	7301.52
672.664	7270.8
672.855	7066
673.046	7156.11
673.237	7068.05
673.428	7018.9
673.619	7106.96
673.809	7041.43
674	6975.89
674.191	7031.19
674.382	6799.77
674.573	6840.73
674.764	6973.85
674.954	6984.09
675.145	6979.99
675.336	6816.15
675.527	6648.22
675.717	6971.8
675.908	6822.3
676.099	6771.1
676.289	6777.24
676.48	6672.79
676.671	6500.76
676.861	6789.53
677.052	6525.34
677.243	6578.59
677.433	6633.88
677.624	6492.57
677.814	6474.14
678.005	6472.09
678.195	6508.96
678.386	6680.99
678.576	6412.7
678.767	6373.79
678.957	6166.95
679.148	6533.53
679.338	6334.88
679.529	6463.9
679.719	6365.6
679.909	6457.76
680.1	6298.02
680.29	6312.35
680.481	6320.54
680.671	6175.14
680.861	6222.24
681.052	6291.87
681.242	6289.82
681.432	6119.84
681.622	6160.8
681.813	6158.75
682.003	6060.45
682.193	6130.08
682.383	6197.67
682.573	6011.3
682.764	6140.32
682.954	6033.83
683.144	6085.03
683.334	5915.05
683.524	6003.11
683.714	6009.25
683.904	6035.88
684.094	5970.34
684.284	5890.47
684.474	6009.25
684.664	5886.37
684.854	5937.57
685.044	5820.84
685.234	5962.15
685.424	5783.98
685.614	5904.81
685.804	5800.36
685.994	5693.87
686.184	5757.35
686.374	5867.94
686.564	5732.78
686.753	5902.76
686.943	5759.4
687.133	5603.75
687.323	5681.58
687.513	5667.24
687.702	5706.15
687.892	5618.09
688.082	5437.87
688.272	5566.89
688.461	5663.15
688.651	5646.76
688.841	5513.64
689.03	5470.64
689.22	5362.09
689.41	5513.64
689.599	5360.05
689.789	5286.32
689.979	5468.59
690.168	5401.01
690.358	5257.65
690.547	5331.37
690.737	5271.98
690.926	5335.47
691.116	5278.13
691.305	5437.87
691.495	5327.28
691.684	5372.33
691.874	5251.5
692.063	5153.2
692.252	5255.6
692.442	5155.25
692.631	5149.11
692.82	5167.54
693.01	5112.24
693.199	5108.15
693.388	4962.74
693.578	4977.08
693.767	5118.39
693.956	5083.57
694.146	5005.75
694.335	5022.13
694.524	4889.01
694.713	4942.26
694.902	4938.16
695.092	4940.21
695.281	4747.7
695.47	4858.29
695.659	4911.54
695.848	4954.55
696.037	4878.77
696.226	4878.77
696.415	4850.1
696.604	4778.42
696.793	4780.47
696.982	4788.66
697.171	4749.75
697.36	4788.66
697.549	4684.22
697.738	4649.4
697.927	4690.36
698.116	4577.72
698.305	4555.19
698.494	4540.86
698.683	4733.37
698.872	4727.22
699.061	4608.44
699.25	4573.63
699.438	4592.06
699.627	4655.54
699.816	4653.5
700.005	4581.82
700.193	4508.09
700.382	4614.59
700.571	4508.09
700.76	4460.99
700.948	4518.33
701.137	4542.91
701.326	4454.84
701.514	4317.63
701.703	4501.95
701.892	4338.11
702.08	4389.31
702.269	4401.6
702.457	4354.49
702.646	4352.45
702.834	4241.86
703.023	4327.87
703.212	4166.08
703.4	4368.83
703.589	4192.7
703.777	4145.6
703.965	4121.03
704.154	4346.3
704.342	4116.93
704.531	4194.75
704.719	4159.94
704.907	4239.81
705.096	4049.35
705.284	4104.64
705.472	4104.64
705.661	4153.79
705.849	4096.45
706.037	4233.66
706.226	4051.39
706.414	4035.01
706.602	4002.24
706.79	4084.16
706.979	3862.98
707.167	4088.26
707.355	4020.67
707.543	3860.93
707.731	3994.05
707.919	3895.75
708.107	3944.9
708.296	3944.9
708.484	3893.7
708.672	3877.32
708.86	3799.49
709.048	3725.77
709.236	3635.66
709.424	3817.93
709.612	3727.82
709.8	3717.58
709.988	3568.07
710.176	3731.91
710.364	3707.34
710.551	3723.72
710.739	3658.18
710.927	3826.12
711.115	3740.1
711.303	3725.77
711.491	3682.76
711.679	3682.76
711.866	3754.44
712.054	3690.95
712.242	3625.42
712.43	3645.9
712.617	3500.49
712.805	3658.18
712.993	3592.65
713.181	3584.46
713.368	3455.44
713.556	3582.41
713.744	3471.82
713.931	3645.9
714.119	3396.04
714.306	3445.2
714.494	3424.72
714.682	3537.35
714.869	3422.67
715.057	3375.56
715.244	3283.41
715.432	3463.63
715.619	3355.08
715.807	3293.65
715.994	3371.47
716.182	3437
716.369	3385.8
716.556	3264.97
716.744	3260.88
716.931	3281.36
717.119	3273.17
717.306	3281.36
717.493	3408.33
717.681	3305.93
717.868	3264.97
718.055	3346.89
718.242	3365.32
718.43	3207.63
718.617	3248.59
718.804	3244.49
718.991	3150.29
719.179	3209.68
719.366	3097.04
719.553	3176.91
719.74	3176.91
719.927	3062.23
720.114	3006.93
720.301	3072.47
720.488	3011.03
720.676	3086.8
720.863	3109.33
721.05	3140.05
721.237	3142.1
721.424	3133.9
721.611	2982.35
721.798	2896.34
721.985	3027.41
722.172	2896.34
722.358	2972.11
722.545	2996.69
722.732	3002.83
722.919	3006.93
723.106	2892.24
723.293	2832.85
723.48	2849.24
723.667	2933.2
723.853	2910.68
724.04	2986.45
724.227	2873.81
724.414	2855.38
724.6	2925.01
724.787	2847.19
724.974	3017.17
725.161	2781.65
725.347	2800.09
725.534	2785.75
725.72	2851.28
725.907	2886.1
726.094	2869.72
726.28	2699.73
726.467	2669.02
726.653	2677.21
726.84	2789.85
727.027	2882
727.213	2781.65
727.4	2765.27
727.586	2687.45
727.773	2849.24
727.959	2675.16
728.145	2748.89
728.332	2650.58
728.518	2642.39
728.705	2656.73
728.891	2642.39
729.077	2699.73
729.264	2699.73
729.45	2638.3
729.636	2687.45
729.823	2720.21
730.009	2726.36
730.195	2658.78
730.382	2638.3
730.568	2583
730.754	2499.03
730.94	2525.66
731.126	2644.44
731.313	2626.01
731.499	2591.19
731.685	2566.62
731.871	2607.58
732.057	2523.61
732.243	2499.03
732.429	2462.17
732.615	2537.95
732.801	2656.73
732.987	2544.09
733.173	2494.94
733.359	2490.84
733.545	2429.4
733.731	2398.68
733.917	2591.19
734.103	2576.86
734.289	2515.42
734.475	2372.06
734.661	2392.54
734.847	2509.27
735.033	2456.03
735.219	2417.12
735.404	2494.94
735.59	2333.15
735.776	2396.64
735.962	2488.79
736.148	2372.06
736.333	2380.25
736.519	2345.44
736.705	2202.08
736.89	2355.68
737.076	2359.77
737.262	2169.31
737.447	2245.09
737.633	2339.29
737.819	2406.88
738.004	2290.14
738.19	2271.71
738.375	2228.7
738.561	2281.95
738.747	2306.52
738.932	2353.63
739.118	2232.8
739.303	2281.95
739.489	2150.88
739.674	2251.23
739.859	2191.84
740.045	2171.36
740.23	2159.07
740.416	2126.3
740.601	2197.98
740.786	2087.39
740.972	2095.58
741.157	2048.48
741.342	2085.34
741.528	2154.98
741.713	2126.3
741.898	2056.67
742.084	2107.87
742.269	1991.14
742.454	2032.1
742.639	2144.74
742.824	2062.82
743.01	2103.78
743.195	2077.15
743.38	1991.14
743.565	2017.76
743.75	1999.33
743.935	1905.12
744.12	2056.67
744.305	1880.55
744.49	2054.62
744.675	1980.9
744.86	1890.79
745.045	1903.07
745.23	2103.78
745.415	1927.65
745.6	1898.98
745.785	1888.74
745.97	1905.12
746.155	1835.49
746.34	1831.4
746.525	1839.59
746.71	1831.4
746.895	1720.81
747.079	1792.48
747.264	1800.68
747.449	1790.44
747.634	1749.48
747.819	1757.67
748.003	1815.01
748.188	1731.05
748.373	1759.72
748.557	1778.15
748.742	1708.52
748.927	1716.71
749.111	1726.95
749.296	1718.76
749.481	1692.13
749.665	1552.87
749.85	1628.65
750.034	1683.94
750.219	1606.12
750.404	1522.15
750.588	1651.17
750.773	1520.1
750.957	1716.71
751.141	1522.15
751.326	1651.17
751.51	1497.58
751.695	1612.26
751.879	1571.3
752.064	1585.64
752.248	1540.58
752.432	1503.72
752.617	1577.45
752.801	1438.19
752.985	1397.23
753.17	1528.3
753.354	1448.43
753.538	1503.72
753.722	1417.71
753.907	1425.9
754.091	1350.12
754.275	1448.43
754.459	1339.88
754.643	1397.23
754.828	1477.1
755.012	1319.4
755.196	1294.83
755.38	1333.74
755.564	1356.27
755.748	1389.03
755.932	1350.12
756.116	1341.93
756.3	1368.56
756.484	1231.34
756.668	1241.58
756.852	1274.35
757.036	1278.44
757.22	1241.58
757.404	1208.81
757.588	1159.66
757.772	1225.2
757.956	1219.05
758.14	1217.01
758.323	1163.76
758.507	1163.76
758.691	1081.84
758.875	1223.15
759.059	1217.01
759.242	1081.84
759.426	1159.66
759.61	1092.08
759.794	1143.28
759.977	1212.91
760.161	1276.4
760.345	1145.33
760.528	1106.42
760.712	1118.7
760.895	1202.67
761.079	1069.55
761.263	1038.83
761.446	1077.74
761.63	1028.59
761.813	1143.28
761.997	1040.88
762.18	1057.26
762.364	1034.74
762.547	1004.02
762.731	1028.59
762.914	1102.32
763.098	958.96
763.281	1090.03
763.464	993.78
763.648	1038.83
763.831	946.67
764.015	1077.74
764.198	987.63
764.381	1055.22
764.564	1026.54
764.748	930.29
764.931	1030.64
765.114	999.92
765.297	971.25
765.481	899.57
765.664	903.67
765.847	1022.45
766.03	1094.13
766.213	942.58
766.397	1014.26
766.58	963.06
766.763	958.96
766.946	930.29
767.129	954.87
767.312	924.15
767.495	940.53
767.678	979.44
767.861	1020.4
768.044	940.53
768.227	958.96
768.41	1004.02
768.593	1034.74
768.776	887.28
768.959	963.06
769.142	881.14
769.324	915.95
769.507	815.6
769.69	889.33
769.873	915.95
770.056	1022.45
770.239	881.14
770.421	958.96
770.604	915.95
770.787	877.04
770.97	807.41
771.152	866.8
771.335	784.88
771.518	768.5
771.7	870.9
771.883	913.91
772.066	856.56
772.248	813.56
772.431	793.08
772.613	883.19
772.796	883.19
772.978	791.03
773.161	840.18
773.343	825.84
773.526	827.89
773.708	664.05
773.891	756.21
774.073	782.84
774.256	791.03
774.438	825.84
774.621	670.2
774.803	807.41
774.985	684.53
775.168	774.64
775.35	840.18
775.532	721.4
775.715	778.74
775.897	670.2
776.079	741.88
776.261	694.77
776.444	776.69
776.626	711.16
776.808	672.25
776.99	717.3
777.173	739.83
777.355	614.9
777.537	664.05
777.719	754.16
777.901	641.53
778.083	655.86
778.265	651.77
778.447	666.1
778.629	668.15
778.811	684.53
778.993	639.48
779.175	662.01
779.357	664.05
779.539	627.19
779.721	692.73
779.903	668.15
780.085	643.57
780.267	584.18
780.449	582.14
780.631	668.15
780.812	653.81
780.994	586.23
781.176	555.51
781.358	528.89
781.54	475.64
781.721	530.94
781.903	565.75
782.085	602.61
782.267	614.9
782.448	600.57
782.63	553.46
782.812	582.14
782.993	528.89
783.175	645.62
783.357	512.5
783.538	604.66
783.72	514.55
783.901	553.46
784.083	502.26
784.264	508.41
784.446	410.11
784.627	473.59
784.809	528.89
784.99	541.18
785.172	532.98
785.353	553.46
785.535	487.93
785.716	469.5
785.897	461.3
786.079	496.12
786.26	512.5
786.441	465.4
786.623	381.43
786.804	410.11
786.985	463.35
787.167	432.63
787.348	475.64
787.529	410.11
787.71	442.87
787.891	360.95
788.073	406.01
788.254	426.49
788.435	467.45
788.616	322.04
788.797	420.35
788.978	369.15
789.159	412.15
789.34	420.35
789.522	375.29
789.703	375.29
789.884	422.39
790.065	397.82
790.246	360.95
790.427	397.82
790.607	395.77
790.788	356.86
790.969	293.37
791.15	459.26
791.331	393.72
791.512	379.39
791.693	336.38
791.874	348.67
792.054	381.43
792.235	360.95
792.416	354.81
792.597	291.32
792.778	387.58
792.958	348.67
793.139	344.57
793.32	360.95
793.5	274.94
793.681	336.38
793.862	438.78
794.042	315.9
794.223	262.65
794.404	307.71
794.584	299.52
794.765	299.52
794.945	373.24
795.126	346.62
795.306	354.81
795.487	332.28
795.667	260.6
795.848	311.8
796.028	381.43
796.209	358.91
796.389	270.84
796.57	303.61
796.75	317.95
796.93	301.56
797.111	238.08
797.291	258.56
797.471	350.71
797.652	276.99
797.832	246.27
798.012	342.52
798.192	219.64
798.373	227.84
798.553	254.46
798.733	299.52
798.913	182.78
799.093	285.18
799.274	254.46
799.454	287.23
799.634	320
799.814	348.67
799.994	209.4
800.174	250.36
800.354	244.22
800.534	242.17
800.714	322.04
800.894	141.82
801.074	236.03
801.254	231.93
801.434	291.32
801.614	217.6
801.794	258.56
801.974	946.67
802.154	217.6
802.334	244.22
802.514	217.6
802.693	182.78
802.873	301.56
803.053	315.9
803.233	244.22
803.413	326.14
803.592	197.12
803.772	283.13
803.952	197.12
804.131	209.4
804.311	266.75
804.491	244.22
804.67	209.4
804.85	197.12
805.03	242.17
805.209	193.02
805.389	188.93
805.568	180.73
805.748	186.88
805.928	258.56
806.107	201.21
806.287	258.56
806.466	219.64
806.646	145.92
806.825	209.4
807.004	225.79
807.184	182.78
807.363	217.6
807.543	193.02
807.722	111.1
807.901	238.08
808.081	256.51
808.26	162.3
808.439	178.69
808.619	266.75
808.798	209.4
808.977	201.21
809.156	225.79
809.336	143.87
809.515	184.83
809.694	131.58
809.873	168.45
810.052	219.64
810.231	233.98
810.411	231.93
810.59	199.16
810.769	176.64
810.948	170.49
811.127	164.35
811.306	137.73
811.485	164.35
811.664	211.45
811.843	199.16
812.022	193.02
812.201	150.01
812.38	104.96
812.559	205.31
812.737	164.35
812.916	193.02
813.095	164.35
813.274	186.88
813.453	236.03
813.632	135.68
813.811	182.78
813.989	123.39
814.168	184.83
814.347	160.25
814.526	119.29
814.704	182.78
814.883	178.69
815.062	195.07
815.24	102.91
815.419	154.11
815.598	135.68
815.776	143.87
815.955	131.58
816.133	119.29
816.312	123.39
816.49	176.64
816.669	80.38
816.847	33.28
817.026	190.97
817.204	139.77
817.383	88.57
817.561	86.53
817.74	125.44
817.918	150.01
818.097	119.29
818.275	152.06
818.453	184.83
818.632	139.77
818.81	174.59
818.988	102.91
819.167	193.02
819.345	131.58
819.523	178.69
819.701	164.35
819.879	156.16
820.058	111.1
820.236	168.45
820.414	102.91
820.592	51.71
820.77	119.29
820.948	98.81
821.127	176.64
821.305	147.97
821.483	55.81
821.661	88.57
821.839	119.29
822.017	61.95
822.195	119.29
822.373	168.45
822.551	78.33
822.729	66.05
822.907	102.91
823.085	178.69
823.262	111.1
823.44	98.81
823.618	135.68
823.796	172.54
823.974	98.81
824.152	90.62
824.329	100.86
824.507	186.88
824.685	94.72
824.863	195.07
825.04	49.66
825.218	156.16
825.396	53.76
825.574	104.96
825.751	141.82
825.929	129.53
826.107	92.67
826.284	107.01
826.462	184.83
826.639	162.3
826.817	152.06
826.994	104.96
827.172	29.18
827.349	115.2
827.527	131.58
827.704	102.91
827.882	94.72
828.059	90.62
828.237	113.15
828.414	113.15
828.591	74.24
828.769	158.21
828.946	39.42
829.124	70.14
829.301	225.79
829.478	135.68
829.655	121.34
829.833	70.14
830.01	0.51
830.187	168.45
830.364	111.1
830.542	143.87
830.719	131.58
830.896	156.16
831.073	37.38
831.25	94.72
831.427	98.81
831.604	88.57
831.782	41.47
831.959	119.29
832.136	78.33
832.313	35.33
832.49	141.82
832.667	137.73
832.844	41.47
833.021	168.45
833.198	133.63
833.374	115.2
833.551	150.01
833.728	137.73
833.905	70.14
834.082	88.57
834.259	45.57
834.436	119.29
834.612	86.53
834.789	33.28
834.966	96.77
835.143	104.96
835.319	20.99
835.496	78.33
835.673	45.57
835.85	141.82
836.026	80.38
836.203	88.57
836.38	76.29
836.556	31.23
836.733	74.24
836.909	115.2
837.086	53.76
837.262	80.38
837.439	43.52
837.616	-3.58
837.792	37.38
837.968	37.38
838.145	119.29
838.321	90.62
838.498	82.43
838.674	86.53
838.851	53.76
839.027	68.09
839.203	121.34
839.38	119.29
839.556	6.66
839.732	74.24
839.909	78.33
840.085	121.34
840.261	41.47
840.437	66.05
840.614	37.38
840.79	0.51
840.966	35.33
841.142	31.23
841.318	113.15
841.494	94.72
841.671	90.62
841.847	-11.78
842.023	68.09
842.199	66.05
842.375	100.86
842.551	53.76
842.727	66.05
842.903	102.91
843.079	82.43
843.255	145.92
843.431	57.86
843.607	66.05
843.783	-28.16
843.959	111.1
844.134	-44.54
844.31	113.15
844.486	6.66
844.662	45.57
844.838	41.47
845.013	94.72
845.189	70.14
845.365	59.9
845.541	55.81
845.716	41.47
845.892	64
846.068	33.28
846.244	4.61
846.419	98.81
846.595	-28.16
846.77	53.76
846.946	94.72
847.122	57.86
847.297	74.24
847.473	102.91
847.648	23.04
847.824	70.14
847.999	37.38
848.175	29.18
848.35	8.7
848.526	43.52
848.701	86.53
848.876	61.95
849.052	86.53
849.227	12.8
849.403	2.56
849.578	0.51
849.753	61.95
849.929	86.53
850.104	16.9
850.279	-24.06
850.454	94.72
850.63	70.14
850.805	43.52
850.98	29.18
851.155	25.09
851.33	113.15
851.505	57.86
851.681	137.73
851.856	20.99
852.031	66.05
852.206	55.81
852.381	55.81
852.556	2.56
852.731	49.66
852.906	57.86
853.081	41.47
853.256	8.7
853.431	37.38
853.606	-65.02
853.781	119.29
853.956	-9.73
854.131	61.95
854.305	57.86
854.48	-17.92
854.655	84.48
854.83	-1.54
855.005	-60.93
855.18	70.14
855.354	49.66
855.529	135.68
855.704	-52.74
855.879	90.62
856.053	29.18
856.228	100.86
856.403	-7.68
856.577	33.28
856.752	33.28
856.926	-11.78
857.101	14.85
857.276	70.14
857.45	20.99
857.625	111.1
857.799	123.39
857.974	-15.87
858.148	-32.26
858.323	20.99
858.497	55.81
858.672	53.76
858.846	29.18
859.02	33.28
859.195	-46.59
859.369	39.42
859.543	35.33
859.718	88.57
859.892	53.76
860.066	37.38
860.241	4.61
860.415	57.86
860.589	-15.87
860.763	-5.63
860.938	31.23
861.112	82.43
861.286	-17.92
861.46	57.86
861.634	90.62
861.808	82.43
861.982	47.62
862.157	29.18
862.331	86.53
862.505	37.38
862.679	-40.45
862.853	64
863.027	23.04
863.201	90.62
863.375	4.61
863.549	23.04
863.722	12.8
863.896	61.95
864.07	-52.74
864.244	74.24
864.418	-7.68
864.592	35.33
864.766	-7.68
864.939	39.42
865.113	-26.11
865.287	123.39
865.461	-15.87
865.634	100.86
865.808	47.62
865.982	45.57
866.156	-13.82
866.329	-44.54
866.503	4.61
866.676	74.24
866.85	49.66
867.024	8.7
867.197	14.85
867.371	121.34
867.544	78.33
867.718	-15.87
867.891	59.9
868.065	0.51
868.238	-17.92
868.412	57.86
868.585	4.61
868.759	37.38
868.932	37.38
869.105	29.18
869.279	-15.87
869.452	41.47
869.625	6.66
869.799	20.99
869.972	47.62
870.145	31.23
870.319	-105.98
870.492	35.33
870.665	2.56
870.838	-34.3
871.011	2.56
871.185	74.24
871.358	-5.63
871.531	-11.78
871.704	-52.74
871.877	18.94
872.05	68.09
872.223	-7.68
872.396	-15.87
872.569	59.9
872.742	-34.3
872.915	111.1
873.088	-28.16
873.261	31.23
873.434	39.42
873.607	49.66
873.78	47.62
873.953	-40.45
874.126	12.8
874.299	39.42
874.471	31.23
874.644	29.18
874.817	72.19
874.99	119.29
875.163	-36.35
875.335	45.57
875.508	-11.78
875.681	53.76
875.853	-7.68
876.026	61.95
876.199	43.52
876.371	23.04
876.544	6.66
876.717	45.57
876.889	-3.58
877.062	80.38
877.234	-38.4
877.407	53.76
877.579	29.18
877.752	20.99
877.924	-32.26
878.097	37.38
878.269	39.42
878.442	-26.11
878.614	47.62
878.786	-11.78
878.959	-42.5
879.131	33.28
879.303	12.8
879.476	-9.73
879.648	64
879.82	33.28
879.993	-1.54
880.165	-46.59
880.337	-1.54
880.509	18.94
880.681	-42.5
880.854	-3.58
881.026	-26.11
881.198	90.62
881.37	27.14
881.542	64
881.714	12.8
881.886	-3.58
882.058	0.51
882.23	14.85
882.402	-1.54
882.574	-11.78
882.746	45.57
882.918	-9.73
883.09	47.62
883.262	23.04
883.434	-3.58
883.606	-34.3
883.778	72.19
883.95	14.85
884.122	-54.78
884.293	25.09
884.465	12.8
884.637	45.57
884.809	-19.97
884.98	88.57
885.152	-24.06
885.324	53.76
885.496	31.23
885.667	66.05
885.839	29.18
886.011	57.86
886.182	23.04
886.354	94.72
886.525	29.18
886.697	86.53
886.869	66.05
887.04	20.99
887.212	80.38
887.383	61.95
887.555	-32.26
887.726	8.7
887.897	-34.3
888.069	57.86
888.24	33.28
888.412	102.91
888.583	35.33
888.754	53.76
888.926	-3.58
889.097	-19.97
889.268	-54.78
889.44	-24.06
889.611	14.85
889.782	80.38
889.953	-65.02
890.125	29.18
890.296	-42.5
890.467	35.33
890.638	-7.68
890.809	-1.54
890.98	57.86
891.151	-15.87
891.323	-3.58
891.494	20.99
891.665	57.86
891.836	-11.78
892.007	39.42
892.178	6.66
892.349	29.18
892.52	-22.02
892.691	33.28
892.862	-19.97
893.032	-42.5
893.203	-9.73
893.374	-28.16
893.545	55.81
893.716	-1.54
893.887	37.38
894.057	6.66
894.228	-30.21
894.399	0.51
894.57	53.76
894.74	-11.78
894.911	53.76
895.082	-36.35
895.253	-46.59
895.423	-19.97
895.594	45.57
895.764	61.95
895.935	57.86
896.106	16.9
896.276	37.38
896.447	45.57
896.617	25.09
896.788	-77.31
896.958	-28.16
897.129	-28.16
897.299	86.53
897.47	127.49
897.64	70.14
897.81	-19.97
897.981	-9.73
898.151	33.28
898.322	45.57
898.492	16.9
898.662	33.28
898.832	-38.4
899.003	29.18
899.173	-44.54
899.343	4.61
899.513	-44.54
