Data from USB4F104151__124__14-31-18-660.txt Node

Date: Thu Mar 13 14:31:18 EDT 2025
User: louis
Spectrometer: USB4F10415
Trigger mode: 4
Integration Time (sec): 2.500000E-2
Scans to average: 1
Electric dark correction enabled: true
Nonlinearity correction enabled: false
Boxcar width: 0
XAxis mode: Wavelengths
Number of Pixels in Spectrum: 3648
>>>>>Begin Spectral Data<<<<<
178.204	-106.84
178.424	-106.84
178.644	-106.84
178.864	-168.27
179.084	-123.22
179.304	-10.58
179.524	7.85
179.744	11.95
179.964	69.29
180.184	-82.26
180.404	-0.34
180.624	57
180.844	-8.53
181.064	-41.3
181.283	20.14
181.503	-20.82
181.723	-2.39
181.943	32.43
182.163	36.52
182.383	16.04
182.602	54.95
182.822	126.63
183.042	69.29
183.262	81.58
183.482	28.33
183.701	28.33
183.921	24.23
184.141	-0.34
184.361	93.87
184.58	87.72
184.8	71.34
185.02	46.76
185.239	85.67
185.459	46.76
185.679	61.1
185.898	46.76
186.118	34.47
186.338	9.9
186.557	89.77
186.777	-12.63
186.997	42.67
187.216	20.14
187.436	85.67
187.655	151.21
187.875	69.29
188.095	57
188.314	52.91
188.534	110.25
188.753	-0.34
188.973	134.82
189.192	100.01
189.412	108.2
189.631	5.8
189.851	18.09
190.07	75.43
190.29	28.33
190.509	38.57
190.729	34.47
190.948	114.34
191.168	134.82
191.387	155.3
191.607	-18.77
191.826	69.29
192.045	44.71
192.265	36.52
192.484	11.95
192.704	-29.01
192.923	-2.39
193.142	124.58
193.362	52.91
193.581	59.05
193.8	3.75
194.02	75.43
194.239	3.75
194.458	106.15
194.678	36.52
194.897	110.25
195.116	20.14
195.335	28.33
195.555	81.58
195.774	73.39
195.993	46.76
196.212	87.72
196.432	44.71
196.651	40.62
196.87	-8.53
197.089	106.15
197.308	85.67
197.528	87.72
197.747	-22.87
197.966	7.85
198.185	69.29
198.404	3.75
198.623	112.3
198.842	87.72
199.062	54.95
199.281	93.87
199.5	28.33
199.719	106.15
199.938	61.1
200.157	140.97
200.376	87.72
200.595	136.87
200.814	61.1
201.033	-10.58
201.252	54.95
201.471	52.91
201.69	40.62
201.909	73.39
202.128	57
202.347	38.57
202.566	52.91
202.785	3.75
203.004	-33.11
203.223	79.53
203.442	63.15
203.661	54.95
203.879	-6.49
204.098	24.23
204.317	28.33
204.536	151.21
204.755	-20.82
204.974	81.58
205.193	46.76
205.411	89.77
205.63	114.34
205.849	34.47
206.068	89.77
206.287	30.38
206.505	36.52
206.724	11.95
206.943	38.57
207.162	104.11
207.381	102.06
207.599	65.19
207.818	89.77
208.037	-33.11
208.255	26.28
208.474	38.57
208.693	95.91
208.911	69.29
209.13	30.38
209.349	171.69
209.567	122.54
209.786	65.19
210.005	44.71
210.223	44.71
210.442	5.8
210.661	134.82
210.879	77.48
211.098	20.14
211.316	104.11
211.535	97.96
211.753	7.85
211.972	48.81
212.191	28.33
212.409	63.15
212.628	93.87
212.846	63.15
213.065	85.67
213.283	114.34
213.502	73.39
213.72	104.11
213.938	16.04
214.157	13.99
214.375	54.95
214.594	36.52
214.812	179.88
215.031	-37.2
215.249	24.23
215.467	61.1
215.686	40.62
215.904	69.29
216.122	69.29
216.341	97.96
216.559	5.8
216.778	112.3
216.996	75.43
217.214	18.09
217.432	81.58
217.651	7.85
217.869	26.28
218.087	-6.49
218.306	75.43
218.524	77.48
218.742	28.33
218.96	36.52
219.179	30.38
219.397	20.14
219.615	110.25
219.833	22.19
220.051	75.43
220.27	110.25
220.488	77.48
220.706	-8.53
220.924	57
221.142	-4.44
221.36	48.81
221.578	97.96
221.796	69.29
222.015	67.24
222.233	77.48
222.451	102.06
222.669	22.19
222.887	11.95
223.105	7.85
223.323	46.76
223.541	30.38
223.759	138.92
223.977	-4.44
224.195	120.49
224.413	91.82
224.631	175.78
224.849	89.77
225.067	181.93
225.285	69.29
225.503	102.06
225.721	34.47
225.939	61.1
226.157	5.8
226.375	110.25
226.592	65.19
226.81	-20.82
227.028	134.82
227.246	50.86
227.464	67.24
227.682	81.58
227.9	46.76
228.117	54.95
228.335	16.04
228.553	30.38
228.771	1.71
228.989	93.87
229.206	54.95
229.424	83.63
229.642	73.39
229.86	89.77
230.077	161.45
230.295	91.82
230.513	77.48
230.731	71.34
230.948	124.58
231.166	9.9
231.384	-10.58
231.601	40.62
231.819	104.11
232.037	59.05
232.254	24.23
232.472	95.91
232.689	106.15
232.907	143.02
233.125	120.49
233.342	11.95
233.56	-33.11
233.777	77.48
233.995	79.53
234.213	93.87
234.43	54.95
234.648	85.67
234.865	36.52
235.083	77.48
235.3	52.91
235.518	116.39
235.735	87.72
235.953	69.29
236.17	32.43
236.388	13.99
236.605	38.57
236.822	118.44
237.04	-0.34
237.257	97.96
237.475	1.71
237.692	-4.44
237.909	73.39
238.127	22.19
238.344	128.68
238.562	63.15
238.779	24.23
238.996	38.57
239.214	34.47
239.431	48.81
239.648	-26.96
239.865	16.04
240.083	85.67
240.3	61.1
240.517	-43.35
240.735	77.48
240.952	110.25
241.169	134.82
241.386	69.29
241.603	46.76
241.821	50.86
242.038	183.98
242.255	77.48
242.472	3.75
242.689	95.91
242.907	54.95
243.124	36.52
243.341	87.72
243.558	44.71
243.775	42.67
243.992	143.02
244.209	93.87
244.426	97.96
244.643	69.29
244.86	-37.2
245.078	106.15
245.295	46.76
245.512	112.3
245.729	46.76
245.946	110.25
246.163	114.34
246.38	130.73
246.597	59.05
246.814	69.29
247.031	28.33
247.248	18.09
247.464	48.81
247.681	30.38
247.898	65.19
248.115	85.67
248.332	-10.58
248.549	112.3
248.766	110.25
248.983	71.34
249.2	54.95
249.417	63.15
249.633	-65.88
249.85	79.53
250.067	87.72
250.284	87.72
250.501	48.81
250.717	118.44
250.934	28.33
251.151	38.57
251.368	63.15
251.585	69.29
251.801	22.19
252.018	-2.39
252.235	73.39
252.451	30.38
252.668	22.19
252.885	85.67
253.102	106.15
253.318	77.48
253.535	87.72
253.752	16.04
253.968	57
254.185	44.71
254.401	114.34
254.618	28.33
254.835	52.91
255.051	110.25
255.268	97.96
255.484	79.53
255.701	95.91
255.917	97.96
256.134	20.14
256.351	22.19
256.567	-0.34
256.784	61.1
257	-41.3
257.217	-43.35
257.433	91.82
257.65	28.33
257.866	57
258.082	102.06
258.299	30.38
258.515	52.91
258.732	30.38
258.948	-20.82
259.165	65.19
259.381	65.19
259.597	77.48
259.814	-24.92
260.03	3.75
260.246	85.67
260.463	28.33
260.679	97.96
260.895	110.25
261.112	61.1
261.328	85.67
261.544	89.77
261.761	102.06
261.977	24.23
262.193	-55.64
262.409	118.44
262.626	87.72
262.842	28.33
263.058	52.91
263.274	44.71
263.49	87.72
263.707	40.62
263.923	34.47
264.139	-0.34
264.355	52.91
264.571	114.34
264.787	104.11
265.004	77.48
265.22	32.43
265.436	7.85
265.652	50.86
265.868	20.14
266.084	13.99
266.3	69.29
266.516	69.29
266.732	89.77
266.948	61.1
267.164	149.16
267.38	79.53
267.596	110.25
267.812	128.68
268.028	69.29
268.244	-4.44
268.46	120.49
268.676	-2.39
268.892	36.52
269.108	30.38
269.324	36.52
269.54	95.91
269.756	75.43
269.972	-4.44
270.188	32.43
270.403	100.01
270.619	91.82
270.835	106.15
271.051	93.87
271.267	54.95
271.483	26.28
271.698	22.19
271.914	87.72
272.13	13.99
272.346	61.1
272.562	5.8
272.777	28.33
272.993	7.85
273.209	44.71
273.425	85.67
273.64	5.8
273.856	69.29
274.072	24.23
274.287	63.15
274.503	75.43
274.719	106.15
274.934	69.29
275.15	24.23
275.366	52.91
275.581	28.33
275.797	52.91
276.012	13.99
276.228	16.04
276.444	102.06
276.659	126.63
276.875	32.43
277.09	48.81
277.306	-4.44
277.521	91.82
277.737	-14.68
277.952	91.82
278.168	69.29
278.383	59.05
278.599	28.33
278.814	18.09
279.03	44.71
279.245	67.24
279.461	63.15
279.676	32.43
279.892	28.33
280.107	11.95
280.322	52.91
280.538	36.52
280.753	93.87
280.969	87.72
281.184	57
281.399	57
281.615	28.33
281.83	61.1
282.045	11.95
282.26	81.58
282.476	95.91
282.691	167.59
282.906	44.71
283.122	61.1
283.337	-4.44
283.552	122.54
283.767	73.39
283.983	73.39
284.198	18.09
284.413	128.68
284.628	32.43
284.843	65.19
285.058	87.72
285.274	28.33
285.489	59.05
285.704	126.63
285.919	46.76
286.134	85.67
286.349	77.48
286.564	46.76
286.779	77.48
286.995	54.95
287.21	36.52
287.425	102.06
287.64	77.48
287.855	57
288.07	28.33
288.285	120.49
288.5	50.86
288.715	108.2
288.93	50.86
289.145	32.43
289.36	93.87
289.575	5.8
289.79	48.81
290.004	61.1
290.219	159.4
290.434	38.57
290.649	57
290.864	59.05
291.079	73.39
291.294	106.15
291.509	85.67
291.724	65.19
291.938	89.77
292.153	104.11
292.368	11.95
292.583	73.39
292.798	77.48
293.012	54.95
293.227	79.53
293.442	71.34
293.657	69.29
293.871	59.05
294.086	126.63
294.301	93.87
294.516	46.76
294.73	46.76
294.945	11.95
295.16	46.76
295.374	40.62
295.589	52.91
295.804	3.75
296.018	81.58
296.233	32.43
296.447	102.06
296.662	-57.68
296.877	52.91
297.091	46.76
297.306	120.49
297.52	44.71
297.735	28.33
297.949	77.48
298.164	97.96
298.378	48.81
298.593	26.28
298.807	34.47
299.022	-20.82
299.236	116.39
299.451	57
299.665	44.71
299.88	28.33
300.094	61.1
300.309	16.04
300.523	126.63
300.737	63.15
300.952	87.72
301.166	40.62
301.381	85.67
301.595	97.96
301.809	63.15
302.024	134.82
302.238	97.96
302.452	93.87
302.667	100.01
302.881	118.44
303.095	61.1
303.309	38.57
303.524	22.19
303.738	61.1
303.952	16.04
304.166	79.53
304.381	36.52
304.595	89.77
304.809	36.52
305.023	85.67
305.237	-26.96
305.452	97.96
305.666	167.59
305.88	128.68
306.094	102.06
306.308	38.57
306.522	143.02
306.736	57
306.95	126.63
307.164	69.29
307.379	24.23
307.593	95.91
307.807	71.34
308.021	118.44
308.235	38.57
308.449	-10.58
308.663	104.11
308.877	126.63
309.091	61.1
309.305	143.02
309.519	11.95
309.733	120.49
309.947	20.14
310.161	95.91
310.374	-10.58
310.588	126.63
310.802	11.95
311.016	40.62
311.23	36.52
311.444	5.8
311.658	69.29
311.872	69.29
312.085	44.71
312.299	61.1
312.513	122.54
312.727	24.23
312.941	5.8
313.154	116.39
313.368	5.8
313.582	44.71
313.796	132.78
314.009	-35.16
314.223	77.48
314.437	44.71
314.651	85.67
314.864	97.96
315.078	61.1
315.292	-10.58
315.505	28.33
315.719	134.82
315.933	18.09
316.146	32.43
316.36	73.39
316.573	118.44
316.787	30.38
317.001	36.52
317.214	77.48
317.428	11.95
317.641	48.81
317.855	-65.88
318.068	118.44
318.282	106.15
318.495	93.87
318.709	118.44
318.922	7.85
319.136	202.41
319.349	89.77
319.563	-2.39
319.776	102.06
319.99	-37.2
320.203	28.33
320.417	30.38
320.63	134.82
320.843	130.73
321.057	110.25
321.27	126.63
321.483	93.87
321.697	93.87
321.91	38.57
322.124	85.67
322.337	44.71
322.55	79.53
322.763	93.87
322.977	79.53
323.19	28.33
323.403	20.14
323.617	93.87
323.83	83.63
324.043	69.29
324.256	81.58
324.469	95.91
324.683	116.39
324.896	32.43
325.109	44.71
325.322	71.34
325.535	63.15
325.748	44.71
325.962	20.14
326.175	93.87
326.388	52.91
326.601	124.58
326.814	65.19
327.027	106.15
327.24	167.59
327.453	50.86
327.666	110.25
327.879	91.82
328.092	79.53
328.305	52.91
328.518	-12.63
328.731	40.62
328.944	75.43
329.157	46.76
329.37	44.71
329.583	57
329.796	116.39
330.009	63.15
330.222	102.06
330.435	54.95
330.648	40.62
330.861	85.67
331.073	110.25
331.286	81.58
331.499	124.58
331.712	112.3
331.925	-0.34
332.138	71.34
332.35	71.34
332.563	-8.53
332.776	46.76
332.989	97.96
333.202	79.53
333.414	46.76
333.627	118.44
333.84	18.09
334.053	95.91
334.265	59.05
334.478	46.76
334.691	71.34
334.903	28.33
335.116	59.05
335.329	128.68
335.541	155.3
335.754	120.49
335.966	100.01
336.179	40.62
336.392	11.95
336.604	147.11
336.817	34.47
337.029	30.38
337.242	28.33
337.454	126.63
337.667	157.35
337.88	175.78
338.092	93.87
338.305	69.29
338.517	93.87
338.729	104.11
338.942	42.67
339.154	114.34
339.367	61.1
339.579	126.63
339.792	-10.58
340.004	79.53
340.217	126.63
340.429	42.67
340.641	97.96
340.854	69.29
341.066	-4.44
341.278	85.67
341.491	138.92
341.703	143.02
341.915	18.09
342.128	143.02
342.34	97.96
342.552	32.43
342.764	32.43
342.977	118.44
343.189	79.53
343.401	7.85
343.613	44.71
343.826	40.62
344.038	93.87
344.25	20.14
344.462	104.11
344.674	91.82
344.886	28.33
345.099	20.14
345.311	95.91
345.523	42.67
345.735	-67.92
345.947	108.2
346.159	69.29
346.371	52.91
346.583	93.87
346.795	216.74
347.007	22.19
347.219	36.52
347.431	110.25
347.643	122.54
347.855	126.63
348.067	104.11
348.279	-0.34
348.491	73.39
348.703	69.29
348.915	122.54
349.127	38.57
349.339	16.04
349.551	73.39
349.763	85.67
349.975	32.43
350.187	57
350.399	145.06
350.61	87.72
350.822	13.99
351.034	36.52
351.246	138.92
351.458	104.11
351.669	36.52
351.881	145.06
352.093	149.16
352.305	108.2
352.517	54.95
352.728	79.53
352.94	32.43
353.152	155.3
353.363	38.57
353.575	69.29
353.787	93.87
353.999	106.15
354.21	69.29
354.422	46.76
354.633	48.81
354.845	120.49
355.057	52.91
355.268	63.15
355.48	118.44
355.692	85.67
355.903	32.43
356.115	48.81
356.326	1.71
356.538	138.92
356.749	110.25
356.961	97.96
357.172	79.53
357.384	69.29
357.595	85.67
357.807	143.02
358.018	91.82
358.23	73.39
358.441	77.48
358.653	34.47
358.864	114.34
359.075	-16.73
359.287	85.67
359.498	63.15
359.709	102.06
359.921	87.72
360.132	36.52
360.344	61.1
360.555	28.33
360.766	102.06
360.977	112.3
361.189	89.77
361.4	7.85
361.611	130.73
361.823	93.87
362.034	7.85
362.245	26.28
362.456	30.38
362.667	40.62
362.879	77.48
363.09	52.91
363.301	67.24
363.512	132.78
363.723	118.44
363.935	5.8
364.146	128.68
364.357	59.05
364.568	100.01
364.779	85.67
364.99	126.63
365.201	126.63
365.412	85.67
365.623	89.77
365.834	112.3
366.045	69.29
366.256	61.1
366.467	13.99
366.678	67.24
366.889	153.26
367.1	5.8
367.311	97.96
367.522	63.15
367.733	120.49
367.944	132.78
368.155	46.76
368.366	75.43
368.577	79.53
368.788	120.49
368.999	85.67
369.209	151.21
369.42	132.78
369.631	155.3
369.842	67.24
370.053	95.91
370.264	149.16
370.474	69.29
370.685	77.48
370.896	143.02
371.107	32.43
371.317	-2.39
371.528	77.48
371.739	136.87
371.95	65.19
372.16	116.39
372.371	7.85
372.582	46.76
372.792	81.58
373.003	186.02
373.214	71.34
373.424	85.67
373.635	85.67
373.846	138.92
374.056	126.63
374.267	110.25
374.477	138.92
374.688	24.23
374.898	87.72
375.109	75.43
375.319	126.63
375.53	104.11
375.74	77.48
375.951	106.15
376.161	-29.01
376.372	136.87
376.582	116.39
376.793	81.58
377.003	44.71
377.214	112.3
377.424	120.49
377.635	46.76
377.845	163.5
378.055	118.44
378.266	16.04
378.476	71.34
378.686	69.29
378.897	77.48
379.107	73.39
379.317	48.81
379.528	112.3
379.738	102.06
379.948	-14.68
380.158	188.07
380.369	81.58
380.579	61.1
380.789	95.91
380.999	89.77
381.21	77.48
381.42	126.63
381.63	114.34
381.84	81.58
382.05	65.19
382.261	97.96
382.471	110.25
382.681	87.72
382.891	102.06
383.101	100.01
383.311	-26.96
383.521	126.63
383.731	112.3
383.941	143.02
384.151	173.74
384.361	112.3
384.571	36.52
384.781	81.58
384.991	108.2
385.201	132.78
385.411	50.86
385.621	130.73
385.831	85.67
386.041	147.11
386.251	89.77
386.461	89.77
386.671	126.63
386.881	216.74
387.091	87.72
387.301	89.77
387.511	79.53
387.72	149.16
387.93	134.82
388.14	106.15
388.35	67.24
388.56	134.82
388.769	112.3
388.979	106.15
389.189	67.24
389.399	177.83
389.609	87.72
389.818	102.06
390.028	128.68
390.238	163.5
390.447	128.68
390.657	140.97
390.867	118.44
391.076	122.54
391.286	122.54
391.496	112.3
391.705	114.34
391.915	231.08
392.125	118.44
392.334	114.34
392.544	136.87
392.753	132.78
392.963	118.44
393.172	71.34
393.382	77.48
393.591	190.12
393.801	134.82
394.01	169.64
394.22	161.45
394.429	149.16
394.639	167.59
394.848	159.4
395.058	155.3
395.267	200.36
395.477	200.36
395.686	126.63
395.895	229.03
396.105	265.89
396.314	143.02
396.524	102.06
396.733	112.3
396.942	183.98
397.152	210.6
397.361	206.5
397.57	175.78
397.78	147.11
397.989	151.21
398.198	175.78
398.407	104.11
398.617	120.49
398.826	136.87
399.035	85.67
399.244	104.11
399.453	181.93
399.663	226.98
399.872	267.94
400.081	118.44
400.29	186.02
400.499	177.83
400.708	210.6
400.917	194.22
401.127	77.48
401.336	151.21
401.545	231.08
401.754	186.02
401.963	206.5
402.172	153.26
402.381	134.82
402.59	192.17
402.799	183.98
403.008	237.22
403.217	304.81
403.426	233.13
403.635	204.46
403.844	163.5
404.053	186.02
404.262	235.18
404.471	257.7
404.68	278.18
404.888	247.46
405.097	259.75
405.306	241.32
405.515	245.41
405.724	284.33
405.933	327.33
406.142	265.89
406.35	278.18
406.559	308.9
406.768	226.98
406.977	300.71
407.185	321.19
407.394	310.95
407.603	267.94
407.812	315.05
408.02	323.24
408.229	413.35
408.438	372.39
408.646	372.39
408.855	417.44
409.064	468.64
409.272	384.68
409.481	472.74
409.69	380.58
409.898	454.31
410.107	485.03
410.315	521.89
410.524	487.08
410.733	499.36
410.941	503.46
411.15	614.05
411.358	579.23
411.567	675.49
411.775	642.72
411.984	716.45
412.192	720.54
412.401	683.68
412.609	751.26
412.818	839.33
413.026	798.37
413.234	927.39
413.443	831.13
413.651	933.53
413.86	870.05
414.068	990.88
414.276	945.82
414.485	978.59
414.693	1005.21
414.901	1126.04
415.11	1150.62
415.318	1048.22
415.526	1111.71
415.734	1197.72
415.943	1255.06
416.151	1281.69
416.359	1394.33
416.567	1408.66
416.776	1490.58
416.984	1406.61
417.192	1556.11
417.4	1554.07
417.608	1523.35
417.817	1658.51
418.025	1662.61
418.233	1857.17
418.441	1834.64
418.649	1848.97
418.857	2010.76
419.065	2072.2
419.273	2027.15
419.481	2119.31
419.689	2264.71
419.897	2326.15
420.105	2420.36
420.313	2506.37
420.521	2608.77
420.729	2633.35
420.937	2674.31
421.145	2774.66
421.353	2975.36
421.561	3118.72
421.769	3126.91
421.977	3231.35
422.185	3108.48
422.393	3321.46
422.601	3579.51
422.809	3612.28
423.017	3649.14
423.224	3745.39
423.432	3788.4
423.64	3954.29
423.848	4267.63
424.056	4066.92
424.263	4365.93
424.471	4591.2
424.679	4578.92
424.887	4861.54
425.094	4922.98
425.302	4961.89
425.51	5197.4
425.718	5389.91
425.925	5541.46
426.133	5541.46
426.341	5797.46
426.548	6213.2
426.756	6057.55
426.964	6288.97
427.171	6633.03
427.379	6762.05
427.586	6708.8
427.794	7173.69
428.001	7358.01
428.209	7712.31
428.417	7511.61
428.624	8269.36
428.832	8255.02
429.039	7966.26
429.247	7865.91
429.454	8992.29
429.662	9229.85
429.869	8697.38
430.076	9375.26
430.284	9283.1
430.491	9578.01
430.699	9965.07
430.906	9887.25
431.114	10380.81
431.321	10685.96
431.528	10980.87
431.736	11558.39
431.943	11785.72
432.15	11750.9
432.358	11728.38
432.565	12275.18
432.772	12381.68
432.979	12778.98
433.187	13207.01
433.394	13198.82
433.601	14028.24
433.808	14265.81
434.016	14112.21
434.223	14550.48
434.43	15437.25
434.637	15394.24
434.844	16151.99
435.052	16508.33
435.259	16428.46
435.466	16530.86
435.673	16444.85
435.88	17421.73
436.087	18339.22
436.294	18546.06
436.501	17946.01
436.708	18146.71
436.915	18603.41
437.122	19492.23
437.329	19920.25
437.537	20303.22
437.743	20784.49
437.95	20227.45
438.157	21890.4
438.364	22265.17
438.571	22322.52
438.778	22195.54
438.985	24184.12
439.192	23258.44
439.399	23948.61
439.606	23459.14
439.813	24900.91
440.02	26684.69
440.227	25802.02
440.433	25779.49
440.64	26625.3
440.847	26537.24
441.054	26815.76
441.261	28890.35
441.467	28460.28
441.674	28900.59
441.881	30045.41
442.088	29951.2
442.294	29658.34
442.501	30055.65
442.708	30848.21
442.914	31880.39
443.121	33334.45
443.328	32675
443.534	34589.85
443.741	33658.03
443.948	33217.71
444.154	35820.68
444.361	35613.84
444.568	35722.38
444.774	35648.65
444.981	36285.57
445.187	37405.81
445.394	38712.41
445.6	37981.29
445.807	41735.21
446.013	40158.28
446.22	40586.3
446.426	42249.25
446.633	42413.09
446.839	44141.58
447.046	42370.08
447.252	44864.51
447.459	44590.08
447.665	44518.4
447.871	46240.75
448.078	47954.89
448.284	45921.26
448.491	47002.59
448.697	48870.34
448.903	49767.35
449.11	49785.78
449.316	49216.44
449.522	49832.88
449.728	51225.5
449.935	51483.55
450.141	51655.57
450.347	52595.59
450.553	50795.43
450.76	51499.93
450.966	53531.51
451.172	53160.83
451.378	54319.98
451.584	53150.59
451.791	54227.82
451.997	54328.17
452.203	54874.98
452.409	54883.17
452.615	54913.89
452.821	52792.2
453.027	52102.03
453.233	54719.34
453.44	53076.86
453.646	53334.91
453.852	53474.17
454.058	54535.02
454.264	52474.76
454.47	53787.51
454.676	53009.28
454.882	54526.83
455.088	50211.76
455.294	50484.14
455.5	51594.14
455.705	51624.85
455.911	50158.51
456.117	48681.92
456.323	48604.1
456.529	45544.44
456.735	48145.36
456.941	46531.56
457.147	46210.03
457.352	44592.13
457.558	43838.48
457.764	44248.07
457.97	43600.91
458.176	42466.34
458.381	42642.46
458.587	40621.12
458.793	40322.12
458.999	38614.11
459.204	41086.01
459.41	40254.53
459.616	37493.87
459.821	37258.35
460.027	37348.46
460.233	36496.51
460.438	34751.64
460.644	35026.07
460.85	33455.28
461.055	32941.24
461.261	32906.42
461.466	30647.51
461.672	29486.31
461.878	31597.77
462.083	29422.83
462.289	29029.62
462.494	28380.41
462.7	27319.56
462.905	26682.64
463.111	27614.47
463.316	27761.92
463.522	27149.58
463.727	27147.53
463.932	27024.65
464.138	26621.2
464.343	26887.44
464.549	25734.43
464.754	27041.04
464.959	26760.47
465.165	26268.95
465.37	25230.63
465.575	24571.19
465.781	25302.31
465.986	25568.55
466.191	24581.43
466.397	24114.49
466.602	23190.86
466.807	24198.46
467.012	24077.63
467.218	23885.12
467.423	23604.55
467.628	23741.76
467.833	24653.11
468.038	23569.73
468.244	22941
468.449	23889.21
468.654	23127.37
468.859	22873.42
469.064	22811.98
469.269	21941.6
469.474	21937.5
469.679	22609.23
469.885	21970.27
470.09	21849.44
470.295	21761.37
470.5	21603.68
470.705	21552.48
470.91	21058.92
471.115	21063.02
471.32	21398.88
471.525	21228.9
471.73	20432.24
471.935	20518.26
472.139	19787.13
472.344	20067.7
472.549	19649.92
472.754	19789.18
472.959	19252.61
473.164	19225.99
473.369	18742.67
473.574	19373.44
473.778	18963.85
473.983	18916.75
474.188	19041.67
474.393	17790.36
474.598	18230.68
474.802	18001.3
475.007	17710.49
475.212	17692.06
475.417	16862.63
475.621	17284.51
475.826	17257.89
476.031	17102.25
476.235	16483.76
476.44	17065.38
476.645	16678.32
476.849	16649.64
477.054	16278.96
477.259	16272.82
477.463	16190.9
477.668	15656.38
477.872	15824.31
478.077	15717.82
478.282	15474.11
478.486	15128
478.691	14962.12
478.895	15009.22
479.1	14974.41
479.304	15037.89
479.509	14732.75
479.713	14757.32
479.918	14482.89
480.122	14185.94
480.326	14593.48
480.531	14511.57
480.735	14384.59
480.94	14321.1
481.144	14405.07
481.348	13987.29
481.553	13987.29
481.757	13856.22
481.961	13938.13
482.166	14235.09
482.37	14138.83
482.574	13719
482.778	13915.61
482.983	13960.66
483.187	13809.11
483.391	13714.91
483.595	13592.03
483.8	13669.85
484.004	14032.34
484.208	13835.74
484.412	13850.07
484.616	13909.46
484.821	13741.53
485.025	13792.73
485.229	13749.72
485.433	13585.88
485.637	13557.21
485.841	13546.97
486.045	13491.68
486.249	13909.46
486.453	13569.5
486.657	13628.89
486.861	13708.76
487.065	13512.16
487.269	13622.75
487.473	13372.89
487.677	13585.88
487.881	13972.95
488.085	13557.21
488.289	13848.02
488.493	13632.99
488.697	13825.5
488.901	13782.49
489.105	13659.61
489.309	13669.85
489.512	13663.71
489.716	14069.2
489.92	13827.54
490.124	13880.79
490.328	13825.5
490.531	14118.36
490.735	14126.55
490.939	13807.06
491.143	13987.29
491.346	14300.62
491.55	14159.31
491.754	14230.99
491.958	14093.78
492.161	14175.7
492.365	14284.24
492.569	14355.92
492.772	14282.19
492.976	14349.78
493.18	14296.53
493.383	14810.57
493.587	14865.86
493.79	14765.51
493.994	14822.86
494.197	14810.57
494.401	14945.73
494.605	15009.22
494.808	15193.54
495.012	15150.53
495.215	15232.45
495.419	15351.23
495.622	15334.85
495.825	15553.98
496.029	15388.1
496.232	15820.22
496.436	15701.44
496.639	16240.05
496.843	16285.11
497.046	16227.76
497.249	16586.16
497.453	16369.07
497.656	17145.25
497.859	16690.6
498.063	16956.84
498.266	17270.18
498.469	17313.19
498.673	17550.75
498.876	17606.05
499.079	17765.79
499.282	17776.03
499.485	18247.06
499.689	18288.02
499.892	18476.43
500.095	18371.99
500.298	19320.2
500.501	18777.48
500.705	19367.3
500.908	19328.39
501.111	19733.89
501.314	19901.82
501.517	19840.38
501.72	20118.9
501.923	20260.21
502.126	20645.23
502.329	20721.01
502.532	20979.05
502.735	21349.73
502.938	21583.2
503.141	21710.18
503.344	21824.86
503.547	22142.3
503.75	22390.1
503.953	22650.19
504.156	23414.09
504.359	22998.35
504.562	23139.66
504.765	23594.31
504.968	23989.56
505.17	23913.79
505.373	24053.05
505.576	24444.21
505.779	24495.41
505.982	24876.34
506.185	25056.56
506.387	25353.51
506.59	25642.28
506.793	25996.57
506.996	25761.06
507.198	26680.6
507.401	26608.92
507.604	26852.62
507.807	27426.06
508.009	27462.92
508.212	27477.26
508.415	28198.14
508.617	28282.11
508.82	28830.96
509.022	28212.48
509.225	29207.79
509.428	29119.73
509.63	29644.01
509.833	29240.56
510.035	30219.49
510.238	30227.68
510.44	30457.05
510.643	31016.15
510.845	31591.62
511.048	31177.93
511.25	31577.29
511.453	31898.82
511.655	33113.27
511.858	32591.03
512.06	32771.25
512.262	33062.07
512.465	32869.56
512.667	33526.96
512.87	33799.33
513.072	33862.82
513.274	34495.64
513.477	34983.06
513.679	35046.55
513.881	35636.36
514.084	35593.36
514.286	35937.41
514.488	35880.07
514.69	36793.47
514.893	37151.86
515.095	36932.73
515.297	37565.55
515.499	37454.96
515.701	38050.92
515.904	38376.55
516.106	38151.27
516.308	39281.75
516.51	39119.96
516.712	39246.93
516.914	39580.75
517.116	40279.11
517.318	40631.36
517.52	40483.9
517.722	40518.72
517.925	41385.01
518.127	41702.45
518.329	41780.27
518.531	41722.93
518.733	42417.19
518.935	42828.83
519.136	42570.79
519.338	43291.67
519.54	43316.25
519.742	43373.59
519.944	44112.91
520.146	44438.53
520.348	44518.4
520.55	44280.84
520.752	44835.84
520.954	45859.82
521.155	44745.73
521.357	45695.99
521.559	46310.38
521.761	46494.69
521.963	46293.99
522.164	46511.08
522.366	46799.84
522.568	47211.48
522.77	46920.67
522.971	47801.3
523.173	47502.29
523.375	48284.62
523.576	47743.95
523.778	47961.04
523.98	48796.61
524.181	48407.5
524.383	48554.95
524.584	49155
524.786	48974.78
524.988	48346.06
525.189	49169.34
525.391	49593.27
525.592	49607.61
525.794	50301.87
525.995	49658.8
526.197	49685.43
526.398	49972.14
526.6	50176.94
526.801	50572.2
527.003	50488.23
527.204	50647.97
527.406	51071.9
527.607	50365.35
527.808	50854.82
528.01	50172.85
528.211	50627.49
528.412	51700.63
528.614	51366.81
528.815	51198.88
529.016	51483.55
529.218	50781.09
529.419	51291.04
529.62	51239.84
529.822	50985.89
530.023	51215.26
530.224	51166.11
530.425	51227.55
530.626	51217.31
530.828	51086.24
531.029	51839.89
531.23	51092.38
531.431	51346.33
531.632	51381.15
531.833	51717.01
532.035	51307.42
532.236	51590.04
532.437	51872.66
532.638	51143.58
532.839	51321.76
533.04	51538.84
533.241	50846.63
533.442	51544.98
533.643	51020.7
533.844	51026.85
534.045	51307.42
534.246	50987.94
534.447	51544.98
534.648	51110.81
534.849	51301.28
535.05	50992.03
535.251	51114.91
535.451	50996.13
535.652	50838.43
535.853	50471.85
536.054	51422.11
536.255	51049.38
536.456	50619.3
536.657	51057.57
536.857	50652.07
537.058	50617.25
537.259	51018.66
537.46	50875.3
537.66	50389.93
537.861	50480.04
538.062	50445.22
538.263	50801.57
538.463	50508.71
538.664	50789.28
538.865	50690.98
539.065	50783.14
539.266	50156.46
539.466	50756.52
539.667	49922.99
539.868	50480.04
540.068	49992.62
540.269	50019.25
540.469	50514.86
540.67	50215.85
540.87	50410.41
541.071	50203.56
541.271	50430.89
541.472	49976.24
541.672	49992.62
541.873	49570.74
542.073	49750.96
542.274	50279.34
542.474	49955.76
542.675	49941.42
542.875	49796.02
543.075	50090.93
543.276	49155
543.476	50389.93
543.676	49677.24
543.877	50078.64
544.077	49886.13
544.277	49472.44
544.478	49853.36
544.678	49980.34
544.878	49925.04
545.078	49953.71
545.279	49742.77
545.479	49667
545.679	49623.99
545.879	49757.11
546.079	49691.57
546.28	49673.14
546.48	49157.05
546.68	49798.07
546.88	49724.34
547.08	49562.55
547.28	49636.28
547.48	49429.43
547.68	49744.82
547.88	49306.55
548.081	49759.16
548.281	49812.4
548.481	49505.21
548.681	49826.74
548.881	49150.91
549.081	49253.31
549.28	49157.05
549.48	49673.14
549.68	49537.97
549.88	50142.13
550.08	49290.17
550.28	49638.33
550.48	49550.26
550.68	49871.79
550.88	48989.12
551.08	49271.74
551.279	49118.14
551.479	49036.22
551.679	49212.35
551.879	49306.55
552.079	49669.04
552.278	49288.12
552.478	49859.51
552.678	49681.33
552.878	49806.26
553.077	49290.17
553.277	49157.05
553.477	50027.44
553.676	49587.13
553.876	49566.65
554.076	49198.01
554.275	49259.45
554.475	49157.05
554.674	49548.21
554.874	49728.44
555.074	49310.65
555.273	49767.35
555.473	49730.48
555.672	49243.07
555.872	49210.3
556.071	49241.02
556.271	49591.22
556.47	49484.73
556.67	49513.4
556.869	49269.69
557.068	49476.54
557.268	49316.79
557.467	49533.88
557.667	49525.69
557.866	49488.82
558.065	49179.58
558.265	49431.48
558.464	49126.33
558.663	49628.09
558.863	49292.22
559.062	50006.96
559.261	49298.36
559.461	49861.55
559.66	48458.7
559.859	49275.83
560.058	49245.12
560.258	49583.03
560.457	48952.26
560.656	49736.63
560.855	49048.51
561.054	49544.12
561.253	48991.17
561.453	49056.7
561.652	49214.4
561.851	49755.06
562.05	48972.74
562.249	48513.99
562.448	49210.3
562.647	49191.87
562.846	49228.73
563.045	49185.72
563.244	48790.47
563.443	49355.71
563.642	48333.77
563.841	48829.38
564.04	48264.14
564.239	49439.67
564.438	48440.26
564.637	48552.9
564.836	48874.43
565.035	48298.95
565.234	48587.72
565.432	48407.5
565.631	48481.22
565.83	48890.82
566.029	48559.05
566.228	48382.92
566.427	47938.51
566.625	47467.48
566.824	47201.24
567.023	48225.23
567.222	47375.32
567.42	48366.54
567.619	47750.1
567.818	47870.93
568.016	48247.75
568.215	47952.85
568.414	47506.39
568.612	47727.57
568.811	47514.58
569.01	47686.61
569.208	47385.56
569.407	47268.83
569.605	46830.56
569.804	47342.55
570.002	46859.23
570.201	46812.13
570.4	46373.86
570.598	46877.66
570.797	46631.91
570.995	46953.44
571.193	46289.9
571.392	47211.48
571.59	46382.05
571.789	46463.97
571.987	46357.48
572.186	46136.3
572.384	45790.19
572.582	46447.59
572.781	46019.56
572.979	45261.82
573.177	45956.08
573.376	45874.16
573.574	45392.89
573.772	45810.67
573.971	45683.7
574.169	44964.86
574.367	44430.34
574.565	45782
574.763	44942.33
574.962	44944.38
575.16	44620.8
575.358	44405.77
575.556	44475.4
575.754	44854.27
575.952	44030.99
576.151	44409.86
576.349	44174.34
576.547	44153.86
576.745	44223.5
576.943	44141.58
577.141	44069.9
577.339	44055.56
577.537	43582.48
577.735	43562
577.933	43119.64
578.131	43590.67
578.329	42863.64
578.527	43201.56
578.725	43299.86
578.923	43191.32
579.121	42927.13
579.319	42751.01
579.516	43095.07
579.714	43103.26
579.912	42200.1
580.11	42617.89
580.308	42322.98
580.506	42411.04
580.704	41704.49
580.901	42066.98
581.099	42550.31
581.297	41837.61
581.495	41681.97
581.692	42355.75
581.89	41266.23
582.088	41966.63
582.285	41475.12
582.483	41620.53
582.681	41098.3
582.878	41215.03
583.076	40559.68
583.274	41215.03
583.471	40625.21
583.669	41026.62
583.866	40664.13
584.064	40692.8
584.262	40266.82
584.459	40823.87
584.657	40426.56
584.854	40600.64
585.052	39611.47
585.249	40318.02
585.447	40199.24
585.644	39957.58
585.841	40019.02
586.039	40256.58
586.236	39455.82
586.434	39455.82
586.631	39707.72
586.828	39199.83
587.026	39447.63
587.223	39240.79
587.42	39142.49
587.618	38820.95
587.815	38892.63
588.012	38816.86
588.21	38503.52
588.407	38833.24
588.604	38550.62
588.801	38397.02
588.999	38345.83
589.196	38292.58
589.393	38356.07
589.59	38327.39
589.787	38136.93
589.984	37950.57
590.182	37756.01
590.379	38210.66
590.576	37608.56
590.773	37913.7
590.97	37700.72
591.167	37799.02
591.364	36934.78
591.561	37878.89
591.758	37178.48
591.955	37184.63
592.152	37315.7
592.349	37053.56
592.546	37188.72
592.743	37006.45
592.94	36484.22
593.137	36721.79
593.334	36738.17
593.531	36277.38
593.727	36772.99
593.924	36740.22
594.121	36252.8
594.318	36762.75
594.515	35837.06
594.712	36426.88
594.908	36144.26
595.105	36123.78
595.302	35812.49
595.499	36168.83
595.696	35824.78
595.892	35718.28
596.089	36197.51
596.286	36027.52
596.482	35394.7
596.679	35482.77
596.876	35742.86
597.072	35224.72
597.269	35484.81
597.466	35380.37
597.662	35036.31
597.859	35445.9
598.055	35462.29
598.252	35007.64
598.448	34878.61
598.645	35038.36
598.841	34454.68
599.038	34768.02
599.234	35030.16
599.431	34704.54
599.627	34741.4
599.824	34866.33
600.02	34503.84
600.217	34704.54
600.413	34784.41
600.609	34720.92
600.806	34438.3
601.002	34682.01
601.198	34202.78
601.395	34178.21
601.591	34278.56
601.787	34362.53
601.984	34053.28
602.18	34405.53
602.376	34069.67
602.572	34135.2
602.769	34282.66
602.965	33471.66
603.161	33776.81
603.357	34006.18
603.553	33961.12
603.75	33721.51
603.946	33776.81
604.142	34137.25
604.338	33903.78
604.534	33676.46
604.73	33350.83
604.926	33498.28
605.122	33823.91
605.318	33950.88
605.514	33457.32
605.71	33703.08
605.906	33637.55
606.102	33551.53
606.298	33486
606.494	33309.87
606.69	33655.98
606.886	33602.73
607.082	33529
607.278	33598.63
607.474	33176.75
607.67	33621.16
607.866	32828.6
608.062	33541.29
608.257	33230
608.453	33629.35
608.649	33543.34
608.845	33160.37
609.041	33373.36
609.236	33440.94
609.432	33230
609.628	33709.22
609.824	33225.9
610.019	33156.27
610.215	33234.1
610.411	33680.55
610.606	33184.94
610.802	33574.06
610.998	33436.84
611.193	33127.6
611.389	33307.82
611.584	33289.39
611.78	32959.67
611.976	33166.51
612.171	33227.95
612.367	33328.3
612.562	33035.44
612.758	32675
612.953	32707.77
613.149	33113.27
613.344	33428.65
613.539	33797.29
613.735	33010.87
613.93	33213.62
614.126	33207.47
614.321	33021.11
614.517	33168.56
614.712	33025.2
614.907	32883.89
615.103	33440.94
615.298	33000.63
615.493	33242.29
615.688	32683.19
615.884	33330.35
616.079	32767.16
616.274	32586.94
616.47	32484.54
616.665	32703.67
616.86	32474.3
617.055	32769.21
617.25	32330.94
617.445	32955.57
617.641	32128.19
617.836	32570.55
618.031	32158.91
618.226	32791.73
618.421	32113.86
618.616	32543.93
618.811	32093.38
619.006	32335.04
619.201	31812.81
619.396	32206.02
619.591	31548.62
619.786	31956.16
619.981	31651.02
620.176	31597.77
620.371	31214.8
620.566	31452.36
620.761	31413.45
620.956	31386.83
621.151	31151.31
621.346	31114.45
621.541	30620.89
621.735	30938.32
621.93	30409.95
622.125	30481.63
622.32	30188.77
622.515	30395.61
622.709	30264.54
622.904	29904.1
623.099	29756.64
623.294	29846.76
623.488	29369.58
623.683	29514.98
623.878	29330.67
624.072	29570.28
624.267	29142.25
624.462	29457.64
624.656	28751.09
624.851	29068.53
625.046	28577.01
625.24	28820.72
625.435	28120.32
625.629	28140.8
625.824	28155.13
626.018	28038.4
626.213	27448.58
626.407	27847.94
626.602	27270.41
626.796	27483.4
626.991	27487.5
627.185	27028.75
627.38	27049.23
627.574	26602.77
627.768	26678.55
627.963	26447.13
628.157	26469.65
628.352	26520.85
628.546	26119.45
628.74	26365.21
628.935	25720.1
629.129	26168.6
629.323	25521.45
629.517	25900.32
629.712	25500.97
629.906	25546.02
630.1	25365.8
630.294	25488.68
630.489	25070.89
630.683	24855.86
630.877	24583.48
631.071	24896.81
631.265	24771.89
631.459	24261.94
631.653	24298.81
631.848	24309.05
632.042	24055.1
632.236	24331.58
632.43	23833.92
632.624	23737.66
632.818	23881.02
633.012	23323.97
633.206	23481.67
633.4	23358.79
633.594	23137.61
633.788	23240.01
633.982	23246.15
634.176	22826.32
634.369	22854.99
634.563	22889.81
634.757	22553.94
634.951	22814.03
635.145	22256.98
635.339	22248.79
635.533	21978.46
635.726	21878.11
635.92	21671.26
636.114	21841.25
636.308	21482.85
636.501	21628.26
636.695	21509.47
636.889	21200.23
637.083	21138.79
637.276	20757.87
637.47	21267.81
637.664	20837.74
637.857	20850.03
638.051	20870.51
638.244	20522.35
638.438	20266.36
638.632	20540.79
638.825	20055.42
639.019	20063.61
639.212	19926.39
639.406	19879.29
639.599	19678.59
639.793	19668.35
639.986	19352.96
640.18	19541.38
640.373	19434.88
640.567	19090.82
640.76	19084.68
640.954	18945.42
641.147	18795.92
641.34	18875.79
641.534	18582.93
641.727	18730.38
641.92	18566.54
642.114	18357.65
642.307	18374.03
642.5	18312.6
642.694	17976.73
642.887	17726.88
643.08	18230.68
643.273	17819.03
643.467	17769.88
643.66	17509.79
643.853	17681.82
644.046	17382.82
644.239	17374.63
644.432	17083.81
644.626	17069.48
644.819	16846.25
645.012	16772.52
645.205	16948.65
645.398	16502.19
645.591	16655.79
645.784	16510.38
645.977	16530.86
646.17	16381.36
646.363	16326.07
646.556	16137.65
646.749	16096.69
646.942	16201.14
647.135	15988.15
647.328	15738.3
647.521	15736.25
647.714	15556.03
647.907	15457.73
648.099	15402.43
648.292	15674.81
648.485	15338.94
648.678	15195.59
648.871	15091.14
649.064	15070.66
649.256	15048.13
649.449	14732.75
649.642	14861.77
649.835	14589.39
650.027	14642.64
650.22	14290.38
650.413	14560.72
650.605	14321.1
650.798	14220.75
650.991	14128.6
651.183	14118.36
651.376	14063.06
651.568	14321.1
651.761	14073.3
651.954	13891.03
652.146	13704.67
652.339	13823.45
652.531	13831.64
652.724	13716.95
652.916	13071.84
653.109	13424.09
653.301	13303.26
653.494	13227.49
653.686	13348.32
653.879	13272.54
654.071	13211.11
654.263	12940.77
654.456	13344.22
654.648	13094.37
654.84	12760.55
655.033	12754.41
655.225	12922.34
655.417	12877.29
655.61	12580.33
655.802	12412.4
655.994	12508.65
656.186	12697.06
656.379	12213.74
656.571	12191.22
656.763	12246.51
656.955	12080.63
657.148	12078.58
657.34	12008.95
657.532	11922.93
657.724	11791.86
657.916	11965.94
658.108	11855.35
658.3	11494.91
658.492	11638.27
658.684	11372.03
658.876	11429.37
659.068	11605.5
659.26	11570.68
659.452	11288.06
659.644	11523.58
659.836	11271.68
660.028	11320.83
660.22	10931.72
660.412	11116.03
660.604	10964.48
660.796	11019.78
660.988	10714.63
661.18	10817.03
661.372	10645
661.563	10804.74
661.755	10429.96
661.947	10696.2
662.139	10571.27
662.331	10491.4
662.522	10432.01
662.714	10401.29
662.906	10268.17
663.097	10184.21
663.289	10069.52
663.481	10008.08
663.673	10186.26
663.864	10055.19
664.056	9940.5
664.247	9661.98
664.439	9760.28
664.631	9645.59
664.822	9805.33
665.014	9600.54
665.205	9602.58
665.397	9645.59
665.588	9631.26
665.78	9813.52
665.971	9276.96
666.163	9471.51
666.354	9379.36
666.546	9405.98
666.737	9221.66
666.929	9115.17
667.12	9254.43
667.311	9297.44
667.503	9178.65
667.694	9199.13
667.885	9020.96
668.077	8957.47
668.268	9117.22
668.459	8793.64
668.651	8760.87
668.842	8824.36
669.033	8740.39
669.224	8771.11
669.416	8734.25
669.607	8705.57
669.798	8445.48
669.989	8799.78
670.18	8711.72
670.371	8314.41
670.563	8449.58
670.754	8506.92
670.945	8291.88
671.136	8343.08
671.327	8162.86
671.518	8394.28
671.709	8373.8
671.9	8330.8
672.091	8044.08
672.282	8203.82
672.473	8085.04
672.664	8015.41
672.855	8085.04
673.046	8011.31
673.237	8134.19
673.428	7976.5
673.619	8154.67
673.809	8095.28
674	7843.38
674.191	7986.74
674.382	7794.23
674.573	8048.18
674.764	7740.98
674.954	7779.89
675.145	7700.02
675.336	7642.68
675.527	7546.42
675.717	7640.63
675.908	7630.39
676.099	7536.18
676.289	7392.83
676.48	7452.22
676.671	7589.43
676.861	7476.79
677.052	7339.58
677.243	7220.8
677.433	7333.43
677.624	7626.29
677.814	7360.06
678.005	7427.64
678.195	7394.87
678.386	7452.22
678.576	7140.93
678.767	7222.84
678.957	7327.29
679.148	7374.39
679.338	7042.62
679.529	7294.52
679.719	7136.83
679.909	7448.12
680.1	7085.63
680.29	7116.35
680.481	7016
680.671	7089.73
680.861	6831.68
681.052	6903.36
681.242	6999.62
681.432	7239.23
681.622	7048.77
681.813	6946.37
682.003	7065.15
682.193	6786.63
682.383	7102.01
682.573	6962.75
682.764	6829.63
682.954	7132.73
683.144	6907.46
683.334	6831.68
683.524	6790.72
683.714	6907.46
683.904	6837.83
684.094	6917.7
684.284	6749.76
684.474	6749.76
684.664	6895.17
684.854	6657.61
685.044	6717
685.234	6755.91
685.424	6712.9
685.614	6692.42
685.804	6544.97
685.994	6559.3
686.184	6444.62
686.374	6565.45
686.564	6461
686.753	6510.15
686.943	6469.19
687.133	6520.39
687.323	6432.33
687.513	6442.57
687.702	6393.42
687.892	6526.54
688.082	6241.87
688.272	6450.76
688.461	6241.87
688.651	6264.4
688.841	6356.55
689.03	6370.89
689.22	6280.78
689.41	6168.14
689.599	6057.55
689.789	6116.94
689.979	5992.02
690.168	6135.37
690.358	6256.2
690.547	6053.45
690.737	6073.93
690.926	6057.55
691.116	5895.76
691.305	6024.78
691.495	6057.55
691.684	5828.18
691.874	5848.66
692.063	5901.9
692.252	5774.93
692.442	5815.89
692.631	5688.92
692.82	5930.58
693.01	5729.88
693.199	5729.88
693.388	5668.44
693.578	5537.37
693.767	5856.85
693.956	5680.72
694.146	5439.06
694.335	5566.04
694.524	5563.99
694.713	5461.59
694.902	5619.28
695.092	5494.36
695.281	5584.47
695.47	5523.03
695.659	5416.54
695.848	5363.29
696.037	5469.78
696.226	5430.87
696.415	5500.5
696.604	5416.54
696.793	5353.05
696.982	5353.05
697.171	5307.99
697.36	5348.95
697.549	5338.71
697.738	5328.47
697.927	5099.1
698.116	5369.43
698.305	5250.65
698.494	5205.6
698.683	5160.54
698.872	5107.29
699.061	5135.96
699.25	5105.24
699.438	5068.38
699.627	5045.85
699.816	5164.64
700.005	5117.53
700.193	5054.05
700.382	5242.46
700.571	5131.87
700.76	4961.89
700.948	4984.41
701.137	4914.78
701.326	5135.96
701.514	4873.82
701.703	4984.41
701.892	4779.62
702.08	4976.22
702.269	4886.11
702.457	4714.08
702.646	4886.11
702.834	4765.28
703.023	4738.66
703.212	4773.47
703.4	4906.59
703.589	4689.51
703.777	4773.47
703.965	4664.93
704.154	4832.86
704.342	4707.94
704.531	4779.62
704.719	4673.12
704.907	4628.07
705.096	4634.21
705.284	4666.98
705.472	4558.44
705.661	4654.69
705.849	4513.38
706.037	4525.67
706.226	4398.7
706.414	4447.85
706.602	4537.96
706.79	4486.76
706.979	4529.77
707.167	4595.3
707.355	4347.5
707.543	4505.19
707.731	4529.77
707.919	4619.88
708.107	4312.68
708.296	4324.97
708.484	4216.43
708.672	4263.53
708.86	4288.11
709.048	4275.82
709.236	4148.84
709.424	4197.99
709.612	4355.69
709.8	4312.68
709.988	4353.64
710.176	4230.76
710.364	4197.99
710.551	4212.33
710.739	4044.4
710.927	4118.12
711.115	4212.33
711.303	4177.51
711.491	4132.46
711.679	3919.47
711.866	3999.34
712.054	4107.88
712.242	3929.71
712.43	4042.35
712.617	4111.98
712.805	3919.47
712.993	3982.96
713.181	3944.05
713.368	3968.62
713.556	3872.37
713.744	3927.66
713.931	4054.64
714.119	3870.32
714.306	3853.94
714.494	3870.32
714.682	3839.6
714.869	3903.09
715.057	3950.19
715.244	3845.74
715.432	3722.87
715.619	3782.26
715.807	3952.24
715.994	3774.07
716.182	3819.12
716.369	3833.46
716.556	3798.64
716.744	3620.47
716.931	3747.44
717.119	3812.98
717.306	3741.3
717.493	3599.99
717.681	3706.48
717.868	3599.99
718.055	3706.48
718.242	3649.14
718.43	3784.3
718.617	3714.67
718.804	3542.64
718.991	3712.63
719.179	3681.91
719.366	3511.93
719.553	3636.85
719.74	3559.03
719.927	3456.63
720.114	3509.88
720.301	3452.53
720.488	3473.01
720.676	3448.44
720.863	3550.84
721.05	3423.86
721.237	3534.45
721.424	3509.88
721.611	3415.67
721.798	3421.81
721.985	3239.55
722.172	3468.92
722.358	3313.27
722.545	3395.19
722.732	3368.57
722.919	3323.51
723.106	3268.22
723.293	3382.9
723.48	3337.85
723.667	3296.89
723.853	3198.59
724.04	3296.89
724.227	3341.94
724.414	3251.83
724.6	3296.89
724.787	3239.55
724.974	3231.35
725.161	3223.16
725.347	3169.91
725.534	3108.48
725.72	3184.25
725.907	3255.93
726.094	3380.86
726.28	3174.01
726.467	3212.92
726.653	3112.57
726.84	3284.6
727.027	3331.7
727.213	2999.93
727.4	3176.06
727.586	3071.61
727.773	3114.62
727.959	3110.52
728.145	3151.48
728.332	3010.17
728.518	3042.94
728.705	3137.15
728.891	3065.47
729.077	3151.48
729.264	3010.17
729.45	3051.13
729.636	3059.32
729.823	2969.21
730.009	3020.41
730.195	3012.22
730.382	2993.79
730.568	2924.16
730.754	2987.65
730.94	2946.69
731.126	3102.33
731.313	2944.64
731.499	2991.74
731.685	2938.49
731.871	2872.96
732.057	2879.1
732.243	3001.98
732.429	2973.31
732.615	2903.68
732.801	2860.67
732.987	2954.88
733.173	2825.86
733.359	2895.49
733.545	2895.49
733.731	2854.53
733.917	2889.34
734.103	2907.77
734.289	2768.51
734.475	2705.03
734.661	2846.34
734.847	2807.42
735.033	2840.19
735.219	2891.39
735.404	2717.31
735.59	2920.06
735.776	2674.31
735.962	2801.28
736.148	2702.98
736.333	2741.89
736.519	2780.8
736.705	2709.12
736.89	2758.27
737.076	2616.96
737.262	2709.12
737.447	2715.27
737.633	2563.72
737.819	2672.26
738.004	2655.87
738.19	2586.24
738.375	2584.2
738.561	2602.63
738.747	2698.88
738.932	2561.67
739.118	2709.12
739.303	2676.35
739.489	2594.44
739.674	2551.43
739.859	2633.35
740.045	2657.92
740.23	2528.9
740.416	2395.78
740.601	2635.39
740.786	2561.67
740.972	2455.17
741.157	2510.47
741.342	2526.85
741.528	2459.27
741.713	2510.47
741.898	2451.08
742.084	2381.45
742.269	2444.93
742.454	2467.46
742.639	2399.88
742.824	2436.74
743.01	2510.47
743.195	2428.55
743.38	2428.55
743.565	2313.86
743.75	2414.21
743.935	2258.57
744.12	2369.16
744.305	2256.52
744.49	2213.51
744.675	2299.53
744.86	2190.99
745.045	2375.3
745.23	2307.72
745.415	2250.38
745.6	2277
745.785	2231.94
745.97	2145.93
746.155	2170.51
746.34	2305.67
746.525	2158.22
746.71	2264.71
746.895	2061.96
747.079	2090.63
747.264	2160.27
747.449	2053.77
747.634	2064.01
747.819	2109.07
748.003	2070.16
748.188	1965.71
748.373	2084.49
748.557	1998.48
748.742	1988.24
748.927	2004.62
749.111	2049.68
749.296	2027.15
749.481	1945.23
749.665	1916.56
749.85	1818.25
750.034	1891.98
750.219	1951.37
750.404	1887.89
750.588	1851.02
750.773	1808.02
750.957	1871.5
751.141	1828.49
751.326	1750.67
751.51	1746.58
751.695	1906.32
751.879	1844.88
752.064	1785.49
752.248	1726.1
752.432	1756.82
752.617	1713.81
752.801	1627.79
752.985	1717.9
753.17	1789.58
753.354	1666.71
753.538	1756.82
753.722	1666.71
753.907	1654.42
754.091	1638.03
754.275	1638.03
754.459	1613.46
754.643	1681.04
754.828	1656.47
755.012	1576.59
755.196	1543.83
755.38	1658.51
755.564	1564.31
755.748	1603.22
755.932	1511.06
756.116	1552.02
756.3	1584.79
756.484	1556.11
756.668	1482.39
756.852	1609.36
757.036	1511.06
757.22	1371.8
757.404	1339.03
757.588	1478.29
757.772	1390.23
757.956	1423
758.14	1445.52
758.323	1388.18
758.507	1406.61
758.691	1420.95
758.875	1470.1
759.059	1449.62
759.242	1466
759.426	1357.46
759.61	1412.76
759.794	1375.89
759.977	1392.28
760.161	1392.28
760.345	1382.04
760.528	1367.7
760.712	1300.12
760.895	1379.99
761.079	1257.11
761.263	1289.88
761.446	1332.89
761.63	1191.58
761.813	1224.34
761.997	1240.73
762.18	1244.82
762.364	1265.3
762.547	1195.67
762.731	1230.49
762.914	1214.1
763.098	1273.5
763.281	1078.94
763.464	1230.49
763.648	1248.92
763.831	1298.07
764.015	1146.52
764.198	1091.23
764.381	1154.71
764.564	1214.1
764.748	1121.95
764.931	1193.62
765.114	1171.1
765.297	1150.62
765.481	1093.27
765.664	1185.43
765.847	1167
766.03	1175.19
766.213	1169.05
766.397	1146.52
766.58	1101.47
766.763	1117.85
766.946	1187.48
767.129	1056.41
767.312	1076.89
767.495	1146.52
767.678	1015.45
767.861	1167
768.044	1142.43
768.227	1070.75
768.41	1007.26
768.593	1085.08
768.776	1097.37
768.959	986.78
769.142	1001.12
769.324	1050.27
769.507	1013.4
769.69	988.83
769.873	970.4
770.056	1017.5
770.239	994.97
770.421	1158.81
770.604	999.07
770.787	1029.79
770.97	1021.6
771.152	1060.51
771.335	1003.16
771.518	1060.51
771.7	1031.83
771.883	1050.27
772.066	951.96
772.248	1052.31
772.431	1001.12
772.613	962.2
772.796	999.07
772.978	917.15
773.161	917.15
773.343	1048.22
773.526	872.09
773.708	794.27
773.891	923.29
774.073	931.48
774.256	962.2
774.438	962.2
774.621	937.63
774.803	913.05
774.985	941.72
775.168	839.33
775.35	876.19
775.532	872.09
775.715	761.5
775.897	884.38
776.079	892.57
776.261	818.85
776.444	868
776.626	857.76
776.808	843.42
776.99	806.56
777.173	816.8
777.355	831.13
777.537	726.69
777.719	779.93
777.901	814.75
778.083	822.94
778.265	781.98
778.447	765.6
778.629	743.07
778.811	718.5
778.993	818.85
779.175	730.78
779.357	835.23
779.539	741.02
779.721	655.01
779.903	757.41
780.085	745.12
780.267	781.98
780.449	781.98
780.631	726.69
780.812	716.45
780.994	714.4
781.176	558.75
781.358	683.68
781.54	661.15
781.721	724.64
781.903	663.2
782.085	618.15
782.267	628.39
782.448	564.9
782.63	618.15
782.812	644.77
782.993	720.54
783.175	614.05
783.357	581.28
783.538	558.75
783.72	620.19
783.901	581.28
784.083	597.67
784.264	593.57
784.446	589.47
784.627	515.75
784.809	573.09
784.99	593.57
785.172	503.46
785.353	663.2
785.535	556.71
785.716	495.27
785.897	491.17
786.079	650.91
786.26	452.26
786.441	622.24
786.623	478.88
786.804	497.32
786.985	585.38
787.167	550.56
787.348	513.7
787.529	519.84
787.71	509.6
787.891	495.27
788.073	503.46
788.254	560.8
788.435	534.18
788.616	540.32
788.797	444.07
788.978	446.12
789.159	446.12
789.34	405.16
789.522	417.44
789.703	421.54
789.884	390.82
790.065	505.51
790.246	530.08
790.427	489.12
790.607	478.88
790.788	466.6
790.969	421.54
791.15	423.59
791.331	411.3
791.512	454.31
791.693	487.08
791.874	431.78
792.054	519.84
792.235	423.59
792.416	458.4
792.597	380.58
792.778	470.69
792.958	405.16
793.139	429.73
793.32	378.53
793.5	362.15
793.681	429.73
793.862	425.64
794.042	386.72
794.223	313
794.404	349.86
794.584	405.16
794.765	347.81
794.945	401.06
795.126	448.16
795.306	366.25
795.487	290.47
795.667	323.24
795.848	317.09
796.028	329.38
796.209	446.12
796.389	304.81
796.57	364.2
796.75	386.72
796.93	341.67
797.111	370.34
797.291	325.29
797.471	380.58
797.652	358.05
797.832	345.77
798.012	308.9
798.192	384.68
798.373	327.33
798.553	310.95
798.733	243.37
798.913	306.85
799.093	306.85
799.274	347.81
799.454	349.86
799.634	341.67
799.814	274.09
799.994	284.33
800.174	313
800.354	239.27
800.534	245.41
800.714	372.39
800.894	302.76
801.074	302.76
801.254	257.7
801.434	272.04
801.614	298.66
801.794	251.56
801.974	855.71
802.154	282.28
802.334	368.29
802.514	339.62
802.693	294.57
802.873	274.09
803.053	347.81
803.233	292.52
803.413	343.72
803.592	243.37
803.772	319.14
803.952	315.05
804.131	239.27
804.311	360.1
804.491	218.79
804.67	249.51
804.85	235.18
805.03	249.51
805.209	364.2
805.389	208.55
805.568	274.09
805.748	243.37
805.928	257.7
806.107	261.8
806.287	296.61
806.466	265.89
806.646	229.03
806.825	249.51
807.004	194.22
807.184	257.7
807.363	286.37
807.543	257.7
807.722	284.33
807.901	319.14
808.081	241.32
808.26	253.61
808.439	257.7
808.619	169.64
808.798	241.32
808.977	214.7
809.156	323.24
809.336	284.33
809.515	267.94
809.694	261.8
809.873	175.78
810.052	241.32
810.231	290.47
810.411	235.18
810.59	276.13
810.769	229.03
810.948	265.89
811.127	136.87
811.306	155.3
811.485	183.98
811.664	233.13
811.843	218.79
812.022	233.13
812.201	251.56
812.38	208.55
812.559	143.02
812.737	272.04
812.916	143.02
813.095	167.59
813.274	278.18
813.453	153.26
813.632	235.18
813.811	216.74
813.989	151.21
814.168	167.59
814.347	100.01
814.526	204.46
814.704	200.36
814.883	210.6
815.062	118.44
815.24	261.8
815.419	186.02
815.598	177.83
815.776	153.26
815.955	151.21
816.133	194.22
816.312	163.5
816.49	128.68
816.669	175.78
816.847	186.02
817.026	200.36
817.204	161.45
817.383	186.02
817.561	159.4
817.74	192.17
817.918	216.74
818.097	153.26
818.275	65.19
818.453	190.12
818.632	216.74
818.81	159.4
818.988	110.25
819.167	118.44
819.345	134.82
819.523	138.92
819.701	138.92
819.879	186.02
820.058	93.87
820.236	163.5
820.414	177.83
820.592	118.44
820.77	167.59
820.948	147.11
821.127	79.53
821.305	102.06
821.483	183.98
821.661	200.36
821.839	192.17
822.017	71.34
822.195	167.59
822.373	224.94
822.551	110.25
822.729	143.02
822.907	149.16
823.085	77.48
823.262	106.15
823.44	204.46
823.618	138.92
823.796	200.36
823.974	233.13
824.152	136.87
824.329	118.44
824.507	118.44
824.685	206.5
824.863	130.73
825.04	167.59
825.218	136.87
825.396	138.92
825.574	118.44
825.751	183.98
825.929	138.92
826.107	102.06
826.284	145.06
826.462	163.5
826.639	132.78
826.817	151.21
826.994	89.77
827.172	81.58
827.349	165.54
827.527	196.26
827.704	122.54
827.882	177.83
828.059	161.45
828.237	155.3
828.414	122.54
828.591	79.53
828.769	153.26
828.946	97.96
829.124	136.87
829.301	138.92
829.478	143.02
829.655	44.71
829.833	106.15
830.01	134.82
830.187	140.97
830.364	136.87
830.542	69.29
830.719	136.87
830.896	124.58
831.073	177.83
831.25	136.87
831.427	165.54
831.604	171.69
831.782	116.39
831.959	194.22
832.136	69.29
832.313	93.87
832.49	69.29
832.667	177.83
832.844	128.68
833.021	122.54
833.198	183.98
833.374	114.34
833.551	192.17
833.728	87.72
833.905	73.39
834.082	97.96
834.259	122.54
834.436	126.63
834.612	-4.44
834.789	126.63
834.966	71.34
835.143	77.48
835.319	67.24
835.496	159.4
835.673	85.67
835.85	87.72
836.026	95.91
836.203	143.02
836.38	61.1
836.556	112.3
836.733	-10.58
836.909	118.44
837.086	54.95
837.262	52.91
837.439	79.53
837.616	65.19
837.792	110.25
837.968	97.96
838.145	48.81
838.321	126.63
838.498	118.44
838.674	75.43
838.851	128.68
839.027	52.91
839.203	95.91
839.38	75.43
839.556	69.29
839.732	161.45
839.909	61.1
840.085	147.11
840.261	-16.73
840.437	50.86
840.614	63.15
840.79	61.1
840.966	124.58
841.142	140.97
841.318	7.85
841.494	102.06
841.671	104.11
841.847	26.28
842.023	-43.35
842.199	112.3
842.375	120.49
842.551	34.47
842.727	44.71
842.903	110.25
843.079	-4.44
843.255	167.59
843.431	5.8
843.607	128.68
843.783	28.33
843.959	85.67
844.134	36.52
844.31	134.82
844.486	93.87
844.662	61.1
844.838	65.19
845.013	161.45
845.189	67.24
845.365	11.95
845.541	93.87
845.716	61.1
845.892	134.82
846.068	69.29
846.244	110.25
846.419	118.44
846.595	44.71
846.77	5.8
846.946	65.19
847.122	32.43
847.297	95.91
847.473	63.15
847.648	79.53
847.824	63.15
847.999	30.38
848.175	93.87
848.35	69.29
848.526	138.92
848.701	79.53
848.876	130.73
849.052	46.76
849.227	147.11
849.403	-31.06
849.578	20.14
849.753	71.34
849.929	48.81
850.104	38.57
850.279	36.52
850.454	106.15
850.63	44.71
850.805	44.71
850.98	67.24
851.155	-4.44
851.33	32.43
851.505	63.15
851.681	120.49
851.856	44.71
852.031	22.19
852.206	79.53
852.381	38.57
852.556	77.48
852.731	104.11
852.906	91.82
853.081	63.15
853.256	61.1
853.431	61.1
853.606	52.91
853.781	-12.63
853.956	-59.73
854.131	79.53
854.305	73.39
854.48	52.91
854.655	77.48
854.83	38.57
855.005	104.11
855.18	102.06
855.354	95.91
855.529	13.99
855.704	-2.39
855.879	30.38
856.053	75.43
856.228	61.1
856.403	13.99
856.577	20.14
856.752	36.52
856.926	-2.39
857.101	52.91
857.276	44.71
857.45	-20.82
857.625	63.15
857.799	59.05
857.974	20.14
858.148	5.8
858.323	36.52
858.497	77.48
858.672	30.38
858.846	46.76
859.02	140.97
859.195	85.67
859.369	-4.44
859.543	-4.44
859.718	79.53
859.892	71.34
860.066	42.67
860.241	44.71
860.415	85.67
860.589	38.57
860.763	-4.44
860.938	-45.4
861.112	75.43
861.286	57
861.46	110.25
861.634	-0.34
861.808	79.53
861.982	16.04
862.157	-16.73
862.331	22.19
862.505	-0.34
862.679	-24.92
862.853	61.1
863.027	81.58
863.201	61.1
863.375	46.76
863.549	22.19
863.722	77.48
863.896	69.29
864.07	-20.82
864.244	28.33
864.418	18.09
864.592	-20.82
864.766	61.1
864.939	-0.34
865.113	65.19
865.287	1.71
865.461	5.8
865.634	69.29
865.808	-37.2
865.982	52.91
866.156	20.14
866.329	24.23
866.503	5.8
866.676	-8.53
866.85	16.04
867.024	63.15
867.197	52.91
867.371	93.87
867.544	57
867.718	22.19
867.891	11.95
868.065	-12.63
868.238	42.67
868.412	114.34
868.585	48.81
868.759	118.44
868.932	44.71
869.105	-39.25
869.279	61.1
869.452	20.14
869.625	65.19
869.799	71.34
869.972	44.71
870.145	61.1
870.319	44.71
870.492	69.29
870.665	16.04
870.838	52.91
871.011	3.75
871.185	-6.49
871.358	110.25
871.531	85.67
871.704	-74.07
871.877	54.95
872.05	16.04
872.223	-24.92
872.396	-10.58
872.569	11.95
872.742	-0.34
872.915	114.34
873.088	36.52
873.261	-29.01
873.434	79.53
873.607	-24.92
873.78	48.81
873.953	-37.2
874.126	65.19
874.299	95.91
874.471	28.33
874.644	36.52
874.817	5.8
874.99	73.39
875.163	-4.44
875.335	38.57
875.508	16.04
875.681	13.99
875.853	44.71
876.026	46.76
876.199	44.71
876.371	77.48
876.544	65.19
876.717	-2.39
876.889	73.39
877.062	110.25
877.234	-2.39
877.407	38.57
877.579	3.75
877.752	24.23
877.924	9.9
878.097	38.57
878.269	50.86
878.442	30.38
878.614	36.52
878.786	11.95
878.959	-20.82
879.131	112.3
879.303	48.81
879.476	-18.77
879.648	63.15
879.82	48.81
879.993	32.43
880.165	40.62
880.337	48.81
880.509	52.91
880.681	32.43
880.854	44.71
881.026	20.14
881.198	52.91
881.37	26.28
881.542	-61.78
881.714	40.62
881.886	30.38
882.058	61.1
882.23	54.95
882.402	44.71
882.574	-29.01
882.746	40.62
882.918	89.77
883.09	-6.49
883.262	69.29
883.434	106.15
883.606	-31.06
883.778	36.52
883.95	28.33
884.122	-12.63
884.293	30.38
884.465	20.14
884.637	40.62
884.809	73.39
884.98	16.04
885.152	40.62
885.324	71.34
885.496	24.23
885.667	-22.87
885.839	-33.11
886.011	165.54
886.182	18.09
886.354	44.71
886.525	93.87
886.697	65.19
886.869	36.52
887.04	54.95
887.212	46.76
887.383	149.16
887.555	87.72
887.726	5.8
887.897	73.39
888.069	44.71
888.24	120.49
888.412	42.67
888.583	11.95
888.754	79.53
888.926	-94.55
889.097	-18.77
889.268	-37.2
889.44	46.76
889.611	-16.73
889.782	26.28
889.953	59.05
890.125	116.39
890.296	13.99
890.467	13.99
890.638	3.75
890.809	13.99
890.98	9.9
891.151	93.87
891.323	85.67
891.494	1.71
891.665	36.52
891.836	-12.63
892.007	16.04
892.178	-45.4
892.349	20.14
892.52	32.43
892.691	-4.44
892.862	52.91
893.032	-35.16
893.203	-20.82
893.374	-61.78
893.545	61.1
893.716	30.38
893.887	44.71
894.057	-78.16
894.228	-18.77
894.399	-29.01
894.57	28.33
894.74	28.33
894.911	52.91
895.082	34.47
895.253	11.95
895.423	-37.2
895.594	61.1
895.764	40.62
895.935	30.38
896.106	3.75
896.276	-47.44
896.447	-2.39
896.617	3.75
896.788	-20.82
896.958	20.14
897.129	-67.92
897.299	-29.01
897.47	44.71
897.64	79.53
897.81	77.48
897.981	28.33
898.151	-20.82
898.322	28.33
898.492	57
898.662	-4.44
898.832	13.99
899.003	-57.68
899.173	44.71
899.343	38.57
899.513	40.62
