Data from USB4F104151__42__14-29-49-410.txt Node

Date: Thu Mar 13 14:29:49 EDT 2025
User: louis
Spectrometer: USB4F10415
Trigger mode: 4
Integration Time (sec): 2.500000E-2
Scans to average: 1
Electric dark correction enabled: true
Nonlinearity correction enabled: false
Boxcar width: 0
XAxis mode: Wavelengths
Number of Pixels in Spectrum: 3648
>>>>>Begin Spectral Data<<<<<
178.204	-125.61
178.424	-125.61
178.644	-125.61
178.864	-174.76
179.084	-86.7
179.304	-62.12
179.524	-27.31
179.744	25.94
179.964	-2.73
180.184	3.41
180.404	-2.73
180.624	75.09
180.844	7.51
181.064	-47.79
181.283	66.9
181.503	-51.88
181.723	15.7
181.943	-27.31
182.163	91.48
182.383	64.85
182.602	-2.73
182.822	99.67
183.042	42.32
183.262	-51.88
183.482	-6.83
183.701	34.13
183.921	-8.87
184.141	-10.92
184.361	99.67
184.58	23.89
184.8	60.76
185.02	23.89
185.239	71
185.459	71
185.679	-25.26
185.898	-37.55
186.118	46.42
186.338	54.61
186.557	34.13
186.777	-19.11
186.997	50.52
187.216	25.94
187.436	21.85
187.655	-17.07
187.875	34.13
188.095	23.89
188.314	103.76
188.534	95.57
188.753	87.38
188.973	79.19
189.192	5.46
189.412	-4.78
189.631	54.61
189.851	-27.31
190.07	77.14
190.29	34.13
190.509	99.67
190.729	44.37
190.948	27.99
191.168	185.68
191.387	71
191.607	60.76
191.826	34.13
192.045	40.28
192.265	71
192.484	-27.31
192.704	50.52
192.923	1.37
193.142	40.28
193.362	46.42
193.581	71
193.8	114
194.02	44.37
194.239	38.23
194.458	44.37
194.678	38.23
194.897	81.24
195.116	81.24
195.335	62.8
195.555	64.85
195.774	64.85
195.993	46.42
196.212	5.46
196.432	-60.07
196.651	1.37
196.87	-27.31
197.089	97.62
197.308	75.09
197.528	42.32
197.747	7.51
197.966	46.42
198.185	64.85
198.404	62.8
198.623	34.13
198.842	79.19
199.062	87.38
199.281	13.65
199.5	-35.5
199.719	103.76
199.938	68.95
200.157	105.81
200.376	-8.87
200.595	97.62
200.814	38.23
201.033	-27.31
201.252	75.09
201.471	21.85
201.69	52.56
201.909	79.19
202.128	15.7
202.347	-2.73
202.566	75.09
202.785	38.23
203.004	21.85
203.223	154.96
203.442	44.37
203.661	54.61
203.879	30.04
204.098	27.99
204.317	9.56
204.536	30.04
204.755	34.13
204.974	58.71
205.193	83.28
205.411	169.3
205.63	34.13
205.849	40.28
206.068	23.89
206.287	48.47
206.505	54.61
206.724	-19.11
206.943	32.08
207.162	30.04
207.381	79.19
207.599	116.05
207.818	-43.69
208.037	7.51
208.255	32.08
208.474	5.46
208.693	105.81
208.911	9.56
209.13	165.2
209.349	71
209.567	40.28
209.786	64.85
210.005	38.23
210.223	38.23
210.442	5.46
210.661	81.24
210.879	23.89
211.098	48.47
211.316	-8.87
211.535	79.19
211.753	7.51
211.972	71
212.191	23.89
212.409	7.51
212.628	23.89
212.846	-6.83
213.065	17.75
213.283	54.61
213.502	54.61
213.72	91.48
213.938	79.19
214.157	87.38
214.375	95.57
214.594	1.37
214.812	68.95
215.031	13.65
215.249	9.56
215.467	30.04
215.686	30.04
215.904	71
216.122	87.38
216.341	13.65
216.559	71
216.778	50.52
216.996	64.85
217.214	-19.11
217.432	-35.5
217.651	-33.45
217.869	3.41
218.087	15.7
218.306	44.37
218.524	54.61
218.742	11.61
218.96	-15.02
219.179	95.57
219.397	19.8
219.615	118.1
219.833	32.08
220.051	-15.02
220.27	191.83
220.488	91.48
220.706	13.65
220.924	56.66
221.142	62.8
221.36	5.46
221.578	21.85
221.796	101.72
222.015	71
222.233	17.75
222.451	46.42
222.669	5.46
222.887	138.58
223.105	42.32
223.323	46.42
223.541	48.47
223.759	93.52
223.977	46.42
224.195	87.38
224.413	71
224.631	79.19
224.849	56.66
225.067	128.34
225.285	-0.68
225.503	30.04
225.721	-35.5
225.939	38.23
226.157	64.85
226.375	161.11
226.592	13.65
226.81	62.8
227.028	95.57
227.246	79.19
227.464	58.71
227.682	30.04
227.9	71
228.117	62.8
228.335	64.85
228.553	134.48
228.771	52.56
228.989	79.19
229.206	48.47
229.424	71
229.642	21.85
229.86	1.37
230.077	-19.11
230.295	15.7
230.513	105.81
230.731	116.05
230.948	52.56
231.166	81.24
231.384	21.85
231.601	62.8
231.819	89.43
232.037	103.76
232.254	13.65
232.472	30.04
232.689	-39.59
232.907	13.65
233.125	58.71
233.342	27.99
233.56	58.71
233.777	44.37
233.995	79.19
234.213	134.48
234.43	56.66
234.648	-8.87
234.865	-27.31
235.083	42.32
235.3	-19.11
235.518	19.8
235.735	91.48
235.953	7.51
236.17	83.28
236.388	42.32
236.605	27.99
236.822	66.9
237.04	34.13
237.257	-27.31
237.475	-51.88
237.692	13.65
237.909	25.94
238.127	68.95
238.344	99.67
238.562	15.7
238.779	62.8
238.996	-17.07
239.214	56.66
239.431	71
239.648	5.46
239.865	83.28
240.083	42.32
240.3	73.04
240.517	40.28
240.735	56.66
240.952	99.67
241.169	85.33
241.386	56.66
241.603	9.56
241.821	32.08
242.038	34.13
242.255	116.05
242.472	13.65
242.689	79.19
242.907	99.67
243.124	9.56
243.341	105.81
243.558	32.08
243.775	21.85
243.992	-6.83
244.209	44.37
244.426	122.2
244.643	144.72
244.86	5.46
245.078	40.28
245.295	32.08
245.512	66.9
245.729	11.61
245.946	30.04
246.163	95.57
246.38	34.13
246.597	136.53
246.814	124.24
247.031	15.7
247.248	50.52
247.464	-4.78
247.681	99.67
247.898	30.04
248.115	-58.03
248.332	40.28
248.549	83.28
248.766	124.24
248.983	32.08
249.2	71
249.417	66.9
249.633	5.46
249.85	23.89
250.067	30.04
250.284	-2.73
250.501	25.94
250.717	5.46
250.934	5.46
251.151	-27.31
251.368	21.85
251.585	15.7
251.801	56.66
252.018	-10.92
252.235	99.67
252.451	-115.37
252.668	64.85
252.885	111.96
253.102	38.23
253.318	62.8
253.535	21.85
253.752	62.8
253.968	71
254.185	-53.93
254.401	-66.22
254.618	103.76
254.835	-27.31
255.051	13.65
255.268	30.04
255.484	17.75
255.701	7.51
255.917	83.28
256.134	54.61
256.351	111.96
256.567	-0.68
256.784	13.65
257	-27.31
257.217	103.76
257.433	17.75
257.65	46.42
257.866	120.15
258.082	-35.5
258.299	40.28
258.515	120.15
258.732	48.47
258.948	38.23
259.165	25.94
259.381	87.38
259.597	50.52
259.814	50.52
260.03	50.52
260.246	66.9
260.463	-2.73
260.679	89.43
260.895	21.85
261.112	99.67
261.328	71
261.544	71
261.761	79.19
261.977	71
262.193	54.61
262.409	126.29
262.626	75.09
262.842	44.37
263.058	-55.98
263.274	71
263.49	21.85
263.707	62.8
263.923	62.8
264.139	-8.87
264.355	77.14
264.571	122.2
264.787	54.61
265.004	62.8
265.22	44.37
265.436	62.8
265.652	-29.35
265.868	56.66
266.084	62.8
266.3	17.75
266.516	-2.73
266.732	58.71
266.948	79.19
267.164	13.65
267.38	97.62
267.596	48.47
267.812	73.04
268.028	1.37
268.244	21.85
268.46	93.52
268.676	42.32
268.892	105.81
269.108	-35.5
269.324	50.52
269.54	-51.88
269.756	111.96
269.972	-2.73
270.188	71
270.403	-6.83
270.619	87.38
270.835	34.13
271.051	54.61
271.267	-27.31
271.483	-27.31
271.698	66.9
271.914	38.23
272.13	-0.68
272.346	23.89
272.562	32.08
272.777	124.24
272.993	-10.92
273.209	1.37
273.425	58.71
273.64	1.37
273.856	81.24
274.072	-15.02
274.287	-23.21
274.503	23.89
274.719	107.86
274.934	-4.78
275.15	-58.03
275.366	-45.74
275.581	56.66
275.797	103.76
276.012	-2.73
276.228	73.04
276.444	87.38
276.659	105.81
276.875	1.37
277.09	7.51
277.306	38.23
277.521	48.47
277.737	-0.68
277.952	-15.02
278.168	48.47
278.383	-17.07
278.599	87.38
278.814	40.28
279.03	75.09
279.245	146.77
279.461	64.85
279.676	9.56
279.892	62.8
280.107	-6.83
280.322	21.85
280.538	79.19
280.753	-6.83
280.969	87.38
281.184	-39.59
281.399	87.38
281.615	-8.87
281.83	87.38
282.045	-2.73
282.26	54.61
282.476	95.57
282.691	91.48
282.906	87.38
283.122	19.8
283.337	-10.92
283.552	38.23
283.767	71
283.983	48.47
284.198	85.33
284.413	21.85
284.628	15.7
284.843	21.85
285.058	30.04
285.274	38.23
285.489	17.75
285.704	62.8
285.919	7.51
286.134	5.46
286.349	-43.69
286.564	81.24
286.779	79.19
286.995	25.94
287.21	46.42
287.425	34.13
287.64	13.65
287.855	13.65
288.07	-19.11
288.285	134.48
288.5	77.14
288.715	13.65
288.93	17.75
289.145	21.85
289.36	54.61
289.575	54.61
289.79	30.04
290.004	-4.78
290.219	91.48
290.434	40.28
290.649	-2.73
290.864	5.46
291.079	46.42
291.294	25.94
291.509	66.9
291.724	11.61
291.938	44.37
292.153	17.75
292.368	1.37
292.583	58.71
292.798	62.8
293.012	56.66
293.227	62.8
293.442	46.42
293.657	1.37
293.871	107.86
294.086	-25.26
294.301	38.23
294.516	79.19
294.73	40.28
294.945	34.13
295.16	-10.92
295.374	95.57
295.589	68.95
295.804	38.23
296.018	34.13
296.233	85.33
296.447	64.85
296.662	13.65
296.877	93.52
297.091	64.85
297.306	91.48
297.52	-2.73
297.735	3.41
297.949	54.61
298.164	91.48
298.378	44.37
298.593	15.7
298.807	5.46
299.022	46.42
299.236	79.19
299.451	-35.5
299.665	71
299.88	89.43
300.094	79.19
300.309	60.76
300.523	42.32
300.737	-12.97
300.952	13.65
301.166	56.66
301.381	54.61
301.595	7.51
301.809	-6.83
302.024	23.89
302.238	-41.64
302.452	97.62
302.667	38.23
302.881	13.65
303.095	42.32
303.309	-19.11
303.524	9.56
303.738	89.43
303.952	13.65
304.166	48.47
304.381	-31.4
304.595	79.19
304.809	7.51
305.023	97.62
305.237	73.04
305.452	73.04
305.666	87.38
305.88	48.47
306.094	54.61
306.308	62.8
306.522	36.18
306.736	83.28
306.95	-35.5
307.164	36.18
307.379	95.57
307.593	95.57
307.807	79.19
308.021	7.51
308.235	81.24
308.449	-51.88
308.663	38.23
308.877	132.44
309.091	21.85
309.305	54.61
309.519	-33.45
309.733	87.38
309.947	34.13
310.161	103.76
310.374	105.81
310.588	75.09
310.802	54.61
311.016	77.14
311.23	1.37
311.444	7.51
311.658	107.86
311.872	77.14
312.085	103.76
312.299	38.23
312.513	99.67
312.727	56.66
312.941	85.33
313.154	23.89
313.368	42.32
313.582	-68.27
313.796	-6.83
314.009	27.99
314.223	40.28
314.437	46.42
314.651	-19.11
314.864	-35.5
315.078	58.71
315.292	-51.88
315.505	9.56
315.719	-43.69
315.933	58.71
316.146	87.38
316.36	-8.87
316.573	126.29
316.787	71
317.001	75.09
317.214	38.23
317.428	122.2
317.641	54.61
317.855	66.9
318.068	-8.87
318.282	58.71
318.495	134.48
318.709	46.42
318.922	-21.16
319.136	7.51
319.349	130.39
319.563	17.75
319.776	81.24
319.99	3.41
320.203	103.76
320.417	81.24
320.63	23.89
320.843	87.38
321.057	73.04
321.27	13.65
321.483	54.61
321.697	128.34
321.91	130.39
322.124	42.32
322.337	71
322.55	23.89
322.763	17.75
322.977	23.89
323.19	-19.11
323.403	21.85
323.617	71
323.83	97.62
324.043	42.32
324.256	103.76
324.469	152.91
324.683	146.77
324.896	48.47
325.109	21.85
325.322	3.41
325.535	64.85
325.748	9.56
325.962	-31.4
326.175	11.61
326.388	21.85
326.601	83.28
326.814	38.23
327.027	60.76
327.24	3.41
327.453	-2.73
327.666	122.2
327.879	66.9
328.092	66.9
328.305	97.62
328.518	-10.92
328.731	-2.73
328.944	48.47
329.157	50.52
329.37	38.23
329.583	62.8
329.796	54.61
330.009	30.04
330.222	97.62
330.435	40.28
330.648	19.8
330.861	5.46
331.073	15.7
331.286	105.81
331.499	7.51
331.712	-6.83
331.925	-0.68
332.138	107.86
332.35	105.81
332.563	62.8
332.776	99.67
332.989	75.09
333.202	83.28
333.414	34.13
333.627	36.18
333.84	34.13
334.053	46.42
334.265	-0.68
334.478	97.62
334.691	23.89
334.903	17.75
335.116	25.94
335.329	50.52
335.541	103.76
335.754	89.43
335.966	89.43
336.179	-0.68
336.392	79.19
336.604	17.75
336.817	144.72
337.029	89.43
337.242	66.9
337.454	71
337.667	-19.11
337.88	75.09
338.092	-4.78
338.305	42.32
338.517	36.18
338.729	99.67
338.942	122.2
339.154	-15.02
339.367	-6.83
339.579	66.9
339.792	-39.59
340.004	44.37
340.217	-49.83
340.429	89.43
340.641	54.61
340.854	95.57
341.066	48.47
341.278	91.48
341.491	54.61
341.703	107.86
341.915	23.89
342.128	13.65
342.34	7.51
342.552	42.32
342.764	30.04
342.977	38.23
343.189	71
343.401	103.76
343.613	48.47
343.826	34.13
344.038	1.37
344.25	71
344.462	66.9
344.674	21.85
344.886	11.61
345.099	23.89
345.311	79.19
345.523	-0.68
345.735	-25.26
345.947	25.94
346.159	64.85
346.371	64.85
346.583	23.89
346.795	36.18
347.007	66.9
347.219	77.14
347.431	-8.87
347.643	75.09
347.855	93.52
348.067	122.2
348.279	15.7
348.491	38.23
348.703	52.56
348.915	64.85
349.127	23.89
349.339	62.8
349.551	77.14
349.763	73.04
349.975	9.56
350.187	23.89
350.399	54.61
350.61	154.96
350.822	46.42
351.034	38.23
351.246	15.7
351.458	83.28
351.669	111.96
351.881	138.58
352.093	3.41
352.305	62.8
352.517	17.75
352.728	81.24
352.94	-31.4
353.152	71
353.363	1.37
353.575	30.04
353.787	42.32
353.999	23.89
354.21	130.39
354.422	75.09
354.633	25.94
354.845	81.24
355.057	48.47
355.268	73.04
355.48	150.87
355.692	81.24
355.903	32.08
356.115	11.61
356.326	-2.73
356.538	132.44
356.749	34.13
356.961	91.48
357.172	50.52
357.384	89.43
357.595	132.44
357.807	64.85
358.018	-2.73
358.23	79.19
358.441	154.96
358.653	32.08
358.864	3.41
359.075	34.13
359.287	66.9
359.498	177.49
359.709	114
359.921	-10.92
360.132	87.38
360.344	105.81
360.555	-10.92
360.766	83.28
360.977	38.23
361.189	32.08
361.4	42.32
361.611	81.24
361.823	136.53
362.034	71
362.245	48.47
362.456	23.89
362.667	103.76
362.879	163.15
363.09	75.09
363.301	79.19
363.512	111.96
363.723	-60.07
363.935	50.52
364.146	19.8
364.357	62.8
364.568	36.18
364.779	13.65
364.99	25.94
365.201	9.56
365.412	97.62
365.623	-64.17
365.834	21.85
366.045	68.95
366.256	103.76
366.467	66.9
366.678	52.56
366.889	38.23
367.1	30.04
367.311	66.9
367.522	75.09
367.733	122.2
367.944	52.56
368.155	-19.11
368.366	83.28
368.577	89.43
368.788	30.04
368.999	66.9
369.209	79.19
369.42	171.35
369.631	111.96
369.842	56.66
370.053	50.52
370.264	-10.92
370.474	23.89
370.685	99.67
370.896	103.76
371.107	7.51
371.317	34.13
371.528	62.8
371.739	95.57
371.95	163.15
372.16	95.57
372.371	7.51
372.582	134.48
372.792	-19.11
373.003	68.95
373.214	56.66
373.424	-0.68
373.635	34.13
373.846	87.38
374.056	73.04
374.267	44.37
374.477	23.89
374.688	71
374.898	109.91
375.109	64.85
375.319	42.32
375.53	58.71
375.74	54.61
375.951	56.66
376.161	42.32
376.372	83.28
376.582	30.04
376.793	54.61
377.003	5.46
377.214	132.44
377.424	5.46
377.635	-21.16
377.845	-49.83
378.055	73.04
378.266	7.51
378.476	-15.02
378.686	48.47
378.897	44.37
379.107	128.34
379.317	56.66
379.528	40.28
379.738	71
379.948	-10.92
380.158	87.38
380.369	99.67
380.579	60.76
380.789	50.52
380.999	89.43
381.21	73.04
381.42	175.44
381.63	21.85
381.84	75.09
382.05	111.96
382.261	105.81
382.471	66.9
382.681	46.42
382.891	89.43
383.101	77.14
383.311	9.56
383.521	85.33
383.731	138.58
383.941	46.42
384.151	46.42
384.361	44.37
384.571	75.09
384.781	38.23
384.991	83.28
385.201	132.44
385.411	30.04
385.621	62.8
385.831	36.18
386.041	105.81
386.251	71
386.461	71
386.671	32.08
386.881	54.61
387.091	62.8
387.301	169.3
387.511	52.56
387.72	56.66
387.93	99.67
388.14	66.9
388.35	89.43
388.56	30.04
388.769	95.57
388.979	103.76
389.189	85.33
389.399	87.38
389.609	75.09
389.818	120.15
390.028	79.19
390.238	27.99
390.447	38.23
390.657	114
390.867	73.04
391.076	79.19
391.286	13.65
391.496	52.56
391.705	23.89
391.915	105.81
392.125	144.72
392.334	66.9
392.544	107.86
392.753	95.57
392.963	95.57
393.172	73.04
393.382	56.66
393.591	124.24
393.801	9.56
394.01	120.15
394.22	95.57
394.429	71
394.639	-2.73
394.848	107.86
395.058	46.42
395.267	71
395.477	95.57
395.686	169.3
395.895	120.15
396.105	99.67
396.314	118.1
396.524	161.11
396.733	40.28
396.942	95.57
397.152	62.8
397.361	91.48
397.57	95.57
397.78	54.61
397.989	93.52
398.198	157.01
398.407	46.42
398.617	124.24
398.826	103.76
399.035	105.81
399.244	165.2
399.453	30.04
399.663	107.86
399.872	56.66
400.081	116.05
400.29	68.95
400.499	40.28
400.708	187.73
400.917	93.52
401.127	50.52
401.336	97.62
401.545	122.2
401.754	138.58
401.963	126.29
402.172	99.67
402.381	136.53
402.59	132.44
402.799	144.72
403.008	163.15
403.217	195.92
403.426	146.77
403.635	105.81
403.844	91.48
404.053	202.07
404.262	116.05
404.471	189.78
404.68	128.34
404.888	202.07
405.097	81.24
405.306	200.02
405.515	251.22
405.724	171.35
405.933	134.48
406.142	210.26
406.35	218.45
406.559	154.96
406.768	173.39
406.977	218.45
407.185	212.31
407.394	208.21
407.603	218.45
407.812	261.46
408.02	288.08
408.229	267.6
408.438	234.83
408.646	212.31
408.855	222.55
409.064	308.56
409.272	265.55
409.481	384.34
409.69	288.08
409.898	273.75
410.107	277.84
410.315	351.57
410.524	349.52
410.733	382.29
410.941	353.62
411.15	406.86
411.358	382.29
411.567	539.98
411.775	435.53
411.984	425.29
412.192	374.1
412.401	456.01
412.609	521.55
412.818	531.79
413.026	550.22
413.234	501.07
413.443	574.8
413.651	529.74
413.86	578.89
414.068	607.56
414.276	679.24
414.485	544.08
414.693	613.71
414.901	734.54
415.11	636.24
415.318	734.54
415.526	791.88
415.734	771.4
415.943	830.79
416.151	824.65
416.359	886.09
416.567	908.62
416.776	957.77
416.984	1080.64
417.192	953.67
417.4	1054.02
417.608	1056.07
417.817	1074.5
418.025	1127.75
418.233	1279.3
418.441	1195.33
418.649	1307.97
418.857	1389.89
419.065	1383.74
419.273	1170.76
419.481	1324.35
419.689	1488.19
419.897	1629.5
420.105	1537.34
420.313	1574.21
420.521	1649.98
420.729	1678.65
420.937	1819.96
421.145	1877.3
421.353	1836.35
421.561	2039.09
421.769	1979.7
421.977	2131.25
422.185	2129.2
422.393	2196.79
422.601	2295.09
422.809	2434.35
423.017	2290.99
423.224	2446.64
423.432	2706.73
423.64	2651.44
423.848	2807.08
424.056	2852.14
424.263	2868.52
424.471	2956.58
424.679	2940.2
424.887	3220.77
425.094	3206.44
425.302	3325.22
425.51	3384.61
425.718	3437.86
425.925	3503.39
426.133	3638.56
426.341	3855.64
426.548	3988.76
426.756	4199.7
426.964	4097.3
427.171	4285.72
427.379	4394.26
427.586	4513.04
427.794	4584.72
428.001	4814.09
428.209	5010.7
428.417	5068.04
428.624	5219.59
428.832	5305.6
429.039	5326.08
429.247	5346.56
429.454	5774.59
429.662	6229.24
429.869	5745.92
430.076	6143.22
430.284	6071.54
430.491	6305.01
430.699	6585.58
430.906	6606.06
431.114	6640.88
431.321	6941.93
431.528	7056.62
431.736	7429.35
431.943	7832.8
432.15	7625.95
432.358	7812.32
432.565	7988.44
432.772	8008.92
432.979	8488.15
433.187	8520.92
433.394	8537.3
433.601	9245.9
433.808	9231.56
434.016	9299.14
434.223	9592
434.43	10028.22
434.637	9999.55
434.844	10679.47
435.052	10910.89
435.259	10783.92
435.466	10972.33
435.673	10646.71
435.88	11383.98
436.087	11971.74
436.294	12029.09
436.501	11832.48
436.708	11893.92
436.915	12168.35
437.122	13126.8
437.329	12973.2
437.537	13071.5
437.743	13481.1
437.95	13192.33
438.157	14009.47
438.364	14517.37
438.571	14554.23
438.778	14697.59
438.985	15672.42
439.192	14967.92
439.399	15803.49
439.606	15369.32
439.813	16260.19
440.02	16960.59
440.227	17028.18
440.433	16514.14
440.64	17318.99
440.847	17271.89
441.054	17339.47
441.261	18478.14
441.467	18437.18
441.674	18807.86
441.881	19418.16
442.088	19477.55
442.294	19131.44
442.501	19532.84
442.708	20147.23
442.914	20614.17
443.121	21670.92
443.328	21109.78
443.534	22688.76
443.741	21824.52
443.948	21670.92
444.154	23116.79
444.361	23284.72
444.568	23229.43
444.774	23256.05
444.981	23553.01
445.187	24277.99
445.394	25383.89
445.6	24945.62
445.807	27265.97
446.013	25766.86
446.22	26665.92
446.426	27530.16
446.633	27696.05
446.839	28830.62
447.046	27653.04
447.252	29369.24
447.459	29027.23
447.665	29100.95
447.871	30165.9
448.078	31613.81
448.284	30059.4
448.491	31044.48
448.697	32330.6
448.903	32297.83
449.11	32686.95
449.316	32109.42
449.522	32500.58
449.728	33745.75
449.935	33936.21
450.141	33747.79
450.347	34491.21
450.553	33661.78
450.76	33983.31
450.966	35130.17
451.172	34671.43
451.378	35375.93
451.584	34485.06
451.791	35449.66
451.997	35588.92
452.203	35982.13
452.409	35994.42
452.615	36008.75
452.821	34493.25
453.027	34181.96
453.233	36047.66
453.44	34648.9
453.646	34995.01
453.852	34816.83
454.058	35547.96
454.264	34372.42
454.47	35111.74
454.676	34253.64
454.882	35115.84
455.088	32267.11
455.294	33024.86
455.5	33213.27
455.705	33276.76
455.911	32582.5
456.117	31247.22
456.323	31056.76
456.529	29604.75
456.735	30991.23
456.941	30159.75
457.147	29672.34
457.352	28316.58
457.558	28242.85
457.764	28447.65
457.97	28021.67
458.176	27106.23
458.381	27100.09
458.587	25680.85
458.793	26065.86
458.999	24380.39
459.204	26231.75
459.41	25326.55
459.616	23790.57
459.821	23632.88
460.027	23589.87
460.233	22795.26
460.438	22006.79
460.644	22223.87
460.85	21353.49
461.055	20581.4
461.261	20818.97
461.466	19344.43
461.672	18897.97
461.878	20010.02
462.083	18793.53
462.289	18134.08
462.494	18367.55
462.7	17198.16
462.905	16850
463.111	17341.52
463.316	17468.49
463.522	17032.27
463.727	17235.02
463.932	17118.29
464.138	16749.65
464.343	16895.06
464.549	16237.66
464.754	17110.1
464.959	16718.93
465.165	16616.54
465.37	15903.84
465.575	15465.58
465.781	16041.06
465.986	16249.95
466.191	15676.52
466.397	15414.38
466.602	14478.46
466.807	14871.67
467.012	15055.98
467.218	14918.77
467.423	14799.99
467.628	14632.05
467.833	15572.07
468.038	14808.18
468.244	14390.39
468.449	15117.42
468.654	14441.59
468.859	14337.15
469.064	14365.82
469.269	13794.43
469.474	13884.55
469.679	13997.18
469.885	13735.04
470.09	13892.74
470.295	13546.63
470.5	13294.73
470.705	13458.57
470.91	12907.66
471.115	12985.49
471.32	13229.2
471.525	13237.39
471.73	12860.56
471.935	12444.82
472.139	12356.76
472.344	12334.23
472.549	12369.05
472.754	12098.72
472.959	11793.57
473.164	11590.82
473.369	11590.82
473.574	11877.54
473.778	11650.21
473.983	11687.07
474.188	11728.03
474.393	11070.64
474.598	11140.27
474.802	11052.2
475.007	10808.5
475.212	10876.08
475.417	10583.22
475.621	10671.28
475.826	10689.71
476.031	10323.13
476.235	10054.84
476.44	10386.61
476.645	10042.56
476.849	10413.24
477.054	10110.14
477.259	9782.46
477.463	9905.34
477.668	9659.59
477.872	9753.79
478.077	9462.98
478.282	9401.54
478.486	9329.86
478.691	9157.83
478.895	9227.46
479.1	9127.11
479.304	9235.66
479.509	8750.29
479.713	9043.15
479.918	8834.25
480.122	8834.25
480.326	8598.74
480.531	8950.99
480.735	8443.09
480.94	8813.77
481.144	9100.49
481.348	8492.24
481.553	8676.56
481.757	8346.84
481.961	8498.39
482.166	8707.28
482.37	8475.86
482.574	8545.49
482.778	8322.26
482.983	8760.53
483.187	8393.94
483.391	8357.08
483.595	8430.8
483.8	8172.76
484.004	8342.74
484.208	8541.39
484.412	8436.95
484.616	8314.07
484.821	8406.23
485.025	8312.02
485.229	8367.32
485.433	8180.95
485.637	8299.73
485.841	8445.14
486.045	8348.89
486.249	8436.95
486.453	8418.52
486.657	8334.55
486.861	8422.61
487.065	8230.1
487.269	8170.71
487.473	8000.73
487.677	8328.41
487.881	8422.61
488.085	8234.2
488.289	8221.91
488.493	8260.82
488.697	8254.68
488.901	8303.83
489.105	8320.21
489.309	8336.6
489.512	8508.63
489.716	8299.73
489.92	8420.56
490.124	8299.73
490.328	8312.02
490.531	8279.25
490.735	8369.37
490.939	8369.37
491.143	8295.64
491.346	8406.23
491.55	8690.9
491.754	8305.88
491.958	8461.52
492.161	8477.91
492.365	8619.22
492.569	8615.12
492.772	8694.99
492.976	8772.82
493.18	8707.28
493.383	8750.29
493.587	8801.49
493.79	8879.31
493.994	8469.72
494.197	8797.39
494.401	8781.01
494.605	8748.24
494.808	9053.39
495.012	8959.18
495.215	8973.52
495.419	9016.52
495.622	9114.83
495.825	9278.66
496.029	9303.24
496.232	9346.25
496.436	9462.98
496.639	9620.67
496.843	9553.09
497.046	9665.73
497.249	9757.89
497.453	9766.08
497.656	9909.44
497.859	9833.66
498.063	9909.44
498.266	10122.43
498.469	10241.21
498.673	10253.5
498.876	10312.89
499.079	10382.52
499.282	10495.16
499.485	10757.3
499.689	10847.41
499.892	10867.89
500.095	10871.98
500.298	11142.32
500.501	10841.26
500.705	11314.34
500.908	11340.97
501.111	11676.84
501.314	11717.79
501.517	11885.73
501.72	11719.84
501.923	12016.8
502.126	12020.89
502.329	12283.03
502.532	12291.23
502.735	12321.95
502.938	12498.07
503.141	12532.89
503.344	12932.24
503.547	12727.44
503.75	13126.8
503.953	13202.57
504.156	13253.77
504.359	13456.52
504.562	13390.98
504.765	13810.82
504.968	13892.74
505.17	13913.22
505.373	14167.17
505.576	14156.93
505.779	14472.31
505.982	14236.8
506.185	14693.49
506.387	14726.26
506.59	14888.05
506.793	15096.94
506.996	14963.82
507.198	15588.46
507.401	15361.13
507.604	15742.05
507.807	15819.88
508.009	15864.93
508.212	16221.28
508.415	16399.45
508.617	16415.83
508.82	16632.92
509.022	16403.55
509.225	16874.58
509.428	17243.21
509.63	17138.77
509.833	17335.37
510.035	17599.56
510.238	17552.46
510.44	18076.74
510.643	18138.18
510.845	18060.35
511.048	18050.11
511.25	18326.59
511.453	18748.47
511.655	19348.53
511.858	18736.18
512.06	19004.47
512.262	19248.18
512.465	19213.36
512.667	19489.84
512.87	19627.05
513.072	19969.06
513.274	20249.63
513.477	20198.43
513.679	20458.53
513.881	20835.35
514.084	20999.19
514.286	21126.16
514.488	21044.24
514.69	21650.44
514.893	21937.16
515.095	21892.1
515.297	21920.77
515.499	22197.25
515.701	22201.35
515.904	22737.91
516.106	22547.45
516.308	23020.53
516.51	23262.19
516.712	23032.82
516.914	23587.82
517.116	23634.92
517.318	24124.39
517.52	23964.65
517.722	24155.11
517.925	24407.01
518.127	24808.41
518.329	24855.51
518.531	24632.29
518.733	25236.44
518.935	25232.34
519.136	25187.28
519.338	25398.23
519.54	25629.65
519.742	26037.19
519.944	26061.77
520.146	25942.99
520.348	26475.46
520.55	26323.91
520.752	26944.44
520.954	27235.25
521.155	26792.89
521.357	27253.69
521.559	27558.83
521.761	27495.35
521.963	27794.35
522.164	27444.15
522.366	27956.14
522.568	27743.15
522.77	28066.73
522.971	28181.42
523.173	28154.79
523.375	28392.36
523.576	28087.21
523.778	28210.09
523.98	28902.3
524.181	29121.43
524.383	28842.91
524.584	29041.56
524.786	29225.88
524.988	28879.77
525.189	29184.92
525.391	29397.91
525.592	29195.16
525.794	29332.37
525.995	29338.52
526.197	29414.29
526.398	29461.4
526.6	29420.44
526.801	29338.52
527.003	29621.14
527.204	29809.55
527.406	29936.52
527.607	29969.29
527.808	29868.94
528.01	29326.23
528.211	29619.09
528.412	30163.85
528.614	29731.73
528.815	29922.19
529.016	30393.22
529.218	29483.92
529.419	29531.03
529.62	29987.72
529.822	29723.54
530.023	29617.04
530.224	29410.2
530.425	29516.69
530.626	29610.9
530.828	29658
531.029	29842.32
531.23	29590.42
531.431	29363.09
531.632	29739.92
531.833	29612.95
532.035	29569.94
532.236	29465.49
532.437	29594.51
532.638	29250.46
532.839	29234.07
533.04	29404.05
533.241	29088.67
533.442	29746.06
533.643	29426.58
533.844	29297.56
534.045	28980.12
534.246	28707.74
534.447	29328.28
534.648	29111.19
534.849	29289.37
535.05	29037.47
535.251	29049.75
535.451	28681.12
535.652	29152.15
535.853	28785.57
536.054	28808.09
536.255	29021.08
536.456	28578.72
536.657	29016.99
536.857	28484.51
537.058	28613.54
537.259	29119.38
537.46	28967.84
537.66	28691.36
537.861	28613.54
538.062	28629.92
538.263	28470.18
538.463	28285.86
538.664	28425.12
538.865	28459.94
539.065	28627.87
539.266	28459.94
539.466	28593.06
539.667	28136.36
539.868	28591.01
540.068	28359.59
540.269	28162.98
540.469	28439.46
540.67	27888.56
540.87	28521.38
541.071	28220.33
541.271	28212.13
541.472	28001.19
541.672	27960.23
541.873	28038.06
542.073	27792.3
542.274	28017.58
542.474	27923.37
542.675	27952.04
542.875	28249
543.075	28326.82
543.276	27718.57
543.476	28109.74
543.676	27935.66
543.877	27886.51
544.077	27974.57
544.277	27663.28
544.478	27665.33
544.678	28089.26
544.878	27624.37
545.078	27589.55
545.279	27718.57
545.479	27777.97
545.679	28003.24
545.879	27599.79
546.079	27773.87
546.28	27753.39
546.48	27329.46
546.68	28269.48
546.88	28079.02
547.08	27837.36
547.28	27659.18
547.48	27190.2
547.68	27294.64
547.88	27562.93
548.081	27638.7
548.281	27970.47
548.481	27771.82
548.681	28064.68
548.881	27448.24
549.081	27823.02
549.28	27388.85
549.48	27902.89
549.68	27698.09
549.88	27833.26
550.08	27587.5
550.28	27646.9
550.48	27284.4
550.68	27892.65
550.88	27542.45
551.08	27964.33
551.279	27843.5
551.479	27515.83
551.679	27773.87
551.879	27700.14
552.079	27839.4
552.278	28042.15
552.478	27851.69
552.678	27863.98
552.878	28269.48
553.077	27782.06
553.277	27784.11
553.477	28279.72
553.676	27716.53
553.876	27825.07
554.076	27872.17
554.275	28017.58
554.475	27847.6
554.674	28459.94
554.874	27755.44
555.074	28019.63
555.273	28113.83
555.473	28093.35
555.672	27911.08
555.872	28091.3
556.071	28058.54
556.271	28314.53
556.47	27624.37
556.67	28011.43
556.869	27722.67
557.068	28054.44
557.268	27941.8
557.467	28220.33
557.667	28136.36
557.866	27995.05
558.065	28144.55
558.265	27790.25
558.464	28230.57
558.663	28267.43
558.863	27976.62
559.062	28339.11
559.261	28003.24
559.461	28079.02
559.66	28023.72
559.859	28099.5
560.058	28021.67
560.258	28029.87
560.457	27986.86
560.656	28392.36
560.855	27898.8
561.054	28668.83
561.253	27823.02
561.453	28113.83
561.652	28109.74
561.851	28181.42
562.05	28019.63
562.249	27786.16
562.448	27679.66
562.647	27612.08
562.846	28085.16
563.045	28011.43
563.244	27698.09
563.443	28474.27
563.642	28042.15
563.841	27513.78
564.04	27753.39
564.239	28332.97
564.438	27749.29
564.637	27499.44
564.836	28048.3
565.035	27452.34
565.234	27904.94
565.432	27728.81
565.631	27597.74
565.83	27898.8
566.029	27495.35
566.228	27413.43
566.427	27814.83
566.625	27454.39
566.824	27009.98
567.023	27732.91
567.222	27186.1
567.42	27755.44
567.619	27229.11
567.818	27343.8
568.016	27261.88
568.215	27562.93
568.414	27022.26
568.612	27329.46
568.811	26966.97
569.01	27153.33
569.208	26792.89
569.407	26805.18
569.605	26844.09
569.804	27073.46
570.002	26442.69
570.201	26999.74
570.4	26649.53
570.598	26561.47
570.797	26440.64
570.995	26426.31
571.193	26153.93
571.392	26328
571.59	26178.5
571.789	26029
571.987	26137.54
572.186	25961.42
572.384	25795.53
572.582	25740.24
572.781	25781.2
572.979	25297.88
573.177	25674.7
573.376	26002.38
573.574	25633.74
573.772	25619.41
573.971	25252.82
574.169	25451.47
574.367	25242.58
574.565	25590.73
574.763	25301.97
574.962	24859.61
575.16	24863.71
575.358	24968.15
575.556	24632.29
575.754	24896.47
575.952	24779.74
576.151	24923.1
576.349	24138.72
576.547	24445.92
576.745	24566.75
576.943	24730.59
577.141	24441.82
577.339	24345.57
577.537	24394.72
577.735	24388.58
577.933	24204.26
578.131	24257.51
578.329	24173.54
578.527	24112.1
578.725	23817.19
578.923	23913.45
579.121	23606.25
579.319	23528.43
579.516	23546.86
579.714	23593.97
579.912	23614.44
580.11	23348.21
580.308	23450.61
580.506	23475.18
580.704	22987.77
580.901	23084.02
581.099	23362.54
581.297	23192.56
581.495	23219.19
581.692	23200.76
581.89	22713.34
582.088	23086.07
582.285	22823.93
582.483	23075.83
582.681	22938.62
582.878	22596.6
583.076	22576.12
583.274	22598.65
583.471	22424.58
583.669	22451.2
583.866	22397.95
584.064	22653.95
584.262	22197.25
584.459	22668.28
584.657	21818.38
584.854	22498.3
585.052	21804.04
585.249	22135.81
585.447	22270.98
585.644	21781.51
585.841	21926.92
586.039	21842.95
586.236	21914.63
586.434	21617.68
586.631	21490.7
586.828	21734.41
587.026	21713.93
587.223	21324.82
587.42	21634.06
587.618	21556.24
587.815	21085.2
588.012	21238.8
588.21	21306.38
588.407	21224.47
588.604	21292.05
588.801	20980.76
588.999	21025.81
589.196	21287.95
589.393	20988.95
589.59	20683.8
589.787	21427.21
589.984	20788.25
590.182	20667.42
590.379	21091.35
590.576	20667.42
590.773	20808.73
590.97	20718.62
591.167	20706.33
591.364	20790.3
591.561	20851.74
591.758	20354.08
591.955	20501.53
592.152	20638.75
592.349	20309.02
592.546	20395.04
592.743	20507.68
592.94	20421.66
593.137	20366.37
593.334	20460.57
593.531	20091.94
593.727	20292.64
593.924	20218.91
594.121	20108.32
594.318	20329.5
594.515	20366.37
594.712	20343.84
594.908	20175.91
595.105	20071.46
595.302	19737.64
595.499	19952.68
595.696	20026.4
595.892	19948.58
596.089	19942.44
596.286	20302.88
596.482	20001.83
596.679	20012.07
596.876	19891.24
597.072	19833.89
597.269	20026.4
597.466	19639.34
597.662	19797.03
597.859	19870.76
598.055	20003.88
598.252	19700.78
598.448	20069.41
598.645	19735.59
598.841	19651.63
599.038	19864.61
599.234	19981.35
599.431	19751.98
599.627	19895.33
599.824	19772.46
600.02	19608.62
600.217	19786.79
600.413	19794.98
600.609	19964.96
600.806	19911.72
601.002	20159.52
601.198	20022.31
601.395	19870.76
601.591	19997.73
601.787	19852.33
601.984	19971.11
602.18	20001.83
602.376	19897.38
602.572	20046.88
602.769	20354.08
602.965	19942.44
603.161	20186.15
603.357	20196.39
603.553	20208.67
603.75	20108.32
603.946	20096.03
604.142	20436
604.338	20091.94
604.534	20468.76
604.73	20317.22
604.926	20360.22
605.122	20356.13
605.318	20401.18
605.514	20436
605.71	20311.07
605.906	20681.75
606.102	20804.63
606.298	20425.76
606.494	20657.18
606.69	20802.58
606.886	20884.5
607.082	20591.64
607.278	20847.64
607.474	20388.89
607.67	20833.3
607.866	20671.51
608.062	21052.44
608.257	20935.7
608.453	20851.74
608.649	21013.52
608.845	20890.65
609.041	21013.52
609.236	21128.21
609.432	20988.95
609.628	21267.47
609.824	21533.71
610.019	21351.44
610.215	21429.26
610.411	21363.73
610.606	21472.27
610.802	21654.54
610.998	21353.49
611.193	21492.75
611.389	21369.87
611.584	21435.41
611.78	21562.38
611.976	21550.09
612.171	21324.82
612.367	21705.74
612.562	21707.79
612.758	21679.11
612.953	21382.16
613.149	22055.94
613.344	21730.31
613.539	21951.49
613.735	21916.68
613.93	21890.06
614.126	21779.47
614.321	22096.9
614.517	22080.52
614.712	21926.92
614.907	22055.94
615.103	22213.63
615.298	21982.21
615.493	22699
615.688	22033.41
615.884	22207.49
616.079	21980.17
616.274	22225.92
616.47	22072.32
616.665	22346.75
616.86	21853.19
617.055	21906.44
617.25	22162.44
617.445	22189.06
617.641	21826.57
617.836	22287.36
618.031	21992.45
618.226	21777.42
618.421	21863.43
618.616	22080.52
618.811	21746.7
619.006	21976.07
619.201	21767.18
619.396	21842.95
619.591	21709.83
619.786	21922.82
619.981	21615.63
620.176	21711.88
620.371	21595.15
620.566	21689.35
620.761	21586.96
620.956	21789.7
621.151	21249.04
621.346	21314.58
621.541	20696.09
621.735	21468.17
621.93	20900.89
622.125	20917.27
622.32	21081.11
622.515	20933.65
622.709	20767.77
622.904	20882.45
623.099	20569.12
623.294	20698.14
623.488	20300.83
623.683	20493.34
623.878	20411.42
624.072	20270.11
624.267	20079.65
624.462	20298.78
624.656	19881
624.851	20257.82
625.046	20184.1
625.24	19864.61
625.435	19498.03
625.629	19432.49
625.824	19489.84
626.018	19371.05
626.213	19174.45
626.407	19543.08
626.602	19014.71
626.796	19086.39
626.991	19270.7
627.185	18988.08
627.38	18746.42
627.574	18781.24
627.768	18615.35
627.963	18547.77
628.157	18410.56
628.352	18543.67
628.546	17994.82
628.74	18285.63
628.935	18308.16
629.129	18050.11
629.323	17779.78
629.517	17716.3
629.712	17638.47
629.906	17765.45
630.1	17470.54
630.294	17673.29
630.489	17556.55
630.683	17491.02
630.877	17257.55
631.071	17171.54
631.265	17183.82
631.459	17114.19
631.653	17048.66
631.848	17243.21
632.042	16743.51
632.236	17060.94
632.43	16610.39
632.624	16669.78
632.818	16378.97
633.012	16434.27
633.206	16450.65
633.4	16225.37
633.594	16155.74
633.788	16112.74
633.982	16292.96
634.176	16145.5
634.369	15961.19
634.563	16045.15
634.757	15752.29
634.951	15819.88
635.145	15656.04
635.339	15543.4
635.533	15531.11
635.726	15578.22
635.92	15178.86
636.114	15285.36
636.308	15015.02
636.501	15322.22
636.695	14904.43
636.889	14842.99
637.083	14529.66
637.276	14709.88
637.47	14644.34
637.664	14537.85
637.857	14591.09
638.051	14402.68
638.244	14161.02
638.438	14087.29
638.632	14165.12
638.825	13798.53
639.019	13917.31
639.212	14023.81
639.406	13759.62
639.599	13790.34
639.793	13661.32
639.986	13333.64
640.18	13532.29
640.373	13538.44
640.567	13427.85
640.76	13350.03
640.954	13186.19
641.147	13182.09
641.34	12897.42
641.534	12977.3
641.727	12735.63
641.92	12893.33
642.114	12547.22
642.307	12661.91
642.5	12670.1
642.694	12295.32
642.887	12301.47
643.08	12377.24
643.273	12244.12
643.467	12295.32
643.66	11932.83
643.853	12219.55
644.046	11801.76
644.239	11830.43
644.432	11793.57
644.626	11740.32
644.819	11752.61
645.012	11697.31
645.205	11414.7
645.398	11545.77
645.591	11533.48
645.784	11375.78
645.977	11125.93
646.17	11179.18
646.363	11175.08
646.556	11097.26
646.749	10869.94
646.942	11080.88
647.135	10964.14
647.328	10710.19
647.521	10777.78
647.714	10532.02
647.907	10431.67
648.099	10478.77
648.292	10751.15
648.485	10376.38
648.678	10347.7
648.871	10302.65
649.064	10278.07
649.256	10286.26
649.449	10017.98
649.642	9919.68
649.835	9954.49
650.027	10007.74
650.22	9938.11
650.413	9874.62
650.605	9825.47
650.798	9641.15
650.991	9641.15
651.183	9542.85
651.376	9393.35
651.568	9559.24
651.761	9587.91
651.954	9483.46
652.146	9444.55
652.339	9303.24
652.531	9493.7
652.724	9157.83
652.916	9012.43
653.109	8973.52
653.301	9135.31
653.494	9061.58
653.686	8891.6
653.879	9364.68
654.071	8819.92
654.263	8783.06
654.456	8787.15
654.648	8787.15
654.84	8754.38
655.033	8600.79
655.225	8494.29
655.417	8389.85
655.61	8592.59
655.802	8545.49
655.994	8238.3
656.186	8445.14
656.379	8373.46
656.571	8357.08
656.763	8402.13
656.955	8291.54
657.148	8080.6
657.34	8121.56
657.532	8000.73
657.724	8094.94
657.916	7970.01
658.108	8000.73
658.3	7855.33
658.492	7797.98
658.684	7855.33
658.876	7787.74
659.068	7754.97
659.26	7533.79
659.452	7447.78
659.644	7695.58
659.836	7501.03
660.028	7425.25
660.22	7486.69
660.412	7400.68
660.604	7191.78
660.796	7179.5
660.988	7263.46
661.18	7216.36
661.372	7093.48
661.563	7083.24
661.755	7138.54
661.947	7036.14
662.139	7027.95
662.331	6956.27
662.522	6800.62
662.714	6943.98
662.906	6755.57
663.097	6735.09
663.289	6812.91
663.481	6888.68
663.673	6671.6
663.864	6536.43
664.056	6642.93
664.247	6739.18
664.439	6452.47
664.631	6501.62
664.822	6548.72
665.014	6558.96
665.205	6331.64
665.397	6278.39
665.588	6194.42
665.78	6411.51
665.971	6167.8
666.163	6227.19
666.354	6151.42
666.546	6163.7
666.737	6116.6
666.929	6075.64
667.12	6108.41
667.311	5983.48
667.503	5829.88
667.694	6042.87
667.885	6190.33
668.077	5975.29
668.268	5932.28
668.459	5858.56
668.651	5780.73
668.842	5772.54
669.033	5774.59
669.224	5772.54
669.416	5825.79
669.607	5813.5
669.798	5545.22
669.989	5625.09
670.18	5649.66
670.371	5469.44
670.563	5461.25
670.754	5633.28
670.945	5395.71
671.136	5545.22
671.327	5608.7
671.518	5602.56
671.709	5412.1
671.9	5657.85
672.091	5498.11
672.282	5365
672.473	5498.11
672.664	5223.69
672.855	5223.69
673.046	5418.24
673.237	5223.69
673.428	5195.01
673.619	5321.99
673.809	5176.58
674	5219.59
674.191	5106.95
674.382	5104.9
674.573	5076.23
674.764	5020.94
674.954	5115.14
675.145	5010.7
675.336	4971.79
675.527	5018.89
675.717	5078.28
675.908	4990.22
676.099	4906.25
676.289	5027.08
676.48	4986.12
676.671	4756.75
676.861	5043.46
677.052	4846.86
677.243	4850.96
677.433	4863.24
677.624	4914.44
677.814	4879.63
678.005	4789.52
678.195	4670.73
678.386	4793.61
678.576	4961.55
678.767	4646.16
678.957	4816.14
679.148	4838.67
679.338	4785.42
679.529	4717.84
679.719	4588.82
679.909	4764.94
680.1	4717.84
680.29	4799.76
680.481	4754.7
680.671	4578.58
680.861	4779.28
681.052	4652.3
681.242	4672.78
681.432	4715.79
681.622	4605.2
681.813	4693.26
682.003	4740.36
682.193	4603.15
682.383	4683.02
682.573	4627.73
682.764	4584.72
682.954	4588.82
683.144	4513.04
683.334	4578.58
683.524	4580.62
683.714	4568.34
683.904	4488.46
684.094	4609.29
684.284	4449.55
684.474	4523.28
684.664	4515.09
684.854	4611.34
685.044	4650.25
685.234	4515.09
685.424	4586.77
685.614	4467.99
685.804	4541.71
685.994	4584.72
686.184	4588.82
686.374	4519.18
686.564	4510.99
686.753	4328.72
686.943	4412.69
687.133	4355.35
687.323	4363.54
687.513	4306.2
687.702	4318.48
687.892	4343.06
688.082	4279.57
688.272	4363.54
688.461	4265.24
688.651	4351.25
688.841	4422.93
689.03	4314.39
689.22	4162.84
689.41	4224.28
689.599	4220.18
689.789	4183.32
689.979	4322.58
690.168	4211.99
690.358	4259.09
690.547	4125.97
690.737	4252.95
690.926	4277.52
691.116	4185.37
691.305	4316.44
691.495	4242.71
691.684	4173.08
691.874	4281.62
692.063	4181.27
692.252	4076.82
692.442	4105.49
692.631	4080.92
692.82	4068.63
693.01	4117.78
693.199	3994.9
693.388	4142.36
693.578	4125.97
693.767	4117.78
693.956	4162.84
694.146	4015.38
694.335	3996.95
694.524	3896.6
694.713	4111.64
694.902	3978.52
695.092	4166.93
695.281	4025.62
695.47	3937.56
695.659	3872.03
695.848	4031.77
696.037	4033.82
696.226	3978.52
696.415	3923.23
696.604	3986.71
696.793	3925.27
696.982	3992.86
697.171	3872.03
697.36	4101.4
697.549	3953.94
697.738	3869.98
697.927	3806.49
698.116	3960.09
698.305	3818.78
698.494	3874.07
698.683	3882.27
698.872	3880.22
699.061	3786.01
699.25	3740.96
699.438	3896.6
699.627	3808.54
699.816	3968.28
700.005	3685.66
700.193	3867.93
700.382	3831.07
700.571	3734.81
700.76	3753.24
700.948	3845.4
701.137	3890.46
701.326	3679.52
701.514	3652.89
701.703	3835.16
701.892	3869.98
702.08	3675.42
702.269	3677.47
702.457	3661.09
702.646	3675.42
702.834	3654.94
703.023	3652.89
703.212	3591.45
703.4	3581.21
703.589	3564.83
703.777	3665.18
703.965	3499.3
704.154	3667.23
704.342	3568.93
704.531	3474.72
704.719	3517.73
704.907	3540.26
705.096	3511.58
705.284	3407.14
705.472	3697.95
705.661	3413.28
705.849	3538.21
706.037	3706.14
706.226	3458.34
706.414	3560.73
706.602	3450.14
706.79	3487.01
706.979	3396.9
707.167	3400.99
707.355	3437.86
707.543	3487.01
707.731	3415.33
707.919	3331.36
708.107	3482.91
708.296	3386.66
708.484	3274.02
708.672	3398.95
708.86	3398.95
709.048	3351.84
709.236	3292.45
709.424	3314.98
709.612	3212.58
709.8	3245.35
709.988	3208.48
710.176	3290.4
710.364	3294.5
710.551	3278.12
710.739	3222.82
710.927	3253.54
711.115	3145
711.303	3216.68
711.491	3200.29
711.679	3116.33
711.866	3290.4
712.054	3347.75
712.242	3136.81
712.43	3265.83
712.617	3153.19
712.805	3030.31
712.993	3161.38
713.181	3247.4
713.368	3167.52
713.556	3046.69
713.744	3052.84
713.931	3151.14
714.119	3177.76
714.306	3022.12
714.494	3054.89
714.682	2987.3
714.869	2956.58
715.057	3009.83
715.244	2852.14
715.432	3085.61
715.619	3013.93
715.807	2911.53
715.994	2921.77
716.182	2919.72
716.369	2987.3
716.556	2901.29
716.744	2817.32
716.931	2903.34
717.119	2950.44
717.306	2899.24
717.493	2841.9
717.681	2938.15
717.868	2856.23
718.055	2864.43
718.242	2899.24
718.43	2882.86
718.617	2671.92
718.804	2688.3
718.991	2770.22
719.179	2872.62
719.366	2901.29
719.553	2817.32
719.74	2790.7
719.927	2831.66
720.114	2671.92
720.301	2692.4
720.488	2569.52
720.676	2727.21
720.863	2680.11
721.05	2678.06
721.237	2733.36
721.424	2594.09
721.611	2698.54
721.798	2553.13
721.985	2684.2
722.172	2620.72
722.358	2567.47
722.545	2757.93
722.732	2590
722.919	2721.07
723.106	2610.48
723.293	2665.77
723.48	2557.23
723.667	2522.41
723.853	2549.04
724.04	2710.83
724.227	2448.69
724.414	2514.22
724.6	2395.44
724.787	2512.17
724.974	2508.08
725.161	2465.07
725.347	2405.68
725.534	2460.98
725.72	2368.82
725.907	2364.72
726.094	2446.64
726.28	2446.64
726.467	2450.74
726.653	2374.96
726.84	2458.93
727.027	2553.13
727.213	2417.97
727.4	2479.41
727.586	2358.58
727.773	2356.53
727.959	2358.58
728.145	2364.72
728.332	2383.15
728.518	2360.63
728.705	2344.24
728.891	2356.53
729.077	2319.67
729.264	2297.14
729.45	2280.75
729.636	2340.15
729.823	2307.38
730.009	2135.35
730.195	2241.84
730.382	2331.95
730.568	2215.22
730.754	2274.61
730.94	2323.76
731.126	2282.8
731.313	2290.99
731.499	2186.55
731.685	2286.9
731.871	2227.51
732.057	2274.61
732.243	2311.47
732.429	2184.5
732.615	2188.6
732.801	2262.32
732.987	2151.73
733.173	2233.65
733.359	2170.16
733.545	2139.44
733.731	2143.54
733.917	2258.23
734.103	2127.16
734.289	2186.55
734.475	2135.35
734.661	2188.6
734.847	2118.97
735.033	2073.91
735.219	2143.54
735.404	2078.01
735.59	2065.72
735.776	2137.4
735.962	2022.71
736.148	2151.73
736.333	2012.47
736.519	2110.77
736.705	2018.61
736.89	2045.24
737.076	2004.28
737.262	2014.52
737.447	2151.73
737.633	1959.22
737.819	2055.48
738.004	2006.33
738.19	1991.99
738.375	1979.7
738.561	1996.09
738.747	1928.5
738.932	2014.52
739.118	2006.33
739.303	1971.51
739.489	1967.42
739.674	1858.87
739.859	1860.92
740.045	1905.98
740.23	1899.83
740.416	1858.87
740.601	1942.84
740.786	1959.22
740.972	1850.68
741.157	1860.92
741.342	1791.29
741.528	1801.53
741.713	1803.58
741.898	1803.58
742.084	1721.66
742.269	1840.44
742.454	1834.3
742.639	1793.34
742.824	1828.15
743.01	1897.78
743.195	1865.02
743.38	1787.19
743.565	1735.99
743.75	1797.43
743.935	1824.06
744.12	1875.26
744.305	1752.38
744.49	1676.6
744.675	1750.33
744.86	1660.22
745.045	1660.22
745.23	1645.88
745.415	1703.23
745.6	1701.18
745.785	1676.6
745.97	1750.33
746.155	1629.5
746.34	1604.92
746.525	1647.93
746.71	1654.08
746.895	1549.63
747.079	1555.77
747.264	1592.64
747.449	1602.88
747.634	1662.27
747.819	1598.78
748.003	1467.71
748.188	1606.97
748.373	1523.01
748.557	1566.01
748.742	1586.49
748.927	1561.92
749.111	1510.72
749.296	1508.67
749.481	1443.14
749.665	1451.33
749.85	1459.52
750.034	1494.33
750.219	1422.66
750.404	1443.14
750.588	1404.22
750.773	1377.6
750.957	1350.98
751.141	1373.5
751.326	1367.36
751.51	1340.74
751.695	1389.89
751.879	1217.86
752.064	1424.7
752.248	1416.51
752.432	1398.08
752.617	1334.59
752.801	1285.44
752.985	1283.39
753.17	1334.59
753.354	1291.59
753.538	1203.52
753.722	1320.26
753.907	1174.85
754.091	1185.09
754.275	1258.82
754.459	1160.52
754.643	1201.47
754.828	1125.7
755.012	1119.56
755.196	1072.45
755.38	1199.43
755.564	1221.95
755.748	1123.65
755.932	1099.08
756.116	1148.23
756.3	1162.56
756.484	1099.08
756.668	1168.71
756.852	1070.4
757.036	1054.02
757.22	1056.07
757.404	1078.6
757.588	1072.45
757.772	1051.97
757.956	1105.22
758.14	1058.12
758.323	1086.79
758.507	988.49
758.691	990.53
758.875	1021.25
759.059	1025.35
759.242	972.1
759.426	931.14
759.61	955.72
759.794	931.14
759.977	1041.73
760.161	994.63
760.345	994.63
760.528	1035.59
760.712	1029.45
760.895	892.23
761.079	939.33
761.263	908.62
761.446	1029.45
761.63	910.66
761.813	947.53
761.997	873.8
762.18	918.86
762.364	951.62
762.547	902.47
762.731	849.22
762.914	834.89
763.098	902.47
763.281	890.18
763.464	890.18
763.648	914.76
763.831	955.72
764.015	925
764.198	881.99
764.381	914.76
764.564	853.32
764.748	922.95
764.931	834.89
765.114	828.74
765.297	918.86
765.481	918.86
765.664	836.94
765.847	765.26
766.03	832.84
766.213	775.5
766.397	767.31
766.58	804.17
766.763	853.32
766.946	892.23
767.129	783.69
767.312	941.38
767.495	779.59
767.678	787.79
767.861	808.27
768.044	816.46
768.227	843.08
768.41	736.59
768.593	859.46
768.776	800.07
768.959	824.65
769.142	828.74
769.324	779.59
769.507	669
769.69	755.02
769.873	769.35
770.056	824.65
770.239	759.11
770.421	779.59
770.604	810.31
770.787	709.96
770.97	728.39
771.152	673.1
771.335	695.63
771.518	718.15
771.7	777.55
771.883	744.78
772.066	769.35
772.248	750.92
772.431	726.35
772.613	709.96
772.796	722.25
772.978	701.77
773.161	712.01
773.343	628.04
773.526	685.39
773.708	730.44
773.891	669
774.073	705.87
774.256	712.01
774.438	726.35
774.621	636.24
774.803	693.58
774.985	701.77
775.168	734.54
775.35	595.28
775.532	652.62
775.715	660.81
775.897	628.04
776.079	562.51
776.261	648.52
776.444	587.08
776.626	720.2
776.808	636.24
776.99	595.28
777.173	662.86
777.355	566.6
777.537	591.18
777.719	669
777.901	496.97
778.083	589.13
778.265	488.78
778.447	689.48
778.629	515.41
778.811	574.8
778.993	580.94
779.175	593.23
779.357	539.98
779.539	488.78
779.721	599.37
779.903	603.47
780.085	521.55
780.267	556.36
780.449	560.46
780.631	466.25
780.812	513.36
780.994	501.07
781.176	546.12
781.358	507.21
781.54	464.21
781.721	527.69
781.903	556.36
782.085	513.36
782.267	456.01
782.448	501.07
782.63	472.4
782.812	435.53
782.993	439.63
783.175	496.97
783.357	439.63
783.538	417.1
783.72	509.26
783.901	433.49
784.083	482.64
784.264	415.06
784.446	431.44
784.627	410.96
784.809	392.53
784.99	406.86
785.172	509.26
785.353	443.73
785.535	419.15
785.716	398.67
785.897	339.28
786.079	398.67
786.26	415.06
786.441	425.29
786.623	333.14
786.804	417.1
786.985	406.86
787.167	415.06
787.348	380.24
787.529	464.21
787.71	439.63
787.891	445.77
788.073	351.57
788.254	333.14
788.435	382.29
788.616	345.42
788.797	374.1
788.978	355.66
789.159	349.52
789.34	283.98
789.522	417.1
789.703	333.14
789.884	370
790.065	351.57
790.246	245.07
790.427	433.49
790.607	419.15
790.788	337.23
790.969	294.22
791.15	329.04
791.331	341.33
791.512	329.04
791.693	265.55
791.874	267.6
792.054	357.71
792.235	382.29
792.416	290.13
792.597	277.84
792.778	367.95
792.958	259.41
793.139	347.47
793.32	302.42
793.5	349.52
793.681	376.14
793.862	236.88
794.042	333.14
794.223	292.18
794.404	238.93
794.584	212.31
794.765	310.61
794.945	283.98
795.126	349.52
795.306	343.38
795.487	271.7
795.667	300.37
795.848	326.99
796.028	281.94
796.209	173.39
796.389	238.93
796.57	251.22
796.75	267.6
796.93	292.18
797.111	245.07
797.291	220.5
797.471	294.22
797.652	253.27
797.832	214.35
798.012	292.18
798.192	277.84
798.373	202.07
798.553	228.69
798.733	326.99
798.913	308.56
799.093	206.16
799.274	206.16
799.454	222.55
799.634	275.79
799.814	261.46
799.994	318.8
800.174	220.5
800.354	259.41
800.534	161.11
800.714	234.83
800.894	204.11
801.074	189.78
801.254	165.2
801.434	220.5
801.614	206.16
801.794	152.91
801.974	918.86
802.154	251.22
802.334	247.12
802.514	185.68
802.693	144.72
802.873	169.3
803.053	226.64
803.233	210.26
803.413	253.27
803.592	253.27
803.772	206.16
803.952	161.11
804.131	163.15
804.311	210.26
804.491	226.64
804.67	189.78
804.85	238.93
805.03	157.01
805.209	165.2
805.389	189.78
805.568	116.05
805.748	181.59
805.928	261.46
806.107	224.59
806.287	210.26
806.466	226.64
806.646	212.31
806.825	154.96
807.004	210.26
807.184	171.35
807.363	228.69
807.543	216.4
807.722	146.77
807.901	253.27
808.081	165.2
808.26	111.96
808.439	103.76
808.619	212.31
808.798	173.39
808.977	218.45
809.156	116.05
809.336	144.72
809.515	220.5
809.694	163.15
809.873	204.11
810.052	152.91
810.231	185.68
810.411	169.3
810.59	195.92
810.769	103.76
810.948	245.07
811.127	114
811.306	175.44
811.485	122.2
811.664	210.26
811.843	126.29
812.022	146.77
812.201	210.26
812.38	195.92
812.559	85.33
812.737	146.77
812.916	111.96
813.095	126.29
813.274	163.15
813.453	179.54
813.632	179.54
813.811	165.2
813.989	71
814.168	238.93
814.347	195.92
814.526	107.86
814.704	105.81
814.883	171.35
815.062	157.01
815.24	193.87
815.419	138.58
815.598	173.39
815.776	40.28
815.955	87.38
816.133	38.23
816.312	99.67
816.49	105.81
816.669	95.57
816.847	95.57
817.026	144.72
817.204	148.82
817.383	138.58
817.561	91.48
817.74	111.96
817.918	136.53
818.097	171.35
818.275	120.15
818.453	73.04
818.632	46.42
818.81	163.15
818.988	89.43
819.167	107.86
819.345	68.95
819.523	152.91
819.701	126.29
819.879	120.15
820.058	25.94
820.236	191.83
820.414	83.28
820.592	132.44
820.77	97.62
820.948	71
821.127	99.67
821.305	171.35
821.483	93.52
821.661	140.63
821.839	50.52
822.017	161.11
822.195	120.15
822.373	146.77
822.551	60.76
822.729	87.38
822.907	107.86
823.085	99.67
823.262	138.58
823.44	159.06
823.618	124.24
823.796	56.66
823.974	44.37
824.152	152.91
824.329	71
824.507	152.91
824.685	111.96
824.863	161.11
825.04	75.09
825.218	144.72
825.396	25.94
825.574	62.8
825.751	148.82
825.929	87.38
826.107	50.52
826.284	56.66
826.462	144.72
826.639	136.53
826.817	75.09
826.994	50.52
827.172	89.43
827.349	212.31
827.527	32.08
827.704	87.38
827.882	161.11
828.059	136.53
828.237	99.67
828.414	120.15
828.591	-12.97
828.769	95.57
828.946	32.08
829.124	111.96
829.301	81.24
829.478	77.14
829.655	103.76
829.833	97.62
830.01	15.7
830.187	99.67
830.364	144.72
830.542	103.76
830.719	99.67
830.896	130.39
831.073	111.96
831.25	103.76
831.427	148.82
831.604	21.85
831.782	-6.83
831.959	77.14
832.136	118.1
832.313	75.09
832.49	64.85
832.667	83.28
832.844	103.76
833.021	81.24
833.198	38.23
833.374	132.44
833.551	93.52
833.728	75.09
833.905	79.19
834.082	38.23
834.259	99.67
834.436	46.42
834.612	87.38
834.789	114
834.966	60.76
835.143	152.91
835.319	58.71
835.496	79.19
835.673	81.24
835.85	83.28
836.026	132.44
836.203	107.86
836.38	5.46
836.556	62.8
836.733	71
836.909	120.15
837.086	73.04
837.262	30.04
837.439	38.23
837.616	44.37
837.792	36.18
837.968	71
838.145	46.42
838.321	48.47
838.498	105.81
838.674	48.47
838.851	-39.59
839.027	138.58
839.203	71
839.38	77.14
839.556	23.89
839.732	101.72
839.909	19.8
840.085	103.76
840.261	64.85
840.437	-2.73
840.614	46.42
840.79	46.42
840.966	38.23
841.142	87.38
841.318	109.91
841.494	120.15
841.671	62.8
841.847	38.23
842.023	19.8
842.199	79.19
842.375	154.96
842.551	30.04
842.727	7.51
842.903	126.29
843.079	1.37
843.255	85.33
843.431	-2.73
843.607	23.89
843.783	-37.55
843.959	99.67
844.134	34.13
844.31	91.48
844.486	-4.78
844.662	71
844.838	46.42
845.013	71
845.189	58.71
845.365	5.46
845.541	81.24
845.716	89.43
845.892	161.11
846.068	58.71
846.244	5.46
846.419	124.24
846.595	38.23
846.77	50.52
846.946	50.52
847.122	21.85
847.297	5.46
847.473	177.49
847.648	54.61
847.824	48.47
847.999	17.75
848.175	46.42
848.35	99.67
848.526	71
848.701	32.08
848.876	73.04
849.052	93.52
849.227	46.42
849.403	13.65
849.578	19.8
849.753	136.53
849.929	32.08
850.104	13.65
850.279	60.76
850.454	38.23
850.63	87.38
850.805	44.37
850.98	81.24
851.155	-35.5
851.33	99.67
851.505	30.04
851.681	109.91
851.856	-76.46
852.031	21.85
852.206	64.85
852.381	40.28
852.556	-35.5
852.731	56.66
852.906	79.19
853.081	21.85
853.256	30.04
853.431	23.89
853.606	-27.31
853.781	21.85
853.956	-0.68
854.131	42.32
854.305	38.23
854.48	21.85
854.655	25.94
854.83	5.46
855.005	17.75
855.18	62.8
855.354	85.33
855.529	56.66
855.704	46.42
855.879	54.61
856.053	46.42
856.228	15.7
856.403	79.19
856.577	-23.21
856.752	54.61
856.926	68.95
857.101	48.47
857.276	30.04
857.45	46.42
857.625	85.33
857.799	15.7
857.974	-41.64
858.148	-41.64
858.323	46.42
858.497	48.47
858.672	34.13
858.846	-15.02
859.02	77.14
859.195	15.7
859.369	-6.83
859.543	1.37
859.718	36.18
859.892	54.61
860.066	-10.92
860.241	42.32
860.415	5.46
860.589	73.04
860.763	-15.02
860.938	38.23
861.112	7.51
861.286	7.51
861.46	5.46
861.634	87.38
861.808	83.28
861.982	-10.92
862.157	-6.83
862.331	56.66
862.505	21.85
862.679	62.8
862.853	-25.26
863.027	-2.73
863.201	54.61
863.375	95.57
863.549	-10.92
863.722	71
863.896	54.61
864.07	-21.16
864.244	66.9
864.418	46.42
864.592	64.85
864.766	79.19
864.939	13.65
865.113	-49.83
865.287	91.48
865.461	-101.03
865.634	21.85
865.808	-6.83
865.982	-0.68
866.156	-10.92
866.329	9.56
866.503	58.71
866.676	87.38
866.85	7.51
867.024	62.8
867.197	54.61
867.371	71
867.544	34.13
867.718	9.56
867.891	87.38
868.065	30.04
868.238	-10.92
868.412	87.38
868.585	7.51
868.759	36.18
868.932	42.32
869.105	30.04
869.279	36.18
869.452	13.65
869.625	-21.16
869.799	87.38
869.972	-37.55
870.145	48.47
870.319	116.05
870.492	58.71
870.665	-10.92
870.838	101.72
871.011	-19.11
871.185	30.04
871.358	68.95
871.531	56.66
871.704	71
871.877	95.57
872.05	30.04
872.223	42.32
872.396	81.24
872.569	62.8
872.742	-41.64
872.915	58.71
873.088	54.61
873.261	-2.73
873.434	-8.87
873.607	-84.65
873.78	13.65
873.953	15.7
874.126	-2.73
874.299	36.18
874.471	-2.73
874.644	21.85
874.817	81.24
874.99	17.75
875.163	-21.16
875.335	40.28
875.508	83.28
875.681	99.67
875.853	-62.12
876.026	40.28
876.199	-8.87
876.371	1.37
876.544	75.09
876.717	7.51
876.889	7.51
877.062	-21.16
877.234	30.04
877.407	30.04
877.579	136.53
877.752	48.47
877.924	15.7
878.097	79.19
878.269	27.99
878.442	27.99
878.614	-8.87
878.786	-10.92
878.959	50.52
879.131	-2.73
879.303	-0.68
879.476	-27.31
879.648	77.14
879.82	19.8
879.993	-6.83
880.165	13.65
880.337	-2.73
880.509	54.61
880.681	-66.22
880.854	-2.73
881.026	71
881.198	103.76
881.37	23.89
881.542	71
881.714	34.13
881.886	-4.78
882.058	5.46
882.23	-33.45
882.402	-43.69
882.574	32.08
882.746	-43.69
882.918	17.75
883.09	30.04
883.262	7.51
883.434	30.04
883.606	-64.17
883.778	-58.03
883.95	23.89
884.122	-19.11
884.293	122.2
884.465	30.04
884.637	79.19
884.809	-10.92
884.98	23.89
885.152	30.04
885.324	95.57
885.496	-33.45
885.667	-62.12
885.839	30.04
886.011	148.82
886.182	-2.73
886.354	-43.69
886.525	81.24
886.697	23.89
886.869	38.23
887.04	-2.73
887.212	21.85
887.383	46.42
887.555	13.65
887.726	60.76
887.897	9.56
888.069	34.13
888.24	27.99
888.412	-43.69
888.583	9.56
888.754	7.51
888.926	-33.45
889.097	56.66
889.268	21.85
889.44	19.8
889.611	-49.83
889.782	-31.4
889.953	5.46
890.125	105.81
890.296	3.41
890.467	-92.84
890.638	17.75
890.809	56.66
890.98	17.75
891.151	87.38
891.323	5.46
891.494	17.75
891.665	15.7
891.836	-47.79
892.007	-92.84
892.178	-2.73
892.349	54.61
892.52	-31.4
892.691	1.37
892.862	-58.03
893.032	-33.45
893.203	9.56
893.374	13.65
893.545	48.47
893.716	-2.73
893.887	68.95
894.057	-10.92
894.228	40.28
894.399	-10.92
894.57	71
894.74	-19.11
894.911	62.8
895.082	68.95
895.253	-4.78
895.423	54.61
895.594	40.28
895.764	62.8
895.935	48.47
896.106	66.9
896.276	1.37
896.447	83.28
896.617	-27.31
896.788	-0.68
896.958	7.51
897.129	21.85
897.299	7.51
897.47	71
897.64	56.66
897.81	9.56
897.981	23.89
898.151	-6.83
898.322	38.23
898.492	-53.93
898.662	-10.92
898.832	30.04
899.003	-19.11
899.173	13.65
899.343	-47.79
899.513	-49.83
