Data from USB4F104151__40__14-29-48-360.txt Node

Date: Thu Mar 13 14:29:48 EDT 2025
User: louis
Spectrometer: USB4F10415
Trigger mode: 4
Integration Time (sec): 2.500000E-2
Scans to average: 1
Electric dark correction enabled: true
Nonlinearity correction enabled: false
Boxcar width: 0
XAxis mode: Wavelengths
Number of Pixels in Spectrum: 3648
>>>>>Begin Spectral Data<<<<<
178.204	-57.34
178.424	-57.34
178.644	-57.34
178.864	-129.02
179.084	-180.22
179.304	-20.48
179.524	34.82
179.744	-26.62
179.964	108.54
180.184	-18.43
180.404	6.14
180.624	-36.86
180.844	12.29
181.064	-34.82
181.283	-6.14
181.503	16.38
181.723	-34.82
181.943	-61.44
182.163	59.39
182.383	45.06
182.602	26.62
182.822	131.07
183.042	55.3
183.262	-38.91
183.482	30.72
183.701	30.72
183.921	-38.91
184.141	-10.24
184.361	26.62
184.58	67.58
184.8	71.68
185.02	0
185.239	34.82
185.459	55.3
185.679	26.62
185.898	100.35
186.118	40.96
186.338	34.82
186.557	-6.14
186.777	-4.1
186.997	47.1
187.216	-12.29
187.436	96.25
187.655	71.68
187.875	12.29
188.095	75.77
188.314	83.97
188.534	116.73
188.753	49.15
188.973	77.82
189.192	96.25
189.412	43.01
189.631	53.25
189.851	-18.43
190.07	92.16
190.29	-14.34
190.509	26.62
190.729	2.05
190.948	61.44
191.168	223.23
191.387	45.06
191.607	-6.14
191.826	63.49
192.045	53.25
192.265	-14.34
192.484	-6.14
192.704	14.34
192.923	16.38
193.142	61.44
193.362	12.29
193.581	61.44
193.8	71.68
194.02	100.35
194.239	40.96
194.458	-16.38
194.678	26.62
194.897	-26.62
195.116	-6.14
195.335	4.1
195.555	-34.82
195.774	59.39
195.993	90.11
196.212	18.43
196.432	-14.34
196.651	36.86
196.87	98.3
197.089	186.37
197.308	83.97
197.528	83.97
197.747	-22.53
197.966	-2.05
198.185	100.35
198.404	63.49
198.623	104.45
198.842	36.86
199.062	34.82
199.281	100.35
199.5	-57.34
199.719	34.82
199.938	-4.1
200.157	81.92
200.376	77.82
200.595	61.44
200.814	34.82
201.033	26.62
201.252	-6.14
201.471	-12.29
201.69	53.25
201.909	47.1
202.128	-8.19
202.347	114.69
202.566	51.2
202.785	-14.34
203.004	24.58
203.223	59.39
203.442	-28.67
203.661	79.87
203.879	10.24
204.098	116.73
204.317	6.14
204.536	55.3
204.755	20.48
204.974	141.31
205.193	20.48
205.411	100.35
205.63	-28.67
205.849	26.62
206.068	92.16
206.287	4.1
206.505	43.01
206.724	86.01
206.943	-18.43
207.162	14.34
207.381	18.43
207.599	67.58
207.818	45.06
208.037	10.24
208.255	-8.19
208.474	2.05
208.693	22.53
208.911	12.29
209.13	63.49
209.349	-4.1
209.567	6.14
209.786	59.39
210.005	51.2
210.223	45.06
210.442	-51.2
210.661	30.72
210.879	-38.91
211.098	-28.67
211.316	4.1
211.535	43.01
211.753	59.39
211.972	43.01
212.191	102.4
212.409	4.1
212.628	118.78
212.846	59.39
213.065	43.01
213.283	110.59
213.502	20.48
213.72	59.39
213.938	30.72
214.157	6.14
214.375	88.06
214.594	69.63
214.812	12.29
215.031	14.34
215.249	16.38
215.467	2.05
215.686	57.34
215.904	149.5
216.122	63.49
216.341	4.1
216.559	43.01
216.778	67.58
216.996	108.54
217.214	-12.29
217.432	-4.1
217.651	51.2
217.869	69.63
218.087	6.14
218.306	6.14
218.524	26.62
218.742	22.53
218.96	32.77
219.179	63.49
219.397	34.82
219.615	110.59
219.833	28.67
220.051	43.01
220.27	126.97
220.488	71.68
220.706	10.24
220.924	-6.14
221.142	8.19
221.36	102.4
221.578	47.1
221.796	-34.82
222.015	30.72
222.233	24.58
222.451	65.54
222.669	16.38
222.887	36.86
223.105	22.53
223.323	26.62
223.541	151.55
223.759	43.01
223.977	59.39
224.195	81.92
224.413	75.77
224.631	10.24
224.849	75.77
225.067	59.39
225.285	26.62
225.503	43.01
225.721	-4.1
225.939	47.1
226.157	79.87
226.375	100.35
226.592	-22.53
226.81	-24.58
227.028	75.77
227.246	75.77
227.464	71.68
227.682	-2.05
227.9	51.2
228.117	6.14
228.335	12.29
228.553	24.58
228.771	26.62
228.989	83.97
229.206	-10.24
229.424	-2.05
229.642	4.1
229.86	-24.58
230.077	102.4
230.295	26.62
230.513	61.44
230.731	122.88
230.948	55.3
231.166	43.01
231.384	-16.38
231.601	49.15
231.819	92.16
232.037	-34.82
232.254	-28.67
232.472	47.1
232.689	-45.06
232.907	43.01
233.125	26.62
233.342	6.14
233.56	22.53
233.777	22.53
233.995	-14.34
234.213	59.39
234.43	51.2
234.648	-10.24
234.865	69.63
235.083	94.21
235.3	-20.48
235.518	92.16
235.735	94.21
235.953	59.39
236.17	47.1
236.388	12.29
236.605	71.68
236.822	-4.1
237.04	110.59
237.257	45.06
237.475	-45.06
237.692	38.91
237.909	59.39
238.127	-12.29
238.344	59.39
238.562	40.96
238.779	-28.67
238.996	28.67
239.214	-4.1
239.431	30.72
239.648	51.2
239.865	100.35
240.083	98.3
240.3	30.72
240.517	10.24
240.735	-34.82
240.952	-10.24
241.169	51.2
241.386	34.82
241.603	18.43
241.821	34.82
242.038	30.72
242.255	30.72
242.472	34.82
242.689	38.91
242.907	51.2
243.124	-26.62
243.341	22.53
243.558	10.24
243.775	-2.05
243.992	-49.15
244.209	2.05
244.426	126.97
244.643	135.17
244.86	16.38
245.078	18.43
245.295	12.29
245.512	40.96
245.729	51.2
245.946	51.2
246.163	34.82
246.38	26.62
246.597	61.44
246.814	22.53
247.031	22.53
247.248	69.63
247.464	34.82
247.681	63.49
247.898	24.58
248.115	102.4
248.332	0
248.549	18.43
248.766	45.06
248.983	12.29
249.2	26.62
249.417	59.39
249.633	-6.14
249.85	10.24
250.067	51.2
250.284	36.86
250.501	43.01
250.717	36.86
250.934	-6.14
251.151	43.01
251.368	40.96
251.585	96.25
251.801	51.2
252.018	116.73
252.235	34.82
252.451	18.43
252.668	2.05
252.885	55.3
253.102	10.24
253.318	-4.1
253.535	94.21
253.752	18.43
253.968	-47.1
254.185	47.1
254.401	47.1
254.618	34.82
254.835	55.3
255.051	45.06
255.268	67.58
255.484	-8.19
255.701	57.34
255.917	69.63
256.134	69.63
256.351	-51.2
256.567	12.29
256.784	53.25
257	2.05
257.217	28.67
257.433	-16.38
257.65	151.55
257.866	26.62
258.082	51.2
258.299	51.2
258.515	38.91
258.732	22.53
258.948	-22.53
259.165	47.1
259.381	28.67
259.597	-6.14
259.814	22.53
260.03	26.62
260.246	47.1
260.463	114.69
260.679	53.25
260.895	69.63
261.112	100.35
261.328	10.24
261.544	47.1
261.761	124.93
261.977	92.16
262.193	-6.14
262.409	30.72
262.626	18.43
262.842	81.92
263.058	14.34
263.274	36.86
263.49	24.58
263.707	88.06
263.923	36.86
264.139	-22.53
264.355	18.43
264.571	92.16
264.787	30.72
265.004	28.67
265.22	77.82
265.436	63.49
265.652	43.01
265.868	18.43
266.084	6.14
266.3	83.97
266.516	38.91
266.732	108.54
266.948	38.91
267.164	75.77
267.38	10.24
267.596	4.1
267.812	104.45
268.028	59.39
268.244	-38.91
268.46	59.39
268.676	30.72
268.892	71.68
269.108	28.67
269.324	-12.29
269.54	14.34
269.756	92.16
269.972	26.62
270.188	30.72
270.403	20.48
270.619	124.93
270.835	-2.05
271.051	32.77
271.267	34.82
271.483	4.1
271.698	108.54
271.914	67.58
272.13	14.34
272.346	38.91
272.562	28.67
272.777	26.62
272.993	12.29
273.209	75.77
273.425	36.86
273.64	-6.14
273.856	65.54
274.072	34.82
274.287	47.1
274.503	18.43
274.719	53.25
274.934	16.38
275.15	69.63
275.366	-2.05
275.581	-20.48
275.797	67.58
276.012	49.15
276.228	34.82
276.444	10.24
276.659	67.58
276.875	20.48
277.09	51.2
277.306	67.58
277.521	88.06
277.737	59.39
277.952	34.82
278.168	133.12
278.383	38.91
278.599	53.25
278.814	28.67
279.03	45.06
279.245	104.45
279.461	-6.14
279.676	-14.34
279.892	6.14
280.107	-6.14
280.322	14.34
280.538	51.2
280.753	40.96
280.969	55.3
281.184	14.34
281.399	63.49
281.615	61.44
281.83	100.35
282.045	-30.72
282.26	45.06
282.476	47.1
282.691	53.25
282.906	36.86
283.122	38.91
283.337	-2.05
283.552	67.58
283.767	6.14
283.983	14.34
284.198	18.43
284.413	67.58
284.628	10.24
284.843	67.58
285.058	22.53
285.274	92.16
285.489	-20.48
285.704	30.72
285.919	-20.48
286.134	28.67
286.349	75.77
286.564	2.05
286.779	94.21
286.995	-36.86
287.21	-6.14
287.425	45.06
287.64	38.91
287.855	51.2
288.07	4.1
288.285	69.63
288.5	86.01
288.715	47.1
288.93	-14.34
289.145	18.43
289.36	92.16
289.575	26.62
289.79	73.73
290.004	10.24
290.219	51.2
290.434	67.58
290.649	-18.43
290.864	38.91
291.079	2.05
291.294	100.35
291.509	120.83
291.724	-63.49
291.938	-6.14
292.153	94.21
292.368	61.44
292.583	-14.34
292.798	-47.1
293.012	67.58
293.227	63.49
293.442	26.62
293.657	18.43
293.871	75.77
294.086	67.58
294.301	92.16
294.516	94.21
294.73	26.62
294.945	10.24
295.16	77.82
295.374	61.44
295.589	96.25
295.804	26.62
296.018	100.35
296.233	20.48
296.447	-30.72
296.662	-12.29
296.877	61.44
297.091	55.3
297.306	61.44
297.52	-6.14
297.735	-43.01
297.949	63.49
298.164	102.4
298.378	32.77
298.593	92.16
298.807	77.82
299.022	22.53
299.236	-22.53
299.451	86.01
299.665	30.72
299.88	77.82
300.094	20.48
300.309	53.25
300.523	63.49
300.737	102.4
300.952	-24.58
301.166	-6.14
301.381	8.19
301.595	61.44
301.809	26.62
302.024	6.14
302.238	-43.01
302.452	149.5
302.667	26.62
302.881	-2.05
303.095	110.59
303.309	67.58
303.524	32.77
303.738	79.87
303.952	-12.29
304.166	83.97
304.381	-49.15
304.595	55.3
304.809	-47.1
305.023	20.48
305.237	-4.1
305.452	-55.3
305.666	55.3
305.88	88.06
306.094	83.97
306.308	59.39
306.522	75.77
306.736	157.69
306.95	112.64
307.164	63.49
307.379	12.29
307.593	69.63
307.807	38.91
308.021	90.11
308.235	108.54
308.449	-2.05
308.663	36.86
308.877	133.12
309.091	-12.29
309.305	79.87
309.519	-34.82
309.733	12.29
309.947	-45.06
310.161	51.2
310.374	20.48
310.588	124.93
310.802	-67.58
311.016	28.67
311.23	47.1
311.444	10.24
311.658	73.73
311.872	36.86
312.085	51.2
312.299	59.39
312.513	106.49
312.727	83.97
312.941	-2.05
313.154	61.44
313.368	43.01
313.582	43.01
313.796	22.53
314.009	57.34
314.223	18.43
314.437	32.77
314.651	30.72
314.864	10.24
315.078	51.2
315.292	-55.3
315.505	59.39
315.719	75.77
315.933	18.43
316.146	-10.24
316.36	-26.62
316.573	88.06
316.787	67.58
317.001	14.34
317.214	73.73
317.428	38.91
317.641	14.34
317.855	34.82
318.068	14.34
318.282	43.01
318.495	69.63
318.709	36.86
318.922	-2.05
319.136	108.54
319.349	67.58
319.563	47.1
319.776	108.54
319.99	-55.3
320.203	-6.14
320.417	83.97
320.63	63.49
320.843	141.31
321.057	8.19
321.27	65.54
321.483	28.67
321.697	26.62
321.91	81.92
322.124	8.19
322.337	55.3
322.55	43.01
322.763	49.15
322.977	-14.34
323.19	59.39
323.403	67.58
323.617	63.49
323.83	36.86
324.043	-51.2
324.256	77.82
324.469	36.86
324.683	94.21
324.896	24.58
325.109	30.72
325.322	51.2
325.535	-2.05
325.748	43.01
325.962	75.77
326.175	71.68
326.388	47.1
326.601	69.63
326.814	2.05
327.027	79.87
327.24	71.68
327.453	-10.24
327.666	45.06
327.879	88.06
328.092	57.34
328.305	102.4
328.518	-2.05
328.731	34.82
328.944	16.38
329.157	43.01
329.37	14.34
329.583	100.35
329.796	131.07
330.009	22.53
330.222	108.54
330.435	24.58
330.648	-12.29
330.861	-38.91
331.073	10.24
331.286	100.35
331.499	45.06
331.712	6.14
331.925	45.06
332.138	28.67
332.35	61.44
332.563	2.05
332.776	67.58
332.989	77.82
333.202	30.72
333.414	-43.01
333.627	43.01
333.84	-10.24
334.053	71.68
334.265	32.77
334.478	32.77
334.691	26.62
334.903	34.82
335.116	10.24
335.329	34.82
335.541	94.21
335.754	118.78
335.966	-26.62
336.179	67.58
336.392	20.48
336.604	-18.43
336.817	126.97
337.029	47.1
337.242	38.91
337.454	59.39
337.667	18.43
337.88	67.58
338.092	10.24
338.305	51.2
338.517	6.14
338.729	20.48
338.942	110.59
339.154	63.49
339.367	2.05
339.579	63.49
339.792	20.48
340.004	8.19
340.217	2.05
340.429	2.05
340.641	53.25
340.854	92.16
341.066	-55.3
341.278	133.12
341.491	118.78
341.703	79.87
341.915	55.3
342.128	30.72
342.34	59.39
342.552	6.14
342.764	69.63
342.977	26.62
343.189	120.83
343.401	14.34
343.613	57.34
343.826	-34.82
344.038	77.82
344.25	43.01
344.462	69.63
344.674	-22.53
344.886	75.77
345.099	67.58
345.311	55.3
345.523	67.58
345.735	16.38
345.947	83.97
346.159	30.72
346.371	22.53
346.583	26.62
346.795	100.35
347.007	100.35
347.219	108.54
347.431	59.39
347.643	75.77
347.855	-2.05
348.067	83.97
348.279	-28.67
348.491	36.86
348.703	-12.29
348.915	-6.14
349.127	45.06
349.339	161.79
349.551	-45.06
349.763	14.34
349.975	45.06
350.187	59.39
350.399	120.83
350.61	-10.24
350.822	59.39
351.034	92.16
351.246	53.25
351.458	51.2
351.669	20.48
351.881	83.97
352.093	92.16
352.305	100.35
352.517	59.39
352.728	43.01
352.94	28.67
353.152	28.67
353.363	8.19
353.575	118.78
353.787	129.02
353.999	79.87
354.21	112.64
354.422	43.01
354.633	63.49
354.845	28.67
355.057	20.48
355.268	38.91
355.48	75.77
355.692	59.39
355.903	10.24
356.115	26.62
356.326	28.67
356.538	108.54
356.749	65.54
356.961	49.15
357.172	118.78
357.384	26.62
357.595	67.58
357.807	36.86
358.018	38.91
358.23	18.43
358.441	116.73
358.653	28.67
358.864	-10.24
359.075	-14.34
359.287	63.49
359.498	104.45
359.709	116.73
359.921	83.97
360.132	63.49
360.344	81.92
360.555	-51.2
360.766	83.97
360.977	0
361.189	96.25
361.4	51.2
361.611	92.16
361.823	34.82
362.034	47.1
362.245	110.59
362.456	75.77
362.667	90.11
362.879	55.3
363.09	36.86
363.301	94.21
363.512	135.17
363.723	-6.14
363.935	43.01
364.146	53.25
364.357	28.67
364.568	135.17
364.779	16.38
364.99	71.68
365.201	92.16
365.412	51.2
365.623	30.72
365.834	45.06
366.045	-12.29
366.256	12.29
366.467	-28.67
366.678	45.06
366.889	51.2
367.1	36.86
367.311	77.82
367.522	71.68
367.733	75.77
367.944	-6.14
368.155	-12.29
368.366	-18.43
368.577	94.21
368.788	100.35
368.999	-14.34
369.209	20.48
369.42	120.83
369.631	26.62
369.842	61.44
370.053	2.05
370.264	38.91
370.474	20.48
370.685	51.2
370.896	40.96
371.107	69.63
371.317	43.01
371.528	43.01
371.739	124.93
371.95	75.77
372.16	75.77
372.371	6.14
372.582	26.62
372.792	26.62
373.003	-2.05
373.214	88.06
373.424	151.55
373.635	-14.34
373.846	75.77
374.056	24.58
374.267	92.16
374.477	34.82
374.688	-20.48
374.898	88.06
375.109	81.92
375.319	59.39
375.53	83.97
375.74	-6.14
375.951	65.54
376.161	71.68
376.372	86.01
376.582	10.24
376.793	69.63
377.003	36.86
377.214	2.05
377.424	116.73
377.635	75.77
377.845	-30.72
378.055	69.63
378.266	4.1
378.476	-24.58
378.686	81.92
378.897	77.82
379.107	34.82
379.317	2.05
379.528	67.58
379.738	67.58
379.948	92.16
380.158	67.58
380.369	69.63
380.579	59.39
380.789	81.92
380.999	38.91
381.21	20.48
381.42	114.69
381.63	30.72
381.84	53.25
382.05	73.73
382.261	69.63
382.471	16.38
382.681	100.35
382.891	116.73
383.101	104.45
383.311	12.29
383.521	-10.24
383.731	96.25
383.941	30.72
384.151	71.68
384.361	-14.34
384.571	59.39
384.781	24.58
384.991	55.3
385.201	45.06
385.411	59.39
385.621	116.73
385.831	45.06
386.041	59.39
386.251	43.01
386.461	120.83
386.671	14.34
386.881	149.5
387.091	36.86
387.301	88.06
387.511	129.02
387.72	100.35
387.93	122.88
388.14	28.67
388.35	38.91
388.56	79.87
388.769	186.37
388.979	92.16
389.189	47.1
389.399	112.64
389.609	94.21
389.818	55.3
390.028	49.15
390.238	28.67
390.447	-6.14
390.657	118.78
390.867	22.53
391.076	10.24
391.286	133.12
391.496	157.69
391.705	45.06
391.915	116.73
392.125	26.62
392.334	2.05
392.544	167.93
392.753	51.2
392.963	63.49
393.172	118.78
393.382	43.01
393.591	34.82
393.801	94.21
394.01	133.12
394.22	75.77
394.429	75.77
394.639	43.01
394.848	137.21
395.058	67.58
395.267	34.82
395.477	110.59
395.686	51.2
395.895	157.69
396.105	153.6
396.314	47.1
396.524	135.17
396.733	77.82
396.942	100.35
397.152	135.17
397.361	190.46
397.57	75.77
397.78	102.4
397.989	163.84
398.198	157.69
398.407	75.77
398.617	124.93
398.826	92.16
399.035	51.2
399.244	129.02
399.453	110.59
399.663	133.12
399.872	202.75
400.081	88.06
400.29	129.02
400.499	126.97
400.708	139.26
400.917	59.39
401.127	51.2
401.336	155.65
401.545	116.73
401.754	217.08
401.963	176.13
402.172	100.35
402.381	51.2
402.59	102.4
402.799	145.41
403.008	198.65
403.217	86.01
403.426	151.55
403.635	86.01
403.844	200.7
404.053	45.06
404.262	112.64
404.471	198.65
404.68	182.27
404.888	169.98
405.097	178.17
405.306	245.76
405.515	219.13
405.724	204.8
405.933	192.51
406.142	153.6
406.35	237.56
406.559	190.46
406.768	149.5
406.977	264.19
407.185	231.42
407.394	215.04
407.603	184.32
407.812	200.7
408.02	268.28
408.229	305.15
408.438	231.42
408.646	157.69
408.855	274.43
409.064	206.84
409.272	247.8
409.481	331.77
409.69	325.63
409.898	264.19
410.107	317.44
410.315	358.39
410.524	258.04
410.733	378.87
410.941	399.35
411.15	378.87
411.358	444.41
411.567	430.07
411.775	391.16
411.984	378.87
412.192	522.23
412.401	579.58
412.609	477.18
412.818	550.9
413.026	540.66
413.234	479.22
413.443	571.38
413.651	526.33
413.86	651.25
414.068	626.68
414.276	636.92
414.485	665.59
414.693	645.11
414.901	694.26
415.11	698.36
415.318	653.3
415.526	774.13
415.734	849.91
415.943	835.57
416.151	944.11
416.359	813.04
416.567	911.35
416.776	915.44
416.984	989.17
417.192	1038.32
417.4	1050.61
417.608	1095.66
417.817	1062.9
418.025	1181.68
418.233	1265.64
418.441	1148.91
418.649	1247.21
418.857	1329.13
419.065	1380.33
419.273	1394.67
419.481	1370.09
419.689	1529.83
419.897	1634.28
420.105	1570.79
420.313	1601.51
420.521	1740.77
420.729	1757.16
420.937	1781.73
421.145	1794.02
421.353	1816.55
421.561	2017.25
421.769	2060.26
421.977	2170.85
422.185	2150.37
422.393	2297.82
422.601	2361.31
422.809	2492.38
423.017	2414.56
423.224	2486.23
423.432	2641.88
423.64	2549.72
423.848	2850.77
424.056	2811.86
424.263	2977.75
424.471	2879.44
424.679	3000.27
424.887	3114.96
425.094	3258.32
425.302	3364.81
425.51	3364.81
425.718	3545.03
425.925	3581.9
426.133	3682.25
426.341	3860.42
426.548	3993.54
426.756	3989.44
426.964	4097.99
427.171	4437.95
427.379	4370.37
427.586	4634.55
427.794	4644.79
428.001	4982.71
428.209	5064.63
428.417	5105.59
428.624	5328.81
428.832	5341.1
429.039	5158.83
429.247	5310.38
429.454	5711.78
429.662	6221.73
429.869	5828.52
430.076	6184.87
430.284	6041.51
430.491	6244.26
430.699	6545.31
430.906	6668.19
431.114	6567.84
431.321	6836.12
431.528	6930.33
431.736	7534.48
431.943	7931.78
432.15	7620.49
432.358	7708.55
432.565	8112
432.772	8103.81
432.979	8423.3
433.187	8556.41
433.394	8558.46
433.601	9199.48
433.808	9131.89
434.016	9080.69
434.223	9697.13
434.43	10202.98
434.637	10071.91
434.844	10454.88
435.052	10712.92
435.259	10549.09
435.466	10856.28
435.673	10680.16
435.88	11374.42
436.087	11890.51
436.294	11941.71
436.501	11755.34
436.708	11970.38
436.915	12468.03
437.122	13000.51
437.329	12939.07
437.537	13281.08
437.743	13526.83
437.95	13399.86
438.157	14016.3
438.364	14497.57
438.571	14352.16
438.778	14403.36
438.985	15824.65
439.192	15189.78
439.399	15529.75
439.606	15124.25
439.813	16029.45
440.02	17139.45
440.227	16946.94
440.433	16695.04
440.64	17475.32
440.847	17082.11
441.054	17714.93
441.261	18851.55
441.467	18493.16
441.674	18677.47
441.881	19547.86
442.088	19328.73
442.294	19273.43
442.501	19517.14
442.708	20002.51
442.914	20899.52
443.121	21763.76
443.328	20948.67
443.534	22714.02
443.741	22111.92
443.948	21974.7
444.154	23271.07
444.361	23230.11
444.568	23176.86
444.774	23359.13
444.981	23647.9
445.187	24411.79
445.394	25370.24
445.6	24747.65
445.807	27526.75
446.013	26201.71
446.22	26459.76
446.426	27821.66
446.633	27657.82
446.839	28827.21
447.046	27930.2
447.252	29052.48
447.459	29201.99
447.665	29230.66
447.871	30455.34
448.078	31378.98
448.284	30027.32
448.491	30641.71
448.697	31911.45
448.903	32669.2
449.11	32790.03
449.316	32570.9
449.522	32949.77
449.728	33646.08
449.935	33830.4
450.141	34024.95
450.347	34696.69
450.553	33338.88
450.76	33961.47
450.966	34932.2
451.172	34887.15
451.378	35503.59
451.584	34522.61
451.791	35677.66
451.997	35454.43
452.203	35835.36
452.409	36171.22
452.615	35960.28
452.821	34551.28
453.027	33994.23
453.233	36023.77
453.44	34708.97
453.646	34987.5
453.852	34788.85
454.058	35595.74
454.264	34260.47
454.47	35280.36
454.676	34090.49
454.882	35735.01
455.088	32122.39
455.294	32966.15
455.5	33406.47
455.705	33787.39
455.911	32132.63
456.117	31245.86
456.323	31483.42
456.529	29322.82
456.735	30596.65
456.941	29888.06
457.147	29322.82
457.352	28487.25
457.558	28165.71
457.764	28573.26
457.97	27416.16
458.176	27227.74
458.381	27104.87
458.587	25755.25
458.793	25611.9
458.999	24194.7
459.204	26244.72
459.41	25732.73
459.616	23738.01
459.821	23776.92
460.027	23834.26
460.233	22955.68
460.438	22105.77
460.644	22050.48
460.85	21155.52
461.055	20981.44
461.261	20870.85
461.466	19420.89
461.672	18505.45
461.878	20049.61
462.083	18454.25
462.289	18128.62
462.494	17972.97
462.7	17354.49
462.905	16625.41
463.111	17385.21
463.316	17280.76
463.522	17037.05
463.727	16969.47
463.932	17016.57
464.138	16592.64
464.343	16928.51
464.549	16535.3
464.754	17075.96
464.959	16656.13
465.165	16658.18
465.37	15814.41
465.575	15402.77
465.781	16189.19
465.986	16170.76
466.191	15445.78
466.397	15175.45
466.602	14470.95
466.807	14970.65
467.012	15056.67
467.218	14984.99
467.423	14636.83
467.628	14661.41
467.833	15394.58
468.038	14561.06
468.244	14284.58
468.449	15050.52
468.654	14464.8
468.859	14282.53
469.064	14356.26
469.269	13627.18
469.474	13813.55
469.679	14171.94
469.885	13494.07
470.09	13784.88
470.295	13842.22
470.5	13420.34
470.705	13653.81
470.91	13113.14
471.115	13023.03
471.32	13039.42
471.525	13319.99
471.73	12664.64
471.935	12631.87
472.139	12351.3
472.344	12529.47
472.549	12234.57
472.754	12177.22
472.959	11882.31
473.164	11618.13
473.369	11593.55
473.574	11908.94
473.778	11734.86
473.983	11634.51
474.188	11773.77
474.393	11134.81
474.598	11259.73
474.802	10932.06
475.007	10866.52
475.212	10905.43
475.417	10536.8
475.621	10516.32
475.826	10682.2
476.031	10293.09
476.235	10008.42
476.44	10245.99
476.645	10178.4
476.849	10221.41
477.054	10030.95
477.259	9961.32
477.463	9934.7
477.668	9693.04
477.872	9684.84
478.077	9777
478.282	9238.39
478.486	9353.07
478.691	9252.72
478.895	9295.73
479.1	9117.56
479.304	9240.43
479.509	8771.45
479.713	9039.73
479.918	8877.94
480.122	8791.93
480.326	8859.51
480.531	8814.46
480.735	8707.96
480.94	8515.45
481.144	8949.62
481.348	8505.21
481.553	8595.32
481.757	8480.64
481.961	8521.6
482.166	8431.49
482.37	8585.08
482.574	8308.61
482.778	8472.45
482.983	8578.94
483.187	8494.97
483.391	8355.71
483.595	8236.93
483.8	8226.69
484.004	8517.5
484.208	8488.83
484.412	8384.38
484.616	8546.17
484.821	8290.18
485.025	8169.35
485.229	8613.76
485.433	8173.44
485.637	8322.94
485.841	8335.23
486.045	8312.71
486.249	8308.61
486.453	8238.98
486.657	8339.33
486.861	8386.43
487.065	8152.96
487.269	8353.66
487.473	7931.78
487.677	8372.1
487.881	8529.79
488.085	8206.21
488.289	8218.5
488.493	8161.16
488.697	8331.14
488.901	8236.93
489.105	8021.89
489.309	8441.73
489.512	8091.52
489.716	8327.04
489.92	8302.47
490.124	8218.5
490.328	8533.89
490.531	8255.36
490.735	8406.91
490.939	8161.16
491.143	8435.58
491.346	8337.28
491.55	8497.02
491.754	8447.87
491.958	8396.67
492.161	8531.84
492.365	8720.25
492.569	8464.25
492.772	8497.02
492.976	8517.5
493.18	8714.11
493.383	8800.12
493.587	8800.12
493.79	8898.42
493.994	8736.63
494.197	8816.51
494.401	8908.66
494.605	8959.86
494.808	9035.64
495.012	9037.69
495.215	9117.56
495.419	9039.73
495.622	9041.78
495.825	9258.87
496.029	9107.32
496.232	9459.57
496.436	9318.26
496.639	9607.02
496.843	9582.45
497.046	9631.6
497.249	9989.99
497.453	9955.18
497.656	9942.89
497.859	9840.49
498.063	10041.19
498.266	10497.89
498.469	10147.69
498.673	10168.16
498.876	10391.39
499.079	10381.15
499.282	10383.2
499.485	10823.51
499.689	10962.78
499.892	10915.67
500.095	10880.86
500.298	10938.2
500.501	10876.76
500.705	11407.19
500.908	11423.57
501.111	11431.76
501.314	11503.44
501.517	11749.2
501.72	11888.46
501.923	11618.13
502.126	11982.67
502.329	12320.58
502.532	12425.03
502.735	12257.09
502.938	12595.01
503.141	12592.96
503.344	12928.83
503.547	12922.68
503.75	13010.75
503.953	13186.87
504.156	13399.86
504.359	13518.64
504.562	13238.07
504.765	13625.14
504.968	13725.49
505.17	13879.08
505.373	13797.17
505.576	14241.57
505.779	14329.64
505.982	14393.12
506.185	14632.74
506.387	14810.91
506.59	14872.35
506.793	14999.32
506.996	15410.96
507.198	15439.64
507.401	15582.99
507.604	15558.42
507.807	15994.64
508.009	15632.15
508.212	16088.84
508.415	16168.71
508.617	16467.72
508.82	16574.21
509.022	16414.47
509.225	17078.01
509.428	17141.5
509.63	17467.13
509.833	17123.07
510.035	17630.96
510.238	17473.27
510.44	17764.08
510.643	18165.48
510.845	18147.05
511.048	17893.1
511.25	18544.36
511.453	18218.73
511.655	19068.64
511.858	18978.53
512.06	19105.5
512.262	19334.87
512.465	19463.89
512.667	19635.92
512.87	19861.2
513.072	20074.19
513.274	20186.83
513.477	20418.25
513.679	20795.07
513.881	20778.69
514.084	20963.01
514.286	20940.48
514.488	21153.47
514.69	21714.61
514.893	21755.57
515.095	21878.45
515.297	21898.93
515.499	22134.45
515.701	22378.15
515.904	22656.68
516.106	22697.64
516.308	22978.21
516.51	23285.4
516.712	23228.06
516.914	23672.47
517.116	23658.14
517.318	23713.43
517.52	24129.17
517.722	23852.69
517.925	24239.76
518.127	24522.38
518.329	24637.06
518.531	24262.29
518.733	25126.53
518.935	25106.05
519.136	25224.83
519.338	25667.19
519.54	25667.19
519.742	25732.73
519.944	25994.87
520.146	26130.03
520.348	26449.52
520.55	26689.13
520.752	26553.96
520.954	27014.76
521.155	26680.94
521.357	27381.34
521.559	27711.07
521.761	27745.88
521.963	27399.77
522.164	27430.49
522.366	27731.54
522.568	28065.36
522.77	28153.43
522.971	28448.33
523.173	27919.96
523.375	28532.3
523.576	28450.38
523.778	28106.32
523.98	28595.79
524.181	28823.11
524.383	28806.73
524.584	28948.04
524.786	28827.21
524.988	28968.52
525.189	29255.23
525.391	29390.4
525.592	29623.87
525.794	29668.92
525.995	29396.54
526.197	29406.78
526.398	29435.45
526.6	29660.73
526.801	29367.87
527.003	29728.31
527.204	29509.18
527.406	29793.85
527.607	29748.79
527.808	30121.52
528.01	29443.65
528.211	29810.23
528.412	30062.13
528.614	29943.35
528.815	30064.18
529.016	30326.32
529.218	29705.79
529.419	29791.8
529.62	29873.72
529.822	29797.95
530.023	29892.15
530.224	29728.31
530.425	29785.66
530.626	29380.16
530.828	29120.07
531.029	30082.61
531.23	29363.78
531.431	29259.33
531.632	29761.08
531.833	29759.03
532.035	29537.85
532.236	29648.44
532.437	29605.44
532.638	29095.49
532.839	29699.64
533.04	29666.88
533.241	29300.29
533.442	29726.27
533.643	29464.13
533.844	29244.99
534.045	29328.96
534.246	29191.75
534.447	29464.13
534.648	29025.86
534.849	29312.58
535.05	28749.39
535.251	29052.48
535.451	28759.63
535.652	29511.23
535.853	28896.84
536.054	28802.63
536.255	28812.87
536.456	28571.21
536.657	29138.5
536.857	28804.68
537.058	28646.99
537.259	28767.82
537.46	28862.02
537.66	28606.03
537.861	28646.99
538.062	28474.96
538.263	28462.67
538.463	28524.11
538.664	28677.71
538.865	28282.45
539.065	28646.99
539.266	27903.57
539.466	28188.24
539.667	28214.87
539.868	28573.26
540.068	28436.05
540.269	28534.35
540.469	28294.74
540.67	28290.64
540.87	28106.32
541.071	28034.64
541.271	28347.98
541.472	28165.71
541.672	27776.6
541.873	28042.84
542.073	27752.02
542.274	28040.79
542.474	27913.81
542.675	27641.43
542.875	28122.71
543.075	27864.66
543.276	27567.71
543.476	27973.21
543.676	27799.13
543.877	28116.56
544.077	28036.69
544.277	27987.54
544.478	27879
544.678	28061.27
544.878	27803.22
545.078	27860.57
545.279	27897.43
545.479	27817.56
545.679	27903.57
545.879	27739.74
546.079	27858.52
546.28	27825.75
546.48	27620.95
546.68	27471.45
546.88	27766.36
547.08	27862.61
547.28	27686.49
547.48	27807.32
547.68	27778.65
547.88	27297.38
548.081	27989.59
548.281	27614.81
548.481	27704.92
548.681	27840.09
548.881	27831.9
549.081	27641.43
549.28	27547.23
549.48	27915.86
549.68	27733.59
549.88	28192.34
550.08	27264.61
550.28	27704.92
550.48	27500.12
550.68	28016.21
550.88	27487.84
551.08	27526.75
551.279	27584.09
551.479	27631.19
551.679	27852.38
551.879	27979.35
552.079	28008.02
552.278	27942.49
552.478	28173.91
552.678	27827.8
552.878	28173.91
553.077	27559.52
553.277	27713.11
553.477	27960.92
553.676	27543.13
553.876	27737.69
554.076	27907.67
554.275	27659.87
554.475	27792.98
554.674	27803.22
554.874	27803.22
555.074	27952.73
555.273	27932.25
555.473	27919.96
555.672	28087.89
555.872	27981.4
556.071	28235.35
556.271	27936.34
556.47	27901.53
556.67	28016.21
556.869	28180.05
557.068	28274.26
557.268	28134.99
557.467	27872.85
557.667	28132.95
557.866	28130.9
558.065	28325.46
558.265	27721.31
558.464	28237.39
558.663	28157.52
558.863	28106.32
559.062	28538.44
559.261	28032.6
559.461	28681.8
559.66	27956.82
559.859	28270.16
560.058	27864.66
560.258	28651.08
560.457	27868.76
560.656	28464.72
560.855	27901.53
561.054	28341.84
561.253	27887.19
561.453	28053.08
561.652	27883.09
561.851	27934.29
562.05	28024.4
562.249	28128.85
562.448	28356.18
562.647	28218.96
562.846	28055.12
563.045	27907.67
563.244	27999.83
563.443	28315.22
563.642	27641.43
563.841	27895.38
564.04	27915.86
564.239	28259.92
564.438	27426.4
564.637	28151.38
564.836	28079.7
565.035	27539.04
565.234	27694.68
565.432	27645.53
565.631	27704.92
565.83	27545.18
566.029	27743.83
566.228	27682.39
566.427	27653.72
566.625	27272.8
566.824	27270.75
567.023	27676.25
567.222	27172.45
567.42	27461.21
567.619	27268.7
567.818	27510.36
568.016	27504.22
568.215	27203.17
568.414	27010.66
568.612	27131.49
568.811	27037.28
569.01	26920.55
569.208	26920.55
569.407	26865.25
569.605	26824.29
569.804	27176.55
570.002	26635.88
570.201	26627.69
570.4	26310.25
570.598	26660.46
570.797	26592.87
570.995	26740.33
571.193	26318.45
571.392	26816.1
571.59	26189.42
571.789	26328.69
571.987	25740.92
572.186	26109.55
572.384	25824.89
572.582	26111.6
572.781	26107.51
572.979	25493.11
573.177	25624.18
573.376	26005.11
573.574	25341.57
573.772	25753.21
573.971	25497.21
574.169	25523.83
574.367	25226.88
574.565	25448.06
574.763	25073.28
574.962	24938.12
575.16	24745.61
575.358	24864.39
575.556	24770.18
575.754	25097.86
575.952	24772.23
576.151	25009.79
576.349	24405.64
576.547	24438.41
576.745	24440.46
576.943	24555.15
577.141	24346.25
577.339	24632.97
577.537	24405.64
577.735	24235.66
577.933	24149.65
578.131	24110.74
578.329	24096.4
578.527	23742.1
578.725	24002.19
578.923	24041.11
579.121	23828.12
579.319	23645.85
579.516	23998.1
579.714	23860.88
579.912	23387.8
580.11	23412.38
580.308	23504.54
580.506	23459.48
580.704	23187.1
580.901	23477.91
581.099	23547.54
581.297	23123.62
581.495	23293.6
581.692	23324.32
581.89	22734.5
582.088	22828.71
582.285	22953.63
582.483	22939.3
582.681	22691.49
582.878	22662.82
583.076	22353.58
583.274	22527.66
583.471	22255.28
583.669	22738.6
583.866	22169.26
584.064	22519.46
584.262	21976.75
584.459	22490.79
584.657	22036.14
584.854	22433.45
585.052	21808.82
585.249	22202.03
585.447	22034.1
585.644	21812.92
585.841	22097.58
586.039	21862.07
586.236	21821.11
586.434	21794.48
586.631	21364.41
586.828	21558.97
587.026	21628.6
587.223	21440.18
587.42	21712.56
587.618	21374.65
587.815	21581.49
588.012	21454.52
588.21	21509.82
588.407	21229.24
588.604	21462.71
588.801	21204.67
588.999	21063.36
589.196	20823.75
589.393	21114.56
589.59	21034.69
589.787	20932.29
589.984	21022.4
590.182	20883.14
590.379	21157.57
590.576	20809.41
590.773	20770.5
590.97	20905.67
591.167	20756.16
591.364	20371.15
591.561	20577.99
591.758	20416.2
591.955	20336.33
592.152	20580.04
592.349	20338.38
592.546	20405.96
592.743	20446.92
592.94	20416.2
593.137	20324.04
593.334	20438.73
593.531	20090.57
593.727	20319.95
593.924	20311.75
594.121	20311.75
594.318	20256.46
594.515	19906.26
594.712	20264.65
594.908	20014.8
595.105	20164.3
595.302	19904.21
595.499	19912.4
595.696	20188.88
595.892	19887.82
596.089	20133.58
596.286	20051.66
596.482	19977.94
596.679	20141.77
596.876	19947.22
597.072	19928.78
597.269	20049.61
597.466	19934.93
597.662	19754.71
597.859	19738.32
598.055	19910.35
598.252	19740.37
598.448	19898.06
598.645	19898.06
598.841	19916.5
599.038	19877.58
599.234	20123.34
599.431	19750.61
599.627	19855.06
599.824	20145.87
600.02	19951.31
600.217	19756.75
600.413	20049.61
600.609	19797.71
600.806	20127.44
601.002	20098.77
601.198	19812.05
601.395	19924.69
601.591	20072.14
601.787	19949.26
601.984	19855.06
602.18	20106.96
602.376	19893.97
602.572	20063.95
602.769	19982.03
602.965	19834.58
603.161	20137.68
603.357	20287.18
603.553	20381.39
603.75	20053.71
603.946	20375.24
604.142	20256.46
604.338	20195.02
604.534	20080.33
604.73	20172.49
604.926	20227.79
605.122	20434.63
605.318	20659.91
605.514	20541.13
605.71	20543.17
605.906	20360.91
606.102	20573.89
606.298	20723.4
606.494	20555.46
606.69	20408.01
606.886	20833.99
607.082	20782.79
607.278	20868.8
607.474	20590.28
607.67	20797.12
607.866	20448.97
608.062	20997.82
608.257	20864.71
608.453	21196.48
608.649	21176
608.845	21036.74
609.041	21092.03
609.236	21190.33
609.432	21384.89
609.628	21112.51
609.824	21157.57
610.019	21022.4
610.215	21190.33
610.411	21571.25
610.606	21227.2
610.802	21470.9
610.998	21505.72
611.193	21587.64
611.389	21622.45
611.584	21255.87
611.78	21337.79
611.976	21540.54
612.171	21620.41
612.367	21731
612.562	21898.93
612.758	21313.21
612.953	21782.2
613.149	21870.26
613.344	21507.77
613.539	22081.2
613.735	21925.55
613.93	21802.68
614.126	21855.92
614.321	22099.63
614.517	22013.62
614.712	21997.23
614.907	22079.15
615.103	22179.5
615.298	21941.94
615.493	22171.31
615.688	21984.94
615.884	22210.22
616.079	21849.78
616.274	22218.41
616.47	21948.08
616.665	21765.81
616.86	21821.11
617.055	22068.91
617.25	21976.75
617.445	22048.43
617.641	21931.7
617.836	22159.02
618.031	21948.08
618.226	21917.36
618.421	21831.35
618.616	22335.15
618.811	21919.41
619.006	22263.47
619.201	21720.76
619.396	21841.59
619.591	21434.04
619.786	21894.83
619.981	21563.06
620.176	21931.7
620.371	21544.63
620.566	21319.35
620.761	21534.39
620.956	21341.88
621.151	21278.4
621.346	21446.33
621.541	21178.04
621.735	21540.54
621.93	20795.07
622.125	21008.06
622.32	20528.84
622.515	20885.19
622.709	20707.01
622.904	20784.83
623.099	20682.44
623.294	20600.52
623.488	20602.57
623.683	20500.17
623.878	20414.15
624.072	20461.26
624.267	20375.24
624.462	20088.53
624.656	19750.61
624.851	19947.22
625.046	20106.96
625.24	20043.47
625.435	19668.69
625.629	19640.02
625.824	19429.08
626.018	19646.16
626.213	19130.08
626.407	19242.71
626.602	19267.29
626.796	19228.38
626.991	18904.8
627.185	19064.54
627.38	19101.4
627.574	18542.31
627.768	18568.93
627.963	18794.21
628.157	18575.08
628.352	18327.27
628.546	17997.55
628.74	18480.87
628.935	18282.22
629.129	18036.46
629.323	17934.06
629.517	17823.47
629.712	17858.29
629.906	17766.13
630.1	17456.89
630.294	17604.34
630.489	17524.47
630.683	17710.83
630.877	17032.96
631.071	17141.5
631.265	17270.52
631.459	17028.86
631.653	17063.68
631.848	16914.17
632.042	16908.03
632.236	17094.4
632.43	16652.03
632.624	16787.2
632.818	16684.8
633.012	16131.85
633.206	16297.74
633.4	16537.35
633.594	16125.71
633.788	16103.18
633.982	16084.75
634.176	16037.64
634.369	15859.47
634.563	15922.96
634.757	15666.96
634.951	15611.67
635.145	15355.67
635.339	15488.79
635.533	15570.71
635.726	15521.56
635.92	14991.13
636.114	15052.57
636.308	14858.01
636.501	15187.74
636.695	14948.12
636.889	15056.67
637.083	14767.9
637.276	14798.62
637.47	14653.22
637.664	14585.63
637.857	14524.19
638.051	14585.63
638.244	14341.93
638.438	14165.8
638.632	14182.18
638.825	14126.89
639.019	13926.19
639.212	13889.32
639.406	13932.33
639.599	13854.51
639.793	13512.5
639.986	13551.41
640.18	13526.83
640.373	13336.37
640.567	13313.84
640.76	13313.84
640.954	13037.37
641.147	13035.32
641.34	12982.07
641.534	12855.1
641.727	12762.94
641.92	13006.65
642.114	12838.72
642.307	12767.04
642.5	12707.65
642.694	12418.88
642.887	12568.38
643.08	12578.62
643.273	12302.15
643.467	12177.22
643.66	12138.31
643.853	12173.13
644.046	12091.21
644.239	12040.01
644.432	11839.31
644.626	11657.04
644.819	11634.51
645.012	11480.91
645.205	11646.8
645.398	11544.4
645.591	11364.18
645.784	11480.91
645.977	11196.25
646.17	11413.33
646.363	10966.87
646.556	10854.23
646.749	10952.54
646.942	10989.4
647.135	10889.05
647.328	10817.37
647.521	10735.45
647.714	10467.17
647.907	10626.91
648.099	10643.29
648.292	10590.05
648.485	10409.83
648.678	10596.19
648.871	10303.33
649.064	10084.2
649.256	10133.35
649.449	10071.91
649.642	10053.48
649.835	9932.65
650.027	9783.15
650.22	9815.91
650.413	9944.94
650.605	9860.97
650.798	9764.72
650.991	9582.45
651.183	9762.67
651.376	9572.21
651.568	9594.73
651.761	9297.78
651.954	9406.32
652.146	9471.86
652.339	9383.79
652.531	9226.1
652.724	9285.49
652.916	9068.41
653.109	9066.36
653.301	9160.56
653.494	9082.74
653.686	8759.16
653.879	9023.35
654.071	8968.06
654.263	8630.14
654.456	8857.46
654.648	8779.64
654.84	8736.63
655.033	8648.57
655.225	8738.68
655.417	8406.91
655.61	8558.46
655.802	8470.4
655.994	8513.41
656.186	8402.82
656.379	8474.49
656.571	8224.64
656.763	8245.12
656.955	8107.91
657.148	8335.23
657.34	8202.11
657.532	8030.09
657.724	7909.26
657.916	8134.53
658.108	8103.81
658.3	7808.9
658.492	7968.65
658.684	7536.52
658.876	7786.38
659.068	7575.44
659.26	7677.83
659.452	7649.16
659.644	7606.16
659.836	7487.37
660.028	7446.41
660.22	7350.16
660.412	7446.41
660.604	7309.2
660.796	7382.93
660.988	7374.74
661.18	7235.47
661.372	7303.06
661.563	7137.17
661.755	7004.05
661.947	7020.44
662.139	6967.19
662.331	6997.91
662.522	6999.96
662.714	6938.52
662.906	6840.22
663.097	6858.65
663.289	6694.81
663.481	6694.81
663.673	6752.15
663.864	6707.1
664.056	6608.8
664.247	6680.47
664.439	6502.3
664.631	6602.65
664.822	6586.27
665.014	6436.77
665.205	6360.99
665.397	6459.29
665.588	6303.65
665.78	6322.08
665.971	6387.61
666.163	6094.76
666.354	6346.66
666.546	6125.47
666.737	6203.3
666.929	6080.42
667.12	5980.07
667.311	5988.26
667.503	5998.5
667.694	6014.88
667.885	6055.84
668.077	5842.85
668.268	5851.05
668.459	6027.17
668.651	5816.23
668.842	5812.14
669.033	5830.57
669.224	5846.95
669.416	5820.33
669.607	5785.51
669.798	5861.29
669.989	5783.46
670.18	5482.41
670.371	5564.33
670.563	5523.37
670.754	5621.67
670.945	5523.37
671.136	5605.29
671.327	5523.37
671.518	5463.98
671.709	5506.99
671.9	5468.08
672.091	5523.37
672.282	5187.5
672.473	5355.44
672.664	5527.47
672.855	5355.44
673.046	5259.18
673.237	5228.46
673.428	5281.71
673.619	5181.36
673.809	5171.12
674	5183.41
674.191	5394.35
674.382	5023.67
674.573	5103.54
674.764	5111.73
674.954	4925.36
675.145	4982.71
675.336	5027.76
675.527	5007.28
675.717	5076.91
675.908	5044.15
676.099	5076.91
676.289	4986.8
676.48	4812.73
676.671	4958.13
676.861	4992.95
677.052	4863.93
677.243	4874.17
677.433	4837.3
677.624	5109.68
677.814	4814.77
678.005	4917.17
678.195	4863.93
678.386	4868.02
678.576	4954.04
678.767	4820.92
678.957	4734.9
679.148	4972.47
679.338	5015.48
679.529	4761.53
679.719	4859.83
679.909	4810.68
680.1	4741.05
680.29	4736.95
680.481	4624.31
680.671	4736.95
680.861	4706.23
681.052	4757.43
681.242	4706.23
681.432	4812.73
681.622	4628.41
681.813	4607.93
682.003	4800.44
682.193	4655.03
682.383	4745.14
682.573	4652.99
682.764	4638.65
682.954	4683.7
683.144	4605.88
683.334	4597.69
683.524	4523.96
683.714	4728.76
683.904	4704.18
684.094	4671.42
684.284	4573.11
684.474	4698.04
684.664	4552.63
684.854	4581.31
685.044	4466.62
685.234	4618.17
685.424	4605.88
685.614	4605.88
685.804	4509.63
685.994	4628.41
686.184	4470.72
686.374	4411.32
686.564	4536.25
686.753	4450.24
686.943	4515.77
687.133	4433.85
687.323	4313.02
687.513	4401.08
687.702	4458.43
687.892	4353.98
688.082	4540.35
688.272	4403.13
688.461	4290.49
688.651	4384.7
688.841	4175.81
689.03	4253.63
689.22	4396.99
689.41	4360.13
689.599	4294.59
689.789	4370.37
689.979	4378.56
690.168	4237.25
690.358	4319.17
690.547	4212.67
690.737	4220.86
690.926	4270.01
691.116	4155.33
691.305	4372.41
691.495	4165.57
691.684	4171.71
691.874	4151.23
692.063	4087.75
692.252	4134.85
692.442	4198.34
692.631	4138.94
692.82	4179.9
693.01	4184
693.199	4126.66
693.388	4165.57
693.578	4077.51
693.767	4192.19
693.956	4155.33
694.146	3950.53
694.335	4130.75
694.524	4184
694.713	3985.35
694.902	4143.04
695.092	4102.08
695.281	4057.03
695.47	4024.26
695.659	4007.87
695.848	3964.87
696.037	4001.73
696.226	3885
696.415	4032.45
696.604	3901.38
696.793	3788.74
696.982	4116.42
697.171	4030.4
697.36	4097.99
697.549	3954.63
697.738	3790.79
697.927	3893.19
698.116	4014.02
698.305	3862.47
698.494	3983.3
698.683	3827.65
698.872	3919.81
699.061	3743.69
699.25	3948.48
699.438	3860.42
699.627	3903.43
699.816	3936.2
700.005	3880.9
700.193	3876.8
700.382	3999.68
700.571	3909.57
700.76	3762.12
700.948	4016.07
701.137	3766.21
701.326	3895.24
701.514	3715.02
701.703	3831.75
701.892	3790.79
702.08	3731.4
702.269	3631.05
702.457	3622.86
702.646	3825.61
702.834	3778.5
703.023	3774.41
703.212	3737.54
703.4	3629
703.589	3579.85
703.777	3610.57
703.965	3590.09
704.154	3708.87
704.342	3598.28
704.531	3602.38
704.719	3504.07
704.907	3581.9
705.096	3516.36
705.284	3631.05
705.472	3516.36
705.661	3534.79
705.849	3536.84
706.037	3614.66
706.226	3590.09
706.414	3534.79
706.602	3674.06
706.79	3483.59
706.979	3385.29
707.167	3502.03
707.355	3352.52
707.543	3342.28
707.731	3489.74
707.919	3434.44
708.107	3360.72
708.296	3368.91
708.484	3327.95
708.672	3377.1
708.86	3377.1
709.048	3278.8
709.236	3221.45
709.424	3348.43
709.612	3309.52
709.8	3297.23
709.988	3377.1
710.176	3262.41
710.364	3352.52
710.551	3403.72
710.739	3237.84
710.927	3237.84
711.115	3239.89
711.303	3149.78
711.491	3180.5
711.679	3209.17
711.866	3190.74
712.054	3303.37
712.242	3209.17
712.43	3178.45
712.617	3262.41
712.805	3043.28
712.993	3123.15
713.181	3057.62
713.368	3262.41
713.556	3026.9
713.744	3157.97
713.931	3168.21
714.119	3016.66
714.306	2959.31
714.494	2969.55
714.682	2955.22
714.869	2967.51
715.057	3065.81
715.244	3006.42
715.432	2985.94
715.619	2934.74
715.807	2906.07
715.994	2975.7
716.182	2930.64
716.369	3004.37
716.556	2981.84
716.744	2830.29
716.931	2832.34
717.119	2934.74
717.306	2975.7
717.493	2869.2
717.681	2811.86
717.868	2899.92
718.055	2848.72
718.242	2828.24
718.43	2908.12
718.617	2846.68
718.804	2770.9
718.991	2924.5
719.179	2881.49
719.366	2656.22
719.553	2852.82
719.74	2830.29
719.927	2750.42
720.114	2725.85
720.301	2719.7
720.488	2742.23
720.676	2736.09
720.863	2836.44
721.05	2705.37
721.237	2574.3
721.424	2738.13
721.611	2658.26
721.798	2686.94
721.985	2684.89
722.172	2447.32
722.358	2670.55
722.545	2643.93
722.732	2676.7
722.919	2635.74
723.106	2664.41
723.293	2547.67
723.48	2598.87
723.667	2605.02
723.853	2621.4
724.04	2654.17
724.227	2564.06
724.414	2531.29
724.6	2461.66
724.787	2598.87
724.974	2557.91
725.161	2545.63
725.347	2539.48
725.534	2439.13
725.72	2519
725.907	2529.24
726.094	2551.77
726.28	2418.65
726.467	2496.47
726.653	2449.37
726.84	2500.57
727.027	2453.47
727.213	2404.32
727.4	2578.39
727.586	2500.57
727.773	2369.5
727.959	2422.75
728.145	2400.22
728.332	2404.32
728.518	2344.92
728.705	2510.81
728.891	2410.46
729.077	2385.88
729.264	2344.92
729.45	2324.44
729.636	2398.17
729.823	2254.81
730.009	2361.31
730.195	2299.87
730.382	2357.21
730.568	2389.98
730.754	2375.64
730.94	2265.05
731.126	2369.5
731.313	2150.37
731.499	2275.29
731.685	2373.6
731.871	2267.1
732.057	2299.87
732.243	2303.96
732.429	2205.66
732.615	2265.05
732.801	2215.9
732.987	2265.05
733.173	2224.09
733.359	2242.53
733.545	2242.53
733.731	2230.24
733.917	2332.64
734.103	2185.18
734.289	2211.81
734.475	2146.27
734.661	2140.13
734.847	2142.18
735.033	2111.46
735.219	2084.83
735.404	2052.06
735.59	2117.6
735.776	2162.66
735.962	2070.5
736.148	2232.29
736.333	2099.17
736.519	2107.36
736.705	2156.51
736.89	2025.44
737.076	2025.44
737.262	2060.26
737.447	2078.69
737.633	2056.16
737.819	2086.88
738.004	2043.87
738.19	2084.83
738.375	1996.77
738.561	2031.59
738.747	1976.29
738.932	1902.56
739.118	2050.02
739.303	1976.29
739.489	1988.58
739.674	2017.25
739.859	1894.37
740.045	2025.44
740.23	1939.43
740.416	1906.66
740.601	1877.99
740.786	1937.38
740.972	1714.15
741.157	1771.49
741.342	1886.18
741.528	1871.84
741.713	1808.36
741.898	1822.69
742.084	1857.51
742.269	1822.69
742.454	1738.73
742.639	1918.95
742.824	1757.16
743.01	1800.16
743.195	1722.34
743.38	1837.03
743.565	1806.31
743.75	1771.49
743.935	1816.55
744.12	1839.08
744.305	1775.59
744.49	1789.92
744.675	1685.48
744.86	1703.91
745.045	1755.11
745.23	1695.72
745.415	1685.48
745.6	1722.34
745.785	1673.19
745.97	1677.29
746.155	1595.37
746.34	1632.23
746.525	1650.66
746.71	1689.57
746.895	1558.5
747.079	1634.28
747.264	1613.8
747.449	1544.17
747.634	1648.61
747.819	1589.22
748.003	1484.78
748.188	1486.83
748.373	1669.09
748.557	1574.89
748.742	1517.54
748.927	1452.01
749.111	1427.43
749.296	1495.02
749.481	1501.16
749.665	1456.11
749.85	1419.24
750.034	1581.03
750.219	1476.59
750.404	1445.87
750.588	1382.38
750.773	1329.13
750.957	1398.76
751.141	1316.84
751.326	1488.87
751.51	1423.34
751.695	1333.23
751.879	1320.94
752.064	1361.9
752.248	1206.25
752.432	1386.47
752.617	1394.67
752.801	1239.02
752.985	1296.36
753.17	1345.52
753.354	1282.03
753.538	1245.17
753.722	1308.65
753.907	1210.35
754.091	1224.69
754.275	1243.12
754.459	1153.01
754.643	1218.54
754.828	1251.31
755.012	1290.22
755.196	1148.91
755.38	1187.82
755.564	1212.4
755.748	1148.91
755.932	1161.2
756.116	1230.83
756.3	1142.77
756.484	1161.2
756.668	1124.33
756.852	1099.76
757.036	1083.38
757.22	1132.53
757.404	1021.94
757.588	1066.99
757.772	1071.09
757.956	1132.53
758.14	1075.18
758.323	1077.23
758.507	1144.81
758.691	1105.9
758.875	1034.22
759.059	1093.62
759.242	1034.22
759.426	960.5
759.61	1001.46
759.794	968.69
759.977	1064.94
760.161	1023.98
760.345	1017.84
760.528	1036.27
760.712	1003.5
760.895	911.35
761.079	946.16
761.263	956.4
761.446	929.78
761.63	995.31
761.813	989.17
761.997	886.77
762.18	952.31
762.364	884.72
762.547	837.62
762.731	890.87
762.914	942.07
763.098	905.2
763.281	940.02
763.464	927.73
763.648	976.88
763.831	894.96
764.015	915.44
764.198	911.35
764.381	880.63
764.564	927.73
764.748	845.81
764.931	862.19
765.114	811
765.297	929.78
765.481	790.52
765.664	817.14
765.847	878.58
766.03	876.53
766.213	851.96
766.397	802.8
766.58	751.6
766.763	856.05
766.946	831.48
767.129	774.13
767.312	837.62
767.495	847.86
767.678	876.53
767.861	860.15
768.044	782.32
768.227	763.89
768.41	866.29
768.593	804.85
768.776	774.13
768.959	782.32
769.142	788.47
769.324	786.42
769.507	813.04
769.69	743.41
769.873	735.22
770.056	845.81
770.239	794.61
770.421	854
770.604	798.71
770.787	710.65
770.97	864.24
771.152	747.51
771.335	774.13
771.518	690.17
771.7	733.17
771.883	788.47
772.066	759.8
772.248	706.55
772.431	806.9
772.613	796.66
772.796	767.99
772.978	739.32
773.161	694.26
773.343	679.93
773.526	755.7
773.708	681.97
773.891	636.92
774.073	671.73
774.256	716.79
774.438	755.7
774.621	702.45
774.803	706.55
774.985	727.03
775.168	661.49
775.35	686.07
775.532	681.97
775.715	634.87
775.897	643.06
776.079	626.68
776.261	733.17
776.444	684.02
776.626	561.14
776.808	567.29
776.99	546.81
777.173	583.67
777.355	659.45
777.537	606.2
777.719	624.63
777.901	569.34
778.083	579.58
778.265	555
778.447	530.42
778.629	577.53
778.811	675.83
778.993	514.04
779.175	702.45
779.357	534.52
779.539	428.03
779.721	524.28
779.903	495.61
780.085	481.27
780.267	577.53
780.449	522.23
780.631	608.25
780.812	460.79
780.994	559.1
781.176	495.61
781.358	468.98
781.54	501.75
781.721	501.75
781.903	520.18
782.085	526.33
782.267	520.18
782.448	501.75
782.63	425.98
782.812	436.22
782.993	456.7
783.175	495.61
783.357	446.46
783.538	501.75
783.72	460.79
783.901	452.6
784.083	403.45
784.264	397.31
784.446	403.45
784.627	452.6
784.809	444.41
784.99	411.64
785.172	438.27
785.353	380.92
785.535	503.8
785.716	415.74
785.897	452.6
786.079	456.7
786.26	444.41
786.441	419.83
786.623	440.31
786.804	432.12
786.985	387.07
787.167	413.69
787.348	428.03
787.529	403.45
787.71	397.31
787.891	419.83
788.073	354.3
788.254	321.53
788.435	477.18
788.616	342.01
788.797	364.54
788.978	264.19
789.159	278.52
789.34	362.49
789.522	362.49
789.703	272.38
789.884	391.16
790.065	397.31
790.246	360.44
790.427	327.68
790.607	352.25
790.788	374.78
790.969	327.68
791.15	374.78
791.331	413.69
791.512	372.73
791.693	350.2
791.874	374.78
792.054	442.36
792.235	243.71
792.416	274.43
792.597	258.04
792.778	325.63
792.958	305.15
793.139	317.44
793.32	274.43
793.5	301.05
793.681	288.76
793.862	346.11
794.042	301.05
794.223	276.48
794.404	268.28
794.584	243.71
794.765	282.62
794.945	339.96
795.126	337.91
795.306	317.44
795.487	282.62
795.667	284.67
795.848	329.72
796.028	235.52
796.209	268.28
796.389	288.76
796.57	186.37
796.75	305.15
796.93	223.23
797.111	268.28
797.291	266.24
797.471	272.38
797.652	233.47
797.832	198.65
798.012	280.57
798.192	256
798.373	264.19
798.553	200.7
798.733	268.28
798.913	290.81
799.093	321.53
799.274	194.56
799.454	272.38
799.634	221.18
799.814	231.42
799.994	276.48
800.174	260.09
800.354	174.08
800.534	174.08
800.714	245.76
800.894	288.76
801.074	202.75
801.254	241.66
801.434	323.58
801.614	157.69
801.794	204.8
801.974	897.01
802.154	174.08
802.334	192.51
802.514	153.6
802.693	219.13
802.873	227.32
803.053	299
803.233	202.75
803.413	157.69
803.592	167.93
803.772	221.18
803.952	231.42
804.131	155.65
804.311	268.28
804.491	235.52
804.67	92.16
804.85	157.69
805.03	221.18
805.209	233.47
805.389	141.31
805.568	149.5
805.748	129.02
805.928	215.04
806.107	157.69
806.287	184.32
806.466	184.32
806.646	215.04
806.825	174.08
807.004	176.13
807.184	155.65
807.363	233.47
807.543	186.37
807.722	114.69
807.901	215.04
808.081	124.93
808.26	108.54
808.439	100.35
808.619	165.89
808.798	108.54
808.977	198.65
809.156	124.93
809.336	198.65
809.515	133.12
809.694	151.55
809.873	114.69
810.052	178.17
810.231	215.04
810.411	122.88
810.59	100.35
810.769	137.21
810.948	200.7
811.127	126.97
811.306	139.26
811.485	104.45
811.664	249.85
811.843	141.31
812.022	108.54
812.201	157.69
812.38	83.97
812.559	176.13
812.737	178.17
812.916	67.58
813.095	126.97
813.274	190.46
813.453	190.46
813.632	190.46
813.811	184.32
813.989	47.1
814.168	194.56
814.347	145.41
814.526	141.31
814.704	118.78
814.883	198.65
815.062	71.68
815.24	149.5
815.419	92.16
815.598	149.5
815.776	98.3
815.955	102.4
816.133	57.34
816.312	145.41
816.49	139.26
816.669	149.5
816.847	92.16
817.026	157.69
817.204	182.27
817.383	124.93
817.561	133.12
817.74	167.93
817.918	190.46
818.097	67.58
818.275	190.46
818.453	57.34
818.632	165.89
818.81	165.89
818.988	67.58
819.167	155.65
819.345	100.35
819.523	34.82
819.701	137.21
819.879	126.97
820.058	88.06
820.236	145.41
820.414	94.21
820.592	96.25
820.77	81.92
820.948	92.16
821.127	135.17
821.305	61.44
821.483	90.11
821.661	96.25
821.839	129.02
822.017	102.4
822.195	59.39
822.373	198.65
822.551	75.77
822.729	243.71
822.907	102.4
823.085	53.25
823.262	61.44
823.44	98.3
823.618	118.78
823.796	86.01
823.974	57.34
824.152	59.39
824.329	34.82
824.507	83.97
824.685	116.73
824.863	59.39
825.04	100.35
825.218	161.79
825.396	81.92
825.574	83.97
825.751	81.92
825.929	83.97
826.107	28.67
826.284	69.63
826.462	96.25
826.639	59.39
826.817	10.24
826.994	112.64
827.172	112.64
827.349	196.61
827.527	100.35
827.704	45.06
827.882	92.16
828.059	36.86
828.237	67.58
828.414	116.73
828.591	-22.53
828.769	92.16
828.946	51.2
829.124	104.45
829.301	145.41
829.478	75.77
829.655	133.12
829.833	22.53
830.01	57.34
830.187	69.63
830.364	102.4
830.542	63.49
830.719	114.69
830.896	83.97
831.073	-4.1
831.25	133.12
831.427	59.39
831.604	135.17
831.782	43.01
831.959	79.87
832.136	-30.72
832.313	165.89
832.49	90.11
832.667	110.59
832.844	71.68
833.021	100.35
833.198	67.58
833.374	71.68
833.551	106.49
833.728	63.49
833.905	69.63
834.082	18.43
834.259	106.49
834.436	145.41
834.612	43.01
834.789	51.2
834.966	53.25
835.143	83.97
835.319	43.01
835.496	10.24
835.673	223.23
835.85	16.38
836.026	69.63
836.203	108.54
836.38	55.3
836.556	92.16
836.733	92.16
836.909	147.45
837.086	32.77
837.262	-34.82
837.439	96.25
837.616	90.11
837.792	38.91
837.968	69.63
838.145	2.05
838.321	61.44
838.498	92.16
838.674	38.91
838.851	110.59
839.027	79.87
839.203	43.01
839.38	86.01
839.556	-4.1
839.732	47.1
839.909	26.62
840.085	32.77
840.261	12.29
840.437	75.77
840.614	100.35
840.79	51.2
840.966	69.63
841.142	118.78
841.318	83.97
841.494	100.35
841.671	67.58
841.847	6.14
842.023	6.14
842.199	104.45
842.375	104.45
842.551	12.29
842.727	67.58
842.903	55.3
843.079	32.77
843.255	77.82
843.431	61.44
843.607	90.11
843.783	32.77
843.959	69.63
844.134	2.05
844.31	108.54
844.486	12.29
844.662	10.24
844.838	75.77
845.013	67.58
845.189	55.3
845.365	28.67
845.541	104.45
845.716	-10.24
845.892	77.82
846.068	20.48
846.244	36.86
846.419	94.21
846.595	34.82
846.77	69.63
846.946	88.06
847.122	49.15
847.297	53.25
847.473	83.97
847.648	55.3
847.824	18.43
847.999	36.86
848.175	10.24
848.35	51.2
848.526	30.72
848.701	51.2
848.876	47.1
849.052	51.2
849.227	-14.34
849.403	6.14
849.578	-14.34
849.753	124.93
849.929	53.25
850.104	2.05
850.279	96.25
850.454	59.39
850.63	6.14
850.805	36.86
850.98	71.68
851.155	2.05
851.33	67.58
851.505	-26.62
851.681	104.45
851.856	-18.43
852.031	81.92
852.206	45.06
852.381	28.67
852.556	-22.53
852.731	65.54
852.906	69.63
853.081	-32.77
853.256	98.3
853.431	10.24
853.606	51.2
853.781	40.96
853.956	26.62
854.131	26.62
854.305	10.24
854.48	71.68
854.655	51.2
854.83	34.82
855.005	59.39
855.18	86.01
855.354	73.73
855.529	92.16
855.704	-14.34
855.879	102.4
856.053	18.43
856.228	24.58
856.403	20.48
856.577	55.3
856.752	4.1
856.926	53.25
857.101	77.82
857.276	4.1
857.45	22.53
857.625	34.82
857.799	26.62
857.974	55.3
858.148	16.38
858.323	157.69
858.497	75.77
858.672	67.58
858.846	18.43
859.02	100.35
859.195	45.06
859.369	45.06
859.543	45.06
859.718	20.48
859.892	75.77
860.066	131.07
860.241	47.1
860.415	10.24
860.589	40.96
860.763	-16.38
860.938	10.24
861.112	26.62
861.286	28.67
861.46	69.63
861.634	-4.1
861.808	59.39
861.982	26.62
862.157	4.1
862.331	36.86
862.505	20.48
862.679	-4.1
862.853	-2.05
863.027	10.24
863.201	61.44
863.375	-4.1
863.549	34.82
863.722	18.43
863.896	75.77
864.07	-47.1
864.244	47.1
864.418	24.58
864.592	28.67
864.766	38.91
864.939	65.54
865.113	18.43
865.287	36.86
865.461	-77.82
865.634	55.3
865.808	73.73
865.982	43.01
866.156	55.3
866.329	18.43
866.503	-16.38
866.676	96.25
866.85	28.67
867.024	-2.05
867.197	55.3
867.371	77.82
867.544	-45.06
867.718	28.67
867.891	34.82
868.065	4.1
868.238	59.39
868.412	49.15
868.585	26.62
868.759	4.1
868.932	-22.53
869.105	-34.82
869.279	22.53
869.452	20.48
869.625	4.1
869.799	12.29
869.972	32.77
870.145	14.34
870.319	92.16
870.492	-22.53
870.665	-14.34
870.838	83.97
871.011	18.43
871.185	30.72
871.358	2.05
871.531	12.29
871.704	2.05
871.877	-4.1
872.05	-30.72
872.223	-22.53
872.396	12.29
872.569	36.86
872.742	73.73
872.915	45.06
873.088	-30.72
873.261	-30.72
873.434	61.44
873.607	30.72
873.78	59.39
873.953	18.43
874.126	28.67
874.299	79.87
874.471	0
874.644	-36.86
874.817	34.82
874.99	133.12
875.163	-2.05
875.335	61.44
875.508	-2.05
875.681	86.01
875.853	43.01
876.026	47.1
876.199	65.54
876.371	4.1
876.544	4.1
876.717	71.68
876.889	-38.91
877.062	24.58
877.234	-10.24
877.407	22.53
877.579	53.25
877.752	67.58
877.924	43.01
878.097	53.25
878.269	112.64
878.442	67.58
878.614	67.58
878.786	59.39
878.959	34.82
879.131	14.34
879.303	18.43
879.476	-6.14
879.648	49.15
879.82	24.58
879.993	-43.01
880.165	86.01
880.337	24.58
880.509	100.35
880.681	69.63
880.854	-4.1
881.026	26.62
881.198	90.11
881.37	18.43
881.542	59.39
881.714	61.44
881.886	-6.14
882.058	-26.62
882.23	-28.67
882.402	20.48
882.574	-10.24
882.746	61.44
882.918	-18.43
883.09	2.05
883.262	-34.82
883.434	55.3
883.606	4.1
883.778	22.53
883.95	45.06
884.122	10.24
884.293	116.73
884.465	8.19
884.637	10.24
884.809	26.62
884.98	-51.2
885.152	-28.67
885.324	47.1
885.496	40.96
885.667	59.39
885.839	92.16
886.011	47.1
886.182	69.63
886.354	18.43
886.525	20.48
886.697	75.77
886.869	-55.3
887.04	24.58
887.212	40.96
887.383	108.54
887.555	18.43
887.726	20.48
887.897	53.25
888.069	-2.05
888.24	26.62
888.412	43.01
888.583	38.91
888.754	53.25
888.926	-92.16
889.097	2.05
889.268	-30.72
889.44	49.15
889.611	-75.77
889.782	22.53
889.953	-53.25
890.125	6.14
890.296	-30.72
890.467	-8.19
890.638	53.25
890.809	-53.25
890.98	61.44
891.151	59.39
891.323	-22.53
891.494	-26.62
891.665	-18.43
891.836	18.43
892.007	-47.1
892.178	67.58
892.349	45.06
892.52	-12.29
892.691	-18.43
892.862	14.34
893.032	12.29
893.203	-12.29
893.374	20.48
893.545	8.19
893.716	12.29
893.887	8.19
894.057	26.62
894.228	-26.62
894.399	-18.43
894.57	12.29
894.74	6.14
894.911	4.1
895.082	-4.1
895.253	-4.1
895.423	18.43
895.594	26.62
895.764	18.43
895.935	2.05
896.106	-36.86
896.276	12.29
896.447	-38.91
896.617	-118.78
896.788	4.1
896.958	36.86
897.129	18.43
897.299	18.43
897.47	16.38
897.64	71.68
897.81	53.25
897.981	-22.53
898.151	2.05
898.322	20.48
898.492	63.49
898.662	30.72
898.832	-32.77
899.003	-18.43
899.173	2.05
899.343	-6.14
899.513	-98.3
