Data from USB4F104151__202__14-33-16-326.txt Node

Date: Thu Mar 13 14:33:16 EDT 2025
User: louis
Spectrometer: USB4F10415
Trigger mode: 4
Integration Time (sec): 2.500000E-2
Scans to average: 1
Electric dark correction enabled: true
Nonlinearity correction enabled: false
Boxcar width: 0
XAxis mode: Wavelengths
Number of Pixels in Spectrum: 3648
>>>>>Begin Spectral Data<<<<<
178.204	-152.23
178.424	-152.23
178.644	-152.23
178.864	-217.77
179.084	-178.86
179.304	-2.73
179.524	38.23
179.744	3.41
179.964	34.13
180.184	7.51
180.404	30.04
180.624	-17.07
180.844	17.75
181.064	-72.36
181.283	-23.21
181.503	-88.75
181.723	73.04
181.943	-88.75
182.163	40.28
182.383	19.8
182.602	93.52
182.822	152.92
183.042	64.85
183.262	-21.16
183.482	3.41
183.701	91.48
183.921	-49.83
184.141	-23.21
184.361	17.75
184.58	-25.26
184.8	44.37
185.02	-41.64
185.239	68.95
185.459	34.13
185.679	25.94
185.898	-8.87
186.118	58.71
186.338	56.66
186.557	-2.73
186.777	30.04
186.997	7.51
187.216	-25.26
187.436	81.24
187.655	56.66
187.875	81.24
188.095	-2.73
188.314	40.28
188.534	23.89
188.753	19.8
188.973	9.56
189.192	66.9
189.412	25.94
189.631	44.37
189.851	-21.16
190.07	56.66
190.29	73.04
190.509	60.76
190.729	19.8
190.948	91.48
191.168	140.63
191.387	66.9
191.607	23.89
191.826	81.24
192.045	48.47
192.265	75.09
192.484	-29.35
192.704	-4.78
192.923	11.61
193.142	85.33
193.362	79.19
193.581	66.9
193.8	19.8
194.02	85.33
194.239	40.28
194.458	73.04
194.678	-35.5
194.897	1.37
195.116	-45.74
195.335	-4.78
195.555	56.66
195.774	11.61
195.993	44.37
196.212	-21.16
196.432	64.85
196.651	-49.83
196.87	54.61
197.089	87.38
197.308	17.75
197.528	-17.07
197.747	52.56
197.966	7.51
198.185	73.04
198.404	-17.07
198.623	64.85
198.842	25.94
199.062	60.76
199.281	23.89
199.5	-4.78
199.719	42.32
199.938	34.13
200.157	58.71
200.376	23.89
200.595	-21.16
200.814	62.8
201.033	-47.79
201.252	23.89
201.471	-41.64
201.69	34.13
201.909	-6.83
202.128	38.23
202.347	7.51
202.566	89.43
202.785	19.8
203.004	-37.55
203.223	97.62
203.442	-0.68
203.661	7.51
203.879	42.32
204.098	64.85
204.317	52.56
204.536	81.24
204.755	27.99
204.974	32.08
205.193	56.66
205.411	56.66
205.63	50.52
205.849	97.62
206.068	-2.73
206.287	-68.27
206.505	73.04
206.724	-4.78
206.943	-4.78
207.162	36.18
207.381	91.48
207.599	19.8
207.818	-17.07
208.037	7.51
208.255	27.99
208.474	27.99
208.693	124.24
208.911	-43.69
209.13	3.41
209.349	-33.45
209.567	32.08
209.786	77.14
210.005	5.46
210.223	73.04
210.442	15.7
210.661	48.47
210.879	42.32
211.098	40.28
211.316	32.08
211.535	83.28
211.753	-0.68
211.972	40.28
212.191	-47.79
212.409	64.85
212.628	48.47
212.846	73.04
213.065	93.52
213.283	83.28
213.502	17.75
213.72	75.09
213.938	-23.21
214.157	50.52
214.375	27.99
214.594	52.56
214.812	44.37
215.031	15.7
215.249	60.76
215.467	54.61
215.686	111.96
215.904	97.62
216.122	60.76
216.341	148.82
216.559	15.7
216.778	-31.4
216.996	73.04
217.214	7.51
217.432	-41.64
217.651	23.89
217.869	50.52
218.087	42.32
218.306	-8.87
218.524	87.38
218.742	-8.87
218.96	7.51
219.179	50.52
219.397	-0.68
219.615	107.86
219.833	56.66
220.051	3.41
220.27	66.9
220.488	46.42
220.706	52.56
220.924	-21.16
221.142	21.85
221.36	64.85
221.578	1.37
221.796	-15.02
222.015	56.66
222.233	44.37
222.451	83.28
222.669	44.37
222.887	17.75
223.105	52.56
223.323	19.8
223.541	1.37
223.759	64.85
223.977	-0.68
224.195	56.66
224.413	75.09
224.631	7.51
224.849	7.51
225.067	56.66
225.285	-78.51
225.503	50.52
225.721	-8.87
225.939	91.48
226.157	21.85
226.375	40.28
226.592	-25.26
226.81	-6.83
227.028	60.76
227.246	50.52
227.464	77.14
227.682	3.41
227.9	-17.07
228.117	36.18
228.335	21.85
228.553	48.47
228.771	9.56
228.989	159.06
229.206	91.48
229.424	-8.87
229.642	9.56
229.86	-2.73
230.077	101.72
230.295	25.94
230.513	34.13
230.731	118.1
230.948	103.76
231.166	-19.11
231.384	-6.83
231.601	40.28
231.819	114
232.037	5.46
232.254	73.04
232.472	68.95
232.689	36.18
232.907	48.47
233.125	56.66
233.342	105.81
233.56	54.61
233.777	-41.64
233.995	73.04
234.213	68.95
234.43	40.28
234.648	64.85
234.865	87.38
235.083	19.8
235.3	15.7
235.518	21.85
235.735	66.9
235.953	163.15
236.17	-21.16
236.388	7.51
236.605	-33.45
236.822	93.52
237.04	114
237.257	64.85
237.475	23.89
237.692	56.66
237.909	64.85
238.127	7.51
238.344	7.51
238.562	77.14
238.779	5.46
238.996	58.71
239.214	15.7
239.431	93.52
239.648	-15.02
239.865	56.66
240.083	13.65
240.3	83.28
240.517	-17.07
240.735	52.56
240.952	105.81
241.169	105.81
241.386	19.8
241.603	-25.26
241.821	-33.45
242.038	95.57
242.255	7.51
242.472	32.08
242.689	75.09
242.907	83.28
243.124	-21.16
243.341	-88.75
243.558	-49.83
243.775	-23.21
243.992	42.32
244.209	30.04
244.426	32.08
244.643	34.13
244.86	-15.02
245.078	66.9
245.295	58.71
245.512	32.08
245.729	101.72
245.946	34.13
246.163	19.8
246.38	25.94
246.597	101.72
246.814	11.61
247.031	-4.78
247.248	32.08
247.464	40.28
247.681	15.7
247.898	17.75
248.115	7.51
248.332	-33.45
248.549	85.33
248.766	107.86
248.983	34.13
249.2	27.99
249.417	-33.45
249.633	17.75
249.85	36.18
250.067	64.85
250.284	48.47
250.501	58.71
250.717	32.08
250.934	11.61
251.151	44.37
251.368	-0.68
251.585	-0.68
251.801	13.65
252.018	-66.22
252.235	122.2
252.451	-4.78
252.668	-53.93
252.885	48.47
253.102	40.28
253.318	42.32
253.535	-41.64
253.752	56.66
253.968	-80.55
254.185	11.61
254.401	38.23
254.618	-2.73
254.835	-2.73
255.051	91.48
255.268	-105.13
255.484	89.43
255.701	23.89
255.917	62.8
256.134	7.51
256.351	7.51
256.567	-21.16
256.784	81.24
257	11.61
257.217	34.13
257.433	56.66
257.65	50.52
257.866	38.23
258.082	-10.92
258.299	36.18
258.515	-31.4
258.732	48.47
258.948	25.94
259.165	25.94
259.381	66.9
259.597	25.94
259.814	48.47
260.03	85.33
260.246	42.32
260.463	7.51
260.679	66.9
260.895	116.05
261.112	-21.16
261.328	-27.31
261.544	48.47
261.761	134.48
261.977	15.7
262.193	-35.5
262.409	66.9
262.626	5.46
262.842	64.85
263.058	44.37
263.274	56.66
263.49	48.47
263.707	1.37
263.923	11.61
264.139	-33.45
264.355	9.56
264.571	64.85
264.787	138.58
265.004	9.56
265.22	-0.68
265.436	-25.26
265.652	71
265.868	15.7
266.084	60.76
266.3	40.28
266.516	-111.27
266.732	77.14
266.948	13.65
267.164	-17.07
267.38	-29.35
267.596	3.41
267.812	124.24
268.028	38.23
268.244	19.8
268.46	56.66
268.676	17.75
268.892	97.62
269.108	32.08
269.324	-10.92
269.54	58.71
269.756	-51.88
269.972	1.37
270.188	52.56
270.403	5.46
270.619	58.71
270.835	44.37
271.051	50.52
271.267	15.7
271.483	15.7
271.698	62.8
271.914	48.47
272.13	7.51
272.346	-8.87
272.562	9.56
272.777	75.09
272.993	3.41
273.209	-58.03
273.425	21.85
273.64	15.7
273.856	7.51
274.072	23.89
274.287	3.41
274.503	32.08
274.719	75.09
274.934	-12.97
275.15	-60.07
275.366	56.66
275.581	54.61
275.797	1.37
276.012	-17.07
276.228	89.43
276.444	56.66
276.659	97.62
276.875	-39.59
277.09	-21.16
277.306	9.56
277.521	34.13
277.737	27.99
277.952	91.48
278.168	15.7
278.383	13.65
278.599	11.61
278.814	15.7
279.03	56.66
279.245	58.71
279.461	17.75
279.676	114
279.892	-8.87
280.107	48.47
280.322	19.8
280.538	17.75
280.753	-45.74
280.969	81.24
281.184	23.89
281.399	105.81
281.615	-23.21
281.83	7.51
282.045	23.89
282.26	-12.97
282.476	-33.45
282.691	58.71
282.906	75.09
283.122	-6.83
283.337	34.13
283.552	116.05
283.767	-58.03
283.983	36.18
284.198	97.62
284.413	-12.97
284.628	-12.97
284.843	58.71
285.058	91.48
285.274	56.66
285.489	-15.02
285.704	27.99
285.919	7.51
286.134	30.04
286.349	27.99
286.564	30.04
286.779	81.24
286.995	36.18
287.21	9.56
287.425	58.71
287.64	7.51
287.855	-8.87
288.07	-35.5
288.285	122.2
288.5	85.33
288.715	-4.78
288.93	40.28
289.145	60.76
289.36	-6.83
289.575	17.75
289.79	64.85
290.004	7.51
290.219	50.52
290.434	23.89
290.649	66.9
290.864	-33.45
291.079	34.13
291.294	48.47
291.509	73.04
291.724	15.7
291.938	36.18
292.153	64.85
292.368	3.41
292.583	7.51
292.798	7.51
293.012	15.7
293.227	40.28
293.442	7.51
293.657	66.9
293.871	130.39
294.086	-10.92
294.301	60.76
294.516	34.13
294.73	-41.64
294.945	56.66
295.16	-8.87
295.374	52.56
295.589	48.47
295.804	83.28
296.018	15.7
296.233	11.61
296.447	56.66
296.662	38.23
296.877	32.08
297.091	64.85
297.306	56.66
297.52	-45.74
297.735	50.52
297.949	38.23
298.164	75.09
298.378	9.56
298.593	-21.16
298.807	68.95
299.022	42.32
299.236	130.39
299.451	11.61
299.665	15.7
299.88	75.09
300.094	9.56
300.309	3.41
300.523	-17.07
300.737	15.7
300.952	60.76
301.166	56.66
301.381	68.95
301.595	56.66
301.809	30.04
302.024	23.89
302.238	-6.83
302.452	114
302.667	-0.68
302.881	179.54
303.095	105.81
303.309	62.8
303.524	83.28
303.738	27.99
303.952	-10.92
304.166	68.95
304.381	15.7
304.595	79.19
304.809	-15.02
305.023	19.8
305.237	-6.83
305.452	36.18
305.666	-6.83
305.88	116.05
306.094	103.76
306.308	97.62
306.522	99.67
306.736	15.7
306.95	25.94
307.164	30.04
307.379	13.65
307.593	77.14
307.807	114
308.021	97.62
308.235	-0.68
308.449	3.41
308.663	25.94
308.877	134.48
309.091	30.04
309.305	89.43
309.519	-19.11
309.733	85.33
309.947	3.41
310.161	93.52
310.374	-41.64
310.588	91.48
310.802	-19.11
311.016	15.7
311.23	15.7
311.444	64.85
311.658	48.47
311.872	9.56
312.085	46.42
312.299	40.28
312.513	75.09
312.727	87.38
312.941	32.08
313.154	15.7
313.368	52.56
313.582	36.18
313.796	48.47
314.009	40.28
314.223	89.43
314.437	38.23
314.651	81.24
314.864	15.7
315.078	40.28
315.292	75.09
315.505	58.71
315.719	32.08
315.933	44.37
316.146	38.23
316.36	66.9
316.573	85.33
316.787	23.89
317.001	60.76
317.214	-15.02
317.428	122.2
317.641	9.56
317.855	15.7
318.068	-12.97
318.282	101.72
318.495	32.08
318.709	34.13
318.922	21.85
319.136	58.71
319.349	56.66
319.563	58.71
319.776	7.51
319.99	-21.16
320.203	73.04
320.417	56.66
320.63	32.08
320.843	9.56
321.057	-0.68
321.27	83.28
321.483	68.95
321.697	66.9
321.91	-37.55
322.124	64.85
322.337	64.85
322.55	21.85
322.763	48.47
322.977	11.61
323.19	23.89
323.403	50.52
323.617	21.85
323.83	83.28
324.043	27.99
324.256	81.24
324.469	23.89
324.683	130.39
324.896	7.51
325.109	114
325.322	15.7
325.535	38.23
325.748	75.09
325.962	-25.26
326.175	83.28
326.388	50.52
326.601	138.58
326.814	34.13
327.027	36.18
327.24	81.24
327.453	3.41
327.666	109.91
327.879	114
328.092	23.89
328.305	44.37
328.518	30.04
328.731	3.41
328.944	15.7
329.157	64.85
329.37	11.61
329.583	48.47
329.796	1.37
330.009	3.41
330.222	93.52
330.435	93.52
330.648	-6.83
330.861	42.32
331.073	81.24
331.286	101.72
331.499	23.89
331.712	44.37
331.925	83.28
332.138	62.8
332.35	93.52
332.563	114
332.776	114
332.989	23.89
333.202	97.62
333.414	25.94
333.627	-23.21
333.84	73.04
334.053	97.62
334.265	11.61
334.478	17.75
334.691	19.8
334.903	99.67
335.116	32.08
335.329	32.08
335.541	27.99
335.754	107.86
335.966	11.61
336.179	-33.45
336.392	15.7
336.604	7.51
336.817	107.86
337.029	124.24
337.242	101.72
337.454	56.66
337.667	36.18
337.88	73.04
338.092	58.71
338.305	58.71
338.517	-6.83
338.729	32.08
338.942	13.65
339.154	15.7
339.367	-82.6
339.579	17.75
339.792	9.56
340.004	44.37
340.217	23.89
340.429	81.24
340.641	7.51
340.854	13.65
341.066	13.65
341.278	159.06
341.491	132.44
341.703	7.51
341.915	-10.92
342.128	118.1
342.34	114
342.552	-21.16
342.764	52.56
342.977	56.66
343.189	15.7
343.401	91.48
343.613	44.37
343.826	114
344.038	15.7
344.25	83.28
344.462	89.43
344.674	79.19
344.886	97.62
345.099	87.38
345.311	81.24
345.523	77.14
345.735	50.52
345.947	93.52
346.159	140.63
346.371	17.75
346.583	11.61
346.795	58.71
347.007	66.9
347.219	128.34
347.431	40.28
347.643	75.09
347.855	81.24
348.067	36.18
348.279	-25.26
348.491	99.67
348.703	81.24
348.915	32.08
349.127	48.47
349.339	50.52
349.551	1.37
349.763	-0.68
349.975	75.09
350.187	77.14
350.399	124.24
350.61	48.47
350.822	40.28
351.034	50.52
351.246	60.76
351.458	23.89
351.669	68.95
351.881	56.66
352.093	77.14
352.305	130.39
352.517	46.42
352.728	150.87
352.94	60.76
353.152	44.37
353.363	58.71
353.575	50.52
353.787	73.04
353.999	32.08
354.21	142.68
354.422	48.47
354.633	66.9
354.845	40.28
355.057	27.99
355.268	62.8
355.48	36.18
355.692	54.61
355.903	32.08
356.115	19.8
356.326	66.9
356.538	87.38
356.749	44.37
356.961	105.81
357.172	13.65
357.384	32.08
357.595	103.76
357.807	89.43
358.018	11.61
358.23	23.89
358.441	130.39
358.653	73.04
358.864	77.14
359.075	9.56
359.287	52.56
359.498	15.7
359.709	73.04
359.921	97.62
360.132	44.37
360.344	15.7
360.555	64.85
360.766	9.56
360.977	9.56
361.189	48.47
361.4	159.06
361.611	89.43
361.823	50.52
362.034	77.14
362.245	7.51
362.456	9.56
362.667	17.75
362.879	-31.4
363.09	73.04
363.301	46.42
363.512	32.08
363.723	62.8
363.935	-17.07
364.146	87.38
364.357	50.52
364.568	91.48
364.779	17.75
364.99	146.77
365.201	56.66
365.412	95.57
365.623	7.51
365.834	81.24
366.045	60.76
366.256	-8.87
366.467	64.85
366.678	83.28
366.889	85.33
367.1	89.43
367.311	73.04
367.522	-25.26
367.733	91.48
367.944	32.08
368.155	32.08
368.366	73.04
368.577	130.39
368.788	134.48
368.999	42.32
369.209	73.04
369.42	130.39
369.631	118.1
369.842	89.43
370.053	58.71
370.264	93.52
370.474	56.66
370.685	58.71
370.896	48.47
371.107	89.43
371.317	89.43
371.528	-31.4
371.739	27.99
371.95	15.7
372.16	75.09
372.371	54.61
372.582	52.56
372.792	101.72
373.003	109.91
373.214	52.56
373.424	60.76
373.635	83.28
373.846	95.57
374.056	40.28
374.267	32.08
374.477	15.7
374.688	40.28
374.898	62.8
375.109	89.43
375.319	105.81
375.53	122.2
375.74	118.1
375.951	11.61
376.161	23.89
376.372	107.86
376.582	-49.83
376.793	91.48
377.003	-25.26
377.214	1.37
377.424	23.89
377.635	101.72
377.845	44.37
378.055	134.48
378.266	48.47
378.476	60.76
378.686	130.39
378.897	118.1
379.107	130.39
379.317	-0.68
379.528	9.56
379.738	83.28
379.948	19.8
380.158	56.66
380.369	95.57
380.579	64.85
380.789	75.09
380.999	93.52
381.21	15.7
381.42	118.1
381.63	7.51
381.84	97.62
382.05	54.61
382.261	93.52
382.471	85.33
382.681	66.9
382.891	50.52
383.101	101.72
383.311	114
383.521	81.24
383.731	93.52
383.941	73.04
384.151	40.28
384.361	-23.21
384.571	48.47
384.781	68.95
384.991	68.95
385.201	105.81
385.411	122.2
385.621	159.06
385.831	-2.73
386.041	81.24
386.251	56.66
386.461	105.81
386.671	142.68
386.881	32.08
387.091	93.52
387.301	48.47
387.511	136.53
387.72	79.19
387.93	105.81
388.14	9.56
388.35	7.51
388.56	46.42
388.769	167.25
388.979	17.75
389.189	-17.07
389.399	81.24
389.609	116.05
389.818	25.94
390.028	40.28
390.238	77.14
390.447	42.32
390.657	93.52
390.867	15.7
391.076	-0.68
391.286	48.47
391.496	58.71
391.705	85.33
391.915	179.54
392.125	56.66
392.334	34.13
392.544	159.06
392.753	195.92
392.963	7.51
393.172	81.24
393.382	40.28
393.591	109.91
393.801	91.48
394.01	150.87
394.22	130.39
394.429	77.14
394.639	50.52
394.848	83.28
395.058	56.66
395.267	64.85
395.477	146.77
395.686	64.85
395.895	157.01
396.105	152.92
396.314	167.25
396.524	134.48
396.733	132.44
396.942	146.77
397.152	122.2
397.361	171.35
397.57	81.24
397.78	101.72
397.989	197.97
398.198	210.26
398.407	132.44
398.617	105.81
398.826	109.91
399.035	150.87
399.244	107.86
399.453	138.58
399.663	163.15
399.872	120.15
400.081	81.24
400.29	240.98
400.499	173.39
400.708	193.87
400.917	122.2
401.127	99.67
401.336	183.63
401.545	263.51
401.754	159.06
401.963	163.15
402.172	169.3
402.381	89.43
402.59	134.48
402.799	197.97
403.008	224.59
403.217	152.92
403.426	159.06
403.635	183.63
403.844	148.82
404.053	179.54
404.262	114
404.471	232.79
404.68	163.15
404.888	179.54
405.097	165.2
405.306	206.16
405.515	232.79
405.724	224.59
405.933	292.18
406.142	240.98
406.35	275.79
406.559	222.55
406.768	288.08
406.977	267.6
407.185	220.5
407.394	230.74
407.603	243.03
407.812	326.99
408.02	255.31
408.229	318.8
408.438	318.8
408.646	179.54
408.855	253.27
409.064	363.86
409.272	322.9
409.481	482.64
409.69	429.39
409.898	400.72
410.107	437.58
410.315	441.68
410.524	478.54
410.733	445.77
410.941	396.62
411.15	482.64
411.358	468.3
411.567	525.65
411.775	494.93
411.984	558.41
412.192	501.07
412.401	615.76
412.609	607.56
412.818	734.54
413.026	572.75
413.234	646.48
413.443	603.47
413.651	644.43
413.86	824.65
414.068	785.74
414.276	814.41
414.485	779.59
414.693	900.42
414.901	976.2
415.11	957.77
415.318	931.14
415.526	980.29
415.734	974.15
415.943	937.29
416.151	1123.65
416.359	1178.95
416.567	1248.58
416.776	1181
416.984	1342.78
417.192	1318.21
417.4	1344.83
417.608	1359.17
417.817	1402.18
418.025	1561.92
418.233	1582.4
418.441	1498.43
418.649	1566.01
418.857	1772.86
419.065	1740.09
419.273	1735.99
419.481	1770.81
419.689	1959.22
419.897	2026.81
420.105	2100.53
420.313	2043.19
420.521	2112.82
420.729	2319.67
420.937	2309.43
421.145	2465.07
421.353	2559.28
421.561	2598.19
421.769	2694.44
421.977	2805.03
422.185	2676.01
422.393	2915.62
422.601	3271.97
422.809	3061.03
423.017	3058.98
423.224	3312.93
423.432	3335.46
423.64	3353.89
423.848	3704.09
424.056	3628.32
424.263	3929.37
424.471	3794.2
424.679	3915.03
424.887	4316.44
425.094	4177.17
425.302	4291.86
425.51	4547.86
425.718	4642.06
425.925	4633.87
426.133	4791.56
426.341	5016.84
426.548	5192.97
426.756	5334.28
426.964	5471.49
427.171	5760.25
427.379	5842.17
427.586	5788.92
427.794	6042.87
428.001	6352.12
428.209	6579.44
428.417	6470.9
428.624	6958.32
428.832	6892.78
429.039	6872.3
429.247	7054.57
429.454	7693.54
429.662	8135.9
429.869	7650.53
430.076	8076.51
430.284	7920.86
430.491	8207.58
430.699	8778.96
430.906	8766.67
431.114	8772.82
431.321	9215.18
431.528	9426.12
431.736	9891.01
431.943	10374.33
432.15	9974.97
432.358	10108.09
432.565	10593.46
432.772	10796.21
432.979	11168.94
433.187	11244.71
433.394	11441.32
433.601	12369.05
433.808	12295.32
434.016	12096.67
434.223	12623
434.43	13360.27
434.637	13235.34
434.844	13900.93
435.052	14255.23
435.259	14197.88
435.466	14146.69
435.673	14105.73
435.88	14818.42
436.087	15830.12
436.294	15776.87
436.501	15529.06
436.708	15754.34
436.915	16163.93
437.122	16819.28
437.329	17081.42
437.537	17302.61
437.743	17581.13
437.95	17458.25
438.157	18465.85
438.364	18983.99
438.571	18947.12
438.778	19366.96
438.985	20970.52
439.192	19964.96
439.399	20855.83
439.606	20212.77
439.813	21556.24
440.02	22649.85
440.227	22221.83
440.433	22111.24
440.64	22561.79
440.847	22823.93
441.054	23387.12
441.261	24587.23
441.467	24273.89
441.674	24849.37
441.881	25580.49
442.088	25795.53
442.294	25517.01
442.501	26102.73
442.708	26637.25
442.914	27507.63
443.121	28660.64
443.328	27993
443.534	29795.21
443.741	29100.95
443.948	28822.43
444.154	31118.2
444.361	30849.92
444.568	30481.28
444.774	30843.77
444.981	31318.9
445.187	31998.83
445.394	33358.68
445.6	33151.84
445.807	36221.74
446.013	34632.52
446.22	35320.63
446.426	36440.87
446.633	36756.26
446.839	37813.01
447.046	36373.29
447.252	38744.84
447.459	38298.38
447.665	38413.07
447.871	39992.05
448.078	41734.87
448.284	39527.16
448.491	40645.35
448.697	42705.61
448.903	43307.71
449.11	42910.41
449.316	42515.15
449.522	43082.44
449.728	44114.61
449.935	44784.3
450.141	44874.41
450.347	45501.09
450.553	44481.2
450.76	44690.09
450.966	45941.4
451.172	45879.96
451.378	46781.07
451.584	45957.78
451.791	47248
451.997	47094.41
452.203	47352.45
452.409	47846.01
452.615	47411.84
452.821	45771.42
453.027	45378.21
453.233	47606.4
453.44	45628.06
453.646	46006.94
453.852	46199.44
454.058	47141.51
454.264	44907.18
454.47	46752.4
454.676	45658.78
454.882	47342.21
455.088	42808.01
455.294	43518.65
455.5	44051.13
455.705	44888.74
455.911	42922.69
456.117	42248.91
456.323	41521.88
456.529	39545.59
456.735	40725.22
456.941	40110.83
457.147	39295.74
457.352	38275.85
457.558	37886.74
457.764	38198.03
457.97	37270.3
458.176	36614.95
458.381	36315.95
458.587	34583.37
458.793	34448.2
458.999	32605.03
459.204	35322.68
459.41	34290.51
459.616	31923.05
459.821	31970.16
460.027	32095.08
460.233	31159.16
460.438	29512.59
460.644	30057.35
460.85	28539.81
461.055	27945.9
461.261	27931.56
461.466	25883.59
461.672	25422.8
461.878	26899.39
462.083	24968.15
462.289	24595.42
462.494	24445.92
462.7	23172.08
462.905	22885.37
463.111	23426.03
463.316	23397.36
463.522	23118.84
463.727	23305.2
463.932	22920.18
464.138	22592.51
464.343	22856.7
464.549	22289.41
464.754	23145.46
464.959	22496.25
465.165	22406.14
465.37	21527.56
465.575	21011.48
465.781	21859.34
465.986	21834.76
466.191	21111.83
466.397	20648.99
466.602	19850.28
466.807	20290.59
467.012	20417.57
467.218	20327.46
467.423	19958.82
467.628	20241.44
467.833	21019.67
468.038	20112.42
468.244	19448.88
468.449	20292.64
468.654	19401.77
468.859	19614.76
469.064	19373.1
469.269	18709.56
469.474	18781.24
469.679	19131.44
469.885	18476.09
470.09	18916.4
470.295	18656.31
470.5	18015.3
470.705	18402.36
470.91	18033.73
471.115	17843.27
471.32	18054.21
471.525	17957.96
471.73	17316.94
471.935	17564.75
472.139	16864.34
472.344	16766.04
472.549	16720.98
472.754	16735.32
472.959	16497.75
473.164	15957.09
473.369	15842.4
473.574	16473.18
473.778	16319.58
473.983	16036.96
474.188	16206.94
474.393	15228.01
474.598	15416.43
474.802	15154.29
475.007	15139.95
475.212	15254.64
475.417	14529.66
475.621	14478.46
475.826	14967.92
476.031	14279.8
476.235	14089.34
476.44	14167.17
476.645	14001.28
476.849	14095.49
477.054	13937.79
477.259	13433.99
477.463	13448.33
477.668	13051.02
477.872	13294.73
478.077	13249.68
478.282	12948.62
478.486	12979.34
478.691	12723.35
478.895	12801.17
479.1	12696.72
479.304	12661.91
479.509	12229.79
479.713	12586.13
479.918	12354.71
480.122	12045.47
480.326	12287.13
480.531	12315.8
480.735	12084.38
480.94	11979.93
481.144	12223.64
481.348	11672.74
481.553	11990.17
481.757	11500.71
481.961	11820.19
482.166	11984.03
482.37	11644.07
482.574	11463.85
482.778	11635.88
482.983	11863.2
483.187	11891.87
483.391	11803.81
483.595	11496.61
483.8	11637.92
484.004	11721.89
484.208	11785.38
484.412	11771.04
484.616	11826.34
484.821	11834.53
485.025	11392.17
485.229	11781.28
485.433	11658.4
485.637	11633.83
485.841	11721.89
486.045	11586.72
486.249	11443.37
486.453	11494.57
486.657	11576.48
486.861	11490.47
487.065	11123.88
487.269	11652.26
487.473	11377.83
487.677	11607.2
487.881	11732.13
488.085	11570.34
488.289	11736.23
488.493	11402.41
488.697	11545.77
488.901	11455.65
489.105	11553.96
489.309	11605.16
489.512	11392.17
489.716	11631.78
489.92	11781.28
490.124	11625.64
490.328	11918.5
490.531	11609.25
490.735	11711.65
490.939	11893.92
491.143	11750.56
491.346	11764.9
491.55	12024.99
491.754	12037.28
491.958	12170.4
492.161	11893.92
492.365	11883.68
492.569	12111
492.772	12002.46
492.976	12106.91
493.18	12371.1
493.383	12299.42
493.587	12192.92
493.79	12641.43
493.994	12082.33
494.197	12543.13
494.401	12567.7
494.605	12633.24
494.808	12782.74
495.012	12672.15
495.215	12778.64
495.419	13008.01
495.622	12979.34
495.825	13163.66
496.029	13182.09
496.232	13589.64
496.436	13253.77
496.639	13665.41
496.843	13608.07
497.046	13933.7
497.249	13712.52
497.453	13859.97
497.656	14064.77
497.859	14232.7
498.063	14144.64
498.266	14529.66
498.469	14355.58
498.673	14752.88
498.876	14976.11
499.079	15072.37
499.282	15090.8
499.485	15500.39
499.689	15463.53
499.892	15467.63
500.095	15574.12
500.298	16006.24
500.501	15901.79
500.705	16397.4
500.908	16415.83
501.111	16581.72
501.314	16712.79
501.517	16925.78
501.72	17124.43
501.923	17083.47
502.126	17579.08
502.329	17648.71
502.532	17826.89
502.735	17943.62
502.938	18062.4
503.141	18254.91
503.344	18371.65
503.547	18463.8
503.75	18836.53
503.953	19235.89
504.156	19133.49
504.359	19360.81
504.562	19469.36
504.765	19788.84
504.968	19983.4
505.17	20167.71
505.373	20274.21
505.576	20767.77
505.779	20999.19
505.982	21113.88
506.185	21388.3
506.387	21365.78
506.59	21853.19
506.793	22057.99
506.996	21943.3
507.198	22449.15
507.401	22295.55
507.604	22463.49
507.807	23104.5
508.009	23118.84
508.212	23274.48
508.415	23675.88
508.617	23970.79
508.82	23845.87
509.022	23913.45
509.225	24454.11
509.428	24396.77
509.63	24888.28
509.833	24957.91
510.035	25535.44
510.238	25314.26
510.44	25437.14
510.643	26313.67
510.845	25949.13
511.048	26282.95
511.25	26479.55
511.453	26923.96
511.655	27923.37
511.858	27249.59
512.06	27497.39
512.262	28126.12
512.465	28199.85
512.667	28156.84
512.87	28808.09
513.072	28965.79
513.274	29389.72
513.477	29520.79
513.679	29848.46
513.881	30032.78
514.084	30188.42
514.286	30307.21
514.488	30462.85
514.69	31449.97
514.893	31179.64
515.095	31269.75
515.297	31669.11
515.499	31763.31
515.701	32310.12
515.904	32496.49
516.106	32889.7
516.308	32994.14
516.51	33405.78
516.712	33436.5
516.914	33989.45
517.116	34091.85
517.318	34409.29
517.52	34376.52
517.722	34556.74
517.925	35111.74
518.127	35328.83
518.329	35722.04
518.531	35302.2
518.733	36033.33
518.935	36690.73
519.136	36184.88
519.338	36825.89
519.54	36918.05
519.742	37172
519.944	37165.85
520.146	37597.98
520.348	38247.18
520.55	38114.06
520.752	38189.84
520.954	39187.2
521.155	38726.41
521.357	38988.55
521.559	39312.13
521.761	39590.65
521.963	39748.34
522.164	39627.51
522.366	39697.14
522.568	40069.87
522.77	40332.01
522.971	40782.57
523.173	40522.47
523.375	40954.6
523.576	40874.73
523.778	40637.16
523.98	41208.54
524.181	41224.93
524.383	41835.22
524.584	41792.22
524.786	41798.36
524.988	41888.47
525.189	42271.44
525.391	42472.14
525.592	42738.38
525.794	42535.63
525.995	42466
526.197	42769.1
526.398	42838.73
526.6	43188.93
526.801	42867.4
527.003	43004.61
527.204	43172.55
527.406	43252.42
527.607	43078.34
527.808	43461.31
528.01	42799.82
528.211	43203.27
528.412	43807.42
528.614	43479.74
528.815	43365.06
529.016	44266.16
529.218	42902.21
529.419	43358.91
529.62	43078.34
529.822	43514.56
530.023	43143.88
530.224	43489.98
530.425	43342.53
530.626	43121.35
530.828	42851.02
531.029	43684.54
531.23	43027.14
531.431	43631.29
531.632	43336.38
531.833	43649.72
532.035	43135.68
532.236	43213.51
532.437	43625.15
532.638	43457.21
532.839	43172.55
533.04	43315.9
533.241	42754.76
533.442	43764.41
533.643	43043.52
533.844	43068.1
534.045	43276.99
534.246	42494.67
534.447	43217.6
534.648	43033.28
534.849	43430.59
535.05	42887.88
535.251	43006.66
535.451	42715.85
535.652	43092.68
535.853	42824.39
536.054	42592.97
536.255	42724.04
536.456	42461.9
536.657	42910.41
536.857	42531.53
537.058	42398.41
537.259	42889.93
537.46	42412.75
537.66	42640.07
537.861	42586.83
538.062	42316.5
538.263	42496.72
538.463	42353.36
538.664	42072.79
538.865	42136.27
539.065	42738.38
539.266	41786.07
539.466	42404.56
539.667	42177.23
539.868	42355.41
540.068	41939.67
540.269	41804.5
540.469	42343.12
540.67	42205.91
540.87	42062.55
541.071	41636.57
541.271	42044.12
541.472	41757.4
541.672	41655
541.873	41556.7
542.073	41118.43
542.274	41943.77
542.474	41493.21
542.675	41599.71
542.875	41990.87
543.075	41568.99
543.276	41405.15
543.476	41839.32
543.676	41478.88
543.877	41632.47
544.077	41603.8
544.277	41296.61
544.478	41622.23
544.678	41497.31
544.878	41601.75
545.078	41814.74
545.279	41071.33
545.479	41134.82
545.679	41566.94
545.879	41218.78
546.079	41679.58
546.28	41300.7
546.48	40706.79
546.68	41611.99
546.88	41378.53
547.08	41435.87
547.28	41630.43
547.48	40798.95
547.68	41487.07
547.88	41110.24
548.081	41485.02
548.281	41628.38
548.481	41349.85
548.681	41710.3
548.881	41290.46
549.081	41386.72
549.28	41237.22
549.48	41446.11
549.68	40895.21
549.88	41898.71
550.08	41269.98
550.28	41337.57
550.48	40874.73
550.68	41564.89
550.88	41097.95
551.08	41188.06
551.279	41368.29
551.479	40725.22
551.679	41327.33
551.879	41032.42
552.079	41315.04
552.278	41128.67
552.478	41102.05
552.678	41179.87
552.878	41659.1
553.077	41517.79
553.277	41181.92
553.477	41849.56
553.676	41741.02
553.876	41675.48
554.076	41136.87
554.275	41683.67
554.475	40905.45
554.674	41276.13
554.874	41444.06
555.074	41145.06
555.273	41495.26
555.473	41521.88
555.672	41310.94
555.872	41593.56
556.071	41691.87
556.271	41669.34
556.47	41691.87
556.67	41220.83
556.869	41595.61
557.068	41501.4
557.268	41122.53
557.467	41626.33
557.667	41493.21
557.866	41423.58
558.065	41272.03
558.265	41104.1
558.464	40993.51
558.663	41956.05
558.863	40694.5
559.062	41855.7
559.261	41360.09
559.461	41992.92
559.66	41251.55
559.859	41642.71
560.058	40946.4
560.258	41571.03
560.457	41241.31
560.656	41644.76
560.855	41251.55
561.054	41579.23
561.253	41380.57
561.453	41558.75
561.652	41667.29
561.851	41478.88
562.05	41439.96
562.249	40956.64
562.448	41630.43
562.647	41360.09
562.846	41306.85
563.045	41265.89
563.244	40692.46
563.443	41564.89
563.642	40583.91
563.841	41231.07
564.04	40874.73
564.239	41374.43
564.438	40782.57
564.637	41249.5
564.836	41276.13
565.035	40747.75
565.234	40733.42
565.432	40755.94
565.631	40772.33
565.83	41130.72
566.029	40764.14
566.228	40538.86
566.427	40678.12
566.625	40430.32
566.824	39686.9
567.023	40561.39
567.222	39856.89
567.42	40618.73
567.619	40305.39
567.818	39973.62
568.016	39926.52
568.215	40399.6
568.414	40037.11
568.612	40180.46
568.811	39777.01
569.01	40547.05
569.208	39461.63
569.407	39947
569.605	39289.6
569.804	40291.05
570.002	39791.35
570.201	39035.65
570.4	39193.34
570.598	39154.43
570.797	39082.75
570.995	39326.46
571.193	38998.79
571.392	39095.04
571.59	38624.01
571.789	38812.42
571.987	38427.4
572.186	38587.14
572.384	38601.48
572.582	38892.29
572.781	38525.71
572.979	37874.45
573.177	38380.3
573.376	38589.19
573.574	37974.8
573.772	38208.27
573.971	37765.91
574.169	37876.5
574.367	37458.71
574.565	37786.39
574.763	37997.33
574.962	37493.53
575.16	37069.6
575.358	37471
575.556	36971.3
575.754	37509.91
575.952	36686.63
576.151	37274.4
576.349	36340.52
576.547	36520.74
576.745	36772.64
576.943	36453.16
577.141	36264.75
577.339	36479.78
577.537	36535.08
577.735	36336.43
577.933	35894.07
578.131	35873.59
578.329	35623.73
578.527	35668.79
578.725	35633.97
578.923	35855.15
579.121	35719.99
579.319	35601.21
579.516	35781.43
579.714	35533.62
579.912	35283.77
580.11	35119.93
580.308	35521.34
580.506	34984.77
580.704	34636.61
580.901	35083.07
581.099	35242.81
581.297	34630.47
581.495	34530.12
581.692	34616.13
581.89	34364.23
582.088	34390.86
582.285	34192.2
582.483	34186.06
582.681	34120.52
582.878	34214.73
583.076	33868.62
583.274	33893.2
583.471	33551.19
583.669	34009.93
583.866	33549.14
584.064	33780.56
584.262	33268.57
584.459	33571.67
584.657	33090.4
584.854	33782.61
585.052	32666.47
585.249	33459.03
585.447	33137.5
585.644	32871.26
585.841	33196.89
586.039	33020.77
586.236	32424.81
586.434	32516.97
586.631	32510.82
586.828	32320.36
587.026	32402.28
587.223	32316.26
587.42	32228.2
587.618	32287.59
587.815	32160.62
588.012	32033.64
588.21	32050.03
588.407	31828.85
588.604	32113.52
588.801	31882.09
588.999	32031.6
589.196	31386.49
589.393	32011.12
589.59	31624.05
589.787	31503.22
589.984	31417.21
590.182	31501.17
590.379	31562.61
590.576	30960.51
590.773	31544.18
590.97	31138.68
591.167	31271.8
591.364	30757.76
591.561	30976.89
591.758	30806.91
591.955	30741.38
592.152	30929.79
592.349	30520.2
592.546	30456.71
592.743	30862.21
592.94	29965.2
593.137	30436.23
593.334	30344.07
593.531	30133.13
593.727	30280.58
593.924	30278.54
594.121	29633.43
594.318	30114.7
594.515	29977.48
594.712	30358.41
594.908	29637.52
595.105	30174.09
595.302	29406.1
595.499	29897.61
595.696	29815.69
595.892	29578.13
596.089	29744.02
596.286	29776.78
596.482	29590.42
596.679	29735.82
596.876	29662.1
597.072	29596.56
597.269	29340.57
597.466	29361.05
597.662	29453.2
597.859	29500.31
598.055	29500.31
598.252	28945.31
598.448	29361.05
598.645	29166.49
598.841	28949.4
599.038	29307.8
599.234	29293.46
599.431	28914.59
599.627	28804
599.824	29432.72
600.02	28818.33
600.217	29244.31
600.413	28998.55
600.609	28918.68
600.806	28750.75
601.002	29182.87
601.198	28687.26
601.395	28775.33
601.591	28933.02
601.787	29174.68
601.984	28838.81
602.18	29318.04
602.376	28933.02
602.572	28705.7
602.769	28509.09
602.965	28593.06
603.161	29225.88
603.357	28392.36
603.553	28406.69
603.75	28844.96
603.946	28679.07
604.142	28971.93
604.338	28648.35
604.534	28967.84
604.73	28646.3
604.926	28591.01
605.122	28928.92
605.318	28363.68
605.514	28830.62
605.71	28648.35
605.906	28713.89
606.102	28912.54
606.298	28746.65
606.494	28613.54
606.69	28767.13
606.886	28969.88
607.082	28662.69
607.278	28959.64
607.474	28306.34
607.67	28988.31
607.866	28701.6
608.062	29111.19
608.257	28605.34
608.453	28806.05
608.649	28965.79
608.845	28681.12
609.041	28777.37
609.236	29051.8
609.432	28830.62
609.628	28842.91
609.824	28965.79
610.019	29281.17
610.215	29027.23
610.411	29213.59
610.606	29072.28
610.802	28998.55
610.998	29062.04
611.193	29258.65
611.389	29209.5
611.584	28826.53
611.78	28720.03
611.976	28912.54
612.171	29244.31
612.367	29234.07
612.562	28912.54
612.758	28982.17
612.953	28814.24
613.149	29391.76
613.344	28822.43
613.539	29279.13
613.735	29115.29
613.93	29352.85
614.126	29193.11
614.321	29494.16
614.517	29524.88
614.712	29250.45
614.907	29172.63
615.103	29983.63
615.298	29340.57
615.493	29537.17
615.688	28699.55
615.884	29598.61
616.079	28941.21
616.274	29158.3
616.47	29248.41
616.665	29281.17
616.86	29201.3
617.055	29244.31
617.25	29408.15
617.445	29297.56
617.641	28715.94
617.836	29088.67
618.031	28705.7
618.226	28965.79
618.421	28859.29
618.616	29129.62
618.811	28818.33
619.006	29408.15
619.201	28754.85
619.396	28804
619.591	28263.33
619.786	28603.3
619.981	27906.99
620.176	28709.79
620.371	28337.06
620.566	28007.34
620.761	28136.36
620.956	28402.6
621.151	28031.91
621.346	28107.69
621.541	27548.59
621.735	27853.74
621.93	27233.21
622.125	27456.43
622.32	26856.38
622.515	27216.82
622.709	27157.43
622.904	26844.09
623.099	27163.57
623.294	27167.67
623.488	26545.09
623.683	26676.16
623.878	26258.37
624.072	26237.89
624.267	26342.34
624.462	25963.47
624.656	26055.62
624.851	26016.71
625.046	25576.4
625.24	25830.35
625.435	25754.57
625.629	25330.64
625.824	25334.74
626.018	25218
626.213	24587.23
626.407	24726.49
626.602	24550.37
626.796	25037.78
626.991	24808.41
627.185	24826.84
627.38	24288.23
627.574	24308.71
627.768	24232.93
627.963	24144.87
628.157	23784.43
628.352	23792.62
628.546	23346.16
628.74	23647.21
628.935	23434.22
629.129	23507.95
629.323	23223.28
629.517	22811.64
629.712	22969.33
629.906	23141.36
630.1	22449.15
630.294	22637.56
630.489	22701.05
630.683	22686.72
630.877	21976.07
631.071	21976.07
631.265	22438.91
631.459	21939.21
631.653	21687.31
631.848	21959.69
632.042	21613.58
632.236	21752.84
632.43	21521.42
632.624	21707.79
632.818	21255.19
633.012	21134.35
633.206	21234.71
633.4	21154.83
633.594	20653.08
633.788	21087.25
633.982	20691.99
634.176	20591.64
634.369	20507.68
634.563	20374.56
634.757	20397.09
634.951	20356.13
635.145	20380.7
635.339	20247.58
635.533	19870.76
635.726	19565.61
635.92	19751.98
636.114	19684.39
636.308	19350.57
636.501	19344.43
636.695	19078.19
636.889	19180.59
637.083	19211.31
637.276	18873.4
637.47	18891.83
637.664	18553.91
637.857	18521.15
638.051	18662.46
638.244	18490.43
638.438	18502.72
638.632	18265.15
638.825	18115.65
639.019	17927.24
639.212	18054.21
639.406	17628.23
639.599	17753.16
639.793	17810.5
639.986	17685.58
640.18	17525.83
640.373	17503.31
640.567	17140.82
640.76	17316.94
640.954	17153.1
641.147	16739.41
641.34	16989.27
641.534	17056.85
641.727	16761.94
641.92	16655.45
642.114	16415.83
642.307	16620.63
642.5	16587.86
642.694	16118.88
642.887	16059.49
643.08	16409.69
643.273	15848.55
643.467	16096.35
643.66	15660.13
643.853	15729.77
644.046	15309.93
644.239	15406.19
644.432	15404.14
644.626	15271.02
644.819	15215.73
645.012	15332.46
645.205	15135.85
645.398	14984.3
645.591	14826.61
645.784	14767.22
645.977	14464.12
646.17	14572.66
646.363	14347.39
646.556	14398.59
646.749	14531.7
646.942	14328.95
647.135	14318.71
647.328	14216.32
647.521	14343.29
647.714	13964.42
647.907	13843.59
648.099	13862.02
648.292	13819.01
648.485	13370.51
648.678	13626.5
648.871	13540.49
649.064	13481.1
649.256	13456.52
649.449	13433.99
649.642	13225.1
649.835	13018.25
650.027	13077.65
650.22	12858.51
650.413	12887.18
650.605	12895.38
650.798	12846.23
650.991	12655.76
651.183	12770.45
651.376	12534.93
651.568	12477.59
651.761	12528.79
651.954	12262.55
652.146	12256.41
652.339	12278.94
652.531	12176.54
652.724	12029.09
652.916	11881.63
653.109	12125.34
653.301	12098.72
653.494	11846.82
653.686	11611.3
653.879	11846.82
654.071	11734.18
654.263	11480.23
654.456	11474.09
654.648	11766.95
654.84	11412.65
655.033	11269.29
655.225	11381.93
655.417	11066.54
655.61	11093.16
655.802	11019.44
655.994	11011.25
656.186	10984.62
656.379	10812.59
656.571	10929.33
656.763	10632.37
656.955	10699.95
657.148	10820.78
657.34	10775.73
657.532	10443.96
657.724	10542.26
657.916	10284.22
658.108	10333.37
658.3	10335.42
658.492	10366.14
658.684	10104
658.876	10149.05
659.068	10267.83
659.26	9899.2
659.452	10173.63
659.644	9962.69
659.836	9778.37
660.028	9835.71
660.22	9729.22
660.412	9759.94
660.604	9690.31
660.796	9931.97
660.988	9503.94
661.18	9456.84
661.372	9456.84
661.563	9489.6
661.755	9258.18
661.947	9301.19
662.139	9276.62
662.331	9190.6
662.522	8961.23
662.714	8977.61
662.906	8998.09
663.097	8953.04
663.289	8793.3
663.481	8832.21
663.673	8692.94
663.864	8641.75
664.056	8846.54
664.247	8793.3
664.439	8510.68
664.631	8559.83
664.822	8641.75
665.014	8439
665.205	8453.33
665.397	8412.37
665.588	8350.93
665.78	8465.62
665.971	8283.35
666.163	8266.97
666.354	8252.63
666.546	8248.54
666.737	7951.58
666.929	7957.72
667.12	7904.48
667.311	7908.57
667.503	7875.81
667.694	7795.93
667.885	7668.96
668.077	7929.05
668.268	7675.1
668.459	7617.76
668.651	7687.39
668.842	7584.99
669.033	7660.77
669.224	7546.08
669.416	7671.01
669.607	7466.21
669.798	7511.27
669.989	7478.5
670.18	7382.24
670.371	7429.35
670.563	7281.89
670.754	7445.73
670.945	7345.38
671.136	7285.99
671.327	7247.08
671.518	7097.58
671.709	7331.05
671.9	7210.22
672.091	7195.88
672.282	7032.04
672.473	6946.03
672.664	6913.26
672.855	7052.52
673.046	7058.67
673.237	6862.06
673.428	6749.42
673.619	7058.67
673.809	6774
674	6923.5
674.191	6794.48
674.382	6759.66
674.573	6776.05
674.764	6626.54
674.954	6776.05
675.145	6657.26
675.336	6601.97
675.527	6745.33
675.717	6651.12
675.908	6481.14
676.099	6663.41
676.289	6642.93
676.48	6487.28
676.671	6466.8
676.861	6436.08
677.052	6323.44
677.243	6522.1
677.433	6325.49
677.624	6356.21
677.814	6497.52
678.005	6462.71
678.195	6487.28
678.386	6243.57
678.576	6268.15
678.767	6262.01
678.957	6384.88
679.148	6311.16
679.338	6241.53
679.529	6249.72
679.719	6239.48
679.909	6292.73
680.1	6118.65
680.29	6253.81
680.481	6124.79
680.671	6120.7
680.861	5991.67
681.052	5987.58
681.242	5930.23
681.432	6163.7
681.622	5979.39
681.813	6247.67
682.003	5958.91
682.193	6094.07
682.383	5934.33
682.573	6001.91
682.764	5997.82
682.954	5979.39
683.144	5942.52
683.334	5936.38
683.524	6044.92
683.714	5963
683.904	5971.19
684.094	5831.93
684.284	5879.04
684.474	6036.73
684.664	5754.11
684.854	5833.98
685.044	5874.94
685.234	5721.34
685.424	5852.41
685.614	5752.06
685.804	5729.53
685.994	5854.46
686.184	5688.57
686.374	5774.59
686.564	5561.6
686.753	5756.16
686.943	5698.81
687.133	5541.12
687.323	5735.68
687.513	5614.85
687.702	5651.71
687.892	5557.5
688.082	5598.46
688.272	5653.76
688.461	5577.98
688.651	5563.65
688.841	5389.57
689.03	5379.33
689.22	5496.07
689.41	5430.53
689.599	5530.88
689.789	5475.59
689.979	5373.19
690.168	5481.73
690.358	5299.46
690.547	5311.75
690.737	5424.39
690.926	5283.08
691.116	5303.56
691.305	5285.12
691.495	5266.69
691.684	5186.82
691.874	5231.88
692.063	5283.08
692.252	5111.05
692.442	5045.51
692.631	5070.09
692.82	5127.43
693.01	5252.36
693.199	5004.55
693.388	5029.13
693.578	5027.08
693.767	5086.47
693.956	4996.36
694.146	4939.02
694.335	5000.46
694.524	4963.59
694.713	4967.69
694.902	5022.98
695.092	4975.88
695.281	5065.99
695.47	4832.52
695.659	4996.36
695.848	4943.11
696.037	4924.68
696.226	4859.15
696.415	4861.2
696.604	4875.53
696.793	4771.08
696.982	4619.53
697.171	4810
697.36	4941.07
697.549	4670.73
697.738	4721.93
697.927	4719.89
698.116	4730.13
698.305	4734.22
698.494	4781.32
698.683	4691.21
698.872	4597.01
699.061	4490.51
699.25	4554
699.438	4723.98
699.627	4713.74
699.816	4709.65
700.005	4521.23
700.193	4498.7
700.382	4556.05
700.571	4652.3
700.76	4611.34
700.948	4652.3
701.137	4375.83
701.326	4508.94
701.514	4498.7
701.703	4562.19
701.892	4427.03
702.08	4578.58
702.269	4377.87
702.457	4392.21
702.646	4394.26
702.834	4310.29
703.023	4556.05
703.212	4320.53
703.4	4291.86
703.589	4218.13
703.777	4295.96
703.965	4201.75
704.154	4375.83
704.342	4287.76
704.531	4211.99
704.719	4246.8
704.907	4318.48
705.096	4095.25
705.284	4021.53
705.472	4076.82
705.661	4185.37
705.849	4193.56
706.037	4308.24
706.226	4117.78
706.414	4023.58
706.602	3972.38
706.79	4078.87
706.979	4011.29
707.167	4021.53
707.355	3999
707.543	4072.73
707.731	4056.34
707.919	4042.01
708.107	3994.9
708.296	3915.03
708.484	3857.69
708.672	3984.66
708.86	4005.14
709.048	3865.88
709.236	3955.99
709.424	3824.92
709.612	3849.5
709.8	3783.96
709.988	3697.95
710.176	3812.64
710.364	3788.06
710.551	3720.48
710.739	3759.39
710.927	3755.29
711.115	3765.53
711.303	3763.48
711.491	3654.94
711.679	3540.26
711.866	3663.13
712.054	3759.39
712.242	3734.81
712.43	3740.96
712.617	3702.04
712.805	3564.83
712.993	3562.78
713.181	3427.62
713.368	3605.79
713.556	3636.51
713.744	3583.26
713.931	3677.47
714.119	3599.65
714.306	3566.88
714.494	3452.19
714.682	3499.3
714.869	3489.06
715.057	3654.94
715.244	3415.33
715.432	3351.84
715.619	3341.6
715.807	3487.01
715.994	3351.84
716.182	3521.82
716.369	3300.64
716.556	3448.1
716.744	3398.95
716.931	3255.59
717.119	3366.18
717.306	3306.79
717.493	3292.45
717.681	3259.68
717.868	3237.16
718.055	3376.42
718.242	3226.92
718.43	3341.6
718.617	3226.92
718.804	3317.03
718.991	3339.55
719.179	3253.54
719.366	3239.2
719.553	3312.93
719.74	3192.1
719.927	3292.45
720.114	3163.43
720.301	3271.97
720.488	3091.75
720.676	3239.2
720.863	3171.62
721.05	3360.03
721.237	3204.39
721.424	3243.3
721.611	3056.93
721.798	3099.94
721.985	2999.59
722.172	3155.24
722.358	3054.89
722.545	2997.54
722.732	2964.78
722.919	3067.17
723.106	3063.08
723.293	2997.54
723.48	2983.21
723.667	3073.32
723.853	2882.86
724.04	2985.26
724.227	3020.07
724.414	2858.28
724.6	2952.49
724.787	2886.95
724.974	2983.21
725.161	3013.93
725.347	2860.33
725.534	2948.39
725.72	2946.34
725.907	2848.04
726.094	2778.41
726.28	2874.67
726.467	2835.75
726.653	2858.28
726.84	3020.07
727.027	2811.18
727.213	2821.42
727.4	2866.47
727.586	2907.43
727.773	2639.15
727.959	2817.32
728.145	2843.95
728.332	2686.25
728.518	2741.55
728.705	2786.6
728.891	2696.49
729.077	2755.88
729.264	2606.38
729.45	2696.49
729.636	2778.41
729.823	2714.92
730.009	2696.49
730.195	2686.25
730.382	2819.37
730.568	2522.41
730.754	2587.95
730.94	2641.2
731.126	2686.25
731.313	2639.15
731.499	2661.68
731.685	2645.29
731.871	2573.61
732.057	2620.72
732.243	2573.61
732.429	2661.68
732.615	2596.14
732.801	2600.24
732.987	2512.18
733.173	2653.48
733.359	2542.89
733.545	2510.13
733.731	2499.89
733.917	2565.42
734.103	2571.57
734.289	2538.8
734.475	2489.65
734.661	2563.37
734.847	2622.77
735.033	2477.36
735.219	2630.96
735.404	2465.07
735.59	2444.59
735.776	2549.04
735.962	2448.69
736.148	2446.64
736.333	2436.4
736.519	2499.89
736.705	2440.5
736.89	2475.31
737.076	2452.78
737.262	2383.15
737.447	2301.23
737.633	2309.43
737.819	2434.35
738.004	2295.09
738.19	2401.58
738.375	2295.09
738.561	2379.06
738.747	2301.23
738.932	2202.93
739.118	2334
739.303	2200.88
739.489	2295.09
739.674	2161.97
739.859	2215.22
740.045	2198.84
740.23	2243.89
740.416	2186.55
740.601	2360.63
740.786	2188.6
740.972	2188.6
741.157	2188.6
741.342	2145.59
741.528	2129.2
741.713	2196.79
741.898	2123.06
742.084	2118.97
742.269	2125.11
742.454	2164.02
742.639	2170.16
742.824	2065.72
743.01	2065.72
743.195	2114.87
743.38	2008.37
743.565	2129.2
743.75	2137.4
743.935	2055.48
744.12	2090.29
744.305	1975.61
744.49	1965.37
744.675	1967.42
744.86	2014.52
745.045	1998.13
745.23	1951.03
745.415	1991.99
745.6	2014.52
745.785	1983.8
745.97	1916.22
746.155	1875.26
746.34	1951.03
746.525	1785.15
746.71	1924.41
746.895	1813.82
747.079	1965.37
747.264	1834.3
747.449	1948.98
747.634	1918.26
747.819	1760.57
748.003	1957.18
748.188	1809.72
748.373	1717.56
748.557	1690.94
748.742	1735.99
748.927	1735.99
749.111	1770.81
749.296	1744.19
749.481	1723.71
749.665	1740.09
749.85	1701.18
750.034	1770.81
750.219	1715.52
750.404	1609.02
750.588	1611.07
750.773	1637.69
750.957	1662.27
751.141	1654.08
751.326	1609.02
751.51	1547.58
751.695	1582.4
751.879	1637.69
752.064	1609.02
752.248	1543.49
752.432	1527.1
752.617	1668.41
752.801	1469.76
752.985	1566.01
753.17	1586.49
753.354	1367.36
753.538	1490.24
753.722	1494.33
753.907	1459.52
754.091	1498.43
754.275	1408.32
754.459	1426.75
754.643	1424.7
754.828	1426.75
755.012	1424.7
755.196	1428.8
755.38	1318.21
755.564	1326.4
755.748	1340.74
755.932	1303.87
756.116	1381.7
756.3	1361.22
756.484	1326.4
756.668	1271.11
756.852	1273.15
757.036	1336.64
757.22	1213.76
757.404	1219.91
757.588	1221.95
757.772	1238.34
757.956	1287.49
758.14	1285.44
758.323	1207.62
758.507	1199.43
758.691	1232.19
758.875	1244.48
759.059	1260.87
759.242	1105.22
759.426	1176.9
759.61	1254.72
759.794	1135.94
759.977	1097.03
760.161	1289.54
760.345	1117.51
760.528	1146.18
760.712	1162.56
760.895	1156.42
761.079	1105.22
761.263	1056.07
761.446	1056.07
761.63	1129.8
761.813	1068.36
761.997	998.73
762.18	1131.84
762.364	1097.03
762.547	1088.84
762.731	1129.8
762.914	976.2
763.098	1064.26
763.281	1043.78
763.464	1064.26
763.648	931.14
763.831	1080.64
764.015	1011.01
764.198	1072.45
764.381	910.66
764.564	945.48
764.748	1049.93
764.931	982.34
765.114	974.15
765.297	1070.4
765.481	929.1
765.664	1011.01
765.847	941.38
766.03	957.77
766.213	916.81
766.397	1051.97
766.58	976.2
766.763	1025.35
766.946	965.96
767.129	998.73
767.312	900.42
767.495	1006.92
767.678	912.71
767.861	959.81
768.044	1047.88
768.227	910.66
768.41	965.96
768.593	965.96
768.776	900.42
768.959	935.24
769.142	951.62
769.324	896.33
769.507	884.04
769.69	859.46
769.873	941.38
770.056	937.29
770.239	929.1
770.421	916.81
770.604	900.42
770.787	920.9
770.97	982.34
771.152	789.83
771.335	941.38
771.518	875.85
771.7	949.57
771.883	863.56
772.066	836.94
772.248	857.42
772.431	834.89
772.613	851.27
772.796	869.7
772.978	744.78
773.161	892.23
773.343	843.08
773.526	812.36
773.708	695.63
773.891	777.55
774.073	824.65
774.256	779.59
774.438	802.12
774.621	695.63
774.803	806.22
774.985	769.35
775.168	802.12
775.35	806.22
775.532	701.77
775.715	763.21
775.897	810.31
776.079	666.96
776.261	679.24
776.444	726.35
776.626	716.11
776.808	798.03
776.99	656.72
777.173	697.67
777.355	693.58
777.537	724.3
777.719	714.06
777.901	654.67
778.083	699.72
778.265	650.57
778.447	695.63
778.629	640.33
778.811	687.43
778.993	699.72
779.175	683.34
779.357	642.38
779.539	556.36
779.721	621.9
779.903	638.28
780.085	613.71
780.267	662.86
780.449	654.67
780.631	642.38
780.812	587.08
780.994	589.13
781.176	560.46
781.358	585.04
781.54	550.22
781.721	654.67
781.903	601.42
782.085	492.88
782.267	601.42
782.448	509.26
782.63	564.56
782.812	539.98
782.993	531.79
783.175	539.98
783.357	507.21
783.538	474.45
783.72	372.05
783.901	558.41
784.083	533.84
784.264	499.02
784.446	486.73
784.627	425.29
784.809	523.6
784.99	478.54
785.172	466.25
785.353	449.87
785.535	503.12
785.716	499.02
785.897	425.29
786.079	419.15
786.26	509.26
786.441	480.59
786.623	441.68
786.804	499.02
786.985	404.82
787.167	433.49
787.348	425.29
787.529	347.47
787.71	470.35
787.891	460.11
788.073	408.91
788.254	302.42
788.435	425.29
788.616	449.87
788.797	345.42
788.978	443.73
789.159	339.28
789.34	445.77
789.522	404.82
789.703	462.16
789.884	458.06
790.065	413.01
790.246	441.68
790.427	370
790.607	470.35
790.788	410.96
790.969	320.85
791.15	363.86
791.331	296.27
791.512	363.86
791.693	361.81
791.874	367.95
792.054	445.77
792.235	374.1
792.416	326.99
792.597	351.57
792.778	363.86
792.958	417.1
793.139	302.42
793.32	277.84
793.5	359.76
793.681	376.14
793.862	372.05
794.042	290.13
794.223	281.94
794.404	298.32
794.584	238.93
794.765	298.32
794.945	326.99
795.126	380.24
795.306	376.14
795.487	398.67
795.667	245.07
795.848	378.19
796.028	326.99
796.209	286.03
796.389	320.85
796.57	253.27
796.75	302.42
796.93	324.94
797.111	273.75
797.291	290.13
797.471	353.62
797.652	261.46
797.832	324.94
798.012	288.08
798.192	197.97
798.373	298.32
798.553	292.18
798.733	290.13
798.913	195.92
799.093	281.94
799.274	281.94
799.454	283.99
799.634	269.65
799.814	378.19
799.994	288.08
800.174	335.18
800.354	191.83
800.534	281.94
800.714	259.41
800.894	281.94
801.074	232.79
801.254	281.94
801.434	279.89
801.614	343.38
801.794	171.35
801.974	941.38
802.154	228.69
802.334	261.46
802.514	195.92
802.693	310.61
802.873	220.5
803.053	292.18
803.233	202.07
803.413	249.17
803.592	224.59
803.772	243.03
803.952	265.55
804.131	320.85
804.311	179.54
804.491	286.03
804.67	191.83
804.85	134.48
805.03	214.35
805.209	212.31
805.389	191.83
805.568	179.54
805.748	107.86
805.928	154.96
806.107	220.5
806.287	294.22
806.466	171.35
806.646	240.98
806.825	202.07
807.004	177.49
807.184	236.88
807.363	255.31
807.543	197.97
807.722	81.24
807.901	232.79
808.081	224.59
808.26	97.62
808.439	114
808.619	138.58
808.798	124.24
808.977	187.73
809.156	200.02
809.336	146.77
809.515	245.07
809.694	226.64
809.873	118.1
810.052	218.45
810.231	175.44
810.411	167.25
810.59	167.25
810.769	173.39
810.948	171.35
811.127	126.29
811.306	134.48
811.485	161.11
811.664	167.25
811.843	181.59
812.022	163.15
812.201	138.58
812.38	165.2
812.559	101.72
812.737	204.11
812.916	124.24
813.095	150.87
813.274	163.15
813.453	97.62
813.632	181.59
813.811	144.72
813.989	64.85
814.168	73.04
814.347	130.39
814.526	109.91
814.704	163.15
814.883	181.59
815.062	124.24
815.24	189.78
815.419	91.48
815.598	249.17
815.776	54.61
815.955	91.48
816.133	118.1
816.312	238.93
816.49	52.56
816.669	134.48
816.847	132.44
817.026	81.24
817.204	179.54
817.383	230.74
817.561	126.29
817.74	163.15
817.918	154.96
818.097	130.39
818.275	99.67
818.453	187.73
818.632	138.58
818.81	161.11
818.988	154.96
819.167	83.28
819.345	122.2
819.523	81.24
819.701	81.24
819.879	95.57
820.058	91.48
820.236	130.39
820.414	60.76
820.592	85.33
820.77	87.38
820.948	118.1
821.127	64.85
821.305	68.95
821.483	89.43
821.661	109.91
821.839	109.91
822.017	81.24
822.195	97.62
822.373	187.73
822.551	71
822.729	230.74
822.907	99.67
823.085	146.77
823.262	97.62
823.44	101.72
823.618	105.81
823.796	77.14
823.974	19.8
824.152	56.66
824.329	152.92
824.507	97.62
824.685	124.24
824.863	50.52
825.04	181.59
825.218	93.52
825.396	-12.97
825.574	75.09
825.751	179.54
825.929	138.58
826.107	91.48
826.284	144.72
826.462	105.81
826.639	130.39
826.817	46.42
826.994	34.13
827.172	25.94
827.349	134.48
827.527	146.77
827.704	105.81
827.882	99.67
828.059	93.52
828.237	36.18
828.414	150.87
828.591	32.08
828.769	85.33
828.946	68.95
829.124	146.77
829.301	105.81
829.478	48.47
829.655	101.72
829.833	138.58
830.01	17.75
830.187	89.43
830.364	138.58
830.542	91.48
830.719	171.35
830.896	140.63
831.073	83.28
831.25	83.28
831.427	68.95
831.604	56.66
831.782	71
831.959	85.33
832.136	81.24
832.313	132.44
832.49	50.52
832.667	122.2
832.844	71
833.021	148.82
833.198	68.95
833.374	58.71
833.551	48.47
833.728	27.99
833.905	122.2
834.082	66.9
834.259	89.43
834.436	54.61
834.612	44.37
834.789	120.15
834.966	73.04
835.143	58.71
835.319	73.04
835.496	93.52
835.673	58.71
835.85	114
836.026	64.85
836.203	48.47
836.38	64.85
836.556	30.04
836.733	42.32
836.909	97.62
837.086	48.47
837.262	97.62
837.439	56.66
837.616	91.48
837.792	-12.97
837.968	75.09
838.145	25.94
838.321	23.89
838.498	60.76
838.674	77.14
838.851	56.66
839.027	77.14
839.203	25.94
839.38	64.85
839.556	7.51
839.732	81.24
839.909	27.99
840.085	73.04
840.261	73.04
840.437	95.57
840.614	73.04
840.79	77.14
840.966	97.62
841.142	118.1
841.318	85.33
841.494	40.28
841.671	114
841.847	58.71
842.023	36.18
842.199	64.85
842.375	50.52
842.551	-35.5
842.727	15.7
842.903	17.75
843.079	40.28
843.255	138.58
843.431	50.52
843.607	89.43
843.783	23.89
843.959	50.52
844.134	-8.87
844.31	32.08
844.486	15.7
844.662	40.28
844.838	85.33
845.013	99.67
845.189	32.08
845.365	40.28
845.541	114
845.716	-0.68
845.892	-33.45
846.068	32.08
846.244	-25.26
846.419	64.85
846.595	9.56
846.77	-23.21
846.946	64.85
847.122	-17.07
847.297	58.71
847.473	91.48
847.648	56.66
847.824	27.99
847.999	-2.73
848.175	56.66
848.35	11.61
848.526	48.47
848.701	17.75
848.876	89.43
849.052	50.52
849.227	52.56
849.403	68.95
849.578	42.32
849.753	48.47
849.929	48.47
850.104	-23.21
850.279	107.86
850.454	-21.16
850.63	25.94
850.805	9.56
850.98	-0.68
851.155	107.86
851.33	64.85
851.505	-72.36
851.681	85.33
851.856	-39.59
852.031	-0.68
852.206	126.29
852.381	-12.97
852.556	-10.92
852.731	-21.16
852.906	62.8
853.081	-2.73
853.256	66.9
853.431	17.75
853.606	75.09
853.781	7.51
853.956	7.51
854.131	25.94
854.305	-2.73
854.48	36.18
854.655	-25.26
854.83	-6.83
855.005	32.08
855.18	50.52
855.354	93.52
855.529	85.33
855.704	-33.45
855.879	36.18
856.053	-39.59
856.228	-2.73
856.403	-2.73
856.577	85.33
856.752	-43.69
856.926	40.28
857.101	-64.17
857.276	52.56
857.45	-12.97
857.625	64.85
857.799	-17.07
857.974	5.46
858.148	-62.12
858.323	-21.16
858.497	15.7
858.672	32.08
858.846	-39.59
859.02	105.81
859.195	77.14
859.369	-55.98
859.543	-12.97
859.718	-37.55
859.892	58.71
860.066	7.51
860.241	-12.97
860.415	34.13
860.589	7.51
860.763	-12.97
860.938	-72.36
861.112	68.95
861.286	-33.45
861.46	27.99
861.634	56.66
861.808	105.81
861.982	-21.16
862.157	-17.07
862.331	-21.16
862.505	27.99
862.679	-49.83
862.853	30.04
863.027	19.8
863.201	134.48
863.375	7.51
863.549	11.61
863.722	11.61
863.896	68.95
864.07	17.75
864.244	40.28
864.418	81.24
864.592	89.43
864.766	3.41
864.939	17.75
865.113	19.8
865.287	-6.83
865.461	3.41
865.634	-39.59
865.808	17.75
865.982	36.18
866.156	44.37
866.329	-66.22
866.503	30.04
866.676	124.24
866.85	25.94
867.024	54.61
867.197	64.85
867.371	95.57
867.544	17.75
867.718	40.28
867.891	27.99
868.065	64.85
868.238	15.7
868.412	136.53
868.585	9.56
868.759	25.94
868.932	-6.83
869.105	-0.68
869.279	27.99
869.452	-6.83
869.625	7.51
869.799	36.18
869.972	-2.73
870.145	32.08
870.319	21.85
870.492	-6.83
870.665	25.94
870.838	-66.22
871.011	-6.83
871.185	27.99
871.358	-15.02
871.531	-49.83
871.704	40.28
871.877	3.41
872.05	48.47
872.223	27.99
872.396	93.52
872.569	83.28
872.742	-41.64
872.915	32.08
873.088	34.13
873.261	7.51
873.434	32.08
873.607	-25.26
873.78	-4.78
873.953	15.7
874.126	44.37
874.299	-8.87
874.471	-51.88
874.644	-0.68
874.817	15.7
874.99	42.32
875.163	19.8
875.335	15.7
875.508	17.75
875.681	64.85
875.853	23.89
876.026	7.51
876.199	7.51
876.371	-0.68
876.544	-82.6
876.717	85.33
876.889	34.13
877.062	50.52
877.234	-33.45
877.407	7.51
877.579	46.42
877.752	32.08
877.924	64.85
878.097	38.23
878.269	-15.02
878.442	48.47
878.614	-10.92
878.786	68.95
878.959	-4.78
879.131	36.18
879.303	-41.64
879.476	-17.07
879.648	-0.68
879.82	-25.26
879.993	-35.5
880.165	21.85
880.337	-27.31
880.509	-10.92
880.681	-158.38
880.854	-23.21
881.026	23.89
881.198	38.23
881.37	-4.78
881.542	-49.83
881.714	-47.79
881.886	-4.78
882.058	58.71
882.23	-0.68
882.402	-45.74
882.574	-0.68
882.746	19.8
882.918	48.47
883.09	36.18
883.262	48.47
883.434	23.89
883.606	32.08
883.778	11.61
883.95	44.37
884.122	56.66
884.293	68.95
884.465	-49.83
884.637	7.51
884.809	-47.79
884.98	40.28
885.152	52.56
885.324	19.8
885.496	17.75
885.667	-66.22
885.839	-37.55
886.011	56.66
886.182	64.85
886.354	-31.4
886.525	103.76
886.697	-27.31
886.869	-8.87
887.04	-8.87
887.212	73.04
887.383	27.99
887.555	-4.78
887.726	-15.02
887.897	-62.12
888.069	-64.17
888.24	1.37
888.412	15.7
888.583	-78.51
888.754	-39.59
888.926	-58.03
889.097	-74.41
889.268	9.56
889.44	-39.59
889.611	-72.36
889.782	7.51
889.953	3.41
890.125	-0.68
890.296	-21.16
890.467	44.37
890.638	-0.68
890.809	-6.83
890.98	-12.97
891.151	42.32
891.323	17.75
891.494	7.51
891.665	50.52
891.836	-21.16
892.007	-2.73
892.178	-90.79
892.349	23.89
892.52	-88.75
892.691	-21.16
892.862	40.28
893.032	-49.83
893.203	13.65
893.374	7.51
893.545	32.08
893.716	1.37
893.887	52.56
894.057	25.94
894.228	56.66
894.399	-21.16
894.57	7.51
894.74	68.95
894.911	-12.97
895.082	-35.5
895.253	-29.35
895.423	13.65
895.594	15.7
895.764	-92.84
895.935	-29.35
896.106	1.37
896.276	-49.83
896.447	40.28
896.617	-72.36
896.788	-4.78
896.958	-27.31
897.129	-17.07
897.299	9.56
897.47	40.28
897.64	-74.41
897.81	-8.87
897.981	-17.07
898.151	36.18
898.322	-66.22
898.492	17.75
898.662	-74.41
898.832	-49.83
899.003	-17.07
899.173	56.66
899.343	-27.31
899.513	-37.55
