Data from USB4F104151__79__14-30-30-648.txt Node

Date: Thu Mar 13 14:30:30 EDT 2025
User: louis
Spectrometer: USB4F10415
Trigger mode: 4
Integration Time (sec): 2.500000E-2
Scans to average: 1
Electric dark correction enabled: true
Nonlinearity correction enabled: false
Boxcar width: 0
XAxis mode: Wavelengths
Number of Pixels in Spectrum: 3648
>>>>>Begin Spectral Data<<<<<
178.204	-215.89
178.424	-215.89
178.644	-215.89
178.864	-156.5
179.084	-119.64
179.304	-9.05
179.524	44.2
179.744	46.25
179.964	-9.05
180.184	-2.9
180.404	5.29
180.624	-25.43
180.844	-33.62
181.064	-72.53
181.283	-15.19
181.503	-31.57
181.723	103.59
181.943	46.25
182.163	3.24
182.383	46.25
182.602	15.53
182.822	64.68
183.042	97.45
183.262	-0.85
183.482	31.91
183.701	31.91
183.921	46.25
184.141	-31.57
184.361	72.87
184.58	33.96
184.8	56.49
185.02	-9.05
185.239	7.34
185.459	-15.19
185.679	91.31
185.898	21.67
186.118	56.49
186.338	62.63
186.557	54.44
186.777	-7
186.997	48.3
187.216	79.02
187.436	70.83
187.655	83.11
187.875	42.15
188.095	-19.29
188.314	122.02
188.534	66.73
188.753	83.11
188.973	25.77
189.192	79.02
189.412	52.39
189.631	-35.67
189.851	66.73
190.07	29.87
190.29	-7
190.509	15.53
190.729	62.63
190.948	128.17
191.168	99.5
191.387	62.63
191.607	91.31
191.826	74.92
192.045	23.72
192.265	17.58
192.484	40.11
192.704	66.73
192.923	-17.24
193.142	195.75
193.362	17.58
193.581	58.54
193.8	68.78
194.02	54.44
194.239	87.21
194.458	-27.48
194.678	50.35
194.897	103.59
195.116	13.48
195.335	-35.67
195.555	79.02
195.774	7.34
195.993	89.26
196.212	-15.19
196.432	91.31
196.651	40.11
196.87	7.34
197.089	46.25
197.308	91.31
197.528	48.3
197.747	13.48
197.966	91.31
198.185	87.21
198.404	7.34
198.623	-2.9
198.842	62.63
199.062	17.58
199.281	111.78
199.5	42.15
199.719	79.02
199.938	56.49
200.157	62.63
200.376	-0.85
200.595	70.83
200.814	62.63
201.033	25.77
201.252	29.87
201.471	40.11
201.69	105.64
201.909	56.49
202.128	21.67
202.347	46.25
202.566	103.59
202.785	40.11
203.004	66.73
203.223	109.74
203.442	115.88
203.661	54.44
203.879	31.91
204.098	74.92
204.317	13.48
204.536	175.27
204.755	89.26
204.974	56.49
205.193	21.67
205.411	89.26
205.63	38.06
205.849	38.06
206.068	72.87
206.287	40.11
206.505	38.06
206.724	42.15
206.943	46.25
207.162	13.48
207.381	68.78
207.599	54.44
207.818	15.53
208.037	-2.9
208.255	36.01
208.474	-11.09
208.693	27.82
208.911	27.82
209.13	52.39
209.349	68.78
209.567	23.72
209.786	132.26
210.005	3.24
210.223	72.87
210.442	25.77
210.661	70.83
210.879	27.82
211.098	15.53
211.316	21.67
211.535	76.97
211.753	50.35
211.972	-11.09
212.191	27.82
212.409	17.58
212.628	74.92
212.846	95.4
213.065	46.25
213.283	169.13
213.502	-23.38
213.72	58.54
213.938	13.48
214.157	42.15
214.375	54.44
214.594	56.49
214.812	62.63
215.031	36.01
215.249	93.35
215.467	54.44
215.686	40.11
215.904	62.63
216.122	13.48
216.341	148.65
216.559	122.02
216.778	103.59
216.996	107.69
217.214	111.78
217.432	1.19
217.651	-25.43
217.869	74.92
218.087	-7
218.306	13.48
218.524	-0.85
218.742	36.01
218.96	70.83
219.179	-50
219.397	13.48
219.615	70.83
219.833	72.87
220.051	46.25
220.27	97.45
220.488	79.02
220.706	-27.48
220.924	46.25
221.142	-0.85
221.36	70.83
221.578	31.91
221.796	70.83
222.015	48.3
222.233	95.4
222.451	87.21
222.669	19.63
222.887	99.5
223.105	-80.72
223.323	42.15
223.541	38.06
223.759	31.91
223.977	62.63
224.195	25.77
224.413	124.07
224.631	66.73
224.849	31.91
225.067	72.87
225.285	-19.29
225.503	-11.09
225.721	-39.76
225.939	46.25
226.157	1.19
226.375	162.98
226.592	19.63
226.81	-31.57
227.028	-2.9
227.246	124.07
227.464	25.77
227.682	87.21
227.9	5.29
228.117	17.58
228.335	128.17
228.553	15.53
228.771	62.63
228.989	-33.62
229.206	140.46
229.424	15.53
229.642	21.67
229.86	-39.76
230.077	-17.24
230.295	5.29
230.513	38.06
230.731	87.21
230.948	23.72
231.166	21.67
231.384	25.77
231.601	38.06
231.819	58.54
232.037	46.25
232.254	-25.43
232.472	46.25
232.689	17.58
232.907	5.29
233.125	-7
233.342	31.91
233.56	74.92
233.777	38.06
233.995	25.77
234.213	27.82
234.43	17.58
234.648	44.2
234.865	-62.29
235.083	-2.9
235.3	62.63
235.518	46.25
235.735	23.72
235.953	111.78
236.17	-9.05
236.388	29.87
236.605	64.68
236.822	-2.9
237.04	3.24
237.257	7.34
237.475	11.43
237.692	-0.85
237.909	-19.29
238.127	13.48
238.344	79.02
238.562	38.06
238.779	48.3
238.996	52.39
239.214	56.49
239.431	-7
239.648	-7
239.865	74.92
240.083	64.68
240.3	7.34
240.517	1.19
240.735	-7
240.952	19.63
241.169	97.45
241.386	-2.9
241.603	-2.9
241.821	21.67
242.038	23.72
242.255	62.63
242.472	-76.63
242.689	85.16
242.907	70.83
243.124	-17.24
243.341	7.34
243.558	74.92
243.775	-72.53
243.992	52.39
244.209	38.06
244.426	91.31
244.643	46.25
244.86	58.54
245.078	70.83
245.295	107.69
245.512	113.83
245.729	29.87
245.946	33.96
246.163	38.06
246.38	29.87
246.597	70.83
246.814	54.44
247.031	58.54
247.248	70.83
247.464	-27.48
247.681	56.49
247.898	-11.09
248.115	29.87
248.332	-33.62
248.549	91.31
248.766	136.36
248.983	89.26
249.2	72.87
249.417	23.72
249.633	9.39
249.85	17.58
250.067	40.11
250.284	5.29
250.501	33.96
250.717	64.68
250.934	64.68
251.151	33.96
251.368	-17.24
251.585	33.96
251.801	31.91
252.018	27.82
252.235	111.78
252.451	21.67
252.668	54.44
252.885	72.87
253.102	40.11
253.318	72.87
253.535	-23.38
253.752	87.21
253.968	33.96
254.185	-35.67
254.401	25.77
254.618	19.63
254.835	44.2
255.051	122.02
255.268	52.39
255.484	46.25
255.701	70.83
255.917	117.93
256.134	42.15
256.351	46.25
256.567	13.48
256.784	31.91
257	-19.29
257.217	-9.05
257.433	46.25
257.65	101.55
257.866	56.49
258.082	13.48
258.299	5.29
258.515	25.77
258.732	9.39
258.948	31.91
259.165	91.31
259.381	107.69
259.597	5.29
259.814	107.69
260.03	31.91
260.246	117.93
260.463	103.59
260.679	40.11
260.895	99.5
261.112	46.25
261.328	23.72
261.544	79.02
261.761	103.59
261.977	40.11
262.193	31.91
262.409	119.98
262.626	115.88
262.842	-35.67
263.058	13.48
263.274	62.63
263.49	-11.09
263.707	79.02
263.923	21.67
264.139	5.29
264.355	13.48
264.571	64.68
264.787	76.97
265.004	173.22
265.22	-9.05
265.436	7.34
265.652	5.29
265.868	134.31
266.084	-72.53
266.3	72.87
266.516	-78.68
266.732	48.3
266.948	70.83
267.164	21.67
267.38	83.11
267.596	-35.67
267.812	27.82
268.028	31.91
268.244	7.34
268.46	93.35
268.676	-2.9
268.892	23.72
269.108	128.17
269.324	46.25
269.54	21.67
269.756	152.74
269.972	-11.09
270.188	105.64
270.403	70.83
270.619	15.53
270.835	42.15
271.051	23.72
271.267	54.44
271.483	46.25
271.698	25.77
271.914	46.25
272.13	66.73
272.346	21.67
272.562	1.19
272.777	105.64
272.993	115.88
273.209	33.96
273.425	70.83
273.64	42.15
273.856	74.92
274.072	58.54
274.287	-9.05
274.503	15.53
274.719	21.67
274.934	3.24
275.15	5.29
275.366	-11.09
275.581	79.02
275.797	17.58
276.012	29.87
276.228	7.34
276.444	48.3
276.659	48.3
276.875	-11.09
277.09	87.21
277.306	33.96
277.521	115.88
277.737	-17.24
277.952	76.97
278.168	-0.85
278.383	52.39
278.599	40.11
278.814	74.92
279.03	46.25
279.245	146.6
279.461	27.82
279.676	62.63
279.892	44.2
280.107	48.3
280.322	46.25
280.538	68.78
280.753	29.87
280.969	105.64
281.184	83.11
281.399	81.07
281.615	58.54
281.83	-0.85
282.045	27.82
282.26	21.67
282.476	56.49
282.691	70.83
282.906	29.87
283.122	74.92
283.337	5.29
283.552	56.49
283.767	-74.58
283.983	111.78
284.198	-4.95
284.413	21.67
284.628	83.11
284.843	38.06
285.058	154.79
285.274	48.3
285.489	-2.9
285.704	95.4
285.919	62.63
286.134	38.06
286.349	27.82
286.564	15.53
286.779	66.73
286.995	89.26
287.21	31.91
287.425	29.87
287.64	13.48
287.855	132.26
288.07	-17.24
288.285	119.98
288.5	97.45
288.715	56.49
288.93	-17.24
289.145	83.11
289.36	31.91
289.575	54.44
289.79	52.39
290.004	-4.95
290.219	87.21
290.434	46.25
290.649	-15.19
290.864	91.31
291.079	25.77
291.294	42.15
291.509	46.25
291.724	-0.85
291.938	54.44
292.153	46.25
292.368	1.19
292.583	95.4
292.798	38.06
293.012	50.35
293.227	62.63
293.442	56.49
293.657	5.29
293.871	81.07
294.086	38.06
294.301	38.06
294.516	44.2
294.73	79.02
294.945	5.29
295.16	13.48
295.374	54.44
295.589	70.83
295.804	46.25
296.018	3.24
296.233	79.02
296.447	46.25
296.662	-2.9
296.877	89.26
297.091	99.5
297.306	95.4
297.52	40.11
297.735	48.3
297.949	70.83
298.164	46.25
298.378	83.11
298.593	17.58
298.807	54.44
299.022	38.06
299.236	152.74
299.451	107.69
299.665	50.35
299.88	36.01
300.094	-2.9
300.309	91.31
300.523	36.01
300.737	54.44
300.952	5.29
301.166	-7
301.381	-0.85
301.595	-68.44
301.809	74.92
302.024	48.3
302.238	62.63
302.452	136.36
302.667	70.83
302.881	38.06
303.095	79.02
303.309	56.49
303.524	54.44
303.738	-2.9
303.952	-25.43
304.166	62.63
304.381	-15.19
304.595	68.78
304.809	81.07
305.023	5.29
305.237	68.78
305.452	103.59
305.666	-13.14
305.88	81.07
306.094	33.96
306.308	89.26
306.522	29.87
306.736	66.73
306.95	144.55
307.164	33.96
307.379	103.59
307.593	107.69
307.807	48.3
308.021	38.06
308.235	93.35
308.449	-43.86
308.663	21.67
308.877	38.06
309.091	42.15
309.305	48.3
309.519	13.48
309.733	81.07
309.947	56.49
310.161	70.83
310.374	46.25
310.588	70.83
310.802	-2.9
311.016	38.06
311.23	33.96
311.444	95.4
311.658	62.63
311.872	46.25
312.085	107.69
312.299	130.22
312.513	38.06
312.727	54.44
312.941	7.34
313.154	79.02
313.368	5.29
313.582	64.68
313.796	91.31
314.009	56.49
314.223	140.46
314.437	31.91
314.651	50.35
314.864	58.54
315.078	50.35
315.292	-27.48
315.505	15.53
315.719	38.06
315.933	-9.05
316.146	54.44
316.36	54.44
316.573	103.59
316.787	13.48
317.001	105.64
317.214	3.24
317.428	-0.85
317.641	17.58
317.855	44.2
318.068	107.69
318.282	81.07
318.495	99.5
318.709	128.17
318.922	60.59
319.136	70.83
319.349	48.3
319.563	56.49
319.776	117.93
319.99	-31.57
320.203	-13.14
320.417	105.64
320.63	33.96
320.843	103.59
321.057	119.98
321.27	54.44
321.483	7.34
321.697	54.44
321.91	99.5
322.124	21.67
322.337	68.78
322.55	46.25
322.763	15.53
322.977	89.26
323.19	-2.9
323.403	87.21
323.617	72.87
323.83	85.16
324.043	29.87
324.256	56.49
324.469	81.07
324.683	101.55
324.896	40.11
325.109	79.02
325.322	-17.24
325.535	101.55
325.748	66.73
325.962	21.67
326.175	54.44
326.388	42.15
326.601	97.45
326.814	40.11
327.027	56.49
327.24	169.13
327.453	-68.44
327.666	46.25
327.879	62.63
328.092	107.69
328.305	1.19
328.518	46.25
328.731	-0.85
328.944	5.29
329.157	101.55
329.37	58.54
329.583	89.26
329.796	68.78
330.009	11.43
330.222	87.21
330.435	105.64
330.648	25.77
330.861	5.29
331.073	48.3
331.286	33.96
331.499	132.26
331.712	15.53
331.925	99.5
332.138	1.19
332.35	148.65
332.563	48.3
332.776	72.87
332.989	5.29
333.202	56.49
333.414	33.96
333.627	66.73
333.84	33.96
334.053	66.73
334.265	-62.29
334.478	-7
334.691	38.06
334.903	70.83
335.116	13.48
335.329	117.93
335.541	58.54
335.754	91.31
335.966	33.96
336.179	97.45
336.392	70.83
336.604	38.06
336.817	91.31
337.029	68.78
337.242	72.87
337.454	40.11
337.667	-2.9
337.88	160.94
338.092	50.35
338.305	62.63
338.517	38.06
338.729	62.63
338.942	89.26
339.154	23.72
339.367	15.53
339.579	79.02
339.792	-35.67
340.004	74.92
340.217	79.02
340.429	54.44
340.641	62.63
340.854	-17.24
341.066	23.72
341.278	111.78
341.491	152.74
341.703	97.45
341.915	44.2
342.128	17.58
342.34	79.02
342.552	-35.67
342.764	13.48
342.977	50.35
343.189	48.3
343.401	124.07
343.613	54.44
343.826	46.25
344.038	93.35
344.25	9.39
344.462	38.06
344.674	109.74
344.886	50.35
345.099	87.21
345.311	62.63
345.523	21.67
345.735	-41.81
345.947	81.07
346.159	13.48
346.371	107.69
346.583	79.02
346.795	95.4
347.007	15.53
347.219	66.73
347.431	17.58
347.643	64.68
347.855	46.25
348.067	156.84
348.279	122.02
348.491	66.73
348.703	111.78
348.915	60.59
349.127	-11.09
349.339	7.34
349.551	25.77
349.763	58.54
349.975	29.87
350.187	97.45
350.399	11.43
350.61	113.83
350.822	31.91
351.034	29.87
351.246	25.77
351.458	27.82
351.669	56.49
351.881	48.3
352.093	23.72
352.305	79.02
352.517	-13.14
352.728	70.83
352.94	56.49
353.152	111.78
353.363	83.11
353.575	115.88
353.787	40.11
353.999	23.72
354.21	105.64
354.422	38.06
354.633	-0.85
354.845	70.83
355.057	21.67
355.268	85.16
355.48	76.97
355.692	48.3
355.903	48.3
356.115	38.06
356.326	17.58
356.538	115.88
356.749	48.3
356.961	103.59
357.172	50.35
357.384	38.06
357.595	136.36
357.807	42.15
358.018	33.96
358.23	64.68
358.441	72.87
358.653	29.87
358.864	99.5
359.075	31.91
359.287	74.92
359.498	52.39
359.709	70.83
359.921	72.87
360.132	128.17
360.344	40.11
360.555	60.59
360.766	111.78
360.977	25.77
361.189	89.26
361.4	79.02
361.611	74.92
361.823	95.4
362.034	99.5
362.245	21.67
362.456	21.67
362.667	76.97
362.879	-19.29
363.09	5.29
363.301	89.26
363.512	89.26
363.723	42.15
363.935	50.35
364.146	54.44
364.357	13.48
364.568	103.59
364.779	62.63
364.99	113.83
365.201	105.64
365.412	105.64
365.623	33.96
365.834	25.77
366.045	62.63
366.256	64.68
366.467	97.45
366.678	40.11
366.889	1.19
367.1	66.73
367.311	62.63
367.522	62.63
367.733	87.21
367.944	83.11
368.155	-2.9
368.366	91.31
368.577	136.36
368.788	62.63
368.999	48.3
369.209	93.35
369.42	150.7
369.631	111.78
369.842	42.15
370.053	-25.43
370.264	33.96
370.474	62.63
370.685	62.63
370.896	97.45
371.107	50.35
371.317	5.29
371.528	46.25
371.739	54.44
371.95	54.44
372.16	83.11
372.371	97.45
372.582	17.58
372.792	93.35
373.003	105.64
373.214	38.06
373.424	70.83
373.635	79.02
373.846	54.44
374.056	68.78
374.267	115.88
374.477	74.92
374.688	48.3
374.898	83.11
375.109	25.77
375.319	38.06
375.53	189.61
375.74	103.59
375.951	60.59
376.161	136.36
376.372	97.45
376.582	-17.24
376.793	119.98
377.003	-27.48
377.214	17.58
377.424	70.83
377.635	50.35
377.845	5.29
378.055	95.4
378.266	7.34
378.476	87.21
378.686	76.97
378.897	66.73
379.107	48.3
379.317	68.78
379.528	107.69
379.738	128.17
379.948	44.2
380.158	81.07
380.369	93.35
380.579	95.4
380.789	54.44
380.999	115.88
381.21	97.45
381.42	95.4
381.63	38.06
381.84	99.5
382.05	38.06
382.261	48.3
382.471	50.35
382.681	40.11
382.891	87.21
383.101	81.07
383.311	95.4
383.521	95.4
383.731	79.02
383.941	134.31
384.151	79.02
384.361	-2.9
384.571	95.4
384.781	99.5
384.991	144.55
385.201	165.03
385.411	50.35
385.621	117.93
385.831	42.15
386.041	42.15
386.251	79.02
386.461	160.94
386.671	126.12
386.881	56.49
387.091	29.87
387.301	138.41
387.511	40.11
387.72	107.69
387.93	21.67
388.14	15.53
388.35	83.11
388.56	56.49
388.769	31.91
388.979	91.31
389.189	-7
389.399	95.4
389.609	103.59
389.818	79.02
390.028	109.74
390.238	162.98
390.447	23.72
390.657	7.34
390.867	36.01
391.076	21.67
391.286	21.67
391.496	5.29
391.705	105.64
391.915	103.59
392.125	148.65
392.334	97.45
392.544	40.11
392.753	70.83
392.963	21.67
393.172	79.02
393.382	48.3
393.591	140.46
393.801	38.06
394.01	42.15
394.22	134.31
394.429	62.63
394.639	74.92
394.848	138.41
395.058	54.44
395.267	89.26
395.477	115.88
395.686	148.65
395.895	197.8
396.105	138.41
396.314	169.13
396.524	158.89
396.733	165.03
396.942	162.98
397.152	111.78
397.361	105.64
397.57	152.74
397.78	111.78
397.989	113.83
398.198	226.47
398.407	119.98
398.617	107.69
398.826	40.11
399.035	31.91
399.244	119.98
399.453	160.94
399.663	87.21
399.872	48.3
400.081	142.5
400.29	111.78
400.499	87.21
400.708	201.9
400.917	148.65
401.127	130.22
401.336	128.17
401.545	101.55
401.754	113.83
401.963	169.13
402.172	115.88
402.381	95.4
402.59	136.36
402.799	152.74
403.008	152.74
403.217	97.45
403.426	201.9
403.635	132.26
403.844	79.02
404.053	138.41
404.262	154.79
404.471	220.33
404.68	128.17
404.888	150.7
405.097	136.36
405.306	187.56
405.515	152.74
405.724	210.09
405.933	242.85
406.142	150.7
406.35	218.28
406.559	158.89
406.768	158.89
406.977	218.28
407.185	197.8
407.394	210.09
407.603	224.42
407.812	226.47
408.02	242.85
408.229	201.9
408.438	220.33
408.646	189.61
408.855	292.01
409.064	335.01
409.272	249
409.481	400.55
409.69	269.48
409.898	238.76
410.107	365.73
410.315	320.68
410.524	332.97
410.733	404.64
410.941	263.33
411.15	504.99
411.358	416.93
411.567	500.9
411.775	394.4
411.984	488.61
412.192	437.41
412.401	509.09
412.609	529.57
412.818	554.15
413.026	533.67
413.234	603.3
413.443	554.15
413.651	613.54
413.86	603.3
414.068	636.06
414.276	660.64
414.485	603.3
414.693	668.83
414.901	752.8
415.11	648.35
415.318	767.13
415.526	840.86
415.734	783.52
415.943	867.49
416.151	898.2
416.359	912.54
416.567	914.59
416.776	984.22
416.984	1055.9
417.192	1049.75
417.4	1092.76
417.608	1076.38
417.817	1148.06
418.025	1096.86
418.233	1236.12
418.441	1209.5
418.649	1295.51
418.857	1322.13
419.065	1442.96
419.273	1289.37
419.481	1502.36
419.689	1563.79
419.897	1614.99
420.105	1713.3
420.313	1672.34
420.521	1672.34
420.729	1787.02
420.937	1797.26
421.145	1787.02
421.353	1905.81
421.561	2065.55
421.769	2036.88
421.977	2178.19
422.185	2165.9
422.393	2348.17
422.601	2399.37
422.809	2385.03
423.017	2464.9
423.224	2509.96
423.432	2614.4
423.64	2638.98
423.848	2899.07
424.056	2741.38
424.263	3048.57
424.471	2931.84
424.679	3069.05
424.887	3177.59
425.094	3447.93
425.302	3269.75
425.51	3499.13
425.718	3681.39
425.925	3593.33
426.133	3716.21
426.341	4011.12
426.548	4142.19
426.756	4109.42
426.964	4215.91
427.171	4314.22
427.379	4381.8
427.586	4553.83
427.794	4764.77
428.001	4828.26
428.209	5168.22
428.417	5055.58
428.624	5504.09
428.832	5356.63
429.039	5387.35
429.247	5487.7
429.454	5805.14
429.662	6157.39
429.869	5960.78
430.076	6227.02
430.284	5968.98
430.491	6313.03
430.699	6595.65
430.906	6591.56
431.114	6904.9
431.321	7013.44
431.528	7197.76
431.736	7427.13
431.943	7894.07
432.15	7824.44
432.358	7771.19
432.565	8260.65
432.772	8260.65
432.979	8459.31
433.187	8698.92
433.394	8782.88
433.601	9534.49
433.808	9460.76
434.016	9405.47
434.223	9831.44
434.43	10546.19
434.637	10230.8
434.844	11017.22
435.052	10859.52
435.259	10937.35
435.466	10947.59
435.673	10738.69
435.88	11645.94
436.087	11930.61
436.294	11977.72
436.501	11998.2
436.708	12045.3
436.915	12497.9
437.122	13179.87
437.329	12940.26
437.537	13571.04
437.743	13556.7
437.95	13300.7
438.157	14509.01
438.364	14697.42
438.571	14642.12
438.778	14771.15
438.985	15942.58
439.192	15508.41
439.399	16094.13
439.606	15406.02
439.813	16688.04
440.02	17687.45
440.227	17103.78
440.433	16964.52
440.64	17527.71
440.847	17404.83
441.054	17871.77
441.261	18963.34
441.467	18791.31
441.674	19084.17
441.881	19985.27
442.088	20181.88
442.294	19583.87
442.501	20149.11
442.708	20663.15
442.914	21316.45
443.121	22322.01
443.328	21668.7
443.534	23110.47
443.741	22344.53
443.948	22031.19
444.154	23876.41
444.361	23915.33
444.568	23819.07
444.774	23755.58
444.981	24136.51
445.187	24937.26
445.394	25864.99
445.6	25492.26
445.807	27955.97
446.013	26755.86
446.22	27312.91
446.426	27833.09
446.633	28361.47
446.839	29532.9
447.046	28158.72
447.252	29928.16
447.459	29934.31
447.665	29547.24
447.871	30946
448.078	32318.14
448.284	31224.53
448.491	31849.16
448.697	32905.91
448.903	33227.44
449.11	33856.17
449.316	32899.76
449.522	33434.28
449.728	34493.08
449.935	34886.29
450.141	35011.22
450.347	35521.16
450.553	34474.65
450.76	34831
450.966	35801.74
451.172	35537.55
451.378	36596.35
451.584	35719.82
451.791	36571.77
451.997	36725.37
452.203	37053.05
452.409	37218.93
452.615	36878.97
452.821	35584.65
453.027	35089.04
453.233	37399.15
453.44	35590.8
453.646	35881.61
453.852	36573.82
454.058	36496
454.264	35478.16
454.47	36442.75
454.676	35431.05
454.882	36475.52
455.088	33495.72
455.294	33968.8
455.5	34429.6
455.705	34669.21
455.911	33274.54
456.117	32580.28
456.323	32465.6
456.529	30640.86
456.735	32123.58
456.941	31148.75
457.147	30599.9
457.352	29747.94
457.558	29055.73
457.764	29467.37
457.97	28908.27
458.176	27765.51
458.381	27867.91
458.587	26823.44
458.793	26577.69
458.999	25369.38
459.204	27151.12
459.41	26114.84
459.616	24357.69
459.821	24537.91
460.027	24673.07
460.233	24060.73
460.438	22928.2
460.644	22999.88
460.85	22049.63
461.055	21713.76
461.261	21437.28
461.466	19899.26
461.672	19321.73
461.878	20757.36
462.083	19227.53
462.289	18766.73
462.494	18703.25
462.7	18107.29
462.905	17540
463.111	17931.16
463.316	18289.56
463.522	17626.01
463.727	17873.82
463.932	17558.43
464.138	17558.43
464.343	17474.46
464.549	16876.46
464.754	17583.01
464.959	17146.79
465.165	17212.32
465.37	16524.21
465.575	16067.51
465.781	16559.02
465.986	16876.46
466.191	16217.01
466.397	15963.06
466.602	14867.4
466.807	15672.25
467.012	15733.69
467.218	15256.51
467.423	15076.29
467.628	15432.64
467.833	16087.99
468.038	15461.31
468.244	15152.07
468.449	15514.56
468.654	15025.09
468.859	14932.93
469.064	14775.24
469.269	14308.3
469.474	14488.53
469.679	14676.94
469.885	14132.18
470.09	14369.74
470.295	14228.43
470.5	13806.55
470.705	13935.57
470.91	13485.02
471.115	13534.17
471.32	13841.37
471.525	13753.3
471.73	13495.26
471.935	13376.48
472.139	12702.7
472.344	12940.26
472.549	12803.05
472.754	12915.69
472.959	12307.44
473.164	12141.55
473.369	12164.08
473.574	12633.07
473.778	12442.6
473.983	12162.03
474.188	12061.68
474.393	11588.6
474.598	11629.56
474.802	11541.5
475.007	11482.11
475.212	11609.08
475.417	11101.19
475.621	11088.9
475.826	11099.14
476.031	10914.82
476.235	10648.58
476.44	10804.23
476.645	10826.76
476.849	10570.76
477.054	10355.72
477.259	10449.93
477.463	10441.74
477.668	10150.93
477.872	10241.04
478.077	10075.15
478.282	9817.11
478.486	9720.85
478.691	9454.62
478.895	9659.42
479.1	9624.6
479.304	9624.6
479.509	9286.68
479.713	9468.95
479.918	9258.01
480.122	9184.29
480.326	9305.12
480.531	9274.4
480.735	8870.95
480.94	9190.43
481.144	9354.27
481.348	8803.36
481.553	9221.15
481.757	8664.1
481.961	8961.06
482.166	9100.32
482.37	9098.27
482.574	8883.24
482.778	8926.24
482.983	9098.27
483.187	8789.03
483.391	9071.65
483.595	8838.18
483.8	8746.02
484.004	8987.68
484.208	8817.7
484.412	8772.64
484.616	8954.91
484.821	8911.91
485.025	8676.39
485.229	8762.4
485.433	8727.59
485.637	8743.97
485.841	8660.01
486.045	8743.97
486.249	8799.27
486.453	8643.62
486.657	8885.28
486.861	8739.88
487.065	8563.75
487.269	8655.91
487.473	8748.07
487.677	8758.31
487.881	8846.37
488.085	8547.37
488.289	8803.36
488.493	8600.62
488.697	8715.3
488.901	8797.22
489.105	8623.14
489.309	8885.28
489.512	8797.22
489.716	8643.62
489.92	8690.73
490.124	8715.3
490.328	8836.13
490.531	8782.88
490.735	8764.45
490.939	8748.07
491.143	8791.08
491.346	8672.29
491.55	8922.15
491.754	8948.77
491.958	8950.82
492.161	8995.87
492.365	9151.52
492.569	9176.09
492.772	8983.59
492.976	8918.05
493.18	8961.06
493.383	9198.62
493.587	9090.08
493.79	9401.37
493.994	9247.77
494.197	9337.88
494.401	9266.21
494.605	9235.49
494.808	9542.68
495.012	9540.63
495.215	9602.07
495.419	9634.84
495.622	9475.1
495.825	9757.72
496.029	9790.49
496.232	10048.53
496.436	9808.92
496.639	10075.15
496.843	10138.64
497.046	10314.77
497.249	10458.12
497.453	10290.19
497.656	10451.98
497.859	10499.08
498.063	10677.26
498.266	10703.88
498.469	10898.44
498.673	10624.01
498.876	11027.46
499.079	11256.83
499.282	11031.55
499.485	11209.73
499.689	11385.85
499.892	11555.83
500.095	11195.39
500.298	11928.56
500.501	11768.82
500.705	12035.06
500.908	12125.17
501.111	12096.5
501.314	12325.87
501.517	12366.83
501.72	12530.67
501.923	12612.59
502.126	12841.96
502.329	12958.69
502.532	13218.78
502.735	13145.06
502.938	13292.51
503.141	13345.76
503.344	13448.16
503.547	13659.1
503.75	13753.3
503.953	14017.49
504.156	14150.61
504.359	14013.4
504.562	14144.47
504.765	14789.58
504.968	14719.95
505.17	14937.03
505.373	14799.82
505.576	15211.46
505.779	15379.39
505.982	15104.96
506.185	15492.03
506.387	15586.24
506.59	16114.61
506.793	15946.68
506.996	15834.04
507.198	16462.77
507.401	16524.21
507.604	16477.1
507.807	17107.88
508.009	16954.28
508.212	17284
508.415	17544.09
508.617	17554.33
508.82	17345.44
509.022	17478.56
509.225	17963.93
509.428	18357.14
509.63	18330.51
509.833	18404.24
510.035	18889.61
510.238	18770.83
510.44	19051.4
510.643	19313.54
510.845	19264.39
511.048	19307.4
511.25	19590.02
511.453	19428.23
511.655	20648.82
511.858	19907.45
512.06	20444.02
512.262	20847.47
512.465	20542.32
512.667	20970.35
512.87	21330.79
513.072	21179.24
513.274	21740.38
513.477	21971.8
513.679	22006.62
513.881	22008.67
514.084	22510.42
514.286	22639.44
514.488	22600.53
514.69	23366.47
514.893	23440.2
515.095	23157.58
515.297	23796.54
515.499	23432.01
515.701	23733.06
515.904	24105.79
516.106	24144.7
516.308	24814.38
516.51	25023.28
516.712	25019.18
516.914	25000.75
517.116	25613.09
517.318	25697.06
517.52	25697.06
517.722	25873.18
517.925	25979.68
518.127	26231.58
518.329	26493.72
518.531	26254.11
518.733	26776.34
518.935	27208.46
519.136	27456.26
519.338	27554.57
519.54	27912.96
519.742	27835.14
519.944	27718.4
520.146	28553.97
520.348	28459.77
520.55	28480.25
520.752	28715.76
520.954	29180.65
521.155	28986.1
521.357	29586.15
521.559	29506.28
521.761	29868.77
521.963	29815.52
522.164	29768.42
522.366	29981.41
522.568	30317.28
522.77	30307.04
522.971	30710.49
523.173	30530.26
523.375	30845.65
523.576	30438.11
523.778	30407.39
523.98	31496.91
524.181	31349.45
524.383	31412.94
524.584	31390.41
524.786	31443.66
524.988	31320.78
525.189	31746.76
525.391	31855.3
525.592	31828.68
525.794	31490.76
525.995	31744.71
526.197	31929.03
526.398	31754.95
526.6	31961.79
526.801	32080.58
527.003	31683.27
527.204	32101.06
527.406	32539.32
527.607	32139.97
527.808	32533.18
528.01	31767.24
528.211	32101.06
528.412	32660.15
528.614	32275.13
528.815	32318.14
529.016	32596.67
529.218	32064.19
529.419	32131.78
529.62	32467.64
529.822	31959.75
530.023	32400.06
530.224	32381.63
530.425	32297.66
530.626	31969.99
530.828	31929.03
531.029	32733.88
531.23	32260.8
531.431	32049.86
531.632	32330.43
531.833	31951.56
532.035	32127.68
532.236	32342.72
532.437	32023.23
532.638	31933.12
532.839	32047.81
533.04	31986.37
533.241	31474.38
533.442	32238.27
533.643	32070.34
533.844	31742.66
534.045	31574.73
534.246	31337.16
534.447	31560.39
534.648	31275.73
534.849	31785.67
535.05	31423.18
535.251	31527.63
535.451	31242.96
535.652	31273.68
535.853	31316.68
536.054	31443.66
536.255	31316.68
536.456	30804.69
536.657	31163.09
536.857	30706.39
537.058	31077.07
537.259	31056.59
537.46	30558.94
537.66	30823.12
537.861	30939.86
538.062	30665.43
538.263	30483.16
538.463	30583.51
538.664	30470.87
538.865	30595.8
539.065	30560.98
539.266	30290.65
539.466	30743.25
539.667	30231.26
539.868	30690.01
540.068	30315.23
540.269	30249.69
540.469	30354.14
540.67	30300.89
540.87	30233.31
541.071	30110.43
541.271	30161.63
541.472	30016.22
541.672	29528.81
541.873	29911.78
542.073	29367.02
542.274	30257.88
542.474	29981.41
542.675	29768.42
542.875	29909.73
543.075	29840.1
543.276	29848.29
543.476	30321.37
543.676	29610.73
543.877	30044.9
544.077	30075.62
544.277	29831.91
544.478	30030.56
544.678	29713.13
544.878	29858.53
545.078	30128.86
545.279	29502.18
545.479	29889.25
545.679	29913.83
545.879	30028.51
546.079	29747.94
546.28	29786.85
546.48	29293.29
546.68	29858.53
546.88	29614.82
547.08	29934.31
547.28	30059.23
547.48	29369.07
547.68	29596.39
547.88	29405.93
548.081	29739.75
548.281	29704.93
548.481	29473.51
548.681	29803.24
548.881	29866.72
549.081	29807.33
549.28	29571.82
549.48	30073.57
549.68	29858.53
549.88	30141.15
550.08	29784.8
550.28	29725.41
550.48	29747.94
550.68	30012.13
550.88	30071.52
551.08	30311.13
551.279	29870.82
551.479	29635.3
551.679	29805.28
551.879	29860.58
552.079	29971.17
552.278	29766.37
552.478	30010.08
552.678	29698.79
552.878	30440.15
553.077	29846.24
553.277	30167.77
553.477	30601.94
553.676	29975.27
553.876	30309.08
554.076	30243.55
554.275	30163.68
554.475	30028.51
554.674	30225.12
554.874	30386.91
555.074	30255.84
555.273	30354.14
555.473	30450.39
555.672	30288.6
555.872	30323.42
556.071	30331.61
556.271	30395.1
556.47	30479.07
556.67	30286.56
556.869	30565.08
557.068	30597.85
557.268	30618.33
557.467	30331.61
557.667	30706.39
557.866	30665.43
558.065	30757.59
558.265	30696.15
558.464	30354.14
558.663	30479.07
558.863	30370.52
559.062	31122.13
559.261	30628.57
559.461	30872.28
559.66	30292.7
559.859	30626.52
560.058	30671.57
560.258	30477.02
560.457	30280.41
560.656	30765.78
560.855	30644.95
561.054	31101.65
561.253	30718.68
561.453	31021.78
561.652	30976.72
561.851	30876.37
562.05	30669.53
562.249	30536.41
562.448	30624.47
562.647	30704.34
562.846	30855.89
563.045	31009.49
563.244	30421.72
563.443	30692.05
563.642	30319.32
563.841	30597.85
564.04	30663.38
564.239	30479.07
564.438	30427.87
564.637	30487.26
564.836	30751.45
565.035	30317.28
565.234	30464.73
565.432	30163.68
565.631	30147.29
565.83	30434.01
566.029	30053.09
566.228	29938.4
566.427	30212.83
566.625	29956.83
566.824	29688.55
567.023	30296.8
567.222	29522.66
567.42	30126.81
567.619	30065.38
567.818	29799.14
568.016	29766.37
568.215	30139.1
568.414	29825.76
568.612	29749.99
568.811	29522.66
569.01	29680.36
569.208	29268.72
569.407	29604.58
569.605	28982
569.804	28994.29
570.002	29070.06
570.201	29373.16
570.4	29317.87
570.598	28795.64
570.797	28648.18
570.995	28799.73
571.193	28328.7
571.392	28898.03
571.59	28310.27
571.789	28429.05
571.987	28441.34
572.186	28396.28
572.384	28148.48
572.582	28211.96
572.781	28179.2
572.979	28015.36
573.177	28009.22
573.376	27974.4
573.574	28107.52
573.772	27616.01
573.971	27470.6
574.169	27667.2
574.367	27464.46
574.565	27564.81
574.763	27505.41
574.962	27366.15
575.16	27026.19
575.358	27077.39
575.556	26811.15
575.754	27167.5
575.952	26995.47
576.151	26798.87
576.349	26669.84
576.547	26710.8
576.745	26663.7
576.943	26389.27
577.141	26317.59
577.339	26186.52
577.537	26094.36
577.735	25989.92
577.933	26059.55
578.131	26088.22
578.329	25912.1
578.527	25957.15
578.725	25830.18
578.923	25924.38
579.121	25377.58
579.319	25520.93
579.516	25729.83
579.714	25479.97
579.912	25287.46
580.11	25242.41
580.308	25119.53
580.506	25305.9
580.704	24666.93
580.901	25353
581.099	25209.64
581.297	24824.62
581.495	25168.68
581.692	24898.35
581.89	24736.56
582.088	24902.45
582.285	24621.87
582.483	24812.34
582.681	24398.65
582.878	24464.18
583.076	24396.6
583.274	24486.71
583.471	24103.74
583.669	24343.35
583.866	23894.85
584.064	24183.61
584.262	23794.5
584.459	23778.11
584.657	23860.03
584.854	23974.72
585.052	23743.3
585.249	23638.85
585.447	23565.12
585.644	23548.74
585.841	23808.83
586.039	23702.34
586.236	23300.94
586.434	23300.94
586.631	23139.15
586.828	23274.31
587.026	22967.12
587.223	23075.66
587.42	23067.47
587.618	22911.82
587.815	22983.5
588.012	23102.28
588.21	22784.85
588.407	23083.85
588.604	22981.45
588.801	22668.11
588.999	22864.72
589.196	22676.3
589.393	22553.43
589.59	22541.14
589.787	22381.4
589.984	22465.36
590.182	22291.29
590.379	22348.63
590.576	22010.71
590.773	22418.26
590.97	22283.09
591.167	22303.57
591.364	22186.84
591.561	22217.56
591.758	21896.03
591.955	22025.05
592.152	22279
592.349	22041.43
592.546	22152.02
592.743	22027.1
592.94	21769.05
593.137	21990.24
593.334	21893.98
593.531	21832.54
593.727	22170.46
593.924	21963.61
594.121	21779.29
594.318	21793.63
594.515	21771.1
594.712	21828.45
594.908	21830.49
595.105	21865.31
595.302	21601.12
595.499	21857.12
595.696	21791.58
595.892	21633.89
596.089	21343.08
596.286	21889.88
596.482	21848.93
596.679	21683.04
596.876	21715.81
597.072	21504.87
597.269	21564.26
597.466	21357.41
597.662	21662.56
597.859	21588.83
598.055	21853.02
598.252	21709.66
598.448	21826.4
598.645	21381.99
598.841	21564.26
599.038	21830.49
599.234	21527.39
599.431	21783.39
599.627	21781.34
599.824	21812.06
600.02	21648.22
600.217	21889.88
600.413	21781.34
600.609	21517.15
600.806	21902.17
601.002	21943.13
601.198	21945.18
601.395	21762.91
601.591	21922.65
601.787	21881.69
601.984	21814.11
602.18	21844.83
602.376	21893.98
602.572	21967.71
602.769	22082.39
602.965	21965.66
603.161	22139.74
603.357	22152.02
603.553	22147.93
603.75	22182.74
603.946	22297.43
604.142	22414.16
604.338	22379.35
604.534	22266.71
604.73	22211.42
604.926	22102.87
605.122	22676.3
605.318	22586.19
605.514	22371.16
605.71	22324.05
605.906	22446.93
606.102	22340.44
606.298	22479.7
606.494	22420.31
606.69	22743.89
606.886	22684.5
607.082	22322.01
607.278	22829.9
607.474	22778.7
607.67	22821.71
607.866	22598.48
608.062	22999.88
608.257	22778.7
608.453	22868.81
608.649	23130.95
608.845	22584.15
609.041	22952.78
609.236	23298.89
609.432	23022.41
609.628	23348.04
609.824	23294.79
610.019	23038.8
610.215	23130.95
610.411	23712.58
610.606	23393.09
610.802	23460.68
610.998	23589.7
611.193	23710.53
611.389	23401.29
611.584	23671.62
611.78	23497.54
611.976	23452.48
612.171	23688
612.367	23395.14
612.562	23745.34
612.758	23214.92
612.953	23401.29
613.149	24042.3
613.344	23853.89
613.539	23960.38
613.735	23536.45
613.93	23958.33
614.126	23573.31
614.321	24140.6
614.517	24130.36
614.712	23911.23
614.907	23542.6
615.103	24025.92
615.298	23790.4
615.493	24314.68
615.688	23612.23
615.884	24386.36
616.079	23251.78
616.274	23841.6
616.47	23878.46
616.665	24079.16
616.86	23796.54
617.055	23448.39
617.25	23946.05
617.445	24171.32
617.641	23434.05
617.836	23903.04
618.031	23315.27
618.226	23810.88
618.421	23618.37
618.616	23892.8
618.811	23526.21
619.006	23860.03
619.201	23327.56
619.396	23403.33
619.591	23296.84
619.786	23538.5
619.981	23272.26
620.176	23452.48
620.371	23190.34
620.566	23329.61
620.761	23046.99
620.956	23210.82
621.151	22758.22
621.346	23159.63
621.541	22483.8
621.735	23325.51
621.93	22608.72
622.125	22653.78
622.32	22307.67
622.515	22424.4
622.709	22350.68
622.904	22416.21
623.099	22385.49
623.294	21951.32
623.488	21658.46
623.683	21967.71
623.878	21470.05
624.072	21783.39
624.267	21521.25
624.462	21605.22
624.656	21381.99
624.851	21242.73
625.046	21091.18
625.24	21042.03
625.435	21109.61
625.629	21085.03
625.824	20986.73
626.018	20935.53
626.213	20409.2
626.407	20659.06
626.602	20470.64
626.796	20550.51
626.991	20122.49
627.185	20632.43
627.38	20247.41
627.574	19891.07
627.768	20079.48
627.963	19657.6
628.157	19524.48
628.352	19766.14
628.546	19200.9
628.74	19655.55
628.935	19444.61
629.129	19458.95
629.323	19352.45
629.517	19217.29
629.712	19123.08
629.906	18979.72
630.1	18588.56
630.294	18957.19
630.489	18830.22
630.683	18670.48
630.877	18191.25
631.071	18463.63
631.265	18432.91
631.459	18400.15
631.653	18213.78
631.848	18148.25
632.042	18039.7
632.236	17877.91
632.43	17691.55
632.624	17781.66
632.818	17531.81
633.012	17580.96
633.206	17515.42
633.4	17284
633.594	17073.06
633.788	17238.95
633.982	17032.1
634.176	17245.09
634.369	16905.13
634.563	16726.96
634.757	16716.72
634.951	16708.52
635.145	16669.61
635.339	16552.88
635.533	16331.7
635.726	16491.44
635.92	16331.7
636.114	16255.92
636.308	16042.93
636.501	16122.8
636.695	16139.19
636.889	15653.82
637.083	15741.88
637.276	15315.9
637.47	15463.36
637.664	15358.91
637.857	15373.25
638.051	15307.71
638.244	15107.01
638.438	15018.95
638.632	15129.54
638.825	14949.32
639.019	14537.68
639.212	14887.88
639.406	14646.22
639.599	14504.91
639.793	14736.33
639.986	14126.04
640.18	14463.95
640.373	14408.65
640.567	14046.16
640.76	14054.36
640.954	14103.51
641.147	13710.3
641.34	13812.7
641.534	13775.83
641.727	13597.66
641.92	13646.81
642.114	13538.27
642.307	13480.92
642.5	13251.55
642.694	12915.69
642.887	13007.84
643.08	13069.28
643.273	13038.56
643.467	13022.18
643.66	12983.27
643.853	12825.57
644.046	12551.15
644.239	12426.22
644.432	12440.56
644.626	12469.23
644.819	12268.53
645.012	12305.39
645.205	12317.68
645.398	12209.14
645.591	11838.45
645.784	11918.32
645.977	11875.32
646.17	11936.76
646.363	11488.25
646.556	11525.11
646.749	11543.55
646.942	11666.42
647.135	11629.56
647.328	11269.12
647.521	11369.47
647.714	11219.97
647.907	11152.38
648.099	11148.29
648.292	11015.17
648.485	11101.19
648.678	10898.44
648.871	10763.27
649.064	10800.13
649.256	10777.61
649.449	10691.59
649.642	10509.32
649.835	10642.44
650.027	10355.72
650.22	10566.67
650.413	10308.62
650.605	10320.91
650.798	10191.89
650.991	10187.79
651.183	10294.29
651.376	10146.83
651.568	9831.44
651.761	9958.42
651.954	10091.54
652.146	9968.66
652.339	10069.01
652.531	10130.45
652.724	9847.83
652.916	9557.02
653.109	9733.14
653.301	9446.43
653.494	9624.6
653.686	9344.03
653.879	9372.7
654.071	9266.21
654.263	9499.67
654.456	9352.22
654.648	9253.92
654.84	9172
655.033	8952.87
655.225	9077.79
655.417	8985.63
655.61	9042.98
655.802	9024.54
655.994	8897.57
656.186	8907.81
656.379	8893.47
656.571	8827.94
656.763	8582.18
656.955	8617
657.148	8576.04
657.34	8543.27
657.532	8440.87
657.724	8473.64
657.916	8709.16
658.108	8594.47
658.3	8385.58
658.492	8428.59
658.684	8256.56
658.876	8143.92
659.068	7992.37
659.26	8004.66
659.452	8100.91
659.644	8043.57
659.836	7998.51
660.028	7922.74
660.22	7644.21
660.412	7699.51
660.604	7689.27
660.796	7590.97
660.988	7699.51
661.18	7535.67
661.372	7490.62
661.563	7636.02
661.755	7394.36
661.947	7689.27
662.139	7435.32
662.331	7433.27
662.522	7275.58
662.714	7324.73
662.906	7402.55
663.097	7267.39
663.289	7081.02
663.481	7054.4
663.673	7107.65
663.864	6911.04
664.056	6870.08
664.247	6878.27
664.439	6966.34
664.631	6968.38
664.822	7046.21
665.014	6644.81
665.205	6773.83
665.397	6550.6
665.588	6763.59
665.78	6685.76
665.971	6724.68
666.163	6571.08
666.354	6624.33
666.546	6429.77
666.737	6489.16
666.929	6421.58
667.12	6452.3
667.311	6411.34
667.503	6181.96
667.694	6493.26
667.885	6358.09
668.077	6325.32
668.268	6063.18
668.459	6194.25
668.651	6204.49
668.842	6292.55
669.033	6118.48
669.224	6081.61
669.416	6128.72
669.607	6210.64
669.798	5858.39
669.989	6104.14
670.18	5987.41
670.371	5977.17
670.563	5999.7
670.754	5893.2
670.945	5930.06
671.136	5792.85
671.327	5862.48
671.518	5692.5
671.709	5911.63
671.9	5825.62
672.091	5821.52
672.282	5760.08
672.473	5639.25
672.664	5530.71
672.855	5563.48
673.046	5626.96
673.237	5751.89
673.428	5651.54
673.619	5725.27
673.809	5657.68
674	5577.81
674.191	5588.05
674.382	5553.24
674.573	5510.23
674.764	5420.12
674.954	5649.49
675.145	5463.13
675.336	5530.71
675.527	5446.74
675.717	5629.01
675.908	5342.3
676.099	5289.05
676.289	5356.63
676.48	5268.57
676.671	5198.94
676.861	5534.81
677.052	5338.2
677.243	5252.19
677.433	5246.04
677.624	5186.65
677.814	5385.3
678.005	5289.05
678.195	5264.47
678.386	5241.95
678.576	5258.33
678.767	5194.84
678.957	5149.79
679.148	5334.11
679.338	5200.99
679.529	5200.99
679.719	5137.5
679.909	5379.16
680.1	5178.46
680.29	5178.46
680.481	5282.91
680.671	5192.8
680.861	5215.32
681.052	5166.17
681.242	5162.08
681.432	5188.7
681.622	5045.34
681.813	5194.84
682.003	5108.83
682.193	5076.06
682.383	5207.13
682.573	5080.16
682.764	5010.53
682.954	5045.34
683.144	5209.18
683.334	5067.87
683.524	5059.68
683.714	5051.49
683.904	4971.61
684.094	5182.56
684.284	5012.57
684.474	5217.37
684.664	5127.26
684.854	5071.97
685.044	5094.49
685.234	5020.77
685.424	4938.85
685.614	5008.48
685.804	4969.57
685.994	5131.36
686.184	5020.77
686.374	4949.09
686.564	4842.59
686.753	4901.98
686.943	4813.92
687.133	4928.61
687.323	4805.73
687.513	5026.91
687.702	4981.85
687.892	4865.12
688.082	4799.59
688.272	4883.55
688.461	4842.59
688.651	4783.2
688.841	4813.92
689.03	4789.35
689.22	4844.64
689.41	4871.26
689.599	4801.63
689.789	4807.78
689.979	4772.96
690.168	4711.52
690.358	4748.39
690.547	4834.4
690.737	4775.01
690.926	4748.39
691.116	4691.04
691.305	4906.08
691.495	4502.63
691.684	4684.9
691.874	4801.63
692.063	4740.19
692.252	4672.61
692.442	4760.67
692.631	4543.59
692.82	4578.4
693.01	4535.4
693.199	4506.73
693.388	4439.14
693.578	4578.4
693.767	4617.32
693.956	4412.52
694.146	4586.6
694.335	4502.63
694.524	4508.77
694.713	4551.78
694.902	4486.25
695.092	4527.21
695.281	4543.59
695.47	4566.12
695.659	4408.42
695.848	4463.72
696.037	4445.29
696.226	4519.01
696.415	4351.08
696.604	4338.79
696.793	4420.71
696.982	4316.26
697.171	4398.18
697.36	4406.38
697.549	4226.15
697.738	4281.45
697.927	4338.79
698.116	4256.87
698.305	4308.07
698.494	4322.41
698.683	4324.46
698.872	4480.1
699.061	4283.5
699.25	4369.51
699.438	4441.19
699.627	4375.66
699.816	4383.85
700.005	4199.53
700.193	4183.15
700.382	4193.39
700.571	4168.81
700.76	4220.01
700.948	4062.32
701.137	4101.23
701.326	4097.13
701.514	4164.72
701.703	4107.37
701.892	3994.73
702.08	4240.49
702.269	4160.62
702.457	4142.19
702.646	4152.43
702.834	4011.12
703.023	3923.05
703.212	4023.41
703.4	3994.73
703.589	3898.48
703.777	4123.76
703.965	3777.65
704.154	3964.01
704.342	3851.38
704.531	3904.62
704.719	3945.58
704.907	3847.28
705.096	3923.05
705.284	3890.29
705.472	3880.05
705.661	3798.13
705.849	3818.61
706.037	3918.96
706.226	3880.05
706.414	3847.28
706.602	3814.51
706.79	3875.95
706.979	3740.79
707.167	3765.36
707.355	3667.06
707.543	3824.75
707.731	3769.46
707.919	3777.65
708.107	3736.69
708.296	3593.33
708.484	3667.06
708.672	3658.87
708.86	3767.41
709.048	3759.22
709.236	3800.18
709.424	3589.24
709.612	3714.16
709.8	3617.91
709.988	3597.43
710.176	3683.44
710.364	3669.11
710.551	3605.62
710.739	3509.37
710.927	3486.84
711.115	3546.23
711.303	3572.85
711.491	3675.25
711.679	3439.73
711.866	3495.03
712.054	3421.3
712.242	3421.3
712.43	3431.54
712.617	3439.73
712.805	3546.23
712.993	3413.11
713.181	3447.93
713.368	3556.47
713.556	3363.96
713.744	3263.61
713.931	3521.65
714.119	3394.68
714.306	3380.34
714.494	3441.78
714.682	3396.73
714.869	3257.46
715.057	3206.27
715.244	3288.18
715.432	3286.14
715.619	3245.18
715.807	3298.42
715.994	3175.55
716.182	3150.97
716.369	3269.75
716.556	3314.81
716.744	3204.22
716.931	3026.04
717.119	3261.56
717.306	3304.57
717.493	3183.74
717.681	3126.39
717.868	3067
718.055	3128.44
718.242	3130.49
718.43	3153.02
718.617	3073.15
718.804	3024
718.991	3153.02
719.179	3069.05
719.366	3150.97
719.553	2843.78
719.74	3071.1
719.927	3079.29
720.114	3011.71
720.301	2888.83
720.488	2989.18
720.676	2966.65
720.863	3007.61
721.05	2989.18
721.237	3056.76
721.424	2925.69
721.611	3093.63
721.798	2866.3
721.985	2856.06
722.172	3032.19
722.358	2897.02
722.545	2831.49
722.732	2872.45
722.919	2808.96
723.106	2806.91
723.293	2874.49
723.48	2833.54
723.667	2806.91
723.853	2823.3
724.04	2827.39
724.227	2757.76
724.414	2856.06
724.6	2749.57
724.787	2802.82
724.974	2790.53
725.161	2862.21
725.347	2673.79
725.534	2755.71
725.72	2765.95
725.907	2851.97
726.094	2645.12
726.28	2800.77
726.467	2700.42
726.653	2651.27
726.84	2788.48
727.027	2774.14
727.213	2585.73
727.4	2651.27
727.586	2757.76
727.773	2561.16
727.959	2694.27
728.145	2696.32
728.332	2626.69
728.518	2565.25
728.705	2727.04
728.891	2610.31
729.077	2643.07
729.264	2651.27
729.45	2487.43
729.636	2765.95
729.823	2579.59
730.009	2536.58
730.195	2546.82
730.382	2620.55
730.568	2393.22
730.754	2565.25
730.94	2624.64
731.126	2610.31
731.313	2555.01
731.499	2495.62
731.685	2522.24
731.871	2524.29
732.057	2419.85
732.243	2579.59
732.429	2489.48
732.615	2557.06
732.801	2440.33
732.987	2634.88
733.173	2487.43
733.359	2391.17
733.545	2409.61
733.731	2348.17
733.917	2413.7
734.103	2540.68
734.289	2405.51
734.475	2303.11
734.661	2448.52
734.847	2462.85
735.033	2405.51
735.219	2385.03
735.404	2329.74
735.59	2407.56
735.776	2256.01
735.962	2407.56
736.148	2286.73
736.333	2421.89
736.519	2227.34
736.705	2415.75
736.89	2163.85
737.076	2176.14
737.262	2272.39
737.447	2241.67
737.633	2360.45
737.819	2165.9
738.004	2217.1
738.19	2333.83
738.375	2126.99
738.561	2364.55
738.747	2243.72
738.932	2241.67
739.118	2202.76
739.303	2274.44
739.489	2147.47
739.674	2116.75
739.859	2243.72
740.045	2159.75
740.23	2186.38
740.416	2145.42
740.601	2192.52
740.786	2112.65
740.972	2090.12
741.157	2151.56
741.342	2106.51
741.528	2053.26
741.713	2178.19
741.898	2086.03
742.084	2028.68
742.269	2053.26
742.454	2034.83
742.639	2040.97
742.824	1971.34
743.01	1971.34
743.195	2069.64
743.38	1887.37
743.565	1965.2
743.75	1995.92
743.935	1963.15
744.12	2024.59
744.305	1963.15
744.49	1975.44
744.675	1952.91
744.86	1819.79
745.045	1975.44
745.23	1877.13
745.415	1787.02
745.6	1922.19
745.785	1875.09
745.97	1922.19
746.155	1922.19
746.34	1832.08
746.525	1842.32
746.71	1827.98
746.895	1758.35
747.079	1823.89
747.264	1815.69
747.449	1762.45
747.634	1909.9
747.819	1631.38
748.003	1741.97
748.188	1746.06
748.373	1557.65
748.557	1760.4
748.742	1668.24
748.927	1668.24
749.111	1660.05
749.296	1635.47
749.481	1692.82
749.665	1637.52
749.85	1684.62
750.034	1725.58
750.219	1545.36
750.404	1569.94
750.588	1549.46
750.773	1614.99
750.957	1563.79
751.141	1633.43
751.326	1592.47
751.51	1481.88
751.695	1481.88
751.879	1475.73
752.064	1537.17
752.248	1406.1
752.432	1514.64
752.617	1520.79
752.801	1422.48
752.985	1406.1
753.17	1367.19
753.354	1440.92
753.538	1438.87
753.722	1395.86
753.907	1365.14
754.091	1365.14
754.275	1410.2
754.459	1430.68
754.643	1299.61
754.828	1373.33
755.012	1426.58
755.196	1307.8
755.38	1289.37
755.564	1197.21
755.748	1246.36
755.932	1373.33
756.116	1295.51
756.3	1229.98
756.484	1299.61
756.668	1227.93
756.852	1131.67
757.036	1219.74
757.22	1213.59
757.404	1291.41
757.588	1221.78
757.772	1244.31
757.956	1236.12
758.14	1238.17
758.323	1137.82
758.507	1193.11
758.691	1121.43
758.875	1152.15
759.059	1103
759.242	1125.53
759.426	1186.97
759.61	1184.92
759.794	1115.29
759.977	1133.72
760.161	1193.11
760.345	1111.19
760.528	1078.43
760.712	1127.58
760.895	1041.56
761.079	1098.91
761.263	1023.13
761.446	1037.47
761.63	1029.27
761.813	1062.04
761.997	971.93
762.18	1029.27
762.364	1041.56
762.547	1094.81
762.731	1078.43
762.914	1035.42
763.098	918.68
763.281	1057.95
763.464	1010.84
763.648	1035.42
763.831	1066.14
764.015	947.36
764.198	1023.13
764.381	1019.04
764.564	1004.7
764.748	933.02
764.931	908.44
765.114	957.6
765.297	998.56
765.481	998.56
765.664	947.36
765.847	916.64
766.03	978.08
766.213	922.78
766.397	967.84
766.58	959.64
766.763	937.12
766.946	918.68
767.129	900.25
767.312	914.59
767.495	906.4
767.678	1004.7
767.861	855.2
768.044	924.83
768.227	916.64
768.41	769.18
768.593	869.53
768.776	849.05
768.959	947.36
769.142	939.16
769.324	951.45
769.507	873.63
769.69	812.19
769.873	748.7
770.056	935.07
770.239	793.76
770.421	842.91
770.604	881.82
770.787	840.86
770.97	836.77
771.152	771.23
771.335	838.81
771.518	793.76
771.7	914.59
771.883	865.44
772.066	726.18
772.248	697.5
772.431	828.57
772.613	818.33
772.796	756.9
772.978	832.67
773.161	820.38
773.343	826.53
773.526	744.61
773.708	734.37
773.891	722.08
774.073	785.57
774.256	763.04
774.438	775.33
774.621	758.94
774.803	672.93
774.985	752.8
775.168	758.94
775.35	711.84
775.532	793.76
775.715	689.31
775.897	701.6
776.079	758.94
776.261	728.22
776.444	677.02
776.626	767.13
776.808	580.77
776.99	668.83
777.173	746.66
777.355	734.37
777.537	668.83
777.719	664.74
777.901	717.98
778.083	636.06
778.265	623.78
778.447	720.03
778.629	607.39
778.811	631.97
778.993	634.02
779.175	644.26
779.357	636.06
779.539	591.01
779.721	515.23
779.903	613.54
780.085	578.72
780.267	586.91
780.449	574.63
780.631	597.15
780.812	586.91
780.994	490.66
781.176	617.63
781.358	582.82
781.54	523.43
781.721	607.39
781.903	568.48
782.085	523.43
782.267	550.05
782.448	556.19
782.63	476.32
782.812	521.38
782.993	556.19
783.175	619.68
783.357	459.94
783.538	566.43
783.72	466.08
783.901	545.95
784.083	482.47
784.264	492.71
784.446	490.66
784.627	476.32
784.809	402.6
784.99	451.75
785.172	480.42
785.353	437.41
785.535	521.38
785.716	416.93
785.897	466.08
786.079	412.84
786.26	464.04
786.441	461.99
786.623	457.89
786.804	410.79
786.985	500.9
787.167	431.27
787.348	332.97
787.529	451.75
787.71	406.69
787.891	398.5
788.073	402.6
788.254	351.4
788.435	496.8
788.616	386.21
788.797	337.06
788.978	349.35
789.159	365.73
789.34	433.32
789.522	367.78
789.703	359.59
789.884	365.73
790.065	433.32
790.246	455.84
790.427	267.43
790.607	464.04
790.788	398.5
790.969	423.08
791.15	378.02
791.331	398.5
791.512	386.21
791.693	302.25
791.874	386.21
792.054	341.16
792.235	332.97
792.416	249
792.597	285.86
792.778	341.16
792.958	398.5
793.139	357.54
793.32	369.83
793.5	271.53
793.681	339.11
793.862	312.49
794.042	324.77
794.223	320.68
794.404	382.12
794.584	363.69
794.765	296.1
794.945	296.1
795.126	312.49
795.306	302.25
795.487	310.44
795.667	341.16
795.848	287.91
796.028	339.11
796.209	210.09
796.389	316.58
796.57	365.73
796.75	277.67
796.93	292.01
797.111	261.29
797.291	275.62
797.471	267.43
797.652	310.44
797.832	308.39
798.012	308.39
798.192	304.29
798.373	261.29
798.553	205.99
798.733	320.68
798.913	275.62
799.093	300.2
799.274	296.1
799.454	259.24
799.634	249
799.814	267.43
799.994	226.47
800.174	201.9
800.354	230.57
800.534	212.14
800.714	259.24
800.894	165.03
801.074	244.9
801.254	294.05
801.434	300.2
801.614	253.09
801.794	205.99
801.974	816.29
802.154	193.7
802.334	230.57
802.514	238.76
802.693	244.9
802.873	277.67
803.053	308.39
803.233	332.97
803.413	259.24
803.592	251.05
803.772	195.75
803.952	287.91
804.131	189.61
804.311	191.66
804.491	236.71
804.67	205.99
804.85	185.51
805.03	255.14
805.209	212.14
805.389	156.84
805.568	173.22
805.748	210.09
805.928	234.66
806.107	210.09
806.287	181.42
806.466	251.05
806.646	165.03
806.825	259.24
807.004	169.13
807.184	154.79
807.363	277.67
807.543	122.02
807.722	226.47
807.901	187.56
808.081	253.09
808.26	76.97
808.439	185.51
808.619	146.6
808.798	236.71
808.977	210.09
809.156	224.42
809.336	132.26
809.515	251.05
809.694	160.94
809.873	171.18
810.052	128.17
810.231	226.47
810.411	187.56
810.59	187.56
810.769	181.42
810.948	201.9
811.127	173.22
811.306	201.9
811.485	201.9
811.664	214.18
811.843	158.89
812.022	169.13
812.201	181.42
812.38	148.65
812.559	103.59
812.737	165.03
812.916	119.98
813.095	156.84
813.274	169.13
813.453	203.94
813.632	169.13
813.811	136.36
813.989	156.84
814.168	173.22
814.347	177.32
814.526	175.27
814.704	87.21
814.883	228.52
815.062	97.45
815.24	177.32
815.419	79.02
815.598	138.41
815.776	128.17
815.955	136.36
816.133	46.25
816.312	193.7
816.49	154.79
816.669	152.74
816.847	105.64
817.026	128.17
817.204	205.99
817.383	179.37
817.561	99.5
817.74	113.83
817.918	210.09
818.097	107.69
818.275	150.7
818.453	144.55
818.632	144.55
818.81	144.55
818.988	66.73
819.167	171.18
819.345	146.6
819.523	165.03
819.701	50.35
819.879	134.31
820.058	115.88
820.236	193.7
820.414	140.46
820.592	79.02
820.77	111.78
820.948	111.78
821.127	113.83
821.305	140.46
821.483	171.18
821.661	226.47
821.839	136.36
822.017	136.36
822.195	85.16
822.373	154.79
822.551	146.6
822.729	146.6
822.907	79.02
823.085	83.11
823.262	113.83
823.44	128.17
823.618	5.29
823.796	21.67
823.974	85.16
824.152	152.74
824.329	128.17
824.507	130.22
824.685	144.55
824.863	111.78
825.04	187.56
825.218	138.41
825.396	111.78
825.574	152.74
825.751	169.13
825.929	124.07
826.107	-27.48
826.284	83.11
826.462	97.45
826.639	38.06
826.817	60.59
826.994	208.04
827.172	62.63
827.349	210.09
827.527	148.65
827.704	64.68
827.882	99.5
828.059	128.17
828.237	87.21
828.414	-9.05
828.591	27.82
828.769	54.44
828.946	95.4
829.124	203.94
829.301	124.07
829.478	111.78
829.655	103.59
829.833	128.17
830.01	64.68
830.187	134.31
830.364	154.79
830.542	62.63
830.719	165.03
830.896	79.02
831.073	99.5
831.25	111.78
831.427	171.18
831.604	124.07
831.782	101.55
831.959	162.98
832.136	89.26
832.313	85.16
832.49	101.55
832.667	111.78
832.844	117.93
833.021	111.78
833.198	132.26
833.374	103.59
833.551	111.78
833.728	48.3
833.905	105.64
834.082	56.49
834.259	31.91
834.436	81.07
834.612	33.96
834.789	228.52
834.966	138.41
835.143	128.17
835.319	115.88
835.496	58.54
835.673	113.83
835.85	136.36
836.026	13.48
836.203	132.26
836.38	25.77
836.556	-2.9
836.733	87.21
836.909	160.94
837.086	83.11
837.262	48.3
837.439	83.11
837.616	5.29
837.792	91.31
837.968	111.78
838.145	54.44
838.321	42.15
838.498	105.64
838.674	105.64
838.851	64.68
839.027	46.25
839.203	87.21
839.38	99.5
839.556	-9.05
839.732	81.07
839.909	23.72
840.085	81.07
840.261	33.96
840.437	144.55
840.614	33.96
840.79	40.11
840.966	97.45
841.142	62.63
841.318	42.15
841.494	79.02
841.671	81.07
841.847	54.44
842.023	42.15
842.199	-2.9
842.375	97.45
842.551	89.26
842.727	38.06
842.903	85.16
843.079	70.83
843.255	72.87
843.431	46.25
843.607	70.83
843.783	66.73
843.959	50.35
844.134	7.34
844.31	29.87
844.486	-27.48
844.662	29.87
844.838	33.96
845.013	42.15
845.189	119.98
845.365	50.35
845.541	103.59
845.716	13.48
845.892	76.97
846.068	23.72
846.244	7.34
846.419	17.58
846.595	56.49
846.77	103.59
846.946	119.98
847.122	13.48
847.297	91.31
847.473	140.46
847.648	29.87
847.824	56.49
847.999	-68.44
848.175	79.02
848.35	103.59
848.526	60.59
848.701	33.96
848.876	31.91
849.052	56.49
849.227	42.15
849.403	58.54
849.578	38.06
849.753	60.59
849.929	54.44
850.104	64.68
850.279	44.2
850.454	74.92
850.63	103.59
850.805	89.26
850.98	31.91
851.155	-19.29
851.33	91.31
851.505	-15.19
851.681	117.93
851.856	21.67
852.031	70.83
852.206	83.11
852.381	13.48
852.556	-58.2
852.731	79.02
852.906	62.63
853.081	136.36
853.256	111.78
853.431	17.58
853.606	-2.9
853.781	21.67
853.956	25.77
854.131	42.15
854.305	56.49
854.48	79.02
854.655	-27.48
854.83	42.15
855.005	7.34
855.18	74.92
855.354	25.77
855.529	79.02
855.704	29.87
855.879	38.06
856.053	-7
856.228	19.63
856.403	46.25
856.577	33.96
856.752	1.19
856.926	5.29
857.101	62.63
857.276	-27.48
857.45	-2.9
857.625	122.02
857.799	27.82
857.974	60.59
858.148	-17.24
858.323	46.25
858.497	-33.62
858.672	54.44
858.846	70.83
859.02	113.83
859.195	-23.38
859.369	70.83
859.543	103.59
859.718	79.02
859.892	1.19
860.066	25.77
860.241	-0.85
860.415	50.35
860.589	-11.09
860.763	38.06
860.938	42.15
861.112	97.45
861.286	-11.09
861.46	105.64
861.634	38.06
861.808	62.63
861.982	74.92
862.157	-9.05
862.331	38.06
862.505	-2.9
862.679	46.25
862.853	7.34
863.027	23.72
863.201	38.06
863.375	-23.38
863.549	74.92
863.722	5.29
863.896	38.06
864.07	17.58
864.244	79.02
864.418	89.26
864.592	103.59
864.766	7.34
864.939	62.63
865.113	-9.05
865.287	72.87
865.461	5.29
865.634	-7
865.808	21.67
865.982	15.53
866.156	33.96
866.329	-2.9
866.503	38.06
866.676	9.39
866.85	81.07
867.024	19.63
867.197	42.15
867.371	33.96
867.544	-9.05
867.718	-31.57
867.891	56.49
868.065	-2.9
868.238	5.29
868.412	79.02
868.585	13.48
868.759	-17.24
868.932	36.01
869.105	-52.05
869.279	101.55
869.452	46.25
869.625	103.59
869.799	46.25
869.972	-52.05
870.145	7.34
870.319	79.02
870.492	46.25
870.665	64.68
870.838	31.91
871.011	-15.19
871.185	-15.19
871.358	17.58
871.531	70.83
871.704	-31.57
871.877	79.02
872.05	25.77
872.223	-52.05
872.396	64.68
872.569	91.31
872.742	-58.2
872.915	79.02
873.088	62.63
873.261	-56.15
873.434	99.5
873.607	-7
873.78	48.3
873.953	42.15
874.126	62.63
874.299	89.26
874.471	46.25
874.644	-19.29
874.817	70.83
874.99	107.69
875.163	13.48
875.335	31.91
875.508	72.87
875.681	87.21
875.853	74.92
876.026	70.83
876.199	-4.95
876.371	33.96
876.544	-25.43
876.717	64.68
876.889	7.34
877.062	48.3
877.234	62.63
877.407	-21.33
877.579	50.35
877.752	83.11
877.924	31.91
878.097	5.29
878.269	119.98
878.442	-39.76
878.614	107.69
878.786	64.68
878.959	-9.05
879.131	62.63
879.303	-35.67
879.476	-2.9
879.648	23.72
879.82	40.11
879.993	15.53
880.165	46.25
880.337	-25.43
880.509	72.87
880.681	-33.62
880.854	19.63
881.026	17.58
881.198	83.11
881.37	-11.09
881.542	-43.86
881.714	38.06
881.886	-2.9
882.058	-41.81
882.23	-11.09
882.402	19.63
882.574	48.3
882.746	29.87
882.918	5.29
883.09	83.11
883.262	46.25
883.434	-7
883.606	-11.09
883.778	1.19
883.95	87.21
884.122	40.11
884.293	-52.05
884.465	-31.57
884.637	103.59
884.809	-4.95
884.98	76.97
885.152	64.68
885.324	89.26
885.496	15.53
885.667	21.67
885.839	-11.09
886.011	97.45
886.182	27.82
886.354	17.58
886.525	13.48
886.697	9.39
886.869	33.96
887.04	83.11
887.212	44.2
887.383	40.11
887.555	66.73
887.726	50.35
887.897	-27.48
888.069	5.29
888.24	60.59
888.412	36.01
888.583	-11.09
888.754	15.53
888.926	-76.63
889.097	-27.48
889.268	17.58
889.44	46.25
889.611	-60.24
889.782	21.67
889.953	33.96
890.125	25.77
890.296	-7
890.467	15.53
890.638	48.3
890.809	-27.48
890.98	-35.67
891.151	46.25
891.323	-17.24
891.494	7.34
891.665	38.06
891.836	42.15
892.007	19.63
892.178	74.92
892.349	46.25
892.52	-25.43
892.691	-37.72
892.862	7.34
893.032	-0.85
893.203	15.53
893.374	19.63
893.545	5.29
893.716	-4.95
893.887	111.78
894.057	132.26
894.228	-0.85
894.399	-17.24
894.57	64.68
894.74	-19.29
894.911	13.48
895.082	-19.29
895.253	25.77
895.423	119.98
895.594	-19.29
895.764	-4.95
895.935	-52.05
896.106	-15.19
896.276	46.25
896.447	105.64
896.617	-23.38
896.788	-17.24
896.958	97.45
897.129	3.24
897.299	-33.62
897.47	79.02
897.64	-31.57
897.81	48.3
897.981	-11.09
898.151	-68.44
898.322	46.25
898.492	38.06
898.662	-9.05
898.832	13.48
899.003	40.11
899.173	21.67
899.343	79.02
899.513	38.06
