Data from USB4F104151__33__14-29-40-762.txt Node

Date: Thu Mar 13 14:29:40 EDT 2025
User: louis
Spectrometer: USB4F10415
Trigger mode: 4
Integration Time (sec): 2.500000E-2
Scans to average: 1
Electric dark correction enabled: true
Nonlinearity correction enabled: false
Boxcar width: 0
XAxis mode: Wavelengths
Number of Pixels in Spectrum: 3648
>>>>>Begin Spectral Data<<<<<
178.204	-87.38
178.424	-87.38
178.644	-87.38
178.864	-144.72
179.084	-46.42
179.304	72.36
179.524	-13.65
179.744	6.83
179.964	51.88
180.184	-21.85
180.404	15.02
180.624	-30.04
180.844	-42.32
181.064	19.11
181.283	51.88
181.503	-81.24
181.723	-27.99
181.943	-60.76
182.163	88.75
182.383	-3.41
182.602	23.21
182.822	84.65
183.042	53.93
183.262	39.59
183.482	-23.89
183.701	92.84
183.921	27.31
184.141	2.73
184.361	-66.9
184.58	51.88
184.8	-13.65
185.02	27.31
185.239	35.5
185.459	-13.65
185.679	29.35
185.898	8.87
186.118	72.36
186.338	19.11
186.557	35.5
186.777	-27.99
186.997	27.31
187.216	31.4
187.436	-34.13
187.655	101.03
187.875	117.42
188.095	-13.65
188.314	6.83
188.534	37.55
188.753	51.88
188.973	19.11
189.192	68.27
189.412	82.6
189.631	60.07
189.851	55.98
190.07	80.55
190.29	-19.8
190.509	47.79
190.729	35.5
190.948	35.5
191.168	94.89
191.387	27.31
191.607	51.88
191.826	10.92
192.045	-3.41
192.265	19.11
192.484	98.99
192.704	96.94
192.923	23.21
193.142	162.47
193.362	51.88
193.581	35.5
193.8	25.26
194.02	105.13
194.239	10.92
194.458	82.6
194.678	105.13
194.897	-27.99
195.116	0.68
195.335	-19.8
195.555	76.46
195.774	12.97
195.993	35.5
196.212	0.68
196.432	-71
196.651	49.83
196.87	8.87
197.089	86.7
197.308	17.07
197.528	60.07
197.747	-46.42
197.966	21.16
198.185	6.83
198.404	-7.51
198.623	8.87
198.842	33.45
199.062	51.88
199.281	21.16
199.5	10.92
199.719	17.07
199.938	94.89
200.157	92.84
200.376	-13.65
200.595	19.11
200.814	72.36
201.033	41.64
201.252	35.5
201.471	23.21
201.69	84.65
201.909	23.21
202.128	72.36
202.347	29.35
202.566	47.79
202.785	68.27
203.004	-5.46
203.223	53.93
203.442	4.78
203.661	-32.08
203.879	-23.89
204.098	94.89
204.317	29.35
204.536	119.46
204.755	27.31
204.974	58.03
205.193	-1.37
205.411	64.17
205.63	39.59
205.849	92.84
206.068	53.93
206.287	60.07
206.505	31.4
206.724	21.16
206.943	31.4
207.162	53.93
207.381	94.89
207.599	-30.04
207.818	68.27
208.037	55.98
208.255	39.59
208.474	10.92
208.693	12.97
208.911	10.92
209.13	37.55
209.349	41.64
209.567	78.51
209.786	21.16
210.005	39.59
210.223	37.55
210.442	-30.04
210.661	105.13
210.879	10.92
211.098	45.74
211.316	-30.04
211.535	-9.56
211.753	35.5
211.972	51.88
212.191	-17.75
212.409	-30.04
212.628	45.74
212.846	21.16
213.065	53.93
213.283	101.03
213.502	-1.37
213.72	10.92
213.938	64.17
214.157	31.4
214.375	53.93
214.594	-46.42
214.812	58.03
215.031	92.84
215.249	43.69
215.467	72.36
215.686	31.4
215.904	125.61
216.122	-1.37
216.341	43.69
216.559	31.4
216.778	78.51
216.996	84.65
217.214	101.03
217.432	2.73
217.651	-34.13
217.869	45.74
218.087	-3.41
218.306	-25.94
218.524	86.7
218.742	45.74
218.96	90.79
219.179	-46.42
219.397	45.74
219.615	80.55
219.833	68.27
220.051	19.11
220.27	94.89
220.488	135.85
220.706	35.5
220.924	19.11
221.142	35.5
221.36	113.32
221.578	43.69
221.796	2.73
222.015	-1.37
222.233	27.31
222.451	94.89
222.669	-19.8
222.887	15.02
223.105	31.4
223.323	-19.8
223.541	-30.04
223.759	29.35
223.977	12.97
224.195	125.61
224.413	27.31
224.631	78.51
224.849	27.31
225.067	141.99
225.285	6.83
225.503	58.03
225.721	-3.41
225.939	51.88
226.157	47.79
226.375	156.33
226.592	33.45
226.81	35.5
227.028	68.27
227.246	70.31
227.464	51.88
227.682	35.5
227.9	35.5
228.117	12.97
228.335	-36.18
228.553	51.88
228.771	60.07
228.989	12.97
229.206	35.5
229.424	2.73
229.642	84.65
229.86	12.97
230.077	129.7
230.295	-21.85
230.513	35.5
230.731	29.35
230.948	76.46
231.166	2.73
231.384	29.35
231.601	10.92
231.819	119.46
232.037	35.5
232.254	-54.61
232.472	19.11
232.689	51.88
232.907	60.07
233.125	31.4
233.342	-66.9
233.56	37.55
233.777	129.7
233.995	47.79
234.213	66.22
234.43	27.31
234.648	-3.41
234.865	-46.42
235.083	51.88
235.3	27.31
235.518	19.11
235.735	84.65
235.953	41.64
236.17	27.31
236.388	33.45
236.605	47.79
236.822	58.03
237.04	15.02
237.257	88.75
237.475	-11.61
237.692	-11.61
237.909	60.07
238.127	-13.65
238.344	10.92
238.562	31.4
238.779	15.02
238.996	-3.41
239.214	-21.85
239.431	35.5
239.648	-46.42
239.865	47.79
240.083	62.12
240.3	55.98
240.517	6.83
240.735	113.32
240.952	72.36
241.169	109.22
241.386	60.07
241.603	80.55
241.821	2.73
242.038	39.59
242.255	70.31
242.472	27.31
242.689	92.84
242.907	92.84
243.124	68.27
243.341	60.07
243.558	15.02
243.775	19.11
243.992	53.93
244.209	76.46
244.426	55.98
244.643	51.88
244.86	55.98
245.078	68.27
245.295	55.98
245.512	68.27
245.729	43.69
245.946	43.69
246.163	35.5
246.38	-3.41
246.597	94.89
246.814	43.69
247.031	2.73
247.248	37.55
247.464	-17.75
247.681	68.27
247.898	62.12
248.115	60.07
248.332	-62.8
248.549	70.31
248.766	72.36
248.983	23.21
249.2	10.92
249.417	31.4
249.633	-21.85
249.85	51.88
250.067	23.21
250.284	31.4
250.501	2.73
250.717	37.55
250.934	17.07
251.151	49.83
251.368	-3.41
251.585	105.13
251.801	39.59
252.018	35.5
252.235	-9.56
252.451	27.31
252.668	25.26
252.885	80.55
253.102	51.88
253.318	10.92
253.535	31.4
253.752	101.03
253.968	-9.56
254.185	-13.65
254.401	4.78
254.618	84.65
254.835	43.69
255.051	45.74
255.268	25.26
255.484	92.84
255.701	12.97
255.917	27.31
256.134	-15.7
256.351	27.31
256.567	-1.37
256.784	43.69
257	25.26
257.217	92.84
257.433	37.55
257.65	10.92
257.866	62.12
258.082	-19.8
258.299	-25.94
258.515	-21.85
258.732	29.35
258.948	-5.46
259.165	76.46
259.381	-3.41
259.597	-34.13
259.814	10.92
260.03	117.42
260.246	45.74
260.463	72.36
260.679	109.22
260.895	72.36
261.112	66.22
261.328	12.97
261.544	-1.37
261.761	105.13
261.977	43.69
262.193	2.73
262.409	39.59
262.626	27.31
262.842	109.22
263.058	2.73
263.274	10.92
263.49	27.31
263.707	-25.94
263.923	29.35
264.139	119.46
264.355	47.79
264.571	51.88
264.787	2.73
265.004	-30.04
265.22	-17.75
265.436	12.97
265.652	-5.46
265.868	-25.94
266.084	27.31
266.3	-32.08
266.516	60.07
266.732	-60.76
266.948	2.73
267.164	43.69
267.38	17.07
267.596	-34.13
267.812	72.36
268.028	62.12
268.244	35.5
268.46	84.65
268.676	23.21
268.892	-9.56
269.108	88.75
269.324	27.31
269.54	43.69
269.756	29.35
269.972	103.08
270.188	68.27
270.403	-79.19
270.619	6.83
270.835	-11.61
271.051	29.35
271.267	-62.8
271.483	12.97
271.698	70.31
271.914	19.11
272.13	-36.18
272.346	35.5
272.562	47.79
272.777	94.89
272.993	19.11
273.209	-19.8
273.425	129.7
273.64	-54.61
273.856	6.83
274.072	27.31
274.287	19.11
274.503	-13.65
274.719	64.17
274.934	45.74
275.15	-32.08
275.366	23.21
275.581	-46.42
275.797	2.73
276.012	35.5
276.228	60.07
276.444	-46.42
276.659	23.21
276.875	10.92
277.09	-34.13
277.306	37.55
277.521	-21.85
277.737	35.5
277.952	27.31
278.168	10.92
278.383	90.79
278.599	29.35
278.814	53.93
279.03	23.21
279.245	92.84
279.461	43.69
279.676	62.12
279.892	-5.46
280.107	-44.37
280.322	66.22
280.538	37.55
280.753	10.92
280.969	12.97
281.184	60.07
281.399	62.12
281.615	4.78
281.83	19.11
282.045	-11.61
282.26	12.97
282.476	41.64
282.691	49.83
282.906	84.65
283.122	68.27
283.337	51.88
283.552	62.12
283.767	10.92
283.983	51.88
284.198	-3.41
284.413	55.98
284.628	-9.56
284.843	31.4
285.058	17.07
285.274	55.98
285.489	-13.65
285.704	4.78
285.919	15.02
286.134	-9.56
286.349	47.79
286.564	-13.65
286.779	146.09
286.995	90.79
287.21	10.92
287.425	-11.61
287.64	17.07
287.855	53.93
288.07	-48.47
288.285	90.79
288.5	51.88
288.715	35.5
288.93	66.22
289.145	21.16
289.36	8.87
289.575	53.93
289.79	78.51
290.004	27.31
290.219	39.59
290.434	43.69
290.649	60.07
290.864	8.87
291.079	37.55
291.294	86.7
291.509	68.27
291.724	10.92
291.938	60.07
292.153	72.36
292.368	10.92
292.583	23.21
292.798	78.51
293.012	19.11
293.227	12.97
293.442	21.16
293.657	84.65
293.871	41.64
294.086	60.07
294.301	125.61
294.516	45.74
294.73	-36.18
294.945	4.78
295.16	-17.75
295.374	33.45
295.589	12.97
295.804	2.73
296.018	43.69
296.233	19.11
296.447	-5.46
296.662	37.55
296.877	105.13
297.091	98.99
297.306	-11.61
297.52	45.74
297.735	19.11
297.949	76.46
298.164	-19.8
298.378	10.92
298.593	19.11
298.807	51.88
299.022	74.41
299.236	-11.61
299.451	39.59
299.665	31.4
299.88	68.27
300.094	55.98
300.309	39.59
300.523	-46.42
300.737	-17.75
300.952	25.26
301.166	103.08
301.381	49.83
301.595	0.68
301.809	-30.04
302.024	10.92
302.238	37.55
302.452	55.98
302.667	27.31
302.881	70.31
303.095	2.73
303.309	6.83
303.524	-1.37
303.738	80.55
303.952	4.78
304.166	60.07
304.381	-27.99
304.595	86.7
304.809	47.79
305.023	101.03
305.237	45.74
305.452	41.64
305.666	64.17
305.88	-5.46
306.094	55.98
306.308	35.5
306.522	39.59
306.736	-11.61
306.95	60.07
307.164	15.02
307.379	105.13
307.593	135.85
307.807	21.16
308.021	35.5
308.235	84.65
308.449	-44.37
308.663	78.51
308.877	51.88
309.091	68.27
309.305	19.11
309.519	45.74
309.733	55.98
309.947	-38.23
310.161	43.69
310.374	78.51
310.588	139.94
310.802	68.27
311.016	2.73
311.23	68.27
311.444	29.35
311.658	10.92
311.872	68.27
312.085	74.41
312.299	78.51
312.513	88.75
312.727	19.11
312.941	10.92
313.154	105.13
313.368	19.11
313.582	-11.61
313.796	55.98
314.009	51.88
314.223	31.4
314.437	4.78
314.651	86.7
314.864	12.97
315.078	60.07
315.292	-58.71
315.505	55.98
315.719	-3.41
315.933	68.27
316.146	53.93
316.36	70.31
316.573	21.16
316.787	80.55
317.001	-3.41
317.214	33.45
317.428	101.03
317.641	51.88
317.855	17.07
318.068	-21.85
318.282	90.79
318.495	125.61
318.709	51.88
318.922	-25.94
319.136	72.36
319.349	27.31
319.563	64.17
319.776	2.73
319.99	-13.65
320.203	12.97
320.417	62.12
320.63	-30.04
320.843	84.65
321.057	76.46
321.27	35.5
321.483	94.89
321.697	74.41
321.91	49.83
322.124	76.46
322.337	60.07
322.55	53.93
322.763	2.73
322.977	23.21
323.19	23.21
323.403	43.69
323.617	35.5
323.83	109.22
324.043	25.26
324.256	4.78
324.469	-19.8
324.683	86.7
324.896	60.07
325.109	43.69
325.322	78.51
325.535	68.27
325.748	76.46
325.962	19.11
326.175	94.89
326.388	86.7
326.601	60.07
326.814	21.16
327.027	84.65
327.24	29.35
327.453	-46.42
327.666	27.31
327.879	80.55
328.092	27.31
328.305	92.84
328.518	92.84
328.731	-56.66
328.944	58.03
329.157	15.02
329.37	60.07
329.583	125.61
329.796	92.84
330.009	10.92
330.222	51.88
330.435	84.65
330.648	23.21
330.861	15.02
331.073	-38.23
331.286	21.16
331.499	43.69
331.712	-13.65
331.925	144.04
332.138	53.93
332.35	2.73
332.563	12.97
332.776	117.42
332.989	-7.51
333.202	113.32
333.414	-3.41
333.627	64.17
333.84	45.74
334.053	51.88
334.265	-62.8
334.478	-30.04
334.691	-46.42
334.903	45.74
335.116	25.26
335.329	-36.18
335.541	-21.85
335.754	60.07
335.966	51.88
336.179	-34.13
336.392	-9.56
336.604	103.08
336.817	43.69
337.029	2.73
337.242	10.92
337.454	19.11
337.667	-34.13
337.88	88.75
338.092	76.46
338.305	96.94
338.517	-38.23
338.729	80.55
338.942	74.41
339.154	-5.46
339.367	-9.56
339.579	70.31
339.792	19.11
340.004	68.27
340.217	76.46
340.429	-9.56
340.641	25.26
340.854	15.02
341.066	17.07
341.278	74.41
341.491	84.65
341.703	53.93
341.915	23.21
342.128	45.74
342.34	96.94
342.552	-52.56
342.764	6.83
342.977	21.16
343.189	88.75
343.401	35.5
343.613	-3.41
343.826	21.16
344.038	-5.46
344.25	45.74
344.462	10.92
344.674	47.79
344.886	-13.65
345.099	37.55
345.311	80.55
345.523	43.69
345.735	-34.13
345.947	68.27
346.159	12.97
346.371	27.31
346.583	-32.08
346.795	121.51
347.007	43.69
347.219	53.93
347.431	60.07
347.643	133.8
347.855	6.83
348.067	-27.99
348.279	43.69
348.491	10.92
348.703	94.89
348.915	4.78
349.127	27.31
349.339	68.27
349.551	39.59
349.763	19.11
349.975	62.12
350.187	35.5
350.399	-5.46
350.61	158.38
350.822	47.79
351.034	39.59
351.246	-1.37
351.458	60.07
351.669	60.07
351.881	121.51
352.093	123.56
352.305	88.75
352.517	43.69
352.728	51.88
352.94	-46.42
353.152	101.03
353.363	15.02
353.575	55.98
353.787	117.42
353.999	84.65
354.21	51.88
354.422	60.07
354.633	60.07
354.845	35.5
355.057	49.83
355.268	119.46
355.48	-25.94
355.692	39.59
355.903	4.78
356.115	17.07
356.326	51.88
356.538	35.5
356.749	105.13
356.961	70.31
357.172	27.31
357.384	15.02
357.595	154.28
357.807	19.11
358.018	6.83
358.23	33.45
358.441	113.32
358.653	47.79
358.864	-38.23
359.075	-9.56
359.287	68.27
359.498	94.89
359.709	103.08
359.921	51.88
360.132	8.87
360.344	43.69
360.555	10.92
360.766	105.13
360.977	78.51
361.189	121.51
361.4	15.02
361.611	86.7
361.823	111.27
362.034	76.46
362.245	27.31
362.456	92.84
362.667	29.35
362.879	111.27
363.09	37.55
363.301	74.41
363.512	23.21
363.723	51.88
363.935	25.26
364.146	92.84
364.357	35.5
364.568	113.32
364.779	27.31
364.99	117.42
365.201	2.73
365.412	27.31
365.623	-21.85
365.834	119.46
366.045	21.16
366.256	60.07
366.467	84.65
366.678	105.13
366.889	8.87
367.1	-13.65
367.311	72.36
367.522	39.59
367.733	86.7
367.944	45.74
368.155	-11.61
368.366	58.03
368.577	15.02
368.788	37.55
368.999	62.12
369.209	45.74
369.42	166.57
369.631	47.79
369.842	-5.46
370.053	66.22
370.264	2.73
370.474	-34.13
370.685	33.45
370.896	27.31
371.107	39.59
371.317	45.74
371.528	33.45
371.739	64.17
371.95	53.93
372.16	125.61
372.371	-15.7
372.582	86.7
372.792	-27.99
373.003	115.37
373.214	47.79
373.424	123.56
373.635	41.64
373.846	68.27
374.056	47.79
374.267	-5.46
374.477	111.27
374.688	-1.37
374.898	43.69
375.109	76.46
375.319	51.88
375.53	47.79
375.74	43.69
375.951	119.46
376.161	43.69
376.372	37.55
376.582	51.88
376.793	-11.61
377.003	-9.56
377.214	10.92
377.424	43.69
377.635	94.89
377.845	-38.23
378.055	111.27
378.266	-19.8
378.476	41.64
378.686	60.07
378.897	35.5
379.107	121.51
379.317	96.94
379.528	53.93
379.738	78.51
379.948	-66.9
380.158	80.55
380.369	127.66
380.579	92.84
380.789	15.02
380.999	76.46
381.21	60.07
381.42	182.95
381.63	-17.75
381.84	68.27
382.05	72.36
382.261	45.74
382.471	78.51
382.681	74.41
382.891	29.35
383.101	37.55
383.311	27.31
383.521	101.03
383.731	107.18
383.941	43.69
384.151	0.68
384.361	60.07
384.571	84.65
384.781	51.88
384.991	141.99
385.201	154.28
385.411	133.8
385.621	103.08
385.831	62.12
386.041	27.31
386.251	2.73
386.461	2.73
386.671	76.46
386.881	84.65
387.091	27.31
387.301	90.79
387.511	37.55
387.72	121.51
387.93	70.31
388.14	12.97
388.35	45.74
388.56	105.13
388.769	117.42
388.979	-5.46
389.189	90.79
389.399	58.03
389.609	60.07
389.818	68.27
390.028	76.46
390.238	68.27
390.447	23.21
390.657	76.46
390.867	88.75
391.076	62.12
391.286	25.26
391.496	115.37
391.705	37.55
391.915	133.8
392.125	103.08
392.334	41.64
392.544	62.12
392.753	-19.8
392.963	51.88
393.172	101.03
393.382	10.92
393.591	127.66
393.801	101.03
394.01	78.51
394.22	111.27
394.429	166.57
394.639	127.66
394.848	92.84
395.058	127.66
395.267	47.79
395.477	92.84
395.686	74.41
395.895	174.76
396.105	185
396.314	29.35
396.524	92.84
396.733	68.27
396.942	141.99
397.152	23.21
397.361	103.08
397.57	123.56
397.78	117.42
397.989	185
398.198	185
398.407	166.57
398.617	123.56
398.826	64.17
399.035	51.88
399.244	103.08
399.453	60.07
399.663	121.51
399.872	139.94
400.081	162.47
400.29	103.08
400.499	123.56
400.708	197.29
400.917	53.93
401.127	131.75
401.336	31.4
401.545	94.89
401.754	197.29
401.963	68.27
402.172	68.27
402.381	150.18
402.59	109.22
402.799	174.76
403.008	119.46
403.217	107.18
403.426	170.66
403.635	103.08
403.844	37.55
404.053	148.14
404.262	96.94
404.471	180.9
404.68	127.66
404.888	211.62
405.097	129.7
405.306	193.19
405.515	182.95
405.724	164.52
405.933	223.91
406.142	258.73
406.35	182.95
406.559	162.47
406.768	199.34
406.977	225.96
407.185	174.76
407.394	201.38
407.603	160.42
407.812	268.97
408.02	268.97
408.229	295.59
408.438	266.92
408.646	207.53
408.855	328.36
409.064	256.68
409.272	250.53
409.481	305.83
409.69	242.34
409.898	248.49
410.107	266.92
410.315	334.5
410.524	291.49
410.733	361.13
410.941	303.78
411.15	363.17
411.358	412.32
411.567	391.84
411.775	408.23
411.984	455.33
412.192	543.39
412.401	432.8
412.609	543.39
412.818	555.68
413.026	484
413.234	533.15
413.443	535.2
413.651	551.59
413.86	629.41
414.068	715.42
414.276	688.8
414.485	658.08
414.693	676.51
414.901	832.16
415.11	832.16
415.318	731.81
415.526	817.82
415.734	817.82
415.943	809.63
416.151	1006.24
416.359	948.89
416.567	963.23
416.776	1147.55
416.984	1020.57
417.192	1028.76
417.4	1063.58
417.608	1028.76
417.817	1141.4
418.025	1155.74
418.233	1329.81
418.441	1237.66
418.649	1198.74
418.857	1389.21
419.065	1395.35
419.273	1389.21
419.481	1585.81
419.689	1485.46
419.897	1567.38
420.105	1594
420.313	1788.56
420.521	1747.6
420.729	1784.46
420.937	1854.09
421.145	1929.87
421.353	2009.74
421.561	2177.67
421.769	2054.8
421.977	2165.39
422.185	2214.54
422.393	2255.5
422.601	2527.88
422.809	2529.92
423.017	2497.16
423.224	2747.01
423.432	2738.82
423.64	2722.43
423.848	2994.81
424.056	2800.26
424.263	3080.83
424.471	3134.07
424.679	3089.02
424.887	3263.1
425.094	3553.91
425.302	3437.17
425.51	3478.13
425.718	3617.4
425.925	3803.76
426.133	3867.25
426.341	3926.64
426.548	4139.63
426.756	4141.68
426.964	4209.26
427.171	4610.66
427.379	4614.76
427.586	4739.68
427.794	4778.59
428.001	5106.27
428.209	5446.23
428.417	5251.67
428.624	5628.5
428.832	5691.99
429.039	5618.26
429.247	5659.22
429.454	5986.9
429.662	6498.89
429.869	6081.1
430.076	6482.5
430.284	6330.95
430.491	6816.32
430.699	6863.43
430.906	6834.75
431.114	6877.76
431.321	7414.33
431.528	7457.34
431.736	7998
431.943	8374.83
432.15	7895.6
432.358	8235.56
432.565	8641.06
432.772	8534.57
432.979	9034.27
433.187	9237.02
433.394	9046.56
433.601	9869.84
433.808	9861.65
434.016	9687.57
434.223	10209.81
434.43	10940.93
434.637	10369.55
434.844	11311.61
435.052	11178.5
435.259	11299.33
435.466	11479.55
435.673	11229.7
435.88	12005.88
436.087	12497.39
436.294	12691.94
436.501	12188.14
436.708	12528.11
436.915	12929.51
437.122	13611.48
437.329	13621.72
437.537	13842.9
437.743	14019.03
437.95	13969.88
438.157	14891.46
438.364	15210.95
438.571	15016.39
438.778	15512
438.985	16697.77
439.192	15958.46
439.399	16861.61
439.606	16157.11
439.813	16796.07
440.02	17957.27
440.227	17803.67
440.433	17727.9
440.64	18233.75
440.847	18108.82
441.054	18450.83
441.261	19802.49
441.467	19263.88
441.674	19675.52
441.881	20664.69
442.088	20234.61
442.294	20261.24
442.501	20644.21
442.708	21221.73
442.914	22151.51
443.121	23079.24
443.328	22497.62
443.534	24002.88
443.741	22995.28
443.948	22950.22
444.154	24848.69
444.361	24500.53
444.568	24469.81
444.774	24455.48
444.981	24916.27
445.187	25714.98
445.394	26497.3
445.6	26044.7
445.807	28766.45
446.013	27392.26
446.22	28031.23
446.426	29462.76
446.633	29485.29
446.839	30441.69
447.046	29268.2
447.252	30849.24
447.459	31119.57
447.665	30703.83
447.871	32217.28
448.078	33159.34
448.284	31989.95
448.491	32807.09
448.697	34037.92
448.903	34484.38
449.11	35039.38
449.316	33792.17
449.522	34361.5
449.728	35510.41
449.935	35942.53
450.141	35672.2
450.347	36876.41
450.553	35549.32
450.76	35868.81
450.966	37189.75
451.172	36665.47
451.378	37677.16
451.584	36636.8
451.791	37572.72
451.997	37621.87
452.203	38260.83
452.409	38379.62
452.615	37699.69
452.821	36634.75
453.027	36315.26
453.233	38338.66
453.44	36452.48
453.646	36847.74
453.852	36958.33
454.058	37666.92
454.264	36290.69
454.47	37183.6
454.676	35942.53
454.882	37505.13
455.088	33939.62
455.294	34742.42
455.5	35059.86
455.705	35537.04
455.911	33949.86
456.117	33300.65
456.323	33005.75
456.529	31408.33
456.735	32551.1
456.941	31975.62
457.147	31437
457.352	30642.39
457.558	29743.33
457.764	29927.65
457.97	29423.85
458.176	28856.56
458.381	28690.68
458.587	27234.57
458.793	27197.71
458.999	25987.36
459.204	27726.08
459.41	27087.12
459.616	25227.56
459.821	25123.12
460.027	24895.79
460.233	24705.33
460.438	23521.6
460.644	23306.57
460.85	22448.47
461.055	21938.52
461.261	22047.07
461.466	20474.23
461.672	19755.39
461.878	21393.76
462.083	19698.05
462.289	19345.8
462.494	19165.57
462.7	18162.07
462.905	17748.38
463.111	18463.12
463.316	18647.44
463.522	18102.68
463.727	18002.33
463.932	17865.11
464.138	17983.9
464.343	17838.49
464.549	17289.63
464.754	17891.74
464.959	17525.15
465.165	17680.8
465.37	16796.07
465.575	16568.75
465.781	17062.31
465.986	17009.06
466.191	16605.61
466.397	16413.1
466.602	15399.36
466.807	15962.55
467.012	15886.78
467.218	16001.46
467.423	15868.34
467.628	15573.44
467.833	16433.58
468.038	15790.52
468.244	15428.03
468.449	16071.09
468.654	15182.28
468.859	15223.23
469.064	15010.25
469.269	14588.36
469.474	14752.2
469.679	14791.11
469.885	14518.73
470.09	14578.12
470.295	14582.22
470.5	14348.75
470.705	14348.75
470.91	13980.12
471.115	13717.98
471.32	14236.11
471.525	13953.49
471.73	13730.27
471.935	13273.57
472.139	13126.11
472.344	13091.3
472.549	12876.26
472.754	13101.54
472.959	12800.49
473.164	12624.36
473.369	12450.28
473.574	13007.33
473.778	12438
473.983	12388.85
474.188	12747.24
474.393	11971.06
474.598	11850.23
474.802	11848.18
475.007	11688.44
475.212	11411.96
475.417	11393.53
475.621	11315.71
475.826	11262.46
476.031	11190.78
476.235	10897.92
476.44	11115.01
476.645	10689.03
476.849	10840.58
477.054	10670.6
477.259	10314.25
477.463	10428.94
477.668	10193.42
477.872	10365.45
478.077	10154.51
478.282	9923.09
478.486	9779.73
478.691	9734.68
478.895	9763.35
479.1	9685.53
479.304	9779.73
479.509	9392.67
479.713	9736.73
479.918	9402.91
480.122	9333.28
480.326	9366.04
480.531	9314.84
480.735	9230.88
480.94	9028.13
481.144	9560.6
481.348	9042.46
481.553	9144.86
481.757	9132.58
481.961	9013.79
482.166	9220.64
482.37	9069.09
482.574	9077.28
482.778	9026.08
482.983	8997.41
483.187	8915.49
483.391	9052.7
483.595	8798.76
483.8	8841.76
484.004	8972.83
484.208	8968.74
484.412	8825.38
484.616	8866.34
484.821	9058.85
485.025	8745.51
485.229	8946.21
485.433	8794.66
485.637	8960.55
485.841	8718.89
486.045	8933.92
486.249	8718.89
486.453	8651.3
486.657	8983.07
486.861	8841.76
487.065	8866.34
487.269	8888.87
487.473	8727.08
487.677	8852
487.881	8983.07
488.085	8765.99
488.289	8985.12
488.493	8935.97
488.697	8876.58
488.901	8911.39
489.105	8847.91
489.309	8956.45
489.512	8940.07
489.716	8841.76
489.92	9015.84
490.124	8702.5
490.328	8931.87
490.531	8958.5
490.735	8960.55
490.939	9105.95
491.143	9036.32
491.346	9015.84
491.55	9064.99
491.754	9032.22
491.958	8933.92
492.161	8929.83
492.365	9177.63
492.569	9259.55
492.772	9259.55
492.976	9108
493.18	9234.97
493.383	9695.77
493.587	9300.51
493.79	9425.43
493.994	9214.49
494.197	9554.46
494.401	9583.13
494.605	9548.31
494.808	9622.04
495.012	9755.16
495.215	9720.34
495.419	9720.34
495.622	9894.42
495.825	9996.82
496.029	9996.82
496.232	10023.44
496.436	9941.52
496.639	10355.21
496.843	10240.53
497.046	10473.99
497.249	10521.1
497.453	10469.9
497.656	10717.7
497.859	10529.29
498.063	10791.43
498.266	10887.68
498.469	10988.03
498.673	11186.69
498.876	11121.15
499.079	11424.25
499.282	11217.41
499.485	11545.08
499.689	11432.44
499.892	11686.39
500.095	11522.55
500.298	12009.97
500.501	11784.69
500.705	12403.18
500.908	12265.97
501.111	12524.01
501.314	12593.64
501.517	12671.47
501.72	12745.19
501.923	12706.28
502.126	13033.96
502.329	13111.78
502.532	13349.34
502.735	13451.74
502.938	13685.21
503.141	13525.47
503.344	13969.88
503.547	13781.46
503.75	13849.05
503.953	14170.58
504.156	14268.88
504.359	14297.55
504.562	14543.31
504.765	14678.47
504.968	14813.64
505.17	14913.99
505.373	15079.88
505.576	15423.94
505.779	15446.46
505.982	15550.91
506.185	15829.43
506.387	15743.42
506.59	16079.29
506.793	16263.6
506.996	16298.42
507.198	16767.4
507.401	16738.73
507.604	16906.66
507.807	17105.32
508.009	17088.93
508.212	17224.1
508.415	17740.19
508.617	17379.75
508.82	17725.85
509.022	17768.86
509.225	18252.18
509.428	18303.38
509.63	18426.26
509.833	18440.59
510.035	19161.48
510.238	18692.49
510.44	19194.25
510.643	19485.06
510.845	19655.04
511.048	19571.07
511.25	19612.03
511.453	20074.87
511.655	20638.06
511.858	20177.27
512.06	20404.6
512.262	20806
512.465	21047.66
512.667	21123.43
512.87	21254.5
513.072	21444.96
513.274	21872.99
513.477	21799.26
513.679	22038.87
513.881	22509.91
514.084	22473.04
514.286	22737.23
514.488	22690.13
514.69	23310.66
514.893	23163.21
515.095	23128.39
515.297	23482.69
515.499	23705.92
515.701	24213.82
515.904	24316.22
516.106	24303.93
516.308	24650.03
516.51	24963.37
516.712	24725.81
516.914	25289
517.116	25440.55
517.318	25456.93
517.52	25858.34
517.722	25637.16
517.925	25995.55
518.127	26589.46
518.329	26568.98
518.531	26054.94
518.733	26861.84
518.935	27103.5
519.136	27085.07
519.338	27427.08
519.54	27517.19
519.742	27750.66
519.944	27650.31
520.146	28410.11
520.348	28088.57
520.55	28528.89
520.752	28594.42
520.954	28999.92
521.155	29040.88
521.357	28844.27
521.559	29429.99
521.761	29403.37
521.963	29341.93
522.164	29608.17
522.366	29589.74
522.568	29997.28
522.77	29948.13
522.971	30195.93
523.173	30269.66
523.375	30611.67
523.576	30525.66
523.778	30159.07
523.98	30914.77
524.181	31029.46
524.383	30892.24
524.584	31246.54
524.786	31031.51
524.988	30970.07
525.189	31107.28
525.391	31518.92
525.592	31367.37
525.794	31903.94
525.995	31686.86
526.197	31578.31
526.398	31709.38
526.6	31797.45
526.801	32012.48
527.003	31996.1
527.204	31733.96
527.406	32061.63
527.607	32190.66
527.808	32342.21
528.01	31533.26
528.211	31992
528.412	32749.75
528.614	32454.84
528.815	31758.53
529.016	32364.73
529.218	31942.85
529.419	32123.07
529.62	31953.09
529.822	31793.35
530.023	31791.3
530.224	32284.86
530.425	31918.28
530.626	31725.77
530.828	31633.61
531.029	32321.73
531.23	31553.74
531.431	31828.16
531.632	31523.02
531.833	32018.63
532.035	31596.74
532.236	31850.69
532.437	31865.03
532.638	31590.6
532.839	31791.3
533.04	31740.1
533.241	31350.99
533.442	31873.22
533.643	31594.7
533.844	31379.66
534.045	31662.28
534.246	31058.13
534.447	31537.35
534.648	31295.69
534.849	31353.04
535.05	31226.06
535.251	31174.86
535.451	30972.11
535.652	31504.59
535.853	31049.94
536.054	31514.83
536.255	31142.1
536.456	30865.62
536.657	31219.92
536.857	30974.16
537.058	30986.45
537.259	30918.87
537.46	31039.7
537.66	30841.04
537.861	30836.95
538.062	30922.96
538.263	30945.49
538.463	30484.7
538.664	30482.65
538.865	30560.47
539.065	30734.55
539.266	30267.61
539.466	30552.28
539.667	30159.07
539.868	30486.75
540.068	30462.17
540.269	30630.1
540.469	30709.97
540.67	30370.01
540.87	30400.73
541.071	30204.13
541.271	30474.46
541.472	30413.02
541.672	30177.5
541.873	30314.72
542.073	29776.1
542.274	30234.85
542.474	30132.45
542.675	29939.94
542.875	30218.46
543.075	30279.9
543.276	29739.24
543.476	30306.52
543.676	29984.99
543.877	29909.22
544.077	30421.21
544.277	29907.17
544.478	30073.06
544.678	30331.1
544.878	30087.39
545.078	29866.21
545.279	29837.54
545.479	29731.04
545.679	30189.79
545.879	29587.69
546.079	29960.42
546.28	29931.75
546.48	29739.24
546.68	29847.78
546.88	30232.8
547.08	29792.48
547.28	30099.68
547.48	29448.43
547.68	29714.66
547.88	29694.18
548.081	29855.97
548.281	29540.58
548.481	29726.95
548.681	29671.65
548.881	29931.75
549.081	29860.07
549.28	29812.96
549.48	29903.07
549.68	29948.13
549.88	30476.51
550.08	29528.3
550.28	29835.49
550.48	29270.25
550.68	29911.27
550.88	29769.96
551.08	29954.27
551.279	30048.48
551.479	29452.52
551.679	30007.52
551.879	30105.82
552.079	30286.04
552.278	29767.91
552.478	30034.14
552.678	30148.83
552.878	30193.89
553.077	29753.57
553.277	29831.4
553.477	30269.66
553.676	30265.56
553.876	30161.12
554.076	29966.56
554.275	30150.88
554.475	29685.99
554.674	29851.88
554.874	30009.57
555.074	29808.87
555.273	30171.36
555.473	30646.49
555.672	30118.11
555.872	30103.78
556.071	29958.37
556.271	30558.42
556.47	30169.31
556.67	29790.44
556.869	30028
557.068	30378.2
557.268	30005.47
557.467	30359.77
557.667	30226.65
557.866	30050.53
558.065	30445.79
558.265	30245.09
558.464	29798.63
558.663	30425.31
558.863	29901.03
559.062	30494.94
559.261	30163.17
559.461	30525.66
559.66	30087.39
559.859	30564.57
560.058	30130.4
560.258	30410.97
560.457	29845.73
560.656	30320.86
560.855	30251.23
561.054	30339.29
561.253	29806.82
561.453	30484.7
561.652	30349.53
561.851	30265.56
562.05	29896.93
562.249	30206.17
562.448	30583
562.647	29980.9
562.846	29989.09
563.045	30345.44
563.244	29901.03
563.443	30290.14
563.642	29964.51
563.841	30013.66
564.04	30197.98
564.239	30378.2
564.438	29667.56
564.637	29690.09
564.836	29978.85
565.035	29743.33
565.234	30230.75
565.432	29708.52
565.631	29640.93
565.83	29923.55
566.029	29677.8
566.228	29548.78
566.427	29683.94
566.625	29520.1
566.824	29120.75
567.023	29659.37
567.222	28981.49
567.42	29516.01
567.619	29432.04
567.818	29192.43
568.016	29051.12
568.215	29327.6
568.414	29096.17
568.612	29534.44
568.811	29108.46
569.01	29217
569.208	28850.42
569.407	29034.74
569.605	28727.54
569.804	29077.74
570.002	28692.72
570.201	28754.16
570.4	28563.7
570.598	28483.83
570.797	28389.63
570.995	28500.22
571.193	28129.53
571.392	28905.71
571.59	28066.05
571.789	28588.28
571.987	28440.82
572.186	28018.94
572.384	27818.24
572.582	28084.48
572.781	27937.02
572.979	27543.81
573.177	27863.3
573.376	27701.51
573.574	27584.77
573.772	27668.74
573.971	27410.7
574.169	27210
574.367	27214.09
574.565	27416.84
574.763	27058.45
574.962	26951.95
575.16	26913.04
575.358	27164.94
575.556	26923.28
575.754	27271.43
575.952	26800.4
576.151	26769.68
576.349	26708.24
576.547	26323.22
576.745	26624.28
576.943	26603.8
577.141	26382.62
577.339	26259.74
577.537	26310.94
577.735	25962.78
577.933	25837.86
578.131	25917.73
578.329	25983.26
578.527	25612.58
578.725	25907.49
578.923	25864.48
579.121	25719.07
579.319	25704.74
579.516	25792.8
579.714	25485.61
579.912	25878.82
580.11	25151.79
580.308	25504.04
580.506	25129.26
580.704	25186.6
580.901	25514.28
581.099	25139.5
581.297	24906.03
581.495	24899.89
581.692	24893.74
581.89	24631.6
582.088	25108.78
582.285	24480.05
582.483	24873.26
582.681	24478.01
582.878	24131.9
583.076	24420.66
583.274	24342.84
583.471	24459.57
583.669	24252.73
583.866	24158.52
584.064	24158.52
584.262	24084.8
584.459	24461.62
584.657	23957.82
584.854	24052.03
585.052	23560.52
585.249	23775.55
585.447	23949.63
585.644	23343.43
585.841	23806.27
586.039	23697.73
586.236	23785.79
586.434	23488.84
586.631	23478.6
586.828	23351.62
587.026	23615.81
587.223	23220.55
587.42	23015.76
587.618	23136.59
587.815	22933.84
588.012	22843.73
588.21	22995.28
588.407	22960.46
588.604	22985.04
588.801	22595.92
588.999	22894.93
589.196	22905.17
589.393	22731.09
589.59	22669.65
589.787	22413.65
589.984	22409.56
590.182	22258.01
590.379	22647.12
590.576	22516.05
590.773	22548.82
590.97	22493.52
591.167	22352.21
591.364	22028.63
591.561	22171.99
591.758	21973.34
591.955	22358.36
592.152	21883.23
592.349	21973.34
592.546	22092.12
592.743	22276.44
592.94	21836.13
593.137	22317.4
593.334	21997.92
593.531	21842.27
593.727	21801.31
593.924	21907.8
594.121	21588.32
594.318	21815.65
594.515	21508.45
594.712	21827.93
594.908	21717.34
595.105	22038.87
595.302	21610.85
595.499	21766.49
595.696	21662.05
595.892	21367.14
596.089	21518.69
596.286	21621.09
596.482	21649.76
596.679	21614.94
596.876	21277.03
597.072	21348.71
597.269	21352.8
597.466	21277.03
597.662	21459.3
597.859	21655.9
598.055	21236.07
598.252	21438.82
598.448	21494.11
598.645	21317.99
598.841	21213.54
599.038	21471.59
599.234	21467.49
599.431	21236.07
599.627	21563.75
599.824	21389.67
600.02	21348.71
600.217	21301.61
600.413	21358.95
600.609	21471.59
600.806	21625.18
601.002	21211.49
601.198	21520.74
601.395	21252.45
601.591	21367.14
601.787	21412.2
601.984	21383.52
602.18	21774.69
602.376	21602.66
602.572	21442.92
602.769	21481.83
602.965	21680.48
603.161	21901.66
603.357	21631.33
603.553	21610.85
603.75	22053.21
603.946	21408.1
604.142	21797.21
604.338	21627.23
604.534	21752.16
604.73	21748.06
604.926	21711.2
605.122	21737.82
605.318	21899.61
605.514	21760.35
605.71	21905.76
605.906	21981.53
606.102	22161.75
606.298	22335.83
606.494	22243.67
606.69	22026.59
606.886	22313.3
607.082	22229.34
607.278	22165.85
607.474	21991.77
607.67	22305.11
607.866	21938.52
608.062	22579.54
608.257	22628.69
608.453	22534.48
608.649	22542.67
608.845	22372.69
609.041	22249.82
609.236	22841.68
609.432	22690.13
609.628	22731.09
609.824	22522.19
610.019	22382.93
610.215	22817.1
610.411	22798.67
610.606	22679.89
610.802	22876.49
610.998	22997.32
611.193	23253.32
611.389	22583.63
611.584	23175.5
611.78	23015.76
611.976	22962.51
612.171	22968.65
612.367	22989.13
612.562	23093.58
612.758	22954.32
612.953	23015.76
613.149	23443.78
613.344	23097.67
613.539	23220.55
613.735	23308.61
613.93	23443.78
614.126	23611.71
614.321	23533.89
614.517	23456.07
614.712	23417.16
614.907	23437.64
615.103	23611.71
615.298	23390.53
615.493	23490.88
615.688	22960.46
615.884	23806.27
616.079	23345.48
616.274	23392.58
616.47	23441.73
616.665	23607.62
616.86	23511.36
617.055	23580.99
617.25	23267.66
617.445	23750.98
617.641	23177.54
617.836	23370.05
618.031	23228.74
618.226	23675.2
618.421	23333.19
618.616	23310.66
618.811	23114.06
619.006	23361.86
619.201	23208.26
619.396	23208.26
619.591	22952.27
619.786	23333.19
619.981	22645.07
620.176	23124.3
620.371	22610.26
620.566	22907.21
620.761	22591.83
620.956	22997.32
621.151	22397.27
621.346	22675.79
621.541	22188.38
621.735	22595.92
621.93	22098.27
622.125	22139.22
622.32	22122.84
622.515	22018.39
622.709	21795.17
622.904	22165.85
623.099	21688.67
623.294	21813.6
623.488	21401.96
623.683	21709.15
623.878	21520.74
624.072	21606.75
624.267	21426.53
624.462	21170.54
624.656	20916.59
624.851	21059.95
625.046	21016.94
625.24	20529.52
625.435	20851.05
625.629	20975.98
625.824	20994.41
626.018	20758.89
626.213	19956.09
626.407	20449.65
626.602	20132.22
626.796	20277.62
626.991	19990.91
627.185	20062.58
627.38	19937.66
627.574	19532.16
627.768	19581.31
627.963	19444.1
628.157	19372.42
628.352	19575.17
628.546	19009.93
628.74	19382.66
628.935	18983.31
629.129	19237.25
629.323	18596.24
629.517	18885
629.712	18723.21
629.906	18594.19
630.1	18540.94
630.294	18520.46
630.489	18416.02
630.683	18442.64
630.877	18198.93
631.071	18024.86
631.265	18160.02
631.459	17838.49
631.653	17951.13
631.848	17992.09
632.042	17578.4
632.236	17807.77
632.43	17527.2
632.624	17674.65
632.818	17471.9
633.012	17074.6
633.206	17295.78
633.4	17492.38
633.594	16996.78
633.788	16935.34
633.982	17123.75
634.176	17000.87
634.369	16882.09
634.563	16748.97
634.757	16605.61
634.951	16636.33
635.145	16601.52
635.339	16421.3
635.533	16263.6
635.726	16290.23
635.92	15765.95
636.114	15960.5
636.308	16017.85
636.501	15931.83
636.695	15632.83
636.889	15718.84
637.083	15634.88
637.276	15460.8
637.47	15350.21
637.664	15428.03
637.857	15262.15
638.051	15399.36
638.244	14946.76
638.438	14971.33
638.632	14813.64
638.825	14791.11
639.019	14887.37
639.212	14612.94
639.406	14576.08
639.599	14412.24
639.793	14397.9
639.986	14172.63
640.18	14268.88
640.373	14156.24
640.567	13824.47
640.76	13844.95
640.954	13619.67
641.147	13701.59
641.34	13580.76
641.534	13752.79
641.727	13504.99
641.92	13566.43
642.114	13191.65
642.307	13439.45
642.5	13396.45
642.694	12962.28
642.887	13175.27
643.08	13119.97
643.273	12935.65
643.467	12995.04
643.66	12587.5
643.853	12737
644.046	12657.13
644.239	12507.63
644.432	12509.68
644.626	12425.71
644.819	12366.32
645.012	12255.73
645.205	12235.25
645.398	11983.35
645.591	11983.35
645.784	11915.76
645.977	11598.33
646.17	11737.59
646.363	11477.5
646.556	11774.45
646.749	11565.56
646.942	11596.28
647.135	11565.56
647.328	11416.06
647.521	11299.33
647.714	11231.74
647.907	11135.49
648.099	10955.27
648.292	11184.64
648.485	10885.64
648.678	10867.2
648.871	10689.03
649.064	10834.44
649.256	10824.2
649.449	10664.46
649.642	10656.26
649.835	10410.51
650.027	10406.41
650.22	10459.66
650.413	10381.84
650.605	10377.74
650.798	10293.77
650.991	10113.55
651.183	10123.79
651.376	10148.37
651.568	9984.53
651.761	9931.28
651.954	9804.31
652.146	9980.43
652.339	9908.76
652.531	9665.05
652.724	9337.37
652.916	9386.52
653.109	9597.46
653.301	9595.42
653.494	9581.08
653.686	9243.17
653.879	9507.35
654.071	9312.8
654.263	9073.18
654.456	9308.7
654.648	9288.22
654.84	9155.1
655.033	9142.82
655.225	9234.97
655.417	8995.36
655.61	9087.52
655.802	9140.77
655.994	8874.53
656.186	8899.11
656.379	8907.3
656.571	8596.01
656.763	8555.05
656.955	8553
657.148	8712.74
657.34	8661.54
657.532	8301.1
657.724	8464.94
657.916	8407.59
658.108	8239.66
658.3	8254
658.492	8272.43
658.684	8188.46
658.876	8143.41
659.068	7936.56
659.26	7973.43
659.452	7899.7
659.644	7889.46
659.836	7836.21
660.028	7647.8
660.22	7799.35
660.412	7676.47
660.604	7703.09
660.796	7852.59
660.988	7713.33
661.18	7621.17
661.372	7428.67
661.563	7604.79
661.755	7580.21
661.947	7473.72
662.139	7389.75
662.331	7354.94
662.522	7354.94
662.714	7248.44
662.906	7219.77
663.097	7123.52
663.289	7199.29
663.481	7148.09
663.673	7076.41
663.864	6935.1
664.056	7139.9
664.247	6828.61
664.439	6844.99
664.631	6933.06
664.822	6883.91
665.014	6928.96
665.205	6779.46
665.397	6752.84
665.588	6799.94
665.78	6787.65
665.971	6672.96
666.163	6662.72
666.354	6482.5
666.546	6507.08
666.737	6500.94
666.929	6515.27
667.12	6367.82
667.311	6246.99
667.503	6181.45
667.694	6412.87
667.885	6339.15
668.077	6496.84
668.268	6269.51
668.459	6263.37
668.651	6175.31
668.842	6163.02
669.033	5995.09
669.224	6148.68
669.416	6294.09
669.607	6111.82
669.798	6040.14
669.989	5950.03
670.18	6066.77
670.371	5894.74
670.563	5859.92
670.754	5886.54
670.945	5786.19
671.136	6001.23
671.327	5739.09
671.518	5737.04
671.709	5818.96
671.9	5659.22
672.091	5775.95
672.282	5689.94
672.473	5667.41
672.664	5786.19
672.855	5548.63
673.046	5730.9
673.237	5651.03
673.428	5589.59
673.619	5599.83
673.809	5565.01
674	5577.3
674.191	5333.59
674.382	5470.81
674.573	5474.9
674.764	5499.48
674.954	5335.64
675.145	5384.79
675.336	5403.22
675.527	5423.7
675.717	5343.83
675.908	5210.72
676.099	5577.3
676.289	5380.7
676.48	5327.45
676.671	5229.15
676.861	5151.32
677.052	5261.91
677.243	5302.87
677.433	5198.43
677.624	5188.19
677.814	5218.91
678.005	5042.78
678.195	5229.15
678.386	5200.48
678.576	5057.12
678.767	5147.23
678.957	5231.19
679.148	5159.52
679.338	5298.78
679.529	5253.72
679.719	5200.48
679.909	5231.19
680.1	5089.88
680.29	5184.09
680.481	5114.46
680.671	5204.57
680.861	4987.49
681.052	5259.87
681.242	4958.81
681.432	5040.73
681.622	4995.68
681.813	4969.05
682.003	5098.08
682.193	5071.45
682.383	4973.15
682.573	5059.17
682.764	5028.45
682.954	5032.54
683.144	4878.94
683.334	4950.62
683.524	4993.63
683.714	5003.87
683.904	4960.86
684.094	4919.9
684.284	5134.94
684.474	5085.79
684.664	4901.47
684.854	4977.25
685.044	4997.73
685.234	4960.86
685.424	4934.24
685.614	4909.66
685.804	4913.76
685.994	4749.92
686.184	4954.72
686.374	4934.24
686.564	4854.37
686.753	4729.44
686.943	4846.18
687.133	4930.14
687.323	4889.18
687.513	4921.95
687.702	4878.94
687.892	4766.31
688.082	4723.3
688.272	4840.03
688.461	4754.02
688.651	4827.74
688.841	4622.95
689.03	4788.83
689.22	4694.63
689.41	4815.46
689.599	4635.24
689.789	4758.11
689.979	4672.1
690.168	4543.08
690.358	4641.38
690.547	4629.09
690.737	4768.35
690.926	4715.11
691.116	4463.21
691.305	4541.03
691.495	4702.82
691.684	4532.84
691.874	4608.61
692.063	4536.93
692.252	4731.49
692.442	4452.97
692.631	4461.16
692.82	4581.99
693.01	4602.47
693.199	4430.44
693.388	4446.82
693.578	4369
693.767	4516.45
693.956	4287.08
694.146	4350.57
694.335	4493.93
694.524	4293.23
694.713	4491.88
694.902	4354.66
695.092	4444.77
695.281	4297.32
695.47	4446.82
695.659	4377.19
695.848	4229.74
696.037	4352.62
696.226	4330.09
696.415	4252.27
696.604	4328.04
696.793	4377.19
696.982	4330.09
697.171	4280.94
697.36	4121.2
697.549	4209.26
697.738	4291.18
697.927	4248.17
698.116	4211.31
698.305	4272.75
698.494	4180.59
698.683	4192.87
698.872	4153.96
699.061	4135.53
699.25	4033.13
699.438	4203.11
699.627	4246.12
699.816	4033.13
700.005	4203.11
700.193	4115.05
700.382	4168.3
700.571	4125.29
700.76	4080.24
700.948	4033.13
701.137	4031.09
701.326	4123.24
701.514	3902.06
701.703	4016.75
701.892	3961.45
702.08	4010.61
702.269	3975.79
702.457	3895.92
702.646	4110.96
702.834	3910.26
703.023	3816.05
703.212	3861.1
703.4	3838.58
703.589	3785.33
703.777	3949.17
703.965	3869.3
704.154	3869.3
704.342	3791.47
704.531	3717.75
704.719	3820.14
704.907	3859.06
705.096	3689.07
705.284	3828.34
705.472	3844.72
705.661	3725.94
705.849	3861.1
706.037	3601.01
706.226	3709.55
706.414	3736.18
706.602	3633.78
706.79	3861.1
706.979	3619.44
707.167	3658.35
707.355	3615.35
707.543	3555.96
707.731	3668.59
707.919	3578.48
708.107	3568.24
708.296	3623.54
708.484	3625.59
708.672	3592.82
708.86	3478.13
709.048	3338.87
709.236	3566.2
709.424	3431.03
709.612	3553.91
709.8	3480.18
709.988	3402.36
710.176	3529.33
710.364	3394.17
710.551	3480.18
710.739	3476.09
710.927	3433.08
711.115	3394.17
711.303	3459.7
711.491	3375.74
711.679	3476.09
711.866	3418.74
712.054	3330.68
712.242	3299.96
712.43	3361.4
712.617	3345.02
712.805	3244.67
712.993	3355.26
713.181	3295.86
713.368	3148.41
713.556	3336.82
713.744	3357.3
713.931	3314.3
714.119	3201.66
714.306	3109.5
714.494	3048.06
714.682	3295.86
714.869	3310.2
715.057	3314.3
715.244	3134.07
715.432	3226.23
715.619	3148.41
715.807	3095.16
715.994	3129.98
716.182	3050.11
716.369	3041.92
716.556	3129.98
716.744	3150.46
716.931	3134.07
717.119	3084.92
717.306	3046.01
717.493	3058.3
717.681	2960
717.868	3066.49
718.055	3005.05
718.242	3113.6
718.43	3013.24
718.617	3066.49
718.804	2804.35
718.991	3029.63
719.179	3029.63
719.366	2912.89
719.553	2878.08
719.74	2978.43
719.927	2814.59
720.114	2853.5
720.301	2835.07
720.488	2853.5
720.676	2763.39
720.863	2914.94
721.05	2861.69
721.237	2800.26
721.424	2951.81
721.611	2910.85
721.798	2845.31
721.985	2695.81
722.172	2665.09
722.358	2591.36
722.545	2732.67
722.732	2708.1
722.919	2720.39
723.106	2835.07
723.293	2734.72
723.48	2765.44
723.667	2560.64
723.853	2773.63
724.04	2648.71
724.227	2607.75
724.414	2794.11
724.6	2712.19
724.787	2650.75
724.974	2667.14
725.161	2716.29
725.347	2638.47
725.534	2534.02
725.72	2599.56
725.907	2574.98
726.094	2665.09
726.28	2499.2
726.467	2617.99
726.653	2480.77
726.84	2624.13
727.027	2517.64
727.213	2581.12
727.4	2562.69
727.586	2562.69
727.773	2597.51
727.959	2458.25
728.145	2591.36
728.332	2472.58
728.518	2517.64
728.705	2484.87
728.891	2536.07
729.077	2460.29
729.264	2464.39
729.45	2388.61
729.636	2480.77
729.823	2390.66
730.009	2460.29
730.195	2394.76
730.382	2427.53
730.568	2314.89
730.754	2388.61
730.94	2460.29
731.126	2343.56
731.313	2435.72
731.499	2359.94
731.685	2314.89
731.871	2361.99
732.057	2349.7
732.243	2339.46
732.429	2407.05
732.615	2359.94
732.801	2435.72
732.987	2198.15
733.173	2308.74
733.359	2200.2
733.545	2351.75
733.731	2220.68
733.917	2329.22
734.103	2206.34
734.289	2265.74
734.475	2196.11
734.661	2304.65
734.847	2321.03
735.033	2312.84
735.219	2329.22
735.404	2124.43
735.59	2224.78
735.776	2165.39
735.962	2202.25
736.148	2218.63
736.333	2308.74
736.519	2149
736.705	2124.43
736.89	2165.39
737.076	2140.81
737.262	2122.38
737.447	2134.67
737.633	2146.95
737.819	2124.43
738.004	2091.66
738.19	2060.94
738.375	2062.99
738.561	2099.85
738.747	2130.57
738.932	2013.84
739.118	2183.82
739.303	2058.89
739.489	2067.08
739.674	1950.35
739.859	1987.21
740.045	2019.98
740.23	1979.02
740.416	1946.25
740.601	2060.94
740.786	2075.28
740.972	1856.14
741.157	1960.59
741.342	1913.49
741.528	1882.77
741.713	1950.35
741.898	1985.16
742.084	1895.05
742.269	1962.64
742.454	1987.21
742.639	1895.05
742.824	1936.01
743.01	1915.53
743.195	1903.25
743.38	1827.47
743.565	1839.76
743.75	1841.81
743.935	1815.18
744.12	1899.15
744.305	1862.29
744.49	1890.96
744.675	1725.07
744.86	1792.66
745.045	1845.9
745.23	1837.71
745.415	1841.81
745.6	1663.63
745.785	1759.89
745.97	1692.3
746.155	1612.43
746.34	1776.27
746.525	1766.03
746.71	1739.41
746.895	1657.49
747.079	1700.5
747.264	1634.96
747.449	1649.3
747.634	1684.11
747.819	1608.34
748.003	1534.61
748.188	1596.05
748.373	1542.8
748.557	1602.19
748.742	1561.23
748.927	1528.47
749.111	1563.28
749.296	1542.8
749.481	1553.04
749.665	1530.52
749.85	1553.04
750.034	1495.7
750.219	1436.31
750.404	1417.88
750.588	1428.12
750.773	1456.79
750.957	1491.6
751.141	1497.75
751.326	1452.69
751.51	1358.49
751.695	1473.17
751.879	1350.29
752.064	1497.75
752.248	1469.08
752.432	1352.34
752.617	1368.73
752.801	1315.48
752.985	1241.75
753.17	1362.58
753.354	1419.92
753.538	1329.81
753.722	1309.33
753.907	1297.05
754.091	1272.47
754.275	1272.47
754.459	1272.47
754.643	1143.45
754.828	1387.16
755.012	1260.18
755.196	1270.42
755.38	1229.46
755.564	1215.13
755.748	1239.7
755.932	1225.37
756.116	1151.64
756.3	1192.6
756.484	1219.22
756.668	1133.21
756.852	1102.49
757.036	1165.98
757.22	1108.63
757.404	1055.39
757.588	1030.81
757.772	1143.45
757.956	1108.63
758.14	1059.48
758.323	1149.59
758.507	1079.96
758.691	1004.19
758.875	1159.83
759.059	1061.53
759.242	1047.19
759.426	1051.29
759.61	1030.81
759.794	1045.15
759.977	1061.53
760.161	1104.54
760.345	1127.07
760.528	971.42
760.712	996
760.895	1039
761.079	1030.81
761.263	1008.28
761.446	940.7
761.63	1053.34
761.813	930.46
761.997	993.95
762.18	977.56
762.364	912.03
762.547	957.08
762.731	1039
762.914	965.28
763.098	932.51
763.281	901.79
763.464	946.84
763.648	879.26
763.831	920.22
764.015	871.07
764.198	1000.09
764.381	899.74
764.564	965.28
764.748	922.27
764.931	936.6
765.114	858.78
765.297	871.07
765.481	864.93
765.664	854.69
765.847	981.66
766.03	952.99
766.213	774.81
766.397	940.7
766.58	877.21
766.763	846.49
766.946	862.88
767.129	895.64
767.312	903.84
767.495	914.08
767.678	740
767.861	823.97
768.044	797.34
768.227	836.25
768.41	803.49
768.593	823.97
768.776	830.11
768.959	805.53
769.142	860.83
769.324	830.11
769.507	842.4
769.69	725.66
769.873	713.38
770.056	858.78
770.239	770.72
770.421	821.92
770.604	846.49
770.787	772.77
770.97	821.92
771.152	717.47
771.335	838.3
771.518	756.38
771.7	846.49
771.883	768.67
772.066	664.22
772.248	776.86
772.431	783.01
772.613	805.53
772.796	746.14
772.978	815.77
773.161	731.81
773.343	764.57
773.526	797.34
773.708	707.23
773.891	703.14
774.073	658.08
774.256	633.51
774.438	660.13
774.621	656.03
774.803	709.28
774.985	733.86
775.168	715.42
775.35	645.79
775.532	635.55
775.715	625.31
775.897	660.13
776.079	737.95
776.261	625.31
776.444	629.41
776.626	567.97
776.808	582.31
776.99	567.97
777.173	610.98
777.355	533.15
777.537	684.7
777.719	608.93
777.901	596.64
778.083	606.88
778.265	549.54
778.447	621.22
778.629	520.87
778.811	635.55
778.993	615.07
779.175	570.02
779.357	578.21
779.539	572.07
779.721	684.7
779.903	602.79
780.085	563.87
780.267	594.59
780.449	473.76
780.631	574.11
780.812	592.55
780.994	535.2
781.176	535.2
781.358	461.48
781.54	518.82
781.721	481.96
781.903	502.43
782.085	428.71
782.267	527.01
782.448	512.67
782.63	455.33
782.812	473.76
782.993	469.67
783.175	545.44
783.357	481.96
783.538	432.8
783.72	412.32
783.901	502.43
784.083	432.8
784.264	465.57
784.446	387.75
784.627	410.28
784.809	477.86
784.99	430.76
785.172	445.09
785.353	486.05
785.535	445.09
785.716	424.61
785.897	432.8
786.079	416.42
786.26	453.28
786.441	430.76
786.623	410.28
786.804	359.08
786.985	383.65
787.167	422.56
787.348	434.85
787.529	441
787.71	359.08
787.891	404.13
788.073	336.55
788.254	305.83
788.435	332.45
788.616	383.65
788.797	283.3
788.978	326.31
789.159	350.89
789.34	379.56
789.522	365.22
789.703	359.08
789.884	330.41
790.065	338.6
790.246	451.24
790.427	316.07
790.607	330.41
790.788	375.46
790.969	314.02
791.15	285.35
791.331	303.78
791.512	346.79
791.693	318.12
791.874	258.73
792.054	318.12
792.235	346.79
792.416	256.68
792.597	354.98
792.778	289.45
792.958	330.41
793.139	299.69
793.32	326.31
793.5	316.07
793.681	283.3
793.862	316.07
794.042	314.02
794.223	297.64
794.404	275.11
794.584	230.06
794.765	256.68
794.945	285.35
795.126	266.92
795.306	256.68
795.487	225.96
795.667	299.69
795.848	295.59
796.028	240.3
796.209	330.41
796.389	309.93
796.57	307.88
796.75	271.01
796.93	191.14
797.111	305.83
797.291	297.64
797.471	236.2
797.652	318.12
797.832	254.63
798.012	338.6
798.192	215.72
798.373	250.53
798.553	256.68
798.733	240.3
798.913	209.58
799.093	207.53
799.274	354.98
799.454	258.73
799.634	277.16
799.814	234.15
799.994	207.53
800.174	207.53
800.354	244.39
800.534	232.1
800.714	285.35
800.894	234.15
801.074	207.53
801.254	189.1
801.434	258.73
801.614	240.3
801.794	133.8
801.974	936.6
802.154	164.52
802.334	236.2
802.514	121.51
802.693	254.63
802.873	144.04
803.053	250.53
803.233	207.53
803.413	207.53
803.592	207.53
803.772	201.38
803.952	191.14
804.131	156.33
804.311	209.58
804.491	240.3
804.67	152.23
804.85	166.57
805.03	203.43
805.209	185
805.389	152.23
805.568	248.49
805.748	133.8
805.928	193.19
806.107	78.51
806.287	129.7
806.466	193.19
806.646	146.09
806.825	185
807.004	256.68
807.184	248.49
807.363	191.14
807.543	187.05
807.722	211.62
807.901	156.33
808.081	199.34
808.26	168.62
808.439	215.72
808.619	117.42
808.798	152.23
808.977	185
809.156	137.9
809.336	250.53
809.515	215.72
809.694	152.23
809.873	156.33
810.052	109.22
810.231	217.77
810.411	123.56
810.59	256.68
810.769	158.38
810.948	123.56
811.127	150.18
811.306	129.7
811.485	113.32
811.664	262.82
811.843	47.79
812.022	199.34
812.201	150.18
812.38	152.23
812.559	139.94
812.737	141.99
812.916	109.22
813.095	133.8
813.274	121.51
813.453	152.23
813.632	209.58
813.811	164.52
813.989	84.65
814.168	117.42
814.347	84.65
814.526	131.75
814.704	219.82
814.883	141.99
815.062	207.53
815.24	141.99
815.419	121.51
815.598	150.18
815.776	162.47
815.955	121.51
816.133	35.5
816.312	60.07
816.49	160.42
816.669	170.66
816.847	141.99
817.026	127.66
817.204	55.98
817.383	141.99
817.561	43.69
817.74	125.61
817.918	119.46
818.097	74.41
818.275	76.46
818.453	170.66
818.632	119.46
818.81	86.7
818.988	109.22
819.167	119.46
819.345	51.88
819.523	127.66
819.701	105.13
819.879	135.85
820.058	51.88
820.236	119.46
820.414	70.31
820.592	113.32
820.77	111.27
820.948	72.36
821.127	125.61
821.305	76.46
821.483	19.11
821.661	123.56
821.839	119.46
822.017	94.89
822.195	127.66
822.373	117.42
822.551	117.42
822.729	174.76
822.907	125.61
823.085	60.07
823.262	103.08
823.44	43.69
823.618	133.8
823.796	76.46
823.974	10.92
824.152	64.17
824.329	51.88
824.507	127.66
824.685	103.08
824.863	51.88
825.04	82.6
825.218	64.17
825.396	105.13
825.574	96.94
825.751	117.42
825.929	109.22
826.107	80.55
826.284	146.09
826.462	215.72
826.639	109.22
826.817	115.37
826.994	39.59
827.172	68.27
827.349	109.22
827.527	109.22
827.704	35.5
827.882	133.8
828.059	78.51
828.237	64.17
828.414	58.03
828.591	33.45
828.769	51.88
828.946	8.87
829.124	62.12
829.301	80.55
829.478	105.13
829.655	53.93
829.833	-3.41
830.01	-9.56
830.187	103.08
830.364	109.22
830.542	41.64
830.719	154.28
830.896	62.12
831.073	80.55
831.25	23.21
831.427	88.75
831.604	51.88
831.782	82.6
831.959	60.07
832.136	47.79
832.313	170.66
832.49	21.16
832.667	101.03
832.844	27.31
833.021	43.69
833.198	27.31
833.374	113.32
833.551	39.59
833.728	139.94
833.905	84.65
834.082	-40.28
834.259	62.12
834.436	101.03
834.612	55.98
834.789	55.98
834.966	-5.46
835.143	43.69
835.319	19.11
835.496	33.45
835.673	60.07
835.85	88.75
836.026	96.94
836.203	125.61
836.38	-21.85
836.556	74.41
836.733	68.27
836.909	94.89
837.086	8.87
837.262	33.45
837.439	60.07
837.616	-5.46
837.792	84.65
837.968	51.88
838.145	-9.56
838.321	109.22
838.498	60.07
838.674	78.51
838.851	125.61
839.027	6.83
839.203	70.31
839.38	78.51
839.556	31.4
839.732	121.51
839.909	58.03
840.085	94.89
840.261	25.26
840.437	101.03
840.614	84.65
840.79	-58.71
840.966	10.92
841.142	76.46
841.318	43.69
841.494	135.85
841.671	39.59
841.847	10.92
842.023	70.31
842.199	111.27
842.375	111.27
842.551	41.64
842.727	86.7
842.903	78.51
843.079	37.55
843.255	78.51
843.431	84.65
843.607	25.26
843.783	12.97
843.959	29.35
844.134	-3.41
844.31	98.99
844.486	37.55
844.662	45.74
844.838	-5.46
845.013	29.35
845.189	53.93
845.365	37.55
845.541	8.87
845.716	43.69
845.892	27.31
846.068	23.21
846.244	-71
846.419	62.12
846.595	45.74
846.77	82.6
846.946	60.07
847.122	-11.61
847.297	96.94
847.473	84.65
847.648	60.07
847.824	92.84
847.999	-13.65
848.175	-30.04
848.35	90.79
848.526	29.35
848.701	51.88
848.876	53.93
849.052	43.69
849.227	2.73
849.403	47.79
849.578	43.69
849.753	35.5
849.929	60.07
850.104	37.55
850.279	60.07
850.454	58.03
850.63	94.89
850.805	94.89
850.98	31.4
851.155	66.22
851.33	-19.8
851.505	-9.56
851.681	64.17
851.856	41.64
852.031	-25.94
852.206	84.65
852.381	35.5
852.556	-73.04
852.731	-40.28
852.906	60.07
853.081	45.74
853.256	78.51
853.431	72.36
853.606	12.97
853.781	19.11
853.956	-38.23
854.131	-1.37
854.305	70.31
854.48	-13.65
854.655	45.74
854.83	6.83
855.005	43.69
855.18	82.6
855.354	45.74
855.529	-21.85
855.704	-1.37
855.879	125.61
856.053	2.73
856.228	68.27
856.403	29.35
856.577	-7.51
856.752	31.4
856.926	37.55
857.101	19.11
857.276	-5.46
857.45	66.22
857.625	51.88
857.799	58.03
857.974	31.4
858.148	-38.23
858.323	33.45
858.497	80.55
858.672	2.73
858.846	-5.46
859.02	35.5
859.195	-40.28
859.369	-71
859.543	76.46
859.718	-11.61
859.892	31.4
860.066	101.03
860.241	62.12
860.415	98.99
860.589	86.7
860.763	10.92
860.938	-50.52
861.112	12.97
861.286	-52.56
861.46	43.69
861.634	51.88
861.808	-42.32
861.982	23.21
862.157	-38.23
862.331	27.31
862.505	-25.94
862.679	-46.42
862.853	25.26
863.027	-36.18
863.201	129.7
863.375	35.5
863.549	94.89
863.722	10.92
863.896	43.69
864.07	-23.89
864.244	10.92
864.418	64.17
864.592	27.31
864.766	84.65
864.939	19.11
865.113	41.64
865.287	70.31
865.461	-62.8
865.634	33.45
865.808	53.93
865.982	4.78
866.156	-1.37
866.329	-17.75
866.503	-19.8
866.676	-1.37
866.85	-3.41
867.024	-62.8
867.197	68.27
867.371	10.92
867.544	19.11
867.718	39.59
867.891	35.5
868.065	-13.65
868.238	-62.8
868.412	103.08
868.585	45.74
868.759	58.03
868.932	19.11
869.105	-46.42
869.279	35.5
869.452	4.78
869.625	12.97
869.799	-11.61
869.972	6.83
870.145	23.21
870.319	115.37
870.492	62.12
870.665	-9.56
870.838	53.93
871.011	-30.04
871.185	33.45
871.358	6.83
871.531	21.16
871.704	-54.61
871.877	-11.61
872.05	-42.32
872.223	-7.51
872.396	17.07
872.569	101.03
872.742	-56.66
872.915	45.74
873.088	-5.46
873.261	-38.23
873.434	-46.42
873.607	29.35
873.78	43.69
873.953	-27.99
874.126	-58.71
874.299	2.73
874.471	-15.7
874.644	27.31
874.817	27.31
874.99	53.93
875.163	-21.85
875.335	2.73
875.508	0.68
875.681	2.73
875.853	-11.61
876.026	37.55
876.199	45.74
876.371	76.46
876.544	-7.51
876.717	0.68
876.889	39.59
877.062	-5.46
877.234	-30.04
877.407	-50.52
877.579	-5.46
877.752	29.35
877.924	-3.41
878.097	-3.41
878.269	0.68
878.442	8.87
878.614	8.87
878.786	41.64
878.959	4.78
879.131	35.5
879.303	-11.61
879.476	51.88
879.648	80.55
879.82	-3.41
879.993	-21.85
880.165	27.31
880.337	-66.9
880.509	33.45
880.681	-17.75
880.854	39.59
881.026	82.6
881.198	29.35
881.37	64.17
881.542	27.31
881.714	-52.56
881.886	45.74
882.058	-52.56
882.23	-21.85
882.402	37.55
882.574	27.31
882.746	51.88
882.918	4.78
883.09	10.92
883.262	49.83
883.434	-54.61
883.606	-5.46
883.778	27.31
883.95	84.65
884.122	-5.46
884.293	119.46
884.465	55.98
884.637	19.11
884.809	-89.43
884.98	23.21
885.152	15.02
885.324	12.97
885.496	12.97
885.667	55.98
885.839	-25.94
886.011	27.31
886.182	45.74
886.354	115.37
886.525	-13.65
886.697	27.31
886.869	10.92
887.04	-5.46
887.212	35.5
887.383	135.85
887.555	-5.46
887.726	-7.51
887.897	-60.76
888.069	88.75
888.24	-25.94
888.412	-19.8
888.583	19.11
888.754	-7.51
888.926	-132.44
889.097	-9.56
889.268	-21.85
889.44	-21.85
889.611	-38.23
889.782	29.35
889.953	-36.18
890.125	74.41
890.296	62.12
890.467	-36.18
890.638	-13.65
890.809	-30.04
890.98	-30.04
891.151	19.11
891.323	15.02
891.494	12.97
891.665	-17.75
891.836	76.46
892.007	6.83
892.178	60.07
892.349	19.11
892.52	-54.61
892.691	101.03
892.862	-58.71
893.032	-68.95
893.203	-48.47
893.374	-40.28
893.545	72.36
893.716	37.55
893.887	31.4
894.057	-21.85
894.228	10.92
894.399	-3.41
894.57	70.31
894.74	2.73
894.911	-23.89
895.082	31.4
895.253	-44.37
895.423	19.11
895.594	-11.61
895.764	74.41
895.935	-58.71
896.106	19.11
896.276	92.84
896.447	58.03
896.617	-5.46
896.788	-48.47
896.958	12.97
897.129	-79.19
897.299	8.87
897.47	60.07
897.64	35.5
897.81	-30.04
897.981	6.83
898.151	-48.47
898.322	41.64
898.492	31.4
898.662	29.35
898.832	21.16
899.003	-11.61
899.173	17.07
899.343	-48.47
899.513	43.69
