Data from USB4F104151__46__14-29-53-609.txt Node

Date: Thu Mar 13 14:29:53 EDT 2025
User: louis
Spectrometer: USB4F10415
Trigger mode: 4
Integration Time (sec): 2.500000E-2
Scans to average: 1
Electric dark correction enabled: true
Nonlinearity correction enabled: false
Boxcar width: 0
XAxis mode: Wavelengths
Number of Pixels in Spectrum: 3648
>>>>>Begin Spectral Data<<<<<
178.204	-126.97
178.424	-126.97
178.644	-126.97
178.864	-167.93
179.084	-208.89
179.304	-4.1
179.524	20.48
179.744	55.3
179.964	-8.19
180.184	-2.05
180.404	53.25
180.624	-57.34
180.844	14.34
181.064	-77.82
181.283	-2.05
181.503	4.1
181.723	4.1
181.943	-8.19
182.163	61.44
182.383	20.48
182.602	28.67
182.822	135.17
183.042	36.86
183.262	8.19
183.482	28.67
183.701	63.49
183.921	-20.48
184.141	6.14
184.361	-40.96
184.58	-10.24
184.8	36.86
185.02	28.67
185.239	12.29
185.459	16.38
185.679	45.06
185.898	-32.77
186.118	-36.86
186.338	-16.38
186.557	30.72
186.777	-34.82
186.997	-20.48
187.216	-67.58
187.436	10.24
187.655	-8.19
187.875	94.21
188.095	-79.87
188.314	79.87
188.534	-63.49
188.753	53.25
188.973	-20.48
189.192	126.97
189.412	-43.01
189.631	14.34
189.851	118.78
190.07	104.45
190.29	-43.01
190.509	-2.05
190.729	24.58
190.948	51.2
191.168	153.6
191.387	120.83
191.607	24.58
191.826	-20.48
192.045	-8.19
192.265	-4.1
192.484	53.25
192.704	-20.48
192.923	-45.06
193.142	61.44
193.362	106.49
193.581	49.15
193.8	98.3
194.02	110.59
194.239	-47.1
194.458	12.29
194.678	-26.62
194.897	18.43
195.116	24.58
195.335	86.01
195.555	-49.15
195.774	-2.05
195.993	12.29
196.212	12.29
196.432	26.62
196.651	-4.1
196.87	-6.14
197.089	47.1
197.308	-36.86
197.528	34.82
197.747	-2.05
197.966	0
198.185	4.1
198.404	12.29
198.623	47.1
198.842	47.1
199.062	77.82
199.281	65.54
199.5	43.01
199.719	53.25
199.938	47.1
200.157	47.1
200.376	4.1
200.595	102.4
200.814	71.68
201.033	57.34
201.252	20.48
201.471	28.67
201.69	38.91
201.909	61.44
202.128	6.14
202.347	45.06
202.566	-24.58
202.785	-12.29
203.004	22.53
203.223	55.3
203.442	0
203.661	45.06
203.879	0
204.098	77.82
204.317	-14.34
204.536	86.01
204.755	86.01
204.974	73.73
205.193	129.02
205.411	163.84
205.63	112.64
205.849	0
206.068	6.14
206.287	12.29
206.505	16.38
206.724	16.38
206.943	47.1
207.162	45.06
207.381	-8.19
207.599	-18.43
207.818	47.1
208.037	-57.34
208.255	47.1
208.474	16.38
208.693	20.48
208.911	2.05
209.13	-24.58
209.349	12.29
209.567	24.58
209.786	94.21
210.005	8.19
210.223	57.34
210.442	4.1
210.661	-20.48
210.879	86.01
211.098	-36.86
211.316	77.82
211.535	61.44
211.753	-12.29
211.972	47.1
212.191	45.06
212.409	28.67
212.628	49.15
212.846	-47.1
213.065	30.72
213.283	49.15
213.502	-8.19
213.72	-20.48
213.938	36.86
214.157	-12.29
214.375	30.72
214.594	-12.29
214.812	-30.72
215.031	22.53
215.249	-20.48
215.467	-20.48
215.686	-8.19
215.904	-12.29
216.122	45.06
216.341	73.73
216.559	65.54
216.778	40.96
216.996	28.67
217.214	-18.43
217.432	-2.05
217.651	6.14
217.869	-8.19
218.087	30.72
218.306	94.21
218.524	24.58
218.742	4.1
218.96	-6.14
219.179	-20.48
219.397	-4.1
219.615	90.11
219.833	-14.34
220.051	4.1
220.27	6.14
220.488	-8.19
220.706	67.58
220.924	-36.86
221.142	24.58
221.36	16.38
221.578	59.39
221.796	-8.19
222.015	69.63
222.233	-20.48
222.451	26.62
222.669	-36.86
222.887	28.67
223.105	49.15
223.323	-47.1
223.541	-14.34
223.759	69.63
223.977	28.67
224.195	53.25
224.413	147.45
224.631	36.86
224.849	69.63
225.067	114.69
225.285	-61.44
225.503	-16.38
225.721	36.86
225.939	57.34
226.157	24.58
226.375	67.58
226.592	16.38
226.81	18.43
227.028	30.72
227.246	61.44
227.464	79.87
227.682	38.91
227.9	43.01
228.117	-20.48
228.335	40.96
228.553	-6.14
228.771	-45.06
228.989	61.44
229.206	88.06
229.424	51.2
229.642	28.67
229.86	2.05
230.077	81.92
230.295	51.2
230.513	53.25
230.731	63.49
230.948	61.44
231.166	40.96
231.384	-40.96
231.601	-55.3
231.819	77.82
232.037	18.43
232.254	36.86
232.472	57.34
232.689	16.38
232.907	45.06
233.125	49.15
233.342	-2.05
233.56	71.68
233.777	-12.29
233.995	34.82
234.213	47.1
234.43	20.48
234.648	47.1
234.865	-36.86
235.083	45.06
235.3	22.53
235.518	40.96
235.735	63.49
235.953	47.1
236.17	36.86
236.388	20.48
236.605	-12.29
236.822	94.21
237.04	45.06
237.257	-28.67
237.475	-8.19
237.692	8.19
237.909	16.38
238.127	14.34
238.344	45.06
238.562	151.55
238.779	18.43
238.996	-18.43
239.214	20.48
239.431	32.77
239.648	57.34
239.865	4.1
240.083	61.44
240.3	-26.62
240.517	88.06
240.735	36.86
240.952	49.15
241.169	-28.67
241.386	10.24
241.603	32.77
241.821	-26.62
242.038	69.63
242.255	-20.48
242.472	-10.24
242.689	22.53
242.907	47.1
243.124	20.48
243.341	-32.77
243.558	-12.29
243.775	-8.19
243.992	30.72
244.209	73.73
244.426	55.3
244.643	45.06
244.86	-4.1
245.078	2.05
245.295	36.86
245.512	-4.1
245.729	-55.3
245.946	12.29
246.163	69.63
246.38	-14.34
246.597	16.38
246.814	-6.14
247.031	55.3
247.248	6.14
247.464	-8.19
247.681	4.1
247.898	16.38
248.115	30.72
248.332	-43.01
248.549	79.87
248.766	88.06
248.983	18.43
249.2	32.77
249.417	16.38
249.633	-26.62
249.85	-16.38
250.067	-51.2
250.284	-8.19
250.501	49.15
250.717	-2.05
250.934	24.58
251.151	36.86
251.368	0
251.585	53.25
251.801	63.49
252.018	-20.48
252.235	69.63
252.451	-2.05
252.668	-28.67
252.885	73.73
253.102	32.77
253.318	12.29
253.535	-36.86
253.752	81.92
253.968	4.1
254.185	-12.29
254.401	38.91
254.618	106.49
254.835	53.25
255.051	100.35
255.268	28.67
255.484	10.24
255.701	-10.24
255.917	59.39
256.134	-63.49
256.351	8.19
256.567	-4.1
256.784	77.82
257	-40.96
257.217	53.25
257.433	-4.1
257.65	32.77
257.866	22.53
258.082	47.1
258.299	32.77
258.515	65.54
258.732	12.29
258.948	28.67
259.165	38.91
259.381	36.86
259.597	18.43
259.814	36.86
260.03	-24.58
260.246	-43.01
260.463	94.21
260.679	55.3
260.895	16.38
261.112	16.38
261.328	-24.58
261.544	-65.53
261.761	90.11
261.977	32.77
262.193	-20.48
262.409	45.06
262.626	77.82
262.842	69.63
263.058	-14.34
263.274	22.53
263.49	36.86
263.707	4.1
263.923	4.1
264.139	-22.53
264.355	53.25
264.571	94.21
264.787	-30.72
265.004	20.48
265.22	-16.38
265.436	34.82
265.652	-53.25
265.868	36.86
266.084	28.67
266.3	-45.06
266.516	-18.43
266.732	20.48
266.948	28.67
267.164	-28.67
267.38	63.49
267.596	88.06
267.812	143.36
268.028	49.15
268.244	-28.67
268.46	-69.63
268.676	-65.53
268.892	53.25
269.108	-16.38
269.324	20.48
269.54	-57.34
269.756	36.86
269.972	53.25
270.188	28.67
270.403	0
270.619	-4.1
270.835	16.38
271.051	-20.48
271.267	110.59
271.483	69.63
271.698	30.72
271.914	61.44
272.13	40.96
272.346	-18.43
272.562	86.01
272.777	51.2
272.993	-8.19
273.209	-20.48
273.425	28.67
273.64	22.53
273.856	77.82
274.072	10.24
274.287	32.77
274.503	30.72
274.719	28.67
274.934	24.58
275.15	12.29
275.366	28.67
275.581	12.29
275.797	45.06
276.012	-24.58
276.228	30.72
276.444	90.11
276.659	94.21
276.875	10.24
277.09	-47.1
277.306	16.38
277.521	75.77
277.737	6.14
277.952	69.63
278.168	45.06
278.383	-2.05
278.599	20.48
278.814	-26.62
279.03	-53.25
279.245	49.15
279.461	-4.1
279.676	36.86
279.892	-26.62
280.107	40.96
280.322	57.34
280.538	49.15
280.753	-30.72
280.969	86.01
281.184	-30.72
281.399	-4.1
281.615	12.29
281.83	32.77
282.045	-2.05
282.26	16.38
282.476	45.06
282.691	6.14
282.906	-45.06
283.122	6.14
283.337	32.77
283.552	83.97
283.767	-38.91
283.983	4.1
284.198	71.68
284.413	30.72
284.628	-18.43
284.843	61.44
285.058	45.06
285.274	45.06
285.489	-59.39
285.704	71.68
285.919	-63.49
286.134	24.58
286.349	53.25
286.564	-34.82
286.779	79.87
286.995	12.29
287.21	28.67
287.425	-24.58
287.64	53.25
287.855	10.24
288.07	-16.38
288.285	38.91
288.5	-12.29
288.715	36.86
288.93	2.05
289.145	-28.67
289.36	-16.38
289.575	12.29
289.79	24.58
290.004	36.86
290.219	36.86
290.434	-4.1
290.649	-14.34
290.864	-59.39
291.079	79.87
291.294	-6.14
291.509	-4.1
291.724	4.1
291.938	12.29
292.153	79.87
292.368	-75.77
292.583	-38.91
292.798	-24.58
293.012	45.06
293.227	0
293.442	-86.01
293.657	30.72
293.871	61.44
294.086	24.58
294.301	53.25
294.516	43.01
294.73	59.39
294.945	-24.58
295.16	-16.38
295.374	77.82
295.589	135.17
295.804	34.82
296.018	20.48
296.233	14.34
296.447	-12.29
296.662	22.53
296.877	30.72
297.091	53.25
297.306	-8.19
297.52	4.1
297.735	77.82
297.949	-22.53
298.164	67.58
298.378	4.1
298.593	38.91
298.807	10.24
299.022	65.54
299.236	47.1
299.451	28.67
299.665	53.25
299.88	20.48
300.094	53.25
300.309	36.86
300.523	81.92
300.737	4.1
300.952	-28.67
301.166	20.48
301.381	53.25
301.595	20.48
301.809	-12.29
302.024	4.1
302.238	12.29
302.452	-53.25
302.667	4.1
302.881	43.01
303.095	-26.62
303.309	102.4
303.524	51.2
303.738	26.62
303.952	-40.96
304.166	-12.29
304.381	-36.86
304.595	45.06
304.809	8.19
305.023	-12.29
305.237	53.25
305.452	63.49
305.666	47.1
305.88	53.25
306.094	178.17
306.308	55.3
306.522	12.29
306.736	45.06
306.95	16.38
307.164	40.96
307.379	43.01
307.593	53.25
307.807	120.83
308.021	92.16
308.235	81.92
308.449	-20.48
308.663	-10.24
308.877	96.25
309.091	26.62
309.305	59.39
309.519	-12.29
309.733	135.17
309.947	53.25
310.161	4.1
310.374	69.63
310.588	0
310.802	-8.19
311.016	69.63
311.23	-22.53
311.444	8.19
311.658	16.38
311.872	110.59
312.085	63.49
312.299	14.34
312.513	45.06
312.727	65.54
312.941	4.1
313.154	88.06
313.368	45.06
313.582	12.29
313.796	45.06
314.009	-8.19
314.223	114.69
314.437	79.87
314.651	61.44
314.864	20.48
315.078	32.77
315.292	12.29
315.505	61.44
315.719	98.3
315.933	69.63
316.146	6.14
316.36	-90.11
316.573	94.21
316.787	-4.1
317.001	79.87
317.214	-59.39
317.428	22.53
317.641	-4.1
317.855	59.39
318.068	-28.67
318.282	-12.29
318.495	49.15
318.709	8.19
318.922	43.01
319.136	55.3
319.349	63.49
319.563	53.25
319.776	67.58
319.99	6.14
320.203	53.25
320.417	71.68
320.63	8.19
320.843	-6.14
321.057	4.1
321.27	-4.1
321.483	6.14
321.697	30.72
321.91	67.58
322.124	61.44
322.337	-10.24
322.55	6.14
322.763	28.67
322.977	10.24
323.19	36.86
323.403	40.96
323.617	20.48
323.83	22.53
324.043	-12.29
324.256	45.06
324.469	-4.1
324.683	38.91
324.896	-51.2
325.109	47.1
325.322	-67.58
325.535	43.01
325.748	73.73
325.962	73.73
326.175	-36.86
326.388	-12.29
326.601	34.82
326.814	12.29
327.027	26.62
327.24	153.6
327.453	-61.44
327.666	38.91
327.879	32.77
328.092	6.14
328.305	-53.25
328.518	-34.82
328.731	-90.11
328.944	28.67
329.157	81.92
329.37	16.38
329.583	94.21
329.796	71.68
330.009	-38.91
330.222	38.91
330.435	-20.48
330.648	122.88
330.861	77.82
331.073	26.62
331.286	24.58
331.499	55.3
331.712	-16.38
331.925	53.25
332.138	-38.91
332.35	98.3
332.563	53.25
332.776	77.82
332.989	-22.53
333.202	18.43
333.414	8.19
333.627	16.38
333.84	32.77
334.053	126.97
334.265	-8.19
334.478	-10.24
334.691	47.1
334.903	-12.29
335.116	32.77
335.329	57.34
335.541	22.53
335.754	67.58
335.966	40.96
336.179	69.63
336.392	-4.1
336.604	4.1
336.817	22.53
337.029	65.54
337.242	22.53
337.454	16.38
337.667	90.11
337.88	102.4
338.092	16.38
338.305	40.96
338.517	8.19
338.729	106.49
338.942	86.01
339.154	-8.19
339.367	-36.86
339.579	47.1
339.792	-18.43
340.004	30.72
340.217	-38.91
340.429	-22.53
340.641	45.06
340.854	53.25
341.066	16.38
341.278	110.59
341.491	98.3
341.703	0
341.915	14.34
342.128	22.53
342.34	20.48
342.552	61.44
342.764	59.39
342.977	53.25
343.189	36.86
343.401	12.29
343.613	-47.1
343.826	32.77
344.038	32.77
344.25	110.59
344.462	49.15
344.674	94.21
344.886	32.77
345.099	55.3
345.311	73.73
345.523	-36.86
345.735	-20.48
345.947	6.14
346.159	36.86
346.371	77.82
346.583	-45.06
346.795	102.4
347.007	26.62
347.219	-10.24
347.431	-2.05
347.643	77.82
347.855	49.15
348.067	94.21
348.279	-83.97
348.491	63.49
348.703	69.63
348.915	-49.15
349.127	-20.48
349.339	0
349.551	8.19
349.763	83.97
349.975	32.77
350.187	38.91
350.399	14.34
350.61	-34.82
350.822	6.14
351.034	69.63
351.246	73.73
351.458	34.82
351.669	-6.14
351.881	34.82
352.093	30.72
352.305	65.54
352.517	20.48
352.728	94.21
352.94	77.82
353.152	94.21
353.363	4.1
353.575	53.25
353.787	53.25
353.999	-4.1
354.21	83.97
354.422	49.15
354.633	6.14
354.845	22.53
355.057	16.38
355.268	12.29
355.48	67.58
355.692	32.77
355.903	20.48
356.115	98.3
356.326	-81.92
356.538	81.92
356.749	30.72
356.961	73.73
357.172	38.91
357.384	-4.1
357.595	73.73
357.807	45.06
358.018	47.1
358.23	61.44
358.441	135.17
358.653	59.39
358.864	28.67
359.075	16.38
359.287	81.92
359.498	69.63
359.709	55.3
359.921	22.53
360.132	53.25
360.344	63.49
360.555	18.43
360.766	77.82
360.977	4.1
361.189	69.63
361.4	20.48
361.611	36.86
361.823	63.49
362.034	36.86
362.245	-4.1
362.456	47.1
362.667	26.62
362.879	73.73
363.09	4.1
363.301	79.87
363.512	-24.58
363.723	40.96
363.935	-47.1
364.146	45.06
364.357	24.58
364.568	-12.29
364.779	81.92
364.99	83.97
365.201	36.86
365.412	57.34
365.623	53.25
365.834	47.1
366.045	34.82
366.256	81.92
366.467	-16.38
366.678	34.82
366.889	8.19
367.1	57.34
367.311	32.77
367.522	20.48
367.733	61.44
367.944	20.48
368.155	45.06
368.366	20.48
368.577	86.01
368.788	14.34
368.999	-28.67
369.209	20.48
369.42	94.21
369.631	71.68
369.842	22.53
370.053	77.82
370.264	28.67
370.474	-16.38
370.685	53.25
370.896	45.06
371.107	112.64
371.317	81.92
371.528	30.72
371.739	36.86
371.95	-4.1
372.16	118.78
372.371	-4.1
372.582	45.06
372.792	71.68
373.003	61.44
373.214	67.58
373.424	100.35
373.635	45.06
373.846	94.21
374.056	8.19
374.267	36.86
374.477	36.86
374.688	-2.05
374.898	12.29
375.109	28.67
375.319	86.01
375.53	30.72
375.74	61.44
375.951	16.38
376.161	-43.01
376.372	43.01
376.582	34.82
376.793	63.49
377.003	10.24
377.214	32.77
377.424	43.01
377.635	43.01
377.845	69.63
378.055	45.06
378.266	20.48
378.476	69.63
378.686	28.67
378.897	36.86
379.107	-26.62
379.317	69.63
379.528	20.48
379.738	71.68
379.948	8.19
380.158	65.54
380.369	30.72
380.579	51.2
380.789	55.3
380.999	-12.29
381.21	110.59
381.42	94.21
381.63	40.96
381.84	104.45
382.05	8.19
382.261	86.01
382.471	102.4
382.681	0
382.891	79.87
383.101	12.29
383.311	-69.63
383.521	73.73
383.731	126.97
383.941	79.87
384.151	-10.24
384.361	-49.15
384.571	83.97
384.781	-28.67
384.991	40.96
385.201	139.26
385.411	77.82
385.621	32.77
385.831	120.83
386.041	47.1
386.251	63.49
386.461	69.63
386.671	22.53
386.881	53.25
387.091	53.25
387.301	18.43
387.511	28.67
387.72	36.86
387.93	55.3
388.14	47.1
388.35	51.2
388.56	79.87
388.769	86.01
388.979	47.1
389.189	22.53
389.399	69.63
389.609	71.68
389.818	45.06
390.028	18.43
390.238	104.45
390.447	16.38
390.657	137.21
390.867	71.68
391.076	59.39
391.286	96.25
391.496	75.77
391.705	47.1
391.915	67.58
392.125	53.25
392.334	-4.1
392.544	88.06
392.753	122.88
392.963	38.91
393.172	24.58
393.382	26.62
393.591	208.89
393.801	49.15
394.01	30.72
394.22	129.02
394.429	-4.1
394.639	71.68
394.848	45.06
395.058	114.69
395.267	53.25
395.477	141.31
395.686	45.06
395.895	110.59
396.105	167.93
396.314	45.06
396.524	145.41
396.733	34.82
396.942	77.82
397.152	53.25
397.361	135.17
397.57	77.82
397.78	118.78
397.989	96.25
398.198	120.83
398.407	94.21
398.617	116.73
398.826	63.49
399.035	36.86
399.244	155.65
399.453	120.83
399.663	118.78
399.872	153.6
400.081	-2.05
400.29	133.12
400.499	67.58
400.708	147.45
400.917	20.48
401.127	61.44
401.336	163.84
401.545	120.83
401.754	172.03
401.963	139.26
402.172	98.3
402.381	53.25
402.59	65.54
402.799	69.63
403.008	124.93
403.217	180.22
403.426	139.26
403.635	59.39
403.844	98.3
404.053	120.83
404.262	153.6
404.471	180.22
404.68	120.83
404.888	63.49
405.097	161.79
405.306	120.83
405.515	141.31
405.724	86.01
405.933	208.89
406.142	176.13
406.35	141.31
406.559	159.74
406.768	172.03
406.977	266.24
407.185	290.81
407.394	239.61
407.603	225.28
407.812	139.26
408.02	202.75
408.229	227.32
408.438	215.04
408.646	159.74
408.855	227.32
409.064	294.91
409.272	266.24
409.481	299
409.69	262.14
409.898	307.2
410.107	292.86
410.315	299
410.524	352.25
410.733	389.11
410.941	301.05
411.15	389.11
411.358	413.69
411.567	403.45
411.775	438.27
411.984	391.16
412.192	397.31
412.401	321.53
412.609	475.13
412.818	421.88
413.026	499.7
413.234	602.1
413.443	485.37
413.651	489.46
413.86	593.91
414.068	671.73
414.276	638.97
414.485	661.49
414.693	618.49
414.901	702.45
415.11	667.64
415.318	735.22
415.526	724.98
415.734	757.75
415.943	794.61
416.151	888.82
416.359	888.82
416.567	819.19
416.776	921.59
416.984	940.02
417.192	1056.75
417.4	1062.9
417.608	913.39
417.817	1077.23
418.025	1126.38
418.233	1167.34
418.441	1138.67
418.649	1134.57
418.857	1314.8
419.065	1384.43
419.273	1230.83
419.481	1355.76
419.689	1525.74
419.897	1439.72
420.105	1521.64
420.313	1540.07
420.521	1658.85
420.729	1701.86
420.937	1628.14
421.145	1822.69
421.353	1970.15
421.561	1941.47
421.769	2021.35
421.977	2052.06
422.185	2093.02
422.393	2168.8
422.601	2346.97
422.809	2379.74
423.017	2392.03
423.224	2459.61
423.432	2752.47
423.64	2516.95
423.848	2785.24
424.056	2596.82
424.263	2879.44
424.471	2944.98
424.679	2908.12
424.887	3164.11
425.094	3270.61
425.302	3110.86
425.51	3489.74
425.718	3547.08
425.925	3461.07
426.133	3559.37
426.341	3897.28
426.548	4034.5
426.756	4028.35
426.964	3960.77
427.171	4265.92
427.379	4358.08
427.586	4407.23
427.794	4587.45
428.001	4800.44
428.209	5042.1
428.417	4919.22
428.624	5230.51
428.832	5304.24
429.039	5296.05
429.247	5320.62
429.454	5631.91
429.662	6219.68
429.869	5689.26
430.076	6152.1
430.284	5945.25
430.491	6303.65
430.699	6657.95
430.906	6696.86
431.114	6717.34
431.321	6735.77
431.528	7075.73
431.736	7497.61
431.943	7552.91
432.15	7569.29
432.358	7597.96
432.565	8273.79
432.772	7868.3
432.979	8304.51
433.187	8558.46
433.394	8609.66
433.601	9359.22
433.808	9271.15
434.016	9183.09
434.223	9518.96
434.43	10139.49
434.637	9949.03
434.844	10542.94
435.052	10747.74
435.259	10448.74
435.466	10708.83
435.673	10514.27
435.88	11165.53
436.087	11980.62
436.294	11870.03
436.501	11636.56
436.708	11837.26
436.915	12021.58
437.122	12861.24
437.329	12506.95
437.537	13037.37
437.743	13346.61
437.95	13254.45
438.157	13831.98
438.364	14268.2
438.571	14380.84
438.778	14343.97
438.985	15916.81
439.192	15109.91
439.399	15335.19
439.606	15095.58
439.813	16094.99
440.02	17071.87
440.227	16494.34
440.433	16627.46
440.64	17035
440.847	16944.89
441.054	17401.59
441.261	18632.42
441.467	18130.67
441.674	18464.49
441.881	19517.14
442.088	19203.8
442.294	19009.25
442.501	19404.5
442.708	19941.07
442.914	20739.78
443.121	21436.09
443.328	20993.73
443.534	22419.11
443.741	22011.57
443.948	21624.5
444.154	23123.62
444.361	22924.96
444.568	23309.98
444.774	23303.84
444.981	23342.75
445.187	23969.43
445.394	25036.42
445.6	24999.55
445.807	27154.02
446.013	25955.96
446.22	26564.2
446.426	27477.6
446.633	27512.41
446.839	28653.13
447.046	27547.23
447.252	29251.14
447.459	29025.86
447.665	28456.53
447.871	30107.19
448.078	31782.43
448.284	29740.6
448.491	30729.77
448.697	31919.64
448.903	32366.1
449.11	32362
449.316	31831.58
449.522	32460.3
449.728	33285.64
449.935	33484.29
450.141	33334.79
450.347	34397.68
450.553	33048.07
450.76	33586.69
450.966	34731.5
451.172	34471.41
451.378	35153.38
451.584	34893.29
451.791	35388.9
451.997	35538.4
452.203	35966.43
452.409	35896.8
452.615	35341.8
452.821	34182.65
453.027	34045.43
453.233	36169.18
453.44	34156.02
453.646	34858.48
453.852	34799.08
454.058	35415.52
454.264	34248.18
454.47	34852.33
454.676	33848.83
454.882	35071.46
455.088	32187.92
455.294	32456.21
455.5	33050.12
455.705	33347.08
455.911	31931.93
456.117	31516.19
456.323	30973.48
456.529	29679.16
456.735	30608.94
456.941	29881.91
457.147	29748.79
457.352	28257.87
457.558	28300.88
457.764	28114.51
457.97	27876.95
458.176	26789.48
458.381	27115.11
458.587	25441.92
458.793	25802.36
458.999	24233.61
459.204	26017.39
459.41	25337.47
459.616	23346.84
459.821	23512.73
460.027	23303.84
460.233	22650.53
460.438	21911.22
460.644	22099.63
460.85	21216.96
461.055	20770.5
461.261	20580.04
461.466	18876.13
461.672	18435.81
461.878	20104.91
462.083	18695.91
462.289	18179.82
462.494	18050.8
462.7	17305.34
462.905	16416.52
463.111	17108.73
463.316	17139.45
463.522	16717.57
463.727	17075.96
463.932	16916.22
464.138	16723.71
464.343	16631.55
464.549	16344.84
464.754	16930.56
464.959	16785.15
465.165	16494.34
465.37	15759.12
465.575	15515.41
465.781	16066.31
465.986	16277.26
466.191	15386.39
466.397	15111.96
466.602	14415.65
466.807	14915.36
467.012	15019.8
467.218	14737.18
467.423	14561.06
467.628	14753.57
467.833	15286.04
468.038	14421.8
468.244	14376.74
468.449	14870.3
468.654	14419.75
468.859	14106.41
469.064	14087.98
469.269	13561.65
469.474	13700.91
469.679	14133.03
469.885	13539.12
470.09	13723.44
470.295	13786.93
470.5	13072.18
470.705	13336.37
470.91	12898.11
471.115	12914.49
471.32	12926.78
471.525	13029.18
471.73	12752.7
471.935	12513.09
472.139	12136.26
472.344	12326.72
472.549	12070.73
472.754	12072.78
472.959	11802.44
473.164	11550.54
473.369	11413.33
473.574	12056.39
473.778	11861.83
473.983	11595.6
474.188	11499.34
474.393	10731.36
474.598	10932.06
474.802	10944.34
475.007	10948.44
475.212	10891.1
475.417	10399.59
475.621	10467.17
475.826	10458.98
476.031	10342.24
476.235	9951.08
476.44	10135.4
476.645	9951.08
476.849	10227.56
477.054	9912.17
477.259	9742.19
477.463	9734
477.668	9897.83
477.872	9793.39
478.077	9494.38
478.282	9246.58
478.486	9246.58
478.691	9293.68
478.895	9101.17
479.1	8920.95
479.304	8968.06
479.509	8857.46
479.713	8974.2
479.918	8652.67
480.122	8433.54
480.326	8798.07
480.531	8726.39
480.735	8540.03
480.94	8691.58
481.144	8742.78
481.348	8449.92
481.553	8507.26
481.757	8507.26
481.961	8468.35
482.166	8671.1
482.37	8486.78
482.574	8445.82
482.778	8357.76
482.983	8556.41
483.187	8281.99
483.391	8400.77
483.595	8464.25
483.8	8345.47
484.004	8310.66
484.208	8447.87
484.412	8208.26
484.616	8298.37
484.821	8277.89
485.025	8253.31
485.229	8363.9
485.433	8261.51
485.637	8228.74
485.841	8351.62
486.045	8241.03
486.249	8361.86
486.453	8173.44
486.657	8298.37
486.861	8269.7
487.065	7950.21
487.269	8107.91
487.473	8050.57
487.677	8329.09
487.881	8238.98
488.085	8042.37
488.289	8378.24
488.493	8241.03
488.697	8478.59
488.901	8279.94
489.105	8255.36
489.309	8060.81
489.512	8048.52
489.716	8273.79
489.92	8060.81
490.124	8232.83
490.328	8263.55
490.531	8152.96
490.735	8349.57
490.939	8343.42
491.143	8417.15
491.346	8347.52
491.55	8243.07
491.754	8509.31
491.958	8460.16
492.161	8482.69
492.365	8351.62
492.569	8284.03
492.772	8492.93
492.976	8595.32
493.18	8562.56
493.383	8603.52
493.587	8597.37
493.79	8916.86
493.994	8583.04
494.197	8611.71
494.401	8773.5
494.605	8720.25
494.808	9111.41
495.012	8787.83
495.215	9041.78
495.419	9129.84
495.622	9113.46
495.825	9301.87
496.029	9449.33
496.232	9203.57
496.436	9285.49
496.639	9631.6
496.843	9443.18
497.046	9514.86
497.249	9852.78
497.453	9721.71
497.656	9994.09
497.859	9903.98
498.063	9963.37
498.266	10338.15
498.469	10135.4
498.673	10207.08
498.876	10190.69
499.079	10198.88
499.282	10575.71
499.485	10743.64
499.689	10770.27
499.892	10768.22
500.095	10647.39
500.298	11124.57
500.501	10956.63
500.705	11409.23
500.908	11401.04
501.111	11345.75
501.314	11636.56
501.517	11632.46
501.72	11620.17
501.923	11669.33
502.126	12021.58
502.329	12042.06
502.532	12087.11
502.735	12091.21
502.938	12500.8
503.141	12777.28
503.344	12681.02
503.547	12932.92
503.75	12963.64
503.953	12902.2
504.156	13102.9
504.359	13240.12
504.562	13272.89
504.765	13754.16
504.968	13664.05
505.17	14018.35
505.373	13872.94
505.576	14173.99
505.779	14200.62
505.982	14184.23
506.185	14583.59
506.387	14495.52
506.59	14567.2
506.793	15249.18
506.996	14839.58
507.198	15292.18
507.401	15208.22
507.604	15585.04
507.807	15771.41
508.009	15937.29
508.212	15982.35
508.415	16293.64
508.617	16641.79
508.82	16461.57
509.022	16058.12
509.225	16772.86
509.428	16783.1
509.63	17010.43
509.833	17090.3
510.035	17395.45
510.238	17192.7
510.44	17575.67
510.643	17704.69
510.845	17972.97
511.048	17880.82
511.25	18364.14
511.453	18341.61
511.655	18863.84
511.858	18808.54
512.06	19019.49
512.262	19267.29
512.465	18937.57
512.667	19713.75
512.87	19527.38
513.072	19578.58
513.274	20035.28
513.477	20221.64
513.679	20336.33
513.881	20448.97
514.084	20604.61
514.286	20801.22
514.488	21020.35
514.69	21450.42
514.893	21382.84
515.095	21573.3
515.297	21823.15
515.499	22009.52
515.701	22326.96
515.904	22490.79
516.106	22740.64
516.308	22703.78
516.51	22953.63
516.712	23271.07
516.914	23232.16
517.116	23932.56
517.318	23555.74
517.52	23809.68
517.722	23895.7
517.925	23928.47
518.127	24407.69
518.329	24856.2
518.531	24565.39
518.733	25169.54
518.935	25087.62
519.136	25280.13
519.338	25589.37
519.54	25728.63
519.742	25726.58
519.944	25788.02
520.146	26211.95
520.348	26136.18
520.55	26146.42
520.752	26189.42
520.954	26775.14
521.155	26658.41
521.357	27176.55
521.559	27379.29
521.761	27575.9
521.963	27242.08
522.164	27070.05
522.366	27639.39
522.568	27700.83
522.77	27831.9
522.971	28018.26
523.173	27915.86
523.375	28378.7
523.576	28124.75
523.778	28407.37
523.98	28507.72
524.181	28575.31
524.383	28716.62
524.584	29023.81
524.786	29023.81
524.988	28571.21
525.189	29027.91
525.391	29015.62
525.592	29083.2
525.794	29259.33
525.995	29195.84
526.197	29011.53
526.398	29324.86
526.6	29191.75
526.801	29269.57
527.003	29335.1
527.204	29455.93
527.406	29556.28
527.607	29591.1
527.808	29791.8
528.01	29613.63
528.211	29449.79
528.412	30101.04
528.614	29736.51
528.815	29451.84
529.016	29634.11
529.218	29498.94
529.419	29464.13
529.62	29595.2
529.822	29498.94
530.023	29486.65
530.224	29572.67
530.425	29546.05
530.626	29298.24
530.828	29113.92
531.029	29701.69
531.23	29298.24
531.431	29453.89
531.632	29498.94
531.833	29292.1
532.035	29357.63
532.236	29187.65
532.437	29331.01
532.638	28919.37
532.839	29382.21
533.04	29175.36
533.241	28862.02
533.442	29464.13
533.643	29201.99
533.844	29247.04
534.045	29148.74
534.246	28829.26
534.447	29042.24
534.648	28726.86
534.849	29175.36
535.05	28659.27
535.251	28745.29
535.451	28681.8
535.652	28724.81
535.853	28565.07
536.054	28681.8
536.255	28733
536.456	28354.13
536.657	28913.22
536.857	28261.97
537.058	28515.92
537.259	28534.35
537.46	28659.27
537.66	28210.77
537.861	28374.61
538.062	28208.72
538.263	28460.62
538.463	28153.43
538.664	28276.3
538.865	28425.81
539.065	28169.81
539.266	28134.99
539.466	28223.06
539.667	27659.87
539.868	28218.96
540.068	27653.72
540.269	28204.63
540.469	28257.87
540.67	27858.52
540.87	28132.95
541.071	28061.27
541.271	28091.99
541.472	27887.19
541.672	27981.4
541.873	27547.23
542.073	27760.22
542.274	27815.51
542.474	27706.97
542.675	27678.3
542.875	27872.85
543.075	27928.15
543.276	27627.1
543.476	27965.01
543.676	27395.68
543.877	27577.95
544.077	27854.42
544.277	27639.39
544.478	27688.54
544.678	27680.35
544.878	27528.8
545.078	27643.48
545.279	27754.07
545.479	27559.52
545.679	27631.19
545.879	27434.59
546.079	28110.42
546.28	27412.06
546.48	27469.4
546.68	27674.2
546.88	27872.85
547.08	27731.54
547.28	27311.71
547.48	26963.56
547.68	27643.48
547.88	27229.79
548.081	27594.33
548.281	27385.44
548.481	27369.05
548.681	27674.2
548.881	27760.22
549.081	27678.3
549.28	27463.26
549.48	27463.26
549.68	27448.93
549.88	28114.51
550.08	27496.03
550.28	27780.7
550.48	27637.34
550.68	27825.75
550.88	27512.41
551.08	27623
551.279	27530.84
551.479	27741.78
551.679	27840.09
551.879	27346.53
552.079	27616.86
552.278	27582.04
552.478	27551.32
552.678	27795.03
552.878	27932.25
553.077	27917.91
553.277	27371.1
553.477	27756.12
553.676	27641.43
553.876	28114.51
554.076	27694.68
554.275	27731.54
554.475	27522.65
554.674	27805.27
554.874	27825.75
555.074	27737.69
555.273	27711.07
555.473	28028.5
555.672	27324
555.872	27629.15
556.071	28042.84
556.271	28151.38
556.47	27584.09
556.67	27635.29
556.869	27651.67
557.068	28012.12
557.268	27883.09
557.467	27706.97
557.667	28194.39
557.866	27829.85
558.065	27881.05
558.265	27868.76
558.464	27883.09
558.663	28071.51
558.863	27803.22
559.062	28180.05
559.261	27580
559.461	28057.17
559.66	27733.59
559.859	27864.66
560.058	27952.73
560.258	27780.7
560.457	27960.92
560.656	27944.53
560.855	27483.74
561.054	28204.63
561.253	27741.78
561.453	27623
561.652	28069.46
561.851	28200.53
562.05	27805.27
562.249	27893.33
562.448	28204.63
562.647	27967.06
562.846	27760.22
563.045	28067.41
563.244	27588.19
563.443	28210.77
563.642	27442.78
563.841	27440.73
564.04	27618.91
564.239	28094.04
564.438	27559.52
564.637	27655.77
564.836	27596.38
565.035	27450.97
565.234	27487.84
565.432	27475.55
565.631	27149.92
565.83	27524.7
566.029	27283.04
566.228	27479.64
566.427	27448.93
566.625	27151.97
566.824	27129.44
567.023	27315.81
567.222	26920.55
567.42	27225.7
567.619	27002.47
567.818	27012.71
568.016	27006.56
568.215	26979.94
568.414	26891.88
568.612	27094.63
568.811	27031.14
569.01	27016.8
569.208	26699.37
569.407	27158.11
569.605	26541.67
569.804	26836.58
570.002	26310.25
570.201	26637.93
570.4	26361.45
570.598	26044.02
570.797	26001.01
570.995	26031.73
571.193	26205.81
571.392	26297.97
571.59	25802.36
571.789	26023.54
571.987	25990.77
572.186	26107.51
572.384	25693.82
572.582	25718.39
572.781	25679.48
572.979	25351.81
573.177	25480.83
573.376	25423.48
573.574	25507.45
573.772	25290.37
573.971	25480.83
574.169	25110.14
574.367	25157.25
574.565	25472.64
574.763	25120.38
574.962	25147.01
575.16	24960.64
575.358	25007.75
575.556	24538.76
575.754	25101.95
575.952	24460.94
576.151	24944.26
576.349	24280.72
576.547	24233.61
576.745	24393.36
576.943	24671.88
577.141	24325.77
577.339	24178.32
577.537	24229.52
577.735	24147.6
577.933	23860.88
578.131	23920.27
578.329	23621.27
578.527	23586.46
578.725	23477.91
578.923	23955.09
579.121	23426.71
579.319	23719.57
579.516	23744.15
579.714	23461.53
579.912	23651.99
580.11	23195.29
580.308	23246.49
580.506	23031.46
580.704	22892.19
580.901	23371.42
581.099	23111.33
581.297	22863.52
581.495	22654.63
581.692	23146.14
581.89	22861.48
582.088	22888.1
582.285	22734.5
582.483	22705.83
582.681	22701.73
582.878	22496.94
583.076	22761.12
583.274	22648.49
583.471	22232.75
583.669	22269.61
583.866	22120.11
584.064	22509.22
584.262	22021.81
584.459	22550.18
584.657	22271.66
584.854	21999.28
585.052	21941.94
585.249	21878.45
585.447	22064.82
585.644	21864.11
585.841	21702.32
586.039	22130.35
586.236	21450.42
586.434	21393.08
586.631	21438.14
586.828	21415.61
587.026	21503.67
587.223	21644.98
587.42	21157.57
587.618	21456.57
587.815	21167.8
588.012	21139.13
588.21	21300.92
588.407	21178.04
588.604	20915.9
588.801	21020.35
588.999	20899.52
589.196	20924.1
589.393	20954.82
589.59	20692.68
589.787	20936.38
589.984	21036.73
590.182	20600.52
590.379	20795.07
590.576	20641.48
590.773	20528.84
590.97	20385.48
591.167	20782.79
591.364	20215.5
591.561	20225.74
591.758	20600.52
591.955	20301.51
592.152	20545.22
592.349	20313.8
592.546	20141.77
592.743	20399.82
592.94	20041.42
593.137	20164.3
593.334	20274.89
593.531	19941.07
593.727	20133.58
593.924	20158.16
594.121	20000.46
594.318	20358.86
594.515	20055.76
594.712	20127.44
594.908	19896.02
595.105	20203.21
595.302	19689.17
595.499	19992.27
595.696	19836.63
595.892	19908.3
596.089	20012.75
596.286	19818.19
596.482	19982.03
596.679	20068.05
596.876	19754.71
597.072	19818.19
597.269	19824.34
597.466	19637.97
597.662	19891.92
597.859	19830.48
598.055	19912.4
598.252	19922.64
598.448	19961.55
598.645	19773.14
598.841	19838.67
599.038	19832.53
599.234	19781.33
599.431	19660.5
599.627	19754.71
599.824	19836.63
600.02	19844.82
600.217	19826.39
600.413	19678.93
600.609	19568.34
600.806	19650.26
601.002	19902.16
601.198	19494.61
601.395	19775.19
601.591	19746.51
601.787	19826.39
601.984	19732.18
602.18	20213.45
602.376	19908.3
602.572	20010.7
602.769	19883.73
602.965	19795.67
603.161	19908.3
603.357	19979.98
603.553	19824.34
603.75	20145.87
603.946	20158.16
604.142	20143.82
604.338	20020.94
604.534	20410.06
604.73	19906.26
604.926	20172.49
605.122	20324.04
605.318	20301.51
605.514	20313.8
605.71	20227.79
605.906	20379.34
606.102	20317.9
606.298	20629.19
606.494	20223.69
606.69	20541.13
606.886	20496.07
607.082	20266.7
607.278	20788.93
607.474	20623.05
607.67	20827.84
607.866	20494.02
608.062	21024.45
608.257	20596.42
608.453	21073.6
608.649	20864.71
608.845	20756.16
609.041	20780.74
609.236	21149.37
609.432	21288.64
609.628	20899.52
609.824	21032.64
610.019	21008.06
610.215	21184.19
610.411	21143.23
610.606	21407.42
610.802	21335.74
610.998	21155.52
611.193	21581.49
611.389	21335.74
611.584	21522.1
611.78	21108.41
611.976	21229.24
612.171	21407.42
612.367	21587.64
612.562	21364.41
612.758	21470.9
612.953	21855.92
613.149	21808.82
613.344	21403.32
613.539	21952.18
613.735	21577.4
613.93	21790.39
614.126	21806.77
614.321	21835.44
614.517	21868.21
614.712	21900.98
614.907	21702.32
615.103	22021.81
615.298	21802.68
615.493	22175.41
615.688	21927.6
615.884	22171.31
616.079	21860.02
616.274	22046.38
616.47	22199.98
616.665	22185.65
616.86	21685.94
617.055	21780.15
617.25	21718.71
617.445	22183.6
617.641	21368.51
617.836	21993.14
618.031	21714.61
618.226	22113.97
618.421	21790.39
618.616	22101.68
618.811	21974.7
619.006	21931.7
619.201	21472.95
619.396	22003.38
619.591	21647.03
619.786	21628.6
619.981	21397.18
620.176	21618.36
620.371	21505.72
620.566	21524.15
620.761	21403.32
620.956	21323.45
621.151	21176
621.346	21647.03
621.541	21016.26
621.735	21016.26
621.93	20803.27
622.125	20893.38
622.32	20692.68
622.515	20668.1
622.709	20813.51
622.904	20743.88
623.099	20604.61
623.294	20577.99
623.488	20367.05
623.683	20197.07
623.878	20096.72
624.072	20106.96
624.267	19988.17
624.462	19984.08
624.656	19793.62
624.851	19818.19
625.046	19599.06
625.24	19283.67
625.435	19480.28
625.629	19566.29
625.824	19293.91
626.018	19197.66
626.213	19181.28
626.407	19050.21
626.602	18888.42
626.796	18999.01
626.991	18976.48
627.185	18632.42
627.38	18544.36
627.574	18603.75
627.768	18452.2
627.963	18747.11
628.157	18364.14
628.352	18192.11
628.546	18296.55
628.74	18206.44
628.935	18038.51
629.129	17889.01
629.323	17895.15
629.517	17878.77
629.712	17782.51
629.906	17774.32
630.1	17409.78
630.294	17776.37
630.489	17211.13
630.683	17497.84
630.877	17147.64
631.071	17020.67
631.265	17080.06
631.459	17100.54
631.653	16969.47
631.848	16891.65
632.042	16504.58
632.236	16918.27
632.43	16764.67
632.624	16885.5
632.818	16477.96
633.012	16357.13
633.206	16021.26
633.4	16248.58
633.594	15845.13
633.788	15965.96
633.982	15886.09
634.176	16088.84
634.369	15689.49
634.563	15664.91
634.757	15511.32
634.951	15759.12
635.145	15783.7
635.339	15503.12
635.533	15486.74
635.726	15093.53
635.92	14978.84
636.114	15007.52
636.308	14946.08
636.501	14886.68
636.695	14999.32
636.889	14698.27
637.083	14847.77
637.276	14810.91
637.47	14462.76
637.664	14413.6
637.857	14513.95
638.051	14325.54
638.244	14276.39
638.438	14163.75
638.632	14180.14
638.825	13905.71
639.019	13766.45
639.212	13541.17
639.406	13711.15
639.599	13651.76
639.793	13414.2
639.986	13625.14
640.18	13412.15
640.373	13276.98
640.567	13219.64
640.76	13090.62
640.954	13041.47
641.147	13023.03
641.34	13025.08
641.534	13086.52
641.727	12871.48
641.92	12799.8
642.114	12525.38
642.307	12570.43
642.5	12543.81
642.694	12257.09
642.887	12142.41
643.08	12390.21
643.273	12216.13
643.467	12228.42
643.66	12121.93
643.853	11915.08
644.046	11829.07
644.239	11718.48
644.432	11786.06
644.626	11489.1
644.819	11716.43
645.012	11609.93
645.205	11425.62
645.398	11286.36
645.591	11390.8
645.784	11192.15
645.977	11071.32
646.17	11255.64
646.363	10952.54
646.556	10983.26
646.749	10809.18
646.942	10864.47
647.135	10870.62
647.328	10694.49
647.521	10608.48
647.714	10520.42
647.907	10497.89
648.099	10448.74
648.292	10409.83
648.485	10461.02
648.678	10205.03
648.871	10055.53
649.064	10090.34
649.256	10090.34
649.449	9973.61
649.642	9871.21
649.835	9772.91
650.027	9695.08
650.22	9875.31
650.413	9656.17
650.605	9740.14
650.798	9629.55
650.991	9500.53
651.183	9631.6
651.376	9353.07
651.568	9398.13
651.761	9230.2
651.954	9328.5
652.146	9588.59
652.339	9244.53
652.531	9342.83
652.724	9131.89
652.916	9072.5
653.109	9056.12
653.301	9207.67
653.494	9025.4
653.686	8761.21
653.879	9078.65
654.071	8834.94
654.263	8589.18
654.456	8793.98
654.648	8576.89
654.84	8527.74
655.033	8566.65
655.225	8492.93
655.417	8593.28
655.61	8404.86
655.802	8339.33
655.994	8359.81
656.186	8435.58
656.379	8095.62
656.571	8269.7
656.763	8050.57
656.955	8163.2
657.148	7913.35
657.34	8036.23
657.532	8050.57
657.724	8064.9
657.916	7933.83
658.108	7810.95
658.3	7810.95
658.492	7788.43
658.684	7657.36
658.876	7692.17
659.068	7618.44
659.26	7575.44
659.452	7509.9
659.644	7497.61
659.836	7446.41
660.028	7454.61
660.22	7442.32
660.412	7483.28
660.604	7180.18
660.796	7305.1
660.988	7133.08
661.18	7081.88
661.372	6977.43
661.563	7131.03
661.755	6997.91
661.947	7200.66
662.139	6903.7
662.331	6786.97
662.522	7002.01
662.714	6809.5
662.906	6750.1
663.097	6877.08
663.289	6664.09
663.481	6557.6
663.673	6649.75
663.864	6524.83
664.056	6483.87
664.247	6336.42
664.439	6322.08
664.631	6414.24
664.822	6373.28
665.014	6336.42
665.205	6322.08
665.397	6213.54
665.588	6289.31
665.78	6217.63
665.971	6184.87
666.163	6115.23
666.354	6035.36
666.546	6051.75
666.737	6041.51
666.929	6012.84
667.12	6127.52
667.311	6012.84
667.503	5795.75
667.694	5908.39
667.885	5830.57
668.077	5783.46
668.268	5595.05
668.459	5875.62
668.651	5736.36
668.842	5816.23
669.033	5644.2
669.224	5693.35
669.416	5691.31
669.607	5734.31
669.798	5425.07
669.989	5578.67
670.18	5437.36
670.371	5572.52
670.563	5545.9
670.754	5519.28
670.945	5199.79
671.136	5515.18
671.327	5337.01
671.518	5316.53
671.709	5392.3
671.9	5230.51
672.091	5400.49
672.282	5142.45
672.473	5107.63
672.664	5314.48
672.855	5101.49
673.046	5060.53
673.237	5199.79
673.428	5257.14
673.619	5009.33
673.809	5117.87
674	5076.91
674.191	5162.93
674.382	4923.32
674.573	5011.38
674.764	4966.32
674.954	4999.09
675.145	4931.51
675.336	4894.65
675.527	4874.17
675.717	4763.58
675.908	4788.15
676.099	4796.34
676.289	4904.89
676.48	4829.11
676.671	4698.04
676.861	4761.53
677.052	4802.49
677.243	4650.94
677.433	4757.43
677.624	4745.14
677.814	4646.84
678.005	4951.99
678.195	4751.29
678.386	4700.09
678.576	4609.98
678.767	4509.63
678.957	4593.59
679.148	4616.12
679.338	4566.97
679.529	4566.97
679.719	4691.9
679.909	4616.12
680.1	4454.33
680.29	4646.84
680.481	4401.08
680.671	4487.1
680.861	4616.12
681.052	4487.1
681.242	4521.91
681.432	4566.97
681.622	4362.17
681.813	4421.56
682.003	4513.72
682.193	4321.21
682.383	4587.45
682.573	4419.52
682.764	4417.47
682.954	4470.72
683.144	4390.85
683.334	4296.64
683.524	4372.41
683.714	4419.52
683.904	4306.88
684.094	4353.98
684.284	4495.29
684.474	4296.64
684.664	4149.18
684.854	4329.41
685.044	4337.6
685.234	4388.8
685.424	4243.39
685.614	4362.17
685.804	4411.32
685.994	4487.1
686.184	4247.49
686.374	4243.39
686.564	4313.02
686.753	4390.85
686.943	4237.25
687.133	4300.73
687.323	4329.41
687.513	4212.67
687.702	4202.43
687.892	4229.06
688.082	4233.15
688.272	4102.08
688.461	4116.42
688.651	3993.54
688.841	4157.38
689.03	4032.45
689.22	4024.26
689.41	4167.62
689.599	4155.33
689.789	4061.12
689.979	4177.86
690.168	4052.93
690.358	3889.09
690.547	4079.55
690.737	4042.69
690.926	3993.54
691.116	4001.73
691.305	3938.24
691.495	4022.21
691.684	4042.69
691.874	3940.29
692.063	3968.96
692.252	3938.24
692.442	3977.16
692.631	3831.75
692.82	3792.84
693.01	3938.24
693.199	3733.45
693.388	3928
693.578	3946.44
693.767	3831.75
693.956	3829.7
694.146	3932.1
694.335	3825.61
694.524	3796.93
694.713	3909.57
694.902	3768.26
695.092	3805.13
695.281	3774.41
695.47	3903.43
695.659	3944.39
695.848	3778.5
696.037	3882.95
696.226	3772.36
696.415	3833.8
696.604	3813.32
696.793	3919.81
696.982	3764.17
697.171	3805.13
697.36	3749.83
697.549	3772.36
697.738	3743.69
697.927	3686.34
698.116	3758.02
698.305	3747.78
698.494	3637.19
698.683	3745.73
698.872	3649.48
699.061	3667.91
699.25	3657.67
699.438	3712.97
699.627	3602.38
699.816	3821.51
700.005	3667.91
700.193	3690.44
700.382	3784.65
700.571	3782.6
700.76	3708.87
700.948	3774.41
701.137	3594.19
701.326	3561.42
701.514	3733.45
701.703	3583.95
701.892	3706.82
702.08	3665.86
702.269	3530.7
702.457	3571.66
702.646	3534.79
702.834	3590.09
703.023	3542.99
703.212	3526.6
703.4	3491.79
703.589	3393.48
703.777	3508.17
703.965	3420.11
704.154	3379.15
704.342	3370.96
704.531	3467.21
704.719	3456.97
704.907	3461.07
705.096	3207.12
705.284	3454.92
705.472	3469.26
705.661	3268.56
705.849	3463.12
706.037	3473.36
706.226	3366.86
706.414	3334.09
706.602	3297.23
706.79	3452.88
706.979	3198.93
707.167	3397.58
707.355	3323.85
707.543	3200.98
707.731	3432.4
707.919	3231.69
708.107	3350.48
708.296	3274.7
708.484	3149.78
708.672	3272.65
708.86	3348.43
709.048	3256.27
709.236	3190.74
709.424	3256.27
709.612	3194.83
709.8	3092.43
709.988	3160.02
710.176	3223.5
710.364	3067.86
710.551	3094.48
710.739	3088.34
710.927	3223.5
711.115	3026.9
711.303	3053.52
711.491	3125.2
711.679	3006.42
711.866	3008.47
712.054	3053.52
712.242	2973.65
712.43	3078.1
712.617	2965.46
712.805	2981.84
712.993	3059.67
713.181	3014.61
713.368	3022.8
713.556	3039.19
713.744	2887.64
713.931	2992.08
714.119	3010.51
714.306	3012.56
714.494	2985.94
714.682	3002.32
714.869	2901.97
715.057	2895.83
715.244	2775
715.432	2846.68
715.619	2779.09
715.807	2750.42
715.994	2815.96
716.182	2881.49
716.369	2852.82
716.556	2906.07
716.744	2805.72
716.931	2867.16
717.119	2764.76
717.306	2703.32
717.493	2748.37
717.681	2748.37
717.868	2748.37
718.055	2727.89
718.242	2627.54
718.43	2725.85
718.617	2666.46
718.804	2703.32
718.991	2656.22
719.179	2701.27
719.366	2594.78
719.553	2717.65
719.74	2592.73
719.927	2742.23
720.114	2648.02
720.301	2545.63
720.488	2559.96
720.676	2615.26
720.863	2627.54
721.05	2629.59
721.237	2652.12
721.424	2631.64
721.611	2496.47
721.798	2510.81
721.985	2510.81
722.172	2506.71
722.358	2535.39
722.545	2471.9
722.732	2600.92
722.919	2602.97
723.106	2568.15
723.293	2496.47
723.48	2488.28
723.667	2422.75
723.853	2447.32
724.04	2484.19
724.227	2418.65
724.414	2435.03
724.6	2531.29
724.787	2424.8
724.974	2469.85
725.161	2410.46
725.347	2338.78
725.534	2469.85
725.72	2445.27
725.907	2437.08
726.094	2322.4
726.28	2330.59
726.467	2209.76
726.653	2320.35
726.84	2359.26
727.027	2346.97
727.213	2260.96
727.4	2297.82
727.586	2246.62
727.773	2291.68
727.959	2332.64
728.145	2174.94
728.332	2172.89
728.518	2260.96
728.705	2322.4
728.891	2176.99
729.077	2191.33
729.264	2150.37
729.45	2242.53
729.636	2299.87
729.823	2119.65
730.009	2185.18
730.195	2160.61
730.382	2281.44
730.568	2191.33
730.754	2187.23
730.94	2179.04
731.126	2226.14
731.313	2148.32
731.499	2115.55
731.685	2125.79
731.871	2035.68
732.057	2121.7
732.243	2146.27
732.429	1957.86
732.615	2029.54
732.801	2025.44
732.987	2060.26
733.173	1972.19
733.359	2117.6
733.545	2043.87
733.731	2002.91
733.917	2101.22
734.103	1978.34
734.289	2093.02
734.475	2060.26
734.661	2068.45
734.847	2146.27
735.033	1984.48
735.219	1982.43
735.404	2007.01
735.59	2041.82
735.776	1994.72
735.962	2023.39
736.148	1961.95
736.333	2007.01
736.519	1818.6
736.705	1939.43
736.89	1904.61
737.076	1918.95
737.262	1978.34
737.447	1880.04
737.633	1871.84
737.819	1828.84
738.004	1906.66
738.19	1857.51
738.375	1939.43
738.561	1918.95
738.747	1896.42
738.932	1839.08
739.118	1890.28
739.303	1880.04
739.489	1814.5
739.674	1851.36
739.859	1777.64
740.045	1863.65
740.23	1843.17
740.416	1671.14
740.601	1818.6
740.786	1728.49
740.972	1736.68
741.157	1802.21
741.342	1765.35
741.528	1802.21
741.713	1667.05
741.898	1751.01
742.084	1716.2
742.269	1660.9
742.454	1716.2
742.639	1775.59
742.824	1626.09
743.01	1765.35
743.195	1740.77
743.38	1726.44
743.565	1634.28
743.75	1599.46
743.935	1593.32
744.12	1607.66
744.305	1644.52
744.49	1607.66
744.675	1691.62
744.86	1535.98
745.045	1554.41
745.23	1560.55
745.415	1576.94
745.6	1552.36
745.785	1531.88
745.97	1529.83
746.155	1464.3
746.34	1519.59
746.525	1562.6
746.71	1499.11
746.895	1404.91
747.079	1431.53
747.264	1449.96
747.449	1486.83
747.634	1415.15
747.819	1447.91
748.003	1458.15
748.188	1429.48
748.373	1472.49
748.557	1372.14
748.742	1380.33
748.927	1390.57
749.111	1437.67
749.296	1302.51
749.481	1339.37
749.665	1300.46
749.85	1331.18
750.034	1478.63
750.219	1302.51
750.404	1267.69
750.588	1302.51
750.773	1339.37
750.957	1333.23
751.141	1245.17
751.326	1292.27
751.51	1153.01
751.695	1273.84
751.879	1202.16
752.064	1191.92
752.248	1210.35
752.432	1359.85
752.617	1204.21
752.801	1286.12
752.985	1175.53
753.17	1243.12
753.354	1167.34
753.538	1191.92
753.722	1095.66
753.907	1187.82
754.091	1140.72
754.275	1173.49
754.459	1087.47
754.643	1093.62
754.828	1173.49
755.012	1124.33
755.196	1011.7
755.38	1099.76
755.564	1120.24
755.748	954.35
755.932	1058.8
756.116	1118.19
756.3	1075.18
756.484	983.03
756.668	1112.05
756.852	1032.18
757.036	1036.27
757.22	923.63
757.404	995.31
757.588	983.03
757.772	942.07
757.956	987.12
758.14	1009.65
758.323	1011.7
758.507	937.97
758.691	1052.66
758.875	1040.37
759.059	1021.94
759.242	946.16
759.426	940.02
759.61	884.72
759.794	905.2
759.977	843.76
760.161	1038.32
760.345	948.21
760.528	1015.79
760.712	956.4
760.895	868.34
761.079	886.77
761.263	815.09
761.446	856.05
761.63	913.39
761.813	913.39
761.997	808.95
762.18	817.14
762.364	872.43
762.547	765.94
762.731	851.96
762.914	825.33
763.098	831.48
763.281	858.1
763.464	774.13
763.648	854
763.831	815.09
764.015	755.7
764.198	937.97
764.381	741.36
764.564	874.48
764.748	770.04
764.931	858.1
765.114	747.51
765.297	767.99
765.481	735.22
765.664	700.41
765.847	815.09
766.03	849.91
766.213	737.27
766.397	839.67
766.58	749.56
766.763	856.05
766.946	827.38
767.129	733.17
767.312	700.41
767.495	792.56
767.678	675.83
767.861	743.41
768.044	765.94
768.227	731.12
768.41	718.84
768.593	694.26
768.776	706.55
768.959	804.85
769.142	782.32
769.324	626.68
769.507	743.41
769.69	749.56
769.873	694.26
770.056	767.99
770.239	710.65
770.421	770.04
770.604	675.83
770.787	743.41
770.97	751.6
771.152	544.76
771.335	655.35
771.518	686.07
771.7	708.6
771.883	663.54
772.066	712.69
772.248	712.69
772.431	669.69
772.613	765.94
772.796	692.21
772.978	655.35
773.161	653.3
773.343	630.77
773.526	712.69
773.708	630.77
773.891	563.19
774.073	655.35
774.256	577.53
774.438	671.73
774.621	628.73
774.803	626.68
774.985	602.1
775.168	626.68
775.35	643.06
775.532	643.06
775.715	624.63
775.897	557.05
776.079	530.42
776.261	587.77
776.444	618.49
776.626	626.68
776.808	589.82
776.99	544.76
777.173	550.9
777.355	546.81
777.537	528.38
777.719	520.18
777.901	595.96
778.083	534.52
778.265	536.57
778.447	571.38
778.629	544.76
778.811	536.57
778.993	532.47
779.175	522.23
779.357	473.08
779.539	587.77
779.721	546.81
779.903	548.86
780.085	493.56
780.267	503.8
780.449	511.99
780.631	544.76
780.812	557.05
780.994	503.8
781.176	522.23
781.358	436.22
781.54	458.75
781.721	561.14
781.903	565.24
782.085	415.74
782.267	505.85
782.448	397.31
782.63	425.98
782.812	438.27
782.993	428.03
783.175	405.5
783.357	454.65
783.538	403.45
783.72	403.45
783.901	389.11
784.083	446.46
784.264	491.51
784.446	364.54
784.627	350.2
784.809	407.55
784.99	311.29
785.172	440.31
785.353	444.41
785.535	366.59
785.716	354.3
785.897	319.48
786.079	364.54
786.26	405.5
786.441	339.96
786.623	266.24
786.804	385.02
786.985	311.29
787.167	358.39
787.348	315.39
787.529	348.15
787.71	397.31
787.891	438.27
788.073	372.73
788.254	268.28
788.435	380.92
788.616	397.31
788.797	360.44
788.978	344.06
789.159	309.24
789.34	466.94
789.522	299
789.703	251.9
789.884	364.54
790.065	376.83
790.246	339.96
790.427	260.09
790.607	280.57
790.788	305.15
790.969	278.52
791.15	313.34
791.331	389.11
791.512	317.44
791.693	241.66
791.874	270.33
792.054	421.88
792.235	329.72
792.416	182.27
792.597	225.28
792.778	274.43
792.958	348.15
793.139	241.66
793.32	278.52
793.5	260.09
793.681	268.28
793.862	266.24
794.042	311.29
794.223	241.66
794.404	229.37
794.584	243.71
794.765	200.7
794.945	231.42
795.126	208.89
795.306	327.68
795.487	202.75
795.667	284.67
795.848	284.67
796.028	233.47
796.209	348.15
796.389	325.63
796.57	249.85
796.75	266.24
796.93	276.48
797.111	286.72
797.291	217.08
797.471	194.56
797.652	243.71
797.832	253.95
798.012	225.28
798.192	225.28
798.373	225.28
798.553	253.95
798.733	206.84
798.913	131.07
799.093	221.18
799.274	217.08
799.454	284.67
799.634	192.51
799.814	315.39
799.994	202.75
800.174	266.24
800.354	253.95
800.534	186.37
800.714	227.32
800.894	217.08
801.074	176.13
801.254	167.93
801.434	174.08
801.614	208.89
801.794	149.5
801.974	819.19
802.154	260.09
802.334	243.71
802.514	184.32
802.693	159.74
802.873	98.3
803.053	219.13
803.233	200.7
803.413	206.84
803.592	143.36
803.772	151.55
803.952	167.93
804.131	61.44
804.311	94.21
804.491	256
804.67	147.45
804.85	167.93
805.03	204.8
805.209	272.38
805.389	104.45
805.568	172.03
805.748	143.36
805.928	143.36
806.107	231.42
806.287	225.28
806.466	192.51
806.646	251.9
806.825	92.16
807.004	143.36
807.184	163.84
807.363	163.84
807.543	153.6
807.722	227.32
807.901	219.13
808.081	196.61
808.26	165.89
808.439	151.55
808.619	169.98
808.798	151.55
808.977	131.07
809.156	208.89
809.336	194.56
809.515	196.61
809.694	67.58
809.873	63.49
810.052	153.6
810.231	190.46
810.411	139.26
810.59	153.6
810.769	219.13
810.948	153.6
811.127	106.49
811.306	81.92
811.485	102.4
811.664	176.13
811.843	139.26
812.022	94.21
812.201	184.32
812.38	163.84
812.559	96.25
812.737	139.26
812.916	110.59
813.095	53.25
813.274	104.45
813.453	217.08
813.632	147.45
813.811	151.55
813.989	10.24
814.168	141.31
814.347	61.44
814.526	135.17
814.704	143.36
814.883	151.55
815.062	67.58
815.24	153.6
815.419	106.49
815.598	196.61
815.776	61.44
815.955	40.96
816.133	71.68
816.312	104.45
816.49	81.92
816.669	196.61
816.847	143.36
817.026	131.07
817.204	114.69
817.383	90.11
817.561	53.25
817.74	137.21
817.918	124.93
818.097	65.54
818.275	108.54
818.453	120.83
818.632	151.55
818.81	104.45
818.988	12.29
819.167	110.59
819.345	69.63
819.523	153.6
819.701	139.26
819.879	129.02
820.058	47.1
820.236	71.68
820.414	69.63
820.592	120.83
820.77	114.69
820.948	120.83
821.127	38.91
821.305	118.78
821.483	102.4
821.661	110.59
821.839	114.69
822.017	65.54
822.195	32.77
822.373	90.11
822.551	96.25
822.729	126.97
822.907	65.54
823.085	167.93
823.262	112.64
823.44	36.86
823.618	24.58
823.796	65.54
823.974	10.24
824.152	67.58
824.329	30.72
824.507	36.86
824.685	135.17
824.863	110.59
825.04	57.34
825.218	77.82
825.396	-24.58
825.574	12.29
825.751	45.06
825.929	94.21
826.107	28.67
826.284	94.21
826.462	129.02
826.639	57.34
826.817	73.73
826.994	86.01
827.172	6.14
827.349	94.21
827.527	77.82
827.704	88.06
827.882	122.88
828.059	96.25
828.237	90.11
828.414	86.01
828.591	18.43
828.769	65.54
828.946	47.1
829.124	63.49
829.301	69.63
829.478	38.91
829.655	88.06
829.833	71.68
830.01	53.25
830.187	53.25
830.364	14.34
830.542	104.45
830.719	69.63
830.896	92.16
831.073	110.59
831.25	77.82
831.427	-8.19
831.604	96.25
831.782	-4.1
831.959	61.44
832.136	71.68
832.313	71.68
832.49	-30.72
832.667	30.72
832.844	38.91
833.021	129.02
833.198	73.73
833.374	40.96
833.551	20.48
833.728	36.86
833.905	77.82
834.082	-45.06
834.259	-2.05
834.436	86.01
834.612	14.34
834.789	98.3
834.966	32.77
835.143	73.73
835.319	-20.48
835.496	-2.05
835.673	96.25
835.85	110.59
836.026	63.49
836.203	77.82
836.38	53.25
836.556	20.48
836.733	14.34
836.909	69.63
837.086	20.48
837.262	-36.86
837.439	-10.24
837.616	12.29
837.792	18.43
837.968	110.59
838.145	-14.34
838.321	32.77
838.498	47.1
838.674	122.88
838.851	-2.05
839.027	38.91
839.203	-6.14
839.38	63.49
839.556	36.86
839.732	55.3
839.909	38.91
840.085	108.54
840.261	-16.38
840.437	139.26
840.614	45.06
840.79	88.06
840.966	0
841.142	45.06
841.318	24.58
841.494	32.77
841.671	38.91
841.847	67.58
842.023	10.24
842.199	75.77
842.375	90.11
842.551	12.29
842.727	28.67
842.903	65.54
843.079	8.19
843.255	-12.29
843.431	79.87
843.607	135.17
843.783	-2.05
843.959	20.48
844.134	6.14
844.31	30.72
844.486	-75.77
844.662	-8.19
844.838	24.58
845.013	86.01
845.189	112.64
845.365	8.19
845.541	40.96
845.716	-4.1
845.892	34.82
846.068	32.77
846.244	6.14
846.419	0
846.595	-22.53
846.77	-24.58
846.946	14.34
847.122	4.1
847.297	-2.05
847.473	65.54
847.648	-10.24
847.824	53.25
847.999	4.1
848.175	47.1
848.35	-4.1
848.526	-6.14
848.701	2.05
848.876	86.01
849.052	-8.19
849.227	12.29
849.403	-26.62
849.578	55.3
849.753	-57.34
849.929	79.87
850.104	32.77
850.279	-8.19
850.454	36.86
850.63	75.77
850.805	-10.24
850.98	-4.1
851.155	40.96
851.33	6.14
851.505	-34.82
851.681	55.3
851.856	12.29
852.031	36.86
852.206	20.48
852.381	-26.62
852.556	28.67
852.731	-4.1
852.906	47.1
853.081	2.05
853.256	126.97
853.431	32.77
853.606	63.49
853.781	-28.67
853.956	-2.05
854.131	2.05
854.305	73.73
854.48	45.06
854.655	6.14
854.83	88.06
855.005	-12.29
855.18	79.87
855.354	10.24
855.529	55.3
855.704	-59.39
855.879	-14.34
856.053	-30.72
856.228	65.54
856.403	-53.25
856.577	45.06
856.752	-2.05
856.926	43.01
857.101	36.86
857.276	28.67
857.45	36.86
857.625	94.21
857.799	36.86
857.974	-2.05
858.148	-53.25
858.323	16.38
858.497	4.1
858.672	28.67
858.846	-36.86
859.02	47.1
859.195	-20.48
859.369	4.1
859.543	2.05
859.718	-4.1
859.892	-12.29
860.066	47.1
860.241	28.67
860.415	-20.48
860.589	6.14
860.763	24.58
860.938	0
861.112	53.25
861.286	-20.48
861.46	-26.62
861.634	-10.24
861.808	53.25
861.982	-45.06
862.157	-53.25
862.331	-36.86
862.505	96.25
862.679	22.53
862.853	69.63
863.027	-53.25
863.201	47.1
863.375	8.19
863.549	12.29
863.722	-10.24
863.896	67.58
864.07	30.72
864.244	-12.29
864.418	61.44
864.592	-69.63
864.766	20.48
864.939	-28.67
865.113	14.34
865.287	-12.29
865.461	-51.2
865.634	45.06
865.808	55.3
865.982	77.82
866.156	-28.67
866.329	-26.62
866.503	-16.38
866.676	53.25
866.85	-12.29
867.024	-36.86
867.197	24.58
867.371	73.73
867.544	28.67
867.718	-12.29
867.891	90.11
868.065	32.77
868.238	8.19
868.412	65.54
868.585	51.2
868.759	53.25
868.932	16.38
869.105	4.1
869.279	12.29
869.452	-28.67
869.625	45.06
869.799	24.58
869.972	-2.05
870.145	-10.24
870.319	47.1
870.492	-24.58
870.665	-28.67
870.838	24.58
871.011	-61.44
871.185	36.86
871.358	-71.68
871.531	-10.24
871.704	-83.97
871.877	-61.44
872.05	8.19
872.223	-4.1
872.396	69.63
872.569	36.86
872.742	-18.43
872.915	79.87
873.088	4.1
873.261	-81.92
873.434	-4.1
873.607	36.86
873.78	-36.86
873.953	-45.06
874.126	59.39
874.299	-36.86
874.471	0
874.644	-51.2
874.817	-28.67
874.99	-36.86
875.163	2.05
875.335	0
875.508	-32.77
875.681	73.73
875.853	-73.73
876.026	14.34
876.199	30.72
876.371	-12.29
876.544	-34.82
876.717	36.86
876.889	12.29
877.062	-4.1
877.234	-20.48
877.407	-4.1
877.579	-36.86
877.752	-45.06
877.924	-10.24
878.097	-12.29
878.269	61.44
878.442	12.29
878.614	26.62
878.786	6.14
878.959	8.19
879.131	12.29
879.303	96.25
879.476	53.25
879.648	28.67
879.82	-2.05
879.993	-24.58
880.165	-16.38
880.337	-49.15
880.509	-24.58
880.681	36.86
880.854	4.1
881.026	-28.67
881.198	36.86
881.37	36.86
881.542	-12.29
881.714	28.67
881.886	-30.72
882.058	12.29
882.23	-10.24
882.402	-65.53
882.574	16.38
882.746	18.43
882.918	38.91
883.09	-36.86
883.262	-12.29
883.434	32.77
883.606	-32.77
883.778	-14.34
883.95	43.01
884.122	4.1
884.293	69.63
884.465	38.91
884.637	65.54
884.809	20.48
884.98	12.29
885.152	26.62
885.324	4.1
885.496	-8.19
885.667	-8.19
885.839	-73.73
886.011	75.77
886.182	22.53
886.354	28.67
886.525	4.1
886.697	-45.06
886.869	-45.06
887.04	45.06
887.212	98.3
887.383	-45.06
887.555	-24.58
887.726	-34.82
887.897	-18.43
888.069	-20.48
888.24	4.1
888.412	-8.19
888.583	-4.1
888.754	-16.38
888.926	-86.01
889.097	12.29
889.268	-12.29
889.44	20.48
889.611	-65.53
889.782	-26.62
889.953	-40.96
890.125	-2.05
890.296	4.1
890.467	-2.05
890.638	-12.29
890.809	34.82
890.98	-53.25
891.151	53.25
891.323	6.14
891.494	6.14
891.665	65.54
891.836	-36.86
892.007	4.1
892.178	8.19
892.349	-4.1
892.52	-18.43
892.691	8.19
892.862	45.06
893.032	-45.06
893.203	-32.77
893.374	43.01
893.545	79.87
893.716	-43.01
893.887	81.92
894.057	20.48
894.228	8.19
894.399	-10.24
894.57	40.96
894.74	-8.19
894.911	12.29
895.082	38.91
895.253	32.77
895.423	36.86
895.594	30.72
895.764	-67.58
895.935	-8.19
896.106	-20.48
896.276	16.38
896.447	-8.19
896.617	6.14
896.788	-10.24
896.958	-8.19
897.129	-12.29
897.299	-43.01
897.47	34.82
897.64	40.96
897.81	-28.67
897.981	55.3
898.151	-43.01
898.322	0
898.492	-43.01
898.662	-36.86
898.832	-2.05
899.003	14.34
899.173	6.14
899.343	-75.77
899.513	-36.86
