Data from USB4F104151__191__14-33-05-358.txt Node

Date: Thu Mar 13 14:33:05 EDT 2025
User: louis
Spectrometer: USB4F10415
Trigger mode: 4
Integration Time (sec): 2.500000E-2
Scans to average: 1
Electric dark correction enabled: true
Nonlinearity correction enabled: false
Boxcar width: 0
XAxis mode: Wavelengths
Number of Pixels in Spectrum: 3648
>>>>>Begin Spectral Data<<<<<
178.204	-126.29
178.424	-126.29
178.644	-126.29
178.864	-107.86
179.084	-165.2
179.304	-1.37
179.524	-36.18
179.744	-54.61
179.964	72.36
180.184	-1.37
180.404	45.74
180.624	72.36
180.844	-11.61
181.064	-73.04
181.283	55.98
181.503	-52.56
181.723	-15.7
181.943	-1.37
182.163	17.07
182.383	-3.41
182.602	94.89
182.822	131.75
183.042	-36.18
183.262	53.93
183.482	-13.65
183.701	105.13
183.921	-11.61
184.141	12.97
184.361	21.16
184.58	70.31
184.8	72.36
185.02	-50.52
185.239	0.68
185.459	39.59
185.679	94.89
185.898	29.35
186.118	98.99
186.338	-9.56
186.557	62.12
186.777	-11.61
186.997	39.59
187.216	47.79
187.436	64.17
187.655	-11.61
187.875	62.12
188.095	4.78
188.314	23.21
188.534	19.11
188.753	146.09
188.973	-85.33
189.192	39.59
189.412	29.35
189.631	49.83
189.851	70.31
190.07	80.55
190.29	-75.09
190.509	-36.18
190.729	-19.8
190.948	37.55
191.168	119.46
191.387	37.55
191.607	-15.7
191.826	19.11
192.045	8.87
192.265	45.74
192.484	-3.41
192.704	6.83
192.923	27.31
193.142	25.26
193.362	84.65
193.581	25.26
193.8	90.79
194.02	15.02
194.239	94.89
194.458	27.31
194.678	-56.66
194.897	31.4
195.116	15.02
195.335	37.55
195.555	45.74
195.774	-19.8
195.993	86.7
196.212	51.88
196.432	17.07
196.651	49.83
196.87	-1.37
197.089	49.83
197.308	72.36
197.528	-5.46
197.747	-91.48
197.966	78.51
198.185	37.55
198.404	4.78
198.623	23.21
198.842	41.64
199.062	51.88
199.281	10.92
199.5	-19.8
199.719	60.07
199.938	-52.56
200.157	58.03
200.376	62.12
200.595	12.97
200.814	35.5
201.033	-60.76
201.252	45.74
201.471	-32.08
201.69	121.51
201.909	29.35
202.128	21.16
202.347	25.26
202.566	47.79
202.785	-9.56
203.004	33.45
203.223	84.65
203.442	-9.56
203.661	-17.75
203.879	2.73
204.098	35.5
204.317	-40.28
204.536	55.98
204.755	25.26
204.974	39.59
205.193	111.27
205.411	4.78
205.63	27.31
205.849	15.02
206.068	-9.56
206.287	-25.94
206.505	96.94
206.724	31.4
206.943	-7.51
207.162	-23.89
207.381	-38.23
207.599	-36.18
207.818	25.26
208.037	37.55
208.255	-11.61
208.474	31.4
208.693	21.16
208.911	-5.46
209.13	41.64
209.349	6.83
209.567	-3.41
209.786	103.08
210.005	4.78
210.223	-36.18
210.442	-3.41
210.661	62.12
210.879	31.4
211.098	-9.56
211.316	-1.37
211.535	70.31
211.753	37.55
211.972	55.98
212.191	-1.37
212.409	45.74
212.628	6.83
212.846	15.02
213.065	55.98
213.283	72.36
213.502	-52.56
213.72	-52.56
213.938	21.16
214.157	94.89
214.375	45.74
214.594	45.74
214.812	-19.8
215.031	-56.66
215.249	66.22
215.467	-1.37
215.686	31.4
215.904	58.03
216.122	25.26
216.341	33.45
216.559	23.21
216.778	23.21
216.996	55.98
217.214	21.16
217.432	31.4
217.651	-11.61
217.869	-7.51
218.087	47.79
218.306	31.4
218.524	31.4
218.742	-60.76
218.96	31.4
219.179	-38.23
219.397	-9.56
219.615	15.02
219.833	80.55
220.051	-25.94
220.27	68.27
220.488	29.35
220.706	6.83
220.924	21.16
221.142	-75.09
221.36	90.79
221.578	62.12
221.796	0.68
222.015	27.31
222.233	29.35
222.451	4.78
222.669	-15.7
222.887	96.94
223.105	12.97
223.323	-19.8
223.541	-34.13
223.759	39.59
223.977	-38.23
224.195	94.89
224.413	78.51
224.631	8.87
224.849	-36.18
225.067	103.08
225.285	-15.7
225.503	-27.99
225.721	-52.56
225.939	12.97
226.157	78.51
226.375	49.83
226.592	-23.89
226.81	47.79
227.028	86.7
227.246	-7.51
227.464	33.45
227.682	45.74
227.9	88.75
228.117	-1.37
228.335	41.64
228.553	-19.8
228.771	47.79
228.989	49.83
229.206	45.74
229.424	15.02
229.642	6.83
229.86	-19.8
230.077	33.45
230.295	17.07
230.513	6.83
230.731	45.74
230.948	41.64
231.166	37.55
231.384	-44.37
231.601	25.26
231.819	88.75
232.037	-32.08
232.254	27.31
232.472	-1.37
232.689	37.55
232.907	25.26
233.125	-7.51
233.342	-3.41
233.56	8.87
233.777	64.17
233.995	-9.56
234.213	23.21
234.43	-3.41
234.648	-23.89
234.865	-15.7
235.083	101.03
235.3	-25.94
235.518	-11.61
235.735	25.26
235.953	137.9
236.17	45.74
236.388	55.98
236.605	51.88
236.822	64.17
237.04	-23.89
237.257	43.69
237.475	0.68
237.692	39.59
237.909	55.98
238.127	82.6
238.344	23.21
238.562	94.89
238.779	-42.32
238.996	-83.28
239.214	23.21
239.431	31.4
239.648	-3.41
239.865	27.31
240.083	6.83
240.3	21.16
240.517	-50.52
240.735	-9.56
240.952	84.65
241.169	55.98
241.386	15.02
241.603	31.4
241.821	-34.13
242.038	82.6
242.255	0.68
242.472	6.83
242.689	47.79
242.907	10.92
243.124	-7.51
243.341	29.35
243.558	-9.56
243.775	-3.41
243.992	-3.41
244.209	23.21
244.426	82.6
244.643	31.4
244.86	12.97
245.078	53.93
245.295	55.98
245.512	43.69
245.729	-48.47
245.946	23.21
246.163	62.12
246.38	29.35
246.597	72.36
246.814	-9.56
247.031	53.93
247.248	37.55
247.464	19.11
247.681	-66.9
247.898	37.55
248.115	-1.37
248.332	-11.61
248.549	-25.94
248.766	41.64
248.983	-3.41
249.2	-7.51
249.417	82.6
249.633	4.78
249.85	-3.41
250.067	-36.18
250.284	8.87
250.501	25.26
250.717	12.97
250.934	-17.75
251.151	72.36
251.368	-23.89
251.585	29.35
251.801	82.6
252.018	-40.28
252.235	64.17
252.451	12.97
252.668	-19.8
252.885	27.31
253.102	10.92
253.318	-87.38
253.535	55.98
253.752	-7.51
253.968	37.55
254.185	-15.7
254.401	29.35
254.618	66.22
254.835	6.83
255.051	33.45
255.268	82.6
255.484	0.68
255.701	35.5
255.917	88.75
256.134	0.68
256.351	53.93
256.567	27.31
256.784	-23.89
257	10.92
257.217	-19.8
257.433	78.51
257.65	92.84
257.866	43.69
258.082	-62.8
258.299	-3.41
258.515	37.55
258.732	47.79
258.948	-77.14
259.165	-15.7
259.381	41.64
259.597	33.45
259.814	64.17
260.03	-15.7
260.246	27.31
260.463	21.16
260.679	82.6
260.895	15.02
261.112	74.41
261.328	10.92
261.544	-3.41
261.761	107.18
261.977	-44.37
262.193	-52.56
262.409	66.22
262.626	-17.75
262.842	70.31
263.058	17.07
263.274	6.83
263.49	-15.7
263.707	33.45
263.923	31.4
264.139	31.4
264.355	0.68
264.571	29.35
264.787	21.16
265.004	41.64
265.22	-9.56
265.436	66.22
265.652	-44.37
265.868	-48.47
266.084	51.88
266.3	47.79
266.516	-11.61
266.732	129.7
266.948	64.17
267.164	17.07
267.38	-9.56
267.596	-7.51
267.812	90.79
268.028	53.93
268.244	0.68
268.46	4.78
268.676	4.78
268.892	0.68
269.108	-21.85
269.324	-27.99
269.54	62.12
269.756	29.35
269.972	21.16
270.188	21.16
270.403	0.68
270.619	15.02
270.835	-25.94
271.051	10.92
271.267	29.35
271.483	-11.61
271.698	33.45
271.914	72.36
272.13	31.4
272.346	-1.37
272.562	-25.94
272.777	-17.75
272.993	4.78
273.209	-19.8
273.425	10.92
273.64	-27.99
273.856	86.7
274.072	-27.99
274.287	37.55
274.503	-50.52
274.719	15.02
274.934	4.78
275.15	8.87
275.366	70.31
275.581	-27.99
275.797	90.79
276.012	17.07
276.228	53.93
276.444	58.03
276.659	37.55
276.875	-3.41
277.09	-34.13
277.306	62.12
277.521	55.98
277.737	-17.75
277.952	62.12
278.168	80.55
278.383	21.16
278.599	49.83
278.814	45.74
279.03	53.93
279.245	37.55
279.461	-27.99
279.676	29.35
279.892	6.83
280.107	12.97
280.322	-25.94
280.538	31.4
280.753	-21.85
280.969	29.35
281.184	78.51
281.399	45.74
281.615	17.07
281.83	21.16
282.045	2.73
282.26	-36.18
282.476	-15.7
282.691	80.55
282.906	-23.89
283.122	29.35
283.337	-17.75
283.552	39.59
283.767	-11.61
283.983	37.55
284.198	55.98
284.413	47.79
284.628	-36.18
284.843	45.74
285.058	-68.95
285.274	-36.18
285.489	0.68
285.704	94.89
285.919	-17.75
286.134	-13.65
286.349	0.68
286.564	-17.75
286.779	47.79
286.995	66.22
287.21	29.35
287.425	29.35
287.64	-1.37
287.855	8.87
288.07	25.26
288.285	39.59
288.5	29.35
288.715	41.64
288.93	-32.08
289.145	-36.18
289.36	98.99
289.575	25.26
289.79	19.11
290.004	53.93
290.219	64.17
290.434	-7.51
290.649	37.55
290.864	-7.51
291.079	29.35
291.294	17.07
291.509	33.45
291.724	0.68
291.938	6.83
292.153	53.93
292.368	25.26
292.583	45.74
292.798	115.37
293.012	-15.7
293.227	6.83
293.442	-36.18
293.657	49.83
293.871	-13.65
294.086	4.78
294.301	98.99
294.516	53.93
294.73	31.4
294.945	-7.51
295.16	29.35
295.374	12.97
295.589	-19.8
295.804	-32.08
296.018	76.46
296.233	8.87
296.447	23.21
296.662	-23.89
296.877	37.55
297.091	-1.37
297.306	-19.8
297.52	45.74
297.735	62.12
297.949	23.21
298.164	15.02
298.378	29.35
298.593	-36.18
298.807	-25.94
299.022	-36.18
299.236	25.26
299.451	58.03
299.665	74.41
299.88	10.92
300.094	41.64
300.309	70.31
300.523	21.16
300.737	49.83
300.952	55.98
301.166	31.4
301.381	0.68
301.595	23.21
301.809	103.08
302.024	-17.75
302.238	-25.94
302.452	29.35
302.667	27.31
302.881	55.98
303.095	47.79
303.309	82.6
303.524	49.83
303.738	88.75
303.952	-3.41
304.166	62.12
304.381	-77.14
304.595	45.74
304.809	74.41
305.023	41.64
305.237	-9.56
305.452	78.51
305.666	-19.8
305.88	-3.41
306.094	41.64
306.308	27.31
306.522	43.69
306.736	23.21
306.95	39.59
307.164	41.64
307.379	80.55
307.593	37.55
307.807	84.65
308.021	53.93
308.235	47.79
308.449	-19.8
308.663	58.03
308.877	45.74
309.091	62.12
309.305	-23.89
309.519	-66.9
309.733	35.5
309.947	-77.14
310.161	4.78
310.374	19.11
310.588	94.89
310.802	29.35
311.016	45.74
311.23	21.16
311.444	53.93
311.658	-11.61
311.872	19.11
312.085	90.79
312.299	37.55
312.513	53.93
312.727	-38.23
312.941	6.83
313.154	49.83
313.368	23.21
313.582	-52.56
313.796	31.4
314.009	12.97
314.223	23.21
314.437	25.26
314.651	0.68
314.864	45.74
315.078	19.11
315.292	6.83
315.505	33.45
315.719	86.7
315.933	-13.65
316.146	-5.46
316.36	-44.37
316.573	88.75
316.787	47.79
317.001	105.13
317.214	-36.18
317.428	-15.7
317.641	-27.99
317.855	37.55
318.068	-1.37
318.282	10.92
318.495	45.74
318.709	84.65
318.922	39.59
319.136	127.66
319.349	21.16
319.563	4.78
319.776	45.74
319.99	21.16
320.203	62.12
320.417	72.36
320.63	37.55
320.843	94.89
321.057	53.93
321.27	70.31
321.483	-19.8
321.697	105.13
321.91	70.31
322.124	12.97
322.337	21.16
322.55	0.68
322.763	86.7
322.977	12.97
323.19	82.6
323.403	-32.08
323.617	33.45
323.83	98.99
324.043	-44.37
324.256	37.55
324.469	21.16
324.683	107.18
324.896	21.16
325.109	39.59
325.322	-58.71
325.535	-1.37
325.748	39.59
325.962	17.07
326.175	113.32
326.388	45.74
326.601	70.31
326.814	37.55
327.027	70.31
327.24	78.51
327.453	15.02
327.666	72.36
327.879	47.79
328.092	86.7
328.305	6.83
328.518	-34.13
328.731	41.64
328.944	8.87
329.157	96.94
329.37	10.92
329.583	45.74
329.796	164.52
330.009	-25.94
330.222	37.55
330.435	12.97
330.648	29.35
330.861	47.79
331.073	37.55
331.286	105.13
331.499	47.79
331.712	35.5
331.925	17.07
332.138	-7.51
332.35	29.35
332.563	41.64
332.776	80.55
332.989	33.45
333.202	72.36
333.414	49.83
333.627	37.55
333.84	-11.61
334.053	8.87
334.265	33.45
334.478	58.03
334.691	55.98
334.903	49.83
335.116	103.08
335.329	21.16
335.541	60.07
335.754	0.68
335.966	23.21
336.179	12.97
336.392	55.98
336.604	6.83
336.817	101.03
337.029	31.4
337.242	-15.7
337.454	4.78
337.667	-1.37
337.88	23.21
338.092	29.35
338.305	37.55
338.517	15.02
338.729	53.93
338.942	74.41
339.154	27.31
339.367	47.79
339.579	64.17
339.792	-68.95
340.004	70.31
340.217	-19.8
340.429	70.31
340.641	4.78
340.854	-17.75
341.066	53.93
341.278	80.55
341.491	105.13
341.703	-42.32
341.915	8.87
342.128	78.51
342.34	25.26
342.552	-25.94
342.764	33.45
342.977	6.83
343.189	12.97
343.401	19.11
343.613	4.78
343.826	8.87
344.038	23.21
344.25	66.22
344.462	41.64
344.674	31.4
344.886	-50.52
345.099	-21.85
345.311	37.55
345.523	66.22
345.735	-97.62
345.947	33.45
346.159	8.87
346.371	-3.41
346.583	51.88
346.795	119.46
347.007	23.21
347.219	-17.75
347.431	90.79
347.643	47.79
347.855	19.11
348.067	62.12
348.279	6.83
348.491	27.31
348.703	62.12
348.915	49.83
349.127	33.45
349.339	62.12
349.551	-25.94
349.763	31.4
349.975	-58.71
350.187	70.31
350.399	127.66
350.61	6.83
350.822	68.27
351.034	41.64
351.246	72.36
351.458	88.75
351.669	107.18
351.881	86.7
352.093	17.07
352.305	15.02
352.517	8.87
352.728	172.71
352.94	64.17
353.152	-11.61
353.363	31.4
353.575	68.27
353.787	64.17
353.999	105.13
354.21	131.75
354.422	0.68
354.633	-3.41
354.845	45.74
355.057	-15.7
355.268	12.97
355.48	25.26
355.692	-25.94
355.903	23.21
356.115	15.02
356.326	-17.75
356.538	62.12
356.749	78.51
356.961	90.79
357.172	-27.99
357.384	0.68
357.595	78.51
357.807	45.74
358.018	-3.41
358.23	74.41
358.441	66.22
358.653	47.79
358.864	-34.13
359.075	4.78
359.287	51.88
359.498	62.12
359.709	94.89
359.921	72.36
360.132	-3.41
360.344	-17.75
360.555	-5.46
360.766	29.35
360.977	72.36
361.189	78.51
361.4	12.97
361.611	94.89
361.823	45.74
362.034	45.74
362.245	-15.7
362.456	82.6
362.667	27.31
362.879	37.55
363.09	21.16
363.301	12.97
363.512	66.22
363.723	45.74
363.935	17.07
364.146	72.36
364.357	-34.13
364.568	21.16
364.779	8.87
364.99	70.31
365.201	-7.51
365.412	76.46
365.623	8.87
365.834	-19.8
366.045	62.12
366.256	17.07
366.467	86.7
366.678	33.45
366.889	0.68
367.1	39.59
367.311	39.59
367.522	29.35
367.733	-30.04
367.944	64.17
368.155	45.74
368.366	49.83
368.577	43.69
368.788	127.66
368.999	49.83
369.209	84.65
369.42	133.8
369.631	109.22
369.842	55.98
370.053	55.98
370.264	33.45
370.474	-11.61
370.685	31.4
370.896	82.6
371.107	101.03
371.317	152.23
371.528	12.97
371.739	-44.37
371.95	51.88
372.16	94.89
372.371	-89.43
372.582	25.26
372.792	0.68
373.003	64.17
373.214	68.27
373.424	64.17
373.635	-13.65
373.846	88.75
374.056	47.79
374.267	21.16
374.477	21.16
374.688	94.89
374.898	23.21
375.109	21.16
375.319	62.12
375.53	33.45
375.74	49.83
375.951	55.98
376.161	49.83
376.372	25.26
376.582	17.07
376.793	66.22
377.003	4.78
377.214	45.74
377.424	72.36
377.635	139.94
377.845	41.64
378.055	144.04
378.266	55.98
378.476	31.4
378.686	41.64
378.897	53.93
379.107	107.18
379.317	66.22
379.528	47.79
379.738	78.51
379.948	58.03
380.158	119.46
380.369	31.4
380.579	103.08
380.789	10.92
380.999	60.07
381.21	51.88
381.42	72.36
381.63	39.59
381.84	78.51
382.05	80.55
382.261	45.74
382.471	37.55
382.681	45.74
382.891	107.18
383.101	45.74
383.311	-38.23
383.521	4.78
383.731	74.41
383.941	111.27
384.151	107.18
384.361	64.17
384.571	94.89
384.781	62.12
384.991	82.6
385.201	76.46
385.411	27.31
385.621	103.08
385.831	45.74
386.041	45.74
386.251	76.46
386.461	72.36
386.671	25.26
386.881	64.17
387.091	-23.89
387.301	94.89
387.511	-15.7
387.72	74.41
387.93	70.31
388.14	4.78
388.35	47.79
388.56	72.36
388.769	29.35
388.979	39.59
389.189	-7.51
389.399	33.45
389.609	115.37
389.818	31.4
390.028	-44.37
390.238	115.37
390.447	33.45
390.657	72.36
390.867	70.31
391.076	37.55
391.286	86.7
391.496	-25.94
391.705	62.12
391.915	62.12
392.125	152.23
392.334	55.98
392.544	88.75
392.753	2.73
392.963	53.93
393.172	37.55
393.382	47.79
393.591	178.86
393.801	119.46
394.01	86.7
394.22	55.98
394.429	70.31
394.639	125.61
394.848	41.64
395.058	103.08
395.267	72.36
395.477	66.22
395.686	139.94
395.895	131.75
396.105	117.42
396.314	43.69
396.524	78.51
396.733	33.45
396.942	121.51
397.152	105.13
397.361	70.31
397.57	107.18
397.78	-9.56
397.989	144.04
398.198	185
398.407	82.6
398.617	41.64
398.826	103.08
399.035	137.9
399.244	53.93
399.453	49.83
399.663	82.6
399.872	123.56
400.081	45.74
400.29	201.38
400.499	109.22
400.708	90.79
400.917	144.04
401.127	31.4
401.336	146.09
401.545	203.43
401.754	144.04
401.963	144.04
402.172	141.99
402.381	152.23
402.59	86.7
402.799	90.79
403.008	115.37
403.217	127.66
403.426	133.8
403.635	113.32
403.844	129.7
404.053	170.66
404.262	131.75
404.471	221.86
404.68	160.42
404.888	127.66
405.097	158.38
405.306	178.86
405.515	152.23
405.724	152.23
405.933	152.23
406.142	244.39
406.35	219.82
406.559	146.09
406.768	176.81
406.977	189.1
407.185	199.34
407.394	234.15
407.603	154.28
407.812	234.15
408.02	283.3
408.229	275.11
408.438	199.34
408.646	299.69
408.855	232.1
409.064	271.01
409.272	328.36
409.481	279.21
409.69	283.3
409.898	316.07
410.107	377.51
410.315	318.12
410.524	379.56
410.733	369.32
410.941	414.37
411.15	365.22
411.358	469.67
411.567	447.14
411.775	365.22
411.984	438.95
412.192	545.44
412.401	555.68
412.609	520.87
412.818	500.39
413.026	498.34
413.234	516.77
413.443	502.43
413.651	545.44
413.86	627.36
414.068	690.85
414.276	651.94
414.485	629.41
414.693	676.51
414.901	762.53
415.11	686.75
415.318	791.2
415.526	842.4
415.734	897.69
415.943	948.89
416.151	926.36
416.359	922.27
416.567	928.41
416.776	977.56
416.984	1051.29
417.192	1065.63
417.4	1053.34
417.608	965.28
417.817	1184.41
418.025	1200.79
418.233	1358.49
418.441	1282.71
418.649	1397.4
418.857	1362.58
419.065	1485.46
419.273	1534.61
419.481	1473.17
419.689	1587.86
419.897	1659.54
420.105	1735.31
420.313	1741.46
420.521	1841.81
420.729	1770.13
420.937	1983.12
421.145	1954.44
421.353	1954.44
421.561	2271.88
421.769	2273.93
421.977	2316.94
422.185	2302.6
422.393	2364.04
422.601	2474.63
422.809	2581.12
423.017	2503.3
423.224	2642.56
423.432	2884.22
423.64	2749.06
423.848	3078.78
424.056	3015.29
424.263	3228.28
424.471	3099.26
424.679	3322.49
424.887	3357.3
425.094	3537.52
425.302	3555.96
425.51	3748.47
425.718	3928.69
425.925	3871.34
426.133	3891.82
426.341	4319.85
426.548	4414.06
426.756	4321.9
426.964	4528.74
427.171	4819.55
427.379	4903.52
427.586	4825.7
427.794	5020.25
428.001	5272.15
428.209	5636.69
428.417	5411.42
428.624	5847.63
428.832	5960.27
429.039	5804.63
429.247	5870.16
429.454	6298.19
429.662	6775.36
429.869	6341.19
430.076	6873.67
430.284	6648.39
430.491	6783.56
430.699	7387.71
430.906	7041.6
431.114	7410.23
431.321	7674.42
431.528	8002.1
431.736	8163.89
431.943	8401.45
432.15	8161.84
432.358	8446.51
432.565	8811.04
432.772	8987.17
432.979	9284.12
433.187	9482.78
433.394	9679.38
433.601	10125.84
433.808	10117.65
434.016	10015.25
434.223	10476.04
434.43	11102.72
434.637	10942.98
434.844	11588.09
435.052	11887.09
435.259	11684.34
435.466	11723.26
435.673	11786.74
435.88	12589.55
436.087	13099.49
436.294	13066.72
436.501	12904.93
436.708	13236.7
436.915	13689.31
437.122	14154.19
437.329	14037.46
437.537	14682.57
437.743	14973.38
437.95	14725.58
438.157	15667.64
438.364	15661.5
438.571	15847.86
438.778	15978.93
438.985	17295.78
439.192	16822.7
439.399	17312.16
439.606	16894.38
439.813	17996.18
440.02	18755.98
440.227	18491.79
440.433	18481.55
440.64	19198.34
440.847	18694.54
441.054	19644.8
441.261	20570.48
441.467	20218.23
441.674	20674.93
441.881	21666.14
442.088	21346.66
442.294	21119.34
442.501	21670.24
442.708	22352.21
442.914	22776.14
443.121	23951.68
443.328	23302.47
443.534	25211.18
443.741	24310.07
443.948	23642.43
444.154	25727.27
444.361	25651.49
444.568	25610.53
444.774	25872.67
444.981	26005.79
445.187	26837.27
445.394	27916.54
445.6	27554.05
445.807	29984.99
446.013	28756.21
446.22	29309.16
446.426	30275.8
446.633	30578.9
446.839	32186.56
447.046	30626.01
447.252	32272.57
447.459	32489.66
447.665	32133.31
447.871	33298.61
448.078	34910.36
448.284	33030.32
448.491	34007.2
448.697	35326.1
448.903	35850.38
449.11	36192.39
449.316	35264.66
449.522	36124.8
449.728	36931.7
449.935	37363.82
450.141	37343.34
450.347	38320.23
450.553	36958.33
450.76	37521.52
450.966	38850.65
451.172	37924.97
451.378	39024.73
451.584	38330.47
451.791	39411.79
451.997	39303.25
452.203	39798.86
452.409	39632.97
452.615	39389.27
452.821	38117.48
453.027	37400.69
453.233	39774.28
453.44	38379.62
453.646	38355.04
453.852	38322.27
454.058	39282.77
454.264	37843.05
454.47	39217.24
454.676	37945.45
454.882	39010.39
455.088	35739.79
455.294	36184.19
455.5	36890.74
455.705	36665.47
455.911	35158.16
456.117	34758.81
456.323	34255.01
456.529	32544.95
456.735	33822.89
456.941	33224.88
457.147	32397.5
457.352	31475.91
457.558	31191.25
457.764	31289.55
457.97	30468.31
458.176	30169.31
458.381	30286.04
458.587	28283.13
458.793	28291.32
458.999	26874.13
459.204	28903.67
459.41	28567.8
459.616	26364.18
459.821	26536.21
460.027	26347.8
460.233	25284.9
460.438	24340.79
460.644	24518.96
460.85	23615.81
461.055	22982.99
461.261	23279.94
461.466	21361
461.672	20619.63
461.878	21967.2
462.083	20920.68
462.289	20269.43
462.494	19868.03
462.7	19132.81
462.905	18721.17
463.111	19233.16
463.316	19495.3
463.522	18993.54
463.727	19071.37
463.932	19009.93
464.138	18444.69
464.343	19009.93
464.549	18532.75
464.754	18774.41
464.959	18690.45
465.165	18493.84
465.37	17772.96
465.575	17383.84
465.781	18078.1
465.986	17924.51
466.191	17447.33
466.397	17318.31
466.602	16419.25
466.807	16867.75
467.012	16820.65
467.218	16812.46
467.423	16515.5
467.628	16632.24
467.833	17322.4
468.038	16591.28
468.244	16327.09
468.449	17004.97
468.654	15962.55
468.859	16122.29
469.064	16062.9
469.269	15716.79
469.474	15604.16
469.679	15737.27
469.885	15450.56
470.09	15675.84
470.295	15643.07
470.5	15335.87
470.705	15337.92
470.91	14877.13
471.115	14674.38
471.32	15133.12
471.525	14905.8
471.73	14637.52
471.935	14610.89
472.139	14121.43
472.344	13840.86
472.549	13973.97
472.754	13742.55
472.959	13607.39
473.164	13267.42
473.369	13140.45
473.574	13507.04
473.778	13287.9
473.983	13367.77
474.188	13158.88
474.393	12941.8
474.598	12693.99
474.802	12509.68
475.007	12491.24
475.212	12448.24
475.417	12159.47
475.621	12169.71
475.826	12212.72
476.031	11969.01
476.235	11682.3
476.44	11895.29
476.645	11629.05
476.849	11608.57
477.054	11416.06
477.259	11387.39
477.463	11235.84
477.668	11178.5
477.872	11141.63
478.077	10910.21
478.282	10914.31
478.486	10648.07
478.691	10627.59
478.895	10621.45
479.1	10443.28
479.304	10646.02
479.509	10080.78
479.713	10332.68
479.918	10162.7
480.122	10068.5
480.326	10238.48
480.531	10244.62
480.735	9984.53
480.94	9927.19
481.144	10166.8
481.348	9937.43
481.553	10080.78
481.757	9552.41
481.961	9783.83
482.166	10048.02
482.37	9820.69
482.574	9730.58
482.778	9646.62
482.983	9949.71
483.187	9871.89
483.391	9826.84
483.595	9828.88
483.8	9521.69
484.004	9726.49
484.208	9861.65
484.412	9663
484.616	9605.66
484.821	9888.28
485.025	9589.27
485.229	9720.34
485.433	9691.67
485.637	9931.28
485.841	9740.82
486.045	9675.29
486.249	9712.15
486.453	9562.65
486.657	9644.57
486.861	9798.17
487.065	9415.19
487.269	9880.08
487.473	9622.04
487.677	9488.92
487.881	9919
488.085	9654.81
488.289	9597.46
488.493	9501.21
488.697	9558.55
488.901	9691.67
489.105	9597.46
489.309	9849.36
489.512	9638.42
489.716	9613.85
489.92	9822.74
490.124	9943.57
490.328	9894.42
490.531	9708.05
490.735	9736.73
490.939	9892.37
491.143	9935.38
491.346	9789.97
491.55	10088.98
491.754	10019.35
491.958	10000.91
492.161	10148.37
492.365	10082.83
492.569	10011.15
492.772	10056.21
492.976	10019.35
493.18	9996.82
493.383	10326.54
493.587	10381.84
493.79	10433.04
493.994	10228.24
494.197	10555.91
494.401	10574.35
494.605	10541.58
494.808	10637.83
495.012	10549.77
495.215	10670.6
495.419	10695.18
495.622	10996.23
495.825	10967.56
496.029	10897.92
496.232	11284.99
496.436	11219.46
496.639	11155.97
496.843	11373.05
497.046	11559.42
497.249	11762.17
497.453	11731.45
497.656	11864.57
497.859	11784.69
498.063	11831.8
498.266	12257.78
498.469	12079.6
498.673	12458.48
498.876	12354.03
499.079	12411.37
499.282	12630.51
499.485	12650.99
499.689	13003.24
499.892	13248.99
500.095	13212.13
500.298	13502.94
500.501	13447.65
500.705	13496.8
500.908	13631.96
501.111	13697.5
501.314	13998.55
501.517	14025.17
501.72	14430.67
501.923	14330.32
502.126	14557.64
502.329	14789.06
502.532	14744.01
502.735	14805.45
502.938	15145.41
503.141	15225.28
503.344	15438.27
503.547	15526.33
503.75	15821.24
503.953	15907.26
504.156	15917.5
504.359	16159.16
504.562	16019.89
504.765	16628.14
504.968	16634.28
505.17	16738.73
505.373	16964.01
505.576	17127.85
505.779	17392.03
505.982	17340.83
506.185	17877.4
506.387	17840.54
506.59	18233.75
506.793	18311.57
506.996	18250.13
507.198	18774.41
507.401	18788.75
507.604	18586
507.807	19159.43
508.009	19337.6
508.212	19497.35
508.415	19837.31
508.617	20091.26
508.82	19984.76
509.022	19894.65
509.225	20648.3
509.428	20586.86
509.63	20656.5
509.833	20918.64
510.035	21457.25
510.238	20982.12
510.44	21545.31
510.643	21918.04
510.845	22088.03
511.048	21963.1
511.25	22227.29
511.453	22108.51
511.655	23279.94
511.858	22870.35
512.06	22894.93
512.262	23449.92
512.465	23179.59
512.667	23617.86
512.87	23705.92
513.072	23904.57
513.274	24445.24
513.477	24486.2
513.679	24815.92
513.881	25293.1
514.084	25323.82
514.286	25291.05
514.488	25483.56
514.69	26333.46
514.893	26028.32
515.095	26188.06
515.297	26519.83
515.499	26771.73
515.701	26892.56
515.904	27216.14
516.106	26999.05
516.308	27728.13
516.51	28094.72
516.712	27912.45
516.914	28385.53
517.116	28471.54
517.318	28784.88
517.52	28956.91
517.722	28899.57
517.925	29245.68
518.127	29622.5
518.329	29602.02
518.531	29645.03
518.733	30226.65
518.935	30480.6
519.136	30183.65
519.338	30748.89
519.54	30914.77
519.742	30992.59
519.944	31275.21
520.146	31316.17
520.348	31883.46
520.55	31826.12
520.752	31781.06
520.954	32248
521.155	32202.94
521.357	32483.51
521.559	32819.38
521.761	33341.61
521.963	33286.32
522.164	33161.39
522.366	33138.86
522.568	33609.9
522.77	34140.32
522.971	34234.53
523.173	33824.93
523.375	34138.27
523.576	34306.21
523.778	34322.59
523.98	34529.44
524.181	34799.77
524.383	34377.89
524.584	34926.74
524.786	34977.94
524.988	34883.73
525.189	35145.87
525.391	35209.36
525.592	35229.84
525.794	35772.55
525.995	35709.07
526.197	35676.3
526.398	35641.48
526.6	35582.09
526.801	35797.13
527.003	35668.11
527.204	36186.24
527.406	36065.41
527.607	36237.44
527.808	36307.07
528.01	35586.19
528.211	36169.86
528.412	36655.23
528.614	36176
528.815	36374.66
529.016	36630.65
529.218	36180.1
529.419	36055.17
529.62	36395.14
529.822	35979.4
530.023	36345.98
530.224	36438.14
530.425	36239.49
530.626	36038.79
530.828	36190.34
531.029	36759.67
531.23	36202.63
531.431	36251.78
531.632	36548.73
531.833	36581.5
532.035	36036.74
532.236	36221.06
532.437	36370.56
532.638	35922.05
532.839	36604.03
533.04	36468.86
533.241	36133
533.442	36915.32
533.643	36370.56
533.844	35780.74
534.045	36036.74
534.246	35465.36
534.447	36534.4
534.648	35770.5
534.849	36520.06
535.05	35551.37
535.251	35965.06
535.451	35836.04
535.652	35772.55
535.853	35858.57
536.054	36094.08
536.255	35997.83
536.456	35727.5
536.657	36415.61
536.857	35739.79
537.058	35451.02
537.259	35942.53
537.46	35504.27
537.66	35801.22
537.861	35745.93
538.062	35303.57
538.263	35713.16
538.463	35348.62
538.664	35389.58
538.865	35494.03
539.065	35328.14
539.266	35127.44
539.466	35694.73
539.667	34816.15
539.868	35127.44
540.068	35426.45
540.269	35170.45
540.469	35221.65
540.67	34975.89
540.87	35522.7
541.071	34979.99
541.271	35483.79
541.472	35209.36
541.672	34990.23
541.873	35154.07
542.073	34277.54
542.274	35299.47
542.474	35104.91
542.675	34613.4
542.875	35324.05
543.075	34951.32
543.276	34431.13
543.476	35043.48
543.676	34832.54
543.877	34738.33
544.077	35039.38
544.277	34920.6
544.478	34826.39
544.678	34637.98
544.878	34838.68
545.078	34861.21
545.279	34592.92
545.479	34586.78
545.679	34844.82
545.879	34420.89
546.079	34957.46
546.28	34578.59
546.48	34392.22
546.68	34748.57
546.88	34857.11
547.08	34580.63
547.28	34459.8
547.48	34662.55
547.68	34695.32
547.88	34623.64
548.081	35123.35
548.281	34932.89
548.481	34664.6
548.681	34871.45
548.881	34750.62
549.081	34662.55
549.28	34551.96
549.48	35020.95
549.68	34551.96
549.88	35119.25
550.08	34304.16
550.28	34668.7
550.48	34326.69
550.68	34990.23
550.88	34381.98
551.08	34687.13
551.279	34592.92
551.479	34328.73
551.679	34623.64
551.879	34332.83
552.079	34549.92
552.278	34517.15
552.478	34697.37
552.678	34240.67
552.878	34578.59
553.077	34433.18
553.277	34222.24
553.477	34777.24
553.676	34871.45
553.876	34683.03
554.076	34447.52
554.275	34750.62
554.475	34187.42
554.674	34662.55
554.874	34422.94
555.074	34549.92
555.273	34609.31
555.473	34916.5
555.672	34525.34
555.872	34719.9
556.071	35092.63
556.271	34752.66
556.47	34394.27
556.67	34433.18
556.869	34857.11
557.068	34826.39
557.268	34375.84
557.467	34576.54
557.667	34703.51
557.866	34570.4
558.065	34554.01
558.265	34590.87
558.464	34302.11
558.663	34832.54
558.863	34080.93
559.062	34871.45
559.261	34601.11
559.461	34967.7
559.66	34373.79
559.859	34660.51
560.058	34551.96
560.258	34474.14
560.457	34111.65
560.656	34744.47
560.855	34496.67
561.054	34689.18
561.253	34533.53
561.453	34531.48
561.652	34578.59
561.851	34783.38
562.05	34343.07
562.249	34435.23
562.448	34474.14
562.647	34850.97
562.846	34388.13
563.045	34375.84
563.244	34214.05
563.443	34414.75
563.642	34066.59
563.841	34594.97
564.04	34080.93
564.239	34312.35
564.438	33726.63
564.637	34171.04
564.836	34009.25
565.035	33738.92
565.234	34128.03
565.432	33992.87
565.631	33886.37
565.83	34060.45
566.029	33943.72
566.228	33818.79
566.427	33980.58
566.625	33532.07
566.824	33661.1
567.023	33652.91
567.222	33149.1
567.42	33892.52
567.619	33566.89
567.818	33556.65
568.016	33401
568.215	33800.36
568.414	33511.6
568.612	33865.89
568.811	33243.31
569.01	32919.73
569.208	32880.82
569.407	33190.06
569.605	32743.61
569.804	33484.97
570.002	32630.97
570.201	33054.9
570.4	32600.25
570.598	32555.19
570.797	32207.04
570.995	32577.72
571.193	32442.56
571.392	32526.52
571.59	32342.21
571.789	32751.8
571.987	32311.49
572.186	32006.34
572.384	32196.8
572.582	32282.81
572.781	32491.71
572.979	31668.42
573.177	32088.26
573.376	32204.99
573.574	31480.01
573.772	31680.71
573.971	31469.77
574.169	31549.64
574.367	31334.6
574.565	32020.67
574.763	31295.69
574.962	31156.43
575.16	30943.44
575.358	31082.7
575.556	30836.95
575.754	31471.82
575.952	30343.39
576.151	31135.95
576.349	30515.42
576.547	30439.64
576.745	30531.8
576.943	30597.34
577.141	30499.03
577.339	30523.61
577.537	30296.28
577.735	30363.87
577.933	29716.71
578.131	30415.07
578.329	29841.64
578.527	30005.47
578.725	29604.07
578.923	29927.65
579.121	29679.85
579.319	29905.12
579.516	29882.59
579.714	29300.97
579.912	29663.46
580.11	29522.15
580.308	29210.86
580.506	29454.57
580.704	28987.63
580.901	29354.22
581.099	29262.06
581.297	28895.47
581.495	28991.73
581.692	28989.68
581.89	28446.97
582.088	28811.51
582.285	28813.56
582.483	28606.71
582.681	28623.09
582.878	28662.01
583.076	28348.67
583.274	28588.28
583.471	28217.6
583.669	28141.82
583.866	27863.3
584.064	28346.62
584.262	27851.01
584.459	27992.32
584.657	28043.52
584.854	28115.2
585.052	27764.99
585.249	27808
585.447	27576.58
585.644	27382.02
585.841	27666.69
586.039	27613.45
586.236	27431.18
586.434	26968.34
586.631	27140.36
586.828	27162.89
587.026	27308.3
587.223	26880.27
587.42	27060.49
587.618	27042.06
587.815	26829.07
588.012	27093.26
588.21	26816.79
588.407	26837.27
588.604	26730.77
588.801	26435.86
588.999	26491.16
589.196	26550.55
589.393	26845.46
589.59	26335.51
589.787	26136.86
589.984	26403.1
590.182	26040.61
590.379	26143
590.576	25737.51
590.773	26091.8
590.97	25979.17
591.167	25671.97
591.364	25860.38
591.561	25850.14
591.758	25514.28
591.955	25850.14
592.152	25692.45
592.349	25526.57
592.546	25536.81
592.743	25598.24
592.94	25354.54
593.137	25338.15
593.334	25448.74
593.531	25084.2
593.727	25268.52
593.924	25274.67
594.121	24897.84
594.318	25297.19
594.515	24629.55
594.712	25188.65
594.908	24946.99
595.105	24924.46
595.302	24801.58
595.499	24959.28
595.696	24881.45
595.892	24795.44
596.089	24975.66
596.286	24797.49
596.482	24695.09
596.679	24891.69
596.876	24793.39
597.072	24568.12
597.269	24613.17
597.466	24574.26
597.662	24226.1
597.859	24504.63
598.055	24328.5
598.252	23994.68
598.448	24553.78
598.645	24435
598.841	24088.89
599.038	24316.22
599.234	24125.75
599.431	24101.18
599.627	24107.32
599.824	24277.3
600.02	23882.05
600.217	24189.24
600.413	24473.91
600.609	24224.06
600.806	23980.35
601.002	24635.7
601.198	24092.99
601.395	23990.59
601.591	23992.64
601.787	24148.28
601.984	24246.58
602.18	24070.46
602.376	23845.18
602.572	24127.8
602.769	24344.89
602.965	23808.32
603.161	23736.64
603.357	23691.59
603.553	23703.87
603.75	23693.63
603.946	23691.59
604.142	24060.22
604.338	23630.15
604.534	23875.9
604.73	23626.05
604.926	23490.88
605.122	24056.12
605.318	24049.98
605.514	23761.22
605.71	23499.08
605.906	24125.75
606.102	23927.1
606.298	23978.3
606.494	24006.97
606.69	24113.47
606.886	23937.34
607.082	23712.06
607.278	24254.78
607.474	23742.78
607.67	24054.08
607.866	23634.24
608.062	24353.08
608.257	23966.01
608.453	23892.29
608.649	24260.92
608.845	24336.7
609.041	23652.67
609.236	24146.23
609.432	23959.87
609.628	24179
609.824	23859.52
610.019	23896.38
610.215	23826.75
610.411	23925.05
610.606	23955.77
610.802	23875.9
610.998	24047.93
611.193	24066.36
611.389	23857.47
611.584	23726.4
611.78	23884.09
611.976	24181.05
612.171	24029.5
612.367	24363.32
612.562	24160.57
612.758	23927.1
612.953	23814.46
613.149	24283.45
613.344	23955.77
613.539	24185.15
613.735	23988.54
613.93	24168.76
614.126	24236.34
614.321	24256.82
614.517	24277.3
614.712	24265.02
614.907	23980.35
615.103	24373.56
615.298	23753.02
615.493	24267.06
615.688	23941.44
615.884	24455.48
616.079	24150.33
616.274	24303.93
616.47	24060.22
616.665	24017.21
616.86	24135.99
617.055	23998.78
617.25	23966.01
617.445	24273.21
617.641	23845.18
617.836	24183.1
618.031	23679.3
618.226	24246.58
618.421	24199.48
618.616	23961.92
618.811	23601.47
619.006	24006.97
619.201	23306.57
619.396	23687.49
619.591	22989.13
619.786	23658.82
619.981	23155.02
620.176	23675.2
620.371	23253.32
620.566	23161.16
620.761	23220.55
620.956	23540.04
621.151	22749.52
621.346	22845.77
621.541	22767.95
621.735	23130.44
621.93	22448.47
622.125	22688.08
622.32	22128.99
622.515	22589.78
622.709	22378.84
622.904	22346.07
623.099	22313.3
623.294	22098.27
623.488	22057.31
623.683	22090.07
623.878	22045.02
624.072	21647.71
624.267	21635.42
624.462	21817.69
624.656	21504.35
624.851	21240.17
625.046	21182.82
625.24	21023.08
625.435	20949.35
625.629	21215.59
625.824	21061.99
626.018	20871.53
626.213	20232.57
626.407	20420.98
626.602	20251
626.796	20535.67
626.991	20517.23
627.185	19917.18
627.38	20269.43
627.574	20078.97
627.768	19855.74
627.963	19685.76
628.157	19872.12
628.352	19569.02
628.546	19208.58
628.74	19511.68
628.935	19143.05
629.129	19149.19
629.323	19247.49
629.517	18954.63
629.712	18696.59
629.906	18979.21
630.1	18495.89
630.294	18755.98
630.489	18221.46
630.683	18712.97
630.877	18387.35
631.071	18342.29
631.265	18129.3
631.459	18106.77
631.653	18356.63
631.848	17844.63
632.042	17883.55
632.236	17772.96
632.43	17668.51
632.624	17613.21
632.818	17447.33
633.012	17398.18
633.206	17297.83
633.4	17346.98
633.594	17095.08
633.788	17101.22
633.982	16992.68
634.176	16806.31
634.369	17068.45
634.563	16839.08
634.757	16419.25
634.951	16847.27
635.145	16482.74
635.339	16640.43
635.533	16486.83
635.726	16329.14
635.92	16187.83
636.114	16433.58
636.308	15950.26
636.501	16015.8
636.695	16032.18
636.889	15720.89
637.083	15940.02
637.276	15661.5
637.47	15458.75
637.664	15509.95
637.857	15313.35
638.051	15315.39
638.244	15352.26
638.438	15086.02
638.632	14987.72
638.825	14891.46
639.019	14717.39
639.212	14707.15
639.406	14725.58
639.599	14660.04
639.793	14553.55
639.986	14373.33
640.18	14569.93
640.373	14254.55
640.567	14096.85
640.76	14078.42
640.954	14115.28
641.147	13861.34
641.34	13853.14
641.534	13871.58
641.727	13801.94
641.92	13750.74
642.114	13552.09
642.307	13324.77
642.5	13230.56
642.694	12974.56
642.887	13300.19
643.08	13289.95
643.273	13246.94
643.467	12945.89
643.66	12925.41
643.853	12743.14
644.046	12868.07
644.239	12859.88
644.432	12693.99
644.626	12388.85
644.819	12323.31
645.012	12462.57
645.205	12272.11
645.398	12118.51
645.591	12354.03
645.784	12331.5
645.977	11895.29
646.17	12042.74
646.363	11940.34
646.556	11710.97
646.749	11878.9
646.942	11776.5
647.135	11745.78
647.328	11698.68
647.521	11596.28
647.714	11491.84
647.907	11276.8
648.099	11416.06
648.292	11342.33
648.485	11366.91
648.678	10885.64
648.871	11010.56
649.064	11162.11
649.256	11092.48
649.449	11043.33
649.642	10859.01
649.835	10717.7
650.027	10736.13
650.22	10506.76
650.413	10695.18
650.605	10656.26
650.798	10416.65
650.991	10261.01
651.183	10289.68
651.376	10228.24
651.568	10342.92
651.761	10152.46
651.954	10074.64
652.146	10177.04
652.339	10146.32
652.531	10138.13
652.724	9847.32
652.916	9794.07
653.109	9851.41
653.301	9714.2
653.494	9845.27
653.686	9689.62
653.879	9900.56
654.071	9679.38
654.263	9388.57
654.456	9525.79
654.648	9613.85
654.84	9310.75
655.033	9355.8
655.225	9181.73
655.417	9269.79
655.61	9081.38
655.802	9056.8
655.994	8993.31
656.186	9064.99
656.379	9032.22
656.571	8761.89
656.763	8872.48
656.955	8917.54
657.148	8665.64
657.34	8755.75
657.532	8487.47
657.724	8616.49
657.916	8604.2
658.108	8639.01
658.3	8403.5
658.492	8505.9
658.684	8460.84
658.876	8483.37
659.068	8278.57
659.26	8151.6
659.452	8362.54
659.644	8245.8
659.836	8127.02
660.028	8018.48
660.22	7830.07
660.412	8077.87
660.604	7877.17
660.796	7848.5
660.988	7885.36
661.18	7883.31
661.372	7715.38
661.563	7774.77
661.755	7678.52
661.947	7733.81
662.139	7590.45
662.331	7615.03
662.522	7561.78
662.714	7338.55
662.906	7479.86
663.097	7438.91
663.289	7352.89
663.481	7225.92
663.673	7334.46
663.864	7127.61
664.056	7285.31
664.247	7103.04
664.439	7125.57
664.631	7107.13
664.822	7191.1
665.014	7123.52
665.205	6888
665.397	7041.6
665.588	6824.51
665.78	6748.74
665.971	6965.82
666.163	6601.29
666.354	6771.27
666.546	6771.27
666.737	6675.01
666.929	6627.91
667.12	6539.85
667.311	6695.49
667.503	6406.73
667.694	6580.81
667.885	6451.78
668.077	6466.12
668.268	6476.36
668.459	6345.29
668.651	6337.1
668.842	6591.05
669.033	6427.21
669.224	6128.21
669.416	6279.75
669.607	6167.12
669.798	6220.36
669.989	6314.57
670.18	6101.58
670.371	6138.44
670.563	5927.5
670.754	6017.61
670.945	5980.75
671.136	5993.04
671.327	5894.74
671.518	5907.02
671.709	5818.96
671.9	6034
672.091	5872.21
672.282	5775.95
672.473	5620.31
672.664	5618.26
672.855	5722.71
673.046	5896.78
673.237	5691.99
673.428	5634.64
673.619	5556.82
673.809	5687.89
674	5571.16
674.191	5587.54
674.382	5378.65
674.573	5540.44
674.764	5546.58
674.954	5773.91
675.145	5513.81
675.336	5452.38
675.527	5343.83
675.717	5263.96
675.908	5476.95
676.099	5349.98
676.289	5382.74
676.48	5345.88
676.671	5362.26
676.861	5417.56
677.052	5255.77
677.243	5186.14
677.433	5190.24
677.624	5345.88
677.814	5233.24
678.005	5313.11
678.195	5202.52
678.386	5235.29
678.576	5050.97
678.767	5036.64
678.957	5032.54
679.148	5182.04
679.338	5315.16
679.529	5059.17
679.719	5071.45
679.909	5075.55
680.1	4835.94
680.29	5091.93
680.481	5141.08
680.671	5044.83
680.861	5141.08
681.052	5073.5
681.242	5055.07
681.432	5151.32
681.622	5001.82
681.813	4938.34
682.003	4930.14
682.193	4848.22
682.383	4887.14
682.573	4940.38
682.764	4835.94
682.954	4958.81
683.144	4778.59
683.334	4733.54
683.524	4895.33
683.714	4837.98
683.904	4813.41
684.094	4960.86
684.284	4815.46
684.474	4815.46
684.664	4760.16
684.854	4803.17
685.044	4735.59
685.234	4805.22
685.424	4741.73
685.614	4833.89
685.804	4723.3
685.994	4708.96
686.184	4760.16
686.374	4584.04
686.564	4692.58
686.753	4614.76
686.943	4489.83
687.133	4721.25
687.323	4551.27
687.513	4584.04
687.702	4584.04
687.892	4534.89
688.082	4545.13
688.272	4557.41
688.461	4500.07
688.651	4434.53
688.841	4432.49
689.03	4510.31
689.22	4385.38
689.41	4471.4
689.599	4366.95
689.789	4356.71
689.979	4373.1
690.168	4369
690.358	4313.7
690.547	4239.98
690.737	4323.94
690.926	4412.01
691.116	4217.45
691.305	4385.38
691.495	4274.79
691.684	4285.03
691.874	4231.79
692.063	4149.87
692.252	4246.12
692.442	4272.75
692.631	4209.26
692.82	4313.7
693.01	4285.03
693.199	4158.06
693.388	4207.21
693.578	4057.71
693.767	4182.63
693.956	4070
694.146	4059.76
694.335	4002.41
694.524	4043.37
694.713	4180.59
694.902	4076.14
695.092	3986.03
695.281	4045.42
695.47	4035.18
695.659	3895.92
695.848	4043.37
696.037	4010.61
696.226	3863.15
696.415	3838.58
696.604	4010.61
696.793	3889.78
696.982	3895.92
697.171	3893.87
697.36	3758.71
697.549	3840.62
697.738	3744.37
697.927	3740.27
698.116	3801.71
698.305	3836.53
698.494	3775.09
698.683	3730.03
698.872	3805.81
699.061	3775.09
699.25	3895.92
699.438	3857.01
699.627	3799.66
699.816	3732.08
700.005	3830.38
700.193	3682.93
700.382	3650.16
700.571	3721.84
700.76	3750.51
700.948	3566.2
701.137	3678.83
701.326	3621.49
701.514	3699.31
701.703	3637.88
701.892	3605.11
702.08	3752.56
702.269	3576.44
702.457	3576.44
702.646	3674.74
702.834	3580.53
703.023	3482.23
703.212	3613.3
703.4	3502.71
703.589	3375.74
703.777	3517.04
703.965	3453.56
704.154	3478.13
704.342	3404.41
704.531	3428.98
704.719	3519.09
704.907	3439.22
705.096	3334.78
705.284	3326.58
705.472	3342.97
705.661	3398.26
705.849	3445.37
706.037	3316.34
706.226	3330.68
706.414	3400.31
706.602	3267.19
706.79	3281.53
706.979	3265.14
707.167	3256.95
707.355	3189.37
707.543	3287.67
707.731	3299.96
707.919	3207.8
708.107	3127.93
708.296	3062.4
708.484	3166.84
708.672	3226.23
708.86	3142.27
709.048	3021.44
709.236	3070.59
709.424	3103.36
709.612	3113.6
709.8	3228.28
709.988	3105.4
710.176	3146.36
710.364	3187.32
710.551	3035.77
710.739	3183.23
710.927	3043.96
711.115	3027.58
711.303	3039.87
711.491	3060.35
711.679	3054.2
711.866	2990.72
712.054	2988.67
712.242	2970.24
712.43	3003
712.617	2986.62
712.805	2916.99
712.993	2929.28
713.181	2806.4
713.368	2880.13
713.556	2949.76
713.744	2919.04
713.931	2792.06
714.119	2937.47
714.306	2896.51
714.494	2759.3
714.682	2931.33
714.869	2644.61
715.057	2714.24
715.244	2753.15
715.432	2859.65
715.619	2810.5
715.807	2855.55
715.994	2781.82
716.182	2734.72
716.369	2771.58
716.556	2845.31
716.744	2660.99
716.931	2601.6
717.119	2781.82
717.306	2628.23
717.493	2568.84
717.681	2521.73
717.868	2757.25
718.055	2638.47
718.242	2660.99
718.43	2726.53
718.617	2585.22
718.804	2593.41
718.991	2626.18
719.179	2673.28
719.366	2568.84
719.553	2617.99
719.74	2511.49
719.927	2603.65
720.114	2521.73
720.301	2396.81
720.488	2574.98
720.676	2441.86
720.863	2417.29
721.05	2564.74
721.237	2581.12
721.424	2462.34
721.611	2366.09
721.798	2298.5
721.985	2429.57
722.172	2456.2
722.358	2333.32
722.545	2476.68
722.732	2431.62
722.919	2372.23
723.106	2390.66
723.293	2335.37
723.48	2318.98
723.667	2304.65
723.853	2316.94
724.04	2349.7
724.227	2349.7
724.414	2263.69
724.6	2294.41
724.787	2351.75
724.974	2445.96
725.161	2257.54
725.347	2298.5
725.534	2398.85
725.72	2368.13
725.907	2159.24
726.094	2372.23
726.28	2253.45
726.467	2257.54
726.653	2175.63
726.84	2235.02
727.027	2349.7
727.213	2136.71
727.4	2282.12
727.586	2249.35
727.773	2230.92
727.959	2173.58
728.145	2249.35
728.332	2134.67
728.518	2114.19
728.705	2048.65
728.891	2093.71
729.077	2187.91
729.264	2220.68
729.45	2144.91
729.636	2185.87
729.823	2192.01
730.009	2179.72
730.195	2087.56
730.382	2093.71
730.568	2265.74
730.754	2108.04
730.94	2110.09
731.126	2130.57
731.313	2089.61
731.499	2052.75
731.685	2085.51
731.871	2036.36
732.057	2132.62
732.243	2116.23
732.429	2095.75
732.615	2144.91
732.801	2062.99
732.987	2126.47
733.173	2022.03
733.359	1974.92
733.545	2134.67
733.731	2007.69
733.917	2075.27
734.103	2001.55
734.289	1987.21
734.475	1933.97
734.661	2028.17
734.847	1931.92
735.033	2001.55
735.219	2161.29
735.404	1987.21
735.59	1798.8
735.776	1962.64
735.962	2060.94
736.148	1989.26
736.333	1972.88
736.519	1884.81
736.705	1888.91
736.89	1958.54
737.076	2011.79
737.262	1905.29
737.447	1888.91
737.633	1913.49
737.819	1868.43
738.004	1790.61
738.19	1897.1
738.375	1915.53
738.561	1866.38
738.747	1757.84
738.932	1755.79
739.118	1819.28
739.303	1751.7
739.489	1749.65
739.674	1733.26
739.859	1696.4
740.045	1823.37
740.23	1915.53
740.416	1698.45
740.601	1702.54
740.786	1733.26
740.972	1665.68
741.157	1741.46
741.342	1618.58
741.528	1784.46
741.713	1604.24
741.898	1692.3
742.084	1708.69
742.269	1774.22
742.454	1680.02
742.639	1720.98
742.824	1620.63
743.01	1741.46
743.195	1708.69
743.38	1538.71
743.565	1735.31
743.75	1637.01
743.935	1569.43
744.12	1626.77
744.305	1471.12
744.49	1571.47
744.675	1667.73
744.86	1497.75
745.045	1585.81
745.23	1583.76
745.415	1536.66
745.6	1534.61
745.785	1589.91
745.97	1628.82
746.155	1520.28
746.34	1532.56
746.525	1520.28
746.71	1446.55
746.895	1424.02
747.079	1393.3
747.264	1454.74
747.449	1348.25
747.634	1473.17
747.819	1405.59
748.003	1415.83
748.188	1442.45
748.373	1505.94
748.557	1426.07
748.742	1276.57
748.927	1383.06
749.111	1444.5
749.296	1385.11
749.481	1387.16
749.665	1389.21
749.85	1278.62
750.034	1368.73
750.219	1385.11
750.404	1258.14
750.588	1233.56
750.773	1249.94
750.957	1356.44
751.141	1288.85
751.326	1225.37
751.51	1229.46
751.695	1184.41
751.879	1315.48
752.064	1381.01
752.248	1202.84
752.432	1254.04
752.617	1159.83
752.801	1227.42
752.985	1135.26
753.17	1254.04
753.354	1237.66
753.538	1223.32
753.722	1139.35
753.907	1151.64
754.091	1149.59
754.275	1139.35
754.459	1170.07
754.643	1090.2
754.828	1184.41
755.012	1102.49
755.196	1098.39
755.38	1096.35
755.564	1004.19
755.748	1047.19
755.932	1100.44
756.116	1045.15
756.3	1100.44
756.484	1094.3
756.668	1049.24
756.852	987.8
757.036	1014.43
757.22	977.56
757.404	1016.48
757.588	936.6
757.772	932.51
757.956	1028.76
758.14	1039
758.323	873.12
758.507	1032.86
758.691	965.28
758.875	893.6
759.059	955.04
759.242	889.5
759.426	946.84
759.61	977.56
759.794	776.86
759.977	850.59
760.161	942.75
760.345	959.13
760.528	940.7
760.712	871.07
760.895	909.98
761.079	936.6
761.263	948.89
761.446	918.17
761.63	850.59
761.813	924.32
761.997	901.79
762.18	809.63
762.364	891.55
762.547	746.14
762.731	834.21
762.914	860.83
763.098	877.21
763.281	821.92
763.464	848.54
763.648	922.27
763.831	840.35
764.015	864.93
764.198	879.26
764.381	787.1
764.564	801.44
764.748	754.34
764.931	832.16
765.114	848.54
765.297	795.29
765.481	694.94
765.664	866.97
765.847	787.1
766.03	840.35
766.213	731.81
766.397	733.86
766.58	725.66
766.763	639.65
766.946	819.87
767.129	854.69
767.312	785.05
767.495	791.2
767.678	653.98
767.861	754.34
768.044	678.56
768.227	719.52
768.41	719.52
768.593	752.29
768.776	703.14
768.959	725.66
769.142	826.01
769.324	684.7
769.507	676.51
769.69	653.98
769.873	731.81
770.056	742.05
770.239	727.71
770.421	701.09
770.604	758.43
770.787	637.6
770.97	668.32
771.152	803.49
771.335	713.38
771.518	701.09
771.7	733.86
771.883	664.22
772.066	598.69
772.248	684.7
772.431	815.77
772.613	672.42
772.796	645.79
772.978	692.9
773.161	647.84
773.343	574.11
773.526	545.44
773.708	580.26
773.891	613.03
774.073	676.51
774.256	541.35
774.438	699.04
774.621	631.46
774.803	631.46
774.985	692.9
775.168	608.93
775.35	613.03
775.532	664.22
775.715	561.83
775.897	621.22
776.079	578.21
776.261	594.59
776.444	557.73
776.626	604.83
776.808	586.4
776.99	520.87
777.173	559.78
777.355	496.29
777.537	578.21
777.719	551.59
777.901	537.25
778.083	531.11
778.265	541.35
778.447	529.06
778.629	514.72
778.811	481.96
778.993	498.34
779.175	578.21
779.357	555.68
779.539	549.54
779.721	473.76
779.903	473.76
780.085	467.62
780.267	479.91
780.449	432.8
780.631	486.05
780.812	475.81
780.994	438.95
781.176	400.04
781.358	488.1
781.54	422.56
781.721	412.32
781.903	414.37
782.085	451.24
782.267	465.57
782.448	381.6
782.63	410.28
782.812	406.18
782.993	400.04
783.175	547.49
783.357	350.89
783.538	465.57
783.72	375.46
783.901	357.03
784.083	391.84
784.264	432.8
784.446	377.51
784.627	357.03
784.809	338.6
784.99	436.9
785.172	330.41
785.353	432.8
785.535	381.6
785.716	348.84
785.897	348.84
786.079	348.84
786.26	375.46
786.441	393.89
786.623	283.3
786.804	422.56
786.985	303.78
787.167	340.65
787.348	365.22
787.529	352.93
787.71	369.32
787.891	252.58
788.073	406.18
788.254	369.32
788.435	332.45
788.616	295.59
788.797	352.93
788.978	273.06
789.159	275.11
789.34	373.41
789.522	260.77
789.703	291.49
789.884	291.49
790.065	291.49
790.246	348.84
790.427	258.73
790.607	357.03
790.788	271.01
790.969	332.45
791.15	301.73
791.331	264.87
791.512	397.99
791.693	258.73
791.874	211.62
792.054	309.93
792.235	293.54
792.416	258.73
792.597	289.45
792.778	293.54
792.958	332.45
793.139	260.77
793.32	283.3
793.5	277.16
793.681	264.87
793.862	260.77
794.042	299.69
794.223	127.66
794.404	193.19
794.584	223.91
794.765	242.34
794.945	254.63
795.126	250.53
795.306	287.4
795.487	254.63
795.667	303.78
795.848	207.53
796.028	221.86
796.209	242.34
796.389	336.55
796.57	228.01
796.75	176.81
796.93	297.64
797.111	203.43
797.291	168.62
797.471	371.37
797.652	205.48
797.832	248.49
798.012	297.64
798.192	193.19
798.373	201.38
798.553	197.29
798.733	299.69
798.913	162.47
799.093	217.77
799.274	195.24
799.454	205.48
799.634	234.15
799.814	228.01
799.994	299.69
800.174	211.62
800.354	154.28
800.534	148.14
800.714	254.63
800.894	154.28
801.074	82.6
801.254	185
801.434	201.38
801.614	164.52
801.794	144.04
801.974	1018.52
802.154	191.14
802.334	207.53
802.514	170.66
802.693	230.06
802.873	178.86
803.053	189.1
803.233	180.9
803.413	154.28
803.592	90.79
803.772	182.95
803.952	121.51
804.131	162.47
804.311	168.62
804.491	144.04
804.67	172.71
804.85	203.43
805.03	248.49
805.209	187.05
805.389	148.14
805.568	78.51
805.748	121.51
805.928	131.75
806.107	98.99
806.287	144.04
806.466	152.23
806.646	154.28
806.825	86.7
807.004	98.99
807.184	201.38
807.363	141.99
807.543	101.03
807.722	78.51
807.901	150.18
808.081	135.85
808.26	141.99
808.439	160.42
808.619	193.19
808.798	139.94
808.977	129.7
809.156	150.18
809.336	185
809.515	162.47
809.694	139.94
809.873	135.85
810.052	109.22
810.231	154.28
810.411	193.19
810.59	168.62
810.769	158.38
810.948	168.62
811.127	121.51
811.306	127.66
811.485	96.94
811.664	217.77
811.843	154.28
812.022	98.99
812.201	113.32
812.38	156.33
812.559	135.85
812.737	58.03
812.916	-9.56
813.095	78.51
813.274	113.32
813.453	176.81
813.632	176.81
813.811	74.41
813.989	12.97
814.168	111.27
814.347	121.51
814.526	160.42
814.704	125.61
814.883	209.58
815.062	137.9
815.24	115.37
815.419	58.03
815.598	144.04
815.776	82.6
815.955	113.32
816.133	29.35
816.312	55.98
816.49	62.12
816.669	103.08
816.847	86.7
817.026	133.8
817.204	107.18
817.383	105.13
817.561	78.51
817.74	172.71
817.918	60.07
818.097	86.7
818.275	111.27
818.453	105.13
818.632	111.27
818.81	141.99
818.988	23.21
819.167	70.31
819.345	74.41
819.523	96.94
819.701	90.79
819.879	90.79
820.058	47.79
820.236	90.79
820.414	111.27
820.592	62.12
820.77	94.89
820.948	88.75
821.127	4.78
821.305	33.45
821.483	43.69
821.661	105.13
821.839	74.41
822.017	96.94
822.195	98.99
822.373	127.66
822.551	70.31
822.729	119.46
822.907	78.51
823.085	53.93
823.262	86.7
823.44	72.36
823.618	23.21
823.796	88.75
823.974	43.69
824.152	21.16
824.329	111.27
824.507	133.8
824.685	94.89
824.863	74.41
825.04	78.51
825.218	78.51
825.396	103.08
825.574	94.89
825.751	144.04
825.929	105.13
826.107	39.59
826.284	78.51
826.462	62.12
826.639	53.93
826.817	23.21
826.994	45.74
827.172	49.83
827.349	64.17
827.527	109.22
827.704	70.31
827.882	21.16
828.059	17.07
828.237	94.89
828.414	84.65
828.591	51.88
828.769	98.99
828.946	70.31
829.124	111.27
829.301	98.99
829.478	62.12
829.655	72.36
829.833	49.83
830.01	92.84
830.187	29.35
830.364	33.45
830.542	117.42
830.719	137.9
830.896	154.28
831.073	158.38
831.25	86.7
831.427	41.64
831.604	64.17
831.782	15.02
831.959	62.12
832.136	78.51
832.313	53.93
832.49	23.21
832.667	47.79
832.844	29.35
833.021	152.23
833.198	53.93
833.374	66.22
833.551	62.12
833.728	111.27
833.905	111.27
834.082	-30.04
834.259	-42.32
834.436	45.74
834.612	-1.37
834.789	127.66
834.966	88.75
835.143	96.94
835.319	-48.47
835.496	111.27
835.673	53.93
835.85	55.98
836.026	66.22
836.203	103.08
836.38	88.75
836.556	70.31
836.733	-13.65
836.909	78.51
837.086	62.12
837.262	21.16
837.439	-32.08
837.616	82.6
837.792	-32.08
837.968	94.89
838.145	4.78
838.321	37.55
838.498	66.22
838.674	49.83
838.851	70.31
839.027	90.79
839.203	-44.37
839.38	80.55
839.556	33.45
839.732	72.36
839.909	55.98
840.085	70.31
840.261	0.68
840.437	12.97
840.614	-52.56
840.79	78.51
840.966	74.41
841.142	-27.99
841.318	78.51
841.494	70.31
841.671	55.98
841.847	-3.41
842.023	12.97
842.199	47.79
842.375	8.87
842.551	29.35
842.727	15.02
842.903	33.45
843.079	-7.51
843.255	86.7
843.431	45.74
843.607	29.35
843.783	15.02
843.959	27.31
844.134	8.87
844.31	74.41
844.486	51.88
844.662	-11.61
844.838	37.55
845.013	29.35
845.189	58.03
845.365	33.45
845.541	53.93
845.716	53.93
845.892	78.51
846.068	21.16
846.244	-40.28
846.419	39.59
846.595	-15.7
846.77	-50.52
846.946	17.07
847.122	70.31
847.297	37.55
847.473	82.6
847.648	-13.65
847.824	62.12
847.999	-44.37
848.175	-11.61
848.35	35.5
848.526	62.12
848.701	66.22
848.876	58.03
849.052	55.98
849.227	-44.37
849.403	78.51
849.578	-1.37
849.753	37.55
849.929	58.03
850.104	45.74
850.279	-17.75
850.454	33.45
850.63	-7.51
850.805	68.27
850.98	53.93
851.155	25.26
851.33	25.26
851.505	12.97
851.681	53.93
851.856	31.4
852.031	25.26
852.206	25.26
852.381	-19.8
852.556	43.69
852.731	51.88
852.906	90.79
853.081	45.74
853.256	51.88
853.431	-36.18
853.606	37.55
853.781	-27.99
853.956	-17.75
854.131	-3.41
854.305	-5.46
854.48	51.88
854.655	4.78
854.83	-19.8
855.005	-27.99
855.18	37.55
855.354	27.31
855.529	33.45
855.704	-48.47
855.879	49.83
856.053	-3.41
856.228	78.51
856.403	4.78
856.577	53.93
856.752	-25.94
856.926	64.17
857.101	86.7
857.276	-48.47
857.45	6.83
857.625	51.88
857.799	-1.37
857.974	0.68
858.148	-27.99
858.323	86.7
858.497	45.74
858.672	-52.56
858.846	47.79
859.02	6.83
859.195	-15.7
859.369	-68.95
859.543	-7.51
859.718	37.55
859.892	21.16
860.066	66.22
860.241	4.78
860.415	-23.89
860.589	2.73
860.763	-3.41
860.938	-11.61
861.112	-27.99
861.286	12.97
861.46	39.59
861.634	17.07
861.808	-52.56
861.982	-25.94
862.157	4.78
862.331	-38.23
862.505	25.26
862.679	21.16
862.853	4.78
863.027	-7.51
863.201	12.97
863.375	2.73
863.549	45.74
863.722	0.68
863.896	82.6
864.07	-50.52
864.244	45.74
864.418	-1.37
864.592	21.16
864.766	-27.99
864.939	8.87
865.113	8.87
865.287	-36.18
865.461	8.87
865.634	25.26
865.808	-50.52
865.982	8.87
866.156	27.31
866.329	-52.56
866.503	-44.37
866.676	70.31
866.85	4.78
867.024	4.78
867.197	-17.75
867.371	-7.51
867.544	53.93
867.718	-64.85
867.891	25.26
868.065	-34.13
868.238	19.11
868.412	15.02
868.585	-32.08
868.759	-68.95
868.932	-1.37
869.105	21.16
869.279	37.55
869.452	-50.52
869.625	-52.56
869.799	27.31
869.972	-32.08
870.145	37.55
870.319	51.88
870.492	-77.14
870.665	31.4
870.838	17.07
871.011	-81.24
871.185	-30.04
871.358	-19.8
871.531	146.09
871.704	-17.75
871.877	-3.41
872.05	21.16
872.223	-81.24
872.396	-13.65
872.569	29.35
872.742	-68.95
872.915	-36.18
873.088	37.55
873.261	-36.18
873.434	21.16
873.607	60.07
873.78	-32.08
873.953	-15.7
874.126	58.03
874.299	21.16
874.471	-25.94
874.644	-3.41
874.817	-36.18
874.99	37.55
875.163	6.83
875.335	17.07
875.508	-48.47
875.681	-42.32
875.853	41.64
876.026	33.45
876.199	23.21
876.371	23.21
876.544	-15.7
876.717	-40.28
876.889	-60.76
877.062	27.31
877.234	-48.47
877.407	-75.09
877.579	-3.41
877.752	37.55
877.924	-48.47
878.097	53.93
878.269	-7.51
878.442	-25.94
878.614	17.07
878.786	70.31
878.959	-38.23
879.131	45.74
879.303	-109.91
879.476	19.11
879.648	58.03
879.82	-36.18
879.993	86.7
880.165	-44.37
880.337	-5.46
880.509	21.16
880.681	29.35
880.854	29.35
881.026	-23.89
881.198	21.16
881.37	-48.47
881.542	62.12
881.714	-15.7
881.886	2.73
882.058	64.17
882.23	-1.37
882.402	17.07
882.574	94.89
882.746	12.97
882.918	-30.04
883.09	-17.75
883.262	-13.65
883.434	-50.52
883.606	-48.47
883.778	-23.89
883.95	33.45
884.122	-11.61
884.293	47.79
884.465	-15.7
884.637	60.07
884.809	-85.33
884.98	-15.7
885.152	25.26
885.324	70.31
885.496	-68.95
885.667	51.88
885.839	-40.28
886.011	64.17
886.182	4.78
886.354	62.12
886.525	-13.65
886.697	58.03
886.869	-40.28
887.04	-25.94
887.212	15.02
887.383	15.02
887.555	33.45
887.726	6.83
887.897	10.92
888.069	33.45
888.24	21.16
888.412	-42.32
888.583	-7.51
888.754	-3.41
888.926	4.78
889.097	82.6
889.268	-85.33
889.44	-36.18
889.611	-15.7
889.782	-9.56
889.953	29.35
890.125	62.12
890.296	-101.72
890.467	17.07
890.638	-32.08
890.809	43.69
890.98	-40.28
891.151	27.31
891.323	29.35
891.494	4.78
891.665	-11.61
891.836	51.88
892.007	37.55
892.178	-36.18
892.349	-44.37
892.52	0.68
892.691	-17.75
892.862	-60.76
893.032	-83.28
893.203	-38.23
893.374	-60.76
893.545	15.02
893.716	62.12
893.887	49.83
894.057	-73.04
894.228	-32.08
894.399	-42.32
894.57	15.02
894.74	58.03
894.911	-3.41
895.082	21.16
895.253	-48.47
895.423	72.36
895.594	31.4
895.764	-13.65
895.935	-17.75
896.106	-71
896.276	-99.67
896.447	29.35
896.617	23.21
896.788	25.26
896.958	-11.61
897.129	-17.75
897.299	49.83
897.47	4.78
897.64	25.26
897.81	-62.8
897.981	4.78
898.151	-48.47
898.322	-3.41
898.492	-3.41
898.662	-54.61
898.832	41.64
899.003	0.68
899.173	55.98
899.343	-81.24
899.513	-101.72
