Data from USB4F104151__266__14-34-35-303.txt Node

Date: Thu Mar 13 14:34:35 EDT 2025
User: louis
Spectrometer: USB4F10415
Trigger mode: 4
Integration Time (sec): 2.500000E-2
Scans to average: 1
Electric dark correction enabled: true
Nonlinearity correction enabled: false
Boxcar width: 0
XAxis mode: Wavelengths
Number of Pixels in Spectrum: 3648
>>>>>Begin Spectral Data<<<<<
178.204	-101.2
178.424	-101.2
178.644	-101.2
178.864	-174.93
179.084	-176.98
179.304	-58.2
179.524	11.43
179.744	58.54
179.964	66.73
180.184	-35.67
180.404	-2.9
180.624	29.87
180.844	-33.62
181.064	-64.34
181.283	1.19
181.503	9.39
181.723	17.58
181.943	-11.09
182.163	93.35
182.383	-72.53
182.602	29.87
182.822	58.54
183.042	124.07
183.262	17.58
183.482	-37.72
183.701	72.87
183.921	1.19
184.141	-27.48
184.361	50.35
184.58	33.96
184.8	-25.43
185.02	1.19
185.239	42.15
185.459	74.92
185.679	74.92
185.898	-47.96
186.118	85.16
186.338	-23.38
186.557	13.48
186.777	-21.33
186.997	-29.52
187.216	-9.05
187.436	107.69
187.655	117.93
187.875	25.77
188.095	-25.43
188.314	128.17
188.534	17.58
188.753	-60.24
188.973	36.01
189.192	13.48
189.412	50.35
189.631	-13.14
189.851	15.53
190.07	44.2
190.29	9.39
190.509	3.24
190.729	7.34
190.948	134.31
191.168	99.5
191.387	60.59
191.607	-2.9
191.826	85.16
192.045	-15.19
192.265	9.39
192.484	19.63
192.704	-4.95
192.923	44.2
193.142	111.78
193.362	9.39
193.581	13.48
193.8	66.73
194.02	19.63
194.239	66.73
194.458	33.96
194.678	9.39
194.897	27.82
195.116	83.11
195.335	83.11
195.555	31.91
195.774	9.39
195.993	81.07
196.212	95.4
196.432	-23.38
196.651	5.29
196.87	-23.38
197.089	17.58
197.308	83.11
197.528	85.16
197.747	-23.38
197.966	13.48
198.185	103.59
198.404	-39.76
198.623	107.69
198.842	140.46
199.062	-4.95
199.281	91.31
199.5	74.92
199.719	44.2
199.938	-7
200.157	19.63
200.376	19.63
200.595	60.59
200.814	66.73
201.033	-11.09
201.252	62.63
201.471	103.59
201.69	36.01
201.909	115.88
202.128	46.25
202.347	58.54
202.566	1.19
202.785	-39.76
203.004	-13.14
203.223	81.07
203.442	11.43
203.661	31.91
203.879	52.39
204.098	48.3
204.317	44.2
204.536	169.13
204.755	91.31
204.974	109.74
205.193	33.96
205.411	83.11
205.63	-27.48
205.849	33.96
206.068	-7
206.287	58.54
206.505	36.01
206.724	17.58
206.943	19.63
207.162	-0.85
207.381	5.29
207.599	27.82
207.818	19.63
208.037	52.39
208.255	-68.44
208.474	60.59
208.693	21.67
208.911	29.87
209.13	93.35
209.349	46.25
209.567	27.82
209.786	44.2
210.005	27.82
210.223	36.01
210.442	-21.33
210.661	42.15
210.879	25.77
211.098	42.15
211.316	38.06
211.535	107.69
211.753	7.34
211.972	-15.19
212.191	70.83
212.409	9.39
212.628	17.58
212.846	11.43
213.065	19.63
213.283	107.69
213.502	19.63
213.72	9.39
213.938	-33.62
214.157	13.48
214.375	15.53
214.594	11.43
214.812	115.88
215.031	42.15
215.249	76.97
215.467	21.67
215.686	48.3
215.904	13.48
216.122	13.48
216.341	91.31
216.559	50.35
216.778	103.59
216.996	70.83
217.214	25.77
217.432	38.06
217.651	46.25
217.869	27.82
218.087	54.44
218.306	68.78
218.524	70.83
218.742	42.15
218.96	60.59
219.179	60.59
219.397	-7
219.615	27.82
219.833	-15.19
220.051	-19.29
220.27	46.25
220.488	70.83
220.706	42.15
220.924	99.5
221.142	9.39
221.36	29.87
221.578	-15.19
221.796	5.29
222.015	46.25
222.233	42.15
222.451	66.73
222.669	-37.72
222.887	79.02
223.105	23.72
223.323	89.26
223.541	44.2
223.759	85.16
223.977	-43.86
224.195	76.97
224.413	9.39
224.631	62.63
224.849	15.53
225.067	83.11
225.285	-15.19
225.503	-4.95
225.721	-21.33
225.939	11.43
226.157	134.31
226.375	103.59
226.592	-23.38
226.81	9.39
227.028	27.82
227.246	58.54
227.464	-15.19
227.682	105.64
227.9	36.01
228.117	54.44
228.335	76.97
228.553	17.58
228.771	1.19
228.989	25.77
229.206	38.06
229.424	68.78
229.642	56.49
229.86	17.58
230.077	111.78
230.295	70.83
230.513	36.01
230.731	-7
230.948	27.82
231.166	36.01
231.384	74.92
231.601	79.02
231.819	9.39
232.037	25.77
232.254	-13.14
232.472	33.96
232.689	-23.38
232.907	-4.95
233.125	-39.76
233.342	29.87
233.56	74.92
233.777	64.68
233.995	50.35
234.213	27.82
234.43	33.96
234.648	13.48
234.865	19.63
235.083	48.3
235.3	-35.67
235.518	9.39
235.735	33.96
235.953	140.46
236.17	68.78
236.388	-13.14
236.605	105.64
236.822	48.3
237.04	64.68
237.257	11.43
237.475	25.77
237.692	99.5
237.909	95.4
238.127	52.39
238.344	27.82
238.562	68.78
238.779	-4.95
238.996	19.63
239.214	50.35
239.431	142.5
239.648	-19.29
239.865	38.06
240.083	105.64
240.3	107.69
240.517	11.43
240.735	9.39
240.952	33.96
241.169	87.21
241.386	70.83
241.603	-15.19
241.821	-0.85
242.038	74.92
242.255	50.35
242.472	-19.29
242.689	64.68
242.907	56.49
243.124	52.39
243.341	-21.33
243.558	-19.29
243.775	-7
243.992	5.29
244.209	21.67
244.426	144.55
244.643	38.06
244.86	58.54
245.078	27.82
245.295	50.35
245.512	42.15
245.729	60.59
245.946	54.44
246.163	58.54
246.38	44.2
246.597	29.87
246.814	46.25
247.031	25.77
247.248	74.92
247.464	17.58
247.681	58.54
247.898	36.01
248.115	17.58
248.332	-7
248.549	25.77
248.766	79.02
248.983	62.63
249.2	42.15
249.417	9.39
249.633	-31.57
249.85	-21.33
250.067	56.49
250.284	-19.29
250.501	93.35
250.717	29.87
250.934	27.82
251.151	5.29
251.368	-21.33
251.585	115.88
251.801	-2.9
252.018	-29.52
252.235	3.24
252.451	-7
252.668	29.87
252.885	95.4
253.102	36.01
253.318	1.19
253.535	15.53
253.752	50.35
253.968	107.69
254.185	-35.67
254.401	36.01
254.618	83.11
254.835	-29.52
255.051	42.15
255.268	119.98
255.484	132.26
255.701	33.96
255.917	93.35
256.134	-54.1
256.351	79.02
256.567	-2.9
256.784	-2.9
257	38.06
257.217	11.43
257.433	40.11
257.65	113.83
257.866	11.43
258.082	-68.44
258.299	-13.14
258.515	111.78
258.732	1.19
258.948	21.67
259.165	-0.85
259.381	33.96
259.597	54.44
259.814	36.01
260.03	56.49
260.246	62.63
260.463	38.06
260.679	117.93
260.895	27.82
261.112	85.16
261.328	-4.95
261.544	9.39
261.761	107.69
261.977	46.25
262.193	17.58
262.409	38.06
262.626	21.67
262.842	3.24
263.058	-31.57
263.274	50.35
263.49	36.01
263.707	66.73
263.923	-21.33
264.139	60.59
264.355	36.01
264.571	-47.96
264.787	36.01
265.004	27.82
265.22	15.53
265.436	81.07
265.652	3.24
265.868	-2.9
266.084	25.77
266.3	74.92
266.516	-7
266.732	76.97
266.948	46.25
267.164	42.15
267.38	33.96
267.596	36.01
267.812	66.73
268.028	21.67
268.244	91.31
268.46	107.69
268.676	-19.29
268.892	1.19
269.108	9.39
269.324	36.01
269.54	13.48
269.756	79.02
269.972	-43.86
270.188	25.77
270.403	15.53
270.619	-4.95
270.835	81.07
271.051	3.24
271.267	5.29
271.483	68.78
271.698	74.92
271.914	109.74
272.13	64.68
272.346	27.82
272.562	-39.76
272.777	101.55
272.993	42.15
273.209	25.77
273.425	36.01
273.64	11.43
273.856	58.54
274.072	-15.19
274.287	56.49
274.503	33.96
274.719	-19.29
274.934	-56.15
275.15	-86.87
275.366	68.78
275.581	122.02
275.797	42.15
276.012	-39.76
276.228	17.58
276.444	11.43
276.659	50.35
276.875	-35.67
277.09	62.63
277.306	62.63
277.521	70.83
277.737	-21.33
277.952	42.15
278.168	91.31
278.383	-31.57
278.599	19.63
278.814	52.39
279.03	31.91
279.245	27.82
279.461	33.96
279.676	46.25
279.892	25.77
280.107	62.63
280.322	-45.91
280.538	48.3
280.753	-21.33
280.969	11.43
281.184	50.35
281.399	68.78
281.615	85.16
281.83	3.24
282.045	-52.05
282.26	-0.85
282.476	25.77
282.691	1.19
282.906	36.01
283.122	9.39
283.337	31.91
283.552	-19.29
283.767	74.92
283.983	58.54
284.198	48.3
284.413	91.31
284.628	-13.14
284.843	33.96
285.058	19.63
285.274	5.29
285.489	54.44
285.704	36.01
285.919	1.19
286.134	101.55
286.349	25.77
286.564	-15.19
286.779	95.4
286.995	62.63
287.21	58.54
287.425	-23.38
287.64	66.73
287.855	-13.14
288.07	-31.57
288.285	21.67
288.5	46.25
288.715	46.25
288.93	126.12
289.145	-2.9
289.36	50.35
289.575	93.35
289.79	19.63
290.004	36.01
290.219	132.26
290.434	9.39
290.649	79.02
290.864	-7
291.079	44.2
291.294	58.54
291.509	17.58
291.724	33.96
291.938	-0.85
292.153	17.58
292.368	1.19
292.583	83.11
292.798	17.58
293.012	29.87
293.227	9.39
293.442	58.54
293.657	9.39
293.871	115.88
294.086	33.96
294.301	79.02
294.516	60.59
294.73	128.17
294.945	23.72
295.16	50.35
295.374	79.02
295.589	60.59
295.804	-23.38
296.018	-4.95
296.233	101.55
296.447	58.54
296.662	5.29
296.877	95.4
297.091	-2.9
297.306	38.06
297.52	29.87
297.735	40.11
297.949	42.15
298.164	-2.9
298.378	76.97
298.593	-37.72
298.807	-88.92
299.022	29.87
299.236	87.21
299.451	-0.85
299.665	93.35
299.88	42.15
300.094	9.39
300.309	46.25
300.523	-0.85
300.737	-2.9
300.952	15.53
301.166	27.82
301.381	-11.09
301.595	9.39
301.809	79.02
302.024	23.72
302.238	29.87
302.452	3.24
302.667	-29.52
302.881	46.25
303.095	9.39
303.309	54.44
303.524	83.11
303.738	25.77
303.952	11.43
304.166	66.73
304.381	48.3
304.595	58.54
304.809	40.11
305.023	11.43
305.237	-0.85
305.452	-4.95
305.666	38.06
305.88	107.69
306.094	42.15
306.308	52.39
306.522	40.11
306.736	60.59
306.95	76.97
307.164	42.15
307.379	60.59
307.593	85.16
307.807	119.98
308.021	93.35
308.235	25.77
308.449	3.24
308.663	38.06
308.877	109.74
309.091	17.58
309.305	42.15
309.519	-39.76
309.733	146.6
309.947	-43.86
310.161	91.31
310.374	107.69
310.588	128.17
310.802	52.39
311.016	50.35
311.23	70.83
311.444	33.96
311.658	27.82
311.872	68.78
312.085	9.39
312.299	58.54
312.513	60.59
312.727	64.68
312.941	3.24
313.154	40.11
313.368	42.15
313.582	91.31
313.796	42.15
314.009	1.19
314.223	101.55
314.437	1.19
314.651	17.58
314.864	33.96
315.078	7.34
315.292	-4.95
315.505	-15.19
315.719	42.15
315.933	-13.14
316.146	17.58
316.36	25.77
316.573	33.96
316.787	52.39
317.001	-27.48
317.214	58.54
317.428	91.31
317.641	60.59
317.855	89.26
318.068	33.96
318.282	46.25
318.495	62.63
318.709	11.43
318.922	9.39
319.136	9.39
319.349	56.49
319.563	148.65
319.776	-13.14
319.99	48.3
320.203	101.55
320.417	3.24
320.63	99.5
320.843	64.68
321.057	-7
321.27	54.44
321.483	36.01
321.697	107.69
321.91	38.06
322.124	91.31
322.337	74.92
322.55	1.19
322.763	50.35
322.977	-4.95
323.19	36.01
323.403	66.73
323.617	7.34
323.83	62.63
324.043	-4.95
324.256	-7
324.469	122.02
324.683	109.74
324.896	-19.29
325.109	54.44
325.322	7.34
325.535	99.5
325.748	36.01
325.962	-0.85
326.175	-4.95
326.388	66.73
326.601	-4.95
326.814	1.19
327.027	21.67
327.24	150.7
327.453	5.29
327.666	-4.95
327.879	50.35
328.092	140.46
328.305	46.25
328.518	29.87
328.731	15.53
328.944	91.31
329.157	-11.09
329.37	19.63
329.583	54.44
329.796	85.16
330.009	-2.9
330.222	83.11
330.435	107.69
330.648	42.15
330.861	128.17
331.073	9.39
331.286	9.39
331.499	42.15
331.712	11.43
331.925	-13.14
332.138	40.11
332.35	60.59
332.563	13.48
332.776	74.92
332.989	-0.85
333.202	50.35
333.414	48.3
333.627	46.25
333.84	44.2
334.053	79.02
334.265	3.24
334.478	-11.09
334.691	54.44
334.903	70.83
335.116	76.97
335.329	58.54
335.541	93.35
335.754	68.78
335.966	-23.38
336.179	-27.48
336.392	15.53
336.604	5.29
336.817	27.82
337.029	58.54
337.242	70.83
337.454	111.78
337.667	31.91
337.88	-9.05
338.092	97.45
338.305	85.16
338.517	27.82
338.729	50.35
338.942	85.16
339.154	7.34
339.367	42.15
339.579	97.45
339.792	44.2
340.004	60.59
340.217	15.53
340.429	46.25
340.641	36.01
340.854	42.15
341.066	25.77
341.278	17.58
341.491	68.78
341.703	183.46
341.915	23.72
342.128	3.24
342.34	91.31
342.552	-52.05
342.764	-7
342.977	36.01
343.189	48.3
343.401	70.83
343.613	-31.57
343.826	-19.29
344.038	9.39
344.25	66.73
344.462	52.39
344.674	50.35
344.886	27.82
345.099	13.48
345.311	113.83
345.523	27.82
345.735	-111.44
345.947	66.73
346.159	-7
346.371	38.06
346.583	-15.19
346.795	93.35
347.007	66.73
347.219	99.5
347.431	62.63
347.643	105.64
347.855	64.68
348.067	83.11
348.279	33.96
348.491	101.55
348.703	50.35
348.915	25.77
349.127	-7
349.339	38.06
349.551	50.35
349.763	33.96
349.975	36.01
350.187	117.93
350.399	31.91
350.61	79.02
350.822	54.44
351.034	58.54
351.246	9.39
351.458	42.15
351.669	83.11
351.881	68.78
352.093	107.69
352.305	117.93
352.517	46.25
352.728	76.97
352.94	93.35
353.152	17.58
353.363	-7
353.575	70.83
353.787	99.5
353.999	19.63
354.21	165.03
354.422	-2.9
354.633	27.82
354.845	46.25
355.057	72.87
355.268	132.26
355.48	40.11
355.692	58.54
355.903	60.59
356.115	95.4
356.326	-19.29
356.538	81.07
356.749	74.92
356.961	132.26
357.172	-29.52
357.384	29.87
357.595	148.65
357.807	66.73
358.018	1.19
358.23	60.59
358.441	107.69
358.653	58.54
358.864	79.02
359.075	-7
359.287	33.96
359.498	87.21
359.709	111.78
359.921	21.67
360.132	21.67
360.344	66.73
360.555	25.77
360.766	89.26
360.977	27.82
361.189	50.35
361.4	50.35
361.611	42.15
361.823	38.06
362.034	31.91
362.245	50.35
362.456	101.55
362.667	64.68
362.879	36.01
363.09	42.15
363.301	-35.67
363.512	-76.63
363.723	-4.95
363.935	54.44
364.146	36.01
364.357	19.63
364.568	99.5
364.779	-23.38
364.99	72.87
365.201	19.63
365.412	119.98
365.623	13.48
365.834	146.6
366.045	93.35
366.256	11.43
366.467	89.26
366.678	42.15
366.889	-11.09
367.1	13.48
367.311	70.83
367.522	66.73
367.733	25.77
367.944	5.29
368.155	50.35
368.366	17.58
368.577	62.63
368.788	9.39
368.999	48.3
369.209	44.2
369.42	169.13
369.631	136.36
369.842	58.54
370.053	36.01
370.264	42.15
370.474	-13.14
370.685	25.77
370.896	33.96
371.107	95.4
371.317	74.92
371.528	-9.05
371.739	74.92
371.95	68.78
372.16	9.39
372.371	1.19
372.582	119.98
372.792	83.11
373.003	50.35
373.214	46.25
373.424	54.44
373.635	36.01
373.846	136.36
374.056	17.58
374.267	101.55
374.477	83.11
374.688	9.39
374.898	119.98
375.109	29.87
375.319	79.02
375.53	76.97
375.74	25.77
375.951	42.15
376.161	64.68
376.372	50.35
376.582	42.15
376.793	33.96
377.003	17.58
377.214	83.11
377.424	33.96
377.635	33.96
377.845	83.11
378.055	85.16
378.266	21.67
378.476	70.83
378.686	154.79
378.897	103.59
379.107	33.96
379.317	85.16
379.528	48.3
379.738	85.16
379.948	-23.38
380.158	29.87
380.369	-19.29
380.579	89.26
380.789	66.73
380.999	74.92
381.21	156.84
381.42	113.83
381.63	64.68
381.84	40.11
382.05	70.83
382.261	52.39
382.471	99.5
382.681	58.54
382.891	1.19
383.101	113.83
383.311	109.74
383.521	36.01
383.731	64.68
383.941	134.31
384.151	62.63
384.361	169.13
384.571	85.16
384.781	38.06
384.991	17.58
385.201	76.97
385.411	-7
385.621	79.02
385.831	115.88
386.041	42.15
386.251	1.19
386.461	74.92
386.671	54.44
386.881	111.78
387.091	-2.9
387.301	87.21
387.511	74.92
387.72	44.2
387.93	101.55
388.14	25.77
388.35	-7
388.56	74.92
388.769	140.46
388.979	52.39
389.189	79.02
389.399	111.78
389.609	101.55
389.818	83.11
390.028	93.35
390.238	50.35
390.447	19.63
390.657	48.3
390.867	50.35
391.076	56.49
391.286	87.21
391.496	17.58
391.705	62.63
391.915	74.92
392.125	79.02
392.334	3.24
392.544	40.11
392.753	19.63
392.963	68.78
393.172	87.21
393.382	-11.09
393.591	48.3
393.801	105.64
394.01	115.88
394.22	113.83
394.429	58.54
394.639	93.35
394.848	140.46
395.058	19.63
395.267	66.73
395.477	132.26
395.686	111.78
395.895	134.31
396.105	117.93
396.314	99.5
396.524	105.64
396.733	17.58
396.942	101.55
397.152	109.74
397.361	140.46
397.57	68.78
397.78	79.02
397.989	126.12
398.198	148.65
398.407	126.12
398.617	101.55
398.826	66.73
399.035	38.06
399.244	15.53
399.453	136.36
399.663	119.98
399.872	132.26
400.081	85.16
400.29	124.07
400.499	128.17
400.708	197.8
400.917	177.32
401.127	140.46
401.336	140.46
401.545	165.03
401.754	122.02
401.963	169.13
402.172	60.59
402.381	138.41
402.59	33.96
402.799	148.65
403.008	89.26
403.217	103.59
403.426	60.59
403.635	93.35
403.844	132.26
404.053	140.46
404.262	107.69
404.471	156.84
404.68	165.03
404.888	83.11
405.097	140.46
405.306	109.74
405.515	167.08
405.724	165.03
405.933	91.31
406.142	173.22
406.35	140.46
406.559	124.07
406.768	134.31
406.977	189.61
407.185	124.07
407.394	175.27
407.603	165.03
407.812	255.14
408.02	205.99
408.229	144.55
408.438	197.8
408.646	148.65
408.855	242.85
409.064	244.9
409.272	175.27
409.481	242.85
409.69	259.24
409.898	345.25
410.107	316.58
410.315	330.92
410.524	218.28
410.733	322.73
410.941	302.25
411.15	435.36
411.358	353.45
411.567	427.17
411.775	378.02
411.984	283.81
412.192	445.6
412.401	392.36
412.609	443.56
412.818	517.28
413.026	509.09
413.234	406.69
413.443	486.56
413.651	449.7
413.86	437.41
414.068	525.47
414.276	638.11
414.485	498.85
414.693	617.63
414.901	640.16
415.11	666.78
415.318	662.69
415.526	697.5
415.734	668.83
415.943	740.51
416.151	793.76
416.359	746.66
416.567	763.04
416.776	804
416.984	787.61
417.192	910.49
417.4	855.2
417.608	877.73
417.817	906.4
418.025	926.88
418.233	1090.71
418.441	1035.42
418.649	1074.33
418.857	1172.63
419.065	1176.73
419.273	1115.29
419.481	1209.5
419.689	1311.89
419.897	1283.22
420.105	1356.95
420.313	1283.22
420.521	1352.85
420.729	1510.55
420.937	1481.88
421.145	1543.32
421.353	1602.71
421.561	1739.92
421.769	1762.45
421.977	1813.65
422.185	1795.22
422.393	1889.42
422.601	1961.1
422.809	2012.3
423.017	1983.63
423.224	2043.02
423.432	2153.61
423.64	2131.08
423.848	2323.59
424.056	2417.8
424.263	2536.58
424.471	2561.16
424.679	2589.83
424.887	2577.54
425.094	2815.1
425.302	2653.31
425.51	2794.62
425.718	2983.04
425.925	3099.77
426.133	3155.07
426.341	3390.58
426.548	3552.37
426.756	3497.08
426.964	3384.44
427.171	3464.31
427.379	3708.02
427.586	3796.08
427.794	3900.53
428.001	4117.61
428.209	4244.59
428.417	4158.57
428.624	4602.98
428.832	4523.11
429.039	4465.77
429.247	4461.67
429.454	4955.23
429.662	5162.08
429.869	4869.22
430.076	5291.1
430.284	5125.21
430.491	5338.2
430.699	5502.04
430.906	5747.79
431.114	5678.16
431.321	5909.58
431.528	5885.01
431.736	6349.9
431.943	6677.57
432.15	6243.4
432.358	6493.26
432.565	6851.65
432.772	6849.6
432.979	7140.41
433.187	7373.88
433.394	7486.52
433.601	7642.17
433.808	7691.32
434.016	7756.85
434.223	8074.29
434.43	8655.91
434.637	8475.69
434.844	8932.39
435.052	8995.87
435.259	9155.61
435.466	9217.05
435.673	8815.65
435.88	9452.57
436.087	10105.87
436.294	10126.35
436.501	9888.79
436.708	10005.52
436.915	10476.55
437.122	10611.72
437.329	10869.76
437.537	11211.78
437.743	11113.47
437.95	11090.95
438.157	11947
438.364	12305.39
438.571	12289.01
438.778	12205.04
438.985	13118.43
439.192	12749.8
439.399	13216.74
439.606	12714.98
439.813	13747.16
440.02	14420.94
440.227	14011.35
440.433	13906.9
440.64	14644.17
440.847	14410.7
441.054	15164.36
441.261	15483.84
441.467	15680.44
441.674	16008.12
441.881	16518.06
442.088	16337.84
442.294	16260.02
442.501	16331.7
442.708	17265.57
442.914	17646.49
443.121	18238.36
443.328	17691.55
443.534	19049.35
443.741	18588.56
443.948	18244.5
444.154	19825.53
444.361	19508.1
444.568	19667.84
444.774	19727.23
444.981	19991.42
445.187	20433.78
445.394	21181.29
445.6	20900.72
445.807	23030.6
446.013	21969.76
446.22	22432.6
446.426	23219.02
446.633	23622.47
446.839	24245.05
447.046	23440.2
447.252	24791.86
447.459	24628.02
447.665	24632.11
447.871	25518.89
448.078	27013.9
448.284	25508.65
448.491	26346.26
448.697	27056.91
448.903	27769.6
449.11	27869.95
449.316	27218.7
449.522	28066.56
449.728	28672.76
449.935	28728.05
450.141	28744.44
450.347	29291.24
450.553	28504.82
450.76	28775.16
450.966	29584.1
451.172	29489.9
451.378	30282.46
451.584	29254.38
451.791	30046.94
451.997	30147.29
452.203	30966.48
452.409	30909.14
452.615	30364.38
452.821	29856.48
453.027	28990.19
453.233	30704.34
453.44	29301.48
453.646	29649.64
453.852	29975.27
454.058	30411.48
454.264	29139.69
454.47	29868.77
454.676	29281
454.882	30319.32
455.088	27441.93
455.294	27888.39
455.5	28203.77
455.705	28736.24
455.911	27730.69
456.117	27089.68
456.323	26612.5
456.529	25164.59
456.735	26520.34
456.941	25301.8
457.147	25029.42
457.352	24613.68
457.558	24265.53
457.764	24529.72
457.97	24001.34
458.176	23300.94
458.381	22973.26
458.587	21910.36
458.793	21873.5
458.999	20888.43
459.204	22344.53
459.41	21982.04
459.616	20235.13
459.821	20251.51
460.027	20390.77
460.233	19696.51
460.438	18813.84
460.644	18942.86
460.85	18252.69
461.055	17912.73
461.261	17933.21
461.466	16225.2
461.672	15907.77
461.878	16987.05
462.083	15903.67
462.289	15614.91
462.494	15115.2
462.7	15021
462.905	14216.15
463.111	14582.73
463.316	14926.79
463.522	14525.39
463.727	14664.65
463.932	14560.2
464.138	14033.88
464.343	14377.94
464.549	13945.81
464.754	14468.05
464.959	14197.71
465.165	13970.39
465.37	13444.06
465.575	13134.82
465.781	13695.96
465.986	13659.1
466.191	13011.94
466.397	13159.39
466.602	12407.79
466.807	12837.86
467.012	12813.29
467.218	12436.46
467.423	12403.69
467.628	12592.11
467.833	13034.47
468.038	12645.35
468.244	12127.22
468.449	12698.6
468.654	12211.18
468.859	11961.33
469.064	12059.63
469.269	11617.27
469.474	11492.35
469.679	11979.76
469.885	11568.12
470.09	11666.42
470.295	11547.64
470.5	11168.77
470.705	11553.79
470.91	11084.8
471.115	11086.85
471.32	10935.3
471.525	10966.02
471.73	10638.34
471.935	10689.54
472.139	10404.88
472.344	10568.71
472.549	10292.24
472.754	10179.6
472.959	10089.49
473.164	9839.64
473.369	9522.2
473.574	9970.71
473.778	9858.07
473.983	9802.77
474.188	9653.27
474.393	9268.25
474.598	9559.06
474.802	9382.94
475.007	9258.01
475.212	9309.21
475.417	8997.92
475.621	9034.78
475.826	9008.16
476.031	8799.27
476.235	8391.72
476.44	8662.05
476.645	8676.39
476.849	8627.24
477.054	8397.87
477.259	8334.38
477.463	8361
477.668	8242.22
477.872	8260.65
478.077	8211.5
478.282	7988.27
478.486	8037.42
478.691	7713.84
478.895	7842.87
479.1	7660.6
479.304	7857.2
479.509	7418.94
479.713	7619.64
479.918	7361.59
480.122	7291.96
480.326	7451.7
480.531	7394.36
480.735	7431.23
480.94	7310.4
481.144	7463.99
481.348	7291.96
481.553	7316.54
481.757	6976.58
481.961	7251
482.166	7341.11
482.37	7226.43
482.574	6898.75
482.778	7138.37
482.983	7263.29
483.187	7253.05
483.391	7062.59
483.595	7029.82
483.8	7058.49
484.004	6949.95
484.208	7089.21
484.412	6947.9
484.616	7201.85
484.821	7093.31
485.025	6880.32
485.229	7105.6
485.433	7089.21
485.637	7095.36
485.841	6927.42
486.045	6890.56
486.249	6949.95
486.453	6990.91
486.657	7015.49
486.861	6908.99
487.065	6751.3
487.269	6954.05
487.473	6861.89
487.677	6992.96
487.881	7042.11
488.085	6980.67
488.289	6911.04
488.493	6968.38
488.697	6917.19
488.901	6954.05
489.105	6894.66
489.309	6984.77
489.512	7089.21
489.716	7111.74
489.92	6943.81
490.124	7001.15
490.328	7029.82
490.531	6931.52
490.735	7318.59
490.939	6874.18
491.143	7015.49
491.346	6988.86
491.55	7070.78
491.754	6984.77
491.958	7113.79
492.161	7193.66
492.365	7113.79
492.569	7050.3
492.772	7115.84
492.976	7236.67
493.18	7201.85
493.383	7294.01
493.587	7328.83
493.79	7666.74
493.994	7316.54
494.197	7330.87
494.401	7562.3
494.605	7408.7
494.808	7463.99
495.012	7578.68
495.215	7550.01
495.419	7676.98
495.622	7750.71
495.825	7744.56
496.029	7638.07
496.232	7640.12
496.436	7771.19
496.639	8078.38
496.843	7939.12
497.046	8051.76
497.249	8102.96
497.453	8096.82
497.656	8145.97
497.859	8299.56
498.063	8270.89
498.266	8348.72
498.469	8639.53
498.673	8389.67
498.876	8535.08
499.079	8719.4
499.282	8784.93
499.485	9024.54
499.689	8889.38
499.892	8967.2
500.095	9028.64
500.298	9241.63
500.501	9143.33
500.705	9419.8
500.908	9425.95
501.111	9589.78
501.314	9634.84
501.517	9759.77
501.72	9829.4
501.923	9731.09
502.126	10077.2
502.329	10138.64
502.532	10124.3
502.735	10241.04
502.938	10447.88
503.141	10466.31
503.344	10439.69
503.547	10548.23
503.75	10609.67
503.953	10830.85
504.156	11037.7
504.359	11099.14
504.562	11179.01
504.765	11379.71
504.968	11314.17
505.17	11736.06
505.373	11740.15
505.576	11871.22
505.779	11748.34
505.982	11910.13
506.185	12121.07
506.387	12057.59
506.59	12479.47
506.793	12481.52
506.996	12512.24
507.198	12774.38
507.401	12891.11
507.604	13007.84
507.807	13222.88
508.009	13403.1
508.212	13364.19
508.415	13663.19
508.617	13851.61
508.82	13798.36
509.022	13788.12
509.225	14189.52
509.428	14128.08
509.63	14109.65
509.833	14486.48
510.035	14539.72
510.238	14674.89
510.44	14787.53
510.643	14945.22
510.845	15301.57
511.048	15147.97
511.25	15344.58
511.453	15375.3
511.655	16032.69
511.858	15805.37
512.06	15852.47
512.262	16208.82
512.465	16001.97
512.667	16393.14
512.87	16518.06
513.072	16743.34
513.274	17126.31
513.477	17081.25
513.679	17331.11
513.881	17253.28
514.084	17656.73
514.286	17462.18
514.488	17791.9
514.69	18234.26
514.893	18307.99
515.095	18334.61
515.297	18555.79
515.499	18437.01
515.701	18594.7
515.904	19092.36
516.106	18652.05
516.308	19135.37
516.51	19374.98
516.712	19362.69
516.914	19653.5
517.116	19997.56
517.318	19999.61
517.52	20296.56
517.722	20087.67
517.925	20489.07
518.127	20497.27
518.329	20972.39
518.531	20743.02
518.733	21064.55
518.935	21205.86
519.136	21332.84
519.338	21631.84
519.54	21795.68
519.742	21842.78
519.944	21744.48
520.146	21936.99
520.348	22164.31
520.55	22457.17
520.752	22354.77
520.954	22999.88
521.155	22557.52
521.357	22924.11
521.559	23006.03
521.761	23671.62
521.963	23145.29
522.164	23491.4
522.366	23403.33
522.568	23595.84
522.77	23636.8
522.971	23782.21
523.173	23804.74
523.375	24101.69
523.576	23876.41
523.778	23923.52
523.98	24232.76
524.181	24480.57
524.383	24240.95
524.584	24746.8
524.786	24773.42
524.988	24517.43
525.189	24802.1
525.391	24470.33
525.592	24910.64
525.794	24761.14
525.995	24939.31
526.197	24812.34
526.398	24886.06
526.6	24929.07
526.801	25062.19
527.003	25029.42
527.204	25135.92
527.406	25443.11
527.607	25172.78
527.808	25121.58
528.01	24773.42
528.211	24947.5
528.412	25402.15
528.614	25191.21
528.815	25117.48
529.016	25230.12
529.218	25101.1
529.419	25088.81
529.62	25103.15
529.822	24863.54
530.023	25238.31
530.224	25041.71
530.425	24834.86
530.626	24761.14
530.828	24550.2
531.029	25113.39
531.23	24976.17
531.431	24628.02
531.632	24873.78
531.833	24863.54
532.035	24703.79
532.236	24828.72
532.437	24716.08
532.638	24734.51
532.839	24576.82
533.04	24675.12
533.241	24419.13
533.442	24668.98
533.643	24458.04
533.844	24392.5
534.045	24337.21
534.246	23993.15
534.447	24384.31
534.648	24210.23
534.849	24038.2
535.05	24126.27
535.251	23941.95
535.451	24001.34
535.652	24048.44
535.853	23987
536.054	23972.67
536.255	23903.04
536.456	23147.34
536.657	23903.04
536.857	23587.65
537.058	23464.77
537.259	23792.45
537.46	23475.01
537.66	23245.64
537.861	23757.63
538.062	23276.36
538.263	23300.94
538.463	23485.25
538.664	23139.15
538.865	23532.36
539.065	23415.62
539.266	22782.8
539.466	23069.51
539.667	22883.15
539.868	23675.71
540.068	23249.74
540.269	23116.62
540.469	23049.03
540.67	22866.77
540.87	23380.81
541.071	23067.47
541.271	22967.12
541.472	22778.7
541.672	22610.77
541.873	22426.45
542.073	22639.44
542.274	22817.61
542.474	23128.91
542.675	22471.51
542.875	22790.99
543.075	22623.06
543.276	22614.87
543.476	22639.44
543.676	22399.83
543.877	22618.96
544.077	22977.36
544.277	22664.02
544.478	22694.74
544.678	22672.21
544.878	22846.29
545.078	22737.74
545.279	22322.01
545.479	22346.58
545.679	22768.46
545.879	22711.12
546.079	22498.13
546.28	22524.75
546.48	22512.47
546.68	22868.81
546.88	22723.41
547.08	22623.06
547.28	22432.6
547.48	22479.7
547.68	22981.45
547.88	22371.16
548.081	22508.37
548.281	22367.06
548.481	22725.46
548.681	22528.85
548.881	22958.92
549.081	22469.46
549.28	22737.74
549.48	22917.96
549.68	22510.42
549.88	22793.04
550.08	22739.79
550.28	22829.9
550.48	22883.15
550.68	23106.38
550.88	22614.87
551.08	22670.16
551.279	22952.78
551.479	22621.01
551.679	22913.87
551.879	22698.83
552.079	23057.23
552.278	22963.02
552.478	23198.54
552.678	23178.06
552.878	23202.63
553.077	23044.94
553.277	22858.57
553.477	23204.68
553.676	23300.94
553.876	23264.07
554.076	23214.92
554.275	23382.85
554.475	22993.74
554.674	23384.9
554.874	23548.74
555.074	23235.4
555.273	23466.82
555.473	23626.56
555.672	23247.69
555.872	23489.35
556.071	23280.46
556.271	23595.84
556.47	23546.69
556.67	23464.77
556.869	23343.94
557.068	23683.91
557.268	23513.92
557.467	23481.16
557.667	23819.07
557.866	23657.28
558.065	23710.53
558.265	23612.23
558.464	23829.31
558.663	23984.96
558.863	23452.48
559.062	23954.24
559.261	23841.6
559.461	24232.76
559.66	23620.42
559.859	23825.22
560.058	23505.73
560.258	23892.8
560.457	23563.08
560.656	24062.78
560.855	23880.51
561.054	23900.99
561.253	23667.52
561.453	23935.81
561.652	23825.22
561.851	24097.59
562.05	23817.02
562.249	23667.52
562.448	24081.21
562.647	23862.08
562.846	24038.2
563.045	23878.46
563.244	23466.82
563.443	23999.29
563.642	23675.71
563.841	23978.81
564.04	23378.76
564.239	24042.3
564.438	23522.12
564.637	23864.13
564.836	23819.07
565.035	23384.9
565.234	23839.55
565.432	23468.87
565.631	23208.78
565.83	23753.54
566.029	23364.42
566.228	23794.5
566.427	23663.43
566.625	23399.24
566.824	23028.56
567.023	23417.67
567.222	23026.51
567.42	23423.81
567.619	23157.58
567.818	22991.69
568.016	23380.81
568.215	23128.91
568.414	23034.7
568.612	23071.56
568.811	22917.96
569.01	22696.78
569.208	22676.3
569.407	23167.82
569.605	22465.36
569.804	22895.44
570.002	22713.17
570.201	22725.46
570.4	22229.85
570.598	22469.46
570.797	22510.42
570.995	22369.11
571.193	21996.38
571.392	22240.09
571.59	21799.77
571.789	22272.85
571.987	22063.96
572.186	22002.52
572.384	21748.57
572.582	21848.93
572.781	21855.07
572.979	21541.73
573.177	21633.89
573.376	21623.65
573.574	21429.09
573.772	21326.69
573.971	21169
574.169	21173.1
574.367	21021.55
574.565	21222.25
574.763	20949.87
574.962	20904.81
575.16	20652.91
575.358	20806.51
575.556	20435.83
575.754	20704.11
575.952	20464.5
576.151	20667.25
576.349	20425.59
576.547	20374.39
576.745	20290.42
576.943	20274.04
577.141	19923.83
577.339	19858.3
577.537	19905.4
577.735	19985.27
577.933	19751.81
578.131	19958.65
578.329	19776.38
578.527	19553.15
578.725	19536.77
578.923	19700.61
579.121	19573.63
579.319	19452.8
579.516	19475.33
579.714	19329.92
579.912	19182.47
580.11	19270.53
580.308	19061.64
580.506	19135.37
580.704	18922.38
580.901	19047.3
581.099	18826.12
581.297	18793.36
581.495	18713.49
581.692	18844.56
581.89	18713.49
582.088	18699.15
582.285	18662.29
582.483	18664.33
582.681	18658.19
582.878	18576.27
583.076	18312.08
583.274	18473.87
583.471	18303.89
583.669	18416.53
583.866	18000.79
584.064	18219.92
584.262	18000.79
584.459	18303.89
584.657	17843.1
584.854	18246.55
585.052	17902.49
585.249	18074.52
585.447	17812.38
585.644	17845.15
585.841	17763.23
586.039	17935.26
586.236	17599.39
586.434	17675.16
586.631	17761.18
586.828	17492.9
587.026	17671.07
587.223	17566.62
587.42	17437.6
587.618	17312.67
587.815	17191.84
588.012	17134.5
588.21	17451.94
588.407	17552.29
588.604	17337.25
588.801	17181.6
588.999	17206.18
589.196	17034.15
589.393	17107.88
589.59	17273.76
589.787	17120.17
589.984	17075.11
590.182	16894.89
590.379	17339.3
590.576	16878.51
590.773	16831.4
590.97	16909.22
591.167	16831.4
591.364	16927.66
591.561	16769.96
591.758	16614.32
591.955	16757.67
592.152	17126.31
592.349	16810.92
592.546	16837.55
592.743	16614.32
592.94	16493.49
593.137	16686
593.334	16796.59
593.531	16606.13
593.727	16651.18
593.924	16712.62
594.121	16626.6
594.318	16819.11
594.515	16473.01
594.712	16812.97
594.908	16630.7
595.105	16606.13
595.302	16681.9
595.499	16632.75
595.696	16724.91
595.892	16362.42
596.089	16878.51
596.286	16694.19
596.482	16573.36
596.679	16671.66
596.876	16964.52
597.072	16698.28
597.269	16931.75
597.466	16774.06
597.662	16706.48
597.859	16812.97
598.055	16800.68
598.252	16769.96
598.448	16884.65
598.645	16724.91
598.841	16829.35
599.038	16964.52
599.234	16659.37
599.431	16698.28
599.627	16935.85
599.824	17185.7
600.02	16868.27
600.217	17081.25
600.413	17085.35
600.609	17091.49
600.806	17023.91
601.002	17210.28
601.198	17251.24
601.395	17177.51
601.591	17310.63
601.787	17320.87
601.984	17400.74
602.18	17662.88
602.376	17417.12
602.572	17263.52
602.769	17722.27
602.965	17466.27
603.161	17482.66
603.357	17331.11
603.553	17814.43
603.75	17748.89
603.946	17853.34
604.142	17904.54
604.338	17796
604.534	17662.88
604.73	17814.43
604.926	17734.56
605.122	17916.83
605.318	18123.67
605.514	17986.46
605.71	18213.78
605.906	17974.17
606.102	18195.35
606.298	18504.59
606.494	18418.58
606.69	18285.46
606.886	18615.18
607.082	18326.42
607.278	18416.53
607.474	18402.19
607.67	18883.47
607.866	18584.46
608.062	18809.74
608.257	19063.69
608.453	18871.18
608.649	18844.56
608.845	18713.49
609.041	19125.13
609.236	19159.94
609.432	19092.36
609.628	19016.58
609.824	19030.92
610.019	19141.51
610.215	19286.92
610.411	19411.84
610.606	19301.25
610.802	19403.65
610.998	19350.4
611.193	19622.78
611.389	19274.63
611.584	19569.54
611.78	19532.67
611.976	19639.17
612.171	19764.09
612.367	20087.67
612.562	19657.6
612.758	19487.62
612.953	19475.33
613.149	19852.16
613.344	19596.16
613.539	20067.19
613.735	19991.42
613.93	19843.96
614.126	20054.9
614.321	19991.42
614.517	20054.9
614.712	19893.12
614.907	20075.38
615.103	20091.77
615.298	20122.49
615.493	20159.35
615.688	19833.72
615.884	20366.2
616.079	19716.99
616.274	20325.24
616.47	19989.37
616.665	20183.93
616.86	20106.1
617.055	19780.48
617.25	20095.86
617.445	20325.24
617.641	20046.71
617.836	20099.96
618.031	19960.7
618.226	19870.59
618.421	19907.45
618.616	19903.35
618.811	19600.26
619.006	20233.08
619.201	19694.46
619.396	19940.22
619.591	19698.56
619.786	19938.17
619.981	19495.81
620.176	19518.34
620.371	19522.43
620.566	19610.5
620.761	19342.21
620.956	19489.67
621.151	19315.59
621.346	19612.54
621.541	18920.33
621.735	19231.62
621.93	18965.39
622.125	19262.34
622.32	18887.56
622.515	18914.19
622.709	18725.77
622.904	18860.94
623.099	18744.2
623.294	18924.43
623.488	18437.01
623.683	18371.47
623.878	18523.02
624.072	18439.06
624.267	18256.79
624.462	18498.45
624.656	17888.15
624.851	18162.58
625.046	18000.79
625.24	18033.56
625.435	17621.92
625.629	17677.21
625.824	17517.47
626.018	17650.59
626.213	17318.82
626.407	17435.55
626.602	17023.91
626.796	17486.75
626.991	17222.56
627.185	17208.23
627.38	17148.84
627.574	16909.22
627.768	16845.74
627.963	16589.74
628.157	16663.47
628.352	16612.27
628.546	16434.1
628.74	16532.4
628.935	16323.51
629.129	16346.03
629.323	16219.06
629.517	16208.82
629.712	16067.51
629.906	16034.74
630.1	15868.86
630.294	16042.93
630.489	15885.24
630.683	16044.98
630.877	15784.89
631.071	15590.33
631.265	15743.93
631.459	15412.16
631.653	15287.23
631.848	15270.85
632.042	15291.33
632.236	15483.84
632.43	15000.52
632.624	15195.07
632.818	15025.09
633.012	14949.32
633.206	14934.98
633.4	14875.59
633.594	14537.68
633.788	14500.81
633.982	14715.85
634.176	14582.73
634.369	14601.16
634.563	14390.22
634.757	14248.91
634.951	14117.84
635.145	13954.01
635.339	13894.61
635.533	14001.11
635.726	14322.64
635.92	13820.89
636.114	13667.29
636.308	13714.39
636.501	13646.81
636.695	13536.22
636.889	13476.83
637.083	13439.97
637.276	13392.86
637.47	13198.31
637.664	12930.02
637.857	13079.52
638.051	12891.11
638.244	13026.28
638.438	12921.83
638.632	12911.59
638.825	12569.58
639.019	12585.96
639.212	12669.93
639.406	12375.02
639.599	12428.27
639.793	12430.32
639.986	12284.91
640.18	12231.66
640.373	12086.26
640.567	12033.01
640.76	11914.23
640.954	11809.78
641.147	11754.49
641.34	11555.83
641.534	11613.18
641.727	11613.18
641.92	11383.8
642.114	11308.03
642.307	11422.72
642.5	11080.71
642.694	11191.3
642.887	11240.45
643.08	11201.54
643.273	11019.27
643.467	10857.48
643.66	10923.01
643.853	10855.43
644.046	10691.59
644.239	10654.73
644.432	10544.14
644.626	10413.07
644.819	10425.36
645.012	10419.21
645.205	10343.44
645.398	10372.11
645.591	10216.46
645.784	10054.67
645.977	10101.78
646.17	9890.84
646.363	9985.04
646.556	9907.22
646.749	9929.75
646.942	9972.75
647.135	9538.59
647.328	9612.31
647.521	9626.65
647.714	9274.4
647.907	9630.74
648.099	9413.66
648.292	9319.45
648.485	9284.64
648.678	9249.82
648.871	9088.03
649.064	9098.27
649.256	9194.53
649.449	8807.46
649.642	9053.22
649.835	8946.72
650.027	8803.36
650.22	8768.55
650.413	8668.2
650.605	8729.64
650.798	8678.44
650.991	8625.19
651.183	8414.25
651.376	8455.21
651.568	8377.39
651.761	8512.55
651.954	8473.64
652.146	8397.87
652.339	8363.05
652.531	8258.6
652.724	8166.45
652.916	7898.16
653.109	8113.2
653.301	8178.73
653.494	8105.01
653.686	7980.08
653.879	8057.9
654.071	7865.39
654.263	7803.96
654.456	7879.73
654.648	7857.2
654.84	7828.53
655.033	7840.82
655.225	7740.47
655.417	7636.02
655.61	7681.08
655.802	7451.7
655.994	7486.52
656.186	7414.84
656.379	7423.03
656.571	7334.97
656.763	7263.29
656.955	7277.63
657.148	7234.62
657.34	7328.83
657.532	7228.48
657.724	7150.65
657.916	7105.6
658.108	7154.75
658.3	7050.3
658.492	7146.56
658.684	6863.94
658.876	6892.61
659.068	6931.52
659.26	6796.35
659.452	6685.76
659.644	6833.22
659.836	6788.16
660.028	6712.39
660.22	6556.74
660.412	6767.68
660.604	6466.63
660.796	6288.46
660.988	6495.3
661.18	6417.48
661.372	6530.12
661.563	6362.19
661.755	6292.55
661.947	6181.96
662.139	6169.68
662.331	6255.69
662.522	6153.29
662.714	6034.51
662.906	5964.88
663.097	5917.78
663.289	5993.55
663.481	5938.26
663.673	5921.87
663.864	5950.54
664.056	5997.65
664.247	5837.91
664.439	5772.37
664.631	5809.23
664.822	5794.9
665.014	5821.52
665.205	5696.6
665.397	5727.32
665.588	5592.15
665.78	5497.94
665.971	5565.53
666.163	5581.91
666.354	5446.74
666.546	5592.15
666.737	5309.53
666.929	5440.6
667.12	5358.68
667.311	5330.01
667.503	5317.72
667.694	5432.41
667.885	5350.49
668.077	5454.94
668.268	5151.84
668.459	5319.77
668.651	5143.64
668.842	5203.04
669.033	5186.65
669.224	5112.92
669.416	5262.43
669.607	5192.8
669.798	5082.21
669.989	5190.75
670.18	5219.42
670.371	4920.42
670.563	4942.94
670.754	4934.75
670.945	4977.76
671.136	5010.53
671.327	4867.17
671.518	4846.69
671.709	4885.6
671.9	4826.21
672.091	4832.35
672.282	4834.4
672.473	4762.72
672.664	4924.51
672.855	4715.62
673.046	4836.45
673.237	4949.09
673.428	4738.15
673.619	4680.8
673.809	4670.56
674	4777.06
674.191	4738.15
674.382	4648.04
674.573	4785.25
674.764	4662.37
674.954	4689
675.145	4519.01
675.336	4615.27
675.527	4703.33
675.717	4547.69
675.908	4408.42
676.099	4600.93
676.289	4672.61
676.48	4592.74
676.671	4705.38
676.861	4510.82
677.052	4529.25
677.243	4576.36
677.433	4514.92
677.624	4609.12
677.814	4449.38
678.005	4455.53
678.195	4498.53
678.386	4592.74
678.576	4449.38
678.767	4531.3
678.957	4435.05
679.148	4441.19
679.338	4607.08
679.529	4572.26
679.719	4459.62
679.909	4467.81
680.1	4367.46
680.29	4508.77
680.481	4469.86
680.671	4396.14
680.861	4392.04
681.052	4361.32
681.242	4541.54
681.432	4461.67
681.622	4422.76
681.813	4363.37
682.003	4394.09
682.193	4248.68
682.383	4334.7
682.573	4359.27
682.764	4361.32
682.954	4363.37
683.144	4351.08
683.334	4314.22
683.524	4346.98
683.714	4385.9
683.904	4185.19
684.094	4371.56
684.284	4336.74
684.474	4465.77
684.664	4174.95
684.854	4410.47
685.044	4394.09
685.234	4152.43
685.424	4498.53
685.614	4428.9
685.804	4275.31
685.994	4226.15
686.184	4303.98
686.374	4256.87
686.564	4342.89
686.753	4303.98
686.943	4230.25
687.133	4189.29
687.323	4168.81
687.513	4248.68
687.702	4303.98
687.892	4154.48
688.082	4277.35
688.272	4285.55
688.461	4088.94
688.651	4166.76
688.841	4117.61
689.03	4199.53
689.22	4303.98
689.41	4131.95
689.599	4179.05
689.789	4211.82
689.979	4121.71
690.168	4158.57
690.358	4058.22
690.547	3957.87
690.737	4146.28
690.926	4154.48
691.116	4004.97
691.305	4086.89
691.495	3927.15
691.684	4035.69
691.874	4082.8
692.063	4136.04
692.252	4031.6
692.442	4060.27
692.631	4031.6
692.82	4103.28
693.01	3933.29
693.199	4068.46
693.388	3968.11
693.578	3904.62
693.767	3865.71
693.956	4031.6
694.146	3916.91
694.335	3875.95
694.524	3935.34
694.713	3875.95
694.902	3912.81
695.092	3900.53
695.281	3916.91
695.47	3820.66
695.659	3802.22
695.848	3755.12
696.037	3921.01
696.226	3769.46
696.415	3861.62
696.604	3929.2
696.793	3830.9
696.982	3875.95
697.171	3921.01
697.36	3867.76
697.549	3814.51
697.738	3728.5
697.927	3894.38
698.116	3785.84
698.305	3851.38
698.494	3863.66
698.683	3818.61
698.872	3843.18
699.061	3662.96
699.25	3773.55
699.438	3732.59
699.627	3691.63
699.816	3665.01
700.005	3820.66
700.193	3662.96
700.382	3585.14
700.571	3763.31
700.76	3630.2
700.948	3622
701.137	3777.65
701.326	3746.93
701.514	3552.37
701.703	3622
701.892	3558.52
702.08	3693.68
702.269	3828.85
702.457	3605.62
702.646	3646.58
702.834	3531.89
703.023	3531.89
703.212	3499.13
703.4	3695.73
703.589	3433.59
703.777	3478.65
703.965	3288.18
704.154	3511.41
704.342	3564.66
704.531	3404.92
704.719	3533.94
704.907	3564.66
705.096	3441.78
705.284	3417.21
705.472	3435.64
705.661	3509.37
705.849	3497.08
706.037	3443.83
706.226	3429.49
706.414	3290.23
706.602	3351.67
706.79	3359.86
706.979	3357.82
707.167	3357.82
707.355	3312.76
707.543	3376.25
707.731	3361.91
707.919	3349.62
708.107	3230.84
708.296	3384.44
708.484	3355.77
708.672	3300.47
708.86	3378.3
709.048	3345.53
709.236	3259.51
709.424	3189.88
709.612	3216.51
709.8	3171.45
709.988	3159.16
710.176	3198.07
710.364	3089.53
710.551	3284.09
710.739	3163.26
710.927	3245.18
711.115	3126.39
711.303	3146.87
711.491	3175.55
711.679	3202.17
711.866	3167.35
712.054	3257.46
712.242	2999.42
712.43	3163.26
712.617	3130.49
712.805	3075.2
712.993	3114.11
713.181	2921.6
713.368	3138.68
713.556	3015.8
713.744	3036.28
713.931	3257.46
714.119	3015.8
714.306	2983.04
714.494	3038.33
714.682	2950.27
714.869	2821.25
715.057	2974.85
715.244	2868.35
715.432	2999.42
715.619	2942.08
715.807	3040.38
715.994	3001.47
716.182	3024
716.369	2999.42
716.556	2905.21
716.744	2835.58
716.931	2745.47
717.119	2927.74
717.306	2901.12
717.493	2819.2
717.681	2876.54
717.868	2827.39
718.055	2884.73
718.242	2972.8
718.43	2737.28
718.617	2892.93
718.804	2786.43
718.991	2696.32
719.179	2784.38
719.366	2804.86
719.553	2657.41
719.74	2786.43
719.927	2782.34
720.114	2806.91
720.301	2729.09
720.488	2749.57
720.676	2702.47
720.863	2583.68
721.05	2815.1
721.237	2659.46
721.424	2696.32
721.611	2706.56
721.798	2598.02
721.985	2733.18
722.172	2569.35
722.358	2581.64
722.545	2636.93
722.732	2581.64
722.919	2600.07
723.106	2567.3
723.293	2550.92
723.48	2600.07
723.667	2567.3
723.853	2589.83
724.04	2462.85
724.227	2565.25
724.414	2532.48
724.6	2516.1
724.787	2622.59
724.974	2581.64
725.161	2528.39
725.347	2421.89
725.534	2520.2
725.72	2542.72
725.907	2421.89
726.094	2452.61
726.28	2487.43
726.467	2460.81
726.653	2411.65
726.84	2604.16
727.027	2428.04
727.213	2425.99
727.4	2329.74
727.586	2327.69
727.773	2491.52
727.959	2309.26
728.145	2516.1
728.332	2401.41
728.518	2448.52
728.705	2471.04
728.891	2280.58
729.077	2311.3
729.264	2315.4
729.45	2282.63
729.636	2423.94
729.823	2385.03
730.009	2419.85
730.195	2466.95
730.382	2368.65
730.568	2299.02
730.754	2323.59
730.94	2268.3
731.126	2294.92
731.313	2428.04
731.499	2305.16
731.685	2360.45
731.871	2290.82
732.057	2280.58
732.243	2077.83
732.429	2188.43
732.615	2323.59
732.801	2077.83
732.987	2313.35
733.173	2227.34
733.359	2192.52
733.545	2245.77
733.731	2163.85
733.917	2239.62
734.103	2192.52
734.289	2272.39
734.475	2294.92
734.661	2151.56
734.847	2190.47
735.033	2286.73
735.219	2120.84
735.404	2108.55
735.59	2245.77
735.776	2024.59
735.962	2020.49
736.148	2241.67
736.333	2133.13
736.519	2186.38
736.705	2086.03
736.89	2106.51
737.076	2100.36
737.262	2036.88
737.447	2069.64
737.633	2106.51
737.819	2098.31
738.004	2022.54
738.19	2000.01
738.375	1991.82
738.561	2112.65
738.747	1926.29
738.932	2026.64
739.118	2083.98
739.303	2038.92
739.489	1950.86
739.674	1975.44
739.859	2016.4
740.045	1963.15
740.23	1928.33
740.416	1991.82
740.601	1938.57
740.786	2004.11
740.972	1870.99
741.157	1860.75
741.342	1897.61
741.528	1946.76
741.713	1897.61
741.898	1901.71
742.084	1852.56
742.269	1793.17
742.454	1842.32
742.639	1875.09
742.824	1905.81
743.01	1920.14
743.195	1940.62
743.38	1811.6
743.565	1944.72
743.75	1696.91
743.935	1868.94
744.12	1787.02
744.305	1799.31
744.49	1815.69
744.675	1780.88
744.86	1725.58
745.045	1836.17
745.23	1819.79
745.415	1836.17
745.6	1735.82
745.785	1791.12
745.97	1811.6
746.155	1733.78
746.34	1688.72
746.525	1696.91
746.71	1752.21
746.895	1664.15
747.079	1619.09
747.264	1639.57
747.449	1610.9
747.634	1576.08
747.819	1655.95
748.003	1541.27
748.188	1539.22
748.373	1662.1
748.557	1578.13
748.742	1590.42
748.927	1565.84
749.111	1557.65
749.296	1539.22
749.481	1584.27
749.665	1463.44
749.85	1565.84
750.034	1504.4
750.219	1563.79
750.404	1518.74
750.588	1346.71
750.773	1330.33
750.957	1434.77
751.141	1461.4
751.326	1410.2
751.51	1336.47
751.695	1402.01
751.879	1393.81
752.064	1463.44
752.248	1289.37
752.432	1365.14
752.617	1303.7
752.801	1311.89
752.985	1303.7
753.17	1336.47
753.354	1266.84
753.538	1402.01
753.722	1287.32
753.907	1295.51
754.091	1289.37
754.275	1250.46
754.459	1268.89
754.643	1258.65
754.828	1250.46
755.012	1254.55
755.196	1205.4
755.38	1186.97
755.564	1189.02
755.748	1238.17
755.932	1262.74
756.116	1207.45
756.3	1174.68
756.484	1156.25
756.668	1180.82
756.852	1209.5
757.036	1166.49
757.22	1059.99
757.404	1156.25
757.588	1074.33
757.772	1119.39
757.956	1150.11
758.14	1113.24
758.323	1019.04
758.507	1076.38
758.691	1084.57
758.875	1166.49
759.059	918.68
759.242	943.26
759.426	1027.23
759.61	1225.88
759.794	1033.37
759.977	1090.71
760.161	1062.04
760.345	1047.71
760.528	1076.38
760.712	1016.99
760.895	959.64
761.079	963.74
761.263	951.45
761.446	959.64
761.63	918.68
761.813	926.88
761.997	896.16
762.18	898.2
762.364	898.2
762.547	908.44
762.731	951.45
762.914	820.38
763.098	1008.8
763.281	912.54
763.464	877.73
763.648	1000.6
763.831	849.05
764.015	935.07
764.198	930.97
764.381	859.29
764.564	867.49
764.748	890.01
764.931	885.92
765.114	898.2
765.297	935.07
765.481	810.14
765.664	838.81
765.847	804
766.03	908.44
766.213	787.61
766.397	902.3
766.58	779.42
766.763	834.72
766.946	851.1
767.129	855.2
767.312	822.43
767.495	779.42
767.678	754.85
767.861	840.86
768.044	816.29
768.227	924.83
768.41	824.48
768.593	836.77
768.776	797.85
768.959	863.39
769.142	756.9
769.324	842.91
769.507	871.58
769.69	732.32
769.873	738.46
770.056	773.28
770.239	818.33
770.421	859.29
770.604	715.94
770.787	812.19
770.97	746.66
771.152	754.85
771.335	826.53
771.518	621.73
771.7	806.05
771.883	771.23
772.066	697.5
772.248	750.75
772.431	806.05
772.613	779.42
772.796	648.35
772.978	795.81
773.161	699.55
773.343	736.42
773.526	648.35
773.708	681.12
773.891	728.22
774.073	552.1
774.256	631.97
774.438	674.98
774.621	543.91
774.803	650.4
774.985	713.89
775.168	664.74
775.35	693.41
775.532	672.93
775.715	685.22
775.897	603.3
776.079	697.5
776.261	660.64
776.444	586.91
776.626	648.35
776.808	640.16
776.99	566.43
777.173	599.2
777.355	593.06
777.537	607.39
777.719	543.91
777.901	611.49
778.083	529.57
778.265	560.29
778.447	664.74
778.629	566.43
778.811	543.91
778.993	642.21
779.175	595.11
779.357	484.52
779.539	511.14
779.721	617.63
779.903	640.16
780.085	611.49
780.267	582.82
780.449	586.91
780.631	531.62
780.812	539.81
780.994	527.52
781.176	494.76
781.358	451.75
781.54	525.47
781.721	533.67
781.903	517.28
782.085	484.52
782.267	459.94
782.448	418.98
782.63	427.17
782.812	478.37
782.993	459.94
783.175	484.52
783.357	445.6
783.538	447.65
783.72	478.37
783.901	466.08
784.083	519.33
784.264	502.95
784.446	418.98
784.627	357.54
784.809	455.84
784.99	425.12
785.172	414.88
785.353	382.12
785.535	412.84
785.716	410.79
785.897	355.49
786.079	455.84
786.26	429.22
786.441	369.83
786.623	437.41
786.804	369.83
786.985	394.4
787.167	396.45
787.348	431.27
787.529	365.73
787.71	476.32
787.891	345.25
788.073	353.45
788.254	328.87
788.435	441.51
788.616	388.26
788.797	373.92
788.978	386.21
789.159	267.43
789.34	386.21
789.522	406.69
789.703	335.01
789.884	304.29
790.065	337.06
790.246	369.83
790.427	373.92
790.607	375.97
790.788	382.12
790.969	359.59
791.15	351.4
791.331	306.34
791.512	332.97
791.693	242.85
791.874	320.68
792.054	390.31
792.235	361.64
792.416	224.42
792.597	300.2
792.778	328.87
792.958	287.91
793.139	341.16
793.32	339.11
793.5	332.97
793.681	224.42
793.862	283.81
794.042	253.09
794.223	267.43
794.404	232.62
794.584	226.47
794.765	285.86
794.945	285.86
795.126	304.29
795.306	279.72
795.487	304.29
795.667	306.34
795.848	320.68
796.028	238.76
796.209	304.29
796.389	308.39
796.57	210.09
796.75	222.38
796.93	279.72
797.111	183.46
797.291	337.06
797.471	273.57
797.652	210.09
797.832	203.94
798.012	255.14
798.192	261.29
798.373	160.94
798.553	275.62
798.733	249
798.913	230.57
799.093	208.04
799.274	267.43
799.454	304.29
799.634	242.85
799.814	271.53
799.994	298.15
800.174	156.84
800.354	201.9
800.534	140.46
800.714	208.04
800.894	183.46
801.074	152.74
801.254	197.8
801.434	224.42
801.614	230.57
801.794	255.14
801.974	877.73
802.154	238.76
802.334	169.13
802.514	257.19
802.693	117.93
802.873	189.61
803.053	287.91
803.233	214.18
803.413	218.28
803.592	234.66
803.772	271.53
803.952	197.8
804.131	173.22
804.311	224.42
804.491	132.26
804.67	187.56
804.85	242.85
805.03	222.38
805.209	222.38
805.389	222.38
805.568	173.22
805.748	165.03
805.928	208.04
806.107	238.76
806.287	208.04
806.466	195.75
806.646	107.69
806.825	142.5
807.004	181.42
807.184	189.61
807.363	224.42
807.543	212.14
807.722	197.8
807.901	199.85
808.081	238.76
808.26	126.12
808.439	119.98
808.619	199.85
808.798	115.88
808.977	171.18
809.156	226.47
809.336	152.74
809.515	193.7
809.694	95.4
809.873	195.75
810.052	222.38
810.231	124.07
810.411	189.61
810.59	222.38
810.769	189.61
810.948	165.03
811.127	113.83
811.306	128.17
811.485	189.61
811.664	175.27
811.843	50.35
812.022	111.78
812.201	167.08
812.38	148.65
812.559	87.21
812.737	169.13
812.916	-33.62
813.095	79.02
813.274	171.18
813.453	148.65
813.632	109.74
813.811	191.66
813.989	91.31
814.168	140.46
814.347	134.31
814.526	44.2
814.704	255.14
814.883	191.66
815.062	95.4
815.24	140.46
815.419	148.65
815.598	148.65
815.776	85.16
815.955	95.4
816.133	54.44
816.312	99.5
816.49	72.87
816.669	189.61
816.847	115.88
817.026	201.9
817.204	140.46
817.383	191.66
817.561	91.31
817.74	91.31
817.918	152.74
818.097	128.17
818.275	109.74
818.453	124.07
818.632	171.18
818.81	117.93
818.988	42.15
819.167	167.08
819.345	70.83
819.523	52.39
819.701	93.35
819.879	91.31
820.058	140.46
820.236	117.93
820.414	124.07
820.592	93.35
820.77	50.35
820.948	113.83
821.127	150.7
821.305	111.78
821.483	93.35
821.661	156.84
821.839	156.84
822.017	62.63
822.195	33.96
822.373	152.74
822.551	83.11
822.729	103.59
822.907	132.26
823.085	124.07
823.262	11.43
823.44	76.97
823.618	50.35
823.796	140.46
823.974	91.31
824.152	85.16
824.329	60.59
824.507	138.41
824.685	136.36
824.863	169.13
825.04	85.16
825.218	99.5
825.396	111.78
825.574	81.07
825.751	17.58
825.929	132.26
826.107	74.92
826.284	87.21
826.462	201.9
826.639	103.59
826.817	50.35
826.994	124.07
827.172	3.24
827.349	117.93
827.527	148.65
827.704	19.63
827.882	70.83
828.059	128.17
828.237	66.73
828.414	126.12
828.591	13.48
828.769	140.46
828.946	126.12
829.124	140.46
829.301	156.84
829.478	107.69
829.655	107.69
829.833	66.73
830.01	29.87
830.187	29.87
830.364	83.11
830.542	101.55
830.719	169.13
830.896	79.02
831.073	56.49
831.25	27.82
831.427	101.55
831.604	103.59
831.782	44.2
831.959	25.77
832.136	95.4
832.313	62.63
832.49	105.64
832.667	95.4
832.844	-23.38
833.021	58.54
833.198	107.69
833.374	83.11
833.551	97.45
833.728	58.54
833.905	33.96
834.082	21.67
834.259	132.26
834.436	109.74
834.612	58.54
834.789	95.4
834.966	144.55
835.143	25.77
835.319	27.82
835.496	99.5
835.673	107.69
835.85	126.12
836.026	103.59
836.203	66.73
836.38	13.48
836.556	91.31
836.733	117.93
836.909	99.5
837.086	25.77
837.262	54.44
837.439	117.93
837.616	74.92
837.792	93.35
837.968	83.11
838.145	52.39
838.321	29.87
838.498	70.83
838.674	66.73
838.851	1.19
839.027	33.96
839.203	9.39
839.38	173.22
839.556	144.55
839.732	38.06
839.909	15.53
840.085	124.07
840.261	-4.95
840.437	21.67
840.614	25.77
840.79	111.78
840.966	42.15
841.142	115.88
841.318	50.35
841.494	93.35
841.671	19.63
841.847	103.59
842.023	25.77
842.199	54.44
842.375	56.49
842.551	36.01
842.727	38.06
842.903	124.07
843.079	38.06
843.255	140.46
843.431	17.58
843.607	9.39
843.783	-17.24
843.959	50.35
844.134	-39.76
844.31	85.16
844.486	-23.38
844.662	74.92
844.838	79.02
845.013	74.92
845.189	23.72
845.365	5.29
845.541	17.58
845.716	-7
845.892	21.67
846.068	79.02
846.244	44.2
846.419	50.35
846.595	33.96
846.77	56.49
846.946	107.69
847.122	13.48
847.297	-17.24
847.473	140.46
847.648	27.82
847.824	-7
847.999	-47.96
848.175	-11.09
848.35	50.35
848.526	97.45
848.701	74.92
848.876	52.39
849.052	50.35
849.227	50.35
849.403	83.11
849.578	27.82
849.753	-0.85
849.929	-29.52
850.104	-4.95
850.279	17.58
850.454	-0.85
850.63	113.83
850.805	42.15
850.98	76.97
851.155	44.2
851.33	140.46
851.505	33.96
851.681	93.35
851.856	-15.19
852.031	5.29
852.206	17.58
852.381	3.24
852.556	36.01
852.731	25.77
852.906	19.63
853.081	36.01
853.256	50.35
853.431	58.54
853.606	42.15
853.781	50.35
853.956	17.58
854.131	91.31
854.305	140.46
854.48	-7
854.655	11.43
854.83	42.15
855.005	33.96
855.18	66.73
855.354	1.19
855.529	42.15
855.704	74.92
855.879	38.06
856.053	21.67
856.228	132.26
856.403	58.54
856.577	27.82
856.752	1.19
856.926	3.24
857.101	-15.19
857.276	-19.29
857.45	101.55
857.625	58.54
857.799	52.39
857.974	87.21
858.148	-7
858.323	115.88
858.497	25.77
858.672	-2.9
858.846	11.43
859.02	11.43
859.195	17.58
859.369	-37.72
859.543	62.63
859.718	1.19
859.892	64.68
860.066	1.19
860.241	9.39
860.415	-43.86
860.589	-31.57
860.763	38.06
860.938	-13.14
861.112	66.73
861.286	132.26
861.46	36.01
861.634	9.39
861.808	44.2
861.982	64.68
862.157	5.29
862.331	-39.76
862.505	17.58
862.679	25.77
862.853	11.43
863.027	46.25
863.201	74.92
863.375	17.58
863.549	-21.33
863.722	42.15
863.896	58.54
864.07	31.91
864.244	33.96
864.418	46.25
864.592	9.39
864.766	68.78
864.939	31.91
865.113	36.01
865.287	97.45
865.461	-7
865.634	33.96
865.808	117.93
865.982	-17.24
866.156	-31.57
866.329	-52.05
866.503	62.63
866.676	58.54
866.85	-11.09
867.024	36.01
867.197	56.49
867.371	64.68
867.544	7.34
867.718	1.19
867.891	64.68
868.065	9.39
868.238	17.58
868.412	17.58
868.585	107.69
868.759	68.78
868.932	-43.86
869.105	76.97
869.279	29.87
869.452	52.39
869.625	99.5
869.799	-7
869.972	-47.96
870.145	-47.96
870.319	54.44
870.492	50.35
870.665	1.19
870.838	-62.29
871.011	5.29
871.185	58.54
871.358	-11.09
871.531	1.19
871.704	33.96
871.877	42.15
872.05	85.16
872.223	70.83
872.396	-23.38
872.569	50.35
872.742	19.63
872.915	38.06
873.088	60.59
873.261	1.19
873.434	5.29
873.607	29.87
873.78	56.49
873.953	-47.96
874.126	52.39
874.299	60.59
874.471	-13.14
874.644	72.87
874.817	-50
874.99	105.64
875.163	79.02
875.335	50.35
875.508	23.72
875.681	58.54
875.853	52.39
876.026	3.24
876.199	3.24
876.371	42.15
876.544	-11.09
876.717	40.11
876.889	-29.52
877.062	9.39
877.234	-13.14
877.407	19.63
877.579	36.01
877.752	25.77
877.924	68.78
878.097	38.06
878.269	-93.01
878.442	19.63
878.614	-31.57
878.786	-23.38
878.959	-37.72
879.131	9.39
879.303	3.24
879.476	25.77
879.648	91.31
879.82	29.87
879.993	-23.38
880.165	62.63
880.337	-7
880.509	50.35
880.681	-2.9
880.854	1.19
881.026	-27.48
881.198	124.07
881.37	23.72
881.542	-0.85
881.714	-15.19
881.886	1.19
882.058	42.15
882.23	-31.57
882.402	-7
882.574	-27.48
882.746	17.58
882.918	38.06
883.09	25.77
883.262	25.77
883.434	11.43
883.606	-45.91
883.778	-47.96
883.95	115.88
884.122	-54.1
884.293	66.73
884.465	74.92
884.637	87.21
884.809	13.48
884.98	58.54
885.152	13.48
885.324	38.06
885.496	7.34
885.667	-45.91
885.839	25.77
886.011	103.59
886.182	3.24
886.354	-2.9
886.525	-54.1
886.697	11.43
886.869	-7
887.04	-21.33
887.212	44.2
887.383	68.78
887.555	-4.95
887.726	-21.33
887.897	19.63
888.069	-7
888.24	3.24
888.412	-2.9
888.583	1.19
888.754	42.15
888.926	-72.53
889.097	-9.05
889.268	-58.2
889.44	-4.95
889.611	13.48
889.782	33.96
889.953	-11.09
890.125	48.3
890.296	46.25
890.467	25.77
890.638	-31.57
890.809	27.82
890.98	-13.14
891.151	111.78
891.323	19.63
891.494	-21.33
891.665	-7
891.836	62.63
892.007	13.48
892.178	-2.9
892.349	107.69
892.52	1.19
892.691	9.39
892.862	29.87
893.032	-88.92
893.203	9.39
893.374	38.06
893.545	66.73
893.716	-56.15
893.887	9.39
894.057	-27.48
894.228	-13.14
894.399	9.39
894.57	33.96
894.74	17.58
894.911	52.39
895.082	-43.86
895.253	42.15
895.423	15.53
895.594	48.3
895.764	60.59
895.935	-23.38
896.106	17.58
896.276	33.96
896.447	25.77
896.617	42.15
896.788	-78.68
896.958	-4.95
897.129	-37.72
897.299	-88.92
897.47	23.72
897.64	13.48
897.81	74.92
897.981	-21.33
898.151	-19.29
898.322	42.15
898.492	44.2
898.662	1.19
898.832	-31.57
899.003	-4.95
899.173	7.34
899.343	-27.48
899.513	21.67
