Data from USB4F104151__219__14-33-50-216.txt Node

Date: Thu Mar 13 14:33:50 EDT 2025
User: louis
Spectrometer: USB4F10415
Trigger mode: 4
Integration Time (sec): 2.500000E-2
Scans to average: 1
Electric dark correction enabled: true
Nonlinearity correction enabled: false
Boxcar width: 0
XAxis mode: Wavelengths
Number of Pixels in Spectrum: 3648
>>>>>Begin Spectral Data<<<<<
178.204	-167.25
178.424	-167.25
178.644	-167.25
178.864	-138.58
179.084	-97.62
179.304	4.78
179.524	12.97
179.744	-44.37
179.964	74.41
180.184	-25.94
180.404	55.98
180.624	-48.47
180.844	-44.37
181.064	-15.7
181.283	-3.41
181.503	25.26
181.723	8.87
181.943	-9.56
182.163	94.89
182.383	12.97
182.602	86.7
182.822	43.69
183.042	33.45
183.262	-105.81
183.482	68.27
183.701	37.55
183.921	-15.7
184.141	-9.56
184.361	33.45
184.58	86.7
184.8	31.4
185.02	-52.56
185.239	78.51
185.459	98.99
185.679	86.7
185.898	15.02
186.118	43.69
186.338	-36.18
186.557	31.4
186.777	17.07
186.997	70.31
187.216	-27.99
187.436	25.26
187.655	49.83
187.875	119.46
188.095	53.93
188.314	103.08
188.534	68.27
188.753	31.4
188.973	76.46
189.192	62.12
189.412	6.83
189.631	23.21
189.851	88.75
190.07	127.66
190.29	-7.51
190.509	0.68
190.729	31.4
190.948	119.46
191.168	203.43
191.387	53.93
191.607	12.97
191.826	31.4
192.045	45.74
192.265	-44.37
192.484	-13.65
192.704	21.16
192.923	-68.95
193.142	119.46
193.362	29.35
193.581	96.94
193.8	-3.41
194.02	41.64
194.239	23.21
194.458	68.27
194.678	12.97
194.897	47.79
195.116	103.08
195.335	45.74
195.555	53.93
195.774	6.83
195.993	94.89
196.212	23.21
196.432	-34.13
196.651	12.97
196.87	47.79
197.089	80.55
197.308	49.83
197.528	53.93
197.747	-34.13
197.966	-21.84
198.185	62.12
198.404	29.35
198.623	113.32
198.842	84.65
199.062	2.73
199.281	4.78
199.5	86.7
199.719	86.7
199.938	58.03
200.157	113.32
200.376	53.93
200.595	47.79
200.814	45.74
201.033	80.55
201.252	62.12
201.471	72.36
201.69	82.6
201.909	88.75
202.128	-3.41
202.347	78.51
202.566	-36.18
202.785	-13.65
203.004	-27.99
203.223	76.46
203.442	64.17
203.661	37.55
203.879	74.41
204.098	49.83
204.317	78.51
204.536	64.17
204.755	4.78
204.974	105.13
205.193	58.03
205.411	103.08
205.63	21.16
205.849	10.92
206.068	17.07
206.287	12.97
206.505	0.68
206.724	45.74
206.943	31.4
207.162	64.17
207.381	-34.13
207.599	-36.18
207.818	49.83
208.037	10.92
208.255	-1.37
208.474	64.17
208.693	60.07
208.911	39.59
209.13	101.03
209.349	21.16
209.567	105.13
209.786	88.75
210.005	-44.37
210.223	117.42
210.442	-44.37
210.661	125.61
210.879	15.02
211.098	-34.13
211.316	21.16
211.535	90.79
211.753	33.45
211.972	55.98
212.191	43.69
212.409	49.83
212.628	66.22
212.846	-44.37
213.065	27.31
213.283	62.12
213.502	-23.89
213.72	12.97
213.938	21.16
214.157	47.79
214.375	53.93
214.594	6.83
214.812	19.11
215.031	62.12
215.249	31.4
215.467	-32.08
215.686	-77.14
215.904	64.17
216.122	86.7
216.341	68.27
216.559	58.03
216.778	94.89
216.996	25.26
217.214	21.16
217.432	78.51
217.651	88.75
217.869	53.93
218.087	70.31
218.306	4.78
218.524	70.31
218.742	2.73
218.96	23.21
219.179	0.68
219.397	60.07
219.615	29.35
219.833	6.83
220.051	29.35
220.27	41.64
220.488	39.59
220.706	-17.75
220.924	33.45
221.142	62.12
221.36	51.88
221.578	37.55
221.796	29.35
222.015	23.21
222.233	21.16
222.451	53.93
222.669	6.83
222.887	86.7
223.105	-7.51
223.323	25.26
223.541	-23.89
223.759	62.12
223.977	0.68
224.195	146.09
224.413	35.5
224.631	64.17
224.849	17.07
225.067	74.41
225.285	-15.7
225.503	58.03
225.721	-19.8
225.939	111.27
226.157	47.79
226.375	176.81
226.592	29.35
226.81	23.21
227.028	53.93
227.246	107.18
227.464	58.03
227.682	92.84
227.9	23.21
228.117	86.7
228.335	6.83
228.553	37.55
228.771	-42.32
228.989	29.35
229.206	53.93
229.424	119.46
229.642	-19.8
229.86	29.35
230.077	25.26
230.295	53.93
230.513	62.12
230.731	15.02
230.948	115.37
231.166	135.85
231.384	45.74
231.601	60.07
231.819	115.37
232.037	-64.85
232.254	-11.61
232.472	21.16
232.689	-25.94
232.907	43.69
233.125	45.74
233.342	72.36
233.56	-3.41
233.777	37.55
233.995	-27.99
234.213	68.27
234.43	37.55
234.648	-13.65
234.865	-19.8
235.083	62.12
235.3	-11.61
235.518	29.35
235.735	119.46
235.953	72.36
236.17	37.55
236.388	94.89
236.605	80.55
236.822	86.7
237.04	-11.61
237.257	25.26
237.475	86.7
237.692	0.68
237.909	45.74
238.127	33.45
238.344	96.94
238.562	60.07
238.779	-11.61
238.996	-17.75
239.214	17.07
239.431	139.94
239.648	58.03
239.865	43.69
240.083	60.07
240.3	8.87
240.517	70.31
240.735	-1.37
240.952	88.75
241.169	19.11
241.386	2.73
241.603	-21.84
241.821	70.31
242.038	86.7
242.255	115.37
242.472	29.35
242.689	64.17
242.907	41.64
243.124	15.02
243.341	55.98
243.558	141.99
243.775	23.21
243.992	25.26
244.209	51.88
244.426	115.37
244.643	82.6
244.86	0.68
245.078	53.93
245.295	-23.89
245.512	70.31
245.729	47.79
245.946	80.55
246.163	135.85
246.38	17.07
246.597	53.93
246.814	96.94
247.031	47.79
247.248	94.89
247.464	-17.75
247.681	96.94
247.898	4.78
248.115	53.93
248.332	51.88
248.549	64.17
248.766	53.93
248.983	127.66
249.2	39.59
249.417	45.74
249.633	29.35
249.85	37.55
250.067	31.4
250.284	41.64
250.501	78.51
250.717	113.32
250.934	4.78
251.151	51.88
251.368	80.55
251.585	33.45
251.801	29.35
252.018	15.02
252.235	80.55
252.451	43.69
252.668	37.55
252.885	39.59
253.102	33.45
253.318	66.22
253.535	31.4
253.752	4.78
253.968	6.83
254.185	12.97
254.401	-21.84
254.618	60.07
254.835	-3.41
255.051	74.41
255.268	4.78
255.484	-19.8
255.701	-54.61
255.917	51.88
256.134	-44.37
256.351	51.88
256.567	27.31
256.784	62.12
257	29.35
257.217	78.51
257.433	53.93
257.65	29.35
257.866	53.93
258.082	-9.56
258.299	25.26
258.515	53.93
258.732	12.97
258.948	-9.56
259.165	29.35
259.381	29.35
259.597	88.75
259.814	-11.61
260.03	29.35
260.246	37.55
260.463	74.41
260.679	133.8
260.895	70.31
261.112	8.87
261.328	62.12
261.544	-17.75
261.761	29.35
261.977	33.45
262.193	10.92
262.409	6.83
262.626	70.31
262.842	64.17
263.058	23.21
263.274	45.74
263.49	53.93
263.707	37.55
263.923	62.12
264.139	58.03
264.355	45.74
264.571	90.79
264.787	25.26
265.004	146.09
265.22	80.55
265.436	-3.41
265.652	23.21
265.868	0.68
266.084	41.64
266.3	4.78
266.516	31.4
266.732	47.79
266.948	4.78
267.164	64.17
267.38	80.55
267.596	37.55
267.812	139.94
268.028	129.7
268.244	43.69
268.46	12.97
268.676	37.55
268.892	115.37
269.108	45.74
269.324	74.41
269.54	35.5
269.756	8.87
269.972	-3.41
270.188	78.51
270.403	-1.37
270.619	74.41
270.835	33.45
271.051	-60.76
271.267	62.12
271.483	37.55
271.698	21.16
271.914	41.64
272.13	31.4
272.346	49.83
272.562	94.89
272.777	21.16
272.993	-11.61
273.209	70.31
273.425	31.4
273.64	47.79
273.856	53.93
274.072	19.11
274.287	25.26
274.503	72.36
274.719	41.64
274.934	78.51
275.15	-60.76
275.366	47.79
275.581	-40.28
275.797	82.6
276.012	96.94
276.228	39.59
276.444	41.64
276.659	55.98
276.875	60.07
277.09	31.4
277.306	23.21
277.521	127.66
277.737	53.93
277.952	29.35
278.168	12.97
278.383	55.98
278.599	45.74
278.814	123.56
279.03	70.31
279.245	72.36
279.461	29.35
279.676	58.03
279.892	4.78
280.107	-3.41
280.322	-15.7
280.538	72.36
280.753	4.78
280.969	72.36
281.184	80.55
281.399	90.79
281.615	64.17
281.83	90.79
282.045	25.26
282.26	4.78
282.476	-3.41
282.691	96.94
282.906	-11.61
283.122	58.03
283.337	72.36
283.552	187.05
283.767	-25.94
283.983	64.17
284.198	-27.99
284.413	-15.7
284.628	53.93
284.843	70.31
285.058	25.26
285.274	21.16
285.489	45.74
285.704	41.64
285.919	12.97
286.134	74.41
286.349	17.07
286.564	12.97
286.779	64.17
286.995	47.79
287.21	66.22
287.425	53.93
287.64	-44.37
287.855	60.07
288.07	-46.42
288.285	49.83
288.5	94.89
288.715	88.75
288.93	37.55
289.145	49.83
289.36	107.18
289.575	33.45
289.79	41.64
290.004	23.21
290.219	12.97
290.434	0.68
290.649	10.92
290.864	86.7
291.079	45.74
291.294	-27.99
291.509	45.74
291.724	45.74
291.938	88.75
292.153	123.56
292.368	74.41
292.583	86.7
292.798	33.45
293.012	49.83
293.227	-21.84
293.442	37.55
293.657	58.03
293.871	62.12
294.086	53.93
294.301	103.08
294.516	-19.8
294.73	51.88
294.945	8.87
295.16	103.08
295.374	47.79
295.589	137.9
295.804	21.16
296.018	6.83
296.233	51.88
296.447	113.32
296.662	82.6
296.877	94.89
297.091	66.22
297.306	53.93
297.52	27.31
297.735	64.17
297.949	113.32
298.164	6.83
298.378	37.55
298.593	94.89
298.807	37.55
299.022	4.78
299.236	37.55
299.451	-19.8
299.665	8.87
299.88	53.93
300.094	-15.7
300.309	62.12
300.523	10.92
300.737	21.16
300.952	150.18
301.166	78.51
301.381	21.16
301.595	10.92
301.809	33.45
302.024	53.93
302.238	-17.75
302.452	103.08
302.667	45.74
302.881	107.18
303.095	33.45
303.309	96.94
303.524	82.6
303.738	62.12
303.952	12.97
304.166	94.89
304.381	-56.66
304.595	31.4
304.809	127.66
305.023	47.79
305.237	33.45
305.452	0.68
305.666	62.12
305.88	29.35
306.094	105.13
306.308	27.31
306.522	41.64
306.736	80.55
306.95	72.36
307.164	-44.37
307.379	53.93
307.593	86.7
307.807	111.27
308.021	-1.37
308.235	53.93
308.449	55.98
308.663	8.87
308.877	111.27
309.091	31.4
309.305	51.88
309.519	-19.8
309.733	-5.46
309.947	2.73
310.161	25.26
310.374	74.41
310.588	62.12
310.802	41.64
311.016	45.74
311.23	49.83
311.444	78.51
311.658	39.59
311.872	70.31
312.085	70.31
312.299	117.42
312.513	33.45
312.727	47.79
312.941	-19.8
313.154	66.22
313.368	31.4
313.582	21.16
313.796	17.07
314.009	47.79
314.223	115.37
314.437	70.31
314.651	109.23
314.864	37.55
315.078	103.08
315.292	58.03
315.505	-1.37
315.719	64.17
315.933	12.97
316.146	25.26
316.36	-17.75
316.573	64.17
316.787	31.4
317.001	121.51
317.214	82.6
317.428	53.93
317.641	64.17
317.855	37.55
318.068	53.93
318.282	31.4
318.495	53.93
318.709	113.32
318.922	-11.61
319.136	86.7
319.349	123.56
319.563	96.94
319.776	82.6
319.99	45.74
320.203	58.03
320.417	66.22
320.63	37.55
320.843	31.4
321.057	45.74
321.27	12.97
321.483	64.17
321.697	41.64
321.91	12.97
322.124	51.88
322.337	74.41
322.55	78.51
322.763	72.36
322.977	74.41
323.19	29.35
323.403	-11.61
323.617	74.41
323.83	129.7
324.043	29.35
324.256	72.36
324.469	12.97
324.683	103.08
324.896	29.35
325.109	66.22
325.322	8.87
325.535	76.46
325.748	74.41
325.962	119.46
326.175	29.35
326.388	-7.51
326.601	33.45
326.814	66.22
327.027	74.41
327.24	119.46
327.453	23.21
327.666	90.79
327.879	88.75
328.092	86.7
328.305	8.87
328.518	4.78
328.731	21.16
328.944	-42.32
329.157	74.41
329.37	66.22
329.583	47.79
329.796	96.94
330.009	-32.08
330.222	78.51
330.435	90.79
330.648	96.94
330.861	41.64
331.073	45.74
331.286	105.13
331.499	103.08
331.712	55.98
331.925	82.6
332.138	53.93
332.35	168.62
332.563	47.79
332.776	23.21
332.989	53.93
333.202	74.41
333.414	64.17
333.627	23.21
333.84	66.22
334.053	58.03
334.265	119.46
334.478	33.45
334.691	80.55
334.903	111.27
335.116	-36.18
335.329	78.51
335.541	37.55
335.754	133.8
335.966	12.97
336.179	119.46
336.392	35.5
336.604	72.36
336.817	78.51
337.029	62.12
337.242	88.75
337.454	121.51
337.667	86.7
337.88	162.47
338.092	39.59
338.305	98.99
338.517	78.51
338.729	45.74
338.942	70.31
339.154	17.07
339.367	-58.71
339.579	164.52
339.792	33.45
340.004	31.4
340.217	27.31
340.429	33.45
340.641	21.16
340.854	80.55
341.066	-9.56
341.278	109.23
341.491	96.94
341.703	47.79
341.915	10.92
342.128	41.64
342.34	66.22
342.552	-11.61
342.764	25.26
342.977	37.55
343.189	21.16
343.401	90.79
343.613	-56.66
343.826	62.12
344.038	-1.37
344.25	0.68
344.462	-9.56
344.674	74.41
344.886	66.22
345.099	-27.99
345.311	96.94
345.523	6.83
345.735	45.74
345.947	37.55
346.159	92.84
346.371	45.74
346.583	0.68
346.795	94.89
347.007	74.41
347.219	80.55
347.431	86.7
347.643	96.94
347.855	86.7
348.067	86.7
348.279	72.36
348.491	62.12
348.703	45.74
348.915	-17.75
349.127	101.03
349.339	86.7
349.551	-17.75
349.763	19.11
349.975	70.31
350.187	96.94
350.399	105.13
350.61	78.51
350.822	78.51
351.034	64.17
351.246	12.97
351.458	78.51
351.669	90.79
351.881	51.88
352.093	39.59
352.305	131.75
352.517	80.55
352.728	121.51
352.94	-9.56
353.152	90.79
353.363	23.21
353.575	58.03
353.787	96.94
353.999	31.4
354.21	8.87
354.422	-23.89
354.633	90.79
354.845	74.41
355.057	29.35
355.268	35.5
355.48	60.07
355.692	121.51
355.903	33.45
356.115	62.12
356.326	21.16
356.538	53.93
356.749	78.51
356.961	86.7
357.172	31.4
357.384	25.26
357.595	129.7
357.807	39.59
358.018	23.21
358.23	49.83
358.441	119.46
358.653	62.12
358.864	117.42
359.075	37.55
359.287	78.51
359.498	64.17
359.709	45.74
359.921	78.51
360.132	98.99
360.344	101.03
360.555	115.37
360.766	117.42
360.977	21.16
361.189	41.64
361.4	37.55
361.611	66.22
361.823	94.89
362.034	31.4
362.245	12.97
362.456	21.16
362.667	109.23
362.879	66.22
363.09	8.87
363.301	115.37
363.512	74.41
363.723	98.99
363.935	47.79
364.146	115.37
364.357	-52.56
364.568	78.51
364.779	25.26
364.99	86.7
365.201	146.09
365.412	111.27
365.623	-27.99
365.834	101.03
366.045	31.4
366.256	70.31
366.467	98.99
366.678	127.66
366.889	10.92
367.1	47.79
367.311	109.23
367.522	23.21
367.733	64.17
367.944	82.6
368.155	45.74
368.366	82.6
368.577	170.66
368.788	78.51
368.999	141.99
369.209	39.59
369.42	139.94
369.631	164.52
369.842	55.98
370.053	58.03
370.264	58.03
370.474	86.7
370.685	92.84
370.896	-3.41
371.107	103.08
371.317	29.35
371.528	29.35
371.739	88.75
371.95	88.75
372.16	135.85
372.371	62.12
372.582	82.6
372.792	66.22
373.003	133.8
373.214	10.92
373.424	94.89
373.635	-17.75
373.846	96.94
374.056	23.21
374.267	55.98
374.477	39.59
374.688	29.35
374.898	-15.7
375.109	78.51
375.319	82.6
375.53	113.32
375.74	176.81
375.951	187.05
376.161	121.51
376.372	60.07
376.582	135.85
376.793	47.79
377.003	103.08
377.214	33.45
377.424	49.83
377.635	98.99
377.845	88.75
378.055	45.74
378.266	8.87
378.476	113.32
378.686	78.51
378.897	109.23
379.107	144.04
379.317	141.99
379.528	78.51
379.738	103.08
379.948	76.46
380.158	103.08
380.369	84.65
380.579	37.55
380.789	111.27
380.999	119.46
381.21	25.26
381.42	123.56
381.63	45.74
381.84	80.55
382.05	139.94
382.261	86.7
382.471	137.9
382.681	53.93
382.891	111.27
383.101	105.13
383.311	10.92
383.521	-15.7
383.731	90.79
383.941	111.27
384.151	103.08
384.361	72.36
384.571	121.51
384.781	111.27
384.991	182.95
385.201	180.9
385.411	-7.51
385.621	135.85
385.831	115.37
386.041	107.18
386.251	96.94
386.461	135.85
386.671	78.51
386.881	109.23
387.091	29.35
387.301	74.41
387.511	98.99
387.72	131.75
387.93	94.89
388.14	70.31
388.35	74.41
388.56	21.16
388.769	103.08
388.979	37.55
389.189	105.13
389.399	144.04
389.609	156.33
389.818	139.94
390.028	88.75
390.238	80.55
390.447	72.36
390.657	47.79
390.867	150.18
391.076	72.36
391.286	45.74
391.496	107.18
391.705	51.88
391.915	213.67
392.125	172.71
392.334	111.27
392.544	209.58
392.753	158.38
392.963	90.79
393.172	94.89
393.382	76.46
393.591	189.1
393.801	129.7
394.01	160.42
394.22	127.66
394.429	137.9
394.639	70.31
394.848	86.7
395.058	129.7
395.267	123.56
395.477	82.6
395.686	144.04
395.895	211.62
396.105	178.86
396.314	160.42
396.524	74.41
396.733	129.7
396.942	156.33
397.152	219.82
397.361	168.62
397.57	62.12
397.78	135.85
397.989	144.04
398.198	148.14
398.407	121.51
398.617	185
398.826	182.95
399.035	150.18
399.244	113.32
399.453	111.27
399.663	144.04
399.872	160.42
400.081	121.51
400.29	154.28
400.499	55.98
400.708	187.05
400.917	203.43
401.127	168.62
401.336	156.33
401.545	160.42
401.754	172.71
401.963	127.66
402.172	115.37
402.381	55.98
402.59	207.53
402.799	135.85
403.008	203.43
403.217	225.96
403.426	201.38
403.635	135.85
403.844	113.32
404.053	314.02
404.262	172.71
404.471	242.34
404.68	246.44
404.888	234.15
405.097	221.86
405.306	219.82
405.515	305.83
405.724	250.53
405.933	268.97
406.142	303.78
406.35	324.26
406.559	328.36
406.768	250.53
406.977	365.22
407.185	316.07
407.394	340.65
407.603	230.06
407.812	406.18
408.02	357.03
408.229	324.26
408.438	271.01
408.646	402.08
408.855	414.37
409.064	430.76
409.272	463.52
409.481	397.99
409.69	447.14
409.898	447.14
410.107	416.42
410.315	496.29
410.524	481.96
410.733	481.96
410.941	565.92
411.15	649.89
411.358	533.15
411.567	662.18
411.775	539.3
411.984	522.91
412.192	668.32
412.401	631.46
412.609	610.98
412.818	711.33
413.026	727.71
413.234	799.39
413.443	842.4
413.651	819.87
413.86	887.45
414.068	918.17
414.276	926.36
414.485	1000.09
414.693	1051.29
414.901	998.04
415.11	1122.97
415.318	1024.67
415.526	1163.93
415.734	1192.6
415.943	1110.68
416.151	1282.71
416.359	1233.56
416.567	1350.29
416.776	1397.4
416.984	1495.7
417.192	1481.36
417.4	1522.32
417.608	1561.23
417.817	1637.01
418.025	1616.53
418.233	1817.23
418.441	1731.22
418.649	1833.61
418.857	1944.21
419.065	2085.51
419.273	2022.03
419.481	2097.8
419.689	2300.55
419.897	2333.32
420.105	2409.09
420.313	2376.33
420.521	2497.16
420.729	2546.31
420.937	2564.74
421.145	2675.33
421.353	2980.48
421.561	3080.83
421.769	2982.53
421.977	3179.13
422.185	3103.36
422.393	3469.94
422.601	3601.01
422.809	3715.7
423.017	3521.14
423.224	3707.51
423.432	3897.97
423.64	3797.62
423.848	4299.37
424.056	4002.41
424.263	4584.04
424.471	4352.62
424.679	4469.35
424.887	4719.2
425.094	4946.53
425.302	4956.77
425.51	5124.7
425.718	5257.82
425.925	5446.23
426.133	5491.29
426.341	5962.32
426.548	6013.52
426.756	6195.79
426.964	5988.94
427.171	6523.46
427.379	6732.36
427.586	6738.5
427.794	6984.26
428.001	7385.66
428.209	7606.84
428.417	7479.86
428.624	7987.76
428.832	7961.14
429.039	7977.52
429.247	7961.14
429.454	8790.56
429.662	9228.83
429.869	8735.27
430.076	9077.28
430.284	9087.52
430.491	9486.87
430.699	9953.81
430.906	9910.8
431.114	10267.15
431.321	10451.47
431.528	10660.36
431.736	11287.04
431.943	11885.05
432.15	11645.43
432.358	11450.88
432.565	12466.67
432.772	12186.1
432.979	12693.99
433.187	12997.09
433.394	13089.25
433.601	14064.08
433.808	13982.17
434.016	14096.85
434.223	14680.52
434.43	15514.05
434.637	15339.97
434.844	16271.79
435.052	16511.41
435.259	16466.35
435.466	16685.48
435.673	16347.57
435.88	17281.44
436.087	18272.66
436.294	17824.15
436.501	17977.75
436.708	18241.94
436.915	18745.74
437.122	19509.63
437.329	19749.25
437.537	20386.16
437.743	20617.58
437.95	20179.32
438.157	21707.1
438.364	22092.12
438.571	22171.99
438.778	22522.19
438.985	24232.25
439.192	23492.93
439.399	24430.9
439.606	23560.52
439.813	24891.69
440.02	26208.54
440.227	25792.8
440.433	25702.69
440.64	26538.26
440.847	26347.8
441.054	26724.63
441.261	28823.79
441.467	28117.25
441.674	29124.85
441.881	29921.51
442.088	30075.1
442.294	30056.67
442.501	30095.58
442.708	30871.76
442.914	32358.59
443.121	33515.69
443.328	32217.28
443.534	34664.6
443.741	34125.99
443.948	33380.53
444.154	35766.41
444.361	35510.41
444.568	35790.98
444.774	35827.85
444.981	36018.31
445.187	37300.34
445.394	39139.41
445.6	38410.34
445.807	41951.27
446.013	40093.77
446.22	40833.08
446.426	42516.51
446.633	42874.91
446.839	44038.15
447.046	42326.05
447.252	44716.03
447.459	44908.54
447.665	44150.79
447.871	46352.36
448.078	48367.56
448.284	46299.11
448.491	47210.46
448.697	49072.06
448.903	49799.09
449.11	49887.15
449.316	49383.35
449.522	50612.13
449.728	51371.93
449.935	51423.13
450.141	51937.17
450.347	52268.94
450.553	50554.79
450.76	51914.64
450.966	52828.04
451.172	52934.53
451.378	54124.4
451.584	52598.66
451.791	54284.14
451.997	53919.6
452.203	54802.28
452.409	54871.91
452.615	53946.23
452.821	52795.27
453.027	52602.76
453.233	54925.16
453.44	52320.14
453.646	53077.89
453.852	53063.55
454.058	53985.14
454.264	52576.14
454.47	53544.83
454.676	52682.63
454.882	53974.9
455.088	49715.12
455.294	50186.16
455.5	50882.47
455.705	50728.87
455.911	48998.33
456.117	48508.87
456.323	48367.56
456.529	45664.24
456.735	47646.68
456.941	46016.49
457.147	45416.44
457.352	43595.79
457.558	43503.63
457.764	43816.97
457.97	42647.58
458.176	41713.71
458.381	42082.34
458.587	39368.79
458.793	40030.28
458.999	37472.37
459.204	40536.13
459.41	39530.58
459.616	37021.81
459.821	37183.6
460.027	36706.43
460.233	35936.39
460.438	34330.78
460.644	34834.58
460.85	32620.73
461.055	32641.21
461.261	32393.4
461.466	30038.24
461.672	29251.82
461.878	31170.77
462.083	29053.17
462.289	28616.95
462.494	28457.21
462.7	26902.8
462.905	26243.35
463.111	27218.19
463.316	27539.72
463.522	26755.35
463.727	26949.9
463.932	26947.86
464.138	26276.12
464.343	26642.71
464.549	25798.94
464.754	26644.76
464.959	26587.41
465.165	26396.95
465.37	24881.45
465.575	24641.84
465.781	25549.09
465.986	25624.87
466.191	24676.66
466.397	24213.82
466.602	22974.8
466.807	23861.57
467.012	24082.75
467.218	23527.75
467.423	23259.46
467.628	23609.67
467.833	24842.54
468.038	23597.38
468.244	23064.91
468.449	23814.46
468.654	23083.34
468.859	22976.84
469.064	22860.11
469.269	21707.1
469.474	22417.75
469.679	22479.19
469.885	21971.29
470.09	22169.94
470.295	22018.39
470.5	21442.92
470.705	21645.66
470.91	21315.94
471.115	20877.68
471.32	21231.97
471.525	21459.3
471.73	20867.44
471.935	20900.2
472.139	20001.15
472.344	20130.17
472.549	19720.57
472.754	19669.37
472.959	19370.37
473.164	18950.54
473.369	18758.03
473.574	19661.18
473.778	18854.28
473.983	18758.03
474.188	18885
474.393	18157.97
474.598	18106.77
474.802	17947.03
475.007	17666.46
475.212	17826.2
475.417	17318.31
475.621	17322.4
475.826	17314.21
476.031	16961.96
476.235	16638.38
476.44	16892.33
476.645	16593.33
476.849	16513.45
477.054	16304.56
477.259	16148.92
477.463	16093.62
477.668	15823.29
477.872	15870.39
478.077	15780.28
478.282	15208.9
478.486	15069.64
478.691	15020.49
478.895	15135.17
479.1	14954.95
479.304	14993.86
479.509	14574.03
479.713	14643.66
479.918	14504.4
480.122	14451.15
480.326	14606.8
480.531	14363.09
480.735	14445.01
480.94	14166.48
481.144	14604.75
481.348	14111.19
481.553	14205.39
481.757	13713.88
481.961	13914.58
482.166	14395.85
482.37	13869.53
482.574	13787.61
482.778	13842.9
482.983	13955.54
483.187	13849.05
483.391	13941.21
483.595	13828.57
483.8	13558.24
484.004	14031.32
484.208	14031.32
484.412	13877.72
484.616	14057.94
484.821	14059.99
485.025	13644.25
485.229	14082.52
485.433	13810.14
485.637	13703.64
485.841	13875.67
486.045	13662.68
486.249	13865.43
486.453	13668.83
486.657	13863.38
486.861	13822.42
487.065	13523.42
487.269	13779.42
487.473	13629.91
487.677	13832.66
487.881	14090.71
488.085	13801.94
488.289	13900.25
488.493	13722.07
488.697	13963.73
488.901	14039.51
489.105	13957.59
489.309	13861.34
489.512	14074.32
489.716	14053.84
489.92	13984.21
490.124	13894.1
490.328	14275.02
490.531	14047.7
490.735	14029.27
490.939	13945.3
491.143	14203.35
491.346	13873.62
491.55	14277.07
491.754	14293.46
491.958	14297.55
492.161	14268.88
492.365	14422.48
492.569	14266.83
492.772	14363.09
492.976	14737.87
493.18	14592.46
493.383	14795.21
493.587	15151.56
493.79	14977.48
493.994	14692.81
494.197	15110.6
494.401	15284.67
494.605	15217.09
494.808	15231.43
495.012	15190.47
495.215	15509.95
495.419	15675.84
495.622	15495.61
495.825	15638.97
496.029	15804.86
496.232	16169.4
496.436	16126.39
496.639	16648.62
496.843	16185.78
497.046	16619.95
497.249	16673.2
497.453	16984.49
497.656	16951.72
497.859	17144.23
498.063	17404.32
498.266	17754.52
498.469	17437.09
498.673	17621.41
498.876	17895.83
499.079	18448.79
499.282	18125.21
499.485	18493.84
499.689	18504.08
499.892	19020.17
500.095	18971.02
500.298	19566.98
500.501	19120.52
500.705	19640.7
500.908	19841.4
501.111	20099.45
501.314	20210.04
501.517	20451.7
501.72	20584.82
501.923	20568.43
502.126	21227.88
502.329	21463.4
502.532	21637.47
502.735	21629.28
502.938	22137.18
503.141	21967.2
503.344	22622.55
503.547	22679.89
503.75	22714.7
503.953	23103.82
504.156	23296.33
504.359	23466.31
504.562	23329.09
504.765	24402.23
504.968	24353.08
505.17	24674.61
505.373	24324.41
505.576	25196.84
505.779	25362.73
505.982	25530.66
506.185	25874.72
506.387	25831.71
506.59	26196.25
506.793	26988.81
506.996	26630.42
507.198	27422.98
507.401	26837.27
507.604	27445.51
507.807	27992.32
508.009	27822.34
508.212	28250.36
508.415	28846.32
508.617	29010.16
508.82	29100.27
509.022	28897.52
509.225	30054.62
509.428	29991.14
509.63	30290.14
509.833	30312.67
510.035	31105.23
510.238	30707.93
510.44	31254.73
510.643	31879.36
510.845	31819.97
511.048	31987.91
511.25	32782.52
511.453	32467.13
511.655	33763.5
511.858	33421.48
512.06	33765.54
512.262	34089.12
512.465	34050.21
512.667	34517.15
512.87	34793.62
513.072	34998.42
513.274	35629.19
513.477	35764.36
513.679	35862.66
513.881	36194.43
514.084	36388.99
514.286	36636.8
514.488	37167.22
514.69	37886.06
514.893	37927.02
515.095	38056.04
515.297	38338.66
515.499	38631.52
515.701	39037.01
515.904	39329.87
516.106	39692.36
516.308	39977.03
516.51	40214.6
516.712	40218.69
516.914	40351.81
517.116	41054.26
517.318	41381.94
517.52	41682.99
517.722	41662.51
517.925	42580
518.127	42723.36
518.329	42723.36
518.531	42756.13
518.733	43624.46
518.935	43454.48
519.136	43606.03
519.338	44320.77
519.54	44107.79
519.742	44578.82
519.944	44656.64
520.146	45531.12
520.348	45295.61
520.55	45318.14
520.752	45961.2
520.954	46622.69
521.155	46405.61
521.357	47321.05
521.559	47259.61
521.761	47777.75
521.963	47691.73
522.164	47744.98
522.366	47749.07
522.568	48121.8
522.77	48297.93
522.971	49039.29
523.173	48496.58
523.375	49096.64
523.576	49119.17
523.778	49113.02
523.98	49856.43
524.181	50067.37
524.383	49784.75
524.584	50182.06
524.786	50200.49
524.988	50241.45
525.189	50925.47
525.391	50857.89
525.592	51222.43
525.794	50827.17
525.995	51212.19
526.197	51134.37
526.398	50986.91
526.6	51427.23
526.801	51390.36
527.003	51619.74
527.204	51656.6
527.406	52109.2
527.607	51791.76
527.808	52090.77
528.01	51619.74
528.211	51738.52
528.412	52948.87
528.614	52502.41
528.815	52287.37
529.016	52455.31
529.218	52178.83
529.419	52619.14
529.62	52692.87
529.822	52590.47
530.023	52717.45
530.224	52514.7
530.425	52141.97
530.626	51890.07
530.828	52373.39
531.029	52971.39
531.23	52287.37
531.431	52651.91
531.632	52651.91
531.833	52561.8
532.035	52365.2
532.236	52584.33
532.437	52848.52
532.638	52408.2
532.839	52772.74
533.04	52965.25
533.241	52172.69
533.442	52909.96
533.643	52674.44
533.844	52068.24
534.045	52512.65
534.246	51584.92
534.447	52860.8
534.648	52438.92
534.849	52637.58
535.05	52084.62
535.251	52584.33
535.451	51658.65
535.652	52375.44
535.853	52281.23
536.054	52109.2
536.255	52389.77
536.456	51904.4
536.657	52789.13
536.857	52049.81
537.058	51638.17
537.259	52039.57
537.46	51769.24
537.66	52119.44
537.861	51711.89
538.062	52098.96
538.263	51949.46
538.463	51576.73
538.664	51933.07
538.865	51828.63
539.065	51959.7
539.266	51642.26
539.466	51814.29
539.667	51249.05
539.868	52529.03
540.068	51713.94
540.269	51724.18
540.469	51988.37
540.67	51554.2
540.87	51386.27
541.071	51345.31
541.271	51685.27
541.472	51677.08
541.672	51742.61
541.873	50825.12
542.073	50833.31
542.274	51996.56
542.474	51042.21
542.675	51046.3
542.875	51550.1
543.075	51371.93
543.276	50630.57
543.476	51888.02
543.676	50743.2
543.877	51261.34
544.077	51480.47
544.277	51023.78
544.478	50849.7
544.678	51204
544.878	51468.19
545.078	51095.46
545.279	50857.89
545.479	50857.89
545.679	50921.38
545.879	50898.85
546.079	50825.12
546.28	50921.38
546.48	50753.44
546.68	51234.72
546.88	51392.41
547.08	50831.27
547.28	50683.81
547.48	50593.7
547.68	51333.02
547.88	50440.1
548.081	50945.95
548.281	50816.93
548.481	50468.78
548.681	51419.03
548.881	50708.39
549.081	50775.97
549.28	50556.84
549.48	50806.69
549.68	50683.81
549.88	51543.96
550.08	50683.81
550.28	50988.96
550.48	50948
550.68	51146.65
550.88	50589.61
551.08	50415.53
551.279	51384.22
551.479	50405.29
551.679	51048.35
551.879	50864.03
552.079	51490.71
552.278	50464.68
552.478	51070.88
552.678	50902.95
552.878	51019.68
553.077	50878.37
553.277	50927.52
553.477	51038.11
553.676	50859.94
553.876	50874.27
554.076	50718.63
554.275	50915.23
554.475	50364.33
554.674	51107.74
554.874	50825.12
555.074	50896.8
555.273	50712.48
555.473	51621.78
555.672	50755.49
555.872	50954.15
556.071	50950.05
556.271	51308.44
556.47	50700.2
556.67	50603.94
556.869	50923.43
557.068	51068.83
557.268	50700.2
557.467	50612.13
557.667	51066.78
557.866	50904.99
558.065	51134.37
558.265	50585.51
558.464	50929.57
558.663	51062.69
558.863	50538.41
559.062	51599.26
559.261	50358.19
559.461	51005.34
559.66	50284.46
559.859	50241.45
560.058	49987.5
560.258	50642.85
560.457	50079.66
560.656	50843.55
560.855	50726.82
561.054	50513.83
561.253	50089.9
561.453	50446.25
561.652	50636.71
561.851	50890.66
562.05	50286.51
562.249	50366.38
562.448	50636.71
562.647	50337.71
562.846	50304.94
563.045	50218.92
563.244	50241.45
563.443	50538.41
563.642	49719.22
563.841	50495.4
564.04	49862.58
564.239	50677.67
564.438	50087.85
564.637	50198.44
564.836	50284.46
565.035	49979.31
565.234	49919.92
565.432	49479.61
565.631	49913.78
565.83	50255.79
566.029	49612.73
566.228	49536.95
566.427	49495.99
566.625	49326.01
566.824	49121.21
567.023	49416.12
567.222	48762.82
567.42	49678.26
567.619	49389.5
567.818	48799.68
568.016	49342.39
568.215	49326.01
568.414	48961.47
568.612	49498.04
568.811	49115.07
569.01	48887.74
569.208	48336.84
569.407	48965.57
569.605	48220.11
569.804	48709.57
570.002	48611.27
570.201	48279.5
570.4	48338.89
570.598	47884.24
570.797	48046.03
570.995	47919.06
571.193	47855.57
571.392	48113.61
571.59	47605.72
571.789	47849.42
571.987	47861.71
572.186	47413.21
572.384	47622.1
572.582	47685.59
572.781	47523.8
572.979	46546.92
573.177	47323.1
573.376	47742.93
573.574	47300.57
573.772	46923.74
573.971	47048.67
574.169	46594.02
574.367	46338.02
574.565	46688.23
574.763	46569.44
574.962	46327.78
575.16	45819.89
575.358	46399.46
575.556	45656.05
575.754	46225.39
575.952	45914.09
576.151	46340.07
576.349	45553.65
576.547	45826.03
576.745	45520.88
576.943	45123.58
577.141	45373.43
577.339	45805.55
577.537	45277.18
577.735	45164.54
577.933	44818.43
578.131	44507.14
578.329	44922.88
578.527	44697.6
578.725	44976.12
578.923	44482.56
579.121	44419.08
579.319	44380.17
579.516	44945.4
579.714	43808.78
579.912	43976.72
580.11	44169.22
580.308	43943.95
580.506	44187.66
580.704	43587.6
580.901	43614.23
581.099	43661.33
581.297	43384.85
581.495	43112.47
581.692	43466.77
581.89	43225.11
582.088	43681.81
582.285	42631.2
582.483	43243.54
582.681	42573.86
582.878	42919.96
583.076	42199.08
583.274	42743.84
583.471	41971.75
583.669	42338.34
583.866	41713.71
584.064	42573.86
584.262	42022.95
584.459	42237.99
584.657	41809.96
584.854	42557.47
585.052	41297.97
585.249	41914.41
585.447	41441.33
585.644	41162.81
585.841	41760.81
586.039	41748.53
586.236	41183.29
586.434	41123.9
586.631	41029.69
586.828	41304.12
587.026	40699.97
587.223	40765.5
587.42	40820.8
587.618	41001.02
587.815	40439.87
588.012	40505.41
588.21	40044.62
588.407	40722.49
588.604	40058.95
588.801	39893.07
588.999	39952.46
589.196	40171.59
589.393	39776.33
589.59	39800.91
589.787	39745.61
589.984	39622.73
590.182	39266.39
590.379	39551.06
590.576	38957.14
590.773	38932.57
590.97	39059.54
591.167	39338.07
591.364	38817.88
591.561	39166.04
591.758	38731.87
591.955	38793.31
592.152	39120.98
592.349	38500.45
592.546	38434.91
592.743	38264.93
592.94	37830.76
593.137	38281.31
593.334	38242.4
593.531	37677.16
593.727	37660.78
593.924	38426.72
594.121	37513.33
594.318	37845.1
594.515	37417.07
594.712	38002.79
594.908	37773.42
595.105	37800.04
595.302	37296.24
595.499	37740.65
595.696	37306.48
595.892	36905.08
596.089	37156.98
596.286	37015.67
596.482	37208.18
596.679	37132.4
596.876	36950.13
597.072	37023.86
597.269	36632.7
597.466	36421.76
597.662	36606.08
597.859	36538.49
598.055	36620.41
598.252	36565.12
598.448	36417.66
598.645	36409.47
598.841	36153.47
599.038	36364.42
599.234	35727.5
599.431	36063.36
599.627	36059.27
599.824	36210.82
600.02	35993.73
600.217	35809.42
600.413	35905.67
600.609	35604.62
600.806	35561.61
601.002	35737.74
601.198	35704.97
601.395	35610.76
601.591	35555.47
601.787	35563.66
601.984	35117.2
602.18	35737.74
602.376	35373.2
602.572	35313.81
602.769	35358.86
602.965	34775.19
603.161	35405.97
603.357	35051.67
603.553	35096.72
603.75	35319.95
603.946	35092.63
604.142	35135.63
604.338	34812.06
604.534	35276.94
604.73	35080.34
604.926	34910.36
605.122	34977.94
605.318	34752.66
605.514	34805.91
605.71	34416.8
605.906	34793.62
606.102	34621.59
606.298	34785.43
606.494	34627.74
606.69	34603.16
606.886	34855.06
607.082	34488.48
607.278	34758.81
607.474	34373.79
607.67	34793.62
607.866	34566.3
608.062	34900.12
608.257	34549.92
608.453	34199.71
608.649	34668.7
608.845	34539.68
609.041	34498.72
609.236	34824.34
609.432	34844.82
609.628	34551.96
609.824	34150.56
610.019	34031.78
610.215	34334.88
610.411	34558.11
610.606	34044.07
610.802	34666.65
610.998	34660.51
611.193	34341.02
611.389	33982.63
611.584	34146.47
611.78	34347.17
611.976	34443.42
612.171	34431.13
612.367	34166.95
612.562	34451.61
612.758	33745.06
612.953	34146.47
613.149	34226.34
613.344	34138.27
613.539	34482.33
613.735	33796.26
613.93	34197.66
614.126	34080.93
614.321	34396.32
614.517	34123.94
614.712	34142.37
614.907	33540.27
615.103	34197.66
615.298	34093.22
615.493	34103.46
615.688	33857.7
615.884	34760.86
616.079	33583.27
616.274	34001.06
616.47	33978.53
616.665	33923.24
616.86	33749.16
617.055	33906.85
617.25	33632.43
617.445	33874.09
617.641	33261.74
617.836	33808.55
618.031	33544.36
618.226	33704.1
618.421	33362.09
618.616	33648.81
618.811	32909.49
619.006	33290.41
619.201	32784.57
619.396	33200.3
619.591	32379.07
619.786	33067.19
619.981	32805.05
620.176	32880.82
620.371	32354.49
620.566	32262.33
620.761	31860.93
620.956	32272.57
621.151	31881.41
621.346	32133.31
621.541	31705.29
621.735	32082.11
621.93	31348.94
622.125	31600.84
622.32	31367.37
622.515	31426.76
622.709	31039.7
622.904	31144.14
623.099	30722.26
623.294	30820.56
623.488	30460.12
623.683	30351.58
623.878	30187.74
624.072	30259.42
624.267	29974.75
624.462	29362.41
624.656	29444.33
624.851	29675.75
625.046	29409.51
625.24	29198.57
625.435	29260.01
625.629	29061.36
625.824	28870.9
626.018	28723.44
626.213	28162.3
626.407	28557.56
626.602	28084.48
626.796	28424.44
626.991	28367.1
627.185	28213.5
627.38	27531.53
627.574	27564.29
627.768	27418.89
627.963	27308.3
628.157	27060.49
628.352	27027.73
628.546	26616.08
628.74	27054.35
628.935	26718.48
629.129	26632.47
629.323	26382.62
629.517	26591.51
629.712	26372.38
629.906	26265.88
630.1	25807.14
630.294	25952.54
630.489	25661.73
630.683	25798.94
630.877	25002.29
631.071	25243.95
631.265	25338.15
631.459	25010.48
631.653	25073.96
631.848	24686.9
632.042	24713.52
632.236	24609.08
632.43	24512.82
632.624	24320.31
632.818	24557.88
633.012	24219.96
633.206	23920.96
633.4	24021.31
633.594	23777.6
633.788	23527.75
633.982	23742.78
634.176	23769.41
634.369	23138.63
634.563	23261.51
634.757	22622.55
634.951	23040.33
635.145	22968.65
635.339	22948.17
635.533	22503.76
635.726	22585.68
635.92	22083.93
636.114	22151.51
636.308	22098.27
636.501	21936.48
636.695	22057.31
636.889	21721.44
637.083	21664.1
637.276	21573.99
637.47	21383.52
637.664	21457.25
637.857	21490.02
638.051	21205.35
638.244	21004.65
638.438	21008.75
638.632	20760.94
638.825	20652.4
639.019	20343.16
639.212	20398.45
639.406	20418.93
639.599	20343.16
639.793	20025.72
639.986	19716.48
640.18	20031.87
640.373	19575.17
640.567	19640.7
640.76	19767.68
640.954	19413.38
641.147	19417.47
641.34	19349.89
641.534	19104.14
641.727	18956.68
641.92	19102.09
642.114	18921.87
642.307	18870.67
642.5	18459.03
642.694	18616.72
642.887	18389.39
643.08	18514.32
643.273	18250.13
643.467	18379.15
643.66	17953.18
643.853	18067.86
644.046	17838.49
644.239	18155.93
644.432	17775
644.626	17637.79
644.819	17242.53
645.012	17451.42
645.205	17432.99
645.398	17230.24
645.591	17050.02
645.784	17035.69
645.977	16787.88
646.17	16824.75
646.363	16669.1
646.556	16609.71
646.749	16644.52
646.942	16771.5
647.135	16284.08
647.328	16361.9
647.521	16325.04
647.714	16081.33
647.907	15966.65
648.099	15716.79
648.292	16103.86
648.485	15604.16
648.678	15542.72
648.871	15536.57
649.064	15514.05
649.256	15645.12
649.449	15464.89
649.642	15186.37
649.835	15190.47
650.027	15186.37
650.22	15143.36
650.413	14905.8
650.605	14825.93
650.798	14801.35
650.991	14537.16
651.183	14811.59
651.376	14420.43
651.568	14502.35
651.761	14068.18
651.954	14299.6
652.146	14219.73
652.339	14459.34
652.531	14129.62
652.724	14006.74
652.916	13836.76
653.109	13803.99
653.301	13935.06
653.494	13679.07
653.686	13437.41
653.879	13734.36
654.071	13345.25
654.263	13416.93
654.456	13238.75
654.648	13482.46
654.84	13132.26
655.033	13021.67
655.225	13062.63
655.417	13193.7
655.61	13107.68
655.802	12857.83
655.994	12607.98
656.186	12968.42
656.379	12704.23
656.571	12704.23
656.763	12583.4
656.955	12278.26
657.148	12532.2
657.34	12317.17
657.532	12104.18
657.724	12040.69
657.916	12210.67
658.108	12165.62
658.3	12364.27
658.492	12069.36
658.684	11956.72
658.876	11770.36
659.068	11930.1
659.26	11839.99
659.452	11739.64
659.644	11559.42
659.836	11385.34
660.028	11465.21
660.22	11323.9
660.412	11336.19
660.604	11135.49
660.796	11397.63
660.988	11110.91
661.18	11014.66
661.372	11018.75
661.563	11039.23
661.755	10863.11
661.947	10803.72
662.139	10646.02
662.331	10596.87
662.522	10764.81
662.714	10742.28
662.906	10596.87
663.097	10404.36
663.289	10408.46
663.481	10365.45
663.673	10261.01
663.864	10381.84
664.056	10078.74
664.247	10150.42
664.439	10058.26
664.631	10058.26
664.822	9896.47
665.014	9974.29
665.205	9919
665.397	9779.73
665.588	9808.41
665.78	9597.46
665.971	9613.85
666.163	9626.14
666.354	9480.73
666.546	9632.28
666.737	9484.83
666.929	9392.67
667.12	9345.56
667.311	9587.22
667.503	9357.85
667.694	9288.22
667.885	9179.68
668.077	9226.78
668.268	8944.16
668.459	9228.83
668.651	9087.52
668.842	9019.94
669.033	8800.8
669.224	8682.02
669.416	8991.27
669.607	8827.43
669.798	8665.64
669.989	8761.89
670.18	8557.1
670.371	8729.13
670.563	8559.14
670.754	8432.17
670.945	8327.72
671.136	8616.49
671.327	8389.16
671.518	8442.41
671.709	8245.8
671.9	8380.97
672.091	8190.51
672.282	8235.57
672.473	8047.15
672.664	8262.19
672.855	8084.02
673.046	8077.87
673.237	8260.14
673.428	8049.2
673.619	7868.98
673.809	7965.23
674	7772.72
674.191	7848.5
674.382	7746.1
674.573	7840.31
674.764	7856.69
674.954	7668.28
675.145	7746.1
675.336	7768.63
675.527	7625.27
675.717	7625.27
675.908	7608.89
676.099	7449.14
676.289	7412.28
676.48	7479.86
676.671	7385.66
676.861	7279.16
677.052	7311.93
677.243	7184.96
677.433	7148.09
677.624	7410.23
677.814	7199.29
678.005	7426.62
678.195	7197.24
678.386	7174.72
678.576	7103.04
678.767	7305.79
678.957	7131.71
679.148	7008.83
679.338	7090.75
679.529	6933.06
679.719	6861.38
679.909	7107.13
680.1	7017.02
680.29	6910.53
680.481	6853.19
680.671	6783.56
680.861	6836.8
681.052	6881.86
681.242	6806.08
681.432	6912.58
681.622	6689.35
681.813	6619.72
682.003	6724.16
682.193	6693.44
682.383	6771.27
682.573	6642.25
682.764	6521.42
682.954	6545.99
683.144	6527.56
683.334	6582.85
683.524	6589
683.714	6560.33
683.904	6576.71
684.094	6560.33
684.284	6511.18
684.474	6593.09
684.664	6339.15
684.854	6388.3
685.044	6265.42
685.234	6197.84
685.424	6464.07
685.614	6263.37
685.804	6529.61
685.994	6392.39
686.184	6165.07
686.374	6128.21
686.564	6234.7
686.753	6222.41
686.943	6038.09
687.133	6099.53
687.323	6005.33
687.513	6210.12
687.702	6087.25
687.892	5825.11
688.082	6031.95
688.272	6001.23
688.461	5999.18
688.651	6103.63
688.841	5952.08
689.03	5915.22
689.22	5806.67
689.41	5933.65
689.599	5894.74
689.789	5794.39
689.979	5853.78
690.168	5896.78
690.358	5710.42
690.547	5866.07
690.737	5751.38
690.926	5667.41
691.116	5503.57
691.305	5833.3
691.495	5536.34
691.684	5638.74
691.874	5683.8
692.063	5554.77
692.252	5468.76
692.442	5511.77
692.631	5407.32
692.82	5542.49
693.01	5370.46
693.199	5325.4
693.388	5399.13
693.578	5237.34
693.767	5362.26
693.956	5362.26
694.146	5343.83
694.335	5468.76
694.524	5266.01
694.713	5329.5
694.902	5220.95
695.092	5433.94
695.281	5122.65
695.47	5253.72
695.659	4944.48
695.848	5223
696.037	5223
696.226	5153.37
696.415	5182.04
696.604	5155.42
696.793	5077.6
696.982	5075.55
697.171	4913.76
697.36	5034.59
697.549	5044.83
697.738	5042.78
697.927	4979.29
698.116	4985.44
698.305	4981.34
698.494	4942.43
698.683	4880.99
698.872	4735.59
699.061	4842.08
699.25	4776.55
699.438	4823.65
699.627	4831.84
699.816	4758.11
700.005	4651.62
700.193	4829.79
700.382	4801.12
700.571	4737.63
700.76	4708.96
700.948	4790.88
701.137	4690.53
701.326	4608.61
701.514	4625
701.703	4723.3
701.892	4670.05
702.08	4776.55
702.269	4584.04
702.457	4536.93
702.646	4549.22
702.834	4512.36
703.023	4625
703.212	4545.13
703.4	4383.34
703.589	4356.71
703.777	4418.15
703.965	4295.27
704.154	4282.99
704.342	4346.47
704.531	4428.39
704.719	4270.7
704.907	4315.75
705.096	4362.86
705.284	4301.42
705.472	4291.18
705.661	4305.51
705.849	4383.34
706.037	4235.88
706.226	4201.07
706.414	4076.14
706.602	4346.47
706.79	4108.91
706.979	4102.76
707.167	4129.39
707.355	4018.8
707.543	4297.32
707.731	4000.37
707.919	4067.95
708.107	4031.09
708.296	4018.8
708.484	3816.05
708.672	4039.28
708.86	4010.61
709.048	4012.65
709.236	3981.93
709.424	4078.19
709.612	3875.44
709.8	3857.01
709.988	3895.92
710.176	4029.04
710.364	3932.78
710.551	3809.9
710.739	3904.11
710.927	3959.41
711.115	3793.52
711.303	3820.14
711.491	3756.66
711.679	3646.07
711.866	3732.08
712.054	3777.14
712.242	3592.82
712.43	3674.74
712.617	3633.78
712.805	3691.12
712.993	3723.89
713.181	3621.49
713.368	3684.98
713.556	3701.36
713.744	3512.95
713.931	3572.34
714.119	3572.34
714.306	3541.62
714.494	3486.33
714.682	3486.33
714.869	3406.45
715.057	3480.18
715.244	3515
715.432	3519.09
715.619	3433.08
715.807	3449.46
715.994	3373.69
716.182	3388.02
716.369	3457.65
716.556	3318.39
716.744	3412.6
716.931	3342.97
717.119	3482.23
717.306	3445.37
717.493	3273.34
717.681	3285.62
717.868	3396.21
718.055	3234.43
718.242	3203.71
718.43	3371.64
718.617	3166.84
718.804	3109.5
718.991	3109.5
719.179	3207.8
719.366	3297.91
719.553	3060.35
719.74	3150.46
719.927	3007.1
720.114	3220.09
720.301	3076.73
720.488	3125.88
720.676	3052.16
720.863	2992.77
721.05	3201.66
721.237	3134.07
721.424	3068.54
721.611	3019.39
721.798	2908.8
721.985	3000.96
722.172	2966.14
722.358	2929.28
722.545	2986.62
722.732	2861.69
722.919	2955.9
723.106	2873.98
723.293	2882.17
723.48	2892.41
723.667	2884.22
723.853	2888.32
724.04	2933.37
724.227	2953.85
724.414	2716.29
724.6	2822.78
724.787	2857.6
724.974	2927.23
725.161	2667.14
725.347	2656.9
725.534	2798.21
725.72	2908.8
725.907	2740.86
726.094	2726.53
726.28	2712.19
726.467	2691.71
726.653	2667.14
726.84	2691.71
727.027	2740.86
727.213	2544.26
727.4	2609.79
727.586	2583.17
727.773	2644.61
727.959	2620.03
728.145	2628.23
728.332	2663.04
728.518	2431.62
728.705	2558.6
728.891	2638.47
729.077	2626.18
729.264	2546.31
729.45	2564.74
729.636	2568.84
729.823	2570.88
730.009	2499.2
730.195	2601.6
730.382	2617.99
730.568	2448.01
730.754	2570.88
730.94	2499.2
731.126	2525.83
731.313	2507.4
731.499	2466.44
731.685	2486.92
731.871	2357.89
732.057	2364.04
732.243	2515.59
732.429	2429.57
732.615	2448.01
732.801	2445.96
732.987	2415.24
733.173	2380.42
733.359	2495.11
733.545	2351.75
733.731	2474.63
733.917	2394.76
734.103	2405
734.289	2388.61
734.475	2343.56
734.661	2372.23
734.847	2306.7
735.033	2351.75
735.219	2304.65
735.404	2161.29
735.59	2382.47
735.776	2220.68
735.962	2466.44
736.148	2318.98
736.333	2282.12
736.519	2218.63
736.705	2278.02
736.89	2146.95
737.076	2286.22
737.262	2196.11
737.447	2247.3
737.633	2132.62
737.819	2263.69
738.004	2222.73
738.19	2118.28
738.375	2241.16
738.561	2220.68
738.747	2099.85
738.932	2036.36
739.118	2192.01
739.303	2056.84
739.489	2054.8
739.674	2022.03
739.859	2040.46
740.045	2085.51
740.23	2165.39
740.416	2007.69
740.601	2071.18
740.786	2019.98
740.972	1995.4
741.157	2054.8
741.342	1888.91
741.528	2005.64
741.713	1905.29
741.898	1921.68
742.084	1989.26
742.269	1954.44
742.454	1964.68
742.639	2011.79
742.824	1931.92
743.01	1888.91
743.195	1946.25
743.38	1890.96
743.565	1876.62
743.75	1974.92
743.935	1858.19
744.12	1970.83
744.305	1770.13
744.49	1821.33
744.675	1786.51
744.86	1850
745.045	1800.85
745.23	1735.31
745.415	1796.75
745.6	1778.32
745.785	1737.36
745.97	1815.18
746.155	1704.59
746.34	1778.32
746.525	1725.07
746.71	1776.27
746.895	1688.21
747.079	1741.46
747.264	1686.16
747.449	1708.69
747.634	1518.23
747.819	1667.73
748.003	1481.36
748.188	1651.35
748.373	1548.95
748.557	1559.19
748.742	1622.67
748.927	1579.67
749.111	1522.32
749.296	1444.5
749.481	1634.96
749.665	1489.56
749.85	1438.36
750.034	1497.75
750.219	1571.47
750.404	1446.55
750.588	1614.48
750.773	1438.36
750.957	1424.02
751.141	1417.88
751.326	1446.55
751.51	1348.25
751.695	1469.08
751.879	1493.65
752.064	1520.28
752.248	1381.01
752.432	1489.56
752.617	1403.54
752.801	1364.63
752.985	1280.66
753.17	1413.78
753.354	1366.68
753.538	1413.78
753.722	1432.21
753.907	1266.33
754.091	1301.14
754.275	1295
754.459	1260.18
754.643	1227.42
754.828	1331.86
755.012	1323.67
755.196	1227.42
755.38	1389.21
755.564	1225.37
755.748	1151.64
755.932	1159.83
756.116	1190.55
756.3	1190.55
756.484	1145.5
756.668	1219.22
756.852	1159.83
757.036	1092.25
757.22	1090.2
757.404	1233.56
757.588	1145.5
757.772	1180.31
757.956	1082.01
758.14	1176.22
758.323	1137.31
758.507	1280.66
758.691	1094.3
758.875	1161.88
759.059	1168.02
759.242	1077.91
759.426	1120.92
759.61	1039
759.794	1057.43
759.977	1120.92
760.161	1184.41
760.345	1014.43
760.528	1051.29
760.712	1061.53
760.895	1131.16
761.079	1045.15
761.263	950.94
761.446	967.32
761.63	1049.24
761.813	993.95
761.997	1045.15
762.18	934.56
762.364	1024.67
762.547	832.16
762.731	909.98
762.914	955.04
763.098	973.47
763.281	930.46
763.464	971.42
763.648	961.18
763.831	938.65
764.015	893.6
764.198	930.46
764.381	842.4
764.564	998.04
764.748	1030.81
764.931	1061.53
765.114	893.6
765.297	963.23
765.481	948.89
765.664	912.03
765.847	891.55
766.03	971.42
766.213	891.55
766.397	905.88
766.58	860.83
766.763	946.84
766.946	877.21
767.129	965.28
767.312	866.97
767.495	918.17
767.678	834.21
767.861	928.41
768.044	836.25
768.227	889.5
768.41	893.6
768.593	852.64
768.776	791.2
768.959	821.92
769.142	879.26
769.324	823.97
769.507	768.67
769.69	760.48
769.873	842.4
770.056	946.84
770.239	842.4
770.421	864.93
770.604	826.01
770.787	809.63
770.97	823.97
771.152	854.69
771.335	834.21
771.518	801.44
771.7	918.17
771.883	758.43
772.066	817.82
772.248	799.39
772.431	807.58
772.613	791.2
772.796	848.54
772.978	742.05
773.161	834.21
773.343	783.01
773.526	758.43
773.708	727.71
773.891	821.92
774.073	742.05
774.256	684.7
774.438	864.93
774.621	678.56
774.803	780.96
774.985	735.9
775.168	746.14
775.35	756.38
775.532	656.03
775.715	692.9
775.897	680.61
776.079	737.95
776.261	635.55
776.444	711.33
776.626	643.74
776.808	627.36
776.99	672.42
777.173	643.74
777.355	696.99
777.537	617.12
777.719	651.94
777.901	701.09
778.083	627.36
778.265	621.22
778.447	651.94
778.629	570.02
778.811	586.4
778.993	635.55
779.175	727.71
779.357	602.79
779.539	473.76
779.721	578.21
779.903	645.79
780.085	615.07
780.267	623.27
780.449	529.06
780.631	602.79
780.812	709.28
780.994	588.45
781.176	492.2
781.358	610.98
781.54	490.15
781.721	572.07
781.903	545.44
782.085	549.54
782.267	635.55
782.448	492.2
782.63	602.79
782.812	570.02
782.993	488.1
783.175	504.48
783.357	567.97
783.538	447.14
783.72	451.24
783.901	520.87
784.083	527.01
784.264	504.48
784.446	438.95
784.627	459.43
784.809	463.52
784.99	449.19
785.172	465.57
785.353	516.77
785.535	508.58
785.716	422.56
785.897	340.65
786.079	445.09
786.26	420.52
786.441	445.09
786.623	463.52
786.804	365.22
786.985	475.81
787.167	449.19
787.348	410.28
787.529	432.8
787.71	473.76
787.891	443.04
788.073	436.9
788.254	400.04
788.435	447.14
788.616	426.66
788.797	400.04
788.978	455.33
789.159	365.22
789.34	350.89
789.522	289.45
789.703	408.23
789.884	357.03
790.065	348.84
790.246	412.32
790.427	334.5
790.607	467.62
790.788	434.85
790.969	344.74
791.15	338.6
791.331	365.22
791.512	303.78
791.693	377.51
791.874	301.73
792.054	373.41
792.235	365.22
792.416	328.36
792.597	307.88
792.778	346.79
792.958	297.64
793.139	410.28
793.32	340.65
793.5	336.55
793.681	391.84
793.862	326.31
794.042	357.03
794.223	271.01
794.404	377.51
794.584	275.11
794.765	324.26
794.945	293.54
795.126	277.16
795.306	350.89
795.487	336.55
795.667	316.07
795.848	357.03
796.028	311.97
796.209	311.97
796.389	295.59
796.57	309.93
796.75	266.92
796.93	295.59
797.111	309.93
797.291	191.14
797.471	348.84
797.652	234.15
797.832	316.07
798.012	311.97
798.192	211.62
798.373	225.96
798.553	225.96
798.733	275.11
798.913	297.64
799.093	246.44
799.274	307.88
799.454	281.25
799.634	275.11
799.814	328.36
799.994	234.15
800.174	291.49
800.354	238.25
800.534	201.38
800.714	256.68
800.894	234.15
801.074	211.62
801.254	201.38
801.434	340.65
801.614	230.06
801.794	193.19
801.974	989.85
802.154	266.92
802.334	268.97
802.514	197.29
802.693	250.53
802.873	148.14
803.053	316.07
803.233	266.92
803.413	234.15
803.592	203.43
803.772	217.77
803.952	279.21
804.131	230.06
804.311	234.15
804.491	221.86
804.67	203.43
804.85	254.63
805.03	205.48
805.209	193.19
805.389	246.44
805.568	187.05
805.748	258.73
805.928	203.43
806.107	232.1
806.287	189.1
806.466	189.1
806.646	107.18
806.825	277.16
807.004	160.42
807.184	301.73
807.363	223.91
807.543	209.58
807.722	225.96
807.901	248.49
808.081	150.18
808.26	127.66
808.439	232.1
808.619	205.48
808.798	193.19
808.977	172.71
809.156	277.16
809.336	191.14
809.515	174.76
809.694	105.13
809.873	203.43
810.052	160.42
810.231	211.62
810.411	131.75
810.59	299.69
810.769	176.81
810.948	193.19
811.127	144.04
811.306	219.82
811.485	211.62
811.664	162.47
811.843	94.89
812.022	205.48
812.201	72.36
812.38	156.33
812.559	162.47
812.737	170.66
812.916	185
813.095	156.33
813.274	180.9
813.453	103.08
813.632	203.43
813.811	242.34
813.989	152.23
814.168	111.27
814.347	70.31
814.526	217.77
814.704	230.06
814.883	197.29
815.062	109.23
815.24	144.04
815.419	201.38
815.598	168.62
815.776	96.94
815.955	141.99
816.133	119.46
816.312	107.18
816.49	129.7
816.669	133.8
816.847	98.99
817.026	94.89
817.204	131.75
817.383	209.58
817.561	45.74
817.74	137.9
817.918	103.08
818.097	205.48
818.275	168.62
818.453	180.9
818.632	162.47
818.81	127.66
818.988	160.42
819.167	103.08
819.345	131.75
819.523	-7.51
819.701	137.9
819.879	178.86
820.058	150.18
820.236	137.9
820.414	137.9
820.592	62.12
820.77	98.99
820.948	113.32
821.127	23.21
821.305	176.81
821.483	103.08
821.661	88.75
821.839	107.18
822.017	111.27
822.195	123.56
822.373	182.95
822.551	58.03
822.729	115.37
822.907	92.84
823.085	197.29
823.262	55.98
823.44	131.75
823.618	68.27
823.796	119.46
823.974	88.75
824.152	78.51
824.329	62.12
824.507	58.03
824.685	119.46
824.863	96.94
825.04	17.07
825.218	127.66
825.396	82.6
825.574	-5.46
825.751	119.46
825.929	172.71
826.107	53.93
826.284	152.23
826.462	111.27
826.639	-3.41
826.817	90.79
826.994	94.89
827.172	31.4
827.349	123.56
827.527	101.03
827.704	113.32
827.882	98.99
828.059	111.27
828.237	74.41
828.414	90.79
828.591	41.64
828.769	90.79
828.946	-3.41
829.124	78.51
829.301	152.23
829.478	125.61
829.655	88.75
829.833	66.22
830.01	94.89
830.187	137.9
830.364	103.08
830.542	70.31
830.719	156.33
830.896	119.46
831.073	27.31
831.25	127.66
831.427	103.08
831.604	144.04
831.782	105.13
831.959	139.94
832.136	74.41
832.313	164.52
832.49	109.23
832.667	45.74
832.844	115.37
833.021	25.26
833.198	45.74
833.374	70.31
833.551	113.32
833.728	74.41
833.905	123.56
834.082	53.93
834.259	78.51
834.436	111.27
834.612	103.08
834.789	90.79
834.966	27.31
835.143	62.12
835.319	66.22
835.496	135.85
835.673	51.88
835.85	62.12
836.026	82.6
836.203	62.12
836.38	47.79
836.556	21.16
836.733	62.12
836.909	133.8
837.086	25.26
837.262	17.07
837.439	88.75
837.616	107.18
837.792	58.03
837.968	86.7
838.145	6.83
838.321	70.31
838.498	64.17
838.674	94.89
838.851	111.27
839.027	29.35
839.203	86.7
839.38	105.13
839.556	84.65
839.732	53.93
839.909	117.42
840.085	17.07
840.261	45.74
840.437	72.36
840.614	12.97
840.79	103.08
840.966	41.64
841.142	60.07
841.318	68.27
841.494	86.7
841.671	160.42
841.847	78.51
842.023	21.16
842.199	72.36
842.375	78.51
842.551	-32.08
842.727	53.93
842.903	62.12
843.079	53.93
843.255	127.66
843.431	21.16
843.607	103.08
843.783	17.07
843.959	41.64
844.134	66.22
844.31	45.74
844.486	31.4
844.662	60.07
844.838	8.87
845.013	84.65
845.189	156.33
845.365	78.51
845.541	53.93
845.716	94.89
845.892	96.94
846.068	66.22
846.244	-44.37
846.419	41.64
846.595	86.7
846.77	10.92
846.946	135.85
847.122	-7.51
847.297	37.55
847.473	94.89
847.648	37.55
847.824	10.92
847.999	-36.18
848.175	53.93
848.35	78.51
848.526	96.94
848.701	68.27
848.876	10.92
849.052	45.74
849.227	25.26
849.403	15.02
849.578	58.03
849.753	86.7
849.929	53.93
850.104	12.97
850.279	-17.75
850.454	55.98
850.63	51.88
850.805	-5.46
850.98	10.92
851.155	0.68
851.33	45.74
851.505	66.22
851.681	152.23
851.856	15.02
852.031	49.83
852.206	111.27
852.381	53.93
852.556	31.4
852.731	80.55
852.906	78.51
853.081	23.21
853.256	-15.7
853.431	45.74
853.606	62.12
853.781	23.21
853.956	0.68
854.131	86.7
854.305	25.26
854.48	80.55
854.655	70.31
854.83	19.11
855.005	94.89
855.18	-19.8
855.354	55.98
855.529	45.74
855.704	53.93
855.879	45.74
856.053	-19.8
856.228	78.51
856.403	-40.28
856.577	37.55
856.752	-7.51
856.926	21.16
857.101	4.78
857.276	45.74
857.45	33.45
857.625	29.35
857.799	37.55
857.974	53.93
858.148	49.83
858.323	111.27
858.497	12.97
858.672	-5.46
858.846	4.78
859.02	45.74
859.195	43.69
859.369	45.74
859.543	62.12
859.718	47.79
859.892	6.83
860.066	113.32
860.241	41.64
860.415	-11.61
860.589	-19.8
860.763	0.68
860.938	41.64
861.112	23.21
861.286	53.93
861.46	47.79
861.634	-3.41
861.808	37.55
861.982	8.87
862.157	174.76
862.331	-1.37
862.505	4.78
862.679	21.16
862.853	15.02
863.027	-52.56
863.201	86.7
863.375	37.55
863.549	29.35
863.722	33.45
863.896	62.12
864.07	47.79
864.244	62.12
864.418	37.55
864.592	19.11
864.766	-27.99
864.939	58.03
865.113	17.07
865.287	-27.99
865.461	-5.46
865.634	49.83
865.808	-27.99
865.982	45.74
866.156	4.78
866.329	-46.42
866.503	6.83
866.676	53.93
866.85	23.21
867.024	94.89
867.197	-25.94
867.371	25.26
867.544	8.87
867.718	6.83
867.891	94.89
868.065	4.78
868.238	17.07
868.412	72.36
868.585	17.07
868.759	-27.99
868.932	74.41
869.105	-32.08
869.279	53.93
869.452	62.12
869.625	-7.51
869.799	53.93
869.972	31.4
870.145	-11.61
870.319	115.37
870.492	0.68
870.665	-23.89
870.838	-27.99
871.011	-44.37
871.185	62.12
871.358	-52.56
871.531	21.16
871.704	-36.18
871.877	4.78
872.05	-50.52
872.223	-56.66
872.396	29.35
872.569	-23.89
872.742	-23.89
872.915	37.55
873.088	-11.61
873.261	-27.99
873.434	53.93
873.607	29.35
873.78	60.07
873.953	-48.47
874.126	-21.84
874.299	49.83
874.471	64.17
874.644	-3.41
874.817	72.36
874.99	103.08
875.163	4.78
875.335	55.98
875.508	-3.41
875.681	53.93
875.853	-19.8
876.026	-7.51
876.199	-1.37
876.371	45.74
876.544	-32.08
876.717	-34.13
876.889	10.92
877.062	-17.75
877.234	-23.89
877.407	-27.99
877.579	4.78
877.752	25.26
877.924	49.83
878.097	8.87
878.269	-3.41
878.442	-1.37
878.614	15.02
878.786	21.16
878.959	60.07
879.131	47.79
879.303	-3.41
879.476	-48.47
879.648	86.7
879.82	64.17
879.993	-71
880.165	33.45
880.337	-3.41
880.509	64.17
880.681	-44.37
880.854	12.97
881.026	37.55
881.198	47.79
881.37	29.35
881.542	31.4
881.714	31.4
881.886	60.07
882.058	27.31
882.23	21.16
882.402	-56.66
882.574	12.97
882.746	76.46
882.918	39.59
883.09	45.74
883.262	-1.37
883.434	45.74
883.606	-27.99
883.778	-48.47
883.95	107.18
884.122	80.55
884.293	103.08
884.465	4.78
884.637	17.07
884.809	6.83
884.98	39.59
885.152	49.83
885.324	33.45
885.496	-56.66
885.667	-15.7
885.839	-34.13
886.011	103.08
886.182	-7.51
886.354	6.83
886.525	33.45
886.697	33.45
886.869	-60.76
887.04	-34.13
887.212	49.83
887.383	74.41
887.555	-19.8
887.726	-52.56
887.897	-19.8
888.069	64.17
888.24	8.87
888.412	-48.47
888.583	-25.94
888.754	-19.8
888.926	-25.94
889.097	-19.8
889.268	-34.13
889.44	-52.56
889.611	12.97
889.782	21.16
889.953	-27.99
890.125	-44.37
890.296	-36.18
890.467	-9.56
890.638	-11.61
890.809	-27.99
890.98	6.83
891.151	12.97
891.323	68.27
891.494	2.73
891.665	78.51
891.836	58.03
892.007	78.51
892.178	-34.13
892.349	4.78
892.52	-50.52
892.691	37.55
892.862	45.74
893.032	-19.8
893.203	-11.61
893.374	-17.75
893.545	41.64
893.716	-21.84
893.887	25.26
894.057	-11.61
894.228	-89.43
894.399	-21.84
894.57	29.35
894.74	49.83
894.911	45.74
895.082	-15.7
895.253	-1.37
895.423	15.02
895.594	51.88
895.764	45.74
895.935	70.31
896.106	-3.41
896.276	15.02
896.447	47.79
896.617	-27.99
896.788	2.73
896.958	-11.61
897.129	-15.7
897.299	33.45
897.47	33.45
897.64	82.6
897.81	-17.75
897.981	41.64
898.151	-56.66
898.322	62.12
898.492	-11.61
898.662	-7.51
898.832	-9.56
899.003	72.36
899.173	45.74
899.343	6.83
899.513	55.98
