Data from USB4F104151__225__14-33-57-364.txt Node

Date: Thu Mar 13 14:33:57 EDT 2025
User: louis
Spectrometer: USB4F10415
Trigger mode: 4
Integration Time (sec): 2.500000E-2
Scans to average: 1
Electric dark correction enabled: true
Nonlinearity correction enabled: false
Boxcar width: 0
XAxis mode: Wavelengths
Number of Pixels in Spectrum: 3648
>>>>>Begin Spectral Data<<<<<
178.204	-208.55
178.424	-208.55
178.644	-208.55
178.864	-140.97
179.084	-165.54
179.304	14.68
179.524	-34.47
179.744	22.87
179.964	35.16
180.184	0.34
180.404	-24.23
180.624	-18.09
180.844	-22.19
181.064	-81.58
181.283	53.59
181.503	-20.14
181.723	74.07
181.943	-3.75
182.163	61.78
182.383	-11.95
182.602	100.69
182.822	51.54
183.042	69.97
183.262	41.3
183.482	4.44
183.701	-11.95
183.921	-16.04
184.141	14.68
184.361	94.55
184.58	-3.75
184.8	-20.14
185.02	-11.95
185.239	4.44
185.459	47.44
185.679	45.4
185.898	-65.19
186.118	94.55
186.338	80.21
186.557	69.97
186.777	-7.85
186.997	65.88
187.216	63.83
187.436	112.98
187.655	-1.71
187.875	112.98
188.095	-9.9
188.314	106.84
188.534	65.88
188.753	49.49
188.973	96.6
189.192	82.26
189.412	63.83
189.631	-3.75
189.851	-9.9
190.07	63.83
190.29	26.96
190.509	-11.95
190.729	29.01
190.948	37.2
191.168	201.04
191.387	39.25
191.607	2.39
191.826	61.78
192.045	-3.75
192.265	-7.85
192.484	37.2
192.704	22.87
192.923	10.58
193.142	117.08
193.362	47.44
193.581	65.88
193.8	-26.28
194.02	100.69
194.239	37.2
194.458	0.34
194.678	41.3
194.897	-9.9
195.116	-3.75
195.335	-20.14
195.555	72.02
195.774	-3.75
195.993	14.68
196.212	29.01
196.432	55.64
196.651	0.34
196.87	61.78
197.089	90.45
197.308	0.34
197.528	12.63
197.747	-1.71
197.966	88.4
198.185	119.12
198.404	53.59
198.623	88.4
198.842	49.49
199.062	31.06
199.281	61.78
199.5	-20.14
199.719	14.68
199.938	22.87
200.157	29.01
200.376	121.17
200.595	22.87
200.814	86.36
201.033	16.73
201.252	53.59
201.471	29.01
201.69	61.78
201.909	55.64
202.128	37.2
202.347	14.68
202.566	18.77
202.785	-24.23
203.004	20.82
203.223	151.89
203.442	-22.19
203.661	22.87
203.879	94.55
204.098	20.82
204.317	-11.95
204.536	43.35
204.755	69.97
204.974	-9.9
205.193	74.07
205.411	147.8
205.63	78.16
205.849	33.11
206.068	61.78
206.287	22.87
206.505	24.92
206.724	33.11
206.943	31.06
207.162	37.2
207.381	-36.52
207.599	37.2
207.818	65.88
208.037	41.3
208.255	-28.33
208.474	14.68
208.693	53.59
208.911	82.26
209.13	29.01
209.349	80.21
209.567	4.44
209.786	84.31
210.005	102.74
210.223	33.11
210.442	-26.28
210.661	16.73
210.879	8.53
211.098	41.3
211.316	14.68
211.535	90.45
211.753	53.59
211.972	20.82
212.191	49.49
212.409	94.55
212.628	39.25
212.846	-20.14
213.065	47.44
213.283	-3.75
213.502	4.44
213.72	29.01
213.938	78.16
214.157	-22.19
214.375	115.03
214.594	-28.33
214.812	47.44
215.031	49.49
215.249	65.88
215.467	86.36
215.686	39.25
215.904	37.2
216.122	-9.9
216.341	57.68
216.559	33.11
216.778	121.17
216.996	39.25
217.214	57.68
217.432	-26.28
217.651	-85.67
217.869	16.73
218.087	45.4
218.306	-40.62
218.524	22.87
218.742	41.3
218.96	78.16
219.179	-7.85
219.397	33.11
219.615	160.08
219.833	-36.52
220.051	8.53
220.27	69.97
220.488	104.79
220.706	31.06
220.924	55.64
221.142	8.53
221.36	61.78
221.578	29.01
221.796	4.44
222.015	129.36
222.233	22.87
222.451	61.78
222.669	-77.48
222.887	16.73
223.105	-20.14
223.323	96.6
223.541	39.25
223.759	80.21
223.977	31.06
224.195	39.25
224.413	29.01
224.631	-1.71
224.849	-7.85
225.067	112.98
225.285	-34.47
225.503	43.35
225.721	-18.09
225.939	-26.28
226.157	78.16
226.375	16.73
226.592	84.31
226.81	61.78
227.028	96.6
227.246	55.64
227.464	37.2
227.682	139.6
227.9	-18.09
228.117	33.11
228.335	20.82
228.553	-48.81
228.771	74.07
228.989	123.22
229.206	90.45
229.424	86.36
229.642	29.01
229.86	53.59
230.077	20.82
230.295	-28.33
230.513	-20.14
230.731	63.83
230.948	41.3
231.166	55.64
231.384	29.01
231.601	-52.91
231.819	135.51
232.037	-7.85
232.254	-40.62
232.472	-16.04
232.689	-75.43
232.907	123.22
233.125	-9.9
233.342	55.64
233.56	29.01
233.777	61.78
233.995	4.44
234.213	12.63
234.43	20.82
234.648	-3.75
234.865	12.63
235.083	31.06
235.3	-36.52
235.518	39.25
235.735	20.82
235.953	86.36
236.17	96.6
236.388	-28.33
236.605	16.73
236.822	139.6
237.04	69.97
237.257	74.07
237.475	29.01
237.692	82.26
237.909	63.83
238.127	12.63
238.344	-1.71
238.562	72.02
238.779	-46.76
238.996	45.4
239.214	-1.71
239.431	88.4
239.648	-20.14
239.865	88.4
240.083	47.44
240.3	61.78
240.517	61.78
240.735	45.4
240.952	20.82
241.169	20.82
241.386	86.36
241.603	39.25
241.821	-44.71
242.038	115.03
242.255	121.17
242.472	-13.99
242.689	110.93
242.907	35.16
243.124	-11.95
243.341	12.63
243.558	-3.75
243.775	-52.91
243.992	8.53
244.209	39.25
244.426	151.89
244.643	86.36
244.86	0.34
245.078	72.02
245.295	4.44
245.512	-7.85
245.729	10.58
245.946	-7.85
246.163	29.01
246.38	4.44
246.597	6.49
246.814	43.35
247.031	-5.8
247.248	45.4
247.464	-44.71
247.681	39.25
247.898	33.11
248.115	94.55
248.332	0.34
248.549	4.44
248.766	127.32
248.983	47.44
249.2	53.59
249.417	76.12
249.633	61.78
249.85	135.51
250.067	-7.85
250.284	4.44
250.501	69.97
250.717	82.26
250.934	29.01
251.151	-22.19
251.368	-1.71
251.585	63.83
251.801	-3.75
252.018	-32.43
252.235	86.36
252.451	-48.81
252.668	41.3
252.885	96.6
253.102	20.82
253.318	88.4
253.535	115.03
253.752	37.2
253.968	20.82
254.185	8.53
254.401	10.58
254.618	-34.47
254.835	33.11
255.051	158.03
255.268	37.2
255.484	65.88
255.701	-22.19
255.917	80.21
256.134	-3.75
256.351	78.16
256.567	31.06
256.784	20.82
257	72.02
257.217	63.83
257.433	12.63
257.65	96.6
257.866	-7.85
258.082	39.25
258.299	4.44
258.515	65.88
258.732	-11.95
258.948	31.06
259.165	4.44
259.381	20.82
259.597	63.83
259.814	37.2
260.03	-44.71
260.246	8.53
260.463	41.3
260.679	53.59
260.895	-95.91
261.112	4.44
261.328	94.55
261.544	37.2
261.761	104.79
261.977	33.11
262.193	-5.8
262.409	49.49
262.626	88.4
262.842	65.88
263.058	-48.81
263.274	55.64
263.49	84.31
263.707	47.44
263.923	121.17
264.139	-11.95
264.355	12.63
264.571	57.68
264.787	-1.71
265.004	57.68
265.22	22.87
265.436	37.2
265.652	-36.52
265.868	41.3
266.084	115.03
266.3	92.5
266.516	-11.95
266.732	53.59
266.948	26.96
267.164	-9.9
267.38	80.21
267.596	8.53
267.812	151.89
268.028	61.78
268.244	10.58
268.46	61.78
268.676	33.11
268.892	4.44
269.108	43.35
269.324	-26.28
269.54	-28.33
269.756	41.3
269.972	-50.86
270.188	20.82
270.403	-9.9
270.619	61.78
270.835	96.6
271.051	-1.71
271.267	-20.14
271.483	29.01
271.698	6.49
271.914	96.6
272.13	4.44
272.346	20.82
272.562	33.11
272.777	37.2
272.993	-3.75
273.209	47.44
273.425	123.22
273.64	6.49
273.856	69.97
274.072	47.44
274.287	98.64
274.503	41.3
274.719	69.97
274.934	2.39
275.15	-3.75
275.366	31.06
275.581	-3.75
275.797	-28.33
276.012	-69.29
276.228	37.2
276.444	26.96
276.659	94.55
276.875	-18.09
277.09	78.16
277.306	74.07
277.521	69.97
277.737	10.58
277.952	55.64
278.168	57.68
278.383	37.2
278.599	8.53
278.814	53.59
279.03	80.21
279.245	72.02
279.461	-46.76
279.676	76.12
279.892	49.49
280.107	20.82
280.322	37.2
280.538	-7.85
280.753	-1.71
280.969	127.32
281.184	29.01
281.399	6.49
281.615	14.68
281.83	119.12
282.045	61.78
282.26	22.87
282.476	72.02
282.691	57.68
282.906	96.6
283.122	63.83
283.337	4.44
283.552	35.16
283.767	37.2
283.983	98.64
284.198	45.4
284.413	49.49
284.628	-1.71
284.843	61.78
285.058	74.07
285.274	14.68
285.489	-61.1
285.704	88.4
285.919	92.5
286.134	-24.23
286.349	31.06
286.564	55.64
286.779	96.6
286.995	29.01
287.21	22.87
287.425	106.84
287.64	65.88
287.855	86.36
288.07	-22.19
288.285	57.68
288.5	65.88
288.715	53.59
288.93	-20.14
289.145	55.64
289.36	49.49
289.575	-3.75
289.79	69.97
290.004	61.78
290.219	112.98
290.434	78.16
290.649	-38.57
290.864	80.21
291.079	12.63
291.294	119.12
291.509	22.87
291.724	24.92
291.938	63.83
292.153	45.4
292.368	-26.28
292.583	137.56
292.798	69.97
293.012	57.68
293.227	112.98
293.442	12.63
293.657	65.88
293.871	24.92
294.086	33.11
294.301	69.97
294.516	16.73
294.73	6.49
294.945	47.44
295.16	90.45
295.374	86.36
295.589	14.68
295.804	-1.71
296.018	43.35
296.233	69.97
296.447	63.83
296.662	45.4
296.877	82.26
297.091	72.02
297.306	39.25
297.52	6.49
297.735	-24.23
297.949	104.79
298.164	35.16
298.378	41.3
298.593	61.78
298.807	-5.8
299.022	72.02
299.236	82.26
299.451	63.83
299.665	0.34
299.88	86.36
300.094	26.96
300.309	10.58
300.523	29.01
300.737	94.55
300.952	29.01
301.166	39.25
301.381	45.4
301.595	-1.71
301.809	139.6
302.024	12.63
302.238	-11.95
302.452	143.7
302.667	72.02
302.881	110.93
303.095	125.27
303.309	65.88
303.524	51.54
303.738	65.88
303.952	80.21
304.166	78.16
304.381	-44.71
304.595	69.97
304.809	4.44
305.023	22.87
305.237	-18.09
305.452	8.53
305.666	69.97
305.88	49.49
306.094	37.2
306.308	53.59
306.522	12.63
306.736	55.64
306.95	59.73
307.164	82.26
307.379	29.01
307.593	39.25
307.807	80.21
308.021	-57
308.235	0.34
308.449	-9.9
308.663	12.63
308.877	135.51
309.091	102.74
309.305	80.21
309.519	-24.23
309.733	53.59
309.947	4.44
310.161	74.07
310.374	76.12
310.588	110.93
310.802	59.73
311.016	35.16
311.23	35.16
311.444	39.25
311.658	22.87
311.872	82.26
312.085	55.64
312.299	104.79
312.513	8.53
312.727	86.36
312.941	33.11
313.154	108.88
313.368	106.84
313.582	33.11
313.796	86.36
314.009	61.78
314.223	98.64
314.437	6.49
314.651	47.44
314.864	45.4
315.078	31.06
315.292	10.58
315.505	76.12
315.719	65.88
315.933	86.36
316.146	82.26
316.36	10.58
316.573	102.74
316.787	31.06
317.001	45.4
317.214	-20.14
317.428	61.78
317.641	-3.75
317.855	45.4
318.068	20.82
318.282	104.79
318.495	20.82
318.709	57.68
318.922	74.07
319.136	102.74
319.349	94.55
319.563	98.64
319.776	39.25
319.99	-16.04
320.203	53.59
320.417	39.25
320.63	33.11
320.843	143.7
321.057	31.06
321.27	-11.95
321.483	74.07
321.697	86.36
321.91	94.55
322.124	115.03
322.337	45.4
322.55	0.34
322.763	6.49
322.977	31.06
323.19	29.01
323.403	29.01
323.617	69.97
323.83	90.45
324.043	47.44
324.256	-9.9
324.469	4.44
324.683	16.73
324.896	-9.9
325.109	115.03
325.322	41.3
325.535	102.74
325.748	88.4
325.962	49.49
326.175	63.83
326.388	22.87
326.601	88.4
326.814	110.93
327.027	90.45
327.24	94.55
327.453	16.73
327.666	88.4
327.879	53.59
328.092	69.97
328.305	90.45
328.518	61.78
328.731	-20.14
328.944	14.68
329.157	82.26
329.37	12.63
329.583	151.89
329.796	121.17
330.009	24.92
330.222	41.3
330.435	94.55
330.648	78.16
330.861	33.11
331.073	43.35
331.286	49.49
331.499	98.64
331.712	-40.62
331.925	143.7
332.138	82.26
332.35	0.34
332.563	16.73
332.776	20.82
332.989	-40.62
333.202	-3.75
333.414	33.11
333.627	-20.14
333.84	59.73
334.053	33.11
334.265	24.92
334.478	78.16
334.691	0.34
334.903	29.01
335.116	94.55
335.329	72.02
335.541	55.64
335.754	147.8
335.966	92.5
336.179	29.01
336.392	45.4
336.604	88.4
336.817	110.93
337.029	104.79
337.242	88.4
337.454	90.45
337.667	37.2
337.88	84.31
338.092	143.7
338.305	94.55
338.517	47.44
338.729	94.55
338.942	129.36
339.154	-3.75
339.367	57.68
339.579	4.44
339.792	39.25
340.004	47.44
340.217	55.64
340.429	106.84
340.641	-26.28
340.854	61.78
341.066	117.08
341.278	33.11
341.491	117.08
341.703	115.03
341.915	94.55
342.128	135.51
342.34	-44.71
342.552	29.01
342.764	6.49
342.977	20.82
343.189	102.74
343.401	78.16
343.613	4.44
343.826	53.59
344.038	90.45
344.25	57.68
344.462	67.92
344.674	37.2
344.886	55.64
345.099	49.49
345.311	39.25
345.523	35.16
345.735	-11.95
345.947	80.21
346.159	100.69
346.371	65.88
346.583	86.36
346.795	176.47
347.007	55.64
347.219	55.64
347.431	65.88
347.643	108.88
347.855	4.44
348.067	121.17
348.279	31.06
348.491	-57
348.703	14.68
348.915	84.31
349.127	57.68
349.339	41.3
349.551	47.44
349.763	33.11
349.975	82.26
350.187	53.59
350.399	43.35
350.61	143.7
350.822	6.49
351.034	22.87
351.246	100.69
351.458	78.16
351.669	49.49
351.881	155.99
352.093	94.55
352.305	69.97
352.517	55.64
352.728	53.59
352.94	57.68
353.152	133.46
353.363	22.87
353.575	131.41
353.787	112.98
353.999	88.4
354.21	119.12
354.422	6.49
354.633	-16.04
354.845	96.6
355.057	61.78
355.268	74.07
355.48	69.97
355.692	108.88
355.903	63.83
356.115	47.44
356.326	-26.28
356.538	78.16
356.749	26.96
356.961	31.06
357.172	31.06
357.384	112.98
357.595	104.79
357.807	-11.95
358.018	53.59
358.23	6.49
358.441	112.98
358.653	72.02
358.864	20.82
359.075	127.32
359.287	51.54
359.498	127.32
359.709	78.16
359.921	29.01
360.132	69.97
360.344	110.93
360.555	20.82
360.766	53.59
360.977	119.12
361.189	20.82
361.4	61.78
361.611	69.97
361.823	12.63
362.034	45.4
362.245	55.64
362.456	92.5
362.667	80.21
362.879	12.63
363.09	37.2
363.301	106.84
363.512	31.06
363.723	55.64
363.935	51.54
364.146	112.98
364.357	4.44
364.568	65.88
364.779	61.78
364.99	35.16
365.201	49.49
365.412	180.56
365.623	14.68
365.834	61.78
366.045	69.97
366.256	94.55
366.467	92.5
366.678	31.06
366.889	78.16
367.1	29.01
367.311	72.02
367.522	94.55
367.733	63.83
367.944	137.56
368.155	37.2
368.366	180.56
368.577	20.82
368.788	67.92
368.999	72.02
369.209	-3.75
369.42	115.03
369.631	196.95
369.842	86.36
370.053	94.55
370.264	51.54
370.474	-3.75
370.685	43.35
370.896	74.07
371.107	94.55
371.317	53.59
371.528	121.17
371.739	133.46
371.95	69.97
372.16	139.6
372.371	57.68
372.582	-18.09
372.792	24.92
373.003	72.02
373.214	49.49
373.424	123.22
373.635	-3.75
373.846	53.59
374.056	10.58
374.267	55.64
374.477	78.16
374.688	86.36
374.898	39.25
375.109	39.25
375.319	88.4
375.53	119.12
375.74	61.78
375.951	137.56
376.161	61.78
376.372	201.04
376.582	47.44
376.793	86.36
377.003	8.53
377.214	88.4
377.424	119.12
377.635	133.46
377.845	45.4
378.055	112.98
378.266	45.4
378.476	127.32
378.686	121.17
378.897	-9.9
379.107	78.16
379.317	117.08
379.528	-28.33
379.738	78.16
379.948	24.92
380.158	69.97
380.369	94.55
380.579	104.79
380.789	12.63
380.999	43.35
381.21	92.5
381.42	192.85
381.63	-20.14
381.84	53.59
382.05	74.07
382.261	98.64
382.471	102.74
382.681	123.22
382.891	110.93
383.101	53.59
383.311	74.07
383.521	143.7
383.731	98.64
383.941	78.16
384.151	37.2
384.361	55.64
384.571	129.36
384.781	102.74
384.991	172.37
385.201	80.21
385.411	59.73
385.621	37.2
385.831	92.5
386.041	49.49
386.251	61.78
386.461	121.17
386.671	49.49
386.881	119.12
387.091	29.01
387.301	178.51
387.511	61.78
387.72	55.64
387.93	82.26
388.14	4.44
388.35	102.74
388.56	80.21
388.769	102.74
388.979	102.74
389.189	37.2
389.399	72.02
389.609	123.22
389.818	102.74
390.028	35.16
390.238	98.64
390.447	45.4
390.657	102.74
390.867	53.59
391.076	69.97
391.286	121.17
391.496	72.02
391.705	74.07
391.915	65.88
392.125	78.16
392.334	49.49
392.544	127.32
392.753	119.12
392.963	29.01
393.172	41.3
393.382	80.21
393.591	209.23
393.801	76.12
394.01	151.89
394.22	123.22
394.429	147.8
394.639	127.32
394.848	145.75
395.058	106.84
395.267	151.89
395.477	88.4
395.686	155.99
395.895	178.51
396.105	168.27
396.314	168.27
396.524	147.8
396.733	69.97
396.942	135.51
397.152	217.43
397.361	176.47
397.57	137.56
397.78	192.85
397.989	153.94
398.198	258.39
398.407	184.66
398.617	145.75
398.826	158.03
399.035	147.8
399.244	180.56
399.453	102.74
399.663	201.04
399.872	174.42
400.081	186.71
400.29	221.52
400.499	168.27
400.708	205.14
400.917	166.23
401.127	176.47
401.336	78.16
401.545	227.67
401.754	239.95
401.963	137.56
402.172	160.08
402.381	110.93
402.59	266.58
402.799	227.67
403.008	213.33
403.217	172.37
403.426	282.96
403.635	121.17
403.844	166.23
404.053	266.58
404.262	174.42
404.471	311.63
404.68	307.54
404.888	221.52
405.097	217.43
405.306	217.43
405.515	252.24
405.724	203.09
405.933	233.81
406.142	315.73
406.35	348.5
406.559	282.96
406.768	299.34
406.977	350.54
407.185	317.78
407.394	344.4
407.603	332.11
407.812	309.58
408.02	340.3
408.229	350.54
408.438	317.78
408.646	317.78
408.855	454.99
409.064	495.95
409.272	389.46
409.481	381.26
409.69	360.78
409.898	520.53
410.107	508.24
410.315	450.89
410.524	457.04
410.733	553.29
410.941	565.58
411.15	672.08
411.358	659.79
411.567	618.83
411.775	667.98
411.984	610.64
412.192	747.85
412.401	706.89
412.609	889.16
412.818	790.86
413.026	813.38
413.234	815.43
413.443	807.24
413.651	885.06
413.86	926.02
414.068	1036.61
414.276	938.31
414.485	1069.38
414.693	1118.53
414.901	1147.2
415.11	1112.39
415.318	1136.96
415.526	1202.5
415.734	1227.07
415.943	1327.43
416.151	1382.72
416.359	1364.29
416.567	1409.34
416.776	1460.54
416.984	1595.71
417.192	1726.78
417.4	1630.52
417.608	1634.62
417.817	1775.93
418.025	1718.59
418.233	1925.43
418.441	1954.1
418.649	2064.69
418.857	2160.95
419.065	2169.14
419.273	2122.04
419.481	2265.39
419.689	2371.89
419.897	2396.46
420.105	2550.06
420.313	2625.84
420.521	2734.38
420.729	2660.65
420.937	2797.87
421.145	2918.7
421.353	3047.72
421.561	3227.94
421.769	3207.46
421.977	3399.97
422.185	3420.45
422.393	3641.63
422.601	3727.64
422.809	3848.47
423.017	3799.32
423.224	3957.02
423.432	4215.06
423.64	4268.31
423.848	4550.93
424.056	4446.48
424.263	4710.67
424.471	4706.57
424.679	4833.55
424.887	5187.85
425.094	5169.41
425.302	5366.02
425.51	5507.33
425.718	5634.3
425.925	5560.58
426.133	5953.79
426.341	6340.85
426.548	6695.15
426.756	6551.79
426.964	6627.57
427.171	7053.55
427.379	7141.61
427.586	7184.62
427.794	7508.19
428.001	7837.92
428.209	8233.18
428.417	7977.18
428.624	8685.78
428.832	8730.83
429.039	8788.18
429.247	8499.41
429.454	9490.63
429.662	10039.48
429.869	9404.61
430.076	9990.33
430.284	9638.08
430.491	10297.53
430.699	10703.03
430.906	10666.16
431.114	11126.96
431.321	11372.71
431.528	11739.3
431.736	12152.99
431.943	12722.32
432.15	12427.42
432.358	12601.49
432.565	13222.03
432.772	13353.1
432.979	13979.78
433.187	14219.39
433.394	14139.52
433.601	15280.24
433.808	15247.47
434.016	15126.64
434.223	15583.34
434.43	16521.31
434.637	16435.29
434.844	17160.27
435.052	17752.13
435.259	17723.46
435.466	17891.4
435.673	17543.24
435.88	18522.17
436.087	19687.46
436.294	19578.92
436.501	19234.86
436.708	19642.41
436.915	19947.56
437.122	21166.1
437.329	21123.09
437.537	21829.64
437.743	22065.16
437.95	21792.78
438.157	22849.53
438.364	23687.15
438.571	23568.37
438.778	23846.89
438.985	25937.87
439.192	24889.31
439.399	26036.17
439.606	25374.67
439.813	26748.86
440.02	28317.61
440.227	27998.12
440.433	27525.04
440.64	28297.13
440.847	28264.36
441.054	29013.91
441.261	30756.74
441.467	30250.89
441.674	30697.34
441.881	31948.65
442.088	31874.93
442.294	32024.43
442.501	32634.72
442.708	33019.74
442.914	34346.83
443.121	35579.7
443.328	34715.46
443.534	37252.89
443.741	36247.34
443.948	35174.2
444.154	38270.73
444.361	38240.01
444.568	38430.47
444.774	38293.26
444.981	38909.7
445.187	39462.65
445.394	41516.76
445.6	40933.09
445.807	44318.39
446.013	42712.78
446.22	43687.61
446.426	45530.78
446.633	45588.13
446.839	47404.67
447.046	45336.23
447.252	47406.72
447.459	47791.74
447.665	47472.26
447.871	49522.27
448.078	51289.67
448.284	48873.07
448.491	50462.29
448.697	52342.33
448.903	53102.12
449.11	52813.36
449.316	52618.8
449.522	53771.81
449.728	54857.23
449.935	54984.21
450.141	55524.87
450.347	55805.44
450.553	54345.24
450.76	54926.86
450.966	56821.23
451.172	56208.89
451.378	57392.62
451.584	56704.5
451.791	57988.58
451.997	57591.27
452.203	58443.23
452.409	58527.19
452.615	58459.61
452.821	56382.97
453.027	55985.66
453.233	58463.71
453.44	55772.67
453.646	56905.2
453.852	56804.85
454.058	57880.03
454.264	56356.35
454.47	57312.75
454.676	56204.8
454.882	58090.97
455.088	53354.02
455.294	53839.39
455.5	54754.83
455.705	55105.04
455.911	53386.79
456.117	51977.79
456.323	51379.78
456.529	48963.18
456.735	51125.83
456.941	49800.8
457.147	49104.49
457.352	47695.49
457.558	46612.11
457.764	47353.47
457.97	45926.04
458.176	45428.38
458.381	45117.09
458.587	42811.08
458.793	43077.32
458.999	40685.29
459.204	43128.52
459.41	42315.47
459.616	39927.54
459.821	39878.39
460.027	39632.63
460.233	38784.77
460.438	36951.84
460.644	37392.15
460.85	35768.12
461.055	34987.84
461.261	35034.94
461.466	32509.8
461.672	31477.62
461.878	33560.41
462.083	31410.04
462.289	30508.93
462.494	30762.88
462.7	29292.44
462.905	28575.65
463.111	29300.63
463.316	29761.42
463.522	28882.84
463.727	28919.71
463.932	28727.2
464.138	28479.39
464.343	28503.97
464.549	27985.83
464.754	28751.77
464.959	28567.46
465.165	28270.5
465.37	27060.15
465.575	26044.36
465.781	27494.32
465.986	27520.95
466.191	26273.73
466.397	26015.69
466.602	24680.41
466.807	25602
467.012	25774.03
467.218	25874.38
467.423	25214.93
467.628	25505.74
467.833	26288.07
468.038	25423.83
468.244	24416.22
468.449	25425.87
468.654	24950.74
468.859	24498.14
469.064	24438.75
469.269	23486.45
469.474	23713.77
469.679	24119.27
469.885	23609.33
470.09	23615.47
470.295	23347.19
470.5	22884.34
470.705	23222.26
470.91	22556.67
471.115	22614.01
471.32	23029.75
471.525	22532.09
471.73	22212.61
471.935	21940.23
472.139	21147.67
472.344	21704.71
472.549	21358.61
472.754	21407.76
472.959	20768.79
473.164	20228.13
473.369	20084.77
473.574	20721.69
473.778	20238.37
473.983	20084.77
474.188	20320.29
474.393	19322.93
474.598	19232.82
474.802	19007.54
475.007	18982.96
475.212	19085.36
475.417	18475.07
475.621	18118.72
475.826	18542.65
476.031	18006.08
476.235	17758.28
476.44	18012.23
476.645	17494.09
476.849	17879.11
477.054	17551.43
477.259	17229.9
477.463	17041.49
477.668	16812.12
477.872	17160.27
478.077	16617.56
478.282	16427.1
478.486	16443.48
478.691	16115.81
478.895	16293.98
479.1	16167.01
479.304	16308.32
479.509	15491.18
479.713	15994.98
479.918	15261.8
480.122	15251.56
480.326	15738.98
480.531	15503.46
480.735	15325.29
480.94	15157.36
481.144	15661.16
481.348	15061.1
481.553	15044.72
481.757	14850.16
481.961	15231.08
482.166	15054.96
482.37	14956.66
482.574	14575.73
482.778	14700.66
482.983	14927.99
483.187	14919.79
483.391	15136.88
483.595	14807.16
483.8	14628.98
484.004	14643.32
484.208	15081.58
484.412	14946.42
484.616	14884.98
484.821	14678.13
485.025	14704.76
485.229	15007.86
485.433	14733.43
485.637	14923.89
485.841	14694.52
486.045	14776.44
486.249	14694.52
486.453	14481.53
486.657	14626.93
486.861	14844.02
487.065	14559.35
487.269	14792.82
487.473	14571.64
487.677	15005.81
487.881	14715
488.085	14751.86
488.289	14942.32
488.493	14680.18
488.697	14819.44
488.901	14782.58
489.105	14905.46
489.309	14956.66
489.512	14815.35
489.716	14774.39
489.92	14821.49
490.124	14794.87
490.328	15226.99
490.531	14987.38
490.735	15114.35
490.939	15014
491.143	15231.08
491.346	15204.46
491.55	15149.17
491.754	15093.87
491.958	15575.14
492.161	15216.75
492.365	15396.97
492.569	15321.2
492.772	15519.85
492.976	15507.56
493.18	15763.56
493.383	15763.56
493.587	16025.7
493.79	15812.71
493.994	15724.65
494.197	16124
494.401	16273.5
494.605	15935.59
494.808	16275.55
495.012	16367.71
495.215	16543.83
495.419	16519.26
495.622	16627.8
495.825	16965.71
496.029	16736.34
496.232	17186.9
496.436	17119.31
496.639	17610.82
496.843	17293.39
497.046	17748.04
497.249	17799.24
497.453	17709.13
497.656	18110.53
497.859	18221.12
498.063	18182.21
498.266	18747.45
498.469	18657.34
498.673	18694.2
498.876	19116.08
499.079	19224.62
499.282	19271.73
499.485	19722.28
499.689	19654.7
499.892	19970.08
500.095	20025.38
500.298	20475.93
500.501	20484.12
500.705	20901.91
500.908	21020.69
501.111	21243.92
501.314	21493.77
501.517	21561.36
501.72	22011.91
501.923	21841.93
502.126	22020.1
502.329	22374.4
502.532	23169.01
502.735	22935.54
502.938	23228.4
503.141	23193.59
503.344	23767.02
503.547	23726.06
503.75	24160.23
503.953	24438.75
504.156	24653.79
504.359	24856.54
504.562	24895.45
504.765	25575.38
504.968	25776.08
505.17	25714.64
505.373	25819.08
505.576	26361.8
505.779	26601.41
505.982	26941.37
506.185	27115.45
506.387	27221.94
506.59	27615.15
506.793	28305.32
506.996	27932.59
507.198	28649.38
507.401	28512.16
507.604	29040.54
507.807	29728.66
508.009	29556.63
508.212	30017.42
508.415	30279.56
508.617	30433.16
508.82	30400.39
509.022	30545.8
509.225	31459.19
509.428	31537.01
509.63	31344.5
509.833	31807.34
510.035	32831.33
510.238	32595.81
510.44	33066.84
510.643	33367.9
510.845	33824.59
511.048	33521.49
511.25	34152.27
511.453	34340.68
511.655	35249.98
511.858	34998.08
512.06	35256.12
512.262	35987.25
512.465	36171.57
512.667	36273.96
512.87	36755.24
513.072	36740.9
513.274	37480.22
513.477	37357.34
513.679	37898
513.881	38119.18
514.084	38477.58
514.286	38377.23
514.488	39380.73
514.69	39982.84
514.893	39876.34
515.095	39741.17
515.297	40113.91
515.499	40691.43
515.701	40773.35
515.904	41359.07
516.106	41920.21
516.308	42163.92
516.51	42559.18
516.712	42716.87
516.914	42991.3
517.116	43329.22
517.318	43497.15
517.52	44007.09
517.722	43861.69
517.925	44451.5
518.127	44654.25
518.329	45483.68
518.531	44848.81
518.733	45983.38
518.935	45981.34
519.136	45842.07
519.338	46784.14
519.54	46933.64
519.742	47333
519.944	46974.6
520.146	48252.53
520.348	47777.4
520.55	48244.34
520.752	48612.98
520.954	49057.38
521.155	48664.17
521.357	49282.66
521.559	49645.15
521.761	50226.77
521.963	50036.31
522.164	50312.79
522.366	50306.65
522.568	50773.58
522.77	51115.59
522.971	52028.99
523.173	51447.36
523.375	51699.26
523.576	51756.61
523.778	51801.66
523.98	52287.03
524.181	52414.01
524.383	52209.21
524.584	52977.2
524.786	53290.54
524.988	53184.04
525.189	53442.09
525.391	53855.78
525.592	53282.34
525.794	54240.79
525.995	53925.41
526.197	53765.66
526.398	54126.11
526.6	53962.27
526.801	54629.91
527.003	54591
527.204	54574.61
527.406	54969.87
527.607	54672.92
527.808	55053.84
528.01	54394.39
528.211	54365.72
528.412	55633.41
528.614	55309.83
528.815	55025.17
529.016	55674.37
529.218	55141.9
529.419	55549.45
529.62	55670.28
529.822	54986.25
530.023	55000.59
530.224	55189
530.425	55184.91
530.626	54580.76
530.828	54984.21
531.029	56063.49
531.23	55248.39
531.431	55467.53
531.632	55756.29
531.833	55789.06
532.035	55037.45
532.236	55404.04
532.437	55934.46
532.638	54760.98
532.839	55934.46
533.04	55625.22
533.241	54875.66
533.442	55686.66
533.643	55621.12
533.844	55293.45
534.045	55436.81
534.246	54715.92
534.447	55311.88
534.648	55463.43
534.849	55387.66
535.05	55070.22
535.251	54959.63
535.451	54791.7
535.652	55154.19
535.853	54838.8
536.054	55002.64
536.255	54935.06
536.456	54535.7
536.657	55256.59
536.857	54494.74
537.058	54599.19
537.259	54771.22
537.46	54918.67
537.66	54234.65
537.861	54709.78
538.062	54130.2
538.263	54763.03
538.463	54263.32
538.664	54507.03
538.865	54634
539.065	54830.61
539.266	53984.8
539.466	54738.45
539.667	54124.06
539.868	54844.94
540.068	54760.98
540.269	54351.38
540.469	54490.65
540.67	53767.71
540.87	54056.48
541.071	54126.11
541.271	54507.03
541.472	54074.91
541.672	53943.84
541.873	54253.08
542.073	53753.38
542.274	54326.81
542.474	53796.38
542.675	53546.53
542.875	54132.25
543.075	53818.91
543.276	53464.61
543.476	54402.58
543.676	53724.71
543.877	53857.82
544.077	53870.11
544.277	54003.23
544.478	53999.13
544.678	54281.75
544.878	54050.33
545.078	53708.32
545.279	53386.79
545.479	53134.89
545.679	54001.18
545.879	53915.17
546.079	53567.01
546.28	53548.58
546.48	53593.64
546.68	53642.79
546.88	53784.1
547.08	53376.55
547.28	53149.23
547.48	53257.77
547.68	53726.75
547.88	53190.19
548.081	53302.82
548.281	53698.08
548.481	52860.46
548.681	53577.25
548.881	53685.79
549.081	53222.95
549.28	53544.48
549.48	53896.73
549.68	53487.14
549.88	53790.24
550.08	53200.43
550.28	53345.83
550.48	53337.64
550.68	54013.47
550.88	53423.65
551.08	53247.53
551.279	53388.84
551.479	52952.62
551.679	53427.75
551.879	53468.71
552.079	53992.99
552.278	53298.73
552.478	53722.66
552.678	53671.46
552.878	54009.37
553.077	53712.42
553.277	53032.49
553.477	54083.1
553.676	53917.21
553.876	53501.48
554.076	53780
554.275	53083.69
554.475	52905.52
554.674	53294.63
554.874	53677.6
555.074	53536.29
555.273	53995.04
555.473	53618.21
555.672	53700.13
555.872	53626.4
556.071	53892.64
556.271	53954.08
556.47	53786.14
556.67	53599.78
556.869	53818.91
557.068	53904.93
557.268	53362.22
557.467	53407.27
557.667	53485.09
557.866	53792.29
558.065	53452.33
558.265	53358.12
558.464	53149.23
558.663	54103.58
558.863	53437.99
559.062	54044.19
559.261	53356.07
559.461	54070.81
559.66	52809.26
559.859	53499.43
560.058	53405.22
560.258	53306.92
560.457	53245.48
560.656	53388.84
560.855	53382.69
561.054	53130.79
561.253	53055.02
561.453	53481
561.652	53571.11
561.851	53526.05
562.05	53435.94
562.249	53028.4
562.448	53591.59
562.647	53317.16
562.846	53233.19
563.045	53421.61
563.244	52868.65
563.443	53564.96
563.642	52504.12
563.841	53315.11
564.04	52926
564.239	53132.84
564.438	52801.07
564.637	53413.41
564.836	53282.34
565.035	52508.21
565.234	52989.48
565.432	52733.49
565.631	52864.56
565.83	52411.96
566.029	52332.09
566.228	52043.32
566.427	52358.71
566.625	52287.03
566.824	51893.82
567.023	52479.54
567.222	51674.69
567.42	52272.7
567.619	52272.7
567.818	51633.73
568.016	52078.14
568.215	52385.33
568.414	51818.05
568.612	51826.24
568.811	51861.05
569.01	51721.79
569.208	51084.87
569.407	51656.26
569.605	50945.61
569.804	51754.56
570.002	51117.64
570.201	51035.72
570.4	50943.56
570.598	50765.39
570.797	50662.99
570.995	50857.55
571.193	50390.61
571.392	50951.76
571.59	50284.12
571.789	50570.83
571.987	50202.2
572.186	50388.56
572.384	50077.27
572.582	50277.97
572.781	50320.98
572.979	49876.57
573.177	49829.47
573.376	49950.3
573.574	49464.93
573.772	49806.94
573.971	49419.88
574.169	49413.73
574.367	49018.47
574.565	49497.7
574.763	49380.96
574.962	48932.46
575.16	48662.13
575.358	49280.61
575.556	48295.54
575.754	48954.99
575.952	48133.75
576.151	48543.34
576.349	47965.82
576.547	47793.79
576.745	48195.19
576.943	48350.84
577.141	47537.79
577.339	48094.84
577.537	48137.85
577.735	47619.71
577.933	47322.76
578.131	47376
578.329	47351.43
578.527	46587.53
578.725	46941.83
578.923	47197.83
579.121	46798.48
579.319	46831.24
579.516	46737.04
579.714	46456.46
579.912	46360.21
580.11	46444.18
580.308	46493.33
580.506	46325.39
580.704	45455.01
580.901	46261.91
581.099	46182.04
581.297	45479.58
581.495	45526.69
581.692	45590.17
581.89	45409.95
582.088	45530.78
582.285	45399.71
582.483	45538.97
582.681	45432.48
582.878	44983.97
583.076	44816.04
583.274	45473.44
583.471	44435.12
583.669	44787.37
583.866	44426.93
584.064	44617.39
584.262	44234.42
584.459	44826.28
584.657	44080.82
584.854	44730.03
585.052	43736.76
585.249	44107.44
585.447	44218.03
585.644	43517.63
585.841	43798.2
586.039	43898.55
586.236	43157.19
586.434	43601.6
586.631	43189.95
586.828	43220.67
587.026	43048.64
587.223	42829.51
587.42	42915.53
587.618	43122.37
587.815	42622.67
588.012	42264.27
588.21	42698.44
588.407	43192
588.604	42342.1
588.801	42297.04
588.999	42215.12
589.196	42073.81
589.393	41789.14
589.59	41785.05
589.787	41520.86
589.984	41205.47
590.182	41232.1
590.379	41645.79
590.576	41228
590.773	41332.45
590.97	41158.37
591.167	40793.83
591.364	40967.91
591.561	40969.96
591.758	40644.33
591.955	40748.78
592.152	41238.24
592.349	40158.96
592.546	40685.29
592.743	40986.34
592.94	39788.28
593.137	40550.12
593.334	40478.44
593.531	40027.89
593.727	40208.11
593.924	40290.03
594.121	39837.43
594.318	40226.54
594.515	39841.53
594.712	39993.08
594.908	39538.43
595.105	39902.96
595.302	39233.28
595.499	39556.86
595.696	39442.17
595.892	39409.4
596.089	39329.53
596.286	39231.23
596.482	39327.49
596.679	39044.87
596.876	39216.89
597.072	38979.33
597.269	39104.26
597.466	38717.19
597.662	38715.14
597.859	38819.59
598.055	39116.54
598.252	38545.16
598.448	38358.8
598.645	38194.96
598.841	38360.84
599.038	38373.13
599.234	38463.24
599.431	38422.28
599.627	38219.53
599.824	38663.94
600.02	37945.11
600.217	38143.76
600.413	38086.42
600.609	37830.42
600.806	38268.69
601.002	38344.46
601.198	37752.6
601.395	37588.76
601.591	37775.12
601.787	37908.24
601.984	37558.04
602.18	38006.55
602.376	37861.14
602.572	37703.45
602.769	37852.95
602.965	37631.77
603.161	37945.11
603.357	37388.06
603.553	37619.48
603.75	37461.79
603.946	37136.16
604.142	37537.56
604.338	37261.08
604.534	37302.04
604.73	37375.77
604.926	37213.98
605.122	37349.15
605.318	37144.35
605.514	37136.16
605.71	36996.9
605.906	36974.37
606.102	36990.75
606.298	37242.65
606.494	37179.17
606.69	37138.21
606.886	37154.59
607.082	36685.61
607.278	37308.19
607.474	36714.28
607.67	37224.22
607.866	36745
608.062	37199.65
608.257	37189.41
608.453	36962.08
608.649	37099.3
608.845	36998.94
609.041	37148.45
609.236	37271.32
609.432	36757.28
609.628	36757.28
609.824	36874.02
610.019	36931.36
610.215	37285.66
610.411	37447.45
610.606	36677.41
610.802	37451.55
610.998	37023.52
611.193	37062.43
611.389	37078.82
611.584	37269.28
611.78	36595.49
611.976	37044
612.171	37271.32
612.367	36812.58
612.562	36757.28
612.758	36855.59
612.953	36714.28
613.149	36896.55
613.344	36745
613.539	37773.08
613.735	36937.51
613.93	37136.16
614.126	36802.34
614.321	36921.12
614.517	36927.27
614.712	36699.94
614.907	36593.45
615.103	36998.94
615.298	37029.66
615.493	37168.93
615.688	36337.45
615.884	37490.46
616.079	36577.06
616.274	37050.14
616.47	36894.5
616.665	36745
616.86	36357.93
617.055	36374.31
617.25	36439.85
617.445	36634.41
617.641	35987.25
617.836	36423.47
618.031	36106.03
618.226	36532.01
618.421	36400.94
618.616	36740.9
618.811	35667.77
619.006	36540.2
619.201	35557.17
619.396	36095.79
619.591	35575.61
619.786	35809.07
619.981	35454.78
620.176	35487.54
620.371	35276.6
620.566	35440.44
620.761	34826.05
620.956	34881.35
621.151	34946.88
621.346	34750.28
621.541	34340.68
621.735	34709.32
621.93	34045.77
622.125	34477.9
622.32	33836.88
622.515	33992.53
622.709	33781.59
622.904	33910.61
623.099	33644.37
623.294	33816.4
623.488	33302.36
623.683	33611.6
623.878	32892.77
624.072	33326.94
624.267	33111.9
624.462	32892.77
624.656	32477.03
624.851	32685.92
625.046	31885.17
625.24	31975.28
625.435	31825.78
625.629	31502.2
625.824	31465.33
626.018	31508.34
626.213	30513.03
626.407	31149.95
626.602	30965.63
626.796	30908.29
626.991	30549.89
627.185	30115.72
627.38	30148.49
627.574	30408.58
627.768	29769.62
627.963	30150.54
628.157	29652.88
628.352	29632.4
628.546	29403.03
628.74	29327.25
628.935	29271.96
629.129	29259.67
629.323	28299.17
629.517	28923.8
629.712	28735.39
629.906	28542.88
630.1	28053.42
630.294	28522.4
630.489	28084.14
630.683	28028.84
630.877	27758.51
631.071	27387.83
631.265	28100.52
631.459	27439.03
631.653	27254.71
631.848	27402.16
632.042	27113.4
632.236	27254.71
632.43	26548.16
632.624	26662.85
632.818	26566.59
633.012	26220.49
633.206	26263.49
633.4	26277.83
633.594	25761.74
633.788	25968.59
633.982	25970.63
634.176	25749.45
634.369	25505.74
634.563	25231.32
634.757	25366.48
634.951	25192.4
635.145	25190.36
635.339	25327.57
635.533	24842.2
635.726	24909.79
635.92	24578.01
636.114	24631.26
636.308	24653.79
636.501	24129.51
636.695	24338.4
636.889	23855.08
637.083	23814.12
637.276	23578.61
637.47	23611.37
637.664	23375.86
637.857	23152.63
638.051	23592.94
638.244	23017.46
638.438	22939.64
638.632	22745.08
638.825	22800.38
639.019	22638.59
639.212	22657.02
639.406	22484.99
639.599	22202.37
639.793	22384.64
639.986	21839.88
640.18	22231.04
640.373	21997.57
640.567	21676.04
640.76	21561.36
640.954	21618.7
641.147	21219.35
641.34	21544.97
641.534	21024.79
641.727	21000.21
641.92	20889.62
642.114	20879.38
642.307	20488.22
642.5	20615.19
642.694	20144.16
642.887	20295.71
643.08	20416.54
643.273	20201.51
643.467	19968.04
643.66	20011.04
643.853	19771.43
644.046	19578.92
644.239	19529.77
644.432	19300.4
644.626	19357.74
644.819	19146.8
645.012	19247.15
645.205	19175.47
645.398	19093.55
645.591	18765.88
645.784	18765.88
645.977	18493.5
646.17	18499.64
646.363	18257.98
646.556	18053.19
646.749	18128.96
646.942	18221.12
647.135	18075.71
647.328	17932.36
647.521	18024.51
647.714	17565.77
647.907	17608.78
648.099	17430.6
648.292	17377.36
648.485	17293.39
648.678	17082.45
648.871	17111.12
649.064	17121.36
649.256	17008.72
649.449	16912.47
649.642	16570.46
649.835	16717.91
650.027	16607.32
650.22	16459.87
650.413	16330.84
650.605	16498.78
650.798	16296.03
650.991	16111.71
651.183	16195.68
651.376	16023.65
651.568	15847.52
651.761	15865.96
651.954	15827.04
652.146	15710.31
652.339	15511.66
652.531	15587.43
652.724	15292.52
652.916	15036.53
653.109	15407.21
653.301	15145.07
653.494	15321.2
653.686	14960.75
653.879	15167.6
654.071	14995.57
654.263	14678.13
654.456	14858.35
654.648	14717.04
654.84	14569.59
655.033	14381.18
655.225	14387.32
655.417	14252.16
655.61	14352.51
655.802	14151.81
655.994	14112.89
656.186	14184.57
656.379	13727.88
656.571	13811.84
656.763	13652.1
656.955	13670.53
657.148	13760.64
657.34	13670.53
657.532	13478.02
657.724	13392.01
657.916	13336.71
658.108	13371.53
658.3	13086.86
658.492	13129.87
658.684	12972.18
658.876	13041.81
659.068	13158.54
659.26	12906.64
659.452	13080.72
659.644	12861.59
659.836	12318.87
660.028	12736.66
660.22	12531.86
660.412	12454.04
660.604	12185.76
660.796	12193.95
660.988	12249.24
661.18	12079.26
661.372	12148.89
661.563	12245.15
661.755	12060.83
661.947	11884.7
662.139	11901.09
662.331	11739.3
662.522	11708.58
662.714	11747.49
662.906	11538.6
663.097	11514.02
663.289	11219.11
663.481	11284.65
663.673	11272.36
663.864	11452.58
664.056	11157.68
664.247	11149.48
664.439	10920.11
664.631	11071.66
664.822	11194.54
665.014	11028.65
665.205	11018.41
665.397	10909.87
665.588	10786.99
665.78	10768.56
665.971	10539.19
666.163	10743.99
666.354	10539.19
666.546	10535.09
666.737	10375.35
666.929	10637.49
667.12	10483.89
667.311	10231.99
667.503	9984.19
667.694	10100.92
667.885	10117.31
668.077	10135.74
668.268	9867.45
668.459	9916.61
668.651	9818.3
668.842	9728.19
669.033	9726.14
669.224	9597.12
669.416	9978.05
669.607	9728.19
669.798	9730.24
669.989	9648.32
670.18	9500.87
670.371	9486.53
670.563	9468.1
670.754	9507.01
670.945	9017.55
671.136	9175.24
671.327	9324.74
671.518	9261.26
671.709	9181.39
671.9	9263.3
672.091	8972.49
672.282	9158.86
672.473	9023.69
672.664	8945.87
672.855	8843.47
673.046	8755.41
673.237	8904.91
673.428	8839.37
673.619	8745.17
673.809	8921.29
674	8700.11
674.191	8581.33
674.382	8673.49
674.573	8724.69
674.764	8626.39
674.954	8437.97
675.145	8429.78
675.336	8521.94
675.527	8417.49
675.717	8460.5
675.908	8089.82
676.099	8315.09
676.289	8358.1
676.48	8298.71
676.671	8216.79
676.861	8204.5
677.052	8216.79
677.243	8040.67
677.433	8110.3
677.624	8091.87
677.814	7975.13
678.005	7885.02
678.195	8122.59
678.386	7909.6
678.576	7760.09
678.767	7917.79
678.957	7880.93
679.148	7999.71
679.338	7909.6
679.529	7688.42
679.719	7786.72
679.909	7825.63
680.1	7645.41
680.29	7631.07
680.481	7522.53
680.671	7712.99
680.861	7704.8
681.052	7467.24
681.242	7442.66
681.432	7508.19
681.622	7461.09
681.813	7239.91
682.003	7461.09
682.193	7416.04
682.383	7487.72
682.573	7440.61
682.764	7295.21
682.954	7323.88
683.144	7233.77
683.334	7373.03
683.524	7338.21
683.714	7162.09
683.904	7262.44
684.094	7266.53
684.284	7172.33
684.474	7319.78
684.664	7387.36
684.854	7102.7
685.044	7088.36
685.234	6934.76
685.424	7063.79
685.614	6848.75
685.804	6863.08
685.994	7082.22
686.184	7049.45
686.374	6953.2
686.564	6705.39
686.753	6996.2
686.943	6922.48
687.133	6713.58
687.323	6799.6
687.513	6729.97
687.702	6631.66
687.892	6529.27
688.082	6439.16
688.272	6652.14
688.461	6600.94
688.651	6762.73
688.841	6492.4
689.03	6650.1
689.22	6516.98
689.41	6471.92
689.599	6349.04
689.789	6453.49
689.979	6369.52
690.168	6312.18
690.358	6371.57
690.547	6377.72
690.737	6293.75
690.926	6234.36
691.116	6129.91
691.305	6363.38
691.495	6209.78
691.684	6004.99
691.874	6287.61
692.063	6179.06
692.252	6109.43
692.442	6181.11
692.631	6095.1
692.82	6013.18
693.01	6168.82
693.199	5886.2
693.388	5812.48
693.578	5974.27
693.767	6011.13
693.956	5652.74
694.146	5726.46
694.335	5773.57
694.524	5783.81
694.713	5931.26
694.902	5689.6
695.092	5722.37
695.281	5699.84
695.47	5822.72
695.659	5576.96
695.848	5613.82
696.037	5710.08
696.226	5660.93
696.415	5533.95
696.604	5705.98
696.793	5452.03
696.982	5650.69
697.171	5560.58
697.36	5441.79
697.549	5349.64
697.738	5415.17
697.927	5409.03
698.116	5404.93
698.305	5386.5
698.494	5421.31
698.683	5394.69
698.872	5542.14
699.061	5263.62
699.25	5308.68
699.438	5452.03
699.627	5157.13
699.816	5318.92
700.005	5218.57
700.193	5251.33
700.382	5189.89
700.571	5179.65
700.76	5247.24
700.948	5146.89
701.137	5062.92
701.326	5331.2
701.514	5118.22
701.703	5044.49
701.892	4927.75
702.08	5206.28
702.269	5048.58
702.457	4952.33
702.646	5003.53
702.834	4878.6
703.023	4956.43
703.212	4993.29
703.4	4929.8
703.589	4800.78
703.777	4935.95
703.965	4786.44
704.154	4882.7
704.342	4839.69
704.531	4725.01
704.719	4673.81
704.907	4835.6
705.096	4804.88
705.284	4759.82
705.472	4659.47
705.661	4696.33
705.849	4606.22
706.037	4704.53
706.226	4526.35
706.414	4616.46
706.602	4606.22
706.79	4495.63
706.979	4583.7
707.167	4526.35
707.355	4370.71
707.543	4505.87
707.731	4442.39
707.919	4520.21
708.107	4354.32
708.296	4321.56
708.484	4333.84
708.672	4544.78
708.86	4307.22
709.048	4346.13
709.236	4362.51
709.424	4251.92
709.612	4364.56
709.8	4329.75
709.988	4342.04
710.176	4333.84
710.364	4286.74
710.551	4149.53
710.739	4397.33
710.927	4274.45
711.115	4145.43
711.303	4141.33
711.491	4190.49
711.679	3993.88
711.866	4137.24
712.054	4088.09
712.242	4004.12
712.43	4135.19
712.617	4108.57
712.805	3993.88
712.993	4043.03
713.181	3954.97
713.368	4059.42
713.556	3993.88
713.744	3830.04
713.931	3969.3
714.119	3885.34
714.306	3895.58
714.494	3830.04
714.682	3772.7
714.869	3793.18
715.057	3752.22
715.244	3725.6
715.432	3748.12
715.619	3899.67
715.807	3692.83
715.994	3799.32
716.182	3692.83
716.369	3641.63
716.556	3807.52
716.744	3600.67
716.931	3723.55
717.119	3760.41
717.306	3567.9
717.493	3539.23
717.681	3619.1
717.868	3610.91
718.055	3619.1
718.242	3580.19
718.43	3660.06
718.617	3574.05
718.804	3555.62
718.991	3471.65
719.179	3557.66
719.366	3537.18
719.553	3502.37
719.74	3424.55
719.927	3359.01
720.114	3348.77
720.301	3363.11
720.488	3365.15
720.676	3334.43
720.863	3422.5
721.05	3340.58
721.237	3389.73
721.424	3391.78
721.611	3332.39
721.798	3340.58
721.985	3240.23
722.172	3256.61
722.358	3330.34
722.545	3291.43
722.732	3293.48
722.919	3195.17
723.106	3305.76
723.293	3240.23
723.48	3168.55
723.667	3158.31
723.853	3254.56
724.04	3365.15
724.227	3182.88
724.414	3182.88
724.6	2994.47
724.787	3133.73
724.974	3019.05
725.161	3068.2
725.347	3068.2
725.534	3166.5
725.72	3068.2
725.907	2965.8
726.094	3060.01
726.28	3060.01
726.467	3051.81
726.653	2920.74
726.84	2978.09
727.027	3047.72
727.213	2828.59
727.4	3047.72
727.586	3100.97
727.773	2896.17
727.959	2916.65
728.145	2875.69
728.332	2881.83
728.518	2832.68
728.705	2955.56
728.891	2847.02
729.077	2681.13
729.264	2883.88
729.45	2883.88
729.636	2752.81
729.823	2863.4
730.009	2801.96
730.195	2902.31
730.382	2847.02
730.568	2773.29
730.754	2728.24
730.94	2658.6
731.126	2912.55
731.313	2707.76
731.499	2744.62
731.685	2773.29
731.871	2808.11
732.057	2724.14
732.243	2699.56
732.429	2638.13
732.615	2767.15
732.801	2691.37
732.987	2621.74
733.173	2703.66
733.359	2650.41
733.545	2601.26
733.731	2543.92
733.917	2617.65
734.103	2627.89
734.289	2634.03
734.475	2570.54
734.661	2658.6
734.847	2681.13
735.033	2568.49
735.219	2537.77
735.404	2531.63
735.59	2529.58
735.776	2433.33
735.962	2468.14
736.148	2498.86
736.333	2496.82
736.519	2380.08
736.705	2480.43
736.89	2494.77
737.076	2449.71
737.262	2298.16
737.447	2404.66
737.633	2441.52
737.819	2431.28
738.004	2412.85
738.19	2361.65
738.375	2423.09
738.561	2365.75
738.747	2339.12
738.932	2394.42
739.118	2435.38
739.303	2298.16
739.489	2341.17
739.674	2277.68
739.859	2201.91
740.045	2314.55
740.23	2390.32
740.416	2179.38
740.601	2201.91
740.786	2292.02
740.972	2249.01
741.157	2242.87
741.342	2197.81
741.528	2232.63
741.713	2208.05
741.898	2117.94
742.084	2142.52
742.269	2117.94
742.454	2279.73
742.639	2240.82
742.824	2136.37
743.01	2089.27
743.195	2152.76
743.38	2056.5
743.565	2036.02
743.75	2076.98
743.935	2140.47
744.12	2036.02
744.305	1962.3
744.49	1974.58
744.675	2009.4
744.86	2056.5
745.045	2036.02
745.23	2027.83
745.415	1900.86
745.6	2079.03
745.785	1837.37
745.97	2052.41
746.155	1945.91
746.34	1913.14
746.525	1904.95
746.71	1915.19
746.895	1886.52
747.079	1882.42
747.264	1855.8
747.449	1913.14
747.634	1923.38
747.819	1872.18
748.003	1671.48
748.188	1753.4
748.373	1866.04
748.557	1769.79
748.742	1745.21
748.927	1677.63
749.111	1808.7
749.296	1626.43
749.481	1661.24
749.665	1628.48
749.85	1661.24
750.034	1720.64
750.219	1712.44
750.404	1687.87
750.588	1642.81
750.773	1671.48
750.957	1626.43
751.141	1489.21
751.326	1581.37
751.51	1628.48
751.695	1595.71
751.879	1710.4
752.064	1519.93
752.248	1468.73
752.432	1694.01
752.617	1624.38
752.801	1485.12
752.985	1577.28
753.17	1577.28
753.354	1524.03
753.538	1575.23
753.722	1438.02
753.907	1478.97
754.091	1464.64
754.275	1472.83
754.459	1421.63
754.643	1339.71
754.828	1462.59
755.012	1352
755.196	1323.33
755.38	1364.29
755.564	1380.67
755.748	1401.15
755.932	1411.39
756.116	1374.53
756.3	1442.11
756.484	1294.66
756.668	1343.81
756.852	1249.6
757.036	1343.81
757.22	1239.36
757.404	1372.48
757.588	1265.99
757.772	1282.37
757.956	1130.82
758.14	1313.09
758.323	1229.12
758.507	1241.41
758.691	1237.31
758.875	1290.56
759.059	1249.6
759.242	1212.74
759.426	1200.45
759.61	1143.11
759.794	1147.2
759.977	1249.6
760.161	1278.27
760.345	1227.07
760.528	1091.91
760.712	1216.83
760.895	1161.54
761.079	979.27
761.263	1087.81
761.446	1108.29
761.63	1069.38
761.813	1130.82
761.997	1069.38
762.18	1184.07
762.364	1116.48
762.547	997.7
762.731	1153.35
762.914	1075.52
763.098	1036.61
763.281	1007.94
763.464	1032.52
763.648	1038.66
763.831	1005.89
764.015	1053
764.198	1136.96
764.381	1085.76
764.564	1048.9
764.748	1050.95
764.931	893.26
765.114	1061.19
765.297	1034.57
765.481	1106.24
765.664	1026.37
765.847	1012.04
766.03	1069.38
766.213	950.6
766.397	1014.09
766.58	930.12
766.763	979.27
766.946	913.74
767.129	1022.28
767.312	1016.13
767.495	983.37
767.678	942.41
767.861	973.13
768.044	923.98
768.227	999.75
768.41	973.13
768.593	1057.09
768.776	1003.85
768.959	923.98
769.142	1012.04
769.324	921.93
769.507	1020.23
769.69	880.97
769.873	923.98
770.056	938.31
770.239	997.7
770.421	930.12
770.604	903.5
770.787	946.5
770.97	897.35
771.152	981.32
771.335	936.26
771.518	815.43
771.7	1005.89
771.883	999.75
772.066	983.37
772.248	819.53
772.431	880.97
772.613	850.25
772.796	860.49
772.978	891.21
773.161	934.22
773.343	799.05
773.526	823.62
773.708	803.15
773.891	770.38
774.073	819.53
774.256	790.86
774.438	786.76
774.621	786.76
774.803	883.02
774.985	817.48
775.168	889.16
775.35	817.48
775.532	794.95
775.715	723.27
775.897	794.95
776.079	735.56
776.261	831.82
776.444	766.28
776.626	753.99
776.808	735.56
776.99	786.76
777.173	733.51
777.355	745.8
777.537	764.23
777.719	760.14
777.901	715.08
778.083	682.31
778.265	672.08
778.447	702.79
778.629	708.94
778.811	616.78
778.993	786.76
779.175	643.4
779.357	710.99
779.539	565.58
779.721	651.6
779.903	743.75
780.085	635.21
780.267	639.31
780.449	637.26
780.631	741.71
780.812	653.64
780.994	610.64
781.176	633.16
781.358	643.4
781.54	602.44
781.721	676.17
781.903	659.79
782.085	645.45
782.267	543.05
782.448	479.57
782.63	586.06
782.812	581.96
782.993	577.87
783.175	534.86
783.357	555.34
783.538	545.1
783.72	596.3
783.901	610.64
784.083	571.72
784.264	530.77
784.446	436.56
784.627	465.23
784.809	567.63
784.99	538.96
785.172	418.13
785.353	504.14
785.535	553.29
785.716	489.81
785.897	426.32
786.079	487.76
786.26	571.72
786.441	516.43
786.623	424.27
786.804	500.05
786.985	471.37
787.167	481.61
787.348	512.33
787.529	516.43
787.71	506.19
787.891	477.52
788.073	483.66
788.254	356.69
788.435	403.79
788.616	373.07
788.797	454.99
788.978	416.08
789.159	434.51
789.34	414.03
789.522	473.42
789.703	336.21
789.884	334.16
790.065	446.8
790.246	520.53
790.427	506.19
790.607	524.62
790.788	414.03
790.969	385.36
791.15	411.98
791.331	397.65
791.512	299.34
791.693	352.59
791.874	362.83
792.054	442.7
792.235	405.84
792.416	317.78
792.597	391.5
792.778	317.78
792.958	334.16
793.139	397.65
793.32	289.1
793.5	356.69
793.681	399.7
793.862	383.31
794.042	309.58
794.223	307.54
794.404	414.03
794.584	282.96
794.765	397.65
794.945	313.68
795.126	321.87
795.306	409.94
795.487	356.69
795.667	389.46
795.848	385.36
796.028	278.87
796.209	332.11
796.389	317.78
796.57	307.54
796.75	364.88
796.93	366.93
797.111	334.16
797.291	315.73
797.471	409.94
797.652	246.1
797.832	256.34
798.012	459.09
798.192	217.43
798.373	301.39
798.553	303.44
798.733	276.82
798.913	282.96
799.093	198.99
799.274	307.54
799.454	307.54
799.634	235.86
799.814	266.58
799.994	289.1
800.174	328.02
800.354	299.34
800.534	192.85
800.714	233.81
800.894	268.63
801.074	209.23
801.254	217.43
801.434	291.15
801.614	233.81
801.794	203.09
801.974	909.64
802.154	282.96
802.334	346.45
802.514	184.66
802.693	268.63
802.873	180.56
803.053	231.76
803.233	289.1
803.413	203.09
803.592	244.05
803.772	203.09
803.952	225.62
804.131	201.04
804.311	282.96
804.491	209.23
804.67	194.9
804.85	270.67
805.03	186.71
805.209	260.43
805.389	285.01
805.568	194.9
805.748	274.77
805.928	227.67
806.107	254.29
806.287	305.49
806.466	178.51
806.646	203.09
806.825	211.28
807.004	176.47
807.184	158.03
807.363	229.71
807.543	217.43
807.722	264.53
807.901	229.71
808.081	207.19
808.26	133.46
808.439	192.85
808.619	246.1
808.798	225.62
808.977	237.91
809.156	196.95
809.336	221.52
809.515	217.43
809.694	143.7
809.873	201.04
810.052	180.56
810.231	233.81
810.411	131.41
810.59	160.08
810.769	147.8
810.948	194.9
811.127	160.08
811.306	192.85
811.485	115.03
811.664	250.19
811.843	127.32
812.022	170.32
812.201	160.08
812.38	178.51
812.559	225.62
812.737	143.7
812.916	168.27
813.095	69.97
813.274	180.56
813.453	164.18
813.632	69.97
813.811	274.77
813.989	139.6
814.168	233.81
814.347	143.7
814.526	168.27
814.704	196.95
814.883	198.99
815.062	74.07
815.24	137.56
815.419	168.27
815.598	168.27
815.776	151.89
815.955	151.89
816.133	164.18
816.312	106.84
816.49	219.47
816.669	164.18
816.847	110.93
817.026	133.46
817.204	112.98
817.383	127.32
817.561	121.17
817.74	209.23
817.918	135.51
818.097	145.75
818.275	92.5
818.453	135.51
818.632	223.57
818.81	115.03
818.988	135.51
819.167	151.89
819.345	139.6
819.523	112.98
819.701	117.08
819.879	184.66
820.058	104.79
820.236	145.75
820.414	143.7
820.592	168.27
820.77	135.51
820.948	86.36
821.127	106.84
821.305	123.22
821.483	29.01
821.661	123.22
821.839	168.27
822.017	63.83
822.195	102.74
822.373	98.64
822.551	188.75
822.729	147.8
822.907	-5.8
823.085	166.23
823.262	225.62
823.44	49.49
823.618	86.36
823.796	151.89
823.974	172.37
824.152	80.21
824.329	102.74
824.507	86.36
824.685	153.94
824.863	78.16
825.04	153.94
825.218	102.74
825.396	86.36
825.574	80.21
825.751	121.17
825.929	94.55
826.107	127.32
826.284	98.64
826.462	131.41
826.639	20.82
826.817	72.02
826.994	82.26
827.172	24.92
827.349	147.8
827.527	145.75
827.704	151.89
827.882	119.12
828.059	151.89
828.237	49.49
828.414	110.93
828.591	53.59
828.769	63.83
828.946	88.4
829.124	102.74
829.301	164.18
829.478	33.11
829.655	121.17
829.833	78.16
830.01	53.59
830.187	153.94
830.364	98.64
830.542	82.26
830.719	98.64
830.896	127.32
831.073	119.12
831.25	76.12
831.427	41.3
831.604	65.88
831.782	47.44
831.959	69.97
832.136	86.36
832.313	88.4
832.49	90.45
832.667	110.93
832.844	51.54
833.021	78.16
833.198	53.59
833.374	106.84
833.551	45.4
833.728	37.2
833.905	127.32
834.082	-11.95
834.259	69.97
834.436	86.36
834.612	69.97
834.789	76.12
834.966	94.55
835.143	55.64
835.319	24.92
835.496	149.84
835.673	53.59
835.85	80.21
836.026	94.55
836.203	102.74
836.38	22.87
836.556	51.54
836.733	57.68
836.909	170.32
837.086	61.78
837.262	51.54
837.439	63.83
837.616	53.59
837.792	98.64
837.968	139.6
838.145	16.73
838.321	90.45
838.498	80.21
838.674	117.08
838.851	137.56
839.027	45.4
839.203	35.16
839.38	67.92
839.556	31.06
839.732	108.88
839.909	72.02
840.085	76.12
840.261	29.01
840.437	145.75
840.614	69.97
840.79	45.4
840.966	90.45
841.142	82.26
841.318	-3.75
841.494	61.78
841.671	90.45
841.847	29.01
842.023	4.44
842.199	41.3
842.375	127.32
842.551	45.4
842.727	104.79
842.903	180.56
843.079	-61.1
843.255	69.97
843.431	29.01
843.607	76.12
843.783	-22.19
843.959	76.12
844.134	65.88
844.31	33.11
844.486	-13.99
844.662	-11.95
844.838	39.25
845.013	-11.95
845.189	94.55
845.365	80.21
845.541	98.64
845.716	106.84
845.892	-9.9
846.068	84.31
846.244	31.06
846.419	0.34
846.595	33.11
846.77	55.64
846.946	108.88
847.122	29.01
847.297	110.93
847.473	127.32
847.648	45.4
847.824	14.68
847.999	-42.67
848.175	119.12
848.35	12.63
848.526	108.88
848.701	39.25
848.876	82.26
849.052	45.4
849.227	-34.47
849.403	2.39
849.578	49.49
849.753	4.44
849.929	49.49
850.104	-48.81
850.279	47.44
850.454	49.49
850.63	53.59
850.805	24.92
850.98	0.34
851.155	47.44
851.33	26.96
851.505	31.06
851.681	147.8
851.856	110.93
852.031	14.68
852.206	76.12
852.381	10.58
852.556	20.82
852.731	98.64
852.906	49.49
853.081	65.88
853.256	110.93
853.431	41.3
853.606	-20.14
853.781	-7.85
853.956	61.78
854.131	-11.95
854.305	90.45
854.48	65.88
854.655	-34.47
854.83	16.73
855.005	8.53
855.18	49.49
855.354	102.74
855.529	29.01
855.704	-67.24
855.879	65.88
856.053	16.73
856.228	143.7
856.403	-7.85
856.577	12.63
856.752	4.44
856.926	-20.14
857.101	-20.14
857.276	-3.75
857.45	20.82
857.625	29.01
857.799	98.64
857.974	12.63
858.148	-52.91
858.323	49.49
858.497	-11.95
858.672	14.68
858.846	-24.23
859.02	24.92
859.195	-32.43
859.369	39.25
859.543	20.82
859.718	24.92
859.892	53.59
860.066	61.78
860.241	-1.71
860.415	-24.23
860.589	45.4
860.763	0.34
860.938	20.82
861.112	-11.95
861.286	65.88
861.46	-1.71
861.634	29.01
861.808	45.4
861.982	-18.09
862.157	61.78
862.331	-3.75
862.505	29.01
862.679	-42.67
862.853	37.2
863.027	20.82
863.201	41.3
863.375	-11.95
863.549	20.82
863.722	22.87
863.896	119.12
864.07	-63.15
864.244	-59.05
864.418	76.12
864.592	80.21
864.766	49.49
864.939	-7.85
865.113	-44.71
865.287	-1.71
865.461	-11.95
865.634	53.59
865.808	-36.52
865.982	-18.09
866.156	-3.75
866.329	4.44
866.503	8.53
866.676	100.69
866.85	29.01
867.024	10.58
867.197	12.63
867.371	76.12
867.544	6.49
867.718	8.53
867.891	102.74
868.065	29.01
868.238	2.39
868.412	61.78
868.585	12.63
868.759	-3.75
868.932	49.49
869.105	4.44
869.279	98.64
869.452	-44.71
869.625	29.01
869.799	-20.14
869.972	-48.81
870.145	47.44
870.319	86.36
870.492	51.54
870.665	33.11
870.838	-59.05
871.011	16.73
871.185	-44.71
871.358	14.68
871.531	41.3
871.704	-52.91
871.877	31.06
872.05	20.82
872.223	-3.75
872.396	4.44
872.569	16.73
872.742	-42.67
872.915	12.63
873.088	-3.75
873.261	-61.1
873.434	4.44
873.607	-42.67
873.78	-28.33
873.953	-67.24
874.126	-11.95
874.299	29.01
874.471	22.87
874.644	-114.34
874.817	4.44
874.99	8.53
875.163	-9.9
875.335	37.2
875.508	-20.14
875.681	72.02
875.853	39.25
876.026	10.58
876.199	6.49
876.371	24.92
876.544	-28.33
876.717	-11.95
876.889	39.25
877.062	53.59
877.234	67.92
877.407	-38.57
877.579	-85.67
877.752	100.69
877.924	-48.81
878.097	45.4
878.269	49.49
878.442	20.82
878.614	-26.28
878.786	26.96
878.959	80.21
879.131	49.49
879.303	-26.28
879.476	-11.95
879.648	-26.28
879.82	-18.09
879.993	12.63
880.165	61.78
880.337	12.63
880.509	39.25
880.681	-61.1
880.854	-3.75
881.026	41.3
881.198	96.6
881.37	4.44
881.542	61.78
881.714	26.96
881.886	57.68
882.058	20.82
882.23	-32.43
882.402	102.74
882.574	-1.71
882.746	84.31
882.918	51.54
883.09	20.82
883.262	8.53
883.434	112.98
883.606	-69.29
883.778	-28.33
883.95	63.83
884.122	18.77
884.293	-1.71
884.465	-57
884.637	35.16
884.809	-28.33
884.98	6.49
885.152	-1.71
885.324	22.87
885.496	16.73
885.667	-11.95
885.839	47.44
886.011	37.2
886.182	22.87
886.354	4.44
886.525	-9.9
886.697	-24.23
886.869	-67.24
887.04	22.87
887.212	119.12
887.383	67.92
887.555	-9.9
887.726	12.63
887.897	6.49
888.069	-3.75
888.24	45.4
888.412	-16.04
888.583	4.44
888.754	37.2
888.926	-77.48
889.097	55.64
889.268	-85.67
889.44	63.83
889.611	-20.14
889.782	-9.9
889.953	-28.33
890.125	51.54
890.296	-42.67
890.467	6.49
890.638	-13.99
890.809	149.84
890.98	-24.23
891.151	-32.43
891.323	47.44
891.494	69.97
891.665	-24.23
891.836	-26.28
892.007	-18.09
892.178	29.01
892.349	-11.95
892.52	29.01
892.691	6.49
892.862	55.64
893.032	-85.67
893.203	-93.87
893.374	-28.33
893.545	43.35
893.716	-34.47
893.887	24.92
894.057	12.63
894.228	20.82
894.399	20.82
894.57	-32.43
894.74	-13.99
894.911	-18.09
895.082	-28.33
895.253	-34.47
895.423	4.44
895.594	43.35
895.764	6.49
895.935	-11.95
896.106	4.44
896.276	-52.91
896.447	-11.95
896.617	24.92
896.788	49.49
896.958	-5.8
897.129	-44.71
897.299	8.53
897.47	16.73
897.64	49.49
897.81	8.53
897.981	-32.43
898.151	-11.95
898.322	26.96
898.492	-34.47
898.662	-57
898.832	-5.8
899.003	-1.71
899.173	29.01
899.343	-3.75
899.513	-97.96
