Data from USB4F104151__240__14-34-08-936.txt Node

Date: Thu Mar 13 14:34:08 EDT 2025
User: louis
Spectrometer: USB4F10415
Trigger mode: 4
Integration Time (sec): 2.500000E-2
Scans to average: 1
Electric dark correction enabled: true
Nonlinearity correction enabled: false
Boxcar width: 0
XAxis mode: Wavelengths
Number of Pixels in Spectrum: 3648
>>>>>Begin Spectral Data<<<<<
178.204	-106.84
178.424	-106.84
178.644	-106.84
178.864	-104.79
179.084	-90.45
179.304	-6.49
179.524	11.95
179.744	-63.83
179.964	40.62
180.184	54.95
180.404	44.71
180.624	-29.01
180.844	-20.82
181.064	-14.68
181.283	-8.53
181.503	-4.44
181.723	-4.44
181.943	-37.2
182.163	44.71
182.383	-55.64
182.602	63.15
182.822	143.02
183.042	-12.63
183.262	59.05
183.482	93.87
183.701	7.85
183.921	81.58
184.141	-78.16
184.361	147.11
184.58	-6.49
184.8	-12.63
185.02	65.19
185.239	48.81
185.459	26.28
185.679	83.63
185.898	40.62
186.118	40.62
186.338	40.62
186.557	85.67
186.777	75.43
186.997	34.47
187.216	-63.83
187.436	97.96
187.655	69.29
187.875	75.43
188.095	-39.25
188.314	28.33
188.534	50.86
188.753	32.43
188.973	32.43
189.192	48.81
189.412	75.43
189.631	57
189.851	59.05
190.07	69.29
190.29	-0.34
190.509	9.9
190.729	1.71
190.948	77.48
191.168	204.46
191.387	22.19
191.607	-6.49
191.826	-33.11
192.045	3.75
192.265	61.1
192.484	16.04
192.704	106.15
192.923	-67.92
193.142	138.92
193.362	9.9
193.581	52.91
193.8	44.71
194.02	50.86
194.239	44.71
194.458	73.39
194.678	-16.73
194.897	59.05
195.116	63.15
195.335	28.33
195.555	77.48
195.774	57
195.993	91.82
196.212	32.43
196.432	52.91
196.651	16.04
196.87	42.67
197.089	149.16
197.308	116.39
197.528	73.39
197.747	-55.64
197.966	114.34
198.185	81.58
198.404	36.52
198.623	85.67
198.842	81.58
199.062	83.63
199.281	67.24
199.5	-14.68
199.719	59.05
199.938	42.67
200.157	26.28
200.376	159.4
200.595	32.43
200.814	42.67
201.033	34.47
201.252	-45.4
201.471	52.91
201.69	171.69
201.909	32.43
202.128	-14.68
202.347	-41.3
202.566	42.67
202.785	-2.39
203.004	-57.68
203.223	40.62
203.442	32.43
203.661	89.77
203.879	13.99
204.098	24.23
204.317	5.8
204.536	69.29
204.755	24.23
204.974	36.52
205.193	73.39
205.411	89.77
205.63	108.2
205.849	-53.59
206.068	46.76
206.287	93.87
206.505	20.14
206.724	48.81
206.943	40.62
207.162	-8.53
207.381	67.24
207.599	9.9
207.818	-29.01
208.037	108.2
208.255	28.33
208.474	34.47
208.693	20.14
208.911	-12.63
209.13	118.44
209.349	100.01
209.567	52.91
209.786	97.96
210.005	44.71
210.223	11.95
210.442	-33.11
210.661	52.91
210.879	69.29
211.098	44.71
211.316	79.53
211.535	32.43
211.753	-20.82
211.972	77.48
212.191	24.23
212.409	-0.34
212.628	65.19
212.846	48.81
213.065	97.96
213.283	24.23
213.502	7.85
213.72	9.9
213.938	24.23
214.157	28.33
214.375	16.04
214.594	32.43
214.812	89.77
215.031	28.33
215.249	48.81
215.467	42.67
215.686	11.95
215.904	34.47
216.122	5.8
216.341	40.62
216.559	36.52
216.778	18.09
216.996	42.67
217.214	-31.06
217.432	52.91
217.651	18.09
217.869	-29.01
218.087	34.47
218.306	24.23
218.524	73.39
218.742	59.05
218.96	67.24
219.179	-24.92
219.397	-37.2
219.615	128.68
219.833	24.23
220.051	24.23
220.27	79.53
220.488	42.67
220.706	65.19
220.924	-20.82
221.142	34.47
221.36	40.62
221.578	97.96
221.796	34.47
222.015	48.81
222.233	32.43
222.451	52.91
222.669	-53.59
222.887	32.43
223.105	-0.34
223.323	24.23
223.541	83.63
223.759	16.04
223.977	52.91
224.195	81.58
224.413	42.67
224.631	65.19
224.849	97.96
225.067	163.5
225.285	-26.96
225.503	16.04
225.721	-16.73
225.939	-24.92
226.157	34.47
226.375	126.63
226.592	20.14
226.81	61.1
227.028	100.01
227.246	102.06
227.464	52.91
227.682	28.33
227.9	36.52
228.117	-0.34
228.335	54.95
228.553	32.43
228.771	46.76
228.989	44.71
229.206	48.81
229.424	11.95
229.642	97.96
229.86	-29.01
230.077	34.47
230.295	63.15
230.513	120.49
230.731	93.87
230.948	73.39
231.166	75.43
231.384	-14.68
231.601	54.95
231.819	5.8
232.037	-20.82
232.254	81.58
232.472	57
232.689	-33.11
232.907	65.19
233.125	89.77
233.342	26.28
233.56	16.04
233.777	-16.73
233.995	30.38
234.213	65.19
234.43	7.85
234.648	18.09
234.865	-0.34
235.083	-20.82
235.3	36.52
235.518	20.14
235.735	110.25
235.953	-2.39
236.17	-8.53
236.388	93.87
236.605	13.99
236.822	73.39
237.04	130.73
237.257	57
237.475	-67.92
237.692	20.14
237.909	32.43
238.127	40.62
238.344	59.05
238.562	73.39
238.779	-6.49
238.996	9.9
239.214	3.75
239.431	89.77
239.648	5.8
239.865	114.34
240.083	52.91
240.3	16.04
240.517	24.23
240.735	38.57
240.952	36.52
241.169	73.39
241.386	73.39
241.603	-0.34
241.821	11.95
242.038	71.34
242.255	44.71
242.472	22.19
242.689	-6.49
242.907	81.58
243.124	85.67
243.341	63.15
243.558	-2.39
243.775	34.47
243.992	-6.49
244.209	140.97
244.426	73.39
244.643	24.23
244.86	9.9
245.078	122.54
245.295	81.58
245.512	-6.49
245.729	32.43
245.946	13.99
246.163	67.24
246.38	52.91
246.597	48.81
246.814	57
247.031	114.34
247.248	22.19
247.464	52.91
247.681	3.75
247.898	7.85
248.115	20.14
248.332	-41.3
248.549	67.24
248.766	42.67
248.983	48.81
249.2	134.82
249.417	-4.44
249.633	34.47
249.85	59.05
250.067	59.05
250.284	16.04
250.501	65.19
250.717	57
250.934	-82.26
251.151	32.43
251.368	85.67
251.585	28.33
251.801	42.67
252.018	1.71
252.235	65.19
252.451	-20.82
252.668	22.19
252.885	77.48
253.102	151.21
253.318	24.23
253.535	24.23
253.752	34.47
253.968	9.9
254.185	28.33
254.401	73.39
254.618	79.53
254.835	3.75
255.051	114.34
255.268	81.58
255.484	108.2
255.701	91.82
255.917	40.62
256.134	-2.39
256.351	7.85
256.567	-14.68
256.784	48.81
257	-16.73
257.217	38.57
257.433	11.95
257.65	69.29
257.866	100.01
258.082	3.75
258.299	36.52
258.515	65.19
258.732	-8.53
258.948	16.04
259.165	-16.73
259.381	24.23
259.597	61.1
259.814	42.67
260.03	73.39
260.246	75.43
260.463	77.48
260.679	106.15
260.895	77.48
261.112	59.05
261.328	48.81
261.544	20.14
261.761	116.39
261.977	-8.53
262.193	11.95
262.409	73.39
262.626	18.09
262.842	97.96
263.058	16.04
263.274	9.9
263.49	-12.63
263.707	63.15
263.923	-6.49
264.139	-74.07
264.355	11.95
264.571	85.67
264.787	32.43
265.004	132.78
265.22	-39.25
265.436	20.14
265.652	-0.34
265.868	59.05
266.084	-45.4
266.3	50.86
266.516	-61.78
266.732	48.81
266.948	32.43
267.164	36.52
267.38	81.58
267.596	26.28
267.812	196.26
268.028	75.43
268.244	138.92
268.46	73.39
268.676	48.81
268.892	59.05
269.108	-4.44
269.324	-8.53
269.54	69.29
269.756	91.82
269.972	18.09
270.188	13.99
270.403	-49.49
270.619	32.43
270.835	81.58
271.051	-24.92
271.267	3.75
271.483	18.09
271.698	28.33
271.914	93.87
272.13	65.19
272.346	22.19
272.562	67.24
272.777	61.1
272.993	42.67
273.209	48.81
273.425	77.48
273.64	59.05
273.856	52.91
274.072	81.58
274.287	34.47
274.503	73.39
274.719	89.77
274.934	50.86
275.15	24.23
275.366	67.24
275.581	-24.92
275.797	130.73
276.012	-37.2
276.228	67.24
276.444	13.99
276.659	108.2
276.875	50.86
277.09	16.04
277.306	-8.53
277.521	81.58
277.737	1.71
277.952	48.81
278.168	69.29
278.383	-0.34
278.599	32.43
278.814	73.39
279.03	40.62
279.245	138.92
279.461	28.33
279.676	140.97
279.892	44.71
280.107	24.23
280.322	59.05
280.538	34.47
280.753	40.62
280.969	102.06
281.184	61.1
281.399	104.11
281.615	-6.49
281.83	-24.92
282.045	34.47
282.26	9.9
282.476	-0.34
282.691	91.82
282.906	-14.68
283.122	26.28
283.337	-31.06
283.552	102.06
283.767	-16.73
283.983	65.19
284.198	75.43
284.413	89.77
284.628	24.23
284.843	59.05
285.058	38.57
285.274	44.71
285.489	11.95
285.704	20.14
285.919	-0.34
286.134	75.43
286.349	3.75
286.564	67.24
286.779	143.02
286.995	1.71
287.21	28.33
287.425	18.09
287.64	48.81
287.855	-4.44
288.07	-8.53
288.285	73.39
288.5	32.43
288.715	97.96
288.93	40.62
289.145	-18.77
289.36	52.91
289.575	9.9
289.79	24.23
290.004	69.29
290.219	73.39
290.434	-22.87
290.649	-22.87
290.864	102.06
291.079	-31.06
291.294	-33.11
291.509	-0.34
291.724	18.09
291.938	5.8
292.153	24.23
292.368	67.24
292.583	69.29
292.798	1.71
293.012	36.52
293.227	36.52
293.442	24.23
293.657	87.72
293.871	97.96
294.086	85.67
294.301	91.82
294.516	114.34
294.73	44.71
294.945	-24.92
295.16	3.75
295.374	54.95
295.589	69.29
295.804	1.71
296.018	65.19
296.233	134.82
296.447	65.19
296.662	26.28
296.877	48.81
297.091	40.62
297.306	-53.59
297.52	-24.92
297.735	26.28
297.949	93.87
298.164	83.63
298.378	57
298.593	18.09
298.807	32.43
299.022	50.86
299.236	83.63
299.451	50.86
299.665	7.85
299.88	38.57
300.094	28.33
300.309	48.81
300.523	32.43
300.737	73.39
300.952	50.86
301.166	7.85
301.381	48.81
301.595	65.19
301.809	7.85
302.024	85.67
302.238	-2.39
302.452	30.38
302.667	89.77
302.881	122.54
303.095	44.71
303.309	42.67
303.524	28.33
303.738	44.71
303.952	16.04
304.166	132.78
304.381	-86.36
304.595	102.06
304.809	44.71
305.023	65.19
305.237	7.85
305.452	20.14
305.666	122.54
305.88	106.15
306.094	3.75
306.308	48.81
306.522	149.16
306.736	73.39
306.95	52.91
307.164	61.1
307.379	32.43
307.593	114.34
307.807	34.47
308.021	44.71
308.235	81.58
308.449	-16.73
308.663	-29.01
308.877	132.78
309.091	13.99
309.305	-6.49
309.519	-29.01
309.733	75.43
309.947	-57.68
310.161	81.58
310.374	50.86
310.588	97.96
310.802	48.81
311.016	32.43
311.23	20.14
311.444	50.86
311.658	1.71
311.872	-41.3
312.085	89.77
312.299	112.3
312.513	-24.92
312.727	32.43
312.941	32.43
313.154	104.11
313.368	22.19
313.582	50.86
313.796	73.39
314.009	32.43
314.223	120.49
314.437	59.05
314.651	100.01
314.864	-12.63
315.078	32.43
315.292	67.24
315.505	46.76
315.719	57
315.933	91.82
316.146	-24.92
316.36	30.38
316.573	65.19
316.787	32.43
317.001	91.82
317.214	65.19
317.428	116.39
317.641	18.09
317.855	73.39
318.068	59.05
318.282	75.43
318.495	116.39
318.709	81.58
318.922	59.05
319.136	48.81
319.349	151.21
319.563	59.05
319.776	91.82
319.99	57
320.203	40.62
320.417	42.67
320.63	75.43
320.843	118.44
321.057	20.14
321.27	16.04
321.483	59.05
321.697	120.49
321.91	57
322.124	102.06
322.337	18.09
322.55	20.14
322.763	59.05
322.977	83.63
323.19	-45.4
323.403	24.23
323.617	57
323.83	48.81
324.043	24.23
324.256	32.43
324.469	-33.11
324.683	48.81
324.896	26.28
325.109	40.62
325.322	24.23
325.535	134.82
325.748	108.2
325.962	-24.92
326.175	52.91
326.388	114.34
326.601	67.24
326.814	91.82
327.027	48.81
327.24	73.39
327.453	7.85
327.666	-33.11
327.879	28.33
328.092	116.39
328.305	61.1
328.518	44.71
328.731	1.71
328.944	-14.68
329.157	69.29
329.37	32.43
329.583	24.23
329.796	138.92
330.009	110.25
330.222	48.81
330.435	73.39
330.648	77.48
330.861	46.76
331.073	69.29
331.286	91.82
331.499	110.25
331.712	40.62
331.925	-0.34
332.138	48.81
332.35	26.28
332.563	-8.53
332.776	128.68
332.989	20.14
333.202	32.43
333.414	83.63
333.627	32.43
333.84	20.14
334.053	24.23
334.265	24.23
334.478	124.58
334.691	24.23
334.903	28.33
335.116	50.86
335.329	24.23
335.541	83.63
335.754	59.05
335.966	83.63
336.179	83.63
336.392	97.96
336.604	85.67
336.817	73.39
337.029	16.04
337.242	81.58
337.454	100.01
337.667	65.19
337.88	143.02
338.092	65.19
338.305	93.87
338.517	-90.45
338.729	126.63
338.942	93.87
339.154	52.91
339.367	30.38
339.579	40.62
339.792	-4.44
340.004	24.23
340.217	91.82
340.429	73.39
340.641	22.19
340.854	18.09
341.066	155.3
341.278	108.2
341.491	106.15
341.703	52.91
341.915	26.28
342.128	57
342.34	50.86
342.552	40.62
342.764	69.29
342.977	18.09
343.189	65.19
343.401	-2.39
343.613	-39.25
343.826	-4.44
344.038	79.53
344.25	175.78
344.462	-4.44
344.674	104.11
344.886	40.62
345.099	44.71
345.311	1.71
345.523	-65.88
345.735	24.23
345.947	9.9
346.159	91.82
346.371	83.63
346.583	54.95
346.795	114.34
347.007	85.67
347.219	61.1
347.431	69.29
347.643	171.69
347.855	-6.49
348.067	93.87
348.279	-12.63
348.491	34.47
348.703	73.39
348.915	-16.73
349.127	26.28
349.339	26.28
349.551	24.23
349.763	130.73
349.975	83.63
350.187	48.81
350.399	24.23
350.61	24.23
350.822	-29.01
351.034	36.52
351.246	122.54
351.458	40.62
351.669	89.77
351.881	40.62
352.093	97.96
352.305	67.24
352.517	44.71
352.728	136.87
352.94	13.99
353.152	100.01
353.363	-20.82
353.575	95.91
353.787	157.35
353.999	61.1
354.21	9.9
354.422	93.87
354.633	65.19
354.845	118.44
355.057	153.26
355.268	-14.68
355.48	52.91
355.692	40.62
355.903	16.04
356.115	9.9
356.326	3.75
356.538	122.54
356.749	73.39
356.961	161.45
357.172	24.23
357.384	97.96
357.595	130.73
357.807	65.19
358.018	24.23
358.23	69.29
358.441	116.39
358.653	34.47
358.864	48.81
359.075	32.43
359.287	75.43
359.498	44.71
359.709	44.71
359.921	91.82
360.132	83.63
360.344	48.81
360.555	-57.68
360.766	32.43
360.977	-14.68
361.189	116.39
361.4	-8.53
361.611	79.53
361.823	52.91
362.034	-22.87
362.245	77.48
362.456	65.19
362.667	93.87
362.879	-31.06
363.09	75.43
363.301	16.04
363.512	1.71
363.723	59.05
363.935	32.43
364.146	116.39
364.357	73.39
364.568	3.75
364.779	18.09
364.99	67.24
365.201	-18.77
365.412	93.87
365.623	-29.01
365.834	-16.73
366.045	61.1
366.256	93.87
366.467	-16.73
366.678	59.05
366.889	75.43
367.1	3.75
367.311	89.77
367.522	57
367.733	85.67
367.944	118.44
368.155	75.43
368.366	104.11
368.577	114.34
368.788	87.72
368.999	-29.01
369.209	32.43
369.42	122.54
369.631	83.63
369.842	97.96
370.053	-16.73
370.264	67.24
370.474	9.9
370.685	-16.73
370.896	38.57
371.107	79.53
371.317	40.62
371.528	28.33
371.739	73.39
371.95	52.91
372.16	61.1
372.371	1.71
372.582	11.95
372.792	89.77
373.003	9.9
373.214	24.23
373.424	87.72
373.635	-14.68
373.846	106.15
374.056	95.91
374.267	81.58
374.477	97.96
374.688	71.34
374.898	61.1
375.109	93.87
375.319	48.81
375.53	81.58
375.74	122.54
375.951	30.38
376.161	81.58
376.372	97.96
376.582	34.47
376.793	-55.64
377.003	-24.92
377.214	52.91
377.424	57
377.635	18.09
377.845	24.23
378.055	126.63
378.266	3.75
378.476	-16.73
378.686	32.43
378.897	46.76
379.107	106.15
379.317	83.63
379.528	67.24
379.738	65.19
379.948	16.04
380.158	65.19
380.369	36.52
380.579	77.48
380.789	52.91
380.999	20.14
381.21	102.06
381.42	122.54
381.63	59.05
381.84	48.81
382.05	67.24
382.261	81.58
382.471	149.16
382.681	-10.58
382.891	91.82
383.101	81.58
383.311	61.1
383.521	-20.82
383.731	26.28
383.941	157.35
384.151	44.71
384.361	77.48
384.571	93.87
384.781	36.52
384.991	126.63
385.201	106.15
385.411	97.96
385.621	16.04
385.831	52.91
386.041	91.82
386.251	57
386.461	147.11
386.671	65.19
386.881	102.06
387.091	50.86
387.301	138.92
387.511	128.68
387.72	122.54
387.93	40.62
388.14	71.34
388.35	50.86
388.56	32.43
388.769	149.16
388.979	65.19
389.189	5.8
389.399	93.87
389.609	73.39
389.818	81.58
390.028	102.06
390.238	110.25
390.447	34.47
390.657	120.49
390.867	91.82
391.076	-8.53
391.286	124.58
391.496	116.39
391.705	40.62
391.915	165.54
392.125	91.82
392.334	44.71
392.544	87.72
392.753	50.86
392.963	89.77
393.172	77.48
393.382	108.2
393.591	122.54
393.801	179.88
394.01	97.96
394.22	59.05
394.429	91.82
394.639	95.91
394.848	163.5
395.058	42.67
395.267	-8.53
395.477	77.48
395.686	91.82
395.895	188.07
396.105	93.87
396.314	138.92
396.524	83.63
396.733	89.77
396.942	81.58
397.152	89.77
397.361	161.45
397.57	118.44
397.78	122.54
397.989	163.5
398.198	173.74
398.407	104.11
398.617	108.2
398.826	65.19
399.035	102.06
399.244	128.68
399.453	143.02
399.663	126.63
399.872	106.15
400.081	77.48
400.29	143.02
400.499	30.38
400.708	116.39
400.917	112.3
401.127	108.2
401.336	65.19
401.545	155.3
401.754	222.89
401.963	81.58
402.172	108.2
402.381	59.05
402.59	179.88
402.799	138.92
403.008	157.35
403.217	181.93
403.426	83.63
403.635	57
403.844	165.54
404.053	171.69
404.262	132.78
404.471	157.35
404.68	140.97
404.888	165.54
405.097	198.31
405.306	229.03
405.515	237.22
405.724	280.23
405.933	263.85
406.142	231.08
406.35	265.89
406.559	192.17
406.768	245.41
406.977	358.05
407.185	269.99
407.394	231.08
407.603	190.12
407.812	194.22
408.02	310.95
408.229	306.85
408.438	216.74
408.646	288.42
408.855	310.95
409.064	278.18
409.272	220.84
409.481	444.07
409.69	298.66
409.898	345.77
410.107	356.01
410.315	419.49
410.524	351.91
410.733	417.44
410.941	409.25
411.15	401.06
411.358	419.49
411.567	530.08
411.775	466.6
411.984	544.42
412.192	532.13
412.401	544.42
412.609	517.79
412.818	622.24
413.026	599.71
413.234	638.62
413.443	616.1
413.651	648.86
413.86	671.39
414.068	712.35
414.276	665.25
414.485	708.26
414.693	820.89
414.901	749.22
415.11	771.74
415.318	788.13
415.526	876.19
415.734	876.19
415.943	880.29
416.151	935.58
416.359	1025.69
416.567	1027.74
416.776	984.73
416.984	1101.47
417.192	1179.29
417.4	1207.96
417.608	1132.19
417.817	1277.59
418.025	1359.51
418.233	1400.47
418.441	1369.75
418.649	1410.71
418.857	1595.03
419.065	1582.74
419.273	1494.68
419.481	1642.13
419.689	1642.13
419.897	1818.25
420.105	1937.04
420.313	1844.88
420.521	1973.9
420.729	1947.28
420.937	1955.47
421.145	2129.55
421.353	2291.34
421.561	2399.88
421.769	2264.71
421.977	2465.41
422.185	2444.93
422.393	2498.18
422.601	2571.91
422.809	2662.02
423.017	2711.17
423.224	2729.6
423.432	3038.84
423.64	2975.36
423.848	3112.57
424.056	3208.83
424.263	3268.22
424.471	3522.16
424.679	3333.75
424.887	3751.54
425.094	3720.82
425.302	3821.17
425.51	3812.98
425.718	3907.18
425.925	4091.5
426.133	4189.8
426.341	4427.37
426.548	4529.77
426.756	4664.93
426.964	4587.11
427.171	4834.91
427.379	5203.55
427.586	5326.43
427.794	5252.7
428.001	5563.99
428.209	5721.68
428.417	5586.52
428.624	6155.85
428.832	6028.88
429.039	6217.29
429.247	5979.73
429.454	6487.62
429.662	7013.95
429.869	6483.53
430.076	7016
430.284	7032.38
430.491	7241.28
430.699	7509.56
430.906	7556.66
431.114	7745.08
431.321	8035.89
431.528	8240.68
431.736	8611.37
431.943	8961.57
432.15	8642.09
432.358	8801.83
432.565	9381.4
432.772	9336.35
432.979	9762.33
433.187	9946.64
433.394	9920.02
433.601	10481.16
433.808	10673.67
434.016	10618.38
434.223	11023.87
434.43	11888.12
434.637	11501.05
434.844	12117.49
435.052	12387.82
435.259	12336.62
435.466	12393.97
435.673	12279.28
435.88	13153.76
436.087	13940.18
436.294	13735.39
436.501	13434.33
436.708	13589.98
436.915	14202.32
437.122	14802.38
437.329	14702.03
437.537	15283.65
437.743	15289.79
437.95	15314.37
438.157	16092.6
438.364	16752.04
438.571	16551.34
438.778	16899.5
438.985	18279.83
439.192	17624.48
439.399	18083.22
439.606	17798.56
439.813	18867.59
440.02	19824
440.227	19494.27
440.433	19344.77
440.64	20051.32
440.847	19760.51
441.054	20374.9
441.261	21587.3
441.467	21235.05
441.674	21661.02
441.881	22363.48
442.088	22461.78
442.294	22351.19
442.501	22533.46
442.708	23393.61
442.914	24251.7
443.121	24941.87
443.328	24456.5
443.534	26529.05
443.741	25517.35
443.948	25185.58
444.154	27280.65
444.361	26950.93
444.568	26821.91
444.774	26791.19
444.981	27147.53
445.187	28140.8
445.394	29058.29
445.6	28974.32
445.807	31575.24
446.013	30467.29
446.22	30571.74
446.426	32269.5
446.633	32699.58
446.839	33428.65
447.046	31933.64
447.252	33561.77
447.459	34018.47
447.665	33602.73
447.871	35282.06
448.078	36592.76
448.284	35036.31
448.491	35785.86
448.697	36920.44
448.903	37854.31
449.11	38251.62
449.316	37303.41
449.522	38110.31
449.728	39035.99
449.935	39527.5
450.141	39500.88
450.347	40152.13
450.553	39103.57
450.76	39375.95
450.966	40594.5
451.172	40514.62
451.378	41360.44
451.584	40715.33
451.791	41735.21
451.997	41227.32
452.203	42013.74
452.409	41946.15
452.615	41741.36
452.821	40430.66
453.027	39906.38
453.233	42105.9
453.44	40240.2
453.646	40334.4
453.852	40870.97
454.058	41479.22
454.264	40201.29
454.47	41280.56
454.676	40252.48
454.882	41274.42
455.088	38233.19
455.294	38184.04
455.5	39367.76
455.705	39404.63
455.911	37979.24
456.117	37276.79
456.323	36574.33
456.529	34825.37
456.735	36283.52
456.941	35679.37
457.147	34477.21
457.352	33647.79
457.558	33023.15
457.764	33635.5
457.97	32586.94
458.176	31890.63
458.381	31890.63
458.587	30600.41
458.793	30338.27
458.999	28880.11
459.204	30870.74
459.41	30104.8
459.616	28024.06
459.821	28144.89
460.027	27940.1
460.233	27720.96
460.438	26039.58
460.644	26176.8
460.85	25148.71
461.055	24499.51
461.261	24677.68
461.466	22836.56
461.672	22109.53
461.878	23782.72
462.083	22281.56
462.289	21532
462.494	21433.7
462.7	20260.21
462.905	19973.5
463.111	20671.86
463.316	20942.19
463.522	20217.21
463.727	20426.1
463.932	20237.69
464.138	19727.74
464.343	20032.89
464.549	19647.87
464.754	19977.59
464.959	19813.76
465.165	19668.35
465.37	18699.66
465.575	18257.3
465.781	19060.1
465.986	19019.14
466.191	18460.05
466.397	18095.51
466.602	17188.26
466.807	17864.09
467.012	17728.92
467.218	17677.72
467.423	17196.45
467.628	17712.54
467.833	18333.07
468.038	17456.54
468.244	17184.16
468.449	17886.62
468.654	17051.05
468.859	16801.19
469.064	16997.8
469.269	16508.33
469.474	16403.89
469.679	16790.95
469.885	16088.5
470.09	16299.44
470.295	16571.82
470.5	16000.44
470.705	16082.36
470.91	15766.97
471.115	15324.61
471.32	15850.94
471.525	15926.71
471.73	15361.47
471.935	15287.75
472.139	14464.46
472.344	14880.2
472.549	14826.95
472.754	14732.75
472.959	14400.97
473.164	14222.8
473.369	14026.2
473.574	14327.25
473.778	14228.95
473.983	13743.58
474.188	13936.09
474.393	13413.85
474.598	13444.57
474.802	13352.41
475.007	13219.3
475.212	13168.1
475.417	12731.88
475.621	12789.22
475.826	12828.13
476.031	12383.73
476.235	12258.8
476.44	12443.12
476.645	12127.73
476.849	12379.63
477.054	11978.23
477.259	12002.8
477.463	11898.36
477.668	11824.63
477.872	11734.52
478.077	11453.95
478.282	11331.07
478.486	11386.36
478.691	10931.72
478.895	11415.04
479.1	11208.19
479.304	10993.15
479.509	10698.25
479.713	10786.31
479.918	10634.76
480.122	10487.31
480.326	10501.64
480.531	10683.91
480.735	10569.23
480.94	10257.93
481.144	10655.24
481.348	10137.1
481.553	10364.43
481.757	10212.88
481.961	10311.18
482.166	10636.81
482.37	10288.65
482.574	10173.97
482.778	10212.88
482.983	10444.3
483.187	10264.08
483.391	10147.34
483.595	10173.97
483.8	10149.39
484.004	10067.47
484.208	10280.46
484.412	10180.11
484.616	10128.91
484.821	10216.97
485.025	10157.58
485.229	10325.52
485.433	10178.06
485.637	10077.71
485.841	9917.97
486.045	10057.23
486.249	10034.71
486.453	9889.3
486.657	10161.68
486.861	10343.95
487.065	9928.21
487.269	10190.35
487.473	9778.71
487.677	10012.18
487.881	10157.58
488.085	10313.23
488.289	10044.95
488.493	9979.41
488.697	10231.31
488.901	10096.14
489.105	10085.9
489.309	9844.24
489.512	10155.54
489.716	10333.71
489.92	9979.41
490.124	10083.86
490.328	10346
490.531	10118.67
490.735	10305.04
490.939	10317.33
491.143	10315.28
491.346	10169.87
491.55	10714.63
491.754	10622.47
491.958	10282.51
492.161	10411.53
492.365	10645
492.569	10382.86
492.772	10290.7
492.976	10554.89
493.18	10571.27
493.383	10526.22
493.587	10601.99
493.79	10831.37
493.994	10757.64
494.197	10743.3
494.401	11116.03
494.605	10907.14
494.808	11021.83
495.012	11275.77
495.215	11148.8
495.419	11271.68
495.622	11394.56
495.825	11410.94
496.029	11484.67
496.232	11234.82
496.436	11660.79
496.639	11861.49
496.843	11605.5
497.046	12008.95
497.249	12320.24
497.453	12066.29
497.656	12385.77
497.859	12164.59
498.063	12320.24
498.266	12625.39
498.469	12436.97
498.673	12684.78
498.876	12914.15
499.079	12879.33
499.282	12713.45
499.485	13135.33
499.689	13272.54
499.892	13606.36
500.095	13397.47
500.298	14071.25
500.501	13714.91
500.705	14147.03
500.908	13913.56
501.111	14181.84
501.314	14523.85
501.517	14421.45
501.72	14665.16
501.923	14466.51
502.126	14986.69
502.329	15189.44
502.532	15429.06
502.735	15316.42
502.938	15498.69
503.141	15836.6
503.344	16045.49
503.547	15904.18
503.75	16178.61
503.953	16385.46
504.156	16594.35
504.359	16838.06
504.562	16663.98
504.765	17071.53
504.968	17292.71
505.17	17212.84
505.373	17399.2
505.576	17597.85
505.779	17935.77
505.982	17890.71
506.185	18417.04
506.387	18210.2
506.59	18611.6
506.793	18990.47
506.996	18646.41
507.198	19590.53
507.401	19461.51
507.604	19758.46
507.807	19662.21
508.009	20213.11
508.212	20145.53
508.415	20266.36
508.617	20866.41
508.82	20497.78
509.022	20393.33
509.225	21032.3
509.428	21493.09
509.63	21417.32
509.833	21546.34
510.035	21806.43
510.238	21908.83
510.44	22189.4
510.643	22660.43
510.845	22637.91
511.048	22535.51
511.25	22859.09
511.453	22846.8
511.655	24243.51
511.858	23706.94
512.06	23866.69
512.262	24227.13
512.465	24010.04
512.667	24460.6
512.87	24579.38
513.072	25011.5
513.274	25546.02
513.477	25343.27
513.679	25724.19
513.881	25849.12
514.084	26193.18
514.286	26295.58
514.488	26303.77
514.69	27172.11
514.893	26979.6
515.095	27307.27
515.297	27303.18
515.499	27739.4
515.701	27974.91
515.904	28071.17
516.106	28384.51
516.308	28466.42
516.51	28800.24
516.712	28972.27
516.914	29189.36
517.116	29787.36
517.318	29820.13
517.52	29857
517.722	29881.57
517.925	30248.16
518.127	30567.64
518.329	30921.94
518.531	30508.25
518.733	31501.51
518.935	31335.63
519.136	31501.51
519.338	31845.57
519.54	31904.96
519.742	32216.26
519.944	32449.72
520.146	32806.07
520.348	33051.83
520.55	33483.95
520.752	33154.22
520.954	33997.99
521.155	33580.2
521.357	33954.98
521.559	34094.24
521.761	34438.3
521.963	34301.09
522.164	34563.23
522.366	34319.52
522.568	34952.34
522.77	34729.11
522.971	35007.64
523.173	35339.41
523.375	35542.16
523.576	35136.66
523.778	35607.69
523.98	35869.83
524.181	36013.19
524.383	36156.55
524.584	36510.85
524.786	36289.66
524.988	36217.99
525.189	36852.86
525.391	36965.49
525.592	36949.11
525.794	37010.55
525.995	36820.09
526.197	37055.61
526.398	36910.2
526.6	37190.77
526.801	37481.58
527.003	37188.72
527.204	37307.51
527.406	37629.04
527.607	37846.12
527.808	37629.04
528.01	37131.38
528.211	37319.79
528.412	37794.92
528.614	37852.27
528.815	37794.92
529.016	38118.5
529.218	37561.45
529.419	37880.94
529.62	37827.69
529.822	37672.04
530.023	37790.83
530.224	37917.8
530.425	37880.94
530.626	37293.17
530.828	37577.84
531.029	38225
531.23	37180.53
531.431	37645.42
531.632	37796.97
531.833	37665.9
532.035	37370.99
532.236	37790.83
532.437	37528.69
532.638	37610.6
532.839	37772.39
533.04	37737.58
533.241	37457.01
533.442	37813.35
533.643	37522.54
533.844	37635.18
534.045	37291.12
534.246	36975.73
534.447	37258.35
534.648	37522.54
534.849	37258.35
535.05	37041.27
535.251	37012.6
535.451	37334.13
535.652	37407.86
535.853	37274.74
536.054	37303.41
536.255	37135.48
536.456	36664.44
536.657	37155.96
536.857	36924.54
537.058	36473.98
537.259	37037.17
537.46	36486.27
537.66	36541.57
537.861	36772.99
538.062	36637.82
538.263	36842.62
538.463	36646.01
538.664	36762.75
538.865	36719.74
539.065	36973.69
539.266	36312.19
539.466	36899.96
539.667	36287.62
539.868	36512.89
540.068	36367.49
540.269	36134.02
540.469	36609.15
540.67	36627.58
540.87	36312.19
541.071	36164.74
541.271	36555.9
541.472	36191.36
541.672	36287.62
541.873	36396.16
542.073	35599.5
542.274	36478.08
542.474	36293.76
542.675	35628.17
542.875	36299.9
543.075	35681.42
543.276	36019.33
543.476	36322.43
543.676	35839.11
543.877	36220.03
544.077	36068.48
544.277	35851.4
544.478	36105.35
544.678	36338.82
544.878	35832.97
545.078	36039.81
545.279	35916.93
545.479	35835.02
545.679	36056.2
545.879	35693.71
546.079	36123.78
546.28	35744.91
546.48	35720.33
546.68	36168.83
546.88	35845.26
547.08	35906.69
547.28	35787.91
547.48	35431.57
547.68	35921.03
547.88	35548.3
548.081	35925.13
548.281	35517.58
548.481	35648.65
548.681	35937.41
548.881	36041.86
549.081	35957.89
549.28	35878.02
549.48	36185.22
549.68	35681.42
549.88	36467.84
550.08	35589.26
550.28	35972.23
550.48	35718.28
550.68	36199.55
550.88	35302.54
551.08	35648.65
551.279	36121.73
551.479	35785.86
551.679	36023.43
551.879	35972.23
552.079	36066.44
552.278	35550.35
552.478	36011.14
552.678	35951.75
552.878	36064.39
553.077	35867.78
553.277	35677.32
553.477	36459.65
553.676	36226.18
553.876	35976.33
554.076	35994.76
554.275	36154.5
554.475	36232.32
554.674	36187.27
554.874	36174.98
555.074	35961.99
555.273	36082.82
555.473	36334.72
555.672	36056.2
555.872	36281.47
556.071	36398.21
556.271	36678.78
556.47	36394.11
556.67	36138.12
556.869	36123.78
557.068	36379.78
557.268	36062.34
557.467	36050.05
557.667	36560
557.866	36643.96
558.065	36205.7
558.265	36080.77
558.464	35898.5
558.663	36414.59
558.863	36017.29
559.062	36859
559.261	36689.02
559.461	36584.57
559.66	36236.42
559.859	36097.16
560.058	35853.45
560.258	36476.03
560.457	36000.9
560.656	36295.81
560.855	36119.68
561.054	36490.37
561.253	36330.62
561.453	36191.36
561.652	36312.19
561.851	36088.96
562.05	35943.56
562.249	35914.89
562.448	36054.15
562.647	36121.73
562.846	35878.02
563.045	36189.31
563.244	35810.44
563.443	36177.03
563.642	35896.45
563.841	35849.35
564.04	35990.66
564.239	36078.72
564.438	35918.98
564.637	36164.74
564.836	36199.55
565.035	35402.89
565.234	35769.48
565.432	35650.7
565.631	35976.33
565.83	36107.4
566.029	35724.43
566.228	35591.31
566.427	35396.75
566.625	35681.42
566.824	34999.44
567.023	35576.97
567.222	34880.66
567.42	35445.9
567.619	35398.8
567.818	35574.92
568.016	35339.41
568.215	35165.33
568.414	34831.51
568.612	35351.7
568.811	35028.12
569.01	34843.8
569.208	34466.97
569.407	35138.71
569.605	34567.32
569.804	34944.15
570.002	34415.77
570.201	34882.71
570.4	34049.19
570.598	34036.9
570.797	34323.61
570.995	34151.59
571.193	34024.61
571.392	34108.58
571.59	34170.02
571.789	33873.06
571.987	33973.41
572.186	33791.14
572.384	33567.91
572.582	33647.79
572.781	33758.38
572.979	33436.84
573.177	33705.13
573.376	33633.45
573.574	33299.63
573.772	33543.34
573.971	33150.13
574.169	33047.73
574.367	32769.21
574.565	33387.69
574.763	32775.35
574.962	32883.89
575.16	32586.94
575.358	32394.43
575.556	32097.47
575.754	32693.43
575.952	32193.73
576.151	32718.01
576.349	32349.37
576.547	32007.36
576.745	32349.37
576.943	32054.47
577.141	32249.02
577.339	31771.85
577.537	31921.35
577.735	31651.02
577.933	31372.49
578.131	31554.76
578.329	31149.26
578.527	31091.92
578.725	31499.47
578.923	31417.55
579.121	31333.58
579.319	30862.55
579.516	31222.99
579.714	31005.91
579.912	30928.08
580.11	30811.35
580.308	30788.82
580.506	30493.91
580.704	30018.78
580.901	30565.59
581.099	30891.22
581.297	30199.01
581.495	29998.3
581.692	30360.8
581.89	30031.07
582.088	30231.77
582.285	29787.36
582.483	29922.53
582.681	29859.04
582.878	30080.22
583.076	29584.62
583.274	29781.22
583.471	29371.63
583.669	29492.46
583.866	29291.76
584.064	29682.92
584.262	28982.51
584.459	29351.15
584.657	29023.47
584.854	28959.98
585.052	28794.1
585.249	29125.87
585.447	28849.39
585.644	28474.62
585.841	28828.91
586.039	28900.59
586.236	28677.37
586.434	28419.32
586.631	28421.37
586.828	28708.08
587.026	28329.21
587.223	28103.93
587.42	28267.77
587.618	28196.09
587.815	28091.65
588.012	27878.66
588.21	27630.85
588.407	27962.62
588.604	27536.65
588.801	27667.72
588.999	27888.9
589.196	27806.98
589.393	27860.23
589.59	27467.02
589.787	27589.89
589.984	27227.4
590.182	27374.86
590.379	27602.18
590.576	27421.96
590.773	27184.4
590.97	27174.16
591.167	27200.78
591.364	26539.29
591.561	27168.01
591.758	26797.33
591.955	26744.08
592.152	27069.71
592.349	26737.94
592.546	26649.88
592.743	26782.99
592.94	26461.46
593.137	26551.57
593.334	26588.44
593.531	26428.7
593.727	26858.77
593.924	26576.15
594.121	26352.92
594.318	26535.19
594.515	25933.09
594.712	26412.31
594.908	26176.8
595.105	26330.39
595.302	26090.78
595.499	26443.03
595.696	26146.08
595.892	26035.49
596.089	26371.35
596.286	25988.38
596.482	26023.2
596.679	25900.32
596.876	25812.26
597.072	25877.79
597.269	25711.91
597.466	25810.21
597.662	25789.73
597.859	25838.88
598.055	26047.77
598.252	25646.37
598.448	25898.27
598.645	25890.08
598.841	25513.25
599.038	25820.45
599.234	25836.83
599.431	25339.18
599.627	25337.13
599.824	25627.94
600.02	25693.47
600.217	25951.52
600.413	25697.57
600.609	25490.73
600.806	25937.18
601.002	25603.36
601.198	25613.6
601.395	25689.38
601.591	25287.98
601.787	25548.07
601.984	25402.66
602.18	25808.16
602.376	25812.26
602.572	25507.11
602.769	25509.16
602.965	25898.27
603.161	25509.16
603.357	25341.22
603.553	25677.09
603.75	25722.15
603.946	25679.14
604.142	25693.47
604.338	25380.14
604.534	26060.06
604.73	25490.73
604.926	25779.49
605.122	25771.3
605.318	25668.9
605.514	25460.01
605.71	25656.61
605.906	25961.76
606.102	25931.04
606.298	25949.47
606.494	25795.87
606.69	25939.23
606.886	26004.77
607.082	25494.82
607.278	26039.58
607.474	25869.6
607.67	26162.46
607.866	25666.85
608.062	26424.6
608.257	26414.36
608.453	25681.19
608.649	25935.13
608.845	25763.11
609.041	26033.44
609.236	26314.01
609.432	25808.16
609.628	26109.21
609.824	26225.95
610.019	25994.53
610.215	25842.98
610.411	25924.9
610.606	26371.35
610.802	26494.23
610.998	26492.18
611.193	26572.05
611.389	26223.9
611.584	26168.6
611.78	26492.18
611.976	26416.41
612.171	26549.53
612.367	26574.1
612.562	26502.42
612.758	26209.56
612.953	26084.64
613.149	26508.57
613.344	26150.17
613.539	26912.02
613.735	26379.54
613.93	26629.4
614.126	26572.05
614.321	26799.38
614.517	26490.13
614.712	26660.12
614.907	26463.51
615.103	26580.25
615.298	26615.06
615.493	27020.56
615.688	26582.29
615.884	26813.71
616.079	26275.1
616.274	26699.03
616.47	26475.8
616.665	26586.39
616.86	26330.39
617.055	26357.02
617.25	26070.3
617.445	26459.41
617.641	26277.15
617.836	26438.94
618.031	26383.64
618.226	26709.27
618.421	26309.91
618.616	26527
618.811	26172.7
619.006	26627.35
619.201	26227.99
619.396	25992.48
619.591	25656.61
619.786	26316.06
619.981	26015.01
620.176	25994.53
620.371	25832.74
620.566	25644.32
620.761	25552.16
620.956	25691.43
621.151	25367.85
621.346	25464.1
621.541	24980.78
621.735	25492.77
621.93	24894.77
622.125	25083.18
622.32	24618.29
622.515	24710.45
622.709	24610.1
622.904	24634.67
623.099	24401.21
623.294	24515.89
623.488	24028.48
623.683	24589.62
623.878	24261.94
624.072	24083.77
624.267	23969.08
624.462	24102.2
624.656	23727.42
624.851	23545.16
625.046	23725.38
625.24	23381.32
625.435	23098.7
625.629	23301.45
625.824	23227.72
626.018	23379.27
626.213	22838.61
626.407	22863.18
626.602	22695.25
626.796	22979.92
626.991	22938.96
627.185	22400.34
627.38	22605.14
627.574	22046.04
627.768	22207.83
627.963	21902.68
628.157	21736.8
628.352	22203.74
628.546	21415.27
628.74	21820.77
628.935	21177.7
629.129	21095.78
629.323	21083.5
629.517	21308.77
629.712	21103.98
629.906	21333.35
630.1	20852.08
630.294	20929.9
630.489	20481.39
630.683	20731.25
630.877	20602.22
631.071	20401.52
631.265	20348.28
631.459	20102.52
631.653	20145.53
631.848	20379
632.042	20137.34
632.236	20051.32
632.43	19699.07
632.624	19838.33
632.818	19582.34
633.012	19275.14
633.206	19340.68
633.4	19430.79
633.594	18969.99
633.788	19086.73
633.982	19189.13
634.176	19193.22
634.369	18638.22
634.563	18527.63
634.757	18670.99
634.951	18730.38
635.145	18650.51
635.339	18783.63
635.533	18685.33
635.726	18587.02
635.92	17964.44
636.114	18224.53
636.308	17804.7
636.501	17792.41
636.695	17943.96
636.889	17659.29
637.083	17673.63
637.276	17513.89
637.47	17290.66
637.664	17341.86
637.857	17163.68
638.051	17122.73
638.244	17042.85
638.438	17102.25
638.632	17014.18
638.825	16588.21
639.019	16946.6
639.212	16358.83
639.406	16725.42
639.599	16395.7
639.793	16498.09
639.986	16104.88
640.18	16330.16
640.373	15971.77
640.567	16033.21
640.76	15912.38
640.954	15807.93
641.147	15695.29
641.34	15519.17
641.534	15549.89
641.727	15461.82
641.92	15388.1
642.114	15338.94
642.307	15338.94
642.5	15146.44
642.694	14982.6
642.887	14851.53
643.08	14966.21
643.273	14675.4
643.467	14589.39
643.66	14661.07
643.853	14542.28
644.046	14294.48
644.239	14108.12
644.432	14183.89
644.626	14050.77
644.819	14081.49
645.012	13880.79
645.205	14061.01
645.398	13843.93
645.591	13684.19
645.784	13583.84
645.977	13409.76
646.17	13487.58
646.363	13379.04
646.556	13235.68
646.749	13540.83
646.942	13348.32
647.135	13082.08
647.328	12744.17
647.521	13032.93
647.714	12795.37
647.907	12981.73
648.099	12893.67
648.292	12678.63
648.485	12594.67
648.678	12375.53
648.871	12412.4
649.064	12320.24
649.256	12357.1
649.449	12305.9
649.642	12115.44
649.835	12033.52
650.027	12074.48
650.22	12035.57
650.413	11789.81
650.605	12056.05
650.798	11634.17
650.991	11552.25
651.183	11826.68
651.376	11603.45
651.568	11572.73
651.761	11542.01
651.954	11709.94
652.146	11300.35
652.339	11343.36
652.531	11234.82
652.724	11183.62
652.916	11105.79
653.109	10870.28
653.301	11009.54
653.494	10982.92
653.686	10667.53
653.879	10956.29
654.071	10659.34
654.263	10739.21
654.456	10651.14
654.648	10618.38
654.84	10341.9
655.033	10452.49
655.225	10534.41
655.417	10239.5
655.61	10274.32
655.802	10223.12
655.994	10354.19
656.186	10165.78
656.379	9965.07
656.571	10274.32
656.763	10061.33
656.955	9838.1
657.148	9932.31
657.34	9700.89
657.532	9752.09
657.724	9823.76
657.916	9668.12
658.108	9702.93
658.3	9328.16
658.492	9471.51
658.684	9389.6
658.876	9334.3
659.068	9389.6
659.26	9158.17
659.452	9332.25
659.644	9317.92
659.836	9233.95
660.028	9016.87
660.22	8998.43
660.412	9059.87
660.604	8840.74
660.796	8838.69
660.988	8801.83
661.18	8799.78
661.372	8668.71
661.563	8752.68
661.755	8547.88
661.947	8715.81
662.139	8404.52
662.331	8494.63
662.522	8412.71
662.714	8523.3
662.906	8359.47
663.097	8439.34
663.289	8283.69
663.481	8175.15
663.673	8003.12
663.864	8019.5
664.056	8023.6
664.247	8072.75
664.439	8019.5
664.631	7970.35
664.822	7790.13
665.014	7919.15
665.205	7751.22
665.397	7724.6
665.588	7593.53
665.78	7783.99
665.971	7792.18
666.163	7618.1
666.354	7437.88
666.546	7603.77
666.737	7609.91
666.929	7519.8
667.12	7458.36
667.311	7372.35
667.503	7355.96
667.694	7310.91
667.885	7269.95
668.077	7437.88
668.268	7259.71
668.459	7089.73
668.651	7054.91
668.842	7192.12
669.033	7085.63
669.224	6995.52
669.416	6893.12
669.607	6872.64
669.798	6819.39
669.989	7093.82
670.18	6889.03
670.371	6854.21
670.563	6860.35
670.754	6880.83
670.945	6706.76
671.136	6768.2
671.327	6764.1
671.518	6565.45
671.709	6635.08
671.9	6610.5
672.091	6573.64
672.282	6549.06
672.473	6506.06
672.664	6577.73
672.855	6614.6
673.046	6573.64
673.237	6530.63
673.428	6213.2
673.619	6393.42
673.809	6422.09
674	6352.46
674.191	6258.25
674.382	6184.52
674.573	6250.06
674.764	6282.83
674.954	6336.07
675.145	6209.1
675.336	6202.96
675.527	6188.62
675.717	6196.81
675.908	6045.26
676.099	6200.91
676.289	6028.88
676.48	5914.19
676.671	6002.26
676.861	6053.45
677.052	5908.05
677.243	6102.61
677.433	6037.07
677.624	5889.62
677.814	5940.82
678.005	5946.96
678.195	5832.27
678.386	6075.98
678.576	5908.05
678.767	5811.79
678.957	5717.59
679.148	5881.42
679.338	5824.08
679.529	5690.96
679.719	5815.89
679.909	5901.9
680.1	5809.75
680.29	5824.08
680.481	5703.25
680.671	5916.24
680.861	5621.33
681.052	5822.03
681.242	5805.65
681.432	5697.11
681.622	5619.28
681.813	5580.37
682.003	5613.14
682.193	5520.98
682.383	5635.67
682.573	5639.76
682.764	5697.11
682.954	5684.82
683.144	5523.03
683.334	5578.33
683.524	5586.52
683.714	5504.6
683.904	5580.37
684.094	5586.52
684.284	5512.79
684.474	5547.61
684.664	5301.85
684.854	5387.86
685.044	5269.08
685.234	5463.64
685.424	5457.5
685.614	5410.39
685.804	5447.26
685.994	5455.45
686.184	5541.46
686.374	5307.99
686.564	5318.23
686.753	5361.24
686.943	5246.55
687.133	5291.61
687.323	5154.4
687.513	5221.98
687.702	5279.32
687.892	5267.03
688.082	5242.46
688.272	5119.58
688.461	5324.38
688.651	5301.85
688.841	5234.27
689.03	5113.44
689.22	5062.24
689.41	5201.5
689.599	5219.93
689.789	5088.86
689.979	5221.98
690.168	5049.95
690.358	5029.47
690.547	5041.76
690.737	4961.89
690.926	5144.16
691.116	4779.62
691.305	5017.18
691.495	4914.78
691.684	4972.13
691.874	5054.05
692.063	4927.07
692.252	4808.29
692.442	4953.7
692.631	4775.52
692.82	4939.36
693.01	4867.68
693.199	4810.34
693.388	4759.14
693.578	5008.99
693.767	4744.8
693.956	4769.38
694.146	4724.32
694.335	4664.93
694.524	4675.17
694.713	4709.99
694.902	4638.31
695.092	4777.57
695.281	4529.77
695.47	4808.29
695.659	4775.52
695.848	4677.22
696.037	4587.11
696.226	4679.27
696.415	4656.74
696.604	4580.96
696.793	4398.7
696.982	4578.92
697.171	4556.39
697.36	4597.35
697.549	4523.62
697.738	4521.57
697.927	4400.74
698.116	4521.57
698.305	4607.59
698.494	4427.37
698.683	4415.08
698.872	4562.53
699.061	4456.04
699.25	4499.05
699.438	4357.74
699.627	4456.04
699.816	4607.59
700.005	4415.08
700.193	4206.19
700.382	4286.06
700.571	4284.01
700.76	4345.45
700.948	4398.7
701.137	4392.55
701.326	4367.98
701.514	4308.58
701.703	4292.2
701.892	4169.32
702.08	4226.67
702.269	4251.24
702.457	4144.75
702.646	4324.97
702.834	4204.14
703.023	4060.78
703.212	4124.27
703.4	4327.02
703.589	4130.41
703.777	4191.85
703.965	4015.73
704.154	4132.46
704.342	3954.29
704.531	4245.1
704.719	4083.31
704.907	4025.97
705.096	3933.81
705.284	4042.35
705.472	3989.1
705.661	4159.08
705.849	3909.23
706.037	4034.16
706.226	3915.37
706.414	4136.56
706.602	3909.23
706.79	4017.77
706.979	3931.76
707.167	3901.04
707.355	3759.73
707.543	3999.34
707.731	3880.56
707.919	3935.85
708.107	3876.46
708.296	3913.33
708.484	3817.07
708.672	3812.98
708.86	3898.99
709.048	3792.5
709.236	3845.74
709.424	3882.61
709.612	3767.92
709.8	3681.91
709.988	3698.29
710.176	3743.35
710.364	3753.59
710.551	3735.15
710.739	3636.85
710.927	3659.38
711.115	3686
711.303	3704.43
711.491	3587.7
711.679	3581.56
711.866	3571.32
712.054	3530.36
712.242	3616.37
712.43	3663.47
712.617	3636.85
712.805	3583.6
712.993	3497.59
713.181	3464.82
713.368	3567.22
713.556	3587.7
713.744	3473.01
713.931	3591.8
714.119	3563.12
714.306	3473.01
714.494	3464.82
714.682	3423.86
714.869	3507.83
715.057	3513.97
715.244	3382.9
715.432	3419.77
715.619	3382.9
715.807	3327.61
715.994	3423.86
716.182	3278.46
716.369	3368.57
716.556	3350.14
716.744	3317.37
716.931	3378.81
717.119	3335.8
717.306	3309.18
717.493	3174.01
717.681	3284.6
717.868	3221.11
718.055	3284.6
718.242	3233.4
718.43	3366.52
718.617	3278.46
718.804	3163.77
718.991	3190.39
719.179	3276.41
719.366	3155.58
719.553	3153.53
719.74	3096.19
719.927	3219.07
720.114	3014.27
720.301	3124.86
720.488	3038.84
720.676	3088
720.863	3128.95
721.05	3092.09
721.237	3104.38
721.424	3098.24
721.611	3063.42
721.798	2989.69
721.985	3036.8
722.172	2961.02
722.358	2981.5
722.545	3149.43
722.732	2932.35
722.919	3055.23
723.106	2948.73
723.293	2924.16
723.48	2891.39
723.667	2924.16
723.853	2883.2
724.04	2950.78
724.227	2944.64
724.414	2823.81
724.6	3006.08
724.787	2860.67
724.974	2981.5
725.161	2893.44
725.347	2920.06
725.534	2907.77
725.72	2877.05
725.907	2860.67
726.094	2922.11
726.28	2875.01
726.467	2756.22
726.653	2825.86
726.84	2842.24
727.027	2840.19
727.213	2801.28
727.4	2897.53
727.586	2862.72
727.773	2817.66
727.959	2793.09
728.145	2887.29
728.332	2596.48
728.518	2651.78
728.705	2719.36
728.891	2834.05
729.077	2645.63
729.264	2573.96
729.45	2606.72
729.636	2621.06
729.823	2662.02
730.009	2698.88
730.195	2567.81
730.382	2731.65
730.568	2672.26
730.754	2625.15
730.94	2758.27
731.126	2623.11
731.313	2672.26
731.499	2768.51
731.685	2760.32
731.871	2588.29
732.057	2489.99
732.243	2631.3
732.429	2539.14
732.615	2576
732.801	2514.56
732.987	2639.49
733.173	2635.39
733.359	2563.72
733.545	2616.96
733.731	2498.18
733.917	2596.48
734.103	2596.48
734.289	2530.95
734.475	2571.91
734.661	2604.67
734.847	2473.6
735.033	2504.32
735.219	2449.03
735.404	2522.76
735.59	2481.8
735.776	2358.92
735.962	2457.22
736.148	2383.49
736.333	2492.04
736.519	2305.67
736.705	2451.08
736.89	2383.49
737.076	2406.02
737.262	2338.44
737.447	2416.26
737.633	2297.48
737.819	2397.83
738.004	2203.27
738.19	2322.06
738.375	2367.11
738.561	2268.81
738.747	2410.12
738.932	2303.62
739.118	2311.82
739.303	2225.8
739.489	2346.63
739.674	2391.69
739.859	2248.33
740.045	2334.34
740.23	2250.38
740.416	2207.37
740.601	2307.72
740.786	2221.7
740.972	2107.02
741.157	2260.62
741.342	2240.14
741.528	2133.64
741.713	2252.42
741.898	2264.71
742.084	2260.62
742.269	2090.63
742.454	2131.59
742.639	2154.12
742.824	2109.07
743.01	2209.42
743.195	2121.35
743.38	2129.55
743.565	2162.31
743.75	2070.16
743.935	2080.39
744.12	2156.17
744.305	2031.24
744.49	2006.67
744.675	2070.16
744.86	2010.76
745.045	2080.39
745.23	2014.86
745.415	1943.18
745.6	1969.8
745.785	1869.45
745.97	1992.33
746.155	2059.92
746.34	2074.25
746.525	1928.85
746.71	1975.95
746.895	1834.64
747.079	1779.34
747.264	1916.56
747.449	1916.56
747.634	1910.41
747.819	1805.97
748.003	1769.1
748.188	1861.26
748.373	1810.06
748.557	1810.06
748.742	1830.54
748.927	1769.1
749.111	1728.14
749.296	1752.72
749.481	1781.39
749.665	1818.25
749.85	1711.76
750.034	1666.71
750.219	1754.77
750.404	1623.7
750.588	1633.94
750.773	1560.21
750.957	1640.08
751.141	1672.85
751.326	1638.03
751.51	1648.27
751.695	1678.99
751.879	1658.51
752.064	1648.27
752.248	1601.17
752.432	1588.88
752.617	1535.64
752.801	1660.56
752.985	1521.3
753.17	1564.31
753.354	1500.82
753.538	1492.63
753.722	1564.31
753.907	1509.01
754.091	1425.04
754.275	1402.52
754.459	1447.57
754.643	1449.62
754.828	1359.51
755.012	1433.24
755.196	1402.52
755.38	1400.47
755.564	1384.09
755.748	1377.94
755.932	1404.57
756.116	1271.45
756.3	1441.43
756.484	1302.17
756.668	1332.89
756.852	1222.3
757.036	1343.13
757.22	1224.34
757.404	1343.13
757.588	1285.78
757.772	1312.41
757.956	1271.45
758.14	1353.37
758.323	1179.29
758.507	1224.34
758.691	1199.77
758.875	1293.97
759.059	1142.43
759.242	1228.44
759.426	1099.42
759.61	1158.81
759.794	1177.24
759.977	1269.4
760.161	1234.58
760.345	1228.44
760.528	1261.21
760.712	1183.38
760.895	1132.19
761.079	1142.43
761.263	1167
761.446	978.59
761.63	1085.08
761.813	1144.47
761.997	1042.07
762.18	1109.66
762.364	1132.19
762.547	1056.41
762.731	1085.08
762.914	1080.99
763.098	1023.64
763.281	994.97
763.464	1117.85
763.648	1050.27
763.831	1031.83
764.015	1119.9
764.198	1017.5
764.381	992.92
764.564	1078.94
764.748	1054.36
764.931	1105.56
765.114	1007.26
765.297	929.44
765.481	888.48
765.664	1048.22
765.847	1062.55
766.03	1121.95
766.213	972.44
766.397	1052.31
766.58	1023.64
766.763	984.73
766.946	923.29
767.129	1054.36
767.312	876.19
767.495	974.49
767.678	911
767.861	1066.65
768.044	980.64
768.227	990.88
768.41	960.16
768.593	1035.93
768.776	896.67
768.959	970.4
769.142	976.54
769.324	921.24
769.507	925.34
769.69	902.81
769.873	855.71
770.056	1027.74
770.239	892.57
770.421	925.34
770.604	925.34
770.787	865.95
770.97	851.61
771.152	890.53
771.335	876.19
771.518	843.42
771.7	872.09
771.883	868
772.066	880.29
772.248	880.29
772.431	847.52
772.613	845.47
772.796	843.42
772.978	861.85
773.161	900.76
773.343	761.5
773.526	757.41
773.708	767.65
773.891	802.46
774.073	814.75
774.256	761.5
774.438	868
774.621	829.09
774.803	835.23
774.985	853.66
775.168	771.74
775.35	716.45
775.532	820.89
775.715	714.4
775.897	831.13
776.079	736.93
776.261	853.66
776.444	738.98
776.626	702.11
776.808	779.93
776.99	716.45
777.173	695.97
777.355	763.55
777.537	704.16
777.719	687.78
777.901	667.3
778.083	704.16
778.265	663.2
778.447	681.63
778.629	630.43
778.811	722.59
778.993	638.62
779.175	657.06
779.357	681.63
779.539	644.77
779.721	581.28
779.903	687.78
780.085	632.48
780.267	618.15
780.449	571.04
780.631	646.82
780.812	652.96
780.994	597.67
781.176	609.95
781.358	593.57
781.54	552.61
781.721	655.01
781.903	630.43
782.085	558.75
782.267	665.25
782.448	607.91
782.63	528.03
782.812	585.38
782.993	630.43
783.175	564.9
783.357	423.59
783.538	532.13
783.72	501.41
783.901	566.95
784.083	560.8
784.264	614.05
784.446	460.45
784.627	515.75
784.809	540.32
784.99	523.94
785.172	536.23
785.353	540.32
785.535	532.13
785.716	464.55
785.897	542.37
786.079	515.75
786.26	495.27
786.441	386.72
786.623	462.5
786.804	462.5
786.985	452.26
787.167	413.35
787.348	501.41
787.529	405.16
787.71	493.22
787.891	409.25
788.073	323.24
788.254	442.02
788.435	460.45
788.616	417.44
788.797	394.92
788.978	446.12
789.159	335.53
789.34	425.64
789.522	419.49
789.703	425.64
789.884	396.96
790.065	474.79
790.246	491.17
790.427	376.48
790.607	466.6
790.788	433.83
790.969	339.62
791.15	403.11
791.331	349.86
791.512	372.39
791.693	335.53
791.874	482.98
792.054	478.88
792.235	360.1
792.416	394.92
792.597	351.91
792.778	417.44
792.958	468.64
793.139	376.48
793.32	345.77
793.5	335.53
793.681	409.25
793.862	341.67
794.042	290.47
794.223	263.85
794.404	419.49
794.584	351.91
794.765	362.15
794.945	323.24
795.126	425.64
795.306	306.85
795.487	329.38
795.667	327.33
795.848	444.07
796.028	294.57
796.209	255.65
796.389	380.58
796.57	347.81
796.75	288.42
796.93	384.68
797.111	202.41
797.291	261.8
797.471	229.03
797.652	290.47
797.832	257.7
798.012	351.91
798.192	288.42
798.373	313
798.553	247.46
798.733	360.1
798.913	241.32
799.093	302.76
799.274	190.12
799.454	405.16
799.634	331.43
799.814	272.04
799.994	310.95
800.174	313
800.354	196.26
800.534	288.42
800.714	343.72
800.894	173.74
801.074	196.26
801.254	241.32
801.434	310.95
801.614	280.23
801.794	237.22
801.974	1040.03
802.154	269.99
802.334	269.99
802.514	147.11
802.693	222.89
802.873	280.23
803.053	298.66
803.233	229.03
803.413	214.7
803.592	188.07
803.772	188.07
803.952	327.33
804.131	210.6
804.311	183.98
804.491	214.7
804.67	245.41
804.85	169.64
805.03	155.3
805.209	237.22
805.389	173.74
805.568	249.51
805.748	261.8
805.928	249.51
806.107	263.85
806.287	306.85
806.466	231.08
806.646	198.31
806.825	196.26
807.004	231.08
807.184	243.37
807.363	229.03
807.543	179.88
807.722	253.61
807.901	286.37
808.081	302.76
808.26	147.11
808.439	196.26
808.619	198.31
808.798	112.3
808.977	198.31
809.156	245.41
809.336	171.69
809.515	251.56
809.694	175.78
809.873	192.17
810.052	177.83
810.231	212.65
810.411	186.02
810.59	212.65
810.769	118.44
810.948	198.31
811.127	138.92
811.306	179.88
811.485	159.4
811.664	114.34
811.843	208.55
812.022	204.46
812.201	165.54
812.38	179.88
812.559	220.84
812.737	188.07
812.916	89.77
813.095	153.26
813.274	104.11
813.453	179.88
813.632	183.98
813.811	149.16
813.989	118.44
814.168	179.88
814.347	143.02
814.526	204.46
814.704	190.12
814.883	237.22
815.062	110.25
815.24	188.07
815.419	116.39
815.598	136.87
815.776	89.77
815.955	73.39
816.133	77.48
816.312	165.54
816.49	163.5
816.669	124.58
816.847	89.77
817.026	126.63
817.204	196.26
817.383	157.35
817.561	126.63
817.74	110.25
817.918	130.73
818.097	143.02
818.275	126.63
818.453	190.12
818.632	134.82
818.81	140.97
818.988	48.81
819.167	130.73
819.345	163.5
819.523	124.58
819.701	89.77
819.879	188.07
820.058	145.06
820.236	73.39
820.414	155.3
820.592	155.3
820.77	67.24
820.948	165.54
821.127	73.39
821.305	106.15
821.483	140.97
821.661	124.58
821.839	40.62
822.017	171.69
822.195	116.39
822.373	159.4
822.551	151.21
822.729	179.88
822.907	-14.68
823.085	163.5
823.262	122.54
823.44	97.96
823.618	118.44
823.796	114.34
823.974	81.58
824.152	97.96
824.329	157.35
824.507	155.3
824.685	173.74
824.863	102.06
825.04	147.11
825.218	116.39
825.396	118.44
825.574	75.43
825.751	177.83
825.929	128.68
826.107	130.73
826.284	171.69
826.462	110.25
826.639	157.35
826.817	63.15
826.994	69.29
827.172	7.85
827.349	130.73
827.527	75.43
827.704	97.96
827.882	181.93
828.059	95.91
828.237	114.34
828.414	116.39
828.591	59.05
828.769	48.81
828.946	20.14
829.124	153.26
829.301	165.54
829.478	81.58
829.655	93.87
829.833	97.96
830.01	34.47
830.187	81.58
830.364	138.92
830.542	69.29
830.719	153.26
830.896	163.5
831.073	-14.68
831.25	118.44
831.427	89.77
831.604	110.25
831.782	102.06
831.959	163.5
832.136	116.39
832.313	136.87
832.49	48.81
832.667	97.96
832.844	83.63
833.021	61.1
833.198	102.06
833.374	28.33
833.551	81.58
833.728	67.24
833.905	122.54
834.082	81.58
834.259	85.67
834.436	163.5
834.612	26.28
834.789	65.19
834.966	65.19
835.143	77.48
835.319	48.81
835.496	132.78
835.673	114.34
835.85	149.16
836.026	110.25
836.203	130.73
836.38	11.95
836.556	95.91
836.733	67.24
836.909	65.19
837.086	97.96
837.262	122.54
837.439	81.58
837.616	24.23
837.792	9.9
837.968	136.87
838.145	9.9
838.321	132.78
838.498	100.01
838.674	16.04
838.851	102.06
839.027	106.15
839.203	73.39
839.38	50.86
839.556	75.43
839.732	97.96
839.909	20.14
840.085	147.11
840.261	67.24
840.437	-4.44
840.614	50.86
840.79	93.87
840.966	95.91
841.142	40.62
841.318	42.67
841.494	118.44
841.671	124.58
841.847	-6.49
842.023	24.23
842.199	26.28
842.375	89.77
842.551	-22.87
842.727	-41.3
842.903	75.43
843.079	11.95
843.255	118.44
843.431	75.43
843.607	57
843.783	-41.3
843.959	24.23
844.134	-16.73
844.31	83.63
844.486	42.67
844.662	24.23
844.838	18.09
845.013	44.71
845.189	44.71
845.365	44.71
845.541	77.48
845.716	89.77
845.892	102.06
846.068	83.63
846.244	22.19
846.419	-14.68
846.595	32.43
846.77	28.33
846.946	-0.34
847.122	48.81
847.297	3.75
847.473	122.54
847.648	1.71
847.824	57
847.999	20.14
848.175	-55.64
848.35	122.54
848.526	50.86
848.701	65.19
848.876	54.95
849.052	97.96
849.227	11.95
849.403	46.76
849.578	20.14
849.753	106.15
849.929	40.62
850.104	9.9
850.279	34.47
850.454	61.1
850.63	-6.49
850.805	81.58
850.98	9.9
851.155	30.38
851.33	11.95
851.505	18.09
851.681	46.76
851.856	40.62
852.031	44.71
852.206	91.82
852.381	34.47
852.556	48.81
852.731	89.77
852.906	83.63
853.081	40.62
853.256	40.62
853.431	-2.39
853.606	65.19
853.781	44.71
853.956	24.23
854.131	83.63
854.305	93.87
854.48	24.23
854.655	13.99
854.83	9.9
855.005	85.67
855.18	104.11
855.354	57
855.529	124.58
855.704	89.77
855.879	57
856.053	-55.64
856.228	-24.92
856.403	-10.58
856.577	16.04
856.752	-33.11
856.926	36.52
857.101	32.43
857.276	-24.92
857.45	18.09
857.625	126.63
857.799	59.05
857.974	65.19
858.148	-8.53
858.323	48.81
858.497	57
858.672	28.33
858.846	-14.68
859.02	104.11
859.195	-8.53
859.369	65.19
859.543	18.09
859.718	-31.06
859.892	11.95
860.066	-0.34
860.241	11.95
860.415	65.19
860.589	65.19
860.763	50.86
860.938	18.09
861.112	95.91
861.286	5.8
861.46	20.14
861.634	16.04
861.808	65.19
861.982	-26.96
862.157	28.33
862.331	9.9
862.505	1.71
862.679	18.09
862.853	-24.92
863.027	3.75
863.201	81.58
863.375	-22.87
863.549	89.77
863.722	32.43
863.896	89.77
864.07	18.09
864.244	48.81
864.418	7.85
864.592	65.19
864.766	7.85
864.939	24.23
865.113	-39.25
865.287	89.77
865.461	1.71
865.634	18.09
865.808	-22.87
865.982	50.86
866.156	59.05
866.329	34.47
866.503	32.43
866.676	83.63
866.85	32.43
867.024	3.75
867.197	16.04
867.371	44.71
867.544	30.38
867.718	-49.49
867.891	97.96
868.065	32.43
868.238	71.34
868.412	44.71
868.585	-35.16
868.759	30.38
868.932	97.96
869.105	-16.73
869.279	20.14
869.452	-14.68
869.625	89.77
869.799	30.38
869.972	-16.73
870.145	50.86
870.319	48.81
870.492	-53.59
870.665	34.47
870.838	50.86
871.011	-26.96
871.185	32.43
871.358	36.52
871.531	91.82
871.704	-20.82
871.877	11.95
872.05	-18.77
872.223	-16.73
872.396	-8.53
872.569	42.67
872.742	-74.07
872.915	85.67
873.088	42.67
873.261	20.14
873.434	57
873.607	-29.01
873.78	54.95
873.953	-8.53
874.126	13.99
874.299	61.1
874.471	-63.83
874.644	32.43
874.817	-14.68
874.99	97.96
875.163	77.48
875.335	42.67
875.508	42.67
875.681	59.05
875.853	3.75
876.026	83.63
876.199	87.72
876.371	69.29
876.544	18.09
876.717	75.43
876.889	-57.68
877.062	28.33
877.234	-14.68
877.407	-61.78
877.579	1.71
877.752	114.34
877.924	-2.39
878.097	13.99
878.269	26.28
878.442	61.1
878.614	32.43
878.786	1.71
878.959	69.29
879.131	26.28
879.303	-90.45
879.476	-57.68
879.648	9.9
879.82	-41.3
879.993	32.43
880.165	-16.73
880.337	-8.53
880.509	83.63
880.681	-31.06
880.854	-16.73
881.026	32.43
881.198	130.73
881.37	7.85
881.542	69.29
881.714	50.86
881.886	7.85
882.058	34.47
882.23	1.71
882.402	11.95
882.574	34.47
882.746	-0.34
882.918	100.01
883.09	69.29
883.262	-29.01
883.434	-8.53
883.606	-8.53
883.778	11.95
883.95	79.53
884.122	-2.39
884.293	46.76
884.465	26.28
884.637	48.81
884.809	-16.73
884.98	77.48
885.152	102.06
885.324	32.43
885.496	20.14
885.667	54.95
885.839	7.85
886.011	40.62
886.182	-26.96
886.354	26.28
886.525	32.43
886.697	67.24
886.869	18.09
887.04	97.96
887.212	89.77
887.383	77.48
887.555	-0.34
887.726	44.71
887.897	-8.53
888.069	3.75
888.24	26.28
888.412	65.19
888.583	-2.39
888.754	71.34
888.926	-16.73
889.097	32.43
889.268	24.23
889.44	52.91
889.611	26.28
889.782	16.04
889.953	20.14
890.125	85.67
890.296	18.09
890.467	44.71
890.638	-22.87
890.809	7.85
890.98	-33.11
891.151	77.48
891.323	-14.68
891.494	42.67
891.665	97.96
891.836	22.19
892.007	40.62
892.178	85.67
892.349	-29.01
892.52	69.29
892.691	-49.49
892.862	-6.49
893.032	36.52
893.203	42.67
893.374	30.38
893.545	124.58
893.716	-6.49
893.887	-65.88
894.057	1.71
894.228	24.23
894.399	-22.87
894.57	75.43
894.74	75.43
894.911	1.71
895.082	-20.82
895.253	-0.34
895.423	-24.92
895.594	-41.3
895.764	-14.68
895.935	-24.92
896.106	40.62
896.276	-31.06
896.447	-18.77
896.617	36.52
896.788	-24.92
896.958	-12.63
897.129	-41.3
897.299	9.9
897.47	89.77
897.64	18.09
897.81	24.23
897.981	-0.34
898.151	11.95
898.322	48.81
898.492	20.14
898.662	24.23
898.832	-61.78
899.003	-0.34
899.173	1.71
899.343	24.23
899.513	26.28
