Data from USB4F104151__200__14-33-15-551.txt Node

Date: Thu Mar 13 14:33:15 EDT 2025
User: louis
Spectrometer: USB4F10415
Trigger mode: 4
Integration Time (sec): 2.500000E-2
Scans to average: 1
Electric dark correction enabled: true
Nonlinearity correction enabled: false
Boxcar width: 0
XAxis mode: Wavelengths
Number of Pixels in Spectrum: 3648
>>>>>Begin Spectral Data<<<<<
178.204	-154.28
178.424	-154.28
178.644	-154.28
178.864	-101.03
179.084	-127.66
179.304	15.7
179.524	19.8
179.744	-0.68
179.964	-0.68
180.184	5.46
180.404	68.95
180.624	-39.59
180.844	3.41
181.064	-35.5
181.283	-0.68
181.503	-17.07
181.723	-19.11
181.943	-43.69
182.163	30.04
182.383	56.66
182.602	77.14
182.822	44.37
183.042	32.08
183.262	-33.45
183.482	97.62
183.701	13.65
183.921	109.91
184.141	52.56
184.361	118.1
184.58	-29.35
184.8	44.37
185.02	77.14
185.239	126.29
185.459	52.56
185.679	128.34
185.898	-27.31
186.118	175.44
186.338	56.66
186.557	27.99
186.777	-2.73
186.997	68.95
187.216	109.91
187.436	134.48
187.655	36.18
187.875	60.76
188.095	40.28
188.314	71
188.534	116.05
188.753	87.38
188.973	7.51
189.192	-10.92
189.412	122.2
189.631	44.37
189.851	23.89
190.07	152.92
190.29	7.51
190.509	44.37
190.729	52.56
190.948	77.14
191.168	91.48
191.387	71
191.607	60.76
191.826	15.7
192.045	111.96
192.265	103.76
192.484	52.56
192.704	30.04
192.923	-55.98
193.142	197.97
193.362	52.56
193.581	56.66
193.8	11.61
194.02	19.8
194.239	-0.68
194.458	93.52
194.678	50.52
194.897	44.37
195.116	15.7
195.335	171.35
195.555	46.42
195.774	48.47
195.993	56.66
196.212	38.23
196.432	58.71
196.651	62.8
196.87	54.61
197.089	126.29
197.308	85.33
197.528	56.66
197.747	-43.69
197.966	3.41
198.185	97.62
198.404	27.99
198.623	68.95
198.842	134.48
199.062	81.24
199.281	101.72
199.5	60.76
199.719	11.61
199.938	85.33
200.157	95.57
200.376	91.48
200.595	50.52
200.814	89.43
201.033	1.37
201.252	75.09
201.471	54.61
201.69	48.47
201.909	17.75
202.128	79.19
202.347	128.34
202.566	48.47
202.785	-2.73
203.004	25.94
203.223	101.72
203.442	36.18
203.661	44.37
203.879	85.33
204.098	89.43
204.317	93.52
204.536	48.47
204.755	93.52
204.974	124.24
205.193	122.2
205.411	191.83
205.63	79.19
205.849	68.95
206.068	60.76
206.287	68.95
206.505	71
206.724	32.08
206.943	23.89
207.162	56.66
207.381	93.52
207.599	75.09
207.818	87.38
208.037	27.99
208.255	54.61
208.474	38.23
208.693	52.56
208.911	40.28
209.13	79.19
209.349	66.9
209.567	93.52
209.786	60.76
210.005	157.01
210.223	68.95
210.442	-4.78
210.661	11.61
210.879	27.99
211.098	1.37
211.316	32.08
211.535	93.52
211.753	-4.78
211.972	9.56
212.191	11.61
212.409	30.04
212.628	101.72
212.846	114
213.065	101.72
213.283	111.96
213.502	40.28
213.72	40.28
213.938	32.08
214.157	71
214.375	68.95
214.594	79.19
214.812	60.76
215.031	15.7
215.249	52.56
215.467	77.14
215.686	38.23
215.904	120.15
216.122	44.37
216.341	89.43
216.559	105.81
216.778	81.24
216.996	118.1
217.214	79.19
217.432	52.56
217.651	3.41
217.869	13.65
218.087	48.47
218.306	83.28
218.524	81.24
218.742	19.8
218.96	77.14
219.179	40.28
219.397	71
219.615	93.52
219.833	36.18
220.051	56.66
220.27	58.71
220.488	91.48
220.706	152.92
220.924	54.61
221.142	-62.12
221.36	5.46
221.578	46.42
221.796	50.52
222.015	23.89
222.233	19.8
222.451	109.91
222.669	-37.55
222.887	79.19
223.105	-4.78
223.323	101.72
223.541	-8.87
223.759	97.62
223.977	38.23
224.195	107.86
224.413	109.91
224.631	54.61
224.849	60.76
225.067	118.1
225.285	68.95
225.503	27.99
225.721	-27.31
225.939	60.76
226.157	68.95
226.375	165.2
226.592	60.76
226.81	38.23
227.028	19.8
227.246	95.57
227.464	27.99
227.682	163.15
227.9	85.33
228.117	118.1
228.335	154.96
228.553	36.18
228.771	85.33
228.989	30.04
229.206	36.18
229.424	27.99
229.642	48.47
229.86	5.46
230.077	89.43
230.295	19.8
230.513	150.87
230.731	134.48
230.948	103.76
231.166	62.8
231.384	23.89
231.601	-12.97
231.819	11.61
232.037	23.89
232.254	36.18
232.472	5.46
232.689	-27.31
232.907	77.14
233.125	36.18
233.342	114
233.56	-4.78
233.777	30.04
233.995	48.47
234.213	109.91
234.43	-29.35
234.648	97.62
234.865	68.95
235.083	32.08
235.3	60.76
235.518	126.29
235.735	142.68
235.953	38.23
236.17	40.28
236.388	44.37
236.605	42.32
236.822	60.76
237.04	36.18
237.257	79.19
237.475	25.94
237.692	-35.5
237.909	-4.78
238.127	83.28
238.344	130.39
238.562	66.9
238.779	23.89
238.996	30.04
239.214	60.76
239.431	118.1
239.648	27.99
239.865	54.61
240.083	118.1
240.3	114
240.517	68.95
240.735	50.52
240.952	122.2
241.169	68.95
241.386	132.44
241.603	19.8
241.821	13.65
242.038	101.72
242.255	44.37
242.472	-29.35
242.689	95.57
242.907	81.24
243.124	44.37
243.341	13.65
243.558	5.46
243.775	93.52
243.992	34.13
244.209	118.1
244.426	134.48
244.643	114
244.86	27.99
245.078	71
245.295	103.76
245.512	73.04
245.729	85.33
245.946	114
246.163	36.18
246.38	11.61
246.597	-12.97
246.814	109.91
247.031	-8.87
247.248	93.52
247.464	93.52
247.681	95.57
247.898	64.85
248.115	132.44
248.332	48.47
248.549	140.63
248.766	56.66
248.983	71
249.2	32.08
249.417	103.76
249.633	9.56
249.85	99.67
250.067	52.56
250.284	68.95
250.501	62.8
250.717	87.38
250.934	34.13
251.151	48.47
251.368	99.67
251.585	60.76
251.801	91.48
252.018	64.85
252.235	-4.78
252.451	93.52
252.668	38.23
252.885	73.04
253.102	130.39
253.318	116.05
253.535	52.56
253.752	48.47
253.968	114
254.185	56.66
254.401	71
254.618	68.95
254.835	111.96
255.051	32.08
255.268	52.56
255.484	101.72
255.701	60.76
255.917	103.76
256.134	71
256.351	3.41
256.567	19.8
256.784	3.41
257	-8.87
257.217	58.71
257.433	114
257.65	64.85
257.866	46.42
258.082	13.65
258.299	3.41
258.515	15.7
258.732	-62.12
258.948	36.18
259.165	97.62
259.381	77.14
259.597	89.43
259.814	52.56
260.03	25.94
260.246	44.37
260.463	93.52
260.679	103.76
260.895	79.19
261.112	64.85
261.328	87.38
261.544	40.28
261.761	165.2
261.977	46.42
262.193	32.08
262.409	95.57
262.626	-2.73
262.842	44.37
263.058	-0.68
263.274	114
263.49	77.14
263.707	77.14
263.923	120.15
264.139	25.94
264.355	83.28
264.571	204.11
264.787	5.46
265.004	142.68
265.22	32.08
265.436	44.37
265.652	42.32
265.868	3.41
266.084	-23.21
266.3	77.14
266.516	54.61
266.732	64.85
266.948	62.8
267.164	38.23
267.38	60.76
267.596	-4.78
267.812	148.82
268.028	75.09
268.244	52.56
268.46	140.63
268.676	60.76
268.892	73.04
269.108	48.47
269.324	40.28
269.54	62.8
269.756	85.33
269.972	13.65
270.188	7.51
270.403	23.89
270.619	68.95
270.835	-0.68
271.051	48.47
271.267	48.47
271.483	11.61
271.698	79.19
271.914	66.9
272.13	-10.92
272.346	48.47
272.562	5.46
272.777	79.19
272.993	85.33
273.209	44.37
273.425	60.76
273.64	52.56
273.856	32.08
274.072	85.33
274.287	60.76
274.503	46.42
274.719	62.8
274.934	32.08
275.15	-17.07
275.366	101.72
275.581	40.28
275.797	46.42
276.012	75.09
276.228	97.62
276.444	83.28
276.659	101.72
276.875	42.32
277.09	95.57
277.306	73.04
277.521	87.38
277.737	165.2
277.952	142.68
278.168	46.42
278.383	144.72
278.599	46.42
278.814	11.61
279.03	34.13
279.245	122.2
279.461	79.19
279.676	46.42
279.892	-47.79
280.107	62.8
280.322	54.61
280.538	60.76
280.753	23.89
280.969	66.9
281.184	54.61
281.399	85.33
281.615	85.33
281.83	27.99
282.045	73.04
282.26	21.85
282.476	48.47
282.691	32.08
282.906	150.87
283.122	83.28
283.337	15.7
283.552	83.28
283.767	46.42
283.983	36.18
284.198	44.37
284.413	27.99
284.628	-21.16
284.843	89.43
285.058	36.18
285.274	36.18
285.489	19.8
285.704	71
285.919	60.76
286.134	56.66
286.349	-8.87
286.564	64.85
286.779	120.15
286.995	66.9
287.21	64.85
287.425	64.85
287.64	27.99
287.855	62.8
288.07	44.37
288.285	60.76
288.5	130.39
288.715	89.43
288.93	19.8
289.145	25.94
289.36	150.87
289.575	38.23
289.79	-2.73
290.004	3.41
290.219	77.14
290.434	68.95
290.649	75.09
290.864	40.28
291.079	27.99
291.294	89.43
291.509	46.42
291.724	62.8
291.938	56.66
292.153	103.76
292.368	3.41
292.583	109.91
292.798	23.89
293.012	81.24
293.227	89.43
293.442	21.85
293.657	118.1
293.871	111.96
294.086	11.61
294.301	85.33
294.516	103.76
294.73	103.76
294.945	36.18
295.16	109.91
295.374	132.44
295.589	177.49
295.804	44.37
296.018	48.47
296.233	154.96
296.447	52.56
296.662	-6.83
296.877	114
297.091	97.62
297.306	89.43
297.52	54.61
297.735	68.95
297.949	73.04
298.164	66.9
298.378	23.89
298.593	52.56
298.807	13.65
299.022	75.09
299.236	64.85
299.451	128.34
299.665	44.37
299.88	68.95
300.094	120.15
300.309	122.2
300.523	73.04
300.737	46.42
300.952	64.85
301.166	81.24
301.381	32.08
301.595	23.89
301.809	77.14
302.024	-27.31
302.238	44.37
302.452	77.14
302.667	101.72
302.881	68.95
303.095	71
303.309	71
303.524	21.85
303.738	134.48
303.952	73.04
304.166	23.89
304.381	11.61
304.595	83.28
304.809	48.47
305.023	77.14
305.237	91.48
305.452	50.52
305.666	73.04
305.88	50.52
306.094	89.43
306.308	77.14
306.522	175.44
306.736	126.29
306.95	27.99
307.164	60.76
307.379	44.37
307.593	126.29
307.807	85.33
308.021	177.49
308.235	71
308.449	-2.73
308.663	-0.68
308.877	130.39
309.091	73.04
309.305	77.14
309.519	48.47
309.733	189.78
309.947	11.61
310.161	23.89
310.374	136.53
310.588	38.23
310.802	38.23
311.016	93.52
311.23	68.95
311.444	54.61
311.658	23.89
311.872	101.72
312.085	134.48
312.299	120.15
312.513	44.37
312.727	38.23
312.941	73.04
313.154	95.57
313.368	38.23
313.582	64.85
313.796	66.9
314.009	5.46
314.223	32.08
314.437	44.37
314.651	50.52
314.864	89.43
315.078	-8.87
315.292	32.08
315.505	-8.87
315.719	64.85
315.933	101.72
316.146	64.85
316.36	101.72
316.573	97.62
316.787	114
317.001	134.48
317.214	-17.07
317.428	77.14
317.641	73.04
317.855	79.19
318.068	13.65
318.282	109.91
318.495	103.76
318.709	27.99
318.922	21.85
319.136	111.96
319.349	109.91
319.563	-39.59
319.776	32.08
319.99	44.37
320.203	95.57
320.417	132.44
320.63	19.8
320.843	87.38
321.057	46.42
321.27	89.43
321.483	64.85
321.697	128.34
321.91	97.62
322.124	60.76
322.337	64.85
322.55	23.89
322.763	40.28
322.977	126.29
323.19	32.08
323.403	44.37
323.617	109.91
323.83	122.2
324.043	3.41
324.256	81.24
324.469	32.08
324.683	44.37
324.896	32.08
325.109	27.99
325.322	30.04
325.535	83.28
325.748	7.51
325.962	56.66
326.175	62.8
326.388	85.33
326.601	68.95
326.814	109.91
327.027	66.9
327.24	138.58
327.453	-8.87
327.666	101.72
327.879	105.81
328.092	105.81
328.305	89.43
328.518	62.8
328.731	58.71
328.944	103.76
329.157	85.33
329.37	-27.31
329.583	101.72
329.796	118.1
330.009	36.18
330.222	103.76
330.435	71
330.648	44.37
330.861	68.95
331.073	118.1
331.286	89.43
331.499	73.04
331.712	85.33
331.925	114
332.138	101.72
332.35	62.8
332.563	81.24
332.776	109.91
332.989	56.66
333.202	30.04
333.414	66.9
333.627	48.47
333.84	19.8
334.053	130.39
334.265	109.91
334.478	52.56
334.691	77.14
334.903	60.76
335.116	-8.87
335.329	81.24
335.541	85.33
335.754	48.47
335.966	44.37
336.179	50.52
336.392	52.56
336.604	46.42
336.817	167.25
337.029	95.57
337.242	38.23
337.454	101.72
337.667	105.81
337.88	73.04
338.092	25.94
338.305	27.99
338.517	27.99
338.729	109.91
338.942	111.96
339.154	62.8
339.367	40.28
339.579	40.28
339.792	109.91
340.004	169.3
340.217	11.61
340.429	120.15
340.641	17.75
340.854	68.95
341.066	81.24
341.278	71
341.491	193.87
341.703	85.33
341.915	66.9
342.128	60.76
342.34	101.72
342.552	56.66
342.764	13.65
342.977	68.95
343.189	77.14
343.401	87.38
343.613	19.8
343.826	52.56
344.038	-27.31
344.25	52.56
344.462	15.7
344.674	48.47
344.886	38.23
345.099	138.58
345.311	138.58
345.523	60.76
345.735	77.14
345.947	95.57
346.159	103.76
346.371	101.72
346.583	21.85
346.795	159.06
347.007	38.23
347.219	71
347.431	64.85
347.643	87.38
347.855	32.08
348.067	134.48
348.279	64.85
348.491	91.48
348.703	124.24
348.915	81.24
349.127	64.85
349.339	81.24
349.551	56.66
349.763	93.52
349.975	68.95
350.187	109.91
350.399	66.9
350.61	19.8
350.822	120.15
351.034	52.56
351.246	64.85
351.458	126.29
351.669	95.57
351.881	132.44
352.093	79.19
352.305	136.53
352.517	27.99
352.728	87.38
352.94	42.32
353.152	87.38
353.363	52.56
353.575	40.28
353.787	64.85
353.999	120.15
354.21	193.87
354.422	109.91
354.633	19.8
354.845	19.8
355.057	40.28
355.268	93.52
355.48	111.96
355.692	56.66
355.903	19.8
356.115	107.86
356.326	52.56
356.538	128.34
356.749	56.66
356.961	187.73
357.172	-21.16
357.384	54.61
357.595	208.21
357.807	48.47
358.018	89.43
358.23	40.28
358.441	114
358.653	103.76
358.864	44.37
359.075	19.8
359.287	97.62
359.498	40.28
359.709	60.76
359.921	97.62
360.132	109.91
360.344	62.8
360.555	36.18
360.766	54.61
360.977	42.32
361.189	83.28
361.4	46.42
361.611	118.1
361.823	91.48
362.034	79.19
362.245	11.61
362.456	52.56
362.667	152.92
362.879	79.19
363.09	73.04
363.301	68.95
363.512	109.91
363.723	13.65
363.935	15.7
364.146	103.76
364.357	73.04
364.568	152.92
364.779	-31.4
364.99	103.76
365.201	64.85
365.412	105.81
365.623	17.75
365.834	132.44
366.045	5.46
366.256	128.34
366.467	62.8
366.678	95.57
366.889	48.47
367.1	56.66
367.311	126.29
367.522	111.96
367.733	118.1
367.944	89.43
368.155	71
368.366	5.46
368.577	114
368.788	152.92
368.999	87.38
369.209	27.99
369.42	116.05
369.631	85.33
369.842	103.76
370.053	130.39
370.264	154.96
370.474	71
370.685	95.57
370.896	87.38
371.107	68.95
371.317	159.06
371.528	81.24
371.739	167.25
371.95	46.42
372.16	101.72
372.371	34.13
372.582	163.15
372.792	89.43
373.003	105.81
373.214	91.48
373.424	195.92
373.635	89.43
373.846	97.62
374.056	68.95
374.267	101.72
374.477	136.53
374.688	103.76
374.898	159.06
375.109	130.39
375.319	159.06
375.53	99.67
375.74	132.44
375.951	122.2
376.161	120.15
376.372	40.28
376.582	11.61
376.793	38.23
377.003	85.33
377.214	60.76
377.424	66.9
377.635	52.56
377.845	58.71
378.055	161.11
378.266	23.89
378.476	21.85
378.686	5.46
378.897	189.78
379.107	185.68
379.317	97.62
379.528	111.96
379.738	56.66
379.948	64.85
380.158	150.87
380.369	109.91
380.579	120.15
380.789	48.47
380.999	105.81
381.21	52.56
381.42	154.96
381.63	136.53
381.84	71
382.05	181.59
382.261	99.67
382.471	87.38
382.681	85.33
382.891	130.39
383.101	75.09
383.311	77.14
383.521	34.13
383.731	109.91
383.941	138.58
384.151	71
384.361	40.28
384.571	165.2
384.781	85.33
384.991	226.64
385.201	101.72
385.411	87.38
385.621	120.15
385.831	73.04
386.041	130.39
386.251	87.38
386.461	95.57
386.671	32.08
386.881	58.71
387.091	79.19
387.301	77.14
387.511	118.1
387.72	134.48
387.93	46.42
388.14	48.47
388.35	140.63
388.56	109.91
388.769	138.58
388.979	93.52
389.189	62.8
389.399	171.35
389.609	73.04
389.818	97.62
390.028	64.85
390.238	161.11
390.447	52.56
390.657	71
390.867	87.38
391.076	40.28
391.286	54.61
391.496	38.23
391.705	105.81
391.915	183.63
392.125	154.96
392.334	107.86
392.544	216.4
392.753	118.1
392.963	85.33
393.172	93.52
393.382	73.04
393.591	232.79
393.801	83.28
394.01	175.44
394.22	177.49
394.429	114
394.639	79.19
394.848	150.87
395.058	157.01
395.267	85.33
395.477	150.87
395.686	202.07
395.895	167.25
396.105	177.49
396.314	136.53
396.524	126.29
396.733	183.63
396.942	150.87
397.152	111.96
397.361	181.59
397.57	105.81
397.78	120.15
397.989	169.3
398.198	152.92
398.407	161.11
398.617	159.06
398.826	152.92
399.035	202.07
399.244	240.98
399.453	150.87
399.663	195.92
399.872	126.29
400.081	136.53
400.29	290.13
400.499	167.25
400.708	228.69
400.917	195.92
401.127	152.92
401.336	101.72
401.545	200.02
401.754	257.36
401.963	132.44
402.172	206.16
402.381	126.29
402.59	175.44
402.799	175.44
403.008	249.17
403.217	154.96
403.426	265.55
403.635	183.63
403.844	212.31
404.053	175.44
404.262	179.54
404.471	267.6
404.68	286.03
404.888	214.35
405.097	130.39
405.306	218.45
405.515	191.83
405.724	187.73
405.933	200.02
406.142	193.87
406.35	388.43
406.559	228.69
406.768	193.87
406.977	288.08
407.185	288.08
407.394	333.14
407.603	292.18
407.812	273.75
408.02	363.86
408.229	326.99
408.438	300.37
408.646	341.33
408.855	400.72
409.064	386.38
409.272	419.15
409.481	451.92
409.69	388.43
409.898	468.3
410.107	435.53
410.315	406.86
410.524	507.21
410.733	535.89
410.941	466.25
411.15	503.12
411.358	634.19
411.567	560.46
411.775	537.93
411.984	531.79
412.192	664.91
412.401	578.89
412.609	646.48
412.818	720.2
413.026	707.91
413.234	699.72
413.443	716.11
413.651	752.97
413.86	881.99
414.068	879.94
414.276	929.1
414.485	701.77
414.693	937.29
414.901	1076.55
415.11	1011.01
415.318	949.57
415.526	961.86
415.734	1006.92
415.943	1029.45
416.151	1105.22
416.359	1174.85
416.567	1094.98
416.776	1232.19
416.984	1355.07
417.192	1379.65
417.4	1316.16
417.608	1275.2
417.817	1391.94
418.025	1525.05
418.233	1609.02
418.441	1428.8
418.649	1619.26
418.857	1731.9
419.065	1781.05
419.273	1768.76
419.481	1850.68
419.689	2016.57
419.897	2010.42
420.105	2127.16
420.313	2157.88
420.521	2178.36
420.729	2137.4
420.937	2334
421.145	2491.7
421.353	2538.8
421.561	2680.11
421.769	2655.53
421.977	2815.27
422.185	2751.79
422.393	2845.99
422.601	3214.63
422.809	3112.23
423.017	3231.01
423.224	3280.16
423.432	3405.09
423.64	3362.08
423.848	3706.14
424.056	3652.89
424.263	3880.22
424.471	3806.49
424.679	3949.85
424.887	4132.12
425.094	4226.32
425.302	4271.38
425.51	4517.14
425.718	4637.97
425.925	4697.36
426.133	4754.7
426.341	5303.56
426.548	5348.61
426.756	5336.32
426.964	5240.07
427.171	5602.56
427.379	5655.81
427.586	6038.78
427.794	6106.36
428.001	6341.88
428.209	6626.54
428.417	6452.47
428.624	6995.18
428.832	6954.22
429.039	7109.86
429.247	7023.85
429.454	7673.06
429.662	8139.99
429.869	7498.98
430.076	8010.97
430.284	7781.6
430.491	8312.02
430.699	8649.94
430.906	8608.98
431.114	8684.75
431.321	9202.89
431.528	9227.46
431.736	9766.08
431.943	9927.87
432.15	10015.93
432.358	10169.53
432.565	10695.86
432.772	10613.94
432.979	10996.91
433.187	11433.13
433.394	11371.69
433.601	12041.37
433.808	12188.83
434.016	12094.62
434.223	12508.31
434.43	13214.86
434.637	13114.51
434.844	13784.19
435.052	14316.67
435.259	14105.73
435.466	14439.55
435.673	14140.54
435.88	14808.18
436.087	15672.42
436.294	15783.01
436.501	15436.91
436.708	15742.05
436.915	16219.23
437.122	16954.45
437.329	16946.26
437.537	17290.32
437.743	17722.44
437.95	17413.2
438.157	18629.69
438.364	19098.67
438.571	19147.83
438.778	19133.49
438.985	20868.12
439.192	20132.9
439.399	20556.83
439.606	20388.89
439.813	21531.66
440.02	22752.25
440.227	22356.99
440.433	22002.69
440.64	22629.37
440.847	22662.14
441.054	23274.48
441.261	24974.3
441.467	24314.85
441.674	24687.58
441.881	25965.51
442.088	25594.83
442.294	25627.6
442.501	25916.36
442.708	26543.04
442.914	27751.34
443.121	28634.02
443.328	27825.07
443.534	30036.88
443.741	29315.99
443.948	28793.76
444.154	30931.84
444.361	30817.15
444.568	30669.7
444.774	30751.62
444.981	31114.11
445.187	32213.87
445.394	33243.99
445.6	32768.87
445.807	35937.07
446.013	34640.71
446.22	35251
446.426	36621.09
446.633	36727.59
446.839	37851.92
447.046	36295.47
447.252	38365.96
447.459	38576.9
447.665	37927.7
447.871	40071.92
448.078	41614.04
448.284	39631.61
448.491	40907.49
448.697	42275.54
448.903	42590.92
449.11	42681.03
449.316	42177.23
449.522	43565.76
449.728	44618.41
449.935	44853.93
450.141	44489.39
450.347	45316.77
450.553	44196.53
450.76	44561.07
450.966	46164.63
451.172	45636.25
451.378	47192.71
451.584	46027.42
451.791	46953.1
451.997	46910.09
452.203	47628.93
452.409	47723.13
452.615	47270.53
452.821	45845.15
453.027	45042.34
453.233	47686.27
453.44	45462.18
453.646	46252.69
453.852	46275.22
454.058	47004.3
454.264	45613.73
454.47	46328.47
454.676	45406.88
454.882	46498.45
455.088	42955.46
455.294	43651.77
455.5	44262.07
455.705	44309.17
455.911	42844.87
456.117	42058.45
456.323	41300.7
456.529	39271.17
456.735	40936.16
456.941	39772.92
457.147	39822.07
457.352	37847.83
457.558	37581.59
457.764	37454.62
457.97	37090.08
458.176	36266.8
458.381	36068.14
458.587	34646.85
458.793	34468.68
458.999	32815.97
459.204	34931.52
459.41	33866.58
459.616	31882.09
459.821	31744.88
460.027	31765.36
460.233	30595.97
460.438	29580.18
460.644	29660.05
460.85	28554.15
461.055	27769.77
461.261	28068.78
461.466	25838.54
461.672	25119.7
461.878	26588.1
462.083	25064.41
462.289	24460.26
462.494	24284.13
462.7	23274.48
462.905	22539.26
463.111	23342.07
463.316	23323.63
463.522	23020.53
463.727	22893.56
463.932	22707.19
464.138	22658.04
464.343	22928.38
464.549	22154.24
464.754	22752.25
464.959	22543.36
465.165	22207.49
465.37	21277.71
465.575	21029.91
465.781	21666.83
465.986	21769.23
466.191	20950.04
466.397	20755.48
466.602	19625
466.807	20204.58
467.012	20378.65
467.218	20177.95
467.423	20118.56
467.628	20190.24
467.833	20902.93
468.038	20157.47
468.244	19526.7
468.449	20313.12
468.654	19608.62
468.859	19500.08
469.064	19618.86
469.269	18627.64
469.474	18885.69
469.679	19326
469.885	18496.57
470.09	18807.86
470.295	18357.31
470.5	18013.25
470.705	18445.37
470.91	17853.51
471.115	17603.66
471.32	17861.7
471.525	17628.23
471.73	17558.6
471.935	17261.65
472.139	16712.79
472.344	16866.39
472.549	16778.33
472.754	16555.1
472.959	16077.92
473.164	16086.11
473.369	15905.89
473.574	16319.58
473.778	16292.96
473.983	16028.77
474.188	15899.75
474.393	15441
474.598	15441
474.802	15215.73
475.007	15137.9
475.212	15078.51
475.417	14613.62
475.621	14537.85
475.826	14441.59
476.031	14326.91
476.235	14150.78
476.44	14388.35
476.645	14083.2
476.849	14191.74
477.054	13692.04
477.259	13712.52
477.463	13728.9
477.668	13223.05
477.872	13292.68
478.077	13114.51
478.282	13030.54
478.486	12864.66
478.691	12674.2
478.895	12643.48
479.1	12666
479.304	12579.99
479.509	12178.59
479.713	12598.42
479.918	12190.88
480.122	12010.65
480.326	12004.51
480.531	12229.79
480.735	12074.14
480.94	11773.09
481.144	12235.93
481.348	11852.96
481.553	11711.65
481.757	11631.78
481.961	11699.36
482.166	12082.33
482.37	11685.03
482.574	11324.58
482.778	11754.66
482.983	11734.18
483.187	11777.19
483.391	11721.89
483.595	11609.25
483.8	11492.52
484.004	11713.7
484.208	11818.15
484.412	11566.24
484.616	11627.68
484.821	11607.2
485.025	11508.9
485.229	11701.41
485.433	11457.7
485.637	11545.77
485.841	11570.34
486.045	11525.29
486.249	11484.33
486.453	11611.3
486.657	11689.12
486.861	11639.97
487.065	11426.98
487.269	11752.61
487.473	11207.85
487.677	11502.76
487.881	11670.69
488.085	11730.08
488.289	11738.27
488.493	11586.72
488.697	11803.81
488.901	11666.6
489.105	11453.61
489.309	11711.65
489.512	11537.57
489.716	11637.92
489.92	11625.64
490.124	11596.96
490.328	11824.29
490.531	11834.53
490.735	11947.17
490.939	11744.42
491.143	11832.48
491.346	11617.44
491.55	12000.41
491.754	11955.36
491.958	11738.27
492.161	11812
492.365	11967.65
492.569	11865.25
492.772	12051.61
492.976	12090.52
493.18	12176.54
493.383	12149.92
493.587	12393.62
493.79	12520.6
493.994	12287.13
494.197	12481.69
494.401	12450.97
494.605	12481.69
494.808	12733.59
495.012	12901.52
495.215	12907.66
495.419	13159.56
495.622	12946.58
495.825	13167.76
496.029	13313.16
496.232	13042.83
496.436	13536.39
496.639	13407.37
496.843	13733
497.046	13741.19
497.249	13841.54
497.453	13974.66
497.656	14314.62
497.859	14093.44
498.063	14513.27
498.266	14716.02
498.469	14476.41
498.673	14630.01
498.876	14980.21
499.079	15041.65
499.282	14922.87
499.485	15557.74
499.689	15445.1
499.892	15436.91
500.095	15793.25
500.298	16002.15
500.501	15832.16
500.705	16247.9
500.908	16333.92
501.111	16456.79
501.314	16659.54
501.517	16747.61
501.72	17136.72
501.923	17110.1
502.126	17509.45
502.329	17634.38
502.532	17785.93
502.735	17822.79
502.938	18062.4
503.141	18170.94
503.344	18605.11
503.547	18261.05
503.75	18973.75
503.953	19149.87
504.156	19008.56
504.359	19127.35
504.562	19311.66
504.765	19842.09
504.968	19991.59
505.17	20053.03
505.373	20321.31
505.576	20505.63
505.779	20780.06
505.982	20950.04
506.185	21376.02
506.387	21111.83
506.59	21488.65
506.793	21851.14
506.996	21865.48
507.198	22309.89
507.401	22262.79
507.604	22375.42
507.807	22948.86
508.009	22793.21
508.212	23368.69
508.415	23389.17
508.617	23598.06
508.82	24056.81
509.022	24003.56
509.225	24468.45
509.428	24865.75
509.63	24718.3
509.833	24673.24
510.035	25517.01
510.238	25197.52
510.44	25770.96
510.643	25957.32
510.845	26393.54
511.048	26151.88
511.25	26616.77
511.453	26737.6
511.655	27311.03
511.858	27368.37
512.06	27517.87
512.262	27569.07
512.465	27997.1
512.667	28433.32
512.87	28584.87
513.072	28273.57
513.274	29211.54
513.477	29531.03
513.679	29850.51
513.881	29918.09
514.084	30079.88
514.286	30243.72
514.488	30194.57
514.69	31198.07
514.893	31062.91
515.095	31306.62
515.297	32148.33
515.499	31822.7
515.701	31988.59
515.904	32527.21
516.106	32840.54
516.308	33076.06
516.51	33129.31
516.712	33143.64
516.914	34026.32
517.116	34040.65
517.318	34276.17
517.52	34417.48
517.722	34427.72
517.925	34558.79
518.127	35283.77
518.329	35701.56
518.531	35117.89
518.733	36381.48
518.935	36324.14
519.136	36303.66
519.338	36655.91
519.54	36729.64
519.742	37215.01
519.944	37456.67
520.146	37694.23
520.348	37896.98
520.55	37942.03
520.752	38005.52
520.954	38329.1
521.155	38460.17
521.357	38777.61
521.559	39115.52
521.761	39131.9
521.963	39408.38
522.164	39713.53
522.366	39656.18
522.568	40076.02
522.77	39883.51
522.971	40975.08
523.173	40280.81
523.375	40764.14
523.576	40657.64
523.778	40604.39
523.98	40874.73
524.181	41450.2
524.383	41298.66
524.584	42070.74
524.786	41999.06
524.988	41312.99
525.189	42242.77
525.391	42033.88
525.592	42306.26
525.794	42353.36
525.995	42195.67
526.197	42230.48
526.398	42638.03
526.6	42689.23
526.801	42918.6
527.003	42810.06
527.204	42533.58
527.406	42826.44
527.607	42681.03
527.808	43530.94
528.01	42730.19
528.211	43039.43
528.412	43524.8
528.614	43582.14
528.815	43057.86
529.016	43918.01
529.218	43117.25
529.419	42990.28
529.62	43336.38
529.822	43152.07
530.023	43283.14
530.224	43260.61
530.425	43262.66
530.626	43399.87
530.828	42984.13
531.029	43788.99
531.23	43049.67
531.431	43145.92
531.632	43223.75
531.833	43223.75
532.035	43279.04
532.236	43311.81
532.437	43254.47
532.638	42750.67
532.839	43051.72
533.04	43320
533.241	42744.52
533.442	43483.84
533.643	43139.78
533.844	42750.67
534.045	43125.44
534.246	42777.29
534.447	43203.27
534.648	42687.18
534.849	43115.2
535.05	42445.52
535.251	42762.95
535.451	42734.28
535.652	42527.44
535.853	42779.34
536.054	42449.61
536.255	42726.09
536.456	42328.78
536.657	42963.65
536.857	42523.34
537.058	42263.25
537.259	42412.75
537.46	42349.26
537.66	42318.54
537.861	42494.67
538.062	42283.73
538.263	42193.62
538.463	41886.42
538.664	41966.29
538.865	41997.01
539.065	42275.54
539.266	41835.22
539.466	42259.15
539.667	41714.39
539.868	42289.87
540.068	42097.36
540.269	41816.79
540.469	41812.7
540.67	41726.68
540.87	41720.54
541.071	41730.78
541.271	41710.3
541.472	41480.92
541.672	41741.02
541.873	41618.14
542.073	40901.35
542.274	41722.58
542.474	41679.58
542.675	41083.62
542.875	41886.42
543.075	41495.26
543.276	41132.77
543.476	41790.17
543.676	41173.73
543.877	41493.21
544.077	41607.9
544.277	41296.61
544.478	41267.94
544.678	41239.26
544.878	41059.04
545.078	40968.93
545.279	40958.69
545.479	41087.71
545.679	41458.4
545.879	41159.39
546.079	41155.3
546.28	41042.66
546.48	41087.71
546.68	41304.8
546.88	41251.55
547.08	41163.49
547.28	41138.91
547.48	40878.82
547.68	41159.39
547.88	41044.71
548.081	41110.24
548.281	40940.26
548.481	40850.15
548.681	41638.62
548.881	41212.64
549.081	41257.7
549.28	40874.73
549.48	41272.03
549.68	41335.52
549.88	41614.04
550.08	41034.47
550.28	41622.23
550.48	41071.33
550.68	41396.96
550.88	41018.08
551.08	41274.08
551.279	41364.19
551.479	40819.43
551.679	41181.92
551.879	40815.33
552.079	41290.46
552.278	41214.69
552.478	41251.55
552.678	41296.61
552.878	41413.34
553.077	41403.1
553.277	40911.59
553.477	41530.08
553.676	41013.99
553.876	41312.99
554.076	41206.5
554.275	41005.8
554.475	40907.49
554.674	41353.95
554.874	41673.43
555.074	41267.94
555.273	41188.06
555.473	41491.16
555.672	41124.58
555.872	41308.89
556.071	41501.4
556.271	41716.44
556.47	41525.98
556.67	40921.83
556.869	41712.34
557.068	41550.56
557.268	40981.22
557.467	41630.43
557.667	41493.21
557.866	41452.25
558.065	41140.96
558.265	40882.92
558.464	41327.33
558.663	41882.33
558.863	40956.64
559.062	41773.78
559.261	41368.29
559.461	41673.43
559.66	40909.54
559.859	41231.07
560.058	40880.87
560.258	41390.81
560.457	40864.49
560.656	41675.48
560.855	41485.02
561.054	41306.85
561.253	41112.29
561.453	41304.8
561.652	41528.03
561.851	41386.72
562.05	41204.45
562.249	41069.28
562.448	41343.71
562.647	41378.53
562.846	41001.7
563.045	41278.18
563.244	41296.61
563.443	41722.58
563.642	40821.48
563.841	41112.29
564.04	40643.31
564.239	40968.93
564.438	40731.37
564.637	41038.56
564.836	41134.82
565.035	40882.92
565.234	40626.92
565.432	40725.22
565.631	40608.49
565.83	40989.41
566.029	40002.29
566.228	40159.98
566.427	40649.45
566.625	40549.1
566.824	39820.02
567.023	40633.07
567.222	39766.77
567.42	40159.98
567.619	40135.41
567.818	40037.11
568.016	40108.79
568.215	39930.61
568.414	39860.98
568.612	39985.91
568.811	40037.11
569.01	39686.9
569.208	39541.5
569.407	39717.62
569.605	39039.75
569.804	39598.84
570.002	38998.79
570.201	39881.46
570.4	39099.14
570.598	38900.48
570.797	38951.68
570.995	39009.03
571.193	38394.64
571.392	38869.76
571.59	38613.77
571.789	38740.74
571.987	38433.55
572.186	38761.22
572.384	38077.2
572.582	38359.82
572.781	38423.31
572.979	37937.94
573.177	38402.83
573.376	38699.78
573.574	37716.76
573.772	38306.57
573.971	37702.42
574.169	37514.01
574.367	37620.5
574.565	37905.17
574.763	37360.41
574.962	37276.44
575.16	36885.28
575.358	37116.7
575.556	36668.2
575.754	37643.03
575.952	36670.25
576.151	36897.57
576.349	36746.02
576.547	36670.25
576.745	36586.28
576.943	36606.76
577.141	36664.1
577.339	36549.42
577.537	36217.64
577.735	36117.29
577.933	35840.82
578.131	35918.64
578.329	35685.17
578.527	35736.37
578.725	35898.16
578.923	35883.83
579.121	35351.35
579.319	35222.33
579.516	35687.22
579.714	35488.57
579.912	35394.36
580.11	35181.37
580.308	35169.08
580.506	34712.39
580.704	33962.83
580.901	35011.39
581.099	34976.58
581.297	34474.82
581.495	34296.65
581.692	34483.02
581.89	34220.88
582.088	34427.72
582.285	34147.15
582.483	34519.88
582.681	33921.87
582.878	34104.14
583.076	34149.2
583.274	33782.61
583.471	33409.88
583.669	33790.8
583.866	33631.06
584.064	33516.37
584.262	32875.36
584.459	33456.98
584.657	33332.06
584.854	33477.46
585.052	32602.98
585.249	33082.2
585.447	33121.12
585.644	32465.77
585.841	32748.39
586.039	33006.43
586.236	32152.43
586.434	32398.18
586.631	32439.14
586.828	32418.66
587.026	32430.95
587.223	32404.33
587.42	32088.94
587.618	32342.89
587.815	32109.42
588.012	31708.02
588.21	31834.99
588.407	31996.78
588.604	31519.6
588.801	31722.35
588.999	31445.88
589.196	31331.19
589.393	31411.06
589.59	31351.67
589.787	31007.61
589.984	31169.4
590.182	30989.18
590.379	31279.99
590.576	30858.11
590.773	31351.67
590.97	30768
591.167	31091.58
591.364	30837.63
591.561	30878.59
591.758	30282.63
591.955	30655.36
592.152	30897.02
592.349	30460.8
592.546	30444.42
592.743	30622.59
592.94	29959.05
593.137	30368.65
593.334	30452.61
593.531	29655.95
593.727	30176.14
593.924	30167.94
594.121	30094.22
594.318	29997.96
594.515	29662.1
594.712	30288.78
594.908	29690.77
595.105	29819.79
595.302	29754.26
595.499	29883.28
595.696	29719.44
595.892	29315.99
596.089	29758.35
596.286	29422.48
596.482	29504.4
596.679	29432.72
596.876	29694.86
597.072	29137.82
597.269	29545.36
597.466	29287.32
597.662	29309.85
597.859	29227.93
598.055	29359
598.252	28871.58
598.448	29275.03
598.645	29062.04
598.841	28705.7
599.038	29219.74
599.234	29457.3
599.431	28990.36
599.627	28730.27
599.824	29121.43
600.02	28777.37
600.217	29164.44
600.413	28873.63
600.609	28781.47
600.806	28791.71
601.002	28763.04
601.198	28748.7
601.395	28720.03
601.591	29029.27
601.787	28920.73
601.984	28853.15
602.18	29064.09
602.376	28640.16
602.572	28490.66
602.769	28654.5
602.965	28537.76
603.161	28621.73
603.357	28701.6
603.553	28898.2
603.75	28332.97
603.946	28382.12
604.142	28500.9
604.338	28193.7
604.534	28584.87
604.73	28550.05
604.926	28701.6
605.122	28847.01
605.318	28666.78
605.514	28730.27
605.71	28318.63
605.906	28613.54
606.102	28445.6
606.298	28980.12
606.494	28365.73
606.69	29098.91
606.886	28949.4
607.082	28375.97
607.278	28898.2
607.474	28474.27
607.67	28595.1
607.866	28724.13
608.062	29133.72
608.257	28672.93
608.453	29035.42
608.649	29037.47
608.845	28685.22
609.041	28701.6
609.236	28978.08
609.432	29027.23
609.628	28982.17
609.824	28953.5
610.019	28695.46
610.215	28738.46
610.411	29352.85
610.606	28525.47
610.802	29053.85
610.998	28978.08
611.193	28914.59
611.389	28914.59
611.584	29047.71
611.78	29193.11
611.976	29019.03
612.171	29055.9
612.367	29176.73
612.562	29137.82
612.758	28814.24
612.953	28748.7
613.149	29424.53
613.344	28908.44
613.539	29596.56
613.735	29088.67
613.93	29248.41
614.126	29049.75
614.321	29176.73
614.517	29146.01
614.712	29340.57
614.907	28922.78
615.103	29596.56
615.298	28957.6
615.493	29473.68
615.688	29053.85
615.884	29395.86
616.079	28973.98
616.274	29094.81
616.47	29156.25
616.665	29154.2
616.86	29014.94
617.055	28771.23
617.25	28941.21
617.445	29258.65
617.641	28838.81
617.836	29152.15
618.031	28629.92
618.226	29166.49
618.421	28564.39
618.616	29045.66
618.811	28564.39
619.006	28990.36
619.201	28068.78
619.396	28619.68
619.591	27845.55
619.786	28439.46
619.981	28054.44
620.176	28578.72
620.371	28091.3
620.566	28238.76
620.761	28062.63
620.956	27833.26
621.151	27599.79
621.346	28031.91
621.541	27587.5
621.735	27843.5
621.93	27044.79
622.125	27083.7
622.32	27063.22
622.515	27173.81
622.709	26850.24
622.904	26766.27
623.099	26616.77
623.294	26911.67
623.488	26598.34
623.683	26688.45
623.878	26278.85
624.072	26241.99
624.267	26422.21
624.462	26047.43
624.656	25482.19
624.851	25832.4
625.046	25611.21
625.24	25492.43
625.435	25553.87
625.629	25369.55
625.824	25387.99
626.018	25273.3
626.213	24665.05
626.407	24923.1
626.602	24677.34
626.796	24628.19
626.991	24730.59
627.185	24638.43
627.38	24255.46
627.574	24282.08
627.768	23843.82
627.963	24079.33
628.157	23778.28
628.352	23604.21
628.546	23303.15
628.74	23591.92
628.935	23270.39
629.129	23356.4
629.323	22995.96
629.517	22883.32
629.712	22885.37
629.906	23028.73
630.1	22879.22
630.294	22453.25
630.489	22242.31
630.683	22580.22
630.877	22076.42
631.071	22277.12
631.265	22414.34
631.459	22187.01
631.653	21781.51
631.848	21718.03
632.042	21646.35
632.236	21785.61
632.43	21361.68
632.624	21627.92
632.818	21455.89
633.012	20902.93
633.206	20993.04
633.4	20894.74
633.594	20794.39
633.788	20689.95
633.982	20775.96
634.176	20493.34
634.369	20306.98
634.563	20401.18
634.757	20388.89
634.951	20339.74
635.145	20159.52
635.339	20286.5
635.533	19952.68
635.726	19819.56
635.92	19700.78
636.114	19672.11
636.308	19512.36
636.501	19614.76
636.695	19391.53
636.889	18938.93
637.083	18752.57
637.276	18949.17
637.47	18967.6
637.664	18713.66
637.857	18570.3
638.051	18426.94
638.244	18359.36
638.438	18342.97
638.632	18349.12
638.825	17933.38
639.019	18136.13
639.212	17970.24
639.406	18080.83
639.599	17755.21
639.793	17667.14
639.986	17550.41
640.18	17558.6
640.373	17464.39
640.567	17185.87
640.76	17173.58
640.954	17181.78
641.147	16684.12
641.34	16987.22
641.534	16757.85
641.727	16743.51
641.92	16688.21
642.114	16551
642.307	16407.64
642.5	16233.57
642.694	16159.84
642.887	15866.98
643.08	16127.07
643.273	15760.48
643.467	15842.4
643.66	15641.7
643.853	15606.89
644.046	15287.4
644.239	15463.53
644.432	15600.74
644.626	15340.65
644.819	15318.12
645.012	15354.99
645.205	15092.85
645.398	14863.47
645.591	15072.37
645.784	14726.26
645.977	14711.92
646.17	14560.38
646.363	14478.46
646.556	14201.98
646.749	14541.94
646.942	14517.37
647.135	14204.03
647.328	14294.14
647.521	13962.37
647.714	13986.94
647.907	13845.63
648.099	13712.52
648.292	13993.09
648.485	13636.74
648.678	13507.72
648.871	13413.51
649.064	13395.08
649.256	13493.38
649.449	13311.11
649.642	13231.24
649.835	13251.72
650.027	13087.89
650.22	12711.06
650.413	12864.66
650.605	12786.83
650.798	13151.37
650.991	12504.21
651.183	12735.64
651.376	12428.44
651.568	12813.46
651.761	12274.84
651.954	12367
652.146	12086.43
652.339	12356.76
652.531	11963.55
652.724	12092.57
652.916	11592.87
653.109	12029.09
653.301	11979.93
653.494	11873.44
653.686	11670.69
653.879	11873.44
654.071	11758.75
654.263	11801.76
654.456	11588.77
654.648	11594.92
654.84	11267.24
655.033	11125.93
655.225	11316.39
655.417	11269.29
655.61	11429.03
655.802	11140.27
655.994	11105.45
656.186	11121.84
656.379	10849.46
656.571	10988.72
656.763	10691.76
656.955	10747.06
657.148	10785.97
657.34	10595.51
657.532	10439.86
657.724	10386.61
657.916	10505.4
658.108	10411.19
658.3	10390.71
658.492	10431.67
658.684	10149.05
658.876	10073.28
659.068	10087.61
659.26	10071.23
659.452	9974.97
659.644	9985.21
659.836	9868.48
660.028	9798.85
660.22	9778.37
660.412	9989.31
660.604	9579.72
660.796	9809.09
660.988	9528.52
661.18	9432.26
661.372	9254.09
661.563	9446.6
661.755	9297.1
661.947	9106.63
662.139	9202.89
662.331	9166.03
662.522	9026.76
662.714	9100.49
662.906	8957.13
663.097	8926.41
663.289	9055.44
663.481	8850.64
663.673	8852.69
663.864	8797.39
664.056	8725.71
664.247	8643.79
664.439	8375.51
664.631	8645.84
664.822	8596.69
665.014	8416.47
665.205	8457.43
665.397	8449.24
665.588	8344.79
665.78	8277.21
665.971	8359.13
666.163	8400.09
666.354	8303.83
666.546	7959.77
666.737	8045.79
666.929	8033.5
667.12	7953.63
667.311	7965.92
667.503	7951.58
667.694	7857.37
667.885	7810.27
668.077	7851.23
668.268	7685.34
668.459	7935.2
668.651	7695.58
668.842	7646.43
669.033	7580.9
669.224	7613.67
669.416	7482.6
669.607	7378.15
669.798	7498.98
669.989	7464.16
670.18	7470.31
670.371	7374.05
670.563	7326.95
670.754	7298.28
670.945	7326.95
671.136	7075.05
671.327	7236.84
671.518	7183.59
671.709	7195.88
671.9	7136.49
672.091	7136.49
672.282	6960.36
672.473	7073
672.664	7023.85
672.855	6851.82
673.046	7050.47
673.237	6982.89
673.428	6868.2
673.619	7027.95
673.809	6802.67
674	6931.69
674.191	6903.02
674.382	6640.88
674.573	6765.81
674.764	6737.13
674.954	6831.34
675.145	6591.73
675.336	6638.83
675.527	6540.53
675.717	6632.69
675.908	6528.24
676.099	6581.49
676.289	6509.81
676.48	6548.72
676.671	6556.91
676.861	6458.61
677.052	6368.5
677.243	6288.63
677.433	6294.77
677.624	6345.97
677.814	6309.11
678.005	6352.12
678.195	6397.17
678.386	6327.54
678.576	6335.73
678.767	6276.34
678.957	6302.97
679.148	6245.62
679.338	6149.37
679.529	6165.75
679.719	6204.66
679.909	6167.8
680.1	6089.98
680.29	6145.27
680.481	6204.66
680.671	6063.35
680.861	6157.56
681.052	6188.28
681.242	6294.77
681.432	6016.25
681.622	6016.25
681.813	6022.39
682.003	5985.53
682.193	6073.59
682.383	6044.92
682.573	5895.42
682.764	5926.14
682.954	5866.75
683.144	6014.2
683.334	5911.8
683.524	5756.16
683.714	5909.76
683.904	5879.04
684.094	5852.41
684.284	5825.79
684.474	5905.66
684.664	5946.62
684.854	5897.47
685.044	5893.37
685.234	5717.25
685.424	5741.82
685.614	5747.97
685.804	5840.12
685.994	5766.4
686.184	5719.29
686.374	5620.99
686.564	5715.2
686.753	5618.94
686.943	5633.28
687.133	5747.97
687.323	5553.41
687.513	5711.1
687.702	5516.55
687.892	5592.32
688.082	5524.74
688.272	5463.3
688.461	5510.4
688.651	5467.39
688.841	5510.4
689.03	5401.86
689.22	5459.2
689.41	5477.63
689.599	5414.15
689.789	5383.43
689.979	5369.09
690.168	5510.4
690.358	5397.76
690.547	5356.8
690.737	5387.52
690.926	5262.6
691.116	5174.53
691.305	5299.46
691.495	5125.38
691.684	5219.59
691.874	5287.17
692.063	5164.29
692.252	5065.99
692.442	5229.83
692.631	5100.81
692.82	5188.87
693.01	5104.9
693.199	5149.96
693.388	5004.55
693.578	5129.48
693.767	5082.38
693.956	4998.41
694.146	4984.07
694.335	5045.51
694.524	4867.34
694.713	4996.36
694.902	4982.03
695.092	4881.67
695.281	4783.37
695.47	4914.44
695.659	4867.34
695.848	4783.37
696.037	4961.55
696.226	4967.69
696.415	4703.5
696.604	4828.43
696.793	4746.51
696.982	4791.56
697.171	4865.29
697.36	4793.61
697.549	4656.4
697.738	4713.74
697.927	4705.55
698.116	4674.83
698.305	4799.76
698.494	4771.08
698.683	4652.3
698.872	4699.41
699.061	4584.72
699.25	4635.92
699.438	4592.91
699.627	4558.1
699.816	4652.3
700.005	4654.35
700.193	4590.86
700.382	4449.55
700.571	4484.37
700.76	4533.52
700.948	4498.7
701.137	4345.11
701.326	4576.53
701.514	4404.5
701.703	4381.97
701.892	4314.39
702.08	4445.46
702.269	4402.45
702.457	4371.73
702.646	4252.95
702.834	4394.26
703.023	4316.44
703.212	4418.83
703.4	4338.96
703.589	4199.7
703.777	4265.24
703.965	4162.84
704.154	4140.31
704.342	4246.8
704.531	4164.89
704.719	4066.58
704.907	4279.57
705.096	4181.27
705.284	4265.24
705.472	4185.37
705.661	4066.58
705.849	4140.31
706.037	4103.45
706.226	4074.78
706.414	4140.31
706.602	4035.86
706.79	4207.89
706.979	4029.72
707.167	4115.73
707.355	3839.26
707.543	4042.01
707.731	3935.51
707.919	3833.11
708.107	3970.33
708.296	3855.64
708.484	3816.73
708.672	3964.18
708.86	4003.1
709.048	3792.16
709.236	3931.42
709.424	3970.33
709.612	3835.16
709.8	3775.77
709.988	3661.09
710.176	3806.49
710.364	3900.7
710.551	3740.96
710.739	3702.04
710.927	3583.26
711.115	3691.81
711.303	3691.81
711.491	3730.72
711.679	3591.45
711.866	3642.65
712.054	3880.22
712.242	3673.37
712.43	3648.8
712.617	3644.7
712.805	3640.61
712.993	3568.93
713.181	3507.49
713.368	3587.36
713.556	3616.03
713.744	3511.58
713.931	3648.8
714.119	3542.3
714.306	3489.06
714.494	3519.78
714.682	3517.73
714.869	3538.21
715.057	3595.55
715.244	3474.72
715.432	3446.05
715.619	3484.96
715.807	3394.85
715.994	3487.01
716.182	3319.07
716.369	3601.69
716.556	3480.86
716.744	3312.93
716.931	3382.56
717.119	3378.47
717.306	3357.99
717.493	3274.02
717.681	3300.64
717.868	3147.05
718.055	3333.41
718.242	3204.39
718.43	3280.16
718.617	3296.55
718.804	3171.62
718.991	3271.97
719.179	3200.29
719.366	3339.55
719.553	3202.34
719.74	3263.78
719.927	3181.86
720.114	3200.29
720.301	3235.11
720.488	3140.9
720.676	2993.45
720.863	3192.1
721.05	3208.48
721.237	3042.6
721.424	3194.15
721.611	3222.82
721.798	2962.73
721.985	3026.22
722.172	3003.69
722.358	2977.06
722.545	3050.79
722.732	2979.11
722.919	2979.11
723.106	3079.46
723.293	2891.05
723.48	2936.1
723.667	2901.29
723.853	2852.14
724.04	3058.98
724.227	2919.72
724.414	2878.76
724.6	2997.54
724.787	2964.78
724.974	2932.01
725.161	3001.64
725.347	2762.03
725.534	2854.19
725.72	2923.82
725.907	2833.71
726.094	2964.78
726.28	2895.15
726.467	2874.67
726.653	2669.87
726.84	2839.85
727.027	2919.72
727.213	2813.23
727.4	2860.33
727.586	2792.75
727.773	2837.8
727.959	2809.13
728.145	2813.23
728.332	2649.39
728.518	2628.91
728.705	2665.77
728.891	2786.6
729.077	2690.35
729.264	2676.01
729.45	2723.12
729.636	2772.27
729.823	2667.82
730.009	2780.46
730.195	2653.48
730.382	2739.5
730.568	2618.67
730.754	2731.31
730.94	2596.14
731.126	2614.57
731.313	2659.63
731.499	2637.1
731.685	2657.58
731.871	2555.18
732.057	2706.73
732.243	2676.01
732.429	2764.08
732.615	2567.47
732.801	2608.43
732.987	2622.77
733.173	2608.43
733.359	2604.33
733.545	2512.18
733.731	2567.47
733.917	2600.24
734.103	2460.98
734.289	2448.69
734.475	2538.8
734.661	2397.49
734.847	2528.56
735.033	2463.02
735.219	2633.01
735.404	2331.95
735.59	2374.96
735.776	2424.11
735.962	2450.74
736.148	2415.92
736.333	2403.63
736.519	2450.74
736.705	2278.71
736.89	2456.88
737.076	2366.77
737.262	2405.68
737.447	2325.81
737.633	2356.53
737.819	2383.15
738.004	2473.26
738.19	2358.58
738.375	2309.43
738.561	2407.73
738.747	2307.38
738.932	2264.37
739.118	2290.99
739.303	2321.71
739.489	2385.2
739.674	2370.87
739.859	2211.12
740.045	2233.65
740.23	2282.8
740.416	2137.4
740.601	2264.37
740.786	2239.8
740.972	2063.67
741.157	2145.59
741.342	2235.7
741.528	2168.12
741.713	2219.32
741.898	2157.88
742.084	2202.93
742.269	2170.16
742.454	2069.81
742.639	2121.01
742.824	2108.73
743.01	2075.96
743.195	2225.46
743.38	2088.25
743.565	2110.77
743.75	2047.29
743.935	2170.16
744.12	2108.73
744.305	2112.82
744.49	2051.38
744.675	2004.28
744.86	1994.04
745.045	2075.96
745.23	1946.94
745.415	1994.04
745.6	1969.46
745.785	1922.36
745.97	1881.4
746.155	1946.94
746.34	1928.5
746.525	1848.63
746.71	1926.46
746.895	1817.91
747.079	1873.21
747.264	1846.59
747.449	1803.58
747.634	1862.97
747.819	1852.73
748.003	1881.4
748.188	1781.05
748.373	1781.05
748.557	1867.06
748.742	1817.91
748.927	1785.15
749.111	1727.8
749.296	1764.67
749.481	1699.13
749.665	1670.46
749.85	1668.41
750.034	1715.52
750.219	1692.99
750.404	1635.64
750.588	1688.89
750.773	1633.6
750.957	1695.04
751.141	1520.96
751.326	1682.75
751.51	1480
751.695	1551.68
751.879	1586.49
752.064	1660.22
752.248	1551.68
752.432	1543.49
752.617	1516.86
752.801	1494.33
752.985	1584.45
753.17	1568.06
753.354	1600.83
753.538	1516.86
753.722	1467.71
753.907	1371.46
754.091	1461.57
754.275	1596.73
754.459	1369.41
754.643	1404.22
754.828	1447.23
755.012	1416.51
755.196	1428.8
755.38	1404.22
755.564	1297.73
755.748	1346.88
755.932	1332.55
756.116	1287.49
756.3	1350.98
756.484	1297.73
756.668	1330.5
756.852	1330.5
757.036	1234.24
757.22	1217.86
757.404	1248.58
757.588	1260.87
757.772	1396.03
757.956	1281.35
758.14	1211.71
758.323	1242.43
758.507	1221.95
758.691	1258.82
758.875	1277.25
759.059	1264.96
759.242	1183.04
759.426	1207.62
759.61	1305.92
759.794	1129.8
759.977	1125.7
760.161	1260.87
760.345	1240.39
760.528	1267.01
760.712	1183.04
760.895	1117.51
761.079	1166.66
761.263	1166.66
761.446	1064.26
761.63	1092.93
761.813	1183.04
761.997	1043.78
762.18	1056.07
762.364	1109.32
762.547	1035.59
762.731	965.96
762.914	1029.45
763.098	1021.25
763.281	986.44
763.464	1078.6
763.648	1107.27
763.831	996.68
764.015	965.96
764.198	949.57
764.381	1060.17
764.564	1109.32
764.748	1006.92
764.931	986.44
765.114	1060.17
765.297	1142.08
765.481	963.91
765.664	949.57
765.847	1011.01
766.03	982.34
766.213	976.2
766.397	994.63
766.58	996.68
766.763	1094.98
766.946	920.9
767.129	1021.25
767.312	1013.06
767.495	978.25
767.678	988.49
767.861	955.72
768.044	986.44
768.227	898.38
768.41	929.1
768.593	980.29
768.776	988.49
768.959	963.91
769.142	1006.92
769.324	906.57
769.507	953.67
769.69	963.91
769.873	843.08
770.056	1035.59
770.239	896.33
770.421	888.14
770.604	943.43
770.787	963.91
770.97	888.14
771.152	810.31
771.335	949.57
771.518	838.98
771.7	933.19
771.883	963.91
772.066	861.51
772.248	834.89
772.431	824.65
772.613	843.08
772.796	879.94
772.978	806.22
773.161	838.98
773.343	816.46
773.526	716.11
773.708	716.11
773.891	798.03
774.073	781.64
774.256	836.94
774.438	896.33
774.621	757.07
774.803	843.08
774.985	789.83
775.168	871.75
775.35	779.59
775.532	818.5
775.715	808.27
775.897	855.37
776.079	720.2
776.261	781.64
776.444	679.24
776.626	757.07
776.808	718.15
776.99	679.24
777.173	779.59
777.355	740.68
777.537	693.58
777.719	683.34
777.901	822.6
778.083	699.72
778.265	703.82
778.447	759.11
778.629	578.89
778.811	636.24
778.993	707.91
779.175	646.48
779.357	669
779.539	660.81
779.721	693.58
779.903	593.23
780.085	603.47
780.267	617.8
780.449	642.38
780.631	687.43
780.812	669
780.994	626
781.176	580.94
781.358	585.04
781.54	560.46
781.721	660.81
781.903	664.91
782.085	609.61
782.267	615.76
782.448	593.23
782.63	535.89
782.812	654.67
782.993	585.04
783.175	476.49
783.357	568.65
783.538	490.83
783.72	546.13
783.901	652.62
784.083	603.47
784.264	544.08
784.446	544.08
784.627	474.45
784.809	537.93
784.99	589.13
785.172	556.36
785.353	585.04
785.535	505.17
785.716	451.92
785.897	476.49
786.079	552.27
786.26	501.07
786.441	476.49
786.623	513.36
786.804	490.83
786.985	505.17
787.167	423.25
787.348	431.44
787.529	447.82
787.71	576.84
787.891	494.93
788.073	562.51
788.254	519.5
788.435	466.25
788.616	443.73
788.797	392.53
788.978	486.73
789.159	441.68
789.34	413.01
789.522	404.82
789.703	372.05
789.884	382.29
790.065	390.48
790.246	421.2
790.427	339.28
790.607	496.97
790.788	449.87
790.969	314.7
791.15	437.58
791.331	402.77
791.512	419.15
791.693	341.33
791.874	347.47
792.054	417.1
792.235	398.67
792.416	310.61
792.597	331.09
792.778	410.96
792.958	423.25
793.139	453.97
793.32	355.66
793.5	316.75
793.681	404.82
793.862	337.23
794.042	404.82
794.223	345.42
794.404	357.71
794.584	370
794.765	413.01
794.945	326.99
795.126	372.05
795.306	320.85
795.487	357.71
795.667	341.33
795.848	331.09
796.028	326.99
796.209	281.94
796.389	310.61
796.57	324.94
796.75	255.31
796.93	298.32
797.111	265.55
797.291	322.9
797.471	322.9
797.652	318.8
797.832	283.99
798.012	388.43
798.192	306.51
798.373	232.79
798.553	283.99
798.733	347.47
798.913	298.32
799.093	322.9
799.274	236.88
799.454	331.09
799.634	308.56
799.814	349.52
799.994	283.99
800.174	240.98
800.354	243.03
800.534	185.68
800.714	210.26
800.894	292.18
801.074	216.4
801.254	216.4
801.434	243.03
801.614	290.13
801.794	212.31
801.974	1027.4
802.154	273.75
802.334	240.98
802.514	316.75
802.693	281.94
802.873	290.13
803.053	335.18
803.233	243.03
803.413	216.4
803.592	234.83
803.772	290.13
803.952	290.13
804.131	261.46
804.311	261.46
804.491	171.35
804.67	163.15
804.85	175.44
805.03	165.2
805.209	224.59
805.389	277.84
805.568	247.12
805.748	187.73
805.928	226.64
806.107	240.98
806.287	226.64
806.466	259.41
806.646	263.51
806.825	224.59
807.004	212.31
807.184	247.12
807.363	335.18
807.543	191.83
807.722	189.78
807.901	240.98
808.081	191.83
808.26	126.29
808.439	240.98
808.619	206.16
808.798	193.87
808.977	232.79
809.156	265.55
809.336	265.55
809.515	234.83
809.694	152.92
809.873	109.91
810.052	245.07
810.231	191.83
810.411	216.4
810.59	251.22
810.769	191.83
810.948	179.54
811.127	130.39
811.306	191.83
811.485	101.72
811.664	329.04
811.843	208.21
812.022	228.69
812.201	257.36
812.38	191.83
812.559	236.88
812.737	138.58
812.916	77.14
813.095	224.59
813.274	197.97
813.453	200.02
813.632	247.12
813.811	236.88
813.989	249.17
814.168	191.83
814.347	75.09
814.526	216.4
814.704	200.02
814.883	202.07
815.062	142.68
815.24	171.35
815.419	191.83
815.598	134.48
815.776	122.2
815.955	200.02
816.133	220.5
816.312	122.2
816.49	130.39
816.669	85.33
816.847	183.63
817.026	173.39
817.204	230.74
817.383	165.2
817.561	171.35
817.74	163.15
817.918	189.78
818.097	181.59
818.275	130.39
818.453	142.68
818.632	224.59
818.81	150.87
818.988	134.48
819.167	136.53
819.345	95.57
819.523	56.66
819.701	101.72
819.879	169.3
820.058	103.76
820.236	118.1
820.414	157.01
820.592	187.73
820.77	142.68
820.948	208.21
821.127	154.96
821.305	154.96
821.483	101.72
821.661	167.25
821.839	132.44
822.017	169.3
822.195	185.68
822.373	202.07
822.551	91.48
822.729	83.28
822.907	118.1
823.085	185.68
823.262	191.83
823.44	120.15
823.618	154.96
823.796	150.87
823.974	114
824.152	130.39
824.329	85.33
824.507	79.19
824.685	116.05
824.863	77.14
825.04	150.87
825.218	226.64
825.396	120.15
825.574	114
825.751	126.29
825.929	181.59
826.107	79.19
826.284	144.72
826.462	175.44
826.639	142.68
826.817	138.58
826.994	81.24
827.172	73.04
827.349	183.63
827.527	114
827.704	130.39
827.882	138.58
828.059	142.68
828.237	64.85
828.414	179.54
828.591	46.42
828.769	97.62
828.946	48.47
829.124	140.63
829.301	130.39
829.478	120.15
829.655	114
829.833	54.61
830.01	-21.16
830.187	126.29
830.364	36.18
830.542	150.87
830.719	159.06
830.896	68.95
831.073	136.53
831.25	175.44
831.427	77.14
831.604	154.96
831.782	85.33
831.959	103.76
832.136	77.14
832.313	134.48
832.49	62.8
832.667	93.52
832.844	142.68
833.021	103.76
833.198	150.87
833.374	21.85
833.551	93.52
833.728	103.76
833.905	118.1
834.082	62.8
834.259	97.62
834.436	126.29
834.612	152.92
834.789	75.09
834.966	48.47
835.143	101.72
835.319	68.95
835.496	122.2
835.673	157.01
835.85	163.15
836.026	185.68
836.203	81.24
836.38	17.75
836.556	179.54
836.733	48.47
836.909	167.25
837.086	134.48
837.262	130.39
837.439	97.62
837.616	118.1
837.792	19.8
837.968	101.72
838.145	32.08
838.321	64.85
838.498	77.14
838.674	87.38
838.851	111.96
839.027	93.52
839.203	79.19
839.38	71
839.556	122.2
839.732	132.44
839.909	32.08
840.085	124.24
840.261	58.71
840.437	105.81
840.614	101.72
840.79	111.96
840.966	118.1
841.142	142.68
841.318	17.75
841.494	68.95
841.671	148.82
841.847	19.8
842.023	79.19
842.199	85.33
842.375	103.76
842.551	19.8
842.727	54.61
842.903	99.67
843.079	60.76
843.255	118.1
843.431	13.65
843.607	60.76
843.783	105.81
843.959	66.9
844.134	-17.07
844.31	118.1
844.486	68.95
844.662	30.04
844.838	15.7
845.013	146.77
845.189	52.56
845.365	101.72
845.541	167.25
845.716	73.04
845.892	87.38
846.068	101.72
846.244	13.65
846.419	93.52
846.595	-8.87
846.77	60.76
846.946	169.3
847.122	58.71
847.297	27.99
847.473	124.24
847.648	21.85
847.824	77.14
847.999	73.04
848.175	48.47
848.35	167.25
848.526	150.87
848.701	107.86
848.876	46.42
849.052	60.76
849.227	3.41
849.403	5.46
849.578	60.76
849.753	-33.45
849.929	44.37
850.104	44.37
850.279	60.76
850.454	142.68
850.63	103.76
850.805	13.65
850.98	169.3
851.155	3.41
851.33	87.38
851.505	7.51
851.681	95.57
851.856	126.29
852.031	136.53
852.206	25.94
852.381	62.8
852.556	25.94
852.731	93.52
852.906	120.15
853.081	56.66
853.256	95.57
853.431	11.61
853.606	44.37
853.781	68.95
853.956	21.85
854.131	97.62
854.305	7.51
854.48	44.37
854.655	-2.73
854.83	111.96
855.005	30.04
855.18	44.37
855.354	75.09
855.529	3.41
855.704	52.56
855.879	23.89
856.053	3.41
856.228	99.67
856.403	27.99
856.577	103.76
856.752	7.51
856.926	52.56
857.101	81.24
857.276	44.37
857.45	87.38
857.625	77.14
857.799	118.1
857.974	62.8
858.148	52.56
858.323	95.57
858.497	64.85
858.672	60.76
858.846	79.19
859.02	58.71
859.195	73.04
859.369	71
859.543	36.18
859.718	-21.16
859.892	48.47
860.066	48.47
860.241	66.9
860.415	58.71
860.589	-4.78
860.763	27.99
860.938	13.65
861.112	114
861.286	44.37
861.46	81.24
861.634	9.56
861.808	152.92
861.982	-4.78
862.157	-31.4
862.331	-25.26
862.505	19.8
862.679	-45.74
862.853	30.04
863.027	46.42
863.201	122.2
863.375	54.61
863.549	-10.92
863.722	85.33
863.896	19.8
864.07	3.41
864.244	101.72
864.418	118.1
864.592	52.56
864.766	25.94
864.939	13.65
865.113	15.7
865.287	81.24
865.461	-33.45
865.634	109.91
865.808	44.37
865.982	30.04
866.156	-2.73
866.329	52.56
866.503	-2.73
866.676	13.65
866.85	21.85
867.024	27.99
867.197	48.47
867.371	77.14
867.544	87.38
867.718	40.28
867.891	48.47
868.065	56.66
868.238	77.14
868.412	62.8
868.585	124.24
868.759	83.28
868.932	-45.74
869.105	114
869.279	60.76
869.452	19.8
869.625	60.76
869.799	167.25
869.972	-8.87
870.145	-0.68
870.319	52.56
870.492	27.99
870.665	60.76
870.838	-60.07
871.011	-15.02
871.185	5.46
871.358	-0.68
871.531	44.37
871.704	36.18
871.877	11.61
872.05	15.7
872.223	54.61
872.396	-10.92
872.569	-12.97
872.742	-8.87
872.915	54.61
873.088	38.23
873.261	5.46
873.434	44.37
873.607	21.85
873.78	30.04
873.953	15.7
874.126	44.37
874.299	64.85
874.471	11.61
874.644	93.52
874.817	52.56
874.99	103.76
875.163	27.99
875.335	68.95
875.508	126.29
875.681	109.91
875.853	60.76
876.026	9.56
876.199	48.47
876.371	85.33
876.544	36.18
876.717	60.76
876.889	-25.26
877.062	109.91
877.234	-21.16
877.407	105.81
877.579	1.37
877.752	42.32
877.924	5.46
878.097	30.04
878.269	7.51
878.442	13.65
878.614	44.37
878.786	68.95
878.959	62.8
879.131	19.8
879.303	34.13
879.476	11.61
879.648	32.08
879.82	46.42
879.993	77.14
880.165	11.61
880.337	19.8
880.509	27.99
880.681	73.04
880.854	-29.35
881.026	-17.07
881.198	56.66
881.37	23.89
881.542	-2.73
881.714	44.37
881.886	64.85
882.058	142.68
882.23	46.42
882.402	-45.74
882.574	-21.16
882.746	71
882.918	5.46
883.09	60.76
883.262	79.19
883.434	62.8
883.606	60.76
883.778	27.99
883.95	126.29
884.122	97.62
884.293	42.32
884.465	36.18
884.637	48.47
884.809	38.23
884.98	111.96
885.152	15.7
885.324	44.37
885.496	-60.07
885.667	48.47
885.839	15.7
886.011	95.57
886.182	54.61
886.354	38.23
886.525	-10.92
886.697	44.37
886.869	30.04
887.04	44.37
887.212	23.89
887.383	-19.11
887.555	52.56
887.726	-0.68
887.897	-47.79
888.069	23.89
888.24	19.8
888.412	73.04
888.583	60.76
888.754	122.2
888.926	-21.16
889.097	-15.02
889.268	73.04
889.44	36.18
889.611	-17.07
889.782	-17.07
889.953	-39.59
890.125	44.37
890.296	-15.02
890.467	38.23
890.638	38.23
890.809	-19.11
890.98	-6.83
891.151	52.56
891.323	-0.68
891.494	46.42
891.665	46.42
891.836	-17.07
892.007	-21.16
892.178	40.28
892.349	11.61
892.52	17.75
892.691	23.89
892.862	52.56
893.032	7.51
893.203	32.08
893.374	85.33
893.545	9.56
893.716	25.94
893.887	64.85
894.057	-17.07
894.228	-12.97
894.399	-8.87
894.57	71
894.74	44.37
894.911	48.47
895.082	3.41
895.253	46.42
895.423	7.51
895.594	11.61
895.764	15.7
895.935	32.08
896.106	27.99
896.276	60.76
896.447	-12.97
896.617	30.04
896.788	15.7
896.958	103.76
897.129	-33.45
897.299	85.33
897.47	111.96
897.64	85.33
897.81	34.13
897.981	77.14
898.151	19.8
898.322	-2.73
898.492	52.56
898.662	5.46
898.832	60.76
899.003	27.99
899.173	19.8
899.343	-2.73
899.513	-53.93
