Data from USB4F104151__247__14-34-13-160.txt Node

Date: Thu Mar 13 14:34:13 EDT 2025
User: louis
Spectrometer: USB4F10415
Trigger mode: 4
Integration Time (sec): 2.500000E-2
Scans to average: 1
Electric dark correction enabled: true
Nonlinearity correction enabled: false
Boxcar width: 0
XAxis mode: Wavelengths
Number of Pixels in Spectrum: 3648
>>>>>Begin Spectral Data<<<<<
178.204	-143.7
178.424	-143.7
178.644	-143.7
178.864	-141.65
179.084	-162.13
179.304	-10.58
179.524	-22.87
179.744	11.95
179.964	67.24
180.184	-110.93
180.404	-12.63
180.624	50.86
180.844	-14.68
181.064	-0.34
181.283	9.9
181.503	-39.25
181.723	71.34
181.943	-22.87
182.163	67.24
182.383	26.28
182.602	24.23
182.822	9.9
183.042	38.57
183.262	-35.16
183.482	1.71
183.701	-29.01
183.921	-29.01
184.141	-12.63
184.361	18.09
184.58	3.75
184.8	1.71
185.02	18.09
185.239	50.86
185.459	-22.87
185.679	34.47
185.898	3.75
186.118	100.01
186.338	9.9
186.557	54.95
186.777	-35.16
186.997	91.82
187.216	77.48
187.436	75.43
187.655	110.25
187.875	5.8
188.095	-45.4
188.314	108.2
188.534	34.47
188.753	34.47
188.973	116.39
189.192	87.72
189.412	44.71
189.631	44.71
189.851	46.76
190.07	42.67
190.29	44.71
190.509	-20.82
190.729	-14.68
190.948	34.47
191.168	163.5
191.387	89.77
191.607	28.33
191.826	59.05
192.045	-4.44
192.265	36.52
192.484	9.9
192.704	9.9
192.923	24.23
193.142	132.78
193.362	71.34
193.581	61.1
193.8	44.71
194.02	65.19
194.239	34.47
194.458	91.82
194.678	32.43
194.897	22.19
195.116	1.71
195.335	30.38
195.555	69.29
195.774	-39.25
195.993	95.91
196.212	48.81
196.432	-26.96
196.651	46.76
196.87	11.95
197.089	57
197.308	93.87
197.528	91.82
197.747	-14.68
197.966	28.33
198.185	112.3
198.404	3.75
198.623	18.09
198.842	87.72
199.062	16.04
199.281	42.67
199.5	18.09
199.719	67.24
199.938	-8.53
200.157	102.06
200.376	106.15
200.595	1.71
200.814	26.28
201.033	28.33
201.252	38.57
201.471	18.09
201.69	71.34
201.909	140.97
202.128	75.43
202.347	81.58
202.566	67.24
202.785	-31.06
203.004	-67.92
203.223	120.49
203.442	77.48
203.661	67.24
203.879	-14.68
204.098	157.35
204.317	34.47
204.536	54.95
204.755	71.34
204.974	44.71
205.193	95.91
205.411	128.68
205.63	75.43
205.849	61.1
206.068	85.67
206.287	11.95
206.505	42.67
206.724	-51.54
206.943	-86.36
207.162	18.09
207.381	93.87
207.599	-67.92
207.818	97.96
208.037	20.14
208.255	54.95
208.474	54.95
208.693	28.33
208.911	9.9
209.13	36.52
209.349	71.34
209.567	52.91
209.786	93.87
210.005	50.86
210.223	77.48
210.442	9.9
210.661	-31.06
210.879	44.71
211.098	57
211.316	18.09
211.535	85.67
211.753	89.77
211.972	69.29
212.191	44.71
212.409	-29.01
212.628	-10.58
212.846	7.85
213.065	46.76
213.283	63.15
213.502	5.8
213.72	-18.77
213.938	9.9
214.157	71.34
214.375	44.71
214.594	63.15
214.812	9.9
215.031	-6.49
215.249	-35.16
215.467	13.99
215.686	5.8
215.904	149.16
216.122	42.67
216.341	79.53
216.559	-41.3
216.778	116.39
216.996	30.38
217.214	3.75
217.432	-63.83
217.651	50.86
217.869	36.52
218.087	5.8
218.306	83.63
218.524	69.29
218.742	48.81
218.96	46.76
219.179	-10.58
219.397	50.86
219.615	57
219.833	52.91
220.051	20.14
220.27	122.54
220.488	26.28
220.706	13.99
220.924	28.33
221.142	26.28
221.36	13.99
221.578	134.82
221.796	42.67
222.015	38.57
222.233	34.47
222.451	83.63
222.669	7.85
222.887	50.86
223.105	-37.2
223.323	-47.44
223.541	-63.83
223.759	-2.39
223.977	20.14
224.195	59.05
224.413	24.23
224.631	67.24
224.849	-22.87
225.067	34.47
225.285	5.8
225.503	89.77
225.721	-96.6
225.939	28.33
226.157	34.47
226.375	100.01
226.592	11.95
226.81	-6.49
227.028	149.16
227.246	85.67
227.464	5.8
227.682	75.43
227.9	120.49
228.117	59.05
228.335	30.38
228.553	13.99
228.771	-6.49
228.989	11.95
229.206	54.95
229.424	91.82
229.642	-6.49
229.86	9.9
230.077	11.95
230.295	73.39
230.513	110.25
230.731	30.38
230.948	59.05
231.166	46.76
231.384	28.33
231.601	-39.25
231.819	59.05
232.037	11.95
232.254	69.29
232.472	59.05
232.689	1.71
232.907	52.91
233.125	-55.64
233.342	75.43
233.56	-0.34
233.777	3.75
233.995	-4.44
234.213	38.57
234.43	38.57
234.648	-0.34
234.865	13.99
235.083	95.91
235.3	67.24
235.518	120.49
235.735	130.73
235.953	83.63
236.17	18.09
236.388	108.2
236.605	-35.16
236.822	79.53
237.04	5.8
237.257	-31.06
237.475	-18.77
237.692	40.62
237.909	73.39
238.127	9.9
238.344	61.1
238.562	30.38
238.779	-22.87
238.996	1.71
239.214	34.47
239.431	59.05
239.648	59.05
239.865	67.24
240.083	-35.16
240.3	48.81
240.517	46.76
240.735	46.76
240.952	22.19
241.169	20.14
241.386	9.9
241.603	34.47
241.821	-29.01
242.038	5.8
242.255	40.62
242.472	-61.78
242.689	18.09
242.907	110.25
243.124	18.09
243.341	34.47
243.558	59.05
243.775	18.09
243.992	40.62
244.209	69.29
244.426	77.48
244.643	67.24
244.86	-24.92
245.078	83.63
245.295	38.57
245.512	32.43
245.729	24.23
245.946	34.47
246.163	69.29
246.38	-74.07
246.597	-4.44
246.814	18.09
247.031	71.34
247.248	93.87
247.464	11.95
247.681	50.86
247.898	128.68
248.115	93.87
248.332	1.71
248.549	61.1
248.766	75.43
248.983	71.34
249.2	30.38
249.417	83.63
249.633	-20.82
249.85	46.76
250.067	-22.87
250.284	67.24
250.501	134.82
250.717	9.9
250.934	30.38
251.151	11.95
251.368	40.62
251.585	-2.39
251.801	54.95
252.018	79.53
252.235	79.53
252.451	34.47
252.668	-2.39
252.885	118.44
253.102	91.82
253.318	54.95
253.535	34.47
253.752	18.09
253.968	75.43
254.185	28.33
254.401	61.1
254.618	-57.68
254.835	46.76
255.051	22.19
255.268	20.14
255.484	54.95
255.701	30.38
255.917	42.67
256.134	13.99
256.351	24.23
256.567	-53.59
256.784	13.99
257	-6.49
257.217	91.82
257.433	63.15
257.65	9.9
257.866	91.82
258.082	18.09
258.299	-31.06
258.515	46.76
258.732	57
258.948	-63.83
259.165	54.95
259.381	61.1
259.597	-12.63
259.814	73.39
260.03	59.05
260.246	34.47
260.463	-16.73
260.679	42.67
260.895	18.09
261.112	67.24
261.328	20.14
261.544	-4.44
261.761	54.95
261.977	-47.44
262.193	-55.64
262.409	36.52
262.626	26.28
262.842	52.91
263.058	32.43
263.274	91.82
263.49	3.75
263.707	112.3
263.923	44.71
264.139	-80.21
264.355	69.29
264.571	100.01
264.787	9.9
265.004	50.86
265.22	-14.68
265.436	-22.87
265.652	38.57
265.868	91.82
266.084	61.1
266.3	44.71
266.516	7.85
266.732	-6.49
266.948	38.57
267.164	61.1
267.38	7.85
267.596	3.75
267.812	30.38
268.028	79.53
268.244	-20.82
268.46	102.06
268.676	5.8
268.892	-4.44
269.108	-53.59
269.324	-26.96
269.54	-47.44
269.756	3.75
269.972	102.06
270.188	63.15
270.403	28.33
270.619	5.8
270.835	42.67
271.051	87.72
271.267	38.57
271.483	40.62
271.698	42.67
271.914	67.24
272.13	26.28
272.346	-14.68
272.562	18.09
272.777	3.75
272.993	3.75
273.209	24.23
273.425	67.24
273.64	-2.39
273.856	-6.49
274.072	69.29
274.287	54.95
274.503	65.19
274.719	75.43
274.934	26.28
275.15	-84.31
275.366	-0.34
275.581	13.99
275.797	100.01
276.012	48.81
276.228	50.86
276.444	13.99
276.659	26.28
276.875	67.24
277.09	34.47
277.306	5.8
277.521	77.48
277.737	-35.16
277.952	26.28
278.168	106.15
278.383	34.47
278.599	52.91
278.814	61.1
279.03	42.67
279.245	77.48
279.461	26.28
279.676	34.47
279.892	-104.79
280.107	40.62
280.322	13.99
280.538	11.95
280.753	50.86
280.969	75.43
281.184	9.9
281.399	18.09
281.615	-29.01
281.83	32.43
282.045	83.63
282.26	75.43
282.476	7.85
282.691	138.92
282.906	54.95
283.122	42.67
283.337	18.09
283.552	102.06
283.767	-59.73
283.983	122.54
284.198	18.09
284.413	42.67
284.628	38.57
284.843	69.29
285.058	67.24
285.274	-2.39
285.489	22.19
285.704	93.87
285.919	-39.25
286.134	59.05
286.349	9.9
286.564	1.71
286.779	44.71
286.995	79.53
287.21	-22.87
287.425	-20.82
287.64	110.25
287.855	89.77
288.07	24.23
288.285	42.67
288.5	116.39
288.715	75.43
288.93	-10.58
289.145	75.43
289.36	75.43
289.575	77.48
289.79	3.75
290.004	34.47
290.219	69.29
290.434	-39.25
290.649	9.9
290.864	5.8
291.079	28.33
291.294	34.47
291.509	52.91
291.724	71.34
291.938	13.99
292.153	11.95
292.368	-4.44
292.583	36.52
292.798	75.43
293.012	44.71
293.227	18.09
293.442	61.1
293.657	75.43
293.871	114.34
294.086	97.96
294.301	85.67
294.516	71.34
294.73	44.71
294.945	54.95
295.16	11.95
295.374	77.48
295.589	73.39
295.804	59.05
296.018	59.05
296.233	63.15
296.447	89.77
296.662	5.8
296.877	57
297.091	9.9
297.306	100.01
297.52	-55.64
297.735	9.9
297.949	42.67
298.164	54.95
298.378	3.75
298.593	3.75
298.807	18.09
299.022	50.86
299.236	85.67
299.451	-12.63
299.665	3.75
299.88	-43.35
300.094	75.43
300.309	11.95
300.523	44.71
300.737	-10.58
300.952	42.67
301.166	75.43
301.381	59.05
301.595	59.05
301.809	44.71
302.024	52.91
302.238	75.43
302.452	108.2
302.667	44.71
302.881	75.43
303.095	48.81
303.309	-26.96
303.524	32.43
303.738	34.47
303.952	28.33
304.166	38.57
304.381	-18.77
304.595	100.01
304.809	40.62
305.023	34.47
305.237	50.86
305.452	132.78
305.666	104.11
305.88	30.38
306.094	-14.68
306.308	85.67
306.522	50.86
306.736	50.86
306.95	75.43
307.164	50.86
307.379	30.38
307.593	116.39
307.807	71.34
308.021	-6.49
308.235	26.28
308.449	26.28
308.663	81.58
308.877	100.01
309.091	59.05
309.305	36.52
309.519	-45.4
309.733	89.77
309.947	34.47
310.161	-31.06
310.374	118.44
310.588	30.38
310.802	1.71
311.016	36.52
311.23	83.63
311.444	-26.96
311.658	-24.92
311.872	69.29
312.085	63.15
312.299	30.38
312.513	61.1
312.727	44.71
312.941	11.95
313.154	97.96
313.368	5.8
313.582	63.15
313.796	52.91
314.009	-67.92
314.223	67.24
314.437	26.28
314.651	32.43
314.864	7.85
315.078	9.9
315.292	38.57
315.505	-6.49
315.719	61.1
315.933	42.67
316.146	42.67
316.36	42.67
316.573	22.19
316.787	18.09
317.001	-2.39
317.214	3.75
317.428	75.43
317.641	26.28
317.855	-4.44
318.068	75.43
318.282	54.95
318.495	69.29
318.709	1.71
318.922	26.28
319.136	116.39
319.349	63.15
319.563	83.63
319.776	-12.63
319.99	28.33
320.203	87.72
320.417	61.1
320.63	-45.4
320.843	130.73
321.057	-10.58
321.27	9.9
321.483	77.48
321.697	124.58
321.91	42.67
322.124	24.23
322.337	32.43
322.55	65.19
322.763	77.48
322.977	1.71
323.19	9.9
323.403	61.1
323.617	-10.58
323.83	91.82
324.043	42.67
324.256	91.82
324.469	61.1
324.683	153.26
324.896	67.24
325.109	20.14
325.322	-63.83
325.535	87.72
325.748	63.15
325.962	102.06
326.175	85.67
326.388	26.28
326.601	67.24
326.814	52.91
327.027	34.47
327.24	16.04
327.453	-2.39
327.666	-14.68
327.879	36.52
328.092	73.39
328.305	-2.39
328.518	-0.34
328.731	36.52
328.944	67.24
329.157	52.91
329.37	67.24
329.583	67.24
329.796	83.63
330.009	-45.4
330.222	75.43
330.435	77.48
330.648	59.05
330.861	-14.68
331.073	124.58
331.286	67.24
331.499	42.67
331.712	28.33
331.925	1.71
332.138	7.85
332.35	83.63
332.563	52.91
332.776	71.34
332.989	-20.82
333.202	69.29
333.414	32.43
333.627	83.63
333.84	61.1
334.053	-4.44
334.265	18.09
334.478	20.14
334.691	7.85
334.903	30.38
335.116	44.71
335.329	46.76
335.541	26.28
335.754	91.82
335.966	59.05
336.179	69.29
336.392	59.05
336.604	52.91
336.817	16.04
337.029	5.8
337.242	-31.06
337.454	67.24
337.667	54.95
337.88	87.72
338.092	3.75
338.305	24.23
338.517	22.19
338.729	34.47
338.942	75.43
339.154	18.09
339.367	36.52
339.579	-22.87
339.792	71.34
340.004	-6.49
340.217	67.24
340.429	26.28
340.641	44.71
340.854	24.23
341.066	-29.01
341.278	11.95
341.491	93.87
341.703	50.86
341.915	9.9
342.128	75.43
342.34	13.99
342.552	89.77
342.764	71.34
342.977	48.81
343.189	30.38
343.401	50.86
343.613	-4.44
343.826	13.99
344.038	26.28
344.25	42.67
344.462	-20.82
344.674	18.09
344.886	-10.58
345.099	7.85
345.311	85.67
345.523	93.87
345.735	-12.63
345.947	87.72
346.159	-16.73
346.371	75.43
346.583	38.57
346.795	130.73
347.007	34.47
347.219	165.54
347.431	54.95
347.643	110.25
347.855	38.57
348.067	26.28
348.279	-33.11
348.491	126.63
348.703	67.24
348.915	5.8
349.127	-47.44
349.339	3.75
349.551	46.76
349.763	59.05
349.975	63.15
350.187	100.01
350.399	52.91
350.61	100.01
350.822	7.85
351.034	22.19
351.246	106.15
351.458	57
351.669	44.71
351.881	61.1
352.093	22.19
352.305	46.76
352.517	83.63
352.728	52.91
352.94	83.63
353.152	26.28
353.363	73.39
353.575	-2.39
353.787	124.58
353.999	28.33
354.21	5.8
354.422	-35.16
354.633	42.67
354.845	32.43
355.057	54.95
355.268	71.34
355.48	128.68
355.692	28.33
355.903	69.29
356.115	34.47
356.326	-35.16
356.538	77.48
356.749	83.63
356.961	138.92
357.172	89.77
357.384	22.19
357.595	120.49
357.807	102.06
358.018	104.11
358.23	-29.01
358.441	114.34
358.653	108.2
358.864	11.95
359.075	5.8
359.287	42.67
359.498	83.63
359.709	46.76
359.921	52.91
360.132	1.71
360.344	-2.39
360.555	42.67
360.766	95.91
360.977	50.86
361.189	81.58
361.4	9.9
361.611	40.62
361.823	26.28
362.034	122.54
362.245	9.9
362.456	5.8
362.667	81.58
362.879	-20.82
363.09	18.09
363.301	-2.39
363.512	18.09
363.723	22.19
363.935	50.86
364.146	28.33
364.357	26.28
364.568	11.95
364.779	-26.96
364.99	132.78
365.201	18.09
365.412	44.71
365.623	42.67
365.834	13.99
366.045	83.63
366.256	54.95
366.467	75.43
366.678	38.57
366.889	54.95
367.1	26.28
367.311	69.29
367.522	30.38
367.733	100.01
367.944	143.02
368.155	91.82
368.366	75.43
368.577	48.81
368.788	102.06
368.999	9.9
369.209	83.63
369.42	130.73
369.631	124.58
369.842	93.87
370.053	59.05
370.264	75.43
370.474	75.43
370.685	-35.16
370.896	91.82
371.107	-18.77
371.317	108.2
371.528	48.81
371.739	46.76
371.95	102.06
372.16	20.14
372.371	44.71
372.582	134.82
372.792	46.76
373.003	50.86
373.214	81.58
373.424	75.43
373.635	83.63
373.846	57
374.056	26.28
374.267	112.3
374.477	34.47
374.688	13.99
374.898	104.11
375.109	-26.96
375.319	59.05
375.53	128.68
375.74	75.43
375.951	34.47
376.161	24.23
376.372	75.43
376.582	59.05
376.793	42.67
377.003	28.33
377.214	67.24
377.424	46.76
377.635	-55.64
377.845	28.33
378.055	67.24
378.266	9.9
378.476	73.39
378.686	13.99
378.897	104.11
379.107	32.43
379.317	34.47
379.528	26.28
379.738	63.15
379.948	32.43
380.158	69.29
380.369	20.14
380.579	57
380.789	32.43
380.999	61.1
381.21	34.47
381.42	63.15
381.63	42.67
381.84	87.72
382.05	36.52
382.261	63.15
382.471	91.82
382.681	-26.96
382.891	83.63
383.101	57
383.311	28.33
383.521	50.86
383.731	85.67
383.941	91.82
384.151	13.99
384.361	-57.68
384.571	108.2
384.781	95.91
384.991	134.82
385.201	100.01
385.411	126.63
385.621	108.2
385.831	54.95
386.041	124.58
386.251	46.76
386.461	20.14
386.671	38.57
386.881	28.33
387.091	11.95
387.301	81.58
387.511	85.67
387.72	48.81
387.93	36.52
388.14	5.8
388.35	9.9
388.56	126.63
388.769	93.87
388.979	83.63
389.189	91.82
389.399	52.91
389.609	130.73
389.818	61.1
390.028	87.72
390.238	69.29
390.447	50.86
390.657	67.24
390.867	7.85
391.076	-14.68
391.286	149.16
391.496	102.06
391.705	20.14
391.915	112.3
392.125	83.63
392.334	26.28
392.544	104.11
392.753	71.34
392.963	50.86
393.172	87.72
393.382	46.76
393.591	149.16
393.801	83.63
394.01	108.2
394.22	91.82
394.429	183.98
394.639	38.57
394.848	71.34
395.058	116.39
395.267	16.04
395.477	3.75
395.686	85.67
395.895	104.11
396.105	140.97
396.314	128.68
396.524	165.54
396.733	52.91
396.942	157.35
397.152	124.58
397.361	124.58
397.57	110.25
397.78	26.28
397.989	106.15
398.198	153.26
398.407	87.72
398.617	108.2
398.826	77.48
399.035	116.39
399.244	140.97
399.453	132.78
399.663	153.26
399.872	151.21
400.081	202.41
400.29	128.68
400.499	63.15
400.708	124.58
400.917	5.8
401.127	85.67
401.336	126.63
401.545	116.39
401.754	173.74
401.963	214.7
402.172	87.72
402.381	112.3
402.59	104.11
402.799	138.92
403.008	118.44
403.217	93.87
403.426	95.91
403.635	157.35
403.844	128.68
404.053	173.74
404.262	140.97
404.471	138.92
404.68	175.78
404.888	122.54
405.097	161.45
405.306	186.02
405.515	159.4
405.724	186.02
405.933	181.93
406.142	231.08
406.35	188.07
406.559	157.35
406.768	181.93
406.977	302.76
407.185	147.11
407.394	243.37
407.603	208.55
407.812	323.24
408.02	327.33
408.229	259.75
408.438	251.56
408.646	284.33
408.855	267.94
409.064	304.81
409.272	278.18
409.481	276.13
409.69	343.72
409.898	235.18
410.107	313
410.315	321.19
410.524	364.2
410.733	415.4
410.941	356.01
411.15	503.46
411.358	505.51
411.567	462.5
411.775	456.36
411.984	454.31
412.192	552.61
412.401	480.93
412.609	554.66
412.818	536.23
413.026	622.24
413.234	583.33
413.443	603.81
413.651	655.01
413.86	661.15
414.068	738.98
414.276	743.07
414.485	644.77
414.693	700.06
414.901	779.93
415.11	765.6
415.318	824.99
415.526	816.8
415.734	847.52
415.943	970.4
416.151	925.34
416.359	986.78
416.567	1011.36
416.776	956.06
416.984	1001.12
417.192	1115.8
417.4	1107.61
417.608	1128.09
417.817	1234.58
418.025	1250.97
418.233	1289.88
418.441	1306.26
418.649	1371.8
418.857	1498.77
419.065	1588.88
419.273	1398.42
419.481	1525.4
419.689	1765.01
419.897	1752.72
420.105	1697.42
420.313	1664.66
420.521	1918.61
420.729	1914.51
420.937	1840.78
421.145	1994.38
421.353	2055.82
421.561	2233.99
421.769	2262.66
421.977	2360.97
422.185	2324.1
422.393	2428.55
422.601	2631.3
422.809	2578.05
423.017	2729.6
423.224	2672.26
423.432	2760.32
423.64	2848.38
423.848	3090.04
424.056	2969.21
424.263	3161.72
424.471	3360.38
424.679	3393.14
424.887	3483.25
425.094	3583.6
425.302	3700.34
425.51	3772.02
425.718	3917.42
425.925	3827.31
426.133	4107.88
426.341	4150.89
426.548	4548.2
426.756	4456.04
426.964	4650.6
427.171	4671.08
427.379	4947.55
427.586	4982.37
427.794	5056.09
428.001	5236.31
428.209	5451.35
428.417	5336.67
428.624	5826.13
428.832	5783.12
429.039	5834.32
429.247	5981.78
429.454	6467.14
429.662	7013.95
429.869	6338.12
430.076	6694.47
430.284	6592.07
430.491	6956.61
430.699	7251.52
430.906	7157.31
431.114	7448.12
431.321	7685.69
431.528	7841.33
431.736	8308.27
431.943	8840.74
432.15	8322.6
432.358	8635.94
432.565	9082.4
432.772	8980
432.979	9463.32
433.187	9618.97
433.394	9745.94
433.601	10313.23
433.808	10216.97
434.016	10405.39
434.223	10618.38
434.43	11159.04
434.637	10982.92
434.844	11548.15
435.052	11902.45
435.259	11955.7
435.466	12021.24
435.673	11761.14
435.88	12613.1
436.087	13280.74
436.294	13293.02
436.501	12893.67
436.708	13256.16
436.915	13602.27
437.122	14226.9
437.329	14190.03
437.537	14665.16
437.743	14773.71
437.95	14607.82
438.157	15513.02
438.364	16274.87
438.571	15900.09
438.778	16102.84
438.985	17708.44
439.192	16827.82
439.399	17403.3
439.606	16917.93
439.813	18115.99
440.02	19113.35
440.227	18654.61
440.433	18652.56
440.64	19283.33
440.847	19090.82
441.054	19660.16
441.261	20678
441.467	20340.08
441.674	21003.63
441.881	21730.66
442.088	21804.38
442.294	21607.78
442.501	21493.09
442.708	22469.97
442.914	23121.23
443.121	24085.82
443.328	23516.48
443.534	25371.94
443.741	24593.72
443.948	24069.44
444.154	26002.72
444.361	25828.64
444.568	26193.18
444.774	25877.79
444.981	26096.92
445.187	27129.1
445.394	27962.62
445.6	27585.8
445.807	30434.52
446.013	28880.11
446.22	29531.37
446.426	30786.77
446.633	30971.09
446.839	32441.53
447.046	30541.02
447.252	32683.19
447.459	32500.92
447.665	32412.86
447.871	33795.24
448.078	34884.76
448.284	33522.86
448.491	34374.81
448.697	35372.17
448.903	36387.97
449.11	36633.72
449.316	35951.75
449.522	36760.7
449.728	37522.54
449.935	37772.39
450.141	37479.53
450.347	38382.69
450.553	37108.85
450.76	37850.22
450.966	39009.37
451.172	38855.77
451.378	39636.05
451.584	38708.32
451.791	40068.17
451.997	39504.98
452.203	40354.88
452.409	40561.73
452.615	40090.69
452.821	38548.57
453.027	38413.41
453.233	40031.3
453.44	38411.36
453.646	39048.28
453.852	38956.12
454.058	39990.34
454.264	38380.64
454.47	39572.56
454.676	38493.28
454.882	39765.07
455.088	36390.02
455.294	36865.14
455.5	37522.54
455.705	37872.74
455.911	36387.97
456.117	35325.07
456.323	35214.48
456.529	33549.48
456.735	34688.15
456.941	33897.64
457.147	33094.83
457.352	32322.75
457.558	31821
457.764	32326.85
457.97	31261.9
458.176	31270.09
458.381	30768.34
458.587	29224.17
458.793	29289.71
458.999	27960.58
459.204	29723.88
459.41	28857.59
459.616	26973.46
459.821	26801.43
460.027	26848.53
460.233	26590.48
460.438	25118
460.644	25171.24
460.85	24073.53
461.055	23604.55
461.261	23539.01
461.466	21691.74
461.672	20942.19
461.878	22707.54
462.083	21316.97
462.289	20733.29
462.494	20512.11
462.7	19934.59
462.905	18759.05
463.111	19588.48
463.316	19996.03
463.522	19416.45
463.727	19266.95
463.932	19185.03
464.138	19185.03
464.343	19092.87
464.549	18589.07
464.754	19056.01
464.959	19258.76
465.165	18806.16
465.37	18081.17
465.575	17493.41
465.781	18341.27
465.986	18455.95
466.191	17696.16
466.397	17315.23
466.602	16469.42
466.807	17337.76
467.012	17012.14
467.218	16905.64
467.423	16883.11
467.628	16676.27
467.833	17585.57
468.038	16807.34
468.244	16299.44
468.449	16858.54
468.654	16321.97
468.859	16139.7
469.064	16221.62
469.269	15488.45
469.474	15691.2
469.679	16045.49
469.885	15615.42
470.09	15844.79
470.295	15607.23
470.5	15175.11
470.705	15318.46
470.91	15132.1
471.115	14730.7
471.32	15054.28
471.525	14894.54
471.73	14624.2
471.935	14523.85
472.139	14044.63
472.344	14120.4
472.549	13800.92
472.754	13747.67
472.959	13714.91
473.164	13125.09
473.369	13215.2
473.574	13776.34
473.778	13403.61
473.983	13327.84
474.188	13223.39
474.393	12748.26
474.598	12830.18
474.802	12479.98
475.007	12471.79
475.212	12400.11
475.417	12092.91
475.621	12244.46
475.826	12002.8
476.031	11922.93
476.235	11642.36
476.44	11898.36
476.645	11529.72
476.849	11736.57
477.054	11484.67
477.259	11382.27
477.463	11337.21
477.668	11046.4
477.872	11052.55
478.077	11126.27
478.282	10868.23
478.486	10857.99
478.691	10577.42
478.895	10716.68
479.1	10528.27
479.304	10436.11
479.509	10268.17
479.713	10407.44
479.918	10100.24
480.122	9932.31
480.326	10290.7
480.531	10133.01
480.735	9922.07
480.94	10130.96
481.144	10274.32
481.348	9684.5
481.553	9971.22
481.757	9661.98
481.961	9721.37
482.166	10133.01
482.37	9733.65
482.574	9676.31
482.778	9692.69
482.983	9840.15
483.187	9610.78
483.391	9885.2
483.595	9426.46
483.8	9319.96
484.004	9666.07
484.208	9512.47
484.412	9471.51
484.616	9655.83
484.821	9715.22
485.025	9717.27
485.229	9664.02
485.433	9700.89
485.637	9539.1
485.841	9543.19
486.045	9420.31
486.249	9268.77
486.453	9858.58
486.657	9504.28
486.861	9700.89
487.065	9469.47
487.269	9698.84
487.473	9229.85
487.677	9643.54
487.881	9688.6
488.085	9401.88
488.289	9778.71
488.493	9541.15
488.697	9707.03
488.901	9594.39
489.105	9655.83
489.309	9635.35
489.512	9631.26
489.716	9514.52
489.92	9487.9
490.124	9653.78
490.328	9752.09
490.531	9539.1
490.735	9692.69
490.939	9635.35
491.143	9727.51
491.346	9850.39
491.55	9938.45
491.754	9739.8
491.958	9944.59
492.161	10006.03
492.365	9942.55
492.569	9864.72
492.772	10069.52
492.976	9999.89
493.18	10012.18
493.383	10094.1
493.587	10145.3
493.79	10190.35
493.994	10161.68
494.197	10278.41
494.401	10391.05
494.605	10378.76
494.808	10563.08
495.012	10393.1
495.215	10382.86
495.419	10647.05
495.622	10769.93
495.825	10665.48
496.029	10550.79
496.232	10919.43
496.436	10778.12
496.639	11298.3
496.843	10841.61
497.046	11400.7
497.249	11390.46
497.453	11431.42
497.656	11611.64
497.859	11503.1
498.063	11734.52
498.266	11845.11
498.469	11560.44
498.673	12015.09
498.876	12217.84
499.079	12154.35
499.282	12043.76
499.485	12490.22
499.689	12500.46
499.892	12799.46
500.095	12797.42
500.298	12862.95
500.501	13057.51
500.705	13340.13
500.908	13475.29
501.111	13299.17
501.314	13776.34
501.517	13671.9
501.72	13876.69
501.923	13577.69
502.126	13882.84
502.329	14255.57
502.532	14204.37
502.735	14296.53
502.938	14644.68
503.141	14722.51
503.344	15021.51
503.547	14935.49
503.75	15224.26
503.953	15293.89
504.156	15637.95
504.359	15699.39
504.562	15844.79
504.765	16219.57
504.968	15977.91
505.17	16102.84
505.373	16305.59
505.576	16940.46
505.779	16770.47
505.982	16938.41
506.185	17251.75
506.387	17278.37
506.59	17409.44
506.793	17550.75
506.996	17368.48
507.198	18034.07
507.401	18140.57
507.604	18324.88
507.807	18769.29
508.009	18550.16
508.212	18972.04
508.415	19101.06
508.617	19074.44
508.82	19264.9
509.022	19393.92
509.225	20036.98
509.428	20039.03
509.63	20112.76
509.833	20393.33
510.035	20426.1
510.238	20788.59
510.44	20813.17
510.643	21298.53
510.845	21276.01
511.048	20952.43
511.25	21626.21
511.453	21511.52
511.655	22259.03
511.858	22130.01
512.06	22394.2
512.262	22695.25
512.465	22707.54
512.667	22928.72
512.87	23323.97
513.072	23182.66
513.274	23811.39
513.477	23766.34
513.679	24220.99
513.881	24354.1
514.084	24651.06
514.286	24628.53
514.488	24872.24
514.69	25361.7
514.893	25470.25
515.095	25836.83
515.297	25994.53
515.499	25879.84
515.701	26473.75
515.904	26371.35
516.106	26694.93
516.308	26834.19
516.51	26979.6
516.712	27327.75
516.914	27153.68
517.116	27968.77
517.318	27833.6
517.52	28192
517.722	28290.3
517.925	28570.87
518.127	28833.01
518.329	28873.97
518.531	28914.93
518.733	29379.82
518.935	29525.22
519.136	30090.46
519.338	30012.64
519.54	29959.39
519.742	30352.6
519.944	30704.85
520.146	30909.65
520.348	31059.15
520.55	31048.91
520.752	31050.96
520.954	31943.88
521.155	31395.02
521.357	32363.71
521.559	31876.29
521.761	32711.86
521.963	32722.1
522.164	32879.8
522.366	32801.97
522.568	32521.4
522.77	33021.11
522.971	33432.75
523.173	33340.59
523.375	33375.41
523.576	33457.32
523.778	33440.94
523.98	33977.51
524.181	34043.04
524.383	33838.25
524.584	34329.76
524.786	34143.39
524.988	33930.4
525.189	34456.73
525.391	34792.6
525.592	34745.5
525.794	34686.11
525.995	34858.13
526.197	35015.83
526.398	34808.98
526.6	35067.03
526.801	35185.81
527.003	35077.27
527.204	35169.43
527.406	35548.3
527.607	35503.24
527.808	35634.31
528.01	35003.54
528.211	35331.22
528.412	35697.8
528.614	35386.51
528.815	35245.2
529.016	35548.3
529.218	34995.35
529.419	35636.36
529.62	35861.64
529.822	35093.65
530.023	35531.92
530.224	35513.48
530.425	35314.83
530.626	35540.11
530.828	35404.94
531.029	35810.44
531.23	35312.78
531.431	35226.77
531.632	35587.21
531.833	35370.13
532.035	35421.33
532.236	35323.02
532.437	35482.77
532.638	34890.9
532.839	35480.72
533.04	35284.11
533.241	34880.66
533.442	35454.09
533.643	35280.02
533.844	34978.96
534.045	35421.33
534.246	34690.2
534.447	34942.1
534.648	34692.25
534.849	35052.69
535.05	34747.54
535.251	34471.07
535.451	34536.6
535.652	34856.09
535.853	34393.25
536.054	34309.28
536.255	34600.09
536.456	34241.7
536.657	34645.15
536.857	34315.42
537.058	34520.22
537.259	34589.85
537.46	34147.49
537.66	33754.28
537.861	34139.3
538.062	34176.16
538.263	33924.26
538.463	33889.45
538.664	33995.94
538.865	34014.37
539.065	33979.56
539.266	33565.87
539.466	34167.97
539.667	33660.07
539.868	33889.45
540.068	33813.67
540.269	33426.6
540.469	33864.87
540.67	33596.59
540.87	33639.59
541.071	33598.63
541.271	34002.08
541.472	33375.41
541.672	33580.2
541.873	33289.39
542.073	33307.82
542.274	33592.49
542.474	33281.2
542.675	33275.05
542.875	33475.76
543.075	33076.4
543.276	32842.93
543.476	33307.82
543.676	33111.22
543.877	33545.39
544.077	33359.02
544.277	33260.72
544.478	33139.89
544.678	33297.58
544.878	33506.48
545.078	33209.52
545.279	33031.35
545.479	32996.53
545.679	33266.86
545.879	33250.48
546.079	33033.39
546.28	32894.13
546.48	32658.62
546.68	33049.78
546.88	33248.43
547.08	33105.07
547.28	33096.88
547.48	32697.53
547.68	33135.79
547.88	32607.42
548.081	33285.29
548.281	33299.63
548.481	32844.98
548.681	33529
548.881	33428.65
549.081	33326.25
549.28	33262.77
549.48	33289.39
549.68	33512.62
549.88	33846.44
550.08	32773.3
550.28	32945.33
550.48	33291.44
550.68	33506.48
550.88	33096.88
551.08	33084.59
551.279	33608.87
551.479	33055.92
551.679	33467.56
551.879	33567.91
552.079	33277.1
552.278	33320.11
552.478	33520.81
552.678	33279.15
552.878	33719.46
553.077	33332.4
553.277	33186.99
553.477	33828.01
553.676	33553.58
553.876	33545.39
554.076	33238.19
554.275	33668.26
554.475	33383.6
554.674	33844.39
554.874	33797.29
555.074	33543.34
555.273	33694.89
555.473	33653.93
555.672	33856.68
555.872	33580.2
556.071	33901.73
556.271	34176.16
556.47	33531.05
556.67	33356.97
556.869	33471.66
557.068	33793.19
557.268	33653.93
557.467	33805.48
557.667	33891.49
557.866	33725.61
558.065	34084
558.265	33615.02
558.464	33709.22
558.663	34122.91
558.863	33582.25
559.062	34413.73
559.261	33785
559.461	33924.26
559.66	33766.57
559.859	33574.06
560.058	33864.87
560.258	34165.92
560.457	33696.94
560.656	34127.01
560.855	33752.23
561.054	34120.87
561.253	33565.87
561.453	33750.18
561.652	33840.29
561.851	34321.57
562.05	34043.04
562.249	33776.81
562.448	34151.59
562.647	33850.53
562.846	34104.48
563.045	33911.97
563.244	33639.59
563.443	34110.63
563.642	33453.23
563.841	33887.4
564.04	33741.99
564.239	34092.19
564.438	33555.63
564.637	33225.9
564.836	33701.03
565.035	33389.74
565.234	33524.91
565.432	33537.19
565.631	33182.9
565.83	33721.51
566.029	32988.34
566.228	33330.35
566.427	33309.87
566.625	32902.32
566.824	33064.11
567.023	33543.34
567.222	33025.2
567.42	32783.54
567.619	32838.84
567.818	32914.61
568.016	32576.7
568.215	33434.8
568.414	32523.45
568.612	33180.85
568.811	32560.31
569.01	32726.2
569.208	32402.62
569.407	32652.47
569.605	32206.02
569.804	32613.56
570.002	32457.92
570.201	32167.1
570.4	31640.78
570.598	31792.33
570.797	31823.05
570.995	32113.86
571.193	31507.66
571.392	32029.89
571.59	31726.79
571.789	31657.16
571.987	31921.35
572.186	31401.16
572.384	31352.01
572.582	31657.16
572.781	31702.21
572.979	31306.96
573.177	31261.9
573.376	31069.39
573.574	30901.46
573.772	30891.22
573.971	31053.01
574.169	30498.01
574.367	30651.61
574.565	30790.87
574.763	30438.62
574.962	30418.14
575.16	29977.83
575.358	30383.32
575.556	30221.53
575.754	30256.35
575.952	29555.94
576.151	30178.53
576.349	29508.84
576.547	29666.53
576.745	29912.29
576.943	30018.78
577.141	29699.3
577.339	29498.6
577.537	29371.63
577.735	29543.66
577.933	28841.2
578.131	29240.56
578.329	29127.92
578.527	28771.57
578.725	28810.48
578.923	28837.11
579.121	28900.59
579.319	28464.38
579.516	28863.73
579.714	28466.42
579.912	28261.63
580.11	28427.51
580.308	28413.18
580.506	28175.61
580.704	27712.77
580.901	28306.68
581.099	28130.56
581.297	27706.63
581.495	27536.65
581.692	27673.86
581.89	27481.35
582.088	27856.13
582.285	27204.88
582.483	27813.12
582.681	27415.82
582.878	27192.59
583.076	27100.43
583.274	27366.67
583.471	26918.16
583.669	27026.7
583.866	26879.25
584.064	27245.83
584.262	26475.8
584.459	26604.82
584.657	26701.08
584.854	26600.72
585.052	26498.33
585.249	26598.68
585.447	26488.09
585.644	26103.07
585.841	26383.64
586.039	26301.72
586.236	26015.01
586.434	25902.37
586.631	26064.16
586.828	25984.29
587.026	26152.22
587.223	25691.43
587.42	25857.31
587.618	26144.03
587.815	25324.84
588.012	25484.58
588.21	25480.49
588.407	25603.36
588.604	25599.27
588.801	25158.95
588.999	25443.62
589.196	25232.68
589.393	25290.02
589.59	25183.53
589.787	25105.71
589.984	24892.72
590.182	25232.68
590.379	25048.36
590.576	24939.82
590.773	24964.4
590.97	24818.99
591.167	25013.55
591.364	24560.95
591.561	24968.49
591.758	24335.67
591.955	24448.31
592.152	24859.95
592.349	24778.03
592.546	24192.31
592.743	24433.97
592.94	24309.05
593.137	24423.73
593.334	24661.3
593.531	24233.27
593.727	24646.96
593.924	24556.85
594.121	24180.03
594.318	24141.11
594.515	23870.78
594.712	24274.23
594.908	23921.98
595.105	24253.75
595.302	23997.76
595.499	24188.22
595.696	24206.65
595.892	24032.57
596.089	24386.87
596.286	24104.25
596.482	24012.09
596.679	23958.85
596.876	24122.68
597.072	23868.73
597.269	24098.11
597.466	23774.53
597.662	23829.82
597.859	23850.3
598.055	24089.92
598.252	23878.97
598.448	23579.97
598.645	23792.96
598.841	23797.06
599.038	23846.21
599.234	24040.76
599.431	23645.51
599.627	24161.59
599.824	24024.38
600.02	24085.82
600.217	23680.32
600.413	23727.42
600.609	24042.81
600.806	24003.9
601.002	24044.86
601.198	24005.95
601.395	23825.73
601.591	23598.4
601.787	23878.97
601.984	23940.41
602.18	24321.34
602.376	23917.89
602.572	23913.79
602.769	23956.8
602.965	23883.07
603.161	23807.3
603.357	23989.56
603.553	23823.68
603.75	24177.98
603.946	23747.9
604.142	24223.03
604.338	23569.73
604.534	24122.68
604.73	23919.93
604.926	24038.72
605.122	24184.12
605.318	23805.25
605.514	24243.51
605.71	24145.21
605.906	24266.04
606.102	24358.2
606.298	24139.07
606.494	24169.79
606.69	24288.57
606.886	24433.97
607.082	24026.43
607.278	24583.48
607.474	23874.88
607.67	24356.15
607.866	24190.27
608.062	24616.24
608.257	23962.94
608.453	24323.38
608.649	24519.99
608.845	24569.14
609.041	24370.49
609.236	24622.39
609.432	24352.06
609.628	25015.6
609.824	24728.88
610.019	24538.42
610.215	24718.64
610.411	24859.95
610.606	24849.71
610.802	24823.09
610.998	24599.86
611.193	24847.66
611.389	24917.29
611.584	24935.73
611.78	24771.89
611.976	25224.49
612.171	24831.28
612.367	25107.76
612.562	24839.47
612.758	24624.43
612.953	24718.64
613.149	25115.95
613.344	24864.05
613.539	25455.91
613.735	25064.75
613.93	25396.52
614.126	25038.12
614.321	25437.48
614.517	25296.17
614.712	25345.32
614.907	24890.67
615.103	25312.55
615.298	25308.46
615.493	25345.32
615.688	24864.05
615.884	25462.05
616.079	25322.79
616.274	25279.78
616.47	25148.71
616.665	25171.24
616.86	25189.67
617.055	25199.91
617.25	24786.22
617.445	24991.02
617.641	24778.03
617.836	25101.61
618.031	24784.18
618.226	25062.7
618.421	24976.69
618.616	25210.15
618.811	24960.3
619.006	25347.37
619.201	24370.49
619.396	24913.2
619.591	24538.42
619.786	24831.28
619.981	24149.31
620.176	24474.93
620.371	24462.65
620.566	24499.51
620.761	24184.12
620.956	24614.2
621.151	23889.21
621.346	24610.1
621.541	24163.64
621.735	24261.94
621.93	23565.64
622.125	23762.24
622.32	23659.84
622.515	23553.35
622.709	23233.86
622.904	23545.16
623.099	23399.75
623.294	23450.95
623.488	23113.03
623.683	23102.79
623.878	22805.84
624.072	22877.52
624.267	23047.5
624.462	22685.01
624.656	22310.23
624.851	22756.69
625.046	22277.46
625.24	22445.4
625.435	22168.92
625.629	21921.12
625.824	22013.27
626.018	21857.63
626.213	21628.26
626.407	21785.95
626.602	21417.32
626.796	21757.28
626.991	21325.16
627.185	21421.41
627.38	21419.36
627.574	21316.97
627.768	21081.45
627.963	21020.01
628.157	20899.18
628.352	20858.22
628.546	20710.77
628.74	20723.05
628.935	20344.18
629.129	20391.28
629.323	20161.91
629.517	20239.73
629.712	20305.27
629.906	20186.49
630.1	19719.55
630.294	19907.96
630.489	19787.13
630.683	19668.35
630.877	19383.68
631.071	19373.44
631.265	19340.68
631.459	19213.7
631.653	19201.41
631.848	19176.84
632.042	19006.86
632.236	19131.78
632.43	18642.32
632.624	18714
632.818	18449.81
633.012	18580.88
633.206	18292.12
633.4	18316.69
633.594	18312.6
633.788	18017.69
633.982	18367.89
634.176	18419.09
634.369	18021.78
634.563	17896.86
634.757	17632.67
634.951	17941.91
635.145	17464.74
635.339	17382.82
635.533	17507.74
635.726	17175.97
635.92	17171.88
636.114	17163.68
636.308	17245.6
636.501	17153.44
636.695	17073.57
636.889	17030.57
637.083	16885.16
637.276	16641.45
637.47	16440.75
637.664	16532.91
637.857	16762.28
638.051	16485.81
638.244	16184.76
638.438	16287.15
638.632	15979.96
638.825	16049.59
639.019	15816.12
639.212	15707.58
639.406	15599.04
639.599	15502.78
639.793	15529.41
639.986	15496.64
640.18	15480.25
640.373	15189.44
640.567	15306.18
640.76	15087.04
640.954	14730.7
641.147	14777.8
641.34	14859.72
641.534	14699.98
641.727	14656.97
641.92	14579.15
642.114	14437.84
642.307	14366.16
642.5	14271.95
642.694	13854.17
642.887	14206.42
643.08	14241.23
643.273	14075.35
643.467	14038.48
643.66	13886.93
643.853	13581.79
644.046	13536.73
644.239	13628.89
644.432	13585.88
644.626	13315.55
644.819	13270.5
645.012	13329.89
645.205	12951.01
645.398	13178.34
645.591	12924.39
645.784	13069.8
645.977	12609
646.17	12766.7
646.363	12731.88
646.556	12457.45
646.749	12674.54
646.942	12582.38
647.135	12684.78
647.328	12377.58
647.521	12133.87
647.714	11929.08
647.907	12080.63
648.099	12092.91
648.292	12158.45
648.485	12105.2
648.678	11931.12
648.871	11761.14
649.064	11716.09
649.256	11750.9
649.449	11490.81
649.642	11634.17
649.835	11326.97
650.027	11412.99
650.22	11494.91
650.413	11314.69
650.605	11109.89
650.798	10960.39
650.991	11011.59
651.183	11095.55
651.376	10946.05
651.568	10970.63
651.761	10823.17
651.954	10741.25
652.146	10847.75
652.339	10849.8
652.531	10751.49
652.724	10685.96
652.916	10329.61
653.109	10458.64
653.301	10376.72
653.494	10438.16
653.686	10259.98
653.879	10495.5
654.071	9991.7
654.263	10130.96
654.456	10126.86
654.648	10169.87
654.84	9766.42
655.033	9905.68
655.225	10012.18
655.417	9688.6
655.61	9881.11
655.802	9805.33
655.994	9715.22
656.186	9770.52
656.379	9629.21
656.571	9455.13
656.763	9473.56
656.955	9287.2
657.148	9260.57
657.34	9362.97
657.532	9238.05
657.724	8975.91
657.916	8977.95
658.108	9219.61
658.3	8965.67
658.492	9039.39
658.684	8988.19
658.876	8953.38
659.068	8785.44
659.26	8857.12
659.452	8769.06
659.644	8875.56
659.836	8654.37
660.028	8810.02
660.22	8461.87
660.412	8496.68
660.604	8343.08
660.796	8375.85
660.988	8390.19
661.18	8291.88
661.372	8154.67
661.563	8216.11
661.755	8082.99
661.947	8132.14
662.139	7939.63
662.331	7935.54
662.522	7849.52
662.714	7980.59
662.906	7820.85
663.097	7775.8
663.289	7915.06
663.481	7599.67
663.673	7747.12
663.864	7777.84
664.056	7444.03
664.247	7587.38
664.439	7472.7
664.631	7487.03
664.822	7431.74
665.014	7450.17
665.205	7337.53
665.397	7294.52
665.588	7272
665.78	7192.12
665.971	7120.45
666.163	7120.45
666.354	7198.27
666.546	7149.12
666.737	7001.66
666.929	7112.25
667.12	6915.65
667.311	7161.41
667.503	6827.59
667.694	7024.19
667.885	6796.87
668.077	6964.8
668.268	6784.58
668.459	6833.73
668.651	6563.4
668.842	6596.17
669.033	6549.06
669.224	6737.48
669.416	6671.94
669.607	6547.01
669.798	6563.4
669.989	6565.45
670.18	6522.44
670.371	6385.23
670.563	6309.45
670.754	6438.47
670.945	6358.6
671.136	6293.07
671.327	6323.79
671.518	6342.22
671.709	6305.35
671.9	6153.8
672.091	6205
672.282	6301.26
672.473	6252.11
672.664	6151.76
672.855	6071.89
673.046	6145.61
673.237	6139.47
673.428	6041.17
673.619	6030.93
673.809	5930.58
674	6073.93
674.191	5916.24
674.382	5860.95
674.573	5754.45
674.764	5711.44
674.954	5951.06
675.145	5817.94
675.336	5793.36
675.527	5776.98
675.717	5840.47
675.908	5860.95
676.099	5711.44
676.289	5658.2
676.48	5883.47
676.671	5654.1
676.861	5817.94
677.052	5631.57
677.243	5609.05
677.433	5594.71
677.624	5727.83
677.814	5445.21
678.005	5686.87
678.195	5750.35
678.386	5520.98
678.576	5547.61
678.767	5449.3
678.957	5535.32
679.148	5572.18
679.338	5443.16
679.529	5439.06
679.719	5432.92
679.909	5432.92
680.1	5443.16
680.29	5465.69
680.481	5430.87
680.671	5330.52
680.861	5506.65
681.052	5492.31
681.242	5351
681.432	5402.2
681.622	5434.97
681.813	5369.43
682.003	5312.09
682.193	5148.25
682.383	5301.85
682.573	5346.91
682.764	5213.79
682.954	5361.24
683.144	5193.31
683.334	5303.9
683.524	5346.91
683.714	5244.51
683.904	5170.78
684.094	5289.56
684.284	5326.43
684.474	5299.8
684.664	5156.44
684.854	5187.16
685.044	5076.57
685.234	5072.48
685.424	5162.59
685.614	5187.16
685.804	5230.17
685.994	5203.55
686.184	5187.16
686.374	5121.63
686.564	5000.8
686.753	5008.99
686.943	5062.24
687.133	4916.83
687.323	5131.87
687.513	5183.07
687.702	5004.89
687.892	5031.52
688.082	4933.22
688.272	4992.61
688.461	4736.61
688.651	5039.71
688.841	4787.81
689.03	4908.64
689.22	4974.17
689.41	4879.97
689.599	4789.86
689.789	4912.74
689.979	4836.96
690.168	4826.72
690.358	4685.41
690.547	4695.65
690.737	4781.67
690.926	4759.14
691.116	4558.44
691.305	4900.45
691.495	4634.21
691.684	4714.08
691.874	4730.47
692.063	4642.4
692.252	4654.69
692.442	4736.61
692.631	4474.47
692.82	4601.44
693.01	4451.94
693.199	4556.39
693.388	4517.48
693.578	4468.33
693.767	4540.01
693.956	4621.92
694.146	4451.94
694.335	4503.14
694.524	4388.46
694.713	4499.05
694.902	4470.37
695.092	4503.14
695.281	4372.07
695.47	4259.43
695.659	4363.88
695.848	4359.78
696.037	4296.3
696.226	4417.13
696.415	4376.17
696.604	4236.91
696.793	4308.58
696.982	4290.15
697.171	4255.34
697.36	4343.4
697.549	4230.76
697.738	4179.56
697.927	4183.66
698.116	4206.19
698.305	4343.4
698.494	4273.77
698.683	4171.37
698.872	4191.85
699.061	4257.39
699.25	4122.22
699.438	4218.47
699.627	4187.75
699.816	4220.52
700.005	4241
700.193	4097.64
700.382	4122.22
700.571	4200.04
700.76	4109.93
700.948	4095.6
701.137	4103.79
701.326	4124.27
701.514	4195.95
701.703	4060.78
701.892	4089.45
702.08	4273.77
702.269	4075.12
702.457	3823.22
702.646	4044.4
702.834	3909.23
703.023	3921.52
703.212	3917.42
703.4	3989.1
703.589	3937.9
703.777	4001.39
703.965	3872.37
704.154	3858.03
704.342	3931.76
704.531	3921.52
704.719	3769.97
704.907	3812.98
705.096	3778.16
705.284	3909.23
705.472	3745.39
705.661	3769.97
705.849	3815.02
706.037	3759.73
706.226	3739.25
706.414	3804.78
706.602	3790.45
706.79	3702.39
706.979	3681.91
707.167	3786.35
707.355	3706.48
707.543	3700.34
707.731	3683.95
707.919	3528.31
708.107	3647.09
708.296	3628.66
708.484	3509.88
708.672	3686
708.86	3544.69
709.048	3591.8
709.236	3561.08
709.424	3647.09
709.612	3483.25
709.8	3542.64
709.988	3522.16
710.176	3452.53
710.364	3581.56
710.551	3663.47
710.739	3589.75
710.927	3509.88
711.115	3526.26
711.303	3403.38
711.491	3436.15
711.679	3481.21
711.866	3442.29
712.054	3403.38
712.242	3262.07
712.43	3464.82
712.617	3399.29
712.805	3298.94
712.993	3427.96
713.181	3282.55
713.368	3380.86
713.556	3444.34
713.744	3307.13
713.931	3368.57
714.119	3364.47
714.306	3290.74
714.494	3272.31
714.682	3346.04
714.869	3186.3
715.057	3159.67
715.244	3131
715.432	3204.73
715.619	3223.16
715.807	3374.71
715.994	3305.08
716.182	3188.35
716.369	3174.01
716.556	3307.13
716.744	3190.39
716.931	3122.81
717.119	3157.63
717.306	3176.06
717.493	3096.19
717.681	3217.02
717.868	2983.55
718.055	3243.64
718.242	3026.56
718.43	3034.75
718.617	3065.47
718.804	3083.9
718.991	3139.19
719.179	3085.95
719.366	3014.27
719.553	3006.08
719.74	3118.72
719.927	2969.21
720.114	2983.55
720.301	3001.98
720.488	2926.21
720.676	2926.21
720.863	2846.34
721.05	2954.88
721.237	3014.27
721.424	3032.7
721.611	2950.78
721.798	2952.83
721.985	2901.63
722.172	2875.01
722.358	2934.4
722.545	2940.54
722.732	2770.56
722.919	2881.15
723.106	2786.94
723.293	2844.29
723.48	2811.52
723.667	2774.66
723.853	2741.89
724.04	2786.94
724.227	2823.81
724.414	2731.65
724.6	2811.52
724.787	2745.98
724.974	2762.37
725.161	2766.46
725.347	2748.03
725.534	2803.33
725.72	2750.08
725.907	2748.03
726.094	2786.94
726.28	2655.87
726.467	2672.26
726.653	2664.07
726.84	2797.18
727.027	2723.46
727.213	2657.92
727.4	2664.07
727.586	2688.64
727.773	2635.39
727.959	2582.15
728.145	2578.05
728.332	2721.41
728.518	2610.82
728.705	2592.39
728.891	2614.91
729.077	2664.07
729.264	2623.11
729.45	2549.38
729.636	2739.84
729.823	2662.02
730.009	2700.93
730.195	2541.19
730.382	2537.09
730.568	2528.9
730.754	2647.68
730.94	2684.55
731.126	2543.24
731.313	2537.09
731.499	2526.85
731.685	2524.8
731.871	2614.91
732.057	2541.19
732.243	2410.12
732.429	2467.46
732.615	2651.78
732.801	2494.08
732.987	2469.51
733.173	2483.84
733.359	2504.32
733.545	2496.13
733.731	2502.28
733.917	2422.41
734.103	2401.93
734.289	2395.78
734.475	2403.97
734.661	2461.32
734.847	2399.88
735.033	2416.26
735.219	2365.06
735.404	2428.55
735.59	2250.38
735.776	2360.97
735.962	2401.93
736.148	2377.35
736.333	2393.73
736.519	2297.48
736.705	2410.12
736.89	2320.01
737.076	2320.01
737.262	2211.46
737.447	2344.58
737.633	2295.43
737.819	2369.16
738.004	2223.75
738.19	2281.1
738.375	2213.51
738.561	2283.14
738.747	2176.65
738.932	2178.7
739.118	2354.82
739.303	2156.17
739.489	2129.55
739.674	2184.84
739.859	2147.98
740.045	2104.97
740.23	2217.61
740.416	2133.64
740.601	2135.69
740.786	2133.64
740.972	2090.63
741.157	2293.38
741.342	2068.11
741.528	2160.27
741.713	2098.83
741.898	2145.93
742.084	2133.64
742.269	2109.07
742.454	2049.68
742.639	2043.53
742.824	2047.63
743.01	2125.45
743.195	1943.18
743.38	1951.37
743.565	1926.8
743.75	2041.48
743.935	2021
744.12	1871.5
744.305	1975.95
744.49	1969.8
744.675	1883.79
744.86	1959.56
745.045	1951.37
745.23	1971.85
745.415	2000.52
745.6	1906.32
745.785	1883.79
745.97	1869.45
746.155	1808.02
746.34	1844.88
746.525	1920.65
746.71	1879.69
746.895	1681.04
747.079	1840.78
747.264	1732.24
747.449	1898.13
747.634	1846.93
747.819	1869.45
748.003	1738.38
748.188	1722
748.373	1822.35
748.557	1713.81
748.742	1758.86
748.927	1656.47
749.111	1627.79
749.296	1707.66
749.481	1730.19
749.665	1699.47
749.85	1648.27
750.034	1656.47
750.219	1818.25
750.404	1625.75
750.588	1603.22
750.773	1549.97
750.957	1525.4
751.141	1562.26
751.326	1672.85
751.51	1578.64
751.695	1511.06
751.879	1597.07
752.064	1611.41
752.248	1549.97
752.432	1533.59
752.617	1492.63
752.801	1611.41
752.985	1494.68
753.17	1468.05
753.354	1556.11
753.538	1472.15
753.722	1365.65
753.907	1390.23
754.091	1445.52
754.275	1410.71
754.459	1324.69
754.643	1273.5
754.828	1429.14
755.012	1382.04
755.196	1363.61
755.38	1320.6
755.564	1386.13
755.748	1314.45
755.932	1240.73
756.116	1324.69
756.3	1298.07
756.484	1259.16
756.668	1248.92
756.852	1210.01
757.036	1216.15
757.22	1267.35
757.404	1316.5
757.588	1177.24
757.772	1322.65
757.956	1240.73
758.14	1205.91
758.323	1238.68
758.507	1148.57
758.691	1207.96
758.875	1238.68
759.059	1154.71
759.242	1140.38
759.426	1134.23
759.61	1076.89
759.794	1117.85
759.977	1175.19
760.161	1296.02
760.345	1150.62
760.528	1136.28
760.712	1132.19
760.895	1058.46
761.079	1115.8
761.263	1076.89
761.446	1148.57
761.63	1150.62
761.813	1027.74
761.997	1060.51
762.18	1085.08
762.364	1050.27
762.547	994.97
762.731	1132.19
762.914	1076.89
763.098	988.83
763.281	1025.69
763.464	956.06
763.648	1101.47
763.831	1058.46
764.015	1029.79
764.198	1025.69
764.381	1021.6
764.564	935.58
764.748	1003.16
764.931	1076.89
765.114	970.4
765.297	1017.5
765.481	976.54
765.664	1011.36
765.847	1003.16
766.03	1029.79
766.213	945.82
766.397	947.87
766.58	978.59
766.763	929.44
766.946	886.43
767.129	861.85
767.312	870.05
767.495	919.2
767.678	896.67
767.861	894.62
768.044	951.96
768.227	911
768.41	853.66
768.593	882.33
768.776	874.14
768.959	824.99
769.142	992.92
769.324	853.66
769.507	827.04
769.69	939.68
769.873	892.57
770.056	947.87
770.239	890.53
770.421	882.33
770.604	812.7
770.787	784.03
770.97	814.75
771.152	812.7
771.335	935.58
771.518	863.9
771.7	861.85
771.883	853.66
772.066	820.89
772.248	796.32
772.431	859.81
772.613	792.22
772.796	810.65
772.978	810.65
773.161	812.7
773.343	763.55
773.526	833.18
773.708	749.22
773.891	738.98
774.073	808.61
774.256	706.21
774.438	847.52
774.621	784.03
774.803	808.61
774.985	771.74
775.168	771.74
775.35	755.36
775.532	781.98
775.715	702.11
775.897	747.17
776.079	759.46
776.261	741.02
776.444	704.16
776.626	698.02
776.808	628.39
776.99	540.32
777.173	700.06
777.355	700.06
777.537	706.21
777.719	804.51
777.901	616.1
778.083	695.97
778.265	669.34
778.447	673.44
778.629	585.38
778.811	616.1
778.993	630.43
779.175	618.15
779.357	566.95
779.539	579.23
779.721	683.68
779.903	640.67
780.085	597.67
780.267	624.29
780.449	568.99
780.631	618.15
780.812	644.77
780.994	583.33
781.176	616.1
781.358	513.7
781.54	523.94
781.721	583.33
781.903	607.91
782.085	587.43
782.267	620.19
782.448	525.99
782.63	521.89
782.812	564.9
782.993	489.12
783.175	540.32
783.357	525.99
783.538	525.99
783.72	452.26
783.901	534.18
784.083	482.98
784.264	542.37
784.446	464.55
784.627	519.84
784.809	550.56
784.99	493.22
785.172	452.26
785.353	507.55
785.535	583.33
785.716	487.08
785.897	374.44
786.079	368.29
786.26	435.88
786.441	452.26
786.623	427.68
786.804	339.62
786.985	452.26
787.167	466.6
787.348	472.74
787.529	423.59
787.71	366.25
787.891	456.36
788.073	388.77
788.254	394.92
788.435	501.41
788.616	394.92
788.797	388.77
788.978	450.21
789.159	257.7
789.34	435.88
789.522	425.64
789.703	329.38
789.884	364.2
790.065	321.19
790.246	394.92
790.427	472.74
790.607	390.82
790.788	421.54
790.969	366.25
791.15	419.49
791.331	333.48
791.512	380.58
791.693	347.81
791.874	380.58
792.054	454.31
792.235	300.71
792.416	298.66
792.597	394.92
792.778	349.86
792.958	319.14
793.139	353.96
793.32	335.53
793.5	315.05
793.681	323.24
793.862	317.09
794.042	403.11
794.223	239.27
794.404	337.57
794.584	290.47
794.765	247.46
794.945	333.48
795.126	315.05
795.306	390.82
795.487	308.9
795.667	333.48
795.848	329.38
796.028	368.29
796.209	300.71
796.389	380.58
796.57	349.86
796.75	267.94
796.93	249.51
797.111	181.93
797.291	239.27
797.471	353.96
797.652	294.57
797.832	280.23
798.012	263.85
798.192	272.04
798.373	296.61
798.553	255.65
798.733	321.19
798.913	198.31
799.093	224.94
799.274	296.61
799.454	288.42
799.634	247.46
799.814	265.89
799.994	245.41
800.174	257.7
800.354	229.03
800.534	175.78
800.714	288.42
800.894	222.89
801.074	192.17
801.254	202.41
801.434	202.41
801.614	280.23
801.794	292.52
801.974	960.16
802.154	208.55
802.334	216.74
802.514	222.89
802.693	310.95
802.873	136.87
803.053	214.7
803.233	261.8
803.413	259.75
803.592	173.74
803.772	247.46
803.952	120.49
804.131	206.5
804.311	194.22
804.491	222.89
804.67	233.13
804.85	214.7
805.03	222.89
805.209	259.75
805.389	214.7
805.568	159.4
805.748	286.37
805.928	261.8
806.107	231.08
806.287	235.18
806.466	290.47
806.646	212.65
806.825	151.21
807.004	116.39
807.184	143.02
807.363	212.65
807.543	132.78
807.722	177.83
807.901	210.6
808.081	257.7
808.26	151.21
808.439	140.97
808.619	110.25
808.798	169.64
808.977	192.17
809.156	259.75
809.336	173.74
809.515	231.08
809.694	239.27
809.873	138.92
810.052	239.27
810.231	214.7
810.411	226.98
810.59	190.12
810.769	118.44
810.948	202.41
811.127	108.2
811.306	165.54
811.485	165.54
811.664	247.46
811.843	145.06
812.022	87.72
812.201	136.87
812.38	169.64
812.559	26.28
812.737	249.51
812.916	173.74
813.095	159.4
813.274	89.77
813.453	186.02
813.632	147.11
813.811	149.16
813.989	87.72
814.168	181.93
814.347	140.97
814.526	151.21
814.704	210.6
814.883	140.97
815.062	149.16
815.24	224.94
815.419	108.2
815.598	140.97
815.776	42.67
815.955	173.74
816.133	165.54
816.312	140.97
816.49	87.72
816.669	122.54
816.847	151.21
817.026	97.96
817.204	153.26
817.383	108.2
817.561	106.15
817.74	59.05
817.918	212.65
818.097	122.54
818.275	81.58
818.453	190.12
818.632	186.02
818.81	173.74
818.988	116.39
819.167	112.3
819.345	124.58
819.523	57
819.701	138.92
819.879	149.16
820.058	89.77
820.236	102.06
820.414	61.1
820.592	108.2
820.77	97.96
820.948	128.68
821.127	110.25
821.305	67.24
821.483	124.58
821.661	77.48
821.839	108.2
822.017	181.93
822.195	71.34
822.373	112.3
822.551	85.67
822.729	93.87
822.907	44.71
823.085	108.2
823.262	81.58
823.44	132.78
823.618	138.92
823.796	206.5
823.974	69.29
824.152	118.44
824.329	36.52
824.507	132.78
824.685	116.39
824.863	95.91
825.04	136.87
825.218	149.16
825.396	188.07
825.574	116.39
825.751	108.2
825.929	163.5
826.107	48.81
826.284	136.87
826.462	85.67
826.639	63.15
826.817	16.04
826.994	100.01
827.172	-10.58
827.349	118.44
827.527	104.11
827.704	116.39
827.882	67.24
828.059	83.63
828.237	118.44
828.414	155.3
828.591	13.99
828.769	59.05
828.946	-4.44
829.124	132.78
829.301	100.01
829.478	169.64
829.655	95.91
829.833	59.05
830.01	50.86
830.187	143.02
830.364	108.2
830.542	71.34
830.719	57
830.896	145.06
831.073	91.82
831.25	83.63
831.427	140.97
831.604	61.1
831.782	46.76
831.959	89.77
832.136	18.09
832.313	163.5
832.49	97.96
832.667	126.63
832.844	83.63
833.021	126.63
833.198	40.62
833.374	44.71
833.551	44.71
833.728	5.8
833.905	130.73
834.082	50.86
834.259	100.01
834.436	28.33
834.612	42.67
834.789	157.35
834.966	104.11
835.143	67.24
835.319	89.77
835.496	136.87
835.673	-0.34
835.85	151.21
836.026	52.91
836.203	91.82
836.38	-0.34
836.556	100.01
836.733	104.11
836.909	155.3
837.086	1.71
837.262	-35.16
837.439	28.33
837.616	116.39
837.792	18.09
837.968	83.63
838.145	77.48
838.321	-2.39
838.498	22.19
838.674	97.96
838.851	85.67
839.027	26.28
839.203	-16.73
839.38	79.53
839.556	26.28
839.732	44.71
839.909	30.38
840.085	59.05
840.261	-2.39
840.437	50.86
840.614	118.44
840.79	91.82
840.966	95.91
841.142	124.58
841.318	52.91
841.494	81.58
841.671	32.43
841.847	46.76
842.023	38.57
842.199	93.87
842.375	77.48
842.551	83.63
842.727	5.8
842.903	59.05
843.079	18.09
843.255	61.1
843.431	1.71
843.607	83.63
843.783	-41.3
843.959	50.86
844.134	28.33
844.31	61.1
844.486	24.23
844.662	50.86
844.838	-10.58
845.013	149.16
845.189	149.16
845.365	54.95
845.541	93.87
845.716	36.52
845.892	5.8
846.068	77.48
846.244	79.53
846.419	91.82
846.595	69.29
846.77	85.67
846.946	36.52
847.122	69.29
847.297	18.09
847.473	36.52
847.648	28.33
847.824	11.95
847.999	-10.58
848.175	61.1
848.35	61.1
848.526	52.91
848.701	18.09
848.876	40.62
849.052	67.24
849.227	-26.96
849.403	75.43
849.578	22.19
849.753	7.85
849.929	46.76
850.104	-22.87
850.279	42.67
850.454	9.9
850.63	54.95
850.805	20.14
850.98	16.04
851.155	34.47
851.33	30.38
851.505	-86.36
851.681	114.34
851.856	-0.34
852.031	20.14
852.206	36.52
852.381	-31.06
852.556	79.53
852.731	95.91
852.906	-24.92
853.081	-4.44
853.256	63.15
853.431	85.67
853.606	-39.25
853.781	28.33
853.956	44.71
854.131	38.57
854.305	30.38
854.48	46.76
854.655	28.33
854.83	20.14
855.005	13.99
855.18	57
855.354	-12.63
855.529	93.87
855.704	-16.73
855.879	93.87
856.053	-45.4
856.228	38.57
856.403	9.9
856.577	77.48
856.752	-20.82
856.926	16.04
857.101	91.82
857.276	-41.3
857.45	-22.87
857.625	42.67
857.799	3.75
857.974	134.82
858.148	-59.73
858.323	67.24
858.497	85.67
858.672	5.8
858.846	9.9
859.02	18.09
859.195	-20.82
859.369	16.04
859.543	46.76
859.718	75.43
859.892	61.1
860.066	18.09
860.241	61.1
860.415	132.78
860.589	-22.87
860.763	3.75
860.938	22.19
861.112	18.09
861.286	59.05
861.46	-39.25
861.634	77.48
861.808	30.38
861.982	18.09
862.157	-12.63
862.331	-59.73
862.505	9.9
862.679	-2.39
862.853	22.19
863.027	20.14
863.201	30.38
863.375	36.52
863.549	75.43
863.722	42.67
863.896	116.39
864.07	-53.59
864.244	-10.58
864.418	5.8
864.592	-65.88
864.766	-8.53
864.939	61.1
865.113	57
865.287	42.67
865.461	1.71
865.634	26.28
865.808	85.67
865.982	-14.68
866.156	-63.83
866.329	-37.2
866.503	67.24
866.676	9.9
866.85	38.57
867.024	34.47
867.197	26.28
867.371	32.43
867.544	-31.06
867.718	-2.39
867.891	13.99
868.065	9.9
868.238	52.91
868.412	93.87
868.585	11.95
868.759	112.3
868.932	44.71
869.105	1.71
869.279	36.52
869.452	-29.01
869.625	34.47
869.799	-45.4
869.972	13.99
870.145	40.62
870.319	26.28
870.492	18.09
870.665	-4.44
870.838	24.23
871.011	-90.45
871.185	34.47
871.358	-20.82
871.531	44.71
871.704	52.91
871.877	30.38
872.05	38.57
872.223	30.38
872.396	110.25
872.569	54.95
872.742	-14.68
872.915	50.86
873.088	34.47
873.261	-10.58
873.434	7.85
873.607	50.86
873.78	-2.39
873.953	11.95
874.126	61.1
874.299	52.91
874.471	54.95
874.644	-43.35
874.817	1.71
874.99	134.82
875.163	61.1
875.335	-14.68
875.508	46.76
875.681	36.52
875.853	-14.68
876.026	-2.39
876.199	1.71
876.371	89.77
876.544	-104.79
876.717	108.2
876.889	5.8
877.062	-14.68
877.234	5.8
877.407	-47.44
877.579	-45.4
877.752	-2.39
877.924	1.71
878.097	22.19
878.269	61.1
878.442	59.05
878.614	3.75
878.786	-37.2
878.959	-47.44
879.131	46.76
879.303	9.9
879.476	-16.73
879.648	11.95
879.82	18.09
879.993	-16.73
880.165	-26.96
880.337	18.09
880.509	34.47
880.681	3.75
880.854	42.67
881.026	1.71
881.198	83.63
881.37	91.82
881.542	38.57
881.714	63.15
881.886	112.3
882.058	28.33
882.23	-18.77
882.402	40.62
882.574	79.53
882.746	28.33
882.918	67.24
883.09	36.52
883.262	1.71
883.434	-18.77
883.606	-12.63
883.778	28.33
883.95	-37.2
884.122	-67.92
884.293	-6.49
884.465	-18.77
884.637	24.23
884.809	-51.54
884.98	91.82
885.152	91.82
885.324	69.29
885.496	-22.87
885.667	-26.96
885.839	42.67
886.011	54.95
886.182	-49.49
886.354	75.43
886.525	18.09
886.697	50.86
886.869	-20.82
887.04	48.81
887.212	-0.34
887.383	112.3
887.555	40.62
887.726	50.86
887.897	42.67
888.069	22.19
888.24	38.57
888.412	44.71
888.583	-14.68
888.754	-22.87
888.926	-29.01
889.097	-2.39
889.268	-22.87
889.44	-20.82
889.611	46.76
889.782	-51.54
889.953	13.99
890.125	38.57
890.296	-49.49
890.467	-41.3
890.638	-78.16
890.809	-14.68
890.98	32.43
891.151	100.01
891.323	46.76
891.494	-0.34
891.665	-8.53
891.836	50.86
892.007	32.43
892.178	5.8
892.349	-39.25
892.52	18.09
892.691	22.19
892.862	79.53
893.032	34.47
893.203	-57.68
893.374	1.71
893.545	-8.53
893.716	-12.63
893.887	59.05
894.057	11.95
894.228	42.67
894.399	-22.87
894.57	108.2
894.74	36.52
894.911	36.52
895.082	48.81
895.253	3.75
895.423	9.9
895.594	9.9
895.764	57
895.935	38.57
896.106	-18.77
896.276	-22.87
896.447	1.71
896.617	-31.06
896.788	-55.64
896.958	-6.49
897.129	36.52
897.299	32.43
897.47	79.53
897.64	159.4
897.81	-31.06
897.981	95.91
898.151	34.47
898.322	-12.63
898.492	-41.3
898.662	42.67
898.832	-18.77
899.003	67.24
899.173	18.09
899.343	-22.87
899.513	-92.5
