Data from USB4F104151__110__14-31-08-112.txt Node

Date: Thu Mar 13 14:31:08 EDT 2025
User: louis
Spectrometer: USB4F10415
Trigger mode: 4
Integration Time (sec): 2.500000E-2
Scans to average: 1
Electric dark correction enabled: true
Nonlinearity correction enabled: false
Boxcar width: 0
XAxis mode: Wavelengths
Number of Pixels in Spectrum: 3648
>>>>>Begin Spectral Data<<<<<
178.204	-120.32
178.424	-120.32
178.644	-120.32
178.864	-175.61
179.084	-103.93
179.304	8.7
179.524	47.62
179.744	-17.92
179.964	29.18
180.184	45.57
180.404	-44.54
180.624	8.7
180.844	6.66
181.064	-11.78
181.283	-52.74
181.503	-54.78
181.723	35.33
181.943	-48.64
182.163	72.19
182.383	4.61
182.602	-9.73
182.822	35.33
183.042	43.52
183.262	-52.74
183.482	29.18
183.701	10.75
183.921	86.53
184.141	6.66
184.361	51.71
184.58	2.56
184.8	-30.21
185.02	31.23
185.239	49.66
185.459	8.7
185.679	18.94
185.898	12.8
186.118	88.57
186.338	84.48
186.557	45.57
186.777	43.52
186.997	59.9
187.216	55.81
187.436	111.1
187.655	29.18
187.875	10.75
188.095	84.48
188.314	-50.69
188.534	98.81
188.753	59.9
188.973	64
189.192	82.43
189.412	43.52
189.631	-13.82
189.851	10.75
190.07	150.01
190.29	-58.88
190.509	74.24
190.729	-34.3
190.948	55.81
191.168	154.11
191.387	47.62
191.607	-15.87
191.826	-5.63
192.045	12.8
192.265	29.18
192.484	51.71
192.704	-13.82
192.923	2.56
193.142	76.29
193.362	59.9
193.581	43.52
193.8	43.52
194.02	68.09
194.239	31.23
194.458	-30.21
194.678	16.9
194.897	96.77
195.116	18.94
195.335	10.75
195.555	92.67
195.774	59.9
195.993	16.9
196.212	-5.63
196.432	80.38
196.651	-15.87
196.87	12.8
197.089	94.72
197.308	80.38
197.528	86.53
197.747	-28.16
197.966	51.71
198.185	2.56
198.404	-40.45
198.623	176.64
198.842	-75.26
199.062	-34.3
199.281	35.33
199.5	25.09
199.719	-22.02
199.938	92.67
200.157	100.86
200.376	53.76
200.595	6.66
200.814	115.2
201.033	-22.02
201.252	113.15
201.471	20.99
201.69	102.91
201.909	18.94
202.128	39.42
202.347	39.42
202.566	-1.54
202.785	2.56
203.004	-1.54
203.223	100.86
203.442	80.38
203.661	-71.17
203.879	72.19
204.098	-13.82
204.317	14.85
204.536	84.48
204.755	-67.07
204.974	35.33
205.193	-15.87
205.411	76.29
205.63	20.99
205.849	78.33
206.068	35.33
206.287	-5.63
206.505	16.9
206.724	45.57
206.943	-46.59
207.162	59.9
207.381	64
207.599	33.28
207.818	76.29
208.037	31.23
208.255	12.8
208.474	51.71
208.693	2.56
208.911	29.18
209.13	20.99
209.349	37.38
209.567	43.52
209.786	121.34
210.005	84.48
210.223	37.38
210.442	14.85
210.661	84.48
210.879	84.48
211.098	96.77
211.316	49.66
211.535	45.57
211.753	82.43
211.972	43.52
212.191	29.18
212.409	-9.73
212.628	-34.3
212.846	27.14
213.065	96.77
213.283	102.91
213.502	18.94
213.72	-13.82
213.938	35.33
214.157	10.75
214.375	53.76
214.594	61.95
214.812	27.14
215.031	76.29
215.249	14.85
215.467	20.99
215.686	64
215.904	59.9
216.122	-26.11
216.341	45.57
216.559	76.29
216.778	117.25
216.996	49.66
217.214	96.77
217.432	18.94
217.651	-28.16
217.869	43.52
218.087	64
218.306	59.9
218.524	100.86
218.742	10.75
218.96	35.33
219.179	6.66
219.397	45.57
219.615	55.81
219.833	-34.3
220.051	27.14
220.27	72.19
220.488	51.71
220.706	72.19
220.924	53.76
221.142	-22.02
221.36	43.52
221.578	78.33
221.796	94.72
222.015	72.19
222.233	53.76
222.451	68.09
222.669	41.47
222.887	31.23
223.105	10.75
223.323	31.23
223.541	37.38
223.759	27.14
223.977	10.75
224.195	94.72
224.413	76.29
224.631	-22.02
224.849	47.62
225.067	51.71
225.285	61.95
225.503	51.71
225.721	-1.54
225.939	12.8
226.157	47.62
226.375	113.15
226.592	35.33
226.81	-17.92
227.028	61.95
227.246	64
227.464	45.57
227.682	-1.54
227.9	94.72
228.117	39.42
228.335	27.14
228.553	2.56
228.771	-1.54
228.989	39.42
229.206	27.14
229.424	53.76
229.642	-19.97
229.86	-22.02
230.077	27.14
230.295	51.71
230.513	55.81
230.731	64
230.948	25.09
231.166	37.38
231.384	-13.82
231.601	41.47
231.819	129.53
232.037	35.33
232.254	2.56
232.472	27.14
232.689	-5.63
232.907	84.48
233.125	43.52
233.342	10.75
233.56	14.85
233.777	29.18
233.995	-62.98
234.213	64
234.43	10.75
234.648	-17.92
234.865	-17.92
235.083	72.19
235.3	23.04
235.518	64
235.735	80.38
235.953	51.71
236.17	35.33
236.388	20.99
236.605	59.9
236.822	133.63
237.04	27.14
237.257	41.47
237.475	35.33
237.692	53.76
237.909	78.33
238.127	78.33
238.344	-3.58
238.562	70.14
238.779	2.56
238.996	-58.88
239.214	64
239.431	10.75
239.648	45.57
239.865	45.57
240.083	-11.78
240.3	2.56
240.517	-15.87
240.735	18.94
240.952	45.57
241.169	127.49
241.386	27.14
241.603	10.75
241.821	-22.02
242.038	70.14
242.255	18.94
242.472	-7.68
242.689	23.04
242.907	53.76
243.124	10.75
243.341	20.99
243.558	29.18
243.775	49.66
243.992	14.85
244.209	94.72
244.426	84.48
244.643	27.14
244.86	2.56
245.078	61.95
245.295	27.14
245.512	35.33
245.729	25.09
245.946	-5.63
246.163	51.71
246.38	10.75
246.597	123.39
246.814	72.19
247.031	-3.58
247.248	66.05
247.464	-11.78
247.681	55.81
247.898	20.99
248.115	84.48
248.332	0.51
248.549	61.95
248.766	127.49
248.983	100.86
249.2	61.95
249.417	80.38
249.633	-17.92
249.85	76.29
250.067	-13.82
250.284	100.86
250.501	123.39
250.717	121.34
250.934	-69.12
251.151	43.52
251.368	-99.84
251.585	117.25
251.801	92.67
252.018	25.09
252.235	-9.73
252.451	-19.97
252.668	10.75
252.885	61.95
253.102	51.71
253.318	117.25
253.535	4.61
253.752	-46.59
253.968	18.94
254.185	51.71
254.401	59.9
254.618	102.91
254.835	41.47
255.051	86.53
255.268	2.56
255.484	117.25
255.701	31.23
255.917	51.71
256.134	-54.78
256.351	35.33
256.567	68.09
256.784	51.71
257	2.56
257.217	61.95
257.433	6.66
257.65	61.95
257.866	2.56
258.082	23.04
258.299	-13.82
258.515	55.81
258.732	-7.68
258.948	-9.73
259.165	18.94
259.381	4.61
259.597	10.75
259.814	51.71
260.03	70.14
260.246	-1.54
260.463	29.18
260.679	102.91
260.895	29.18
261.112	35.33
261.328	37.38
261.544	27.14
261.761	137.73
261.977	37.38
262.193	-56.83
262.409	53.76
262.626	100.86
262.842	109.05
263.058	100.86
263.274	68.09
263.49	68.09
263.707	59.9
263.923	10.75
264.139	-87.55
264.355	64
264.571	47.62
264.787	59.9
265.004	70.14
265.22	-5.63
265.436	-38.4
265.652	35.33
265.868	2.56
266.084	-3.58
266.3	45.57
266.516	-11.78
266.732	18.94
266.948	-17.92
267.164	117.25
267.38	53.76
267.596	39.42
267.812	150.01
268.028	61.95
268.244	10.75
268.46	104.96
268.676	31.23
268.892	4.61
269.108	14.85
269.324	-69.12
269.54	-19.97
269.756	80.38
269.972	43.52
270.188	45.57
270.403	-1.54
270.619	35.33
270.835	16.9
271.051	-22.02
271.267	-13.82
271.483	76.29
271.698	86.53
271.914	29.18
272.13	53.76
272.346	10.75
272.562	131.58
272.777	53.76
272.993	2.56
273.209	68.09
273.425	59.9
273.64	43.52
273.856	53.76
274.072	-19.97
274.287	31.23
274.503	76.29
274.719	100.86
274.934	-5.63
275.15	55.81
275.366	37.38
275.581	82.43
275.797	14.85
276.012	68.09
276.228	35.33
276.444	4.61
276.659	80.38
276.875	29.18
277.09	14.85
277.306	25.09
277.521	127.49
277.737	4.61
277.952	86.53
278.168	-17.92
278.383	29.18
278.599	-13.82
278.814	51.71
279.03	2.56
279.245	121.34
279.461	51.71
279.676	102.91
279.892	2.56
280.107	23.04
280.322	59.9
280.538	59.9
280.753	-22.02
280.969	-22.02
281.184	-11.78
281.399	68.09
281.615	8.7
281.83	76.29
282.045	0.51
282.26	29.18
282.476	23.04
282.691	47.62
282.906	-11.78
283.122	70.14
283.337	-5.63
283.552	53.76
283.767	-13.82
283.983	18.94
284.198	61.95
284.413	6.66
284.628	37.38
284.843	-11.78
285.058	-13.82
285.274	35.33
285.489	18.94
285.704	43.52
285.919	64
286.134	51.71
286.349	80.38
286.564	35.33
286.779	150.01
286.995	86.53
287.21	39.42
287.425	86.53
287.64	18.94
287.855	27.14
288.07	-48.64
288.285	59.9
288.5	164.35
288.715	53.76
288.93	27.14
289.145	68.09
289.36	84.48
289.575	100.86
289.79	86.53
290.004	4.61
290.219	55.81
290.434	92.67
290.649	39.42
290.864	51.71
291.079	27.14
291.294	94.72
291.509	59.9
291.724	-5.63
291.938	-9.73
292.153	94.72
292.368	-17.92
292.583	35.33
292.798	59.9
293.012	41.47
293.227	100.86
293.442	45.57
293.657	6.66
293.871	43.52
294.086	39.42
294.301	94.72
294.516	88.57
294.73	37.38
294.945	43.52
295.16	37.38
295.374	49.66
295.589	117.25
295.804	20.99
296.018	25.09
296.233	-1.54
296.447	113.15
296.662	-17.92
296.877	86.53
297.091	55.81
297.306	57.86
297.52	53.76
297.735	18.94
297.949	70.14
298.164	41.47
298.378	68.09
298.593	20.99
298.807	-17.92
299.022	10.75
299.236	59.9
299.451	70.14
299.665	29.18
299.88	39.42
300.094	92.67
300.309	41.47
300.523	27.14
300.737	27.14
300.952	84.48
301.166	61.95
301.381	68.09
301.595	-46.59
301.809	12.8
302.024	68.09
302.238	47.62
302.452	84.48
302.667	61.95
302.881	88.57
303.095	0.51
303.309	109.05
303.524	-42.5
303.738	-9.73
303.952	43.52
304.166	92.67
304.381	-1.54
304.595	47.62
304.809	14.85
305.023	47.62
305.237	-13.82
305.452	-22.02
305.666	59.9
305.88	55.81
306.094	43.52
306.308	72.19
306.522	88.57
306.736	68.09
306.95	72.19
307.164	37.38
307.379	86.53
307.593	2.56
307.807	49.66
308.021	80.38
308.235	12.8
308.449	51.71
308.663	72.19
308.877	119.29
309.091	86.53
309.305	84.48
309.519	-5.63
309.733	68.09
309.947	-30.21
310.161	-7.68
310.374	94.72
310.588	78.33
310.802	-97.79
311.016	-5.63
311.23	43.52
311.444	70.14
311.658	92.67
311.872	117.25
312.085	64
312.299	109.05
312.513	49.66
312.727	117.25
312.941	55.81
313.154	12.8
313.368	18.94
313.582	64
313.796	2.56
314.009	27.14
314.223	92.67
314.437	-11.78
314.651	-1.54
314.864	35.33
315.078	-13.82
315.292	35.33
315.505	18.94
315.719	92.67
315.933	47.62
316.146	53.76
316.36	-13.82
316.573	43.52
316.787	51.71
317.001	45.57
317.214	47.62
317.428	100.86
317.641	2.56
317.855	-38.4
318.068	20.99
318.282	12.8
318.495	127.49
318.709	88.57
318.922	53.76
319.136	-22.02
319.349	92.67
319.563	64
319.776	51.71
319.99	18.94
320.203	43.52
320.417	102.91
320.63	51.71
320.843	176.64
321.057	29.18
321.27	92.67
321.483	174.59
321.697	117.25
321.91	27.14
322.124	31.23
322.337	129.53
322.55	27.14
322.763	20.99
322.977	-5.63
323.19	100.86
323.403	53.76
323.617	66.05
323.83	43.52
324.043	47.62
324.256	98.81
324.469	-13.82
324.683	133.63
324.896	39.42
325.109	41.47
325.322	27.14
325.535	154.11
325.748	74.24
325.962	10.75
326.175	92.67
326.388	-19.97
326.601	-3.58
326.814	39.42
327.027	64
327.24	76.29
327.453	-17.92
327.666	47.62
327.879	86.53
328.092	64
328.305	68.09
328.518	20.99
328.731	-9.73
328.944	51.71
329.157	35.33
329.37	-11.78
329.583	86.53
329.796	72.19
330.009	100.86
330.222	43.52
330.435	18.94
330.648	90.62
330.861	27.14
331.073	27.14
331.286	94.72
331.499	51.71
331.712	51.71
331.925	86.53
332.138	20.99
332.35	86.53
332.563	-71.17
332.776	76.29
332.989	96.77
333.202	37.38
333.414	10.75
333.627	51.71
333.84	80.38
334.053	111.1
334.265	59.9
334.478	20.99
334.691	53.76
334.903	49.66
335.116	78.33
335.329	-15.87
335.541	102.91
335.754	100.86
335.966	16.9
336.179	16.9
336.392	82.43
336.604	47.62
336.817	55.81
337.029	100.86
337.242	6.66
337.454	76.29
337.667	55.81
337.88	133.63
338.092	27.14
338.305	117.25
338.517	-46.59
338.729	74.24
338.942	51.71
339.154	29.18
339.367	12.8
339.579	43.52
339.792	2.56
340.004	72.19
340.217	115.2
340.429	-19.97
340.641	20.99
340.854	-42.5
341.066	29.18
341.278	133.63
341.491	109.05
341.703	64
341.915	51.71
342.128	53.76
342.34	16.9
342.552	23.04
342.764	37.38
342.977	14.85
343.189	10.75
343.401	92.67
343.613	27.14
343.826	27.14
344.038	35.33
344.25	72.19
344.462	37.38
344.674	43.52
344.886	55.81
345.099	43.52
345.311	-1.54
345.523	51.71
345.735	-3.58
345.947	-34.3
346.159	84.48
346.371	92.67
346.583	23.04
346.795	86.53
347.007	8.7
347.219	78.33
347.431	51.71
347.643	45.57
347.855	10.75
348.067	84.48
348.279	45.57
348.491	47.62
348.703	-7.68
348.915	27.14
349.127	-30.21
349.339	-5.63
349.551	61.95
349.763	109.05
349.975	27.14
350.187	53.76
350.399	111.1
350.61	29.18
350.822	-1.54
351.034	125.44
351.246	51.71
351.458	86.53
351.669	109.05
351.881	100.86
352.093	45.57
352.305	55.81
352.517	70.14
352.728	86.53
352.94	39.42
353.152	72.19
353.363	76.29
353.575	64
353.787	43.52
353.999	55.81
354.21	100.86
354.422	51.71
354.633	47.62
354.845	43.52
355.057	43.52
355.268	98.81
355.48	92.67
355.692	2.56
355.903	-11.78
356.115	51.71
356.326	27.14
356.538	86.53
356.749	76.29
356.961	109.05
357.172	43.52
357.384	39.42
357.595	59.9
357.807	68.09
358.018	-9.73
358.23	100.86
358.441	55.81
358.653	27.14
358.864	76.29
359.075	76.29
359.287	20.99
359.498	16.9
359.709	76.29
359.921	10.75
360.132	68.09
360.344	23.04
360.555	47.62
360.766	27.14
360.977	78.33
361.189	158.21
361.4	27.14
361.611	100.86
361.823	100.86
362.034	-3.58
362.245	-28.16
362.456	35.33
362.667	154.11
362.879	57.86
363.09	43.52
363.301	37.38
363.512	53.76
363.723	70.14
363.935	51.71
364.146	47.62
364.357	55.81
364.568	82.43
364.779	-13.82
364.99	59.9
365.201	-30.21
365.412	78.33
365.623	88.57
365.834	43.52
366.045	51.71
366.256	80.38
366.467	121.34
366.678	29.18
366.889	59.9
367.1	27.14
367.311	59.9
367.522	51.71
367.733	39.42
367.944	64
368.155	4.61
368.366	27.14
368.577	94.72
368.788	41.47
368.999	51.71
369.209	-3.58
369.42	68.09
369.631	76.29
369.842	133.63
370.053	10.75
370.264	143.87
370.474	14.85
370.685	47.62
370.896	16.9
371.107	100.86
371.317	82.43
371.528	29.18
371.739	127.49
371.95	119.29
372.16	55.81
372.371	57.86
372.582	20.99
372.792	4.61
373.003	84.48
373.214	76.29
373.424	27.14
373.635	20.99
373.846	53.76
374.056	43.52
374.267	80.38
374.477	45.57
374.688	10.75
374.898	59.9
375.109	84.48
375.319	84.48
375.53	82.43
375.74	121.34
375.951	125.44
376.161	133.63
376.372	78.33
376.582	96.77
376.793	-3.58
377.003	20.99
377.214	29.18
377.424	119.29
377.635	37.38
377.845	25.09
378.055	152.06
378.266	94.72
378.476	64
378.686	72.19
378.897	96.77
379.107	121.34
379.317	113.15
379.528	18.94
379.738	90.62
379.948	10.75
380.158	74.24
380.369	61.95
380.579	88.57
380.789	6.66
380.999	70.14
381.21	14.85
381.42	150.01
381.63	-22.02
381.84	53.76
382.05	-13.82
382.261	86.53
382.471	72.19
382.681	68.09
382.891	92.67
383.101	-26.11
383.311	68.09
383.521	143.87
383.731	86.53
383.941	150.01
384.151	68.09
384.361	43.52
384.571	76.29
384.781	109.05
384.991	178.69
385.201	133.63
385.411	53.76
385.621	84.48
385.831	-5.63
386.041	127.49
386.251	12.8
386.461	125.44
386.671	84.48
386.881	150.01
387.091	109.05
387.301	82.43
387.511	55.81
387.72	70.14
387.93	129.53
388.14	86.53
388.35	37.38
388.56	-38.4
388.769	84.48
388.979	45.57
389.189	68.09
389.399	29.18
389.609	113.15
389.818	115.2
390.028	119.29
390.238	45.57
390.447	51.71
390.657	115.2
390.867	109.05
391.076	-22.02
391.286	64
391.496	74.24
391.705	35.33
391.915	137.73
392.125	92.67
392.334	78.33
392.544	92.67
392.753	68.09
392.963	55.81
393.172	100.86
393.382	14.85
393.591	137.73
393.801	125.44
394.01	129.53
394.22	117.25
394.429	51.71
394.639	76.29
394.848	143.87
395.058	84.48
395.267	176.64
395.477	68.09
395.686	84.48
395.895	141.82
396.105	147.97
396.314	113.15
396.524	43.52
396.733	107.01
396.942	20.99
397.152	94.72
397.361	66.05
397.57	141.82
397.78	59.9
397.989	152.06
398.198	174.59
398.407	82.43
398.617	111.1
398.826	113.15
399.035	133.63
399.244	145.92
399.453	104.96
399.663	209.4
399.872	176.64
400.081	109.05
400.29	184.83
400.499	145.92
400.708	174.59
400.917	27.14
401.127	78.33
401.336	135.68
401.545	209.4
401.754	119.29
401.963	182.78
402.172	113.15
402.381	125.44
402.59	74.24
402.799	182.78
403.008	190.97
403.217	219.64
403.426	205.31
403.635	156.16
403.844	223.74
404.053	227.84
404.262	186.88
404.471	307.71
404.68	197.12
404.888	158.21
405.097	184.83
405.306	174.59
405.515	201.21
405.724	233.98
405.933	262.65
406.142	174.59
406.35	297.47
406.559	330.23
406.768	188.93
406.977	256.51
407.185	348.67
407.394	274.94
407.603	285.18
407.812	289.28
408.02	342.52
408.229	313.85
408.438	285.18
408.646	250.36
408.855	260.6
409.064	346.62
409.272	375.29
409.481	305.66
409.69	387.58
409.898	322.04
410.107	395.77
410.315	426.49
410.524	395.77
410.733	489.98
410.941	397.82
411.15	461.3
411.358	467.45
411.567	512.5
411.775	473.59
411.984	526.84
412.192	627.19
412.401	545.27
412.609	535.03
412.818	653.81
413.026	633.33
413.234	707.06
413.443	672.25
413.651	756.21
413.86	756.21
414.068	813.56
414.276	870.9
414.485	776.69
414.693	840.18
414.901	944.63
415.11	850.42
415.318	891.38
415.526	989.68
415.734	1034.74
415.943	1085.94
416.151	1171.95
416.359	1133.04
416.567	1100.27
416.776	1139.18
416.984	1186.29
417.192	1198.57
417.4	1257.96
417.608	1198.57
417.817	1305.07
418.025	1440.23
418.233	1587.69
418.441	1559.02
418.649	1477.1
418.857	1657.32
419.065	1704.42
419.273	1669.61
419.481	1825.25
419.689	1847.78
419.897	1882.6
420.105	2058.72
420.313	2073.06
420.521	2085.34
420.729	2204.13
420.937	2228.7
421.145	2296.28
421.353	2327
421.561	2458.07
421.769	2576.86
421.977	2607.58
422.185	2638.3
422.393	2726.36
422.601	2945.49
422.809	2961.87
423.017	3051.99
423.224	3140.05
423.432	3369.42
423.64	3361.23
423.848	3656.14
424.056	3486.15
424.263	3762.63
424.471	3693
424.679	3860.93
424.887	4080.07
425.094	4092.35
425.302	4198.85
425.51	4311.49
425.718	4409.79
425.925	4452.8
426.133	4544.95
426.341	4979.12
426.548	5210.54
426.756	5114.29
426.964	5228.98
427.171	5716.39
427.379	5618.09
427.586	5710.25
427.794	5900.71
428.001	6033.83
428.209	6367.65
428.417	6236.58
428.624	7029.14
428.832	6793.62
429.039	6744.47
429.247	6771.1
429.454	7401.87
429.662	7842.18
429.869	7225.75
430.076	7813.51
430.284	7621
430.491	7920.01
430.699	8290.69
430.906	8481.15
431.114	8546.69
431.321	8907.13
431.528	9046.39
431.736	9640.3
431.943	9931.11
432.15	9789.8
432.358	9816.43
432.565	10498.4
432.772	10168.68
432.979	11016.54
433.187	10969.43
433.394	11166.04
433.601	11966.79
433.808	12067.14
434.016	11839.82
434.223	12552.51
434.43	12884.28
434.637	12851.52
434.844	13682.99
435.052	13730.09
435.259	13599.02
435.466	14002.47
435.673	13732.14
435.88	14713.12
436.087	15657.23
436.294	15448.34
436.501	15102.23
436.708	15452.44
436.915	15954.19
437.122	16713.98
437.329	16718.08
437.537	17086.72
437.743	17074.43
437.95	17295.61
438.157	18174.19
438.364	18677.99
438.571	19015.9
438.778	18809.06
438.985	20515.01
439.192	19736.79
439.399	20160.72
439.606	19681.49
439.813	20906.18
440.02	22071.47
440.227	21936.31
440.433	21399.74
440.64	22421.67
440.847	21924.02
441.054	22661.29
441.261	24217.74
441.467	24000.66
441.674	24359.05
441.881	25634.94
442.088	25344.13
442.294	24813.7
442.501	25659.51
442.708	26331.25
442.914	26990.69
443.121	28168.27
443.328	27480.16
443.534	29325.38
443.741	28811.34
443.948	28229.71
444.154	29982.77
444.361	30019.64
444.568	30294.07
444.774	30578.73
444.981	30658.6
445.187	31316
445.394	32825.36
445.6	32165.91
445.807	35461.09
446.013	33847.29
446.22	34574.32
446.426	36118.49
446.633	36202.46
446.839	37183.43
447.046	35629.02
447.252	38209.46
447.459	37951.42
447.665	37584.83
447.871	38928.3
448.078	40843.15
448.284	39184.3
448.491	39989.15
448.697	41826.18
448.903	42307.45
449.11	42444.66
449.316	41746.31
449.522	42481.53
449.728	43319.15
449.935	43994.98
450.141	43777.89
450.347	45027.15
450.553	43237.23
450.76	43921.25
450.966	45262.67
451.172	44724.05
451.378	46081.86
451.584	45141.84
451.791	46028.61
451.997	46178.11
452.203	46796.6
452.409	46843.7
452.615	46747.45
452.821	44644.18
453.027	44437.34
453.233	46679.86
453.44	44953.43
453.646	45465.42
453.852	45334.35
454.058	46397.24
454.264	44496.73
454.47	46137.15
454.676	44758.87
454.882	45934.4
455.088	42620.79
455.294	43026.29
455.5	43212.65
455.705	43825
455.911	42499.96
456.117	41383.82
456.323	40755.09
456.529	38401.97
456.735	40282.01
456.941	39137.19
457.147	38477.75
457.352	38000.57
457.558	37183.43
457.764	37289.93
457.97	36415.44
458.176	35600.35
458.381	35557.35
458.587	33814.52
458.793	33861.63
458.999	32370.71
459.204	34607.09
459.41	33490.94
459.616	31082.53
459.821	31621.15
460.027	31309.86
460.233	30316.59
460.438	29169.73
460.644	29478.97
460.85	28010.58
461.055	27449.44
461.261	27381.85
461.466	25520.25
461.672	24932.48
461.878	26486.89
462.083	24549.51
462.289	24096.91
462.494	24121.49
462.7	23296.16
462.905	22460.59
463.111	23058.59
463.316	23160.99
463.522	22479.02
463.727	22804.64
463.932	22710.44
464.138	22227.12
464.343	22626.47
464.549	21852.34
464.754	22687.91
464.959	22573.22
465.165	21819.57
465.37	21047.49
465.575	20588.74
465.781	21313.72
465.986	21616.82
466.191	20992.19
466.397	20422.86
466.602	19734.74
466.807	20127.95
467.012	20418.76
467.218	20320.46
467.423	19790.03
467.628	20191.44
467.833	20906.18
468.038	20031.69
468.244	19550.42
468.449	20230.35
468.654	19321.05
468.859	19378.39
469.064	19282.14
469.269	18665.7
469.474	18610.4
469.679	18917.6
469.885	18321.64
470.09	18788.58
470.295	18581.73
470.5	18297.06
470.705	18524.39
470.91	17645.81
471.115	17615.09
471.32	18096.36
471.525	17688.82
471.73	17363.19
471.935	17402.1
472.139	16838.91
472.344	16929.02
472.549	16881.92
472.754	16816.38
472.959	16214.28
473.164	15843.6
473.369	15917.33
473.574	16185.61
473.778	16025.87
473.983	16005.39
474.188	15892.75
474.393	15231.26
474.598	15456.53
474.802	14960.92
475.007	14987.55
475.212	15001.88
475.417	14657.82
475.621	14647.58
475.826	14518.56
476.031	14453.03
476.235	13877.55
476.44	14393.64
476.645	14008.62
476.849	13867.31
477.054	13814.06
477.259	13603.12
477.463	13832.49
477.668	13162.81
477.872	13457.71
478.077	13171
478.282	13179.19
478.486	12962.11
478.691	12636.48
478.895	12861.76
479.1	12616
479.304	12679.49
479.509	12325.19
479.713	12437.83
479.918	12310.85
480.122	11770.19
480.326	12407.11
480.531	12409.15
480.735	11995.46
480.94	12017.99
481.144	12200.26
481.348	11688.27
481.553	11768.14
481.757	11809.1
481.961	11813.2
482.166	11956.55
482.37	11921.74
482.574	11897.16
482.778	11716.94
482.983	11934.03
483.187	11708.75
483.391	11667.79
483.595	11581.78
483.8	11383.12
484.004	11559.25
484.208	11823.44
484.412	11641.17
484.616	11723.09
484.821	11616.59
485.025	11381.07
485.229	11690.32
485.433	11835.72
485.637	11549.01
485.841	11618.64
486.045	11663.69
486.249	11745.61
486.453	11628.88
486.657	11798.86
486.861	11671.89
487.065	11282.77
487.269	11852.11
487.473	11495.76
487.677	11718.99
487.881	11962.7
488.085	11518.29
488.289	11645.26
488.493	11741.52
488.697	11585.87
488.901	11700.56
489.105	11815.24
489.309	11641.17
489.512	11954.51
489.716	11919.69
489.92	11872.59
490.124	11581.78
490.328	11954.51
490.531	11747.66
490.735	11872.59
490.939	12036.42
491.143	11981.13
491.346	11901.26
491.55	12112.2
491.754	12220.74
491.958	12046.66
492.161	12136.77
492.365	12212.55
492.569	12110.15
492.772	12081.48
492.976	12384.58
493.18	12425.54
493.383	12560.7
493.587	12585.28
493.79	12609.86
493.994	12607.81
494.197	12493.12
494.401	12902.72
494.605	12755.26
494.808	12904.76
495.012	13226.29
495.215	13187.38
495.419	13390.13
495.622	13009.21
495.825	13195.57
496.029	13371.7
496.232	13455.67
496.436	13377.84
496.639	13938.99
496.843	13912.36
497.046	14033.19
497.249	14231.85
497.453	14289.19
497.656	14311.72
497.859	14467.36
498.063	14584.1
498.266	14782.75
498.469	14856.48
498.673	14639.39
498.876	15075.61
499.079	15407.38
499.282	15284.5
499.485	15477.01
499.689	15747.34
499.892	15651.09
500.095	15872.27
500.298	16306.44
500.501	16066.83
500.705	16474.37
500.908	16664.83
501.111	16818.43
501.314	16955.65
501.517	17139.96
501.72	17285.37
501.923	17277.18
502.126	17815.79
502.329	17895.66
502.532	17977.58
502.735	18147.56
502.938	18534.63
503.141	18335.98
503.344	18759.91
503.547	18770.15
503.75	18847.97
503.953	18956.51
504.156	19554.52
504.359	19714.26
504.562	19974.35
504.765	20185.29
504.968	20445.38
505.17	20555.97
505.373	20535.49
505.576	21115.07
505.779	21080.25
505.982	21287.1
506.185	21690.55
506.387	21594.29
506.59	22012.08
506.793	22341.8
506.996	22571.18
507.198	23050.4
507.401	22792.36
507.604	23160.99
507.807	23392.41
508.009	23779.48
508.212	23748.76
508.415	23853.2
508.617	24156.3
508.82	24410.25
509.022	24582.28
509.225	25096.32
509.428	25208.96
509.63	25555.07
509.833	25632.89
510.035	26212.46
510.238	25950.32
510.44	26222.7
510.643	27021.41
510.845	26789.99
511.048	26841.19
511.25	27238.5
511.453	27261.02
511.655	28438.61
511.858	27678.81
512.06	28416.08
512.262	28334.16
512.465	28514.38
512.667	29081.67
512.87	28907.59
513.072	29202.5
513.274	30023.73
513.477	30076.98
513.679	30306.35
513.881	30169.14
514.084	30634.03
514.286	30744.62
514.488	30916.65
514.69	32067.61
514.893	31727.64
515.095	32073.75
515.297	32526.35
515.499	32247.83
515.701	32800.78
515.904	33032.2
516.106	33366.02
516.308	33886.2
516.51	33736.7
516.712	34019.32
516.914	34142.2
517.116	34973.67
517.318	34990.06
517.52	35125.22
517.722	35422.18
517.925	35717.09
518.127	35977.18
518.329	36208.6
518.531	36423.64
518.733	36814.8
518.935	37197.77
519.136	36849.61
519.338	37371.85
519.54	37859.26
519.742	37896.13
519.944	38096.83
520.146	38539.19
520.348	38711.22
520.55	38590.39
520.752	38969.26
520.954	39616.42
521.155	39483.3
521.357	39759.78
521.559	39757.73
521.761	40531.86
521.963	39935.9
522.164	40476.57
522.366	40611.73
522.568	41105.29
522.77	40963.98
522.971	41717.64
523.173	40898.45
523.375	41766.79
523.576	41543.56
523.778	41844.61
523.98	42211.2
524.181	42112.89
524.383	42334.07
524.584	42839.92
524.786	42583.93
524.988	42882.93
525.189	42811.25
525.391	43446.12
525.592	43396.97
525.794	43532.14
525.995	43364.2
526.197	43822.95
526.398	43587.43
526.6	44148.57
526.801	43816.8
527.003	44181.34
527.204	44042.08
527.406	44322.65
527.607	44515.16
527.808	44463.96
528.01	44021.6
528.211	44371.8
528.412	44953.43
528.614	44449.63
528.815	44777.3
529.016	44599.13
529.218	44513.11
529.419	44646.23
529.62	44590.94
529.822	44709.72
530.023	45029.2
530.224	44599.13
530.425	44537.69
530.626	44388.19
530.828	44289.88
531.029	45406.03
531.23	44515.16
531.431	44410.71
531.632	44793.68
531.833	44920.66
532.035	44533.59
532.236	44300.12
532.437	45096.78
532.638	44724.05
532.839	44375.9
533.04	44975.95
533.241	44515.16
533.442	45326.16
533.643	44828.5
533.844	45080.4
534.045	44582.74
534.246	44384.09
534.447	44808.02
534.648	44425.05
534.849	44687.19
535.05	44687.19
535.251	44316.51
535.451	44263.26
535.652	44379.99
535.853	44269.4
536.054	44519.26
536.255	44457.82
536.456	43710.31
536.657	45088.59
536.857	43956.07
537.058	44228.45
537.259	44572.5
537.46	44496.73
537.66	44175.2
537.861	44496.73
538.062	44369.75
538.263	44367.71
538.463	43732.84
538.664	44449.63
538.865	44050.27
539.065	44173.15
539.266	43704.17
539.466	44154.72
539.667	43734.88
539.868	44613.46
540.068	43659.11
540.269	43822.95
540.469	44164.96
540.67	43319.15
540.87	43741.03
541.071	43587.43
541.271	43921.25
541.472	43452.26
541.672	43401.07
541.873	43638.63
542.073	43229.04
542.274	43943.78
542.474	43587.43
542.675	43095.92
542.875	43841.38
543.075	43648.87
543.276	43335.53
543.476	44179.29
543.676	43589.48
543.877	43698.02
544.077	43575.14
544.277	43485.03
544.478	43302.76
544.678	43605.86
544.878	43671.4
545.078	43560.81
545.279	43216.75
545.479	42999.66
545.679	43521.9
545.879	43302.76
546.079	43358.06
546.28	43229.04
546.48	42794.87
546.68	43564.9
546.88	43257.71
547.08	43480.94
547.28	43564.9
547.48	43044.72
547.68	43159.41
547.88	42919.79
548.081	43423.59
548.281	42825.59
548.481	42911.6
548.681	43818.85
548.881	43335.53
549.081	43294.57
549.28	43036.53
549.48	43380.59
549.68	43046.77
549.88	43796.32
550.08	43071.34
550.28	43376.49
550.48	43298.67
550.68	43521.9
550.88	43005.81
551.08	43122.54
551.279	43341.67
551.479	42821.49
551.679	43382.63
551.879	42930.03
552.079	43366.25
552.278	43315.05
552.478	43540.33
552.678	43542.38
552.878	43478.89
553.077	43323.24
553.277	43220.84
553.477	43804.52
553.676	43188.08
553.876	43409.26
554.076	43296.62
554.275	43358.06
554.475	43097.97
554.674	43130.73
554.874	43401.07
555.074	43405.16
555.273	43726.69
555.473	43360.11
555.672	43229.04
555.872	43476.84
556.071	43360.11
556.271	43425.64
556.47	43360.11
556.67	42753.91
556.869	43310.96
557.068	43308.91
557.268	43218.8
557.467	43171.69
557.667	43583.33
557.866	43493.22
558.065	43530.09
558.265	43319.15
558.464	43278.19
558.663	43835.24
558.863	43136.88
559.062	43812.71
559.261	43163.5
559.461	43753.32
559.66	42811.25
559.859	43448.17
560.058	43104.11
560.258	43075.44
560.457	42874.74
560.656	43538.28
560.855	43233.13
561.054	43376.49
561.253	43462.5
561.453	43044.72
561.652	43728.74
561.851	43450.22
562.05	43229.04
562.249	43136.88
562.448	43294.57
562.647	42913.65
562.846	43261.8
563.045	42796.91
563.244	42569.59
563.443	43456.36
563.642	42655.61
563.841	43249.52
564.04	43091.82
564.239	43399.02
564.438	42921.84
564.637	42895.22
564.836	43159.41
565.035	42512.25
565.234	43407.21
565.432	42837.87
565.631	42268.54
565.83	42821.49
566.029	42426.23
566.228	42891.12
566.427	42428.28
566.625	42332.03
566.824	42166.14
567.023	42844.02
567.222	42033.02
567.42	42155.9
567.619	42186.62
567.818	42393.47
568.016	42319.74
568.215	42575.73
568.414	41869.19
568.612	42352.51
568.811	42055.55
569.01	42160
569.208	41664.39
569.407	41828.23
569.605	41439.11
569.804	41533.32
570.002	41506.69
570.201	41574.28
570.4	41432.97
570.598	41154.44
570.797	40609.68
570.995	41006.99
571.193	40890.26
571.392	41367.43
571.59	40939.41
571.789	41113.48
571.987	40812.43
572.186	40826.77
572.384	40460.18
572.582	40847.25
572.781	40656.79
572.979	40255.39
573.177	40527.77
573.376	40869.78
573.574	40374.17
573.772	40230.81
573.971	40251.29
574.169	39853.98
574.367	39849.89
574.565	40112.03
574.763	39647.14
574.962	39559.08
575.16	39327.66
575.358	39681.95
575.556	39206.83
575.754	40050.59
575.952	39471.01
576.151	39712.67
576.349	38952.88
576.547	38967.21
576.745	38870.96
576.943	39212.97
577.141	38893.49
577.339	38762.42
577.537	38965.17
577.735	38647.73
577.933	38440.89
578.131	38690.74
578.329	38381.49
578.527	37951.42
578.725	38399.93
578.923	38227.9
579.121	37853.12
579.319	37863.36
579.516	38066.11
579.714	38131.64
579.912	37531.59
580.11	37515.2
580.308	37556.16
580.506	37617.6
580.704	36691.92
580.901	37474.24
581.099	37521.35
581.297	37035.98
581.495	37093.32
581.692	37371.85
581.89	36855.76
582.088	37119.95
582.285	36937.68
582.483	36964.3
582.681	36921.29
582.878	36239.32
583.076	36403.16
583.274	36782.03
583.471	36243.41
583.669	36106.2
583.866	36110.3
584.064	36278.23
584.262	35973.08
584.459	36388.82
584.657	35987.42
584.854	35905.5
585.052	35495.91
585.249	35968.99
585.447	35696.61
585.644	35395.56
585.841	35737.57
586.039	35788.77
586.236	35035.11
586.434	35198.95
586.631	35143.66
586.828	35178.47
587.026	35207.14
587.223	34942.95
587.42	34875.37
587.618	35000.3
587.815	34381.81
588.012	34406.39
588.21	34312.18
588.407	34514.93
588.604	34709.49
588.801	34613.23
588.999	33914.87
589.196	34222.07
589.393	34080.76
589.59	34416.63
589.787	33445.89
589.984	33454.08
590.182	33503.23
590.379	33503.23
590.576	33544.19
590.773	33603.58
590.97	33642.49
591.167	33380.35
591.364	33185.8
591.561	33241.09
591.758	33042.44
591.955	33185.8
592.152	33388.55
592.349	33474.56
592.546	33484.8
592.743	32784.4
592.94	32823.31
593.137	32534.54
593.334	32868.36
593.531	32329.75
593.727	33030.15
593.924	32763.92
594.121	32405.52
594.318	32600.08
594.515	31995.93
594.712	32202.77
594.908	32507.92
595.105	32241.68
595.302	32307.22
595.499	32266.26
595.696	32086.04
595.892	31641.63
596.089	32038.94
596.286	32372.75
596.482	31768.6
596.679	32008.22
596.876	31934.49
597.072	31598.62
597.269	31535.13
597.466	31207.46
597.662	31375.39
597.859	31387.68
598.055	31447.07
598.252	31068.2
598.448	31506.46
598.645	31182.88
598.841	30736.43
599.038	31395.87
599.234	31174.69
599.431	30973.99
599.627	30986.28
599.824	31076.39
600.02	30646.32
600.217	31010.85
600.413	31004.71
600.609	30640.17
600.806	30650.41
601.002	30957.61
601.198	30670.89
601.395	30638.12
601.591	30859.31
601.787	30623.79
601.984	30220.34
602.18	30941.22
602.376	30531.63
602.572	30408.75
602.769	30566.45
602.965	30199.86
603.161	30236.72
603.357	30400.56
603.553	30433.33
603.75	30271.54
603.946	30537.77
604.142	30416.94
604.338	30119.99
604.534	30488.62
604.73	30406.7
604.926	30115.89
605.122	30500.91
605.318	30283.83
605.514	30148.66
605.71	30001.21
605.906	30509.1
606.102	30181.43
606.298	30412.85
606.494	29882.42
606.69	30003.25
606.886	30056.5
607.082	29933.62
607.278	30339.12
607.474	29737.02
607.67	30126.13
607.866	30087.22
608.062	30249.01
608.257	30048.31
608.453	30181.43
608.649	30107.7
608.845	30113.84
609.041	29913.14
609.236	29976.63
609.432	30062.65
609.628	30246.96
609.824	30136.37
610.019	30023.73
610.215	30156.85
610.411	30222.39
610.606	29958.2
610.802	30156.85
610.998	30107.7
611.193	30150.71
611.389	29984.82
611.584	29954.1
611.78	29489.21
611.976	30167.09
612.171	30236.72
612.367	30394.42
612.562	29763.64
612.758	29433.92
612.953	29970.49
613.149	30277.68
613.344	29806.65
613.539	30332.98
613.735	30146.61
613.93	30089.27
614.126	29827.13
614.321	30332.98
614.517	29829.18
614.712	29939.77
614.907	29626.43
615.103	30048.31
615.298	29757.5
615.493	30093.36
615.688	29886.52
615.884	30371.89
616.079	29503.55
616.274	29896.76
616.47	29870.14
616.665	29863.99
616.86	29689.91
617.055	29712.44
617.25	29825.08
617.445	30027.83
617.641	29237.31
617.836	29812.79
618.031	29120.58
618.226	29487.17
618.421	29507.65
618.616	29700.15
618.811	29587.52
619.006	29470.78
619.201	29071.43
619.396	29423.68
619.591	28911.69
619.786	29075.52
619.981	28579.92
620.176	29186.11
620.371	28903.49
620.566	28383.31
620.761	28528.72
620.956	28557.39
621.151	28344.4
621.346	28518.48
621.541	28235.86
621.735	28362.83
621.93	27777.11
622.125	27762.78
622.32	27334.75
622.515	27619.42
622.709	27617.37
622.904	27162.72
623.099	27273.31
623.294	27195.49
623.488	26779.75
623.683	27066.47
623.878	26714.22
624.072	26802.28
624.267	26947.68
624.462	26464.36
624.656	26124.4
624.851	26341.49
625.046	26296.43
625.24	26015.86
625.435	25917.56
625.629	26001.52
625.824	25679.99
626.018	25841.78
626.213	25276.54
626.407	25448.57
626.602	24963.2
626.796	25327.74
626.991	25043.07
627.185	25055.36
627.38	24891.52
627.574	24287.37
627.768	24381.58
627.963	24393.87
628.157	23980.18
628.352	24445.07
628.546	23580.82
628.74	24154.26
628.935	23750.81
629.129	23746.71
629.323	23392.41
629.517	23834.77
629.712	23464.09
629.906	23249.05
630.1	23240.86
630.294	23341.21
630.489	22818.98
630.683	22919.33
630.877	22472.87
631.071	22446.25
631.265	22800.55
631.459	22636.71
631.653	22257.84
631.848	22313.13
632.042	22022.32
632.236	22159.53
632.43	21696.69
632.624	21878.96
632.818	21801.14
633.012	21469.37
633.206	21670.07
633.4	21539
633.594	21186.75
633.788	21217.47
633.982	21205.18
634.176	20682.95
634.369	20945.09
634.563	20601.03
634.757	20949.18
634.951	20783.3
635.145	20482.25
635.339	20338.89
635.533	20041.93
635.726	20234.44
635.92	19792.08
636.114	20041.93
636.308	20076.75
636.501	19734.74
636.695	19603.67
636.889	19390.68
637.083	19476.69
637.276	19474.65
637.47	19085.53
637.664	19183.84
637.857	19208.41
638.051	19101.92
638.244	18794.72
638.438	18409.7
638.632	18417.89
638.825	18614.5
639.019	18440.42
639.212	18575.59
639.406	18010.35
639.599	18340.07
639.793	18225.39
639.986	17858.8
640.18	18102.51
640.373	17711.35
640.567	17578.23
640.76	17557.75
640.954	17467.64
641.147	17350.9
641.34	17164.54
641.534	17250.55
641.727	17256.7
641.92	16847.1
642.114	16785.66
642.307	16695.55
642.5	16652.55
642.694	16570.63
642.887	16570.63
643.08	16550.15
643.273	16419.08
643.467	16197.9
643.66	16126.22
643.853	15984.91
644.046	15788.3
644.239	16142.6
644.432	15667.47
644.626	15767.82
644.819	15491.35
645.012	15454.48
645.205	15470.87
645.398	15677.71
645.591	15327.51
645.784	15091.99
645.977	15235.35
646.17	15053.08
646.363	14901.53
646.556	14780.7
646.749	14788.89
646.942	14637.34
647.135	14620.96
647.328	14381.35
647.521	14784.8
647.714	14133.54
647.907	14315.81
648.099	14317.86
648.292	14367.01
648.485	14233.89
648.678	14102.82
648.871	14186.79
649.064	13859.12
649.256	14102.82
649.449	13852.97
649.642	13650.22
649.835	13652.27
650.027	13357.36
650.22	13310.26
650.413	13304.12
650.605	13330.74
650.798	13306.16
650.991	13068.6
651.183	13216.05
651.376	13226.29
651.568	13111.61
651.761	12988.73
651.954	12740.93
652.146	12632.38
652.339	12757.31
652.531	12484.93
652.724	12562.75
652.916	12245.32
653.109	12425.54
653.301	12671.29
653.494	12278.08
653.686	12015.94
653.879	12421.44
654.071	12157.25
654.263	12153.16
654.456	12067.14
654.648	11960.65
654.84	11921.74
655.033	11604.3
655.225	11839.82
655.417	11848.01
655.61	11895.11
655.802	11696.46
655.994	11628.88
656.186	11542.86
656.379	11573.58
656.571	11344.21
656.763	11227.48
656.955	11364.69
657.148	11161.94
657.34	11196.76
657.532	11094.36
657.724	10895.71
657.916	10959.19
658.108	10760.54
658.3	10713.44
658.492	10895.71
658.684	10672.48
658.876	10729.82
659.068	10654.05
659.26	10301.79
659.452	10496.35
659.644	10484.06
659.836	10197.35
660.028	10244.45
660.22	10180.96
660.412	10262.88
660.604	10097
660.796	10068.33
660.988	9982.31
661.18	9890.15
661.372	9779.56
661.563	9750.89
661.755	9724.27
661.947	9752.94
662.139	9679.21
662.331	9726.32
662.522	9759.08
662.714	9488.75
662.906	9441.65
663.097	9273.71
663.289	9138.55
663.481	9245.04
663.673	9224.56
663.864	9046.39
664.056	9062.77
664.247	9152.88
664.439	8917.37
664.631	9099.64
664.822	9103.73
665.014	9204.08
665.205	9030.01
665.397	8761.72
665.588	8839.55
665.78	8778.11
665.971	8739.19
666.163	8806.78
666.354	8716.67
666.546	8776.06
666.737	8415.62
666.929	8515.97
667.12	8526.21
667.311	8558.97
667.503	8397.18
667.694	8159.62
667.885	8219.01
668.077	8327.55
668.268	8305.03
668.459	8155.52
668.651	8112.52
668.842	8022.41
669.033	8063.36
669.224	7836.04
669.416	8171.91
669.607	7958.92
669.798	7999.88
669.989	7885.19
670.18	7825.8
670.371	7903.62
670.563	7905.67
670.754	7995.78
670.945	7709.07
671.136	7846.28
671.327	7580.04
671.518	7508.37
671.709	7715.21
671.9	7690.63
672.091	7608.72
672.282	7336.34
672.473	7301.52
672.664	7440.78
672.855	7309.71
673.046	7483.79
673.237	7500.17
673.428	7258.51
673.619	7246.23
673.809	7154.07
674	7176.59
674.191	7311.76
674.382	7207.31
674.573	7350.67
674.764	7319.95
674.954	7219.6
675.145	7125.4
675.336	6949.27
675.527	7127.44
675.717	6975.89
675.908	6910.36
676.099	6934.93
676.289	7070.1
676.48	7066
676.671	6740.38
676.861	6861.21
677.052	6791.58
677.243	6873.5
677.433	6830.49
677.624	6762.9
677.814	6822.3
678.005	6789.53
678.195	6818.2
678.386	6719.9
678.576	6781.34
678.767	6633.88
678.957	6642.07
679.148	6711.71
679.338	6711.71
679.529	6539.68
679.719	6359.45
679.909	6617.5
680.1	6515.1
680.29	6326.69
680.481	6531.48
680.671	6556.06
680.861	6541.72
681.052	6572.44
681.242	6392.22
681.432	6439.33
681.622	6480.29
681.813	6357.41
682.003	6412.7
682.193	6267.3
682.383	6623.64
682.573	6361.5
682.764	6320.54
682.954	6320.54
683.144	6261.15
683.334	6203.81
683.524	6318.5
683.714	6343.07
683.904	6203.81
684.094	6195.62
684.284	6082.98
684.474	6228.38
684.664	6154.66
684.854	6205.86
685.044	6173.09
685.234	6007.2
685.424	6101.41
685.614	6035.88
685.804	6132.13
685.994	6062.5
686.184	6007.2
686.374	6076.84
686.564	5937.57
686.753	5867.94
686.943	5859.75
687.133	5867.94
687.323	5810.6
687.513	5843.37
687.702	5831.08
687.892	5722.54
688.082	5736.87
688.272	5716.39
688.461	5863.85
688.651	5570.99
688.841	5732.78
689.03	5679.53
689.22	5575.08
689.41	5536.17
689.599	5630.38
689.789	5581.23
689.979	5745.06
690.168	5534.12
690.358	5630.38
690.547	5458.35
690.737	5659.05
690.926	5523.88
691.116	5255.6
691.305	5376.43
691.495	5470.64
691.684	5278.13
691.874	5331.37
692.063	5329.33
692.252	5368.24
692.442	5216.69
692.631	5083.57
692.82	5261.74
693.01	5171.63
693.199	5224.88
693.388	5110.19
693.578	5077.43
693.767	5341.61
693.956	5192.11
694.146	5147.06
694.335	5120.43
694.524	4942.26
694.713	5147.06
694.902	5022.13
695.092	4970.93
695.281	5085.62
695.47	5058.99
695.659	4966.84
695.848	4792.76
696.037	4958.64
696.226	4932.02
696.415	4895.16
696.604	4952.5
696.793	4977.08
696.982	4829.62
697.171	5018.04
697.36	4721.08
697.549	4723.13
697.738	4690.36
697.927	4768.18
698.116	4737.46
698.305	4712.89
698.494	4809.14
698.683	4698.55
698.872	4700.6
699.061	4639.16
699.25	4807.09
699.438	4766.14
699.627	4698.55
699.816	4708.79
700.005	4514.24
700.193	4514.24
700.382	4655.54
700.571	4536.76
700.76	4594.11
700.948	4696.5
701.137	4471.23
701.326	4475.32
701.514	4336.06
701.703	4471.23
701.892	4387.26
702.08	4506.04
702.269	4420.03
702.457	4305.34
702.646	4491.71
702.834	4487.61
703.023	4397.5
703.212	4379.07
703.4	4329.92
703.589	4102.59
703.777	4278.72
703.965	4217.28
704.154	4250.05
704.342	4223.42
704.531	4118.98
704.719	4180.42
704.907	4190.66
705.096	4274.62
705.284	4186.56
705.472	4039.11
705.661	4198.85
705.849	4307.39
706.037	4084.16
706.226	4104.64
706.414	4043.2
706.602	3955.14
706.79	4030.91
706.979	3957.19
707.167	4008.39
707.355	3901.89
707.543	3985.86
707.731	3946.95
707.919	3914.18
708.107	3889.6
708.296	3942.85
708.484	3822.02
708.672	3828.17
708.86	3889.6
709.048	3770.82
709.236	3715.53
709.424	3930.56
709.612	3719.62
709.8	3736.01
709.988	3764.68
710.176	3840.45
710.364	3793.35
710.551	3774.92
710.739	3729.86
710.927	3660.23
711.115	3746.25
711.303	3582.41
711.491	3719.62
711.679	3768.77
711.866	3723.72
712.054	3713.48
712.242	3619.27
712.43	3639.75
712.617	3572.17
712.805	3803.59
712.993	3609.03
713.181	3551.69
713.368	3459.53
713.556	3498.44
713.744	3447.24
713.931	3500.49
714.119	3469.77
714.306	3443.15
714.494	3525.07
714.682	3545.55
714.869	3381.71
715.057	3535.31
715.244	3338.7
715.432	3443.15
715.619	3402.19
715.807	3398.09
715.994	3396.04
716.182	3381.71
716.369	3269.07
716.556	3346.89
716.744	3459.53
716.931	3273.17
717.119	3381.71
717.306	3422.67
717.493	3158.48
717.681	3260.88
717.868	3224.01
718.055	3330.51
718.242	3324.37
718.43	3183.06
718.617	3330.51
718.804	3197.39
718.991	3213.77
719.179	3279.31
719.366	3205.58
719.553	3176.91
719.74	3221.97
719.927	3191.25
720.114	3123.66
720.301	3002.83
720.488	3181.01
720.676	3103.18
720.863	3172.82
721.05	3084.75
721.237	3027.41
721.424	3031.51
721.611	3068.37
721.798	2976.21
721.985	3027.41
722.172	2931.16
722.358	3008.98
722.545	2992.59
722.732	3008.98
722.919	2961.87
723.106	2873.81
723.293	2947.54
723.48	2871.76
723.667	3029.46
723.853	2951.63
724.04	2922.96
724.227	2949.59
724.414	2763.22
724.6	2771.41
724.787	2912.72
724.974	2890.2
725.161	2828.76
725.347	2836.95
725.534	2910.68
725.72	2746.84
725.907	2877.91
726.094	2812.37
726.28	2724.31
726.467	2726.36
726.653	2806.23
726.84	2634.2
727.027	2816.47
727.213	2683.35
727.4	2707.93
727.586	2771.41
727.773	2675.16
727.959	2587.1
728.145	2619.86
728.332	2746.84
728.518	2546.14
728.705	2617.82
728.891	2707.93
729.077	2779.61
729.264	2664.92
729.45	2742.74
729.636	2681.3
729.823	2669.02
730.009	2634.2
730.195	2539.99
730.382	2632.15
730.568	2636.25
730.754	2630.1
730.94	2722.26
731.126	2601.43
731.313	2609.62
731.499	2544.09
731.685	2558.42
731.871	2476.51
732.057	2564.57
732.243	2554.33
732.429	2501.08
732.615	2576.86
732.801	2574.81
732.987	2513.37
733.173	2552.28
733.359	2435.55
733.545	2458.07
733.731	2488.79
733.917	2496.99
734.103	2525.66
734.289	2583
734.475	2398.68
734.661	2437.59
734.847	2398.68
735.033	2269.66
735.219	2435.55
735.404	2320.86
735.59	2345.44
735.776	2357.72
735.962	2486.75
736.148	2437.59
736.333	2339.29
736.519	2372.06
736.705	2347.48
736.89	2355.68
737.076	2308.57
737.262	2222.56
737.447	2230.75
737.633	2204.13
737.819	2316.76
738.004	2206.17
738.19	2292.19
738.375	2331.1
738.561	2286.05
738.747	2206.17
738.932	2288.09
739.118	2210.27
739.303	2214.37
739.489	2148.83
739.674	2185.69
739.859	2167.26
740.045	2222.56
740.23	2206.17
740.416	2099.68
740.601	2195.93
740.786	2066.91
740.972	2152.93
741.157	2050.53
741.342	2005.47
741.528	2154.98
741.713	2097.63
741.898	2087.39
742.084	2075.1
742.269	2091.49
742.454	2013.67
742.639	2052.58
742.824	2136.54
743.01	2019.81
743.195	1991.14
743.38	2001.38
743.565	1997.28
743.75	2159.07
743.935	1954.27
744.12	2017.76
744.305	1972.71
744.49	2001.38
744.675	1989.09
744.86	1919.46
745.045	1917.41
745.23	2005.47
745.415	1944.03
745.6	1886.69
745.785	1886.69
745.97	1944.03
746.155	1831.4
746.34	1821.16
746.525	1839.59
746.71	1798.63
746.895	1769.96
747.079	1872.36
747.264	1794.53
747.449	1796.58
747.634	1833.44
747.819	1829.35
748.003	1776.1
748.188	1675.75
748.373	1743.33
748.557	1819.11
748.742	1696.23
748.927	1911.27
749.111	1681.89
749.296	1702.37
749.481	1669.61
749.665	1675.75
749.85	1642.98
750.034	1659.37
750.219	1698.28
750.404	1554.92
750.588	1446.38
750.773	1561.06
750.957	1597.93
751.141	1571.3
751.326	1567.21
751.51	1505.77
751.695	1477.1
751.879	1419.75
752.064	1575.4
752.248	1542.63
752.432	1583.59
752.617	1378.79
752.801	1460.71
752.985	1450.47
753.17	1442.28
753.354	1477.1
753.538	1460.71
753.722	1354.22
753.907	1432.04
754.091	1438.19
754.275	1411.56
754.459	1266.16
754.643	1346.03
754.828	1278.44
755.012	1419.75
755.196	1325.55
755.38	1307.12
755.564	1266.16
755.748	1362.41
755.932	1350.12
756.116	1313.26
756.3	1229.29
756.484	1323.5
756.668	1296.88
756.852	1272.3
757.036	1276.4
757.22	1096.18
757.404	1276.4
757.588	1288.68
757.772	1249.77
757.956	1165.81
758.14	1208.81
758.323	1128.94
758.507	1149.42
758.691	1159.66
758.875	1182.19
759.059	1206.77
759.242	1151.47
759.426	1192.43
759.61	1169.9
759.794	1092.08
759.977	1174
760.161	1190.38
760.345	1260.01
760.528	1087.98
760.712	1174
760.895	1087.98
761.079	1092.08
761.263	1028.59
761.446	1036.78
761.63	1092.08
761.813	1145.33
761.997	1010.16
762.18	1012.21
762.364	1038.83
762.547	1063.41
762.731	1026.54
762.914	969.2
763.098	1010.16
763.281	1104.37
763.464	1010.16
763.648	967.15
763.831	965.11
764.015	977.39
764.198	977.39
764.381	932.34
764.564	1047.02
764.748	934.39
764.931	1030.64
765.114	946.67
765.297	1018.35
765.481	895.47
765.664	971.25
765.847	1022.45
766.03	1036.78
766.213	922.1
766.397	885.23
766.58	926.19
766.763	1010.16
766.946	922.1
767.129	899.57
767.312	918
767.495	911.86
767.678	905.71
767.861	961.01
768.044	854.51
768.227	944.63
768.41	940.53
768.593	922.1
768.776	870.9
768.959	840.18
769.142	831.99
769.324	864.75
769.507	856.56
769.69	915.95
769.873	883.19
770.056	1001.97
770.239	934.39
770.421	883.19
770.604	907.76
770.787	879.09
770.97	862.71
771.152	915.95
771.335	977.39
771.518	866.8
771.7	829.94
771.883	895.47
772.066	842.23
772.248	791.03
772.431	872.95
772.613	834.04
772.796	846.32
772.978	815.6
773.161	821.75
773.343	731.64
773.526	682.49
773.708	774.64
773.891	750.07
774.073	766.45
774.256	758.26
774.438	784.88
774.621	715.25
774.803	829.94
774.985	698.87
775.168	748.02
775.35	739.83
775.532	748.02
775.715	743.92
775.897	733.68
776.079	764.4
776.261	764.4
776.444	766.45
776.626	715.25
776.808	688.63
776.99	659.96
777.173	662.01
777.355	633.33
777.537	729.59
777.719	633.33
777.901	721.4
778.083	721.4
778.265	662.01
778.447	727.54
778.629	659.96
778.811	668.15
778.993	653.81
779.175	608.76
779.357	625.14
779.539	594.42
779.721	649.72
779.903	641.53
780.085	600.57
780.267	659.96
780.449	657.91
780.631	627.19
780.812	633.33
780.994	602.61
781.176	559.61
781.358	567.8
781.54	553.46
781.721	651.77
781.903	584.18
782.085	545.27
782.267	633.33
782.448	494.07
782.63	532.98
782.812	578.04
782.993	616.95
783.175	602.61
783.357	530.94
783.538	520.7
783.72	541.18
783.901	575.99
784.083	539.13
784.264	512.5
784.446	528.89
784.627	469.5
784.809	510.46
784.99	465.4
785.172	457.21
785.353	541.18
785.535	522.74
785.716	502.26
785.897	461.3
786.079	473.59
786.26	479.74
786.441	406.01
786.623	391.67
786.804	489.98
786.985	463.35
787.167	449.02
787.348	389.63
787.529	516.6
787.71	518.65
787.891	379.39
788.073	348.67
788.254	338.43
788.435	385.53
788.616	330.23
788.797	330.23
788.978	463.35
789.159	440.83
789.34	510.46
789.522	354.81
789.703	395.77
789.884	438.78
790.065	430.59
790.246	377.34
790.427	340.47
790.607	461.3
790.788	342.52
790.969	373.24
791.15	371.19
791.331	330.23
791.512	424.44
791.693	322.04
791.874	385.53
792.054	381.43
792.235	432.63
792.416	324.09
792.597	354.81
792.778	322.04
792.958	324.09
793.139	340.47
793.32	283.13
793.5	381.43
793.681	385.53
793.862	313.85
794.042	338.43
794.223	324.09
794.404	383.48
794.584	322.04
794.765	313.85
794.945	301.56
795.126	350.71
795.306	395.77
795.487	264.7
795.667	322.04
795.848	367.1
796.028	225.79
796.209	299.52
796.389	281.08
796.57	293.37
796.75	233.98
796.93	373.24
797.111	322.04
797.291	289.28
797.471	350.71
797.652	297.47
797.832	221.69
798.012	365.05
798.192	254.46
798.373	281.08
798.553	254.46
798.733	305.66
798.913	223.74
799.093	231.93
799.274	258.56
799.454	254.46
799.634	309.76
799.814	297.47
799.994	309.76
800.174	387.58
800.354	203.26
800.534	256.51
800.714	342.52
800.894	266.75
801.074	223.74
801.254	231.93
801.434	240.12
801.614	209.4
801.794	205.31
801.974	805.36
802.154	320
802.334	289.28
802.514	199.16
802.693	219.64
802.873	160.25
803.053	225.79
803.233	186.88
803.413	242.17
803.592	227.84
803.772	293.37
803.952	317.95
804.131	186.88
804.311	158.21
804.491	268.8
804.67	162.3
804.85	240.12
805.03	223.74
805.209	207.36
805.389	244.22
805.568	141.82
805.748	203.26
805.928	184.83
806.107	184.83
806.287	233.98
806.466	262.65
806.646	240.12
806.825	119.29
807.004	215.55
807.184	240.12
807.363	207.36
807.543	158.21
807.722	190.97
807.901	197.12
808.081	150.01
808.26	137.73
808.439	182.78
808.619	207.36
808.798	244.22
808.977	211.45
809.156	242.17
809.336	180.73
809.515	231.93
809.694	178.69
809.873	125.44
810.052	186.88
810.231	240.12
810.411	213.5
810.59	225.79
810.769	156.16
810.948	113.15
811.127	166.4
811.306	113.15
811.485	92.67
811.664	221.69
811.843	129.53
812.022	145.92
812.201	168.45
812.38	223.74
812.559	201.21
812.737	229.88
812.916	82.43
813.095	207.36
813.274	160.25
813.453	100.86
813.632	174.59
813.811	264.7
813.989	152.06
814.168	152.06
814.347	168.45
814.526	178.69
814.704	201.21
814.883	195.07
815.062	145.92
815.24	190.97
815.419	55.81
815.598	172.54
815.776	154.11
815.955	143.87
816.133	74.24
816.312	201.21
816.49	84.48
816.669	150.01
816.847	164.35
817.026	137.73
817.204	88.57
817.383	117.25
817.561	88.57
817.74	150.01
817.918	197.12
818.097	168.45
818.275	80.38
818.453	70.14
818.632	39.42
818.81	135.68
818.988	109.05
819.167	88.57
819.345	133.63
819.523	88.57
819.701	215.55
819.879	113.15
820.058	158.21
820.236	125.44
820.414	109.05
820.592	160.25
820.77	178.69
820.948	121.34
821.127	109.05
821.305	86.53
821.483	76.29
821.661	115.2
821.839	154.11
822.017	94.72
822.195	92.67
822.373	117.25
822.551	166.4
822.729	68.09
822.907	92.67
823.085	20.99
823.262	119.29
823.44	41.47
823.618	88.57
823.796	115.2
823.974	18.94
824.152	82.43
824.329	80.38
824.507	100.86
824.685	96.77
824.863	117.25
825.04	119.29
825.218	109.05
825.396	127.49
825.574	115.2
825.751	135.68
825.929	119.29
826.107	84.48
826.284	158.21
826.462	125.44
826.639	109.05
826.817	39.42
826.994	125.44
827.172	135.68
827.349	133.63
827.527	84.48
827.704	80.38
827.882	107.01
828.059	117.25
828.237	31.23
828.414	127.49
828.591	64
828.769	125.44
828.946	88.57
829.124	150.01
829.301	168.45
829.478	102.91
829.655	53.76
829.833	109.05
830.01	66.05
830.187	98.81
830.364	51.71
830.542	109.05
830.719	160.25
830.896	84.48
831.073	90.62
831.25	51.71
831.427	119.29
831.604	51.71
831.782	84.48
831.959	186.88
832.136	125.44
832.313	102.91
832.49	131.58
832.667	72.19
832.844	131.58
833.021	166.4
833.198	68.09
833.374	51.71
833.551	59.9
833.728	135.68
833.905	53.76
834.082	121.34
834.259	64
834.436	64
834.612	35.33
834.789	94.72
834.966	-5.63
835.143	96.77
835.319	92.67
835.496	100.86
835.673	86.53
835.85	109.05
836.026	76.29
836.203	158.21
836.38	35.33
836.556	96.77
836.733	98.81
836.909	102.91
837.086	68.09
837.262	18.94
837.439	59.9
837.616	14.85
837.792	59.9
837.968	86.53
838.145	-58.88
838.321	-3.58
838.498	41.47
838.674	104.96
838.851	20.99
839.027	107.01
839.203	150.01
839.38	102.91
839.556	25.09
839.732	107.01
839.909	27.14
840.085	107.01
840.261	61.95
840.437	102.91
840.614	-62.98
840.79	39.42
840.966	72.19
841.142	59.9
841.318	-1.54
841.494	98.81
841.671	59.9
841.847	29.18
842.023	76.29
842.199	61.95
842.375	145.92
842.551	-9.73
842.727	57.86
842.903	100.86
843.079	31.23
843.255	102.91
843.431	43.52
843.607	51.71
843.783	-36.35
843.959	96.77
844.134	43.52
844.31	45.57
844.486	14.85
844.662	0.51
844.838	29.18
845.013	-28.16
845.189	76.29
845.365	47.62
845.541	-17.92
845.716	72.19
845.892	70.14
846.068	37.38
846.244	125.44
846.419	43.52
846.595	68.09
846.77	98.81
846.946	141.82
847.122	68.09
847.297	39.42
847.473	51.71
847.648	-46.59
847.824	92.67
847.999	14.85
848.175	59.9
848.35	-15.87
848.526	100.86
848.701	37.38
848.876	94.72
849.052	88.57
849.227	76.29
849.403	76.29
849.578	53.76
849.753	72.19
849.929	23.04
850.104	-54.78
850.279	8.7
850.454	76.29
850.63	94.72
850.805	23.04
850.98	43.52
851.155	59.9
851.33	6.66
851.505	-36.35
851.681	88.57
851.856	-24.06
852.031	109.05
852.206	6.66
852.381	61.95
852.556	35.33
852.731	27.14
852.906	6.66
853.081	-28.16
853.256	68.09
853.431	92.67
853.606	10.75
853.781	2.56
853.956	-71.17
854.131	96.77
854.305	37.38
854.48	-22.02
854.655	55.81
854.83	6.66
855.005	92.67
855.18	20.99
855.354	20.99
855.529	74.24
855.704	64
855.879	2.56
856.053	43.52
856.228	78.33
856.403	-7.68
856.577	70.14
856.752	41.47
856.926	-1.54
857.101	10.75
857.276	6.66
857.45	76.29
857.625	29.18
857.799	45.57
857.974	-5.63
858.148	49.66
858.323	119.29
858.497	10.75
858.672	-13.82
858.846	-3.58
859.02	49.66
859.195	27.14
859.369	45.57
859.543	29.18
859.718	18.94
859.892	72.19
860.066	59.9
860.241	-19.97
860.415	-5.63
860.589	-32.26
860.763	-60.93
860.938	27.14
861.112	100.86
861.286	14.85
861.46	20.99
861.634	-11.78
861.808	18.94
861.982	23.04
862.157	10.75
862.331	55.81
862.505	55.81
862.679	-38.4
862.853	-30.21
863.027	59.9
863.201	127.49
863.375	-22.02
863.549	92.67
863.722	2.56
863.896	88.57
864.07	-13.82
864.244	-22.02
864.418	35.33
864.592	12.8
864.766	57.86
864.939	72.19
865.113	-1.54
865.287	43.52
865.461	18.94
865.634	39.42
865.808	43.52
865.982	-50.69
866.156	-13.82
866.329	35.33
866.503	55.81
866.676	74.24
866.85	4.61
867.024	12.8
867.197	4.61
867.371	72.19
867.544	-22.02
867.718	33.28
867.891	49.66
868.065	-19.97
868.238	-42.5
868.412	90.62
868.585	-13.82
868.759	23.04
868.932	-1.54
869.105	-13.82
869.279	31.23
869.452	-17.92
869.625	-17.92
869.799	96.77
869.972	-7.68
870.145	-50.69
870.319	84.48
870.492	-52.74
870.665	-34.3
870.838	45.57
871.011	-67.07
871.185	-38.4
871.358	41.47
871.531	-9.73
871.704	31.23
871.877	-58.88
872.05	18.94
872.223	23.04
872.396	18.94
872.569	53.76
872.742	-40.45
872.915	72.19
873.088	68.09
873.261	39.42
873.434	-1.54
873.607	20.99
873.78	-22.02
873.953	-38.4
874.126	-26.11
874.299	-7.68
874.471	47.62
874.644	68.09
874.817	27.14
874.99	100.86
875.163	-3.58
875.335	70.14
875.508	27.14
875.681	2.56
875.853	-67.07
876.026	18.94
876.199	-17.92
876.371	25.09
876.544	18.94
876.717	76.29
876.889	-5.63
877.062	109.05
877.234	10.75
877.407	66.05
877.579	45.57
877.752	16.9
877.924	-5.63
878.097	51.71
878.269	14.85
878.442	45.57
878.614	8.7
878.786	66.05
878.959	27.14
879.131	18.94
879.303	-52.74
879.476	109.05
879.648	51.71
879.82	84.48
879.993	-28.16
880.165	78.33
880.337	-42.5
880.509	2.56
880.681	-19.97
880.854	-22.02
881.026	20.99
881.198	100.86
881.37	55.81
881.542	51.71
881.714	39.42
881.886	20.99
882.058	8.7
882.23	20.99
882.402	4.61
882.574	-3.58
882.746	127.49
882.918	18.94
883.09	55.81
883.262	-17.92
883.434	70.14
883.606	20.99
883.778	-60.93
883.95	100.86
884.122	-42.5
884.293	43.52
884.465	-24.06
884.637	80.38
884.809	10.75
884.98	29.18
885.152	-69.12
885.324	51.71
885.496	14.85
885.667	-13.82
885.839	-30.21
886.011	113.15
886.182	-11.78
886.354	37.38
886.525	23.04
886.697	4.61
886.869	-36.35
887.04	-22.02
887.212	76.29
887.383	88.57
887.555	29.18
887.726	4.61
887.897	-22.02
888.069	-13.82
888.24	29.18
888.412	-22.02
888.583	33.28
888.754	-7.68
888.926	10.75
889.097	33.28
889.268	-22.02
889.44	-44.54
889.611	27.14
889.782	37.38
889.953	-48.64
890.125	66.05
890.296	-19.97
890.467	23.04
890.638	-30.21
890.809	-22.02
890.98	37.38
891.151	-5.63
891.323	-19.97
891.494	2.56
891.665	14.85
891.836	-46.59
892.007	-19.97
892.178	76.29
892.349	39.42
892.52	0.51
892.691	-9.73
892.862	27.14
893.032	14.85
893.203	-13.82
893.374	-5.63
893.545	80.38
893.716	-52.74
893.887	-62.98
894.057	12.8
894.228	-13.82
894.399	23.04
894.57	14.85
894.74	-13.82
894.911	-15.87
895.082	-50.69
895.253	6.66
895.423	-15.87
895.594	37.38
895.764	-19.97
895.935	8.7
896.106	-22.02
896.276	-34.3
896.447	10.75
896.617	12.8
896.788	-17.92
896.958	23.04
897.129	-83.45
897.299	-13.82
897.47	-26.11
897.64	35.33
897.81	2.56
897.981	20.99
898.151	-44.54
898.322	68.09
898.492	35.33
898.662	-60.93
898.832	14.85
899.003	-36.35
899.173	4.61
899.343	-28.16
899.513	57.86
