Data from USB4F104151__293__14-34-53-573.txt Node

Date: Thu Mar 13 14:34:53 EDT 2025
User: louis
Spectrometer: USB4F10415
Trigger mode: 4
Integration Time (sec): 2.500000E-2
Scans to average: 1
Electric dark correction enabled: true
Nonlinearity correction enabled: false
Boxcar width: 0
XAxis mode: Wavelengths
Number of Pixels in Spectrum: 3648
>>>>>Begin Spectral Data<<<<<
178.204	-121.17
178.424	-121.17
178.644	-121.17
178.864	-178.51
179.084	-84.31
179.304	-26.96
179.524	-69.97
179.744	18.09
179.964	26.28
180.184	-16.73
180.404	32.43
180.624	-6.49
180.844	7.85
181.064	16.04
181.283	40.62
181.503	16.04
181.723	-37.2
181.943	-16.73
182.163	138.92
182.383	-16.73
182.602	89.77
182.822	67.24
183.042	16.04
183.262	22.19
183.482	26.28
183.701	9.9
183.921	-29.01
184.141	-14.68
184.361	108.2
184.58	24.23
184.8	32.43
185.02	50.86
185.239	91.82
185.459	83.63
185.679	91.82
185.898	5.8
186.118	1.71
186.338	89.77
186.557	89.77
186.777	48.81
186.997	-8.53
187.216	79.53
187.436	151.21
187.655	67.24
187.875	116.39
188.095	-16.73
188.314	28.33
188.534	3.75
188.753	9.9
188.973	1.71
189.192	77.48
189.412	38.57
189.631	100.01
189.851	-41.3
190.07	130.73
190.29	65.19
190.509	32.43
190.729	-12.63
190.948	3.75
191.168	233.13
191.387	155.3
191.607	46.76
191.826	89.77
192.045	65.19
192.265	24.23
192.484	44.71
192.704	-45.4
192.923	28.33
193.142	81.58
193.362	69.29
193.581	65.19
193.8	36.52
194.02	69.29
194.239	24.23
194.458	57
194.678	69.29
194.897	108.2
195.116	77.48
195.335	42.67
195.555	81.58
195.774	-0.34
195.993	57
196.212	16.04
196.432	77.48
196.651	24.23
196.87	42.67
197.089	138.92
197.308	73.39
197.528	106.15
197.747	-20.82
197.966	34.47
198.185	75.43
198.404	24.23
198.623	69.29
198.842	108.2
199.062	77.48
199.281	18.09
199.5	52.91
199.719	61.1
199.938	91.82
200.157	52.91
200.376	46.76
200.595	1.71
200.814	52.91
201.033	38.57
201.252	52.91
201.471	42.67
201.69	75.43
201.909	48.81
202.128	67.24
202.347	32.43
202.566	97.96
202.785	44.71
203.004	48.81
203.223	97.96
203.442	67.24
203.661	32.43
203.879	120.49
204.098	118.44
204.317	16.04
204.536	112.3
204.755	71.34
204.974	18.09
205.193	24.23
205.411	108.2
205.63	69.29
205.849	40.62
206.068	81.58
206.287	16.04
206.505	18.09
206.724	16.04
206.943	42.67
207.162	-33.11
207.381	-18.77
207.599	69.29
207.818	46.76
208.037	40.62
208.255	118.44
208.474	54.95
208.693	67.24
208.911	59.05
209.13	67.24
209.349	16.04
209.567	89.77
209.786	104.11
210.005	106.15
210.223	85.67
210.442	-80.21
210.661	69.29
210.879	24.23
211.098	24.23
211.316	40.62
211.535	57
211.753	-41.3
211.972	89.77
212.191	32.43
212.409	50.86
212.628	-20.82
212.846	11.95
213.065	81.58
213.283	57
213.502	40.62
213.72	32.43
213.938	65.19
214.157	20.14
214.375	73.39
214.594	93.87
214.812	44.71
215.031	5.8
215.249	48.81
215.467	-8.53
215.686	91.82
215.904	75.43
216.122	-47.44
216.341	83.63
216.559	11.95
216.778	28.33
216.996	65.19
217.214	32.43
217.432	50.86
217.651	9.9
217.869	65.19
218.087	93.87
218.306	24.23
218.524	52.91
218.742	75.43
218.96	42.67
219.179	13.99
219.397	83.63
219.615	157.35
219.833	48.81
220.051	-12.63
220.27	40.62
220.488	22.19
220.706	77.48
220.924	24.23
221.142	9.9
221.36	73.39
221.578	-16.73
221.796	18.09
222.015	50.86
222.233	48.81
222.451	118.44
222.669	81.58
222.887	52.91
223.105	73.39
223.323	52.91
223.541	30.38
223.759	104.11
223.977	57
224.195	95.91
224.413	57
224.631	81.58
224.849	83.63
225.067	65.19
225.285	32.43
225.503	73.39
225.721	-94.55
225.939	26.28
226.157	28.33
226.375	114.34
226.592	-20.82
226.81	48.81
227.028	57
227.246	24.23
227.464	130.73
227.682	-4.44
227.9	48.81
228.117	147.11
228.335	73.39
228.553	40.62
228.771	95.91
228.989	38.57
229.206	-18.77
229.424	-20.82
229.642	11.95
229.86	-12.63
230.077	26.28
230.295	1.71
230.513	18.09
230.731	52.91
230.948	57
231.166	81.58
231.384	-22.87
231.601	-33.11
231.819	28.33
232.037	42.67
232.254	-43.35
232.472	50.86
232.689	-61.78
232.907	155.3
233.125	-33.11
233.342	36.52
233.56	-16.73
233.777	-37.2
233.995	93.87
234.213	124.58
234.43	50.86
234.648	26.28
234.865	106.15
235.083	42.67
235.3	20.14
235.518	-22.87
235.735	75.43
235.953	81.58
236.17	63.15
236.388	59.05
236.605	-78.16
236.822	9.9
237.04	9.9
237.257	50.86
237.475	-24.92
237.692	16.04
237.909	73.39
238.127	151.21
238.344	59.05
238.562	22.19
238.779	48.81
238.996	7.85
239.214	73.39
239.431	81.58
239.648	-16.73
239.865	65.19
240.083	118.44
240.3	18.09
240.517	-31.06
240.735	26.28
240.952	3.75
241.169	89.77
241.386	54.95
241.603	75.43
241.821	20.14
242.038	161.45
242.255	-8.53
242.472	16.04
242.689	95.91
242.907	20.14
243.124	-14.68
243.341	91.82
243.558	-33.11
243.775	-8.53
243.992	24.23
244.209	114.34
244.426	138.92
244.643	42.67
244.86	34.47
245.078	97.96
245.295	57
245.512	-14.68
245.729	-0.34
245.946	118.44
246.163	1.71
246.38	57
246.597	54.95
246.814	9.9
247.031	65.19
247.248	91.82
247.464	26.28
247.681	48.81
247.898	48.81
248.115	24.23
248.332	22.19
248.549	89.77
248.766	89.77
248.983	11.95
249.2	38.57
249.417	81.58
249.633	36.52
249.85	32.43
250.067	40.62
250.284	26.28
250.501	59.05
250.717	16.04
250.934	1.71
251.151	110.25
251.368	30.38
251.585	16.04
251.801	34.47
252.018	7.85
252.235	9.9
252.451	-53.59
252.668	-33.11
252.885	57
253.102	57
253.318	59.05
253.535	32.43
253.752	3.75
253.968	116.39
254.185	-20.82
254.401	42.67
254.618	100.01
254.835	22.19
255.051	73.39
255.268	-2.39
255.484	26.28
255.701	32.43
255.917	24.23
256.134	24.23
256.351	52.91
256.567	32.43
256.784	65.19
257	-37.2
257.217	24.23
257.433	67.24
257.65	38.57
257.866	16.04
258.082	-41.3
258.299	34.47
258.515	85.67
258.732	48.81
258.948	-8.53
259.165	1.71
259.381	-20.82
259.597	136.87
259.814	40.62
260.03	24.23
260.246	16.04
260.463	69.29
260.679	100.01
260.895	48.81
261.112	46.76
261.328	-12.63
261.544	24.23
261.761	75.43
261.977	52.91
262.193	-6.49
262.409	134.82
262.626	67.24
262.842	52.91
263.058	32.43
263.274	93.87
263.49	73.39
263.707	114.34
263.923	59.05
264.139	11.95
264.355	79.53
264.571	100.01
264.787	32.43
265.004	61.1
265.22	83.63
265.436	-8.53
265.652	26.28
265.868	65.19
266.084	34.47
266.3	61.1
266.516	-6.49
266.732	89.77
266.948	69.29
267.164	73.39
267.38	91.82
267.596	7.85
267.812	167.59
268.028	61.1
268.244	3.75
268.46	42.67
268.676	81.58
268.892	26.28
269.108	-16.73
269.324	-14.68
269.54	91.82
269.756	40.62
269.972	-8.53
270.188	18.09
270.403	-29.01
270.619	-20.82
270.835	44.71
271.051	-24.92
271.267	-65.88
271.483	20.14
271.698	89.77
271.914	30.38
272.13	57
272.346	73.39
272.562	-0.34
272.777	-8.53
272.993	69.29
273.209	73.39
273.425	26.28
273.64	11.95
273.856	110.25
274.072	42.67
274.287	28.33
274.503	91.82
274.719	77.48
274.934	63.15
275.15	-8.53
275.366	1.71
275.581	-4.44
275.797	-0.34
276.012	44.71
276.228	-8.53
276.444	57
276.659	-2.39
276.875	89.77
277.09	40.62
277.306	24.23
277.521	57
277.737	28.33
277.952	59.05
278.168	61.1
278.383	18.09
278.599	9.9
278.814	65.19
279.03	-31.06
279.245	110.25
279.461	48.81
279.676	91.82
279.892	-57.68
280.107	63.15
280.322	40.62
280.538	50.86
280.753	34.47
280.969	81.58
281.184	91.82
281.399	77.48
281.615	-39.25
281.83	73.39
282.045	-2.39
282.26	95.91
282.476	-8.53
282.691	48.81
282.906	22.19
283.122	65.19
283.337	-8.53
283.552	48.81
283.767	69.29
283.983	124.58
284.198	57
284.413	57
284.628	40.62
284.843	40.62
285.058	67.24
285.274	52.91
285.489	5.8
285.704	7.85
285.919	52.91
286.134	73.39
286.349	11.95
286.564	-35.16
286.779	52.91
286.995	20.14
287.21	32.43
287.425	73.39
287.64	108.2
287.855	83.63
288.07	3.75
288.285	79.53
288.5	77.48
288.715	73.39
288.93	32.43
289.145	20.14
289.36	138.92
289.575	11.95
289.79	34.47
290.004	16.04
290.219	57
290.434	97.96
290.649	32.43
290.864	32.43
291.079	44.71
291.294	36.52
291.509	65.19
291.724	32.43
291.938	44.71
292.153	57
292.368	46.76
292.583	-31.06
292.798	171.69
293.012	100.01
293.227	67.24
293.442	7.85
293.657	69.29
293.871	63.15
294.086	93.87
294.301	67.24
294.516	100.01
294.73	32.43
294.945	16.04
295.16	83.63
295.374	67.24
295.589	85.67
295.804	130.73
296.018	48.81
296.233	11.95
296.447	44.71
296.662	52.91
296.877	54.95
297.091	38.57
297.306	97.96
297.52	13.99
297.735	57
297.949	38.57
298.164	61.1
298.378	89.77
298.593	-8.53
298.807	77.48
299.022	151.21
299.236	122.54
299.451	40.62
299.665	93.87
299.88	89.77
300.094	57
300.309	-0.34
300.523	114.34
300.737	28.33
300.952	73.39
301.166	73.39
301.381	22.19
301.595	1.71
301.809	61.1
302.024	1.71
302.238	24.23
302.452	112.3
302.667	114.34
302.881	89.77
303.095	32.43
303.309	44.71
303.524	-0.34
303.738	26.28
303.952	-24.92
304.166	16.04
304.381	-16.73
304.595	81.58
304.809	11.95
305.023	73.39
305.237	-16.73
305.452	95.91
305.666	16.04
305.88	-0.34
306.094	110.25
306.308	42.67
306.522	104.11
306.736	40.62
306.95	77.48
307.164	22.19
307.379	59.05
307.593	83.63
307.807	-12.63
308.021	97.96
308.235	89.77
308.449	40.62
308.663	40.62
308.877	112.3
309.091	48.81
309.305	89.77
309.519	9.9
309.733	79.53
309.947	-4.44
310.161	57
310.374	79.53
310.588	67.24
310.802	61.1
311.016	18.09
311.23	106.15
311.444	18.09
311.658	106.15
311.872	130.73
312.085	18.09
312.299	122.54
312.513	110.25
312.727	34.47
312.941	24.23
313.154	-0.34
313.368	24.23
313.582	77.48
313.796	-8.53
314.009	-16.73
314.223	100.01
314.437	83.63
314.651	-0.34
314.864	73.39
315.078	-8.53
315.292	57
315.505	-8.53
315.719	71.34
315.933	118.44
316.146	73.39
316.36	50.86
316.573	54.95
316.787	65.19
317.001	77.48
317.214	-14.68
317.428	50.86
317.641	40.62
317.855	50.86
318.068	143.02
318.282	-4.44
318.495	97.96
318.709	102.06
318.922	69.29
319.136	163.5
319.349	102.06
319.563	-12.63
319.776	-8.53
319.99	38.57
320.203	24.23
320.417	11.95
320.63	83.63
320.843	106.15
321.057	81.58
321.27	67.24
321.483	18.09
321.697	100.01
321.91	91.82
322.124	28.33
322.337	57
322.55	-41.3
322.763	57
322.977	61.1
323.19	28.33
323.403	34.47
323.617	20.14
323.83	65.19
324.043	24.23
324.256	155.3
324.469	9.9
324.683	95.91
324.896	16.04
325.109	22.19
325.322	26.28
325.535	97.96
325.748	67.24
325.962	77.48
326.175	165.54
326.388	22.19
326.601	122.54
326.814	44.71
327.027	130.73
327.24	114.34
327.453	-0.34
327.666	100.01
327.879	100.01
328.092	75.43
328.305	42.67
328.518	-14.68
328.731	-0.34
328.944	-41.3
329.157	110.25
329.37	7.85
329.583	159.4
329.796	5.8
330.009	-2.39
330.222	13.99
330.435	106.15
330.648	130.73
330.861	20.14
331.073	93.87
331.286	36.52
331.499	65.19
331.712	28.33
331.925	75.43
332.138	36.52
332.35	155.3
332.563	16.04
332.776	20.14
332.989	34.47
333.202	93.87
333.414	81.58
333.627	40.62
333.84	65.19
334.053	24.23
334.265	-29.01
334.478	34.47
334.691	40.62
334.903	73.39
335.116	-47.44
335.329	38.57
335.541	69.29
335.754	149.16
335.966	16.04
336.179	116.39
336.392	61.1
336.604	57
336.817	97.96
337.029	5.8
337.242	85.67
337.454	89.77
337.667	48.81
337.88	75.43
338.092	89.77
338.305	57
338.517	24.23
338.729	85.67
338.942	128.68
339.154	32.43
339.367	-14.68
339.579	97.96
339.792	30.38
340.004	81.58
340.217	42.67
340.429	40.62
340.641	24.23
340.854	-4.44
341.066	1.71
341.278	-24.92
341.491	188.07
341.703	67.24
341.915	-20.82
342.128	67.24
342.34	26.28
342.552	7.85
342.764	-45.4
342.977	157.35
343.189	143.02
343.401	32.43
343.613	61.1
343.826	42.67
344.038	87.72
344.25	114.34
344.462	32.43
344.674	61.1
344.886	1.71
345.099	59.05
345.311	40.62
345.523	46.76
345.735	36.52
345.947	57
346.159	75.43
346.371	61.1
346.583	-14.68
346.795	100.01
347.007	7.85
347.219	89.77
347.431	83.63
347.643	112.3
347.855	-45.4
348.067	73.39
348.279	-41.3
348.491	104.11
348.703	59.05
348.915	44.71
349.127	36.52
349.339	42.67
349.551	46.76
349.763	97.96
349.975	91.82
350.187	102.06
350.399	108.2
350.61	165.54
350.822	32.43
351.034	81.58
351.246	65.19
351.458	143.02
351.669	52.91
351.881	46.76
352.093	69.29
352.305	40.62
352.517	73.39
352.728	73.39
352.94	46.76
353.152	97.96
353.363	32.43
353.575	69.29
353.787	145.06
353.999	100.01
354.21	138.92
354.422	48.81
354.633	67.24
354.845	28.33
355.057	100.01
355.268	65.19
355.48	85.67
355.692	9.9
355.903	130.73
356.115	67.24
356.326	7.85
356.538	69.29
356.749	81.58
356.961	67.24
357.172	69.29
357.384	1.71
357.595	48.81
357.807	42.67
358.018	42.67
358.23	114.34
358.441	130.73
358.653	42.67
358.864	7.85
359.075	52.91
359.287	130.73
359.498	73.39
359.709	114.34
359.921	81.58
360.132	50.86
360.344	61.1
360.555	50.86
360.766	24.23
360.977	-0.34
361.189	155.3
361.4	46.76
361.611	73.39
361.823	73.39
362.034	40.62
362.245	7.85
362.456	42.67
362.667	85.67
362.879	16.04
363.09	57
363.301	73.39
363.512	67.24
363.723	57
363.935	65.19
364.146	114.34
364.357	36.52
364.568	18.09
364.779	34.47
364.99	97.96
365.201	48.81
365.412	89.77
365.623	-35.16
365.834	81.58
366.045	114.34
366.256	89.77
366.467	24.23
366.678	89.77
366.889	108.2
367.1	54.95
367.311	48.81
367.522	77.48
367.733	42.67
367.944	110.25
368.155	65.19
368.366	75.43
368.577	116.39
368.788	155.3
368.999	44.71
369.209	65.19
369.42	190.12
369.631	52.91
369.842	63.15
370.053	18.09
370.264	32.43
370.474	85.67
370.685	97.96
370.896	69.29
371.107	83.63
371.317	143.02
371.528	9.9
371.739	83.63
371.95	11.95
372.16	16.04
372.371	-45.4
372.582	32.43
372.792	87.72
373.003	-8.53
373.214	48.81
373.424	50.86
373.635	40.62
373.846	134.82
374.056	18.09
374.267	100.01
374.477	67.24
374.688	16.04
374.898	67.24
375.109	65.19
375.319	75.43
375.53	97.96
375.74	40.62
375.951	-26.96
376.161	16.04
376.372	26.28
376.582	145.06
376.793	77.48
377.003	32.43
377.214	11.95
377.424	63.15
377.635	52.91
377.845	102.06
378.055	83.63
378.266	1.71
378.476	57
378.686	132.78
378.897	61.1
379.107	71.34
379.317	71.34
379.528	28.33
379.738	110.25
379.948	-63.83
380.158	118.44
380.369	95.91
380.579	130.73
380.789	140.97
380.999	143.02
381.21	57
381.42	140.97
381.63	104.11
381.84	81.58
382.05	198.31
382.261	81.58
382.471	77.48
382.681	30.38
382.891	40.62
383.101	112.3
383.311	91.82
383.521	116.39
383.731	61.1
383.941	40.62
384.151	118.44
384.361	9.9
384.571	138.92
384.781	132.78
384.991	114.34
385.201	89.77
385.411	81.58
385.621	114.34
385.831	65.19
386.041	81.58
386.251	32.43
386.461	147.11
386.671	136.87
386.881	81.58
387.091	3.75
387.301	130.73
387.511	57
387.72	130.73
387.93	50.86
388.14	-2.39
388.35	63.15
388.56	114.34
388.769	63.15
388.979	102.06
389.189	32.43
389.399	163.5
389.609	97.96
389.818	108.2
390.028	-0.34
390.238	143.02
390.447	61.1
390.657	143.02
390.867	16.04
391.076	48.81
391.286	75.43
391.496	89.77
391.705	40.62
391.915	124.58
392.125	40.62
392.334	89.77
392.544	93.87
392.753	145.06
392.963	65.19
393.172	118.44
393.382	71.34
393.591	132.78
393.801	54.95
394.01	122.54
394.22	128.68
394.429	124.58
394.639	57
394.848	155.3
395.058	26.28
395.267	116.39
395.477	161.45
395.686	124.58
395.895	171.69
396.105	116.39
396.314	85.67
396.524	188.07
396.733	48.81
396.942	220.84
397.152	77.48
397.361	132.78
397.57	163.5
397.78	102.06
397.989	57
398.198	181.93
398.407	67.24
398.617	155.3
398.826	106.15
399.035	42.67
399.244	204.46
399.453	59.05
399.663	97.96
399.872	57
400.081	50.86
400.29	155.3
400.499	83.63
400.708	130.73
400.917	177.83
401.127	122.54
401.336	91.82
401.545	165.54
401.754	188.07
401.963	163.5
402.172	220.84
402.381	97.96
402.59	122.54
402.799	179.88
403.008	204.46
403.217	151.21
403.426	165.54
403.635	147.11
403.844	233.13
404.053	216.74
404.262	200.36
404.471	259.75
404.68	286.37
404.888	151.21
405.097	173.74
405.306	233.13
405.515	188.07
405.724	224.94
405.933	192.17
406.142	194.22
406.35	231.08
406.559	220.84
406.768	259.75
406.977	222.89
407.185	237.22
407.394	263.85
407.603	233.13
407.812	351.91
408.02	392.87
408.229	288.42
408.438	263.85
408.646	313
408.855	265.89
409.064	306.85
409.272	376.48
409.481	329.38
409.69	378.53
409.898	284.33
410.107	382.63
410.315	425.64
410.524	356.01
410.733	437.92
410.941	487.08
411.15	433.83
411.358	532.13
411.567	507.55
411.775	532.13
411.984	509.6
412.192	548.51
412.401	558.75
412.609	597.67
412.818	632.48
413.026	679.58
413.234	659.1
413.443	648.86
413.651	622.24
413.86	679.58
414.068	667.3
414.276	798.37
414.485	786.08
414.693	868
414.901	908.96
415.11	818.85
415.318	947.87
415.526	966.3
415.734	958.11
415.943	982.68
416.151	1033.88
416.359	1070.75
416.567	1128.09
416.776	1111.71
416.984	1046.17
417.192	1296.02
417.4	1195.67
417.608	1205.91
417.817	1328.79
418.025	1363.61
418.233	1476.24
418.441	1425.04
418.649	1453.72
418.857	1568.4
419.065	1523.35
419.273	1515.16
419.481	1693.33
419.689	1814.16
419.897	1871.5
420.105	1904.27
420.313	1867.41
420.521	2010.76
420.729	1953.42
420.937	2113.16
421.145	2188.94
421.353	2186.89
421.561	2483.84
421.769	2449.03
421.977	2563.72
422.185	2467.46
422.393	2782.85
422.601	2942.59
422.809	2702.98
423.017	2866.81
423.224	2926.21
423.432	3145.34
423.64	3194.49
423.848	3409.53
424.056	3423.86
424.263	3712.63
424.471	3532.4
424.679	3722.87
424.887	3780.21
425.094	3939.95
425.302	3999.34
425.51	4148.84
425.718	4269.67
425.925	4431.46
426.133	4316.78
426.341	4611.68
426.548	4900.45
426.756	4736.61
426.964	4914.78
427.171	5187.16
427.379	5250.65
427.586	5572.18
427.794	5506.65
428.001	5830.23
428.209	6162
428.417	6069.84
428.624	6325.83
428.832	6389.32
429.039	6389.32
429.247	6438.47
429.454	6854.21
429.662	7532.09
429.869	6991.42
430.076	7431.74
430.284	7257.66
430.491	7650.87
430.699	7783.99
430.906	8072.75
431.114	8164.91
431.321	8554.02
431.528	8568.36
431.736	9076.26
431.943	9688.6
432.15	9084.45
432.358	9207.33
432.565	9682.45
432.772	9471.51
432.979	10178.06
433.187	10288.65
433.394	10550.79
433.601	11118.08
433.808	11197.95
434.016	11105.79
434.223	11378.17
434.43	12269.04
434.637	12000.76
434.844	12877.29
435.052	13059.56
435.259	12787.18
435.466	13219.3
435.673	13090.27
435.88	13733.34
436.087	14491.09
436.294	14378.45
436.501	14212.56
436.708	14433.74
436.915	14882.25
437.122	15293.89
437.329	15601.08
437.537	16033.21
437.743	16203.19
437.95	16305.59
438.157	17046.95
438.364	17702.3
438.571	17407.39
438.778	17663.39
438.985	19156.36
439.192	18619.79
439.399	19191.17
439.606	18541.97
439.813	19973.5
440.02	20880.75
440.227	20465.01
440.433	20426.1
440.64	20991.34
440.847	20585.84
441.054	21468.52
441.261	22642
441.467	22351.19
441.674	22891.85
441.881	23792.96
442.088	23305.54
442.294	23477.57
442.501	23911.74
442.708	24544.56
442.914	25531.69
443.121	26543.38
443.328	25724.19
443.534	27630.85
443.741	26764.56
443.948	26215.71
444.154	28531.96
444.361	28421.37
444.568	28153.09
444.774	28251.39
444.981	28374.27
445.187	29494.5
445.394	30405.85
445.6	30641.37
445.807	33160.37
446.013	31386.83
446.22	32093.38
446.426	33615.02
446.633	34000.04
446.839	35183.76
447.046	33768.62
447.252	35390.61
447.459	35470.48
447.665	35550.35
447.871	37069.94
448.078	38548.57
448.284	36582.52
448.491	37504.11
448.697	38859.87
448.903	39693.39
449.11	39558.22
449.316	39304.27
449.522	40086.6
449.728	40709.18
449.935	40983.61
450.141	41415.73
450.347	42105.9
450.553	40889.4
450.76	41239.61
450.966	42406.95
451.172	42556.45
451.378	43551.76
451.584	42423.33
451.791	43496.47
451.997	43201.56
452.203	43981.84
452.409	44164.1
452.615	44254.22
452.821	42329.12
453.027	41735.21
453.233	43971.6
453.44	41995.31
453.646	42388.52
453.852	42746.91
454.058	43822.09
454.264	41980.97
454.47	43129.88
454.676	41995.31
454.882	43318.29
455.088	39732.3
455.294	40518.72
455.5	40692.8
455.705	41301.04
455.911	40109.13
456.117	39193.68
456.323	38743.13
456.529	36240.51
456.735	38204.52
456.941	36791.42
457.147	36471.93
457.352	35284.11
457.558	34755.74
457.764	35402.89
457.97	34593.95
458.176	33719.46
458.381	33348.78
458.587	32373.95
458.793	31673.54
458.999	30391.51
459.204	32480.44
459.41	31544.52
459.616	29351.15
459.821	29533.42
460.027	29357.29
460.233	28644.6
460.438	27110.67
460.644	27589.89
460.85	26819.86
461.055	25969.95
461.261	25890.08
461.466	23940.41
461.672	23444.8
461.878	24665.39
462.083	23174.47
462.289	23092.55
462.494	22615.38
462.7	21437.8
462.905	21013.87
463.111	21919.07
463.316	21734.75
463.522	21484.9
463.727	21239.14
463.932	21292.39
464.138	20864.36
464.343	21054.83
464.549	20393.33
464.754	21020.01
464.959	21058.92
465.165	20434.29
465.37	19838.33
465.575	19219.85
465.781	20008.31
465.986	20215.16
466.191	19336.58
466.397	19041.67
466.602	18285.97
466.807	18738.57
467.012	18832.78
467.218	18832.78
467.423	18214.29
467.628	18515.34
467.833	19393.92
468.038	18404.75
468.244	17921.43
468.449	18609.55
468.654	18054.55
468.859	17868.19
469.064	17907.1
469.269	17235.36
469.474	17565.09
469.679	17671.58
469.885	17014.18
470.09	17210.79
470.295	17161.64
470.5	16793
470.705	16866.73
470.91	16475.57
471.115	16559.53
471.32	16596.4
471.525	16567.73
471.73	16168.37
471.935	15926.71
472.139	15531.45
472.344	15640
472.549	15445.44
472.754	15150.53
472.959	14869.96
473.164	14779.85
473.369	14640.59
473.574	15154.63
473.778	14917.06
473.983	14689.74
474.188	14730.7
474.393	14018
474.598	14243.28
474.802	14114.26
475.007	14003.67
475.212	13669.85
475.417	13448.67
475.621	13319.65
475.826	13331.94
476.031	13417.95
476.235	12844.52
476.44	13151.71
476.645	13018.6
476.849	12897.77
477.054	12713.45
477.259	12606.95
477.463	12391.92
477.668	12283.38
477.872	12516.84
478.077	12166.64
478.282	11689.46
478.486	11755
478.691	11722.23
478.895	11505.15
479.1	11660.79
479.304	11804.15
479.509	11480.57
479.713	11427.32
479.918	11238.91
480.122	11083.27
480.326	11314.69
480.531	11222.53
480.735	11064.83
480.94	10857.99
481.144	11318.78
481.348	10792.45
481.553	10860.04
481.757	10782.21
481.961	10702.34
482.166	11052.55
482.37	10958.34
482.574	10620.42
482.778	10696.2
482.983	10831.37
483.187	11030.02
483.391	10763.78
483.595	10892.8
483.8	10339.85
484.004	10702.34
484.208	10845.7
484.412	10712.58
484.616	10806.79
484.821	10563.08
485.025	10698.25
485.229	10788.36
485.433	10567.18
485.637	10610.18
485.841	10515.98
486.045	10505.74
486.249	10567.18
486.453	10509.83
486.657	10624.52
486.861	10853.89
487.065	10247.69
487.269	10427.92
487.473	10384.91
487.677	10800.65
487.881	10757.64
488.085	10642.95
488.289	10657.29
488.493	10534.41
488.697	10614.28
488.901	10812.93
489.105	10601.99
489.309	10573.32
489.512	10632.71
489.716	10780.17
489.92	10595.85
490.124	10677.77
490.328	10814.98
490.531	10624.52
490.735	10855.94
490.939	10890.76
491.143	10507.79
491.346	10767.88
491.55	11005.44
491.754	10917.38
491.958	11058.69
492.161	10857.99
492.365	11118.08
492.569	11107.84
492.772	10784.26
492.976	10927.62
493.18	11183.62
493.383	11255.29
493.587	11331.07
493.79	11542.01
493.994	11384.32
494.197	11415.04
494.401	11582.97
494.605	11443.71
494.808	11777.53
495.012	11740.66
495.215	11787.77
495.419	11640.31
495.622	11804.15
495.825	11804.15
496.029	12058.1
496.232	12191.22
496.436	12123.63
496.639	12461.55
496.843	12312.05
497.046	12420.59
497.249	12783.08
497.453	12617.19
497.656	12631.53
497.859	12934.63
498.063	12912.1
498.266	13139.43
498.469	13071.84
498.673	13229.54
498.876	13346.27
499.079	13698.52
499.282	13471.2
499.485	13956.57
499.689	13845.98
499.892	14233.04
500.095	14241.23
500.298	14595.53
500.501	14347.73
500.705	14796.23
500.908	14886.34
501.111	15027.65
501.314	15072.71
501.517	15390.14
501.72	15459.77
501.923	15506.88
502.126	15836.6
502.329	16340.4
502.532	16102.84
502.735	16176.56
502.938	16350.64
503.141	16711.08
503.344	16797.1
503.547	16936.36
503.75	17106.34
503.953	17317.28
504.156	17448.35
504.359	17595.81
504.562	17530.27
504.765	18210.2
504.968	18232.72
505.17	18505.1
505.373	18089.37
505.576	18625.93
505.779	18883.98
505.982	18996.62
506.185	19328.39
506.387	19250.56
506.59	19561.86
506.793	19889.53
506.996	19838.33
507.198	20045.18
507.401	20215.16
507.604	20436.34
507.807	21161.32
508.009	21028.2
508.212	21036.39
508.415	21462.37
508.617	21554.53
508.82	21802.33
509.022	21355.88
509.225	22388.05
509.428	22420.82
509.63	22457.68
509.833	22418.77
510.035	23219.53
510.238	22994.25
510.44	23602.5
510.643	23625.03
510.845	23921.98
511.048	23651.65
511.25	24280.38
511.453	24503.6
511.655	25109.8
511.858	25187.63
512.06	25533.73
512.262	25232.68
512.465	25101.61
512.667	25709.86
512.87	25947.42
513.072	26131.74
513.274	26676.5
513.477	26567.96
513.679	27096.33
513.881	27505.93
514.084	27495.69
514.286	27618.57
514.488	27954.43
514.69	28845.3
514.893	28378.36
515.095	28388.6
515.297	28734.71
515.499	28959.98
515.701	29127.92
515.904	29807.84
516.106	29938.91
516.308	29990.11
516.51	30323.93
516.712	29967.59
516.914	30672.09
517.116	31163.6
517.318	31022.29
517.52	31442.12
517.722	31159.5
517.925	32050.37
518.127	32154.82
518.329	32355.52
518.531	32068.8
518.733	32974
518.935	33125.55
519.136	32754.87
519.338	33666.22
519.54	33854.63
519.742	34049.19
519.944	34057.38
520.146	34708.63
520.348	34643.1
520.55	34667.67
520.752	34573.47
520.954	35398.8
521.155	34919.57
521.357	35574.92
521.559	36086.92
521.761	36199.55
521.963	35945.61
522.164	36418.69
522.366	36514.94
522.568	36828.28
522.77	36807.8
522.971	37420.14
523.173	37084.28
523.375	37751.91
523.576	37221.49
523.778	37600.36
523.98	37518.45
524.181	37573.74
524.383	37450.86
524.584	38292.58
524.786	38061.16
524.988	37823.59
525.189	38325.35
525.391	38665.31
525.592	38605.92
525.794	39134.29
525.995	38841.43
526.197	38812.76
526.398	38902.87
526.6	39105.62
526.801	39171.16
527.003	39171.16
527.204	39023.7
527.406	39253.08
527.607	39273.56
527.808	39636.05
528.01	38990.94
528.211	38798.43
528.412	40121.41
528.614	39601.23
528.815	39382.1
529.016	39715.92
529.218	39652.43
529.419	39881.8
529.62	39601.23
529.822	39707.72
530.023	39527.5
530.224	39482.45
530.425	39378
530.626	39441.49
530.828	39097.43
531.029	40117.32
531.23	39642.19
531.431	39242.84
531.632	39732.3
531.833	39568.46
532.035	39382.1
532.236	39611.47
532.437	39900.23
532.638	39406.67
532.839	39111.77
533.04	39701.58
533.241	38825.05
533.442	39842.89
533.643	39517.26
533.844	39513.17
534.045	39406.67
534.246	38790.23
534.447	39423.06
534.648	38999.13
534.849	39124.05
535.05	38745.18
535.251	39154.77
535.451	38644.83
535.652	39265.36
535.853	38411.36
536.054	38861.91
536.255	39015.51
536.456	38538.33
536.657	39146.58
536.857	38577.25
537.058	38251.62
537.259	38734.94
537.46	38712.41
537.66	38202.47
537.861	38724.7
538.062	38777.95
538.263	38517.85
538.463	37987.43
538.664	37878.89
538.865	38661.21
539.065	38646.88
539.266	38321.25
539.466	38736.99
539.667	37796.97
539.868	38521.95
540.068	38114.41
540.269	38009.96
540.469	38487.14
540.67	37938.28
540.87	37997.67
541.071	37887.08
541.271	38151.27
541.472	38159.46
541.672	37762.15
541.873	37911.66
542.073	37565.55
542.274	38030.44
542.474	37727.34
542.675	37612.65
542.875	38284.39
543.075	37688.43
543.276	37344.37
543.476	37946.47
543.676	37438.58
543.877	37497.97
544.077	37713
544.277	37776.49
544.478	37661.8
544.678	37491.82
544.878	37946.47
545.078	37667.95
545.279	37432.43
545.479	37463.15
545.679	37741.67
545.879	37354.61
546.079	37604.46
546.28	37131.38
546.48	37534.83
546.68	37274.74
546.88	38063.21
547.08	37620.84
547.28	37774.44
547.48	36922.49
547.68	37616.75
547.88	37303.41
548.081	37387.38
548.281	37237.87
548.481	37698.67
548.681	37213.3
548.881	37698.67
549.081	37702.76
549.28	37178.48
549.48	37917.8
549.68	37452.91
549.88	37938.28
550.08	36983.93
550.28	37827.69
550.48	37756.01
550.68	37635.18
550.88	37377.14
551.08	37106.8
551.279	37807.21
551.479	37721.2
551.679	37545.07
551.879	37522.54
552.079	37880.94
552.278	37647.47
552.478	37596.27
552.678	37655.66
552.878	38128.74
553.077	37801.07
553.277	37446.77
553.477	38302.82
553.676	37913.7
553.876	37862.5
554.076	38208.61
554.275	37598.32
554.475	37502.06
554.674	38018.15
554.874	37889.13
555.074	37837.93
555.273	37848.17
555.473	38179.94
555.672	37788.78
555.872	37870.7
556.071	37809.26
556.271	38241.38
556.47	37819.5
556.67	37846.12
556.869	38042.73
557.068	38001.77
557.268	37684.33
557.467	38030.44
557.667	38155.36
557.866	38325.35
558.065	38055.01
558.265	37973.1
558.464	37862.5
558.663	38382.69
558.863	37870.7
559.062	38433.89
559.261	37862.5
559.461	38155.36
559.66	37784.68
559.859	37993.57
560.058	37966.95
560.258	37999.72
560.457	37915.75
560.656	38308.96
560.855	37952.62
561.054	38202.47
561.253	37733.48
561.453	38114.41
561.652	38089.83
561.851	37973.1
562.05	37870.7
562.249	37741.67
562.448	38040.68
562.647	37661.8
562.846	38134.88
563.045	37856.36
563.244	37446.77
563.443	37850.22
563.642	37530.73
563.841	37616.75
564.04	37522.54
564.239	37893.22
564.438	37690.48
564.637	37887.08
564.836	37696.62
565.035	37467.25
565.234	37618.8
565.432	37481.58
565.631	37424.24
565.83	37555.31
566.029	37534.83
566.228	37129.33
566.427	37338.22
566.625	37102.71
566.824	37096.56
567.023	37551.21
567.222	36414.59
567.42	37495.92
567.619	36766.84
567.818	36877.43
568.016	36967.54
568.215	37074.04
568.414	36269.19
568.612	37170.29
568.811	36572.28
569.01	36852.86
569.208	36451.45
569.407	36664.44
569.605	36281.47
569.804	36570.24
570.002	36236.42
570.201	36240.51
570.4	35951.75
570.598	35800.2
570.797	35757.19
570.995	35843.21
571.193	35419.28
571.392	35890.31
571.59	35447.95
571.789	35742.86
571.987	35654.79
572.186	35792.01
572.384	35431.57
572.582	35648.65
572.781	35273.87
572.979	34925.72
573.177	35277.97
573.376	34882.71
573.574	34837.66
573.772	34962.58
573.971	34573.47
574.169	34585.75
574.367	34342.05
574.565	34555.04
574.763	34794.65
574.962	34024.61
575.16	33774.76
575.358	33852.58
575.556	33608.87
575.754	34002.08
575.952	33660.07
576.151	34043.04
576.349	33391.79
576.547	33649.83
576.745	33526.96
576.943	33266.86
577.141	33453.23
577.339	33451.18
577.537	33125.55
577.735	33240.24
577.933	32910.52
578.131	32967.86
578.329	32627.9
578.527	32713.91
578.725	32679.1
578.923	32865.46
579.121	32335.04
579.319	32191.68
579.516	32513.21
579.714	32453.82
579.912	32617.66
580.11	31851.72
580.308	32017.6
580.506	31956.16
580.704	31429.84
580.901	31962.31
581.099	31947.97
581.297	31577.29
581.495	31591.62
581.692	31519.95
581.89	31282.38
582.088	31552.71
582.285	31171.79
582.483	31384.78
582.681	30842.07
582.878	31069.39
583.076	31083.73
583.274	31141.07
583.471	30737.62
583.669	30719.19
583.866	30631.13
584.064	30942.42
584.262	30035.17
584.459	30862.55
584.657	30282.97
584.854	30409.95
585.052	30092.51
585.249	30287.07
585.447	30100.7
585.644	30074.08
585.841	30145.76
586.039	30366.94
586.236	29553.9
586.434	29854.95
586.631	29566.18
586.828	29474.02
587.026	29521.13
587.223	29621.48
587.42	29320.43
587.618	29443.31
587.815	29082.86
588.012	29269.23
588.21	28693.75
588.407	29224.17
588.604	28822.77
588.801	28800.24
588.999	28970.22
589.196	28677.37
589.393	28839.15
589.59	28689.65
589.787	28611.83
589.984	28787.96
590.182	28339.45
590.379	28482.81
590.576	28095.74
590.773	28419.32
590.97	28284.16
591.167	28237.05
591.364	28079.36
591.561	28052.73
591.758	27989.25
591.955	28030.21
592.152	28124.41
592.349	27905.28
592.546	28058.88
592.743	27979.01
592.94	27632.9
593.137	27757.83
593.334	27682.05
593.531	27458.82
593.727	27411.72
593.924	27794.69
594.121	27510.02
594.318	27811.07
594.515	27555.08
594.712	27344.14
594.908	27278.6
595.105	27335.95
595.302	27077.9
595.499	27063.57
595.696	27196.68
595.892	27131.15
596.089	27352.33
596.286	27407.62
596.482	26848.53
596.679	27063.57
596.876	27018.51
597.072	26987.79
597.269	27079.95
597.466	26969.36
597.662	26782.99
597.859	27006.22
598.055	27352.33
598.252	26764.56
598.448	27174.16
598.645	27141.39
598.841	27014.41
599.038	26840.34
599.234	26840.34
599.431	26580.25
599.627	26819.86
599.824	26930.45
600.02	26715.41
600.217	26905.87
600.413	26455.32
600.609	26641.68
600.806	26412.31
601.002	26869.01
601.198	26342.68
601.395	26662.16
601.591	26633.49
601.787	26694.93
601.984	26856.72
602.18	27079.95
602.376	26588.44
602.572	26271
602.769	26729.75
602.965	26545.43
603.161	26557.72
603.357	26426.65
603.553	26545.43
603.75	26557.72
603.946	26504.47
604.142	26866.96
604.338	26477.85
604.534	26834.19
604.73	26551.57
604.926	26666.26
605.122	26846.48
605.318	26647.83
605.514	26610.96
605.71	26748.18
605.906	26703.12
606.102	26928.4
606.298	26883.34
606.494	27069.71
606.69	27008.27
606.886	26938.64
607.082	26633.49
607.278	27194.64
607.474	26709.27
607.67	26787.09
607.866	26768.66
608.062	27168.01
608.257	27004.17
608.453	26893.58
608.649	26848.53
608.845	26991.89
609.041	26936.59
609.236	27149.58
609.432	26973.46
609.628	27065.61
609.824	27176.2
610.019	26957.07
610.215	27258.12
610.411	27483.4
610.606	27157.77
610.802	27342.09
610.998	27319.56
611.193	27618.57
611.389	27305.23
611.584	27462.92
611.78	27196.68
611.976	27485.45
612.171	27428.1
612.367	27559.17
612.562	27518.21
612.758	27227.4
612.953	27178.25
613.149	27702.53
613.344	27266.31
613.539	27589.89
613.735	27481.35
613.93	27667.72
614.126	27458.82
614.321	27794.69
614.517	27651.33
614.712	27381
614.907	27462.92
615.103	27751.68
615.298	27534.6
615.493	27786.5
615.688	27221.26
615.884	28136.7
616.079	27335.95
616.274	27743.49
616.47	27323.66
616.665	27368.71
616.86	27294.99
617.055	27571.46
617.25	27299.08
617.445	27577.61
617.641	27239.69
617.836	27628.81
618.031	27311.37
618.226	27403.53
618.421	27194.64
618.616	27561.22
618.811	27260.17
619.006	27393.29
619.201	26987.79
619.396	27215.12
619.591	26797.33
619.786	27098.38
619.981	26864.91
620.176	26883.34
620.371	26701.08
620.566	26475.8
620.761	26707.22
620.956	26400.02
621.151	26072.35
621.346	26266.91
621.541	25986.33
621.735	26256.67
621.93	25746.72
622.125	25703.71
622.32	25451.81
622.515	25810.21
622.709	25589.03
622.904	25419.05
623.099	25419.05
623.294	25152.81
623.488	25310.5
623.683	25095.47
623.878	25101.61
624.072	24845.62
624.267	24616.24
624.462	24857.9
624.656	24433.97
624.851	24427.83
625.046	24296.76
625.24	23991.61
625.435	23809.34
625.629	24190.27
625.824	23840.06
626.018	23860.54
626.213	23500.1
626.407	23846.21
626.602	23338.31
626.796	23469.38
626.991	23661.89
627.185	23547.2
627.38	23092.55
627.574	22908.24
627.768	22789.45
627.963	22717.78
628.157	22478.16
628.352	22504.79
628.546	22084.95
628.74	22721.87
628.935	22426.96
629.129	22340.95
629.323	22080.86
629.517	22117.72
629.712	22209.88
629.906	21855.58
630.1	21384.55
630.294	21474.66
630.489	21470.56
630.683	21405.03
630.877	21003.63
631.071	20979.05
631.265	21179.75
631.459	21167.46
631.653	20544.88
631.848	20833.64
632.042	20483.44
632.236	20596.08
632.43	20514.16
632.624	20295.03
632.818	20235.64
633.012	20071.8
633.206	20254.07
633.4	20024.7
633.594	19602.82
633.788	19737.98
633.982	19754.37
634.176	19867
634.369	19604.86
634.563	19684.73
634.757	19266.95
634.951	19438.98
635.145	19168.65
635.339	19103.11
635.533	18681.23
635.726	18967.95
635.92	18675.09
636.114	18617.74
636.308	18369.94
636.501	18451.86
636.695	18292.12
636.889	18091.41
637.083	17917.34
637.276	17933.72
637.47	17984.92
637.664	18015.64
637.857	17841.56
638.051	17966.49
638.244	17491.36
638.438	17503.65
638.632	17395.11
638.825	17186.21
639.019	17077.67
639.212	17116.58
639.406	16981.42
639.599	16793
639.793	17151.4
639.986	16442.8
640.18	16555.44
640.373	16508.33
640.567	16315.83
640.76	16412.08
640.954	16104.88
641.147	16014.77
641.34	16027.06
641.534	16162.23
641.727	15939
641.92	15852.98
642.114	15443.39
642.307	15521.21
642.5	15576.51
642.694	15162.82
642.887	15187.39
643.08	15330.75
643.273	15187.39
643.467	14968.26
643.66	14861.77
643.853	14650.83
644.046	14636.49
644.239	14648.78
644.432	14355.92
644.626	14407.12
644.819	14374.35
645.012	14327.25
645.205	14321.1
645.398	14206.42
645.591	14171.6
645.784	13886.93
645.977	13766.1
646.17	13962.71
646.363	13870.55
646.556	13772.25
646.749	13860.31
646.942	13516.25
647.135	13483.48
647.328	13325.79
647.521	13426.14
647.714	12873.19
647.907	13356.51
648.099	13092.32
648.292	13209.06
648.485	12873.19
648.678	12781.03
648.871	12760.55
649.064	12905.96
649.256	12680.68
649.449	12789.22
649.642	12508.65
649.835	12467.69
650.027	12262.9
650.22	12254.7
650.413	12465.64
650.605	12115.44
650.798	12078.58
650.991	12054
651.183	11992.56
651.376	11978.23
651.568	11656.7
651.761	11779.57
651.954	11748.86
652.146	11615.74
652.339	11632.12
652.531	11574.78
652.724	11449.85
652.916	11081.22
653.109	11421.18
653.301	11138.56
653.494	11357.69
653.686	10927.62
653.879	11070.98
654.071	10976.77
654.263	10966.53
654.456	10849.8
654.648	10855.94
654.84	10823.17
655.033	10599.94
655.225	10710.54
655.417	10771.97
655.61	10577.42
655.802	10501.64
655.994	10448.4
656.186	10337.8
656.379	10370.57
656.571	10210.83
656.763	10098.19
656.955	10116.62
657.148	10214.93
657.34	10237.45
657.532	10053.14
657.724	9881.11
657.916	9989.65
658.108	9768.47
658.3	10016.27
658.492	9881.11
658.684	9557.53
658.876	9911.83
659.068	9563.67
659.26	9428.51
659.452	9684.5
659.644	9448.99
659.836	9330.2
660.028	9422.36
660.22	9131.55
660.412	9256.48
660.604	9039.39
660.796	8887.84
660.988	9174.56
661.18	9078.3
661.372	9145.89
661.563	9020.96
661.755	8896.03
661.947	8691.24
662.139	8924.71
662.331	8619.56
662.522	8697.38
662.714	8646.18
662.906	8502.82
663.097	8504.87
663.289	8429.1
663.481	8392.23
663.673	8455.72
663.864	8222.25
664.056	8322.6
664.247	8318.51
664.439	8295.98
664.631	8070.7
664.822	8138.29
665.014	7958.07
665.205	7951.92
665.397	8025.65
665.588	7896.63
665.78	7831.09
665.971	7783.99
666.163	7917.11
666.354	7749.17
666.546	7743.03
666.737	7663.16
666.929	7601.72
667.12	7579.19
667.311	7706.17
667.503	7499.32
667.694	7575.1
667.885	7530.04
668.077	7470.65
668.268	7384.63
668.459	7460.41
668.651	7421.5
668.842	7456.31
669.033	7280.19
669.224	7046.72
669.416	7220.8
669.607	7413.31
669.798	7171.65
669.989	7208.51
670.18	6913.6
670.371	7126.59
670.563	7020.1
670.754	6958.66
670.945	6778.44
671.136	6819.39
671.327	6948.42
671.518	6921.79
671.709	6846.02
671.9	7001.66
672.091	6809.15
672.282	6657.61
672.473	6483.53
672.664	6651.46
672.855	6626.89
673.046	6637.13
673.237	6737.48
673.428	6540.87
673.619	6653.51
673.809	6598.21
674	6438.47
674.191	6628.93
674.382	6540.87
674.573	6540.87
674.764	6358.6
674.954	6626.89
675.145	6372.94
675.336	6237.77
675.527	6383.18
675.717	6356.55
675.908	6389.32
676.099	6241.87
676.289	6243.92
676.48	6145.61
676.671	6293.07
676.861	6366.79
677.052	6205
677.243	6372.94
677.433	6153.8
677.624	6254.16
677.814	6053.45
678.005	6141.52
678.195	6221.39
678.386	6151.76
678.576	6078.03
678.767	6078.03
678.957	6084.17
679.148	6090.32
679.338	5963.34
679.529	6102.61
679.719	5867.09
679.909	6049.36
680.1	5973.58
680.29	6020.69
680.481	6153.8
680.671	6012.49
680.861	5955.15
681.052	6073.93
681.242	5811.79
681.432	5965.39
681.622	5883.47
681.813	5918.29
682.003	5973.58
682.193	5832.27
682.383	5899.86
682.573	6030.93
682.764	5738.07
682.954	5940.82
683.144	5889.62
683.334	5813.84
683.524	5836.37
683.714	5930.58
683.904	5768.79
684.094	5781.07
684.284	5766.74
684.474	5807.7
684.664	5842.51
684.854	5901.9
685.044	5662.29
685.234	5621.33
685.424	5725.78
685.614	5684.82
685.804	5607
685.994	5647.96
686.184	5598.81
686.374	5733.97
686.564	5719.64
686.753	5727.83
686.943	5748.31
687.133	5643.86
687.323	5602.9
687.513	5600.85
687.702	5594.71
687.892	5418.58
688.082	5391.96
688.272	5301.85
688.461	5441.11
688.651	5510.74
688.841	5480.02
689.03	5430.87
689.22	5234.27
689.41	5398.1
689.599	5469.78
689.789	5402.2
689.979	5318.23
690.168	5291.61
690.358	5381.72
690.547	5322.33
690.737	5262.94
690.926	5295.71
691.116	5293.66
691.305	5258.84
691.495	5205.6
691.684	5060.19
691.874	5148.25
692.063	5234.27
692.252	5127.77
692.442	5191.26
692.631	5117.53
692.82	5095
693.01	5004.89
693.199	5023.33
693.388	4959.84
693.578	5049.95
693.767	4892.26
693.956	5021.28
694.146	5058.14
694.335	5017.18
694.524	4957.79
694.713	5029.47
694.902	4867.68
695.092	4826.72
695.281	4941.41
695.47	4886.11
695.659	4742.75
695.848	4857.44
696.037	4857.44
696.226	4748.9
696.415	4810.34
696.604	4832.86
696.793	4662.88
696.982	4755.04
697.171	4744.8
697.36	4660.84
697.549	4589.16
697.738	4597.35
697.927	4548.2
698.116	4632.16
698.305	4824.67
698.494	4705.89
698.683	4644.45
698.872	4750.95
699.061	4628.07
699.25	4718.18
699.438	4646.5
699.627	4519.53
699.816	4695.65
700.005	4628.07
700.193	4423.27
700.382	4507.24
700.571	4517.48
700.76	4404.84
700.948	4398.7
701.137	4376.17
701.326	4572.77
701.514	4492.9
701.703	4511.33
701.892	4404.84
702.08	4456.04
702.269	4425.32
702.457	4419.18
702.646	4361.83
702.834	4243.05
703.023	4320.87
703.212	4423.27
703.4	4441.7
703.589	4421.22
703.777	4388.46
703.965	4292.2
704.154	4374.12
704.342	4189.8
704.531	4236.91
704.719	4327.02
704.907	4267.63
705.096	4144.75
705.284	4173.42
705.472	4179.56
705.661	4132.46
705.849	4157.04
706.037	4181.61
706.226	4128.36
706.414	4048.49
706.602	3999.34
706.79	4021.87
706.979	3933.81
707.167	4017.77
707.355	3958.38
707.543	4009.58
707.731	3915.37
707.919	3921.52
708.107	3913.33
708.296	3923.57
708.484	3890.8
708.672	3944.05
708.86	4015.73
709.048	3954.29
709.236	3911.28
709.424	4030.06
709.612	3939.95
709.8	3765.87
709.988	3833.46
710.176	3991.15
710.364	3833.46
710.551	3855.98
710.739	3593.84
710.927	3808.88
711.115	3735.15
711.303	3759.73
711.491	3817.07
711.679	3690.1
711.866	3759.73
712.054	3823.22
712.242	3702.39
712.43	3923.57
712.617	3634.8
712.805	3753.59
712.993	3767.92
713.181	3628.66
713.368	3688.05
713.556	3583.6
713.744	3575.41
713.931	3755.63
714.119	3661.43
714.306	3657.33
714.494	3567.22
714.682	3526.26
714.869	3528.31
715.057	3579.51
715.244	3450.49
715.432	3561.08
715.619	3616.37
715.807	3538.55
715.994	3591.8
716.182	3423.86
716.369	3466.87
716.556	3522.16
716.744	3452.53
716.931	3548.79
717.119	3532.4
717.306	3278.46
717.493	3356.28
717.681	3364.47
717.868	3425.91
718.055	3376.76
718.242	3360.38
718.43	3327.61
718.617	3432.05
718.804	3382.9
718.991	3495.54
719.179	3325.56
719.366	3370.62
719.553	3337.85
719.74	3427.96
719.927	3229.31
720.114	3153.53
720.301	3257.98
720.488	3174.01
720.676	3401.33
720.863	3239.55
721.05	3210.87
721.237	3276.41
721.424	3239.55
721.611	3364.47
721.798	3227.26
721.985	3243.64
722.172	3253.88
722.358	3040.89
722.545	3038.84
722.732	3147.39
722.919	3180.15
723.106	2907.77
723.293	3055.23
723.48	3047.04
723.667	2940.54
723.853	3153.53
724.04	3194.49
724.227	3092.09
724.414	3006.08
724.6	3055.23
724.787	3090.04
724.974	2985.6
725.161	2981.5
725.347	2950.78
725.534	2909.82
725.72	2924.16
725.907	2981.5
726.094	2899.58
726.28	2934.4
726.467	3022.46
726.653	2932.35
726.84	3006.08
727.027	3006.08
727.213	2877.05
727.4	2932.35
727.586	2793.09
727.773	2893.44
727.959	2887.29
728.145	2999.93
728.332	2918.01
728.518	2811.52
728.705	2817.66
728.891	2944.64
729.077	2795.14
729.264	2883.2
729.45	2875.01
729.636	2858.62
729.823	2643.59
730.009	2928.25
730.195	2852.48
730.382	2760.32
730.568	2782.85
730.754	2696.83
730.94	2850.43
731.126	2821.76
731.313	2875.01
731.499	2786.94
731.685	2754.18
731.871	2764.42
732.057	2713.22
732.243	2737.79
732.429	2801.28
732.615	2627.2
732.801	2707.07
732.987	2700.93
733.173	2770.56
733.359	2702.98
733.545	2580.1
733.731	2639.49
733.917	2713.22
734.103	2637.44
734.289	2692.74
734.475	2551.43
734.661	2680.45
734.847	2653.83
735.033	2592.39
735.219	2672.26
735.404	2631.3
735.59	2655.87
735.776	2580.1
735.962	2629.25
736.148	2645.63
736.333	2610.82
736.519	2557.57
736.705	2588.29
736.89	2487.94
737.076	2487.94
737.262	2526.85
737.447	2410.12
737.633	2442.89
737.819	2481.8
738.004	2551.43
738.19	2403.97
738.375	2606.72
738.561	2469.51
738.747	2467.46
738.932	2416.26
739.118	2481.8
739.303	2489.99
739.489	2489.99
739.674	2389.64
739.859	2459.27
740.045	2260.62
740.23	2395.78
740.416	2268.81
740.601	2352.77
740.786	2487.94
740.972	2375.3
741.157	2377.35
741.342	2350.73
741.528	2383.49
741.713	2207.37
741.898	2313.86
742.084	2190.99
742.269	2297.48
742.454	2240.14
742.639	2252.42
742.824	2190.99
743.01	2211.46
743.195	2287.24
743.38	2311.82
743.565	2178.7
743.75	2238.09
743.935	2190.99
744.12	2240.14
744.305	2117.26
744.49	2137.74
744.675	2242.18
744.86	2133.64
745.045	2107.02
745.23	2104.97
745.415	2088.59
745.6	2004.62
745.785	2004.62
745.97	2045.58
746.155	2121.35
746.34	2074.25
746.525	2096.78
746.71	2037.39
746.895	2055.82
747.079	2025.1
747.264	1914.51
747.449	1949.32
747.634	1912.46
747.819	1859.21
748.003	1941.13
748.188	1965.71
748.373	1900.17
748.557	1951.37
748.742	1832.59
748.927	2033.29
749.111	1744.53
749.296	1842.83
749.481	1873.55
749.665	1949.32
749.85	1818.25
750.034	1875.6
750.219	1795.73
750.404	1826.45
750.588	1793.68
750.773	1746.58
750.957	1801.87
751.141	1648.27
751.326	1709.71
751.51	1623.7
751.695	1728.14
751.879	1754.77
752.064	1793.68
752.248	1609.36
752.432	1683.09
752.617	1627.79
752.801	1572.5
752.985	1623.7
753.17	1533.59
753.354	1515.16
753.538	1539.73
753.722	1549.97
753.907	1535.64
754.091	1609.36
754.275	1519.25
754.459	1617.55
754.643	1486.48
754.828	1519.25
755.012	1539.73
755.196	1425.04
755.38	1468.05
755.564	1466
755.748	1353.37
755.932	1445.52
756.116	1441.43
756.3	1482.39
756.484	1384.09
756.668	1367.7
756.852	1375.89
757.036	1400.47
757.22	1427.09
757.404	1484.44
757.588	1293.97
757.772	1322.65
757.956	1343.13
758.14	1410.71
758.323	1359.51
758.507	1392.28
758.691	1269.4
758.875	1228.44
759.059	1339.03
759.242	1293.97
759.426	1275.54
759.61	1369.75
759.794	1232.54
759.977	1349.27
760.161	1273.5
760.345	1111.71
760.528	1293.97
760.712	1259.16
760.895	1312.41
761.079	1207.96
761.263	1154.71
761.446	1189.53
761.63	1144.47
761.813	1154.71
761.997	1064.6
762.18	1152.67
762.364	1212.06
762.547	1080.99
762.731	1164.95
762.914	1179.29
763.098	1140.38
763.281	1146.52
763.464	1023.64
763.648	1148.57
763.831	1085.08
764.015	1123.99
764.198	1105.56
764.381	1072.79
764.564	1040.03
764.748	1095.32
764.931	1140.38
765.114	1091.23
765.297	1015.45
765.481	986.78
765.664	1097.37
765.847	1046.17
766.03	1099.42
766.213	994.97
766.397	1037.98
766.58	1005.21
766.763	1001.12
766.946	1033.88
767.129	1031.83
767.312	968.35
767.495	1066.65
767.678	908.96
767.861	1015.45
768.044	1048.22
768.227	1015.45
768.41	929.44
768.593	943.77
768.776	960.16
768.959	1027.74
769.142	999.07
769.324	902.81
769.507	1007.26
769.69	949.92
769.873	994.97
770.056	1052.31
770.239	933.53
770.421	1025.69
770.604	941.72
770.787	919.2
770.97	982.68
771.152	894.62
771.335	970.4
771.518	966.3
771.7	982.68
771.883	884.38
772.066	898.72
772.248	900.76
772.431	892.57
772.613	933.53
772.796	919.2
772.978	902.81
773.161	933.53
773.343	818.85
773.526	876.19
773.708	876.19
773.891	900.76
774.073	818.85
774.256	835.23
774.438	933.53
774.621	835.23
774.803	810.65
774.985	814.75
775.168	753.31
775.35	802.46
775.532	824.99
775.715	831.13
775.897	818.85
776.079	822.94
776.261	845.47
776.444	738.98
776.626	757.41
776.808	714.4
776.99	747.17
777.173	812.7
777.355	718.5
777.537	786.08
777.719	788.13
777.901	818.85
778.083	695.97
778.265	659.1
778.447	857.76
778.629	716.45
778.811	745.12
778.993	642.72
779.175	759.46
779.357	722.59
779.539	667.3
779.721	657.06
779.903	663.2
780.085	679.58
780.267	622.24
780.449	712.35
780.631	700.06
780.812	722.59
780.994	673.44
781.176	624.29
781.358	638.62
781.54	577.19
781.721	691.87
781.903	652.96
782.085	566.95
782.267	624.29
782.448	603.81
782.63	542.37
782.812	616.1
782.993	552.61
783.175	624.29
783.357	591.52
783.538	575.14
783.72	462.5
783.901	509.6
784.083	577.19
784.264	558.75
784.446	556.71
784.627	491.17
784.809	546.47
784.99	540.32
785.172	583.33
785.353	525.99
785.535	544.42
785.716	429.73
785.897	442.02
786.079	503.46
786.26	509.6
786.441	540.32
786.623	491.17
786.804	509.6
786.985	448.16
787.167	472.74
787.348	458.4
787.529	480.93
787.71	505.51
787.891	523.94
788.073	485.03
788.254	394.92
788.435	534.18
788.616	540.32
788.797	429.73
788.978	452.26
789.159	399.01
789.34	466.6
789.522	362.15
789.703	507.55
789.884	450.21
790.065	507.55
790.246	491.17
790.427	409.25
790.607	425.64
790.788	472.74
790.969	442.02
791.15	532.13
791.331	427.68
791.512	384.68
791.693	401.06
791.874	405.16
792.054	442.02
792.235	413.35
792.416	343.72
792.597	384.68
792.778	421.54
792.958	388.77
793.139	370.34
793.32	345.77
793.5	394.92
793.681	433.83
793.862	315.05
794.042	384.68
794.223	321.19
794.404	339.62
794.584	306.85
794.765	325.29
794.945	392.87
795.126	358.05
795.306	339.62
795.487	269.99
795.667	327.33
795.848	294.57
796.028	331.43
796.209	362.15
796.389	286.37
796.57	237.22
796.75	376.48
796.93	376.48
797.111	237.22
797.291	343.72
797.471	388.77
797.652	278.18
797.832	231.08
798.012	280.23
798.192	304.81
798.373	257.7
798.553	259.75
798.733	282.28
798.913	261.8
799.093	313
799.274	269.99
799.454	341.67
799.634	313
799.814	308.9
799.994	272.04
800.174	284.33
800.354	237.22
800.534	214.7
800.714	360.1
800.894	247.46
801.074	231.08
801.254	274.09
801.434	351.91
801.614	235.18
801.794	317.09
801.974	1015.45
802.154	200.36
802.334	337.57
802.514	190.12
802.693	347.81
802.873	214.7
803.053	247.46
803.233	245.41
803.413	194.22
803.592	216.74
803.772	278.18
803.952	231.08
804.131	183.98
804.311	259.75
804.491	304.81
804.67	212.65
804.85	224.94
805.03	224.94
805.209	233.13
805.389	214.7
805.568	190.12
805.748	280.23
805.928	276.13
806.107	237.22
806.287	229.03
806.466	280.23
806.646	196.26
806.825	257.7
807.004	239.27
807.184	233.13
807.363	286.37
807.543	226.98
807.722	200.36
807.901	255.65
808.081	286.37
808.26	118.44
808.439	239.27
808.619	220.84
808.798	153.26
808.977	198.31
809.156	286.37
809.336	143.02
809.515	212.65
809.694	188.07
809.873	214.7
810.052	198.31
810.231	190.12
810.411	157.35
810.59	200.36
810.769	155.3
810.948	163.5
811.127	204.46
811.306	181.93
811.485	145.06
811.664	278.18
811.843	132.78
812.022	171.69
812.201	126.63
812.38	194.22
812.559	132.78
812.737	155.3
812.916	65.19
813.095	208.55
813.274	143.02
813.453	130.73
813.632	147.11
813.811	175.78
813.989	124.58
814.168	183.98
814.347	110.25
814.526	181.93
814.704	247.46
814.883	212.65
815.062	167.59
815.24	122.54
815.419	155.3
815.598	224.94
815.776	114.34
815.955	173.74
816.133	171.69
816.312	114.34
816.49	155.3
816.669	202.41
816.847	192.17
817.026	110.25
817.204	183.98
817.383	169.64
817.561	102.06
817.74	147.11
817.918	149.16
818.097	124.58
818.275	122.54
818.453	229.03
818.632	102.06
818.81	196.26
818.988	77.48
819.167	102.06
819.345	112.3
819.523	73.39
819.701	93.87
819.879	196.26
820.058	159.4
820.236	181.93
820.414	190.12
820.592	91.82
820.77	134.82
820.948	89.77
821.127	149.16
821.305	179.88
821.483	95.91
821.661	175.78
821.839	179.88
822.017	108.2
822.195	140.97
822.373	116.39
822.551	104.11
822.729	183.98
822.907	122.54
823.085	155.3
823.262	188.07
823.44	85.67
823.618	124.58
823.796	61.1
823.974	50.86
824.152	130.73
824.329	106.15
824.507	167.59
824.685	116.39
824.863	81.58
825.04	124.58
825.218	190.12
825.396	57
825.574	159.4
825.751	24.23
825.929	173.74
826.107	122.54
826.284	81.58
826.462	208.55
826.639	143.02
826.817	100.01
826.994	171.69
827.172	81.58
827.349	196.26
827.527	120.49
827.704	81.58
827.882	108.2
828.059	122.54
828.237	116.39
828.414	163.5
828.591	95.91
828.769	124.58
828.946	100.01
829.124	186.02
829.301	114.34
829.478	83.63
829.655	48.81
829.833	67.24
830.01	85.67
830.187	104.11
830.364	48.81
830.542	165.54
830.719	106.15
830.896	122.54
831.073	97.96
831.25	114.34
831.427	89.77
831.604	114.34
831.782	73.39
831.959	128.68
832.136	122.54
832.313	118.44
832.49	118.44
832.667	73.39
832.844	67.24
833.021	130.73
833.198	124.58
833.374	102.06
833.551	171.69
833.728	106.15
833.905	126.63
834.082	32.43
834.259	73.39
834.436	69.29
834.612	40.62
834.789	61.1
834.966	114.34
835.143	124.58
835.319	-12.63
835.496	106.15
835.673	138.92
835.85	118.44
836.026	61.1
836.203	69.29
836.38	61.1
836.556	52.91
836.733	-2.39
836.909	13.99
837.086	48.81
837.262	128.68
837.439	75.43
837.616	114.34
837.792	57
837.968	81.58
838.145	69.29
838.321	57
838.498	20.14
838.674	89.77
838.851	122.54
839.027	11.95
839.203	48.81
839.38	171.69
839.556	89.77
839.732	161.45
839.909	65.19
840.085	102.06
840.261	106.15
840.437	118.44
840.614	75.43
840.79	28.33
840.966	69.29
841.142	110.25
841.318	57
841.494	57
841.671	89.77
841.847	42.67
842.023	13.99
842.199	116.39
842.375	106.15
842.551	77.48
842.727	22.19
842.903	173.74
843.079	46.76
843.255	122.54
843.431	89.77
843.607	75.43
843.783	57
843.959	95.91
844.134	1.71
844.31	81.58
844.486	100.01
844.662	57
844.838	22.19
845.013	97.96
845.189	81.58
845.365	114.34
845.541	87.72
845.716	42.67
845.892	11.95
846.068	11.95
846.244	-41.3
846.419	54.95
846.595	57
846.77	65.19
846.946	20.14
847.122	71.34
847.297	42.67
847.473	95.91
847.648	65.19
847.824	151.21
847.999	-16.73
848.175	52.91
848.35	46.76
848.526	59.05
848.701	36.52
848.876	79.53
849.052	116.39
849.227	54.95
849.403	26.28
849.578	50.86
849.753	26.28
849.929	18.09
850.104	-37.2
850.279	48.81
850.454	106.15
850.63	110.25
850.805	71.34
850.98	59.05
851.155	59.05
851.33	83.63
851.505	-24.92
851.681	97.96
851.856	-14.68
852.031	30.38
852.206	181.93
852.381	-8.53
852.556	22.19
852.731	44.71
852.906	48.81
853.081	91.82
853.256	108.2
853.431	71.34
853.606	28.33
853.781	73.39
853.956	57
854.131	114.34
854.305	-4.44
854.48	34.47
854.655	48.81
854.83	38.57
855.005	32.43
855.18	16.04
855.354	16.04
855.529	108.2
855.704	-37.2
855.879	87.72
856.053	-8.53
856.228	102.06
856.403	20.14
856.577	52.91
856.752	-12.63
856.926	69.29
857.101	38.57
857.276	48.81
857.45	59.05
857.625	54.95
857.799	7.85
857.974	40.62
858.148	42.67
858.323	73.39
858.497	30.38
858.672	-16.73
858.846	42.67
859.02	67.24
859.195	-12.63
859.369	16.04
859.543	69.29
859.718	24.23
859.892	57
860.066	32.43
860.241	-47.44
860.415	11.95
860.589	7.85
860.763	65.19
860.938	-45.4
861.112	18.09
861.286	-33.11
861.46	42.67
861.634	-61.78
861.808	57
861.982	34.47
862.157	-8.53
862.331	5.8
862.505	26.28
862.679	-33.11
862.853	36.52
863.027	-8.53
863.201	48.81
863.375	11.95
863.549	71.34
863.722	-20.82
863.896	16.04
864.07	11.95
864.244	16.04
864.418	36.52
864.592	1.71
864.766	57
864.939	16.04
865.113	-16.73
865.287	73.39
865.461	22.19
865.634	40.62
865.808	36.52
865.982	32.43
866.156	26.28
866.329	-10.58
866.503	26.28
866.676	34.47
866.85	42.67
867.024	50.86
867.197	36.52
867.371	79.53
867.544	122.54
867.718	40.62
867.891	83.63
868.065	-20.82
868.238	59.05
868.412	97.96
868.585	-0.34
868.759	-16.73
868.932	42.67
869.105	67.24
869.279	9.9
869.452	89.77
869.625	69.29
869.799	-37.2
869.972	-63.83
870.145	1.71
870.319	81.58
870.492	-4.44
870.665	13.99
870.838	57
871.011	-16.73
871.185	65.19
871.358	57
871.531	75.43
871.704	-31.06
871.877	75.43
872.05	-24.92
872.223	77.48
872.396	65.19
872.569	32.43
872.742	-29.01
872.915	63.15
873.088	9.9
873.261	85.67
873.434	97.96
873.607	-0.34
873.78	42.67
873.953	57
874.126	-12.63
874.299	36.52
874.471	-100.69
874.644	100.01
874.817	-22.87
874.99	114.34
875.163	-26.96
875.335	-0.34
875.508	69.29
875.681	155.3
875.853	38.57
876.026	-26.96
876.199	106.15
876.371	-4.44
876.544	-33.11
876.717	36.52
876.889	1.71
877.062	13.99
877.234	-14.68
877.407	-24.92
877.579	-8.53
877.752	-16.73
877.924	67.24
878.097	24.23
878.269	52.91
878.442	28.33
878.614	-8.53
878.786	30.38
878.959	40.62
879.131	85.67
879.303	-49.49
879.476	7.85
879.648	16.04
879.82	50.86
879.993	54.95
880.165	42.67
880.337	-31.06
880.509	13.99
880.681	26.28
880.854	24.23
881.026	54.95
881.198	75.43
881.37	24.23
881.542	20.14
881.714	-63.83
881.886	-0.34
882.058	1.71
882.23	36.52
882.402	50.86
882.574	42.67
882.746	44.71
882.918	48.81
883.09	75.43
883.262	36.52
883.434	50.86
883.606	-6.49
883.778	36.52
883.95	50.86
884.122	9.9
884.293	69.29
884.465	-45.4
884.637	81.58
884.809	30.38
884.98	-37.2
885.152	16.04
885.324	114.34
885.496	-78.16
885.667	75.43
885.839	-33.11
886.011	138.92
886.182	61.1
886.354	77.48
886.525	-16.73
886.697	18.09
886.869	-6.49
887.04	7.85
887.212	87.72
887.383	132.78
887.555	44.71
887.726	-10.58
887.897	16.04
888.069	65.19
888.24	-14.68
888.412	-10.58
888.583	-2.39
888.754	13.99
888.926	-69.97
889.097	16.04
889.268	-0.34
889.44	1.71
889.611	-49.49
889.782	-10.58
889.953	-51.54
890.125	77.48
890.296	18.09
890.467	-16.73
890.638	-33.11
890.809	44.71
890.98	-69.97
891.151	73.39
891.323	48.81
891.494	108.2
891.665	-41.3
891.836	40.62
892.007	73.39
892.178	-8.53
892.349	24.23
892.52	20.14
892.691	24.23
892.862	-2.39
893.032	-39.25
893.203	24.23
893.374	44.71
893.545	34.47
893.716	59.05
893.887	11.95
894.057	-31.06
894.228	46.76
894.399	-49.49
894.57	65.19
894.74	-26.96
894.911	108.2
895.082	13.99
895.253	-69.97
895.423	-2.39
895.594	48.81
895.764	22.19
895.935	-41.3
896.106	32.43
896.276	-31.06
896.447	42.67
896.617	-72.02
896.788	-33.11
896.958	9.9
897.129	-0.34
897.299	-0.34
897.47	-16.73
897.64	-0.34
897.81	48.81
897.981	81.58
898.151	-76.12
898.322	65.19
898.492	9.9
898.662	-37.2
898.832	-22.87
899.003	-0.34
899.173	-29.01
899.343	32.43
899.513	-8.53
