Data from USB4F104151__136__14-31-46-002.txt Node

Date: Thu Mar 13 14:31:46 EDT 2025
User: louis
Spectrometer: USB4F10415
Trigger mode: 4
Integration Time (sec): 2.500000E-2
Scans to average: 1
Electric dark correction enabled: true
Nonlinearity correction enabled: false
Boxcar width: 0
XAxis mode: Wavelengths
Number of Pixels in Spectrum: 3648
>>>>>Begin Spectral Data<<<<<
178.204	-141.65
178.424	-141.65
178.644	-141.65
178.864	-129.36
179.084	-94.55
179.304	50.86
179.524	1.71
179.744	-2.39
179.964	18.09
180.184	42.67
180.404	79.53
180.624	13.99
180.844	-61.78
181.064	-112.98
181.283	-74.07
181.503	-6.49
181.723	50.86
181.943	-51.54
182.163	67.24
182.383	13.99
182.602	42.67
182.822	149.16
183.042	63.15
183.262	-67.92
183.482	97.96
183.701	-10.58
183.921	1.71
184.141	-69.97
184.361	-14.68
184.58	-47.44
184.8	20.14
185.02	18.09
185.239	79.53
185.459	26.28
185.679	-6.49
185.898	1.71
186.118	-6.49
186.338	95.91
186.557	42.67
186.777	30.38
186.997	-39.25
187.216	-18.77
187.436	30.38
187.655	34.47
187.875	50.86
188.095	-12.63
188.314	34.47
188.534	20.14
188.753	11.95
188.973	54.95
189.192	3.75
189.412	34.47
189.631	22.19
189.851	-18.77
190.07	32.43
190.29	3.75
190.509	44.71
190.729	-45.4
190.948	13.99
191.168	63.15
191.387	18.09
191.607	61.1
191.826	-16.73
192.045	5.8
192.265	1.71
192.484	-2.39
192.704	13.99
192.923	-90.45
193.142	104.11
193.362	30.38
193.581	52.91
193.8	-22.87
194.02	32.43
194.239	-14.68
194.458	9.9
194.678	34.47
194.897	-55.64
195.116	-39.25
195.335	-45.4
195.555	18.09
195.774	3.75
195.993	-72.02
196.212	-61.78
196.432	-41.3
196.651	30.38
196.87	-14.68
197.089	79.53
197.308	36.52
197.528	11.95
197.747	-78.16
197.966	1.71
198.185	-2.39
198.404	-31.06
198.623	-22.87
198.842	75.43
199.062	42.67
199.281	75.43
199.5	67.24
199.719	-8.53
199.938	63.15
200.157	52.91
200.376	3.75
200.595	5.8
200.814	38.57
201.033	-47.44
201.252	34.47
201.471	-47.44
201.69	69.29
201.909	13.99
202.128	54.95
202.347	26.28
202.566	-63.83
202.785	-4.44
203.004	18.09
203.223	120.49
203.442	-18.77
203.661	-69.97
203.879	-6.49
204.098	3.75
204.317	-2.39
204.536	1.71
204.755	11.95
204.974	28.33
205.193	28.33
205.411	57
205.63	5.8
205.849	54.95
206.068	1.71
206.287	-2.39
206.505	50.86
206.724	46.76
206.943	20.14
207.162	-2.39
207.381	-47.44
207.599	22.19
207.818	-47.44
208.037	34.47
208.255	13.99
208.474	-8.53
208.693	87.72
208.911	75.43
209.13	52.91
209.349	20.14
209.567	63.15
209.786	52.91
210.005	-12.63
210.223	28.33
210.442	-22.87
210.661	69.29
210.879	-14.68
211.098	32.43
211.316	30.38
211.535	20.14
211.753	50.86
211.972	-22.87
212.191	-35.16
212.409	22.19
212.628	-55.64
212.846	9.9
213.065	9.9
213.283	30.38
213.502	-10.58
213.72	44.71
213.938	18.09
214.157	3.75
214.375	85.67
214.594	3.75
214.812	11.95
215.031	-8.53
215.249	-6.49
215.467	16.04
215.686	26.28
215.904	46.76
216.122	-35.16
216.341	1.71
216.559	5.8
216.778	34.47
216.996	83.63
217.214	-39.25
217.432	1.71
217.651	-49.49
217.869	-55.64
218.087	-22.87
218.306	-31.06
218.524	26.28
218.742	1.71
218.96	67.24
219.179	-16.73
219.397	-12.63
219.615	28.33
219.833	40.62
220.051	42.67
220.27	91.82
220.488	67.24
220.706	5.8
220.924	-20.82
221.142	52.91
221.36	9.9
221.578	-14.68
221.796	-72.02
222.015	-22.87
222.233	71.34
222.451	46.76
222.669	-72.02
222.887	9.9
223.105	13.99
223.323	-22.87
223.541	3.75
223.759	-10.58
223.977	3.75
224.195	120.49
224.413	120.49
224.631	9.9
224.849	-22.87
225.067	52.91
225.285	16.04
225.503	-45.4
225.721	-14.68
225.939	18.09
226.157	18.09
226.375	5.8
226.592	-12.63
226.81	9.9
227.028	-6.49
227.246	79.53
227.464	42.67
227.682	54.95
227.9	46.76
228.117	46.76
228.335	50.86
228.553	61.1
228.771	59.05
228.989	34.47
229.206	-53.59
229.424	81.58
229.642	3.75
229.86	-29.01
230.077	18.09
230.295	22.19
230.513	50.86
230.731	18.09
230.948	-29.01
231.166	20.14
231.384	42.67
231.601	18.09
231.819	13.99
232.037	65.19
232.254	3.75
232.472	22.19
232.689	-18.77
232.907	40.62
233.125	11.95
233.342	-39.25
233.56	-26.96
233.777	57
233.995	20.14
234.213	5.8
234.43	-14.68
234.648	46.76
234.865	-14.68
235.083	9.9
235.3	-20.82
235.518	87.72
235.735	11.95
235.953	-35.16
236.17	-45.4
236.388	-72.02
236.605	-4.44
236.822	1.71
237.04	34.47
237.257	-22.87
237.475	-57.68
237.692	-10.58
237.909	-29.01
238.127	46.76
238.344	-4.44
238.562	91.82
238.779	11.95
238.996	-67.92
239.214	-59.73
239.431	13.99
239.648	3.75
239.865	20.14
240.083	-12.63
240.3	-47.44
240.517	-24.92
240.735	-6.49
240.952	91.82
241.169	-4.44
241.386	38.57
241.603	34.47
241.821	-8.53
242.038	67.24
242.255	18.09
242.472	-14.68
242.689	9.9
242.907	30.38
243.124	46.76
243.341	24.23
243.558	-20.82
243.775	26.28
243.992	-26.96
244.209	-4.44
244.426	20.14
244.643	100.01
244.86	-80.21
245.078	32.43
245.295	18.09
245.512	-22.87
245.729	-24.92
245.946	46.76
246.163	54.95
246.38	-12.63
246.597	-4.44
246.814	11.95
247.031	9.9
247.248	-6.49
247.464	-10.58
247.681	34.47
247.898	18.09
248.115	34.47
248.332	-18.77
248.549	34.47
248.766	59.05
248.983	81.58
249.2	52.91
249.417	-6.49
249.633	34.47
249.85	-4.44
250.067	-53.59
250.284	75.43
250.501	34.47
250.717	42.67
250.934	61.1
251.151	-26.96
251.368	-2.39
251.585	18.09
251.801	20.14
252.018	26.28
252.235	38.57
252.451	-31.06
252.668	11.95
252.885	24.23
253.102	3.75
253.318	-31.06
253.535	-65.88
253.752	-41.3
253.968	13.99
254.185	42.67
254.401	42.67
254.618	9.9
254.835	20.14
255.051	69.29
255.268	-6.49
255.484	34.47
255.701	-26.96
255.917	128.68
256.134	-12.63
256.351	9.9
256.567	-16.73
256.784	85.67
257	-69.97
257.217	77.48
257.433	69.29
257.65	18.09
257.866	-47.44
258.082	-14.68
258.299	-63.83
258.515	65.19
258.732	-67.92
258.948	-14.68
259.165	26.28
259.381	46.76
259.597	42.67
259.814	-14.68
260.03	-2.39
260.246	36.52
260.463	5.8
260.679	59.05
260.895	1.71
261.112	44.71
261.328	-14.68
261.544	-80.21
261.761	11.95
261.977	26.28
262.193	-16.73
262.409	83.63
262.626	-4.44
262.842	67.24
263.058	-10.58
263.274	32.43
263.49	-57.68
263.707	38.57
263.923	30.38
264.139	-22.87
264.355	28.33
264.571	20.14
264.787	-6.49
265.004	108.2
265.22	16.04
265.436	38.57
265.652	7.85
265.868	87.72
266.084	-74.07
266.3	1.71
266.516	-43.35
266.732	1.71
266.948	9.9
267.164	-45.4
267.38	5.8
267.596	38.57
267.812	71.34
268.028	18.09
268.244	22.19
268.46	-12.63
268.676	75.43
268.892	54.95
269.108	-55.64
269.324	18.09
269.54	-74.07
269.756	-18.77
269.972	-78.16
270.188	16.04
270.403	-20.82
270.619	-37.2
270.835	48.81
271.051	110.25
271.267	20.14
271.483	-20.82
271.698	-0.34
271.914	67.24
272.13	36.52
272.346	34.47
272.562	-39.25
272.777	59.05
272.993	89.77
273.209	1.71
273.425	-10.58
273.64	-61.78
273.856	-12.63
274.072	-39.25
274.287	-24.92
274.503	-0.34
274.719	16.04
274.934	-12.63
275.15	18.09
275.366	18.09
275.581	1.71
275.797	-10.58
276.012	18.09
276.228	13.99
276.444	9.9
276.659	122.54
276.875	-61.78
277.09	34.47
277.306	-14.68
277.521	-4.44
277.737	-14.68
277.952	67.24
278.168	-14.68
278.383	38.57
278.599	87.72
278.814	93.87
279.03	36.52
279.245	30.38
279.461	9.9
279.676	-10.58
279.892	-67.92
280.107	83.63
280.322	5.8
280.538	91.82
280.753	34.47
280.969	20.14
281.184	30.38
281.399	-6.49
281.615	18.09
281.83	13.99
282.045	-0.34
282.26	1.71
282.476	-6.49
282.691	83.63
282.906	20.14
283.122	52.91
283.337	-2.39
283.552	-29.01
283.767	-35.16
283.983	-10.58
284.198	-22.87
284.413	-33.11
284.628	-14.68
284.843	26.28
285.058	-26.96
285.274	22.19
285.489	44.71
285.704	67.24
285.919	100.01
286.134	9.9
286.349	-59.73
286.564	67.24
286.779	16.04
286.995	36.52
287.21	-47.44
287.425	48.81
287.64	42.67
287.855	-41.3
288.07	42.67
288.285	-14.68
288.5	91.82
288.715	26.28
288.93	-14.68
289.145	26.28
289.36	42.67
289.575	-29.01
289.79	85.67
290.004	13.99
290.219	71.34
290.434	18.09
290.649	-10.58
290.864	50.86
291.079	57
291.294	18.09
291.509	13.99
291.724	85.67
291.938	-6.49
292.153	67.24
292.368	30.38
292.583	-14.68
292.798	48.81
293.012	48.81
293.227	-14.68
293.442	30.38
293.657	52.91
293.871	-4.44
294.086	-31.06
294.301	116.39
294.516	46.76
294.73	54.95
294.945	-51.54
295.16	44.71
295.374	-24.92
295.589	28.33
295.804	-39.25
296.018	22.19
296.233	26.28
296.447	-6.49
296.662	-14.68
296.877	48.81
297.091	-31.06
297.306	-10.58
297.52	24.23
297.735	65.19
297.949	-6.49
298.164	34.47
298.378	-88.4
298.593	-72.02
298.807	-49.49
299.022	69.29
299.236	48.81
299.451	18.09
299.665	75.43
299.88	-26.96
300.094	-29.01
300.309	-31.06
300.523	36.52
300.737	5.8
300.952	11.95
301.166	20.14
301.381	-59.73
301.595	-6.49
301.809	-39.25
302.024	-10.58
302.238	16.04
302.452	40.62
302.667	-24.92
302.881	67.24
303.095	1.71
303.309	-39.25
303.524	-18.77
303.738	26.28
303.952	20.14
304.166	57
304.381	-67.92
304.595	42.67
304.809	-0.34
305.023	143.02
305.237	28.33
305.452	11.95
305.666	5.8
305.88	100.01
306.094	3.75
306.308	34.47
306.522	75.43
306.736	85.67
306.95	18.09
307.164	-8.53
307.379	-16.73
307.593	59.05
307.807	-10.58
308.021	26.28
308.235	85.67
308.449	-6.49
308.663	1.71
308.877	69.29
309.091	20.14
309.305	26.28
309.519	-18.77
309.733	69.29
309.947	-112.98
310.161	71.34
310.374	-45.4
310.588	-0.34
310.802	-45.4
311.016	18.09
311.23	-6.49
311.444	18.09
311.658	32.43
311.872	50.86
312.085	13.99
312.299	42.67
312.513	3.75
312.727	-4.44
312.941	28.33
313.154	30.38
313.368	-12.63
313.582	30.38
313.796	42.67
314.009	30.38
314.223	83.63
314.437	36.52
314.651	30.38
314.864	54.95
315.078	-61.78
315.292	-20.82
315.505	-14.68
315.719	5.8
315.933	-37.2
316.146	-61.78
316.36	-6.49
316.573	-2.39
316.787	-47.44
317.001	69.29
317.214	-129.36
317.428	46.76
317.641	-22.87
317.855	-18.77
318.068	42.67
318.282	-14.68
318.495	67.24
318.709	18.09
318.922	57
319.136	46.76
319.349	54.95
319.563	59.05
319.776	5.8
319.99	18.09
320.203	28.33
320.417	-29.01
320.63	85.67
320.843	40.62
321.057	30.38
321.27	34.47
321.483	83.63
321.697	104.11
321.91	89.77
322.124	61.1
322.337	50.86
322.55	-59.73
322.763	42.67
322.977	-14.68
323.19	50.86
323.403	61.1
323.617	-22.87
323.83	5.8
324.043	30.38
324.256	-14.68
324.469	-31.06
324.683	-47.44
324.896	44.71
325.109	67.24
325.322	-0.34
325.535	-43.35
325.748	13.99
325.962	63.15
326.175	-35.16
326.388	22.19
326.601	44.71
326.814	20.14
327.027	-35.16
327.24	34.47
327.453	32.43
327.666	65.19
327.879	85.67
328.092	7.85
328.305	-22.87
328.518	91.82
328.731	75.43
328.944	9.9
329.157	114.34
329.37	-10.58
329.583	18.09
329.796	100.01
330.009	-12.63
330.222	9.9
330.435	20.14
330.648	30.38
330.861	-61.78
331.073	-59.73
331.286	128.68
331.499	34.47
331.712	57
331.925	44.71
332.138	42.67
332.35	46.76
332.563	-39.25
332.776	61.1
332.989	-26.96
333.202	61.1
333.414	-59.73
333.627	-61.78
333.84	18.09
334.053	-20.82
334.265	-8.53
334.478	-47.44
334.691	-22.87
334.903	13.99
335.116	28.33
335.329	26.28
335.541	9.9
335.754	83.63
335.966	54.95
336.179	3.75
336.392	63.15
336.604	9.9
336.817	54.95
337.029	13.99
337.242	95.91
337.454	75.43
337.667	24.23
337.88	83.63
338.092	52.91
338.305	38.57
338.517	-45.4
338.729	50.86
338.942	69.29
339.154	71.34
339.367	18.09
339.579	112.3
339.792	36.52
340.004	61.1
340.217	46.76
340.429	36.52
340.641	-26.96
340.854	30.38
341.066	-26.96
341.278	42.67
341.491	54.95
341.703	1.71
341.915	20.14
342.128	9.9
342.34	9.9
342.552	-41.3
342.764	9.9
342.977	-8.53
343.189	3.75
343.401	-35.16
343.613	20.14
343.826	46.76
344.038	1.71
344.25	-6.49
344.462	-4.44
344.674	59.05
344.886	-6.49
345.099	-37.2
345.311	38.57
345.523	-4.44
345.735	-31.06
345.947	-61.78
346.159	46.76
346.371	63.15
346.583	-6.49
346.795	59.05
347.007	1.71
347.219	-0.34
347.431	-10.58
347.643	110.25
347.855	77.48
348.067	42.67
348.279	-69.97
348.491	-18.77
348.703	40.62
348.915	-43.35
349.127	26.28
349.339	16.04
349.551	40.62
349.763	61.1
349.975	-6.49
350.187	71.34
350.399	50.86
350.61	9.9
350.822	13.99
351.034	54.95
351.246	75.43
351.458	67.24
351.669	79.53
351.881	20.14
352.093	132.78
352.305	61.1
352.517	22.19
352.728	26.28
352.94	50.86
353.152	-10.58
353.363	-8.53
353.575	46.76
353.787	7.85
353.999	122.54
354.21	95.91
354.422	36.52
354.633	26.28
354.845	16.04
355.057	20.14
355.268	32.43
355.48	26.28
355.692	32.43
355.903	20.14
356.115	-22.87
356.326	20.14
356.538	-22.87
356.749	97.96
356.961	34.47
357.172	-39.25
357.384	-35.16
357.595	116.39
357.807	-43.35
358.018	-63.83
358.23	26.28
358.441	91.82
358.653	3.75
358.864	75.43
359.075	-16.73
359.287	18.09
359.498	42.67
359.709	9.9
359.921	34.47
360.132	67.24
360.344	79.53
360.555	-29.01
360.766	3.75
360.977	140.97
361.189	54.95
361.4	18.09
361.611	9.9
361.823	18.09
362.034	-61.78
362.245	-55.64
362.456	50.86
362.667	-6.49
362.879	-4.44
363.09	65.19
363.301	50.86
363.512	40.62
363.723	-2.39
363.935	83.63
364.146	91.82
364.357	-72.02
364.568	59.05
364.779	1.71
364.99	54.95
365.201	-41.3
365.412	145.06
365.623	13.99
365.834	1.71
366.045	-35.16
366.256	26.28
366.467	13.99
366.678	42.67
366.889	-20.82
367.1	75.43
367.311	22.19
367.522	71.34
367.733	104.11
367.944	-10.58
368.155	95.91
368.366	36.52
368.577	36.52
368.788	116.39
368.999	-2.39
369.209	85.67
369.42	9.9
369.631	104.11
369.842	5.8
370.053	5.8
370.264	3.75
370.474	-26.96
370.685	-2.39
370.896	-18.77
371.107	30.38
371.317	69.29
371.528	57
371.739	34.47
371.95	48.81
372.16	26.28
372.371	-47.44
372.582	46.76
372.792	54.95
373.003	48.81
373.214	38.57
373.424	69.29
373.635	-6.49
373.846	13.99
374.056	11.95
374.267	57
374.477	48.81
374.688	-37.2
374.898	26.28
375.109	24.23
375.319	-20.82
375.53	63.15
375.74	-37.2
375.951	1.71
376.161	3.75
376.372	59.05
376.582	-12.63
376.793	46.76
377.003	30.38
377.214	-20.82
377.424	36.52
377.635	20.14
377.845	5.8
378.055	18.09
378.266	-33.11
378.476	67.24
378.686	48.81
378.897	18.09
379.107	34.47
379.317	102.06
379.528	9.9
379.738	104.11
379.948	59.05
380.158	26.28
380.369	1.71
380.579	50.86
380.789	59.05
380.999	3.75
381.21	63.15
381.42	67.24
381.63	-20.82
381.84	165.54
382.05	28.33
382.261	1.71
382.471	52.91
382.681	54.95
382.891	126.63
383.101	46.76
383.311	42.67
383.521	-16.73
383.731	16.04
383.941	100.01
384.151	44.71
384.361	36.52
384.571	1.71
384.781	20.14
384.991	63.15
385.201	59.05
385.411	34.47
385.621	36.52
385.831	-51.54
386.041	48.81
386.251	36.52
386.461	63.15
386.671	50.86
386.881	100.01
387.091	61.1
387.301	134.82
387.511	102.06
387.72	97.96
387.93	77.48
388.14	-41.3
388.35	36.52
388.56	46.76
388.769	67.24
388.979	42.67
389.189	20.14
389.399	50.86
389.609	26.28
389.818	67.24
390.028	-16.73
390.238	3.75
390.447	26.28
390.657	38.57
390.867	100.01
391.076	-26.96
391.286	83.63
391.496	65.19
391.705	50.86
391.915	3.75
392.125	102.06
392.334	16.04
392.544	112.3
392.753	132.78
392.963	-26.96
393.172	79.53
393.382	95.91
393.591	134.82
393.801	-2.39
394.01	28.33
394.22	44.71
394.429	22.19
394.639	44.71
394.848	34.47
395.058	81.58
395.267	9.9
395.477	91.82
395.686	46.76
395.895	59.05
396.105	120.49
396.314	59.05
396.524	-6.49
396.733	85.67
396.942	124.58
397.152	65.19
397.361	128.68
397.57	46.76
397.78	67.24
397.989	50.86
398.198	126.63
398.407	110.25
398.617	52.91
398.826	69.29
399.035	71.34
399.244	132.78
399.453	147.11
399.663	100.01
399.872	59.05
400.081	95.91
400.29	175.78
400.499	52.91
400.708	149.16
400.917	42.67
401.127	93.87
401.336	44.71
401.545	128.68
401.754	106.15
401.963	79.53
402.172	124.58
402.381	52.91
402.59	83.63
402.799	214.7
403.008	194.22
403.217	67.24
403.426	93.87
403.635	54.95
403.844	136.87
404.053	106.15
404.262	108.2
404.471	192.17
404.68	143.02
404.888	124.58
405.097	147.11
405.306	126.63
405.515	231.08
405.724	130.73
405.933	179.88
406.142	173.74
406.35	157.35
406.559	243.37
406.768	171.69
406.977	231.08
407.185	233.13
407.394	239.27
407.603	159.4
407.812	251.56
408.02	263.85
408.229	165.54
408.438	171.69
408.646	208.55
408.855	206.5
409.064	296.61
409.272	304.81
409.481	308.9
409.69	298.66
409.898	302.76
410.107	339.62
410.315	276.13
410.524	313
410.733	341.67
410.941	315.05
411.15	370.34
411.358	378.53
411.567	464.55
411.775	411.3
411.984	485.03
412.192	493.22
412.401	454.31
412.609	540.32
412.818	599.71
413.026	577.19
413.234	609.95
413.443	616.1
413.651	528.03
413.86	632.48
414.068	714.4
414.276	691.87
414.485	710.3
414.693	755.36
414.901	755.36
415.11	640.67
415.318	771.74
415.526	851.61
415.734	843.42
415.943	845.47
416.151	874.14
416.359	886.43
416.567	931.48
416.776	937.63
416.984	1085.08
417.192	1011.36
417.4	1033.88
417.608	1197.72
417.817	1146.52
418.025	1222.3
418.233	1420.95
418.441	1308.31
418.649	1320.6
418.857	1461.91
419.065	1367.7
419.273	1453.72
419.481	1595.03
419.689	1582.74
419.897	1674.9
420.105	1683.09
420.313	1754.77
420.521	1810.06
420.729	1863.31
420.937	1971.85
421.145	1918.61
421.353	2133.64
421.561	2141.83
421.769	2328.2
421.977	2328.2
422.185	2309.77
422.393	2479.75
422.601	2471.56
422.809	2582.15
423.017	2555.52
423.224	2625.15
423.432	2848.38
423.64	2774.66
423.848	3069.56
424.056	3022.46
424.263	3114.62
424.471	3262.07
424.679	3253.88
424.887	3552.88
425.094	3624.56
425.302	3704.43
425.51	3759.73
425.718	3778.16
425.925	3864.18
426.133	3991.15
426.341	4154.99
426.548	4394.6
426.756	4400.74
426.964	4615.78
427.171	4730.47
427.379	4836.96
427.586	4910.69
427.794	5115.48
428.001	5172.83
428.209	5582.42
428.417	5377.62
428.624	5822.03
428.832	5783.12
429.039	5776.98
429.247	5611.09
429.454	6194.76
429.662	6735.43
429.869	6215.24
430.076	6811.2
430.284	6481.48
430.491	6852.16
430.699	7243.32
430.906	7386.68
431.114	7171.65
431.321	7491.13
431.528	7775.8
431.736	8134.19
431.943	8771.11
432.15	8468.01
432.358	8556.07
432.565	8828.45
432.772	8807.97
432.979	9373.21
433.187	9356.83
433.394	9487.9
433.601	10137.1
433.808	10219.02
434.016	10034.71
434.223	10647.05
434.43	11222.53
434.637	10825.22
434.844	11576.83
435.052	11658.74
435.259	11787.77
435.466	11996.66
435.673	11683.32
435.88	12494.32
436.087	13006.31
436.294	13059.56
436.501	12981.73
436.708	13172.19
436.915	13594.08
437.122	14144.98
437.329	14140.88
437.537	14376.4
437.743	14937.54
437.95	14714.31
438.157	15486.4
438.364	15818.17
438.571	16088.5
438.778	15914.42
438.985	17122.73
439.192	16731.56
439.399	17429.92
439.606	16840.11
439.813	17679.77
440.02	18802.06
440.227	18468.24
440.433	18056.6
440.64	19025.29
440.847	18673.04
441.054	19223.94
441.261	20465.01
441.467	20194.68
441.674	20780.4
441.881	21409.12
442.088	21431.65
442.294	21099.88
442.501	21595.49
442.708	22269.27
442.914	22900.05
443.121	23811.39
443.328	23250.25
443.534	24956.21
443.741	24378.68
443.948	24008
444.154	25386.28
444.361	25736.48
444.568	26015.01
444.774	25543.97
444.981	25928.99
445.187	26529.05
445.394	28050.69
445.6	27507.97
445.807	30254.3
446.013	28730.61
446.22	29197.55
446.426	30518.49
446.633	30502.11
446.839	31651.02
447.046	30409.95
447.252	32253.12
447.459	32163.01
447.665	31878.34
447.871	33174.7
448.078	34616.47
448.284	32984.24
448.491	33795.24
448.697	35372.17
448.903	35662.99
449.11	36101.25
449.316	35468.43
449.522	36297.86
449.728	37022.84
449.935	37049.46
450.141	37330.03
450.347	37919.85
450.553	36949.11
450.76	37528.69
450.966	38589.53
451.172	38163.56
451.378	39562.32
451.584	38476.9
451.791	39386.19
451.997	39281.75
452.203	39431.25
452.409	39674.96
452.615	39402.58
452.821	38020.2
453.027	37706.86
453.233	39400.53
453.44	38487.14
453.646	38341.73
453.852	38595.68
454.058	39056.47
454.264	37530.73
454.47	38980.7
454.676	37756.01
454.882	39058.52
455.088	35902.6
455.294	36093.06
455.5	36551.8
455.705	37057.65
455.911	35908.74
456.117	34704.54
456.323	34663.58
456.529	32898.23
456.735	33770.66
456.941	33033.39
457.147	32574.65
457.352	31419.6
457.558	31083.73
457.764	31255.76
457.97	30913.75
458.176	30033.12
458.381	29906.15
458.587	28480.76
458.793	28423.42
458.999	26989.84
459.204	28886.26
459.41	28189.95
459.616	26019.1
459.821	26227.99
460.027	25984.29
460.233	25449.77
460.438	24649.01
460.644	24450.36
460.85	23526.72
461.055	22871.37
461.261	23119.18
461.466	21288.29
461.672	20710.77
461.878	21818.72
462.083	20589.94
462.289	20104.57
462.494	20106.62
462.7	18888.07
462.905	18644.37
463.111	19158.41
463.316	19051.91
463.522	18771.34
463.727	18724.24
463.932	19043.72
464.138	18539.92
464.343	18765.2
464.549	18230.68
464.754	18535.82
464.959	18566.54
465.165	18357.65
465.37	17425.82
465.575	17327.52
465.781	17743.26
465.986	17923.48
466.191	17292.71
466.397	16747.95
466.602	16184.76
466.807	16786.86
467.012	16582.06
467.218	16387.5
467.423	16039.35
467.628	16162.23
467.833	17012.14
468.038	16299.44
468.244	16049.59
468.449	16528.81
468.654	15803.83
468.859	15945.14
469.064	15832.51
469.269	15046.09
469.474	15390.14
469.679	15379.9
469.885	15054.28
470.09	15388.1
470.295	15232.45
470.5	14802.38
470.705	14886.34
470.91	14509.52
471.115	14550.48
471.32	14591.44
471.525	14570.96
471.73	14237.14
471.935	14132.69
472.139	13559.26
472.344	13678.04
472.549	13665.75
472.754	13522.4
472.959	13336.03
473.164	12748.26
473.369	12686.83
473.574	13307.36
473.778	12903.91
473.983	12715.5
474.188	12885.48
474.393	12346.86
474.598	12496.36
474.802	12191.22
475.007	11908.6
475.212	11978.23
475.417	11476.48
475.621	11779.57
475.826	11757.05
476.031	11662.84
476.235	11283.97
476.44	11609.59
476.645	11322.88
476.849	11384.32
477.054	11105.79
477.259	10860.04
477.463	11140.61
477.668	10579.47
477.872	10786.31
478.077	10604.04
478.282	10497.55
478.486	10249.74
478.691	10216.97
478.895	10354.19
479.1	10151.44
479.304	10214.93
479.509	9991.7
479.713	10180.11
479.918	9643.54
480.122	9584.15
480.326	9893.4
480.531	9989.65
480.735	9578.01
480.94	9535
481.144	9885.2
481.348	9512.47
481.553	9668.12
481.757	9414.17
481.961	9610.78
482.166	9653.78
482.37	9387.55
482.574	9272.86
482.778	9414.17
482.983	9365.02
483.187	9287.2
483.391	9274.91
483.595	9319.96
483.8	9113.12
484.004	9365.02
484.208	9473.56
484.412	9233.95
484.616	9315.87
484.821	9330.2
485.025	9123.36
485.229	9178.65
485.433	9209.37
485.637	9336.35
485.841	9266.72
486.045	9092.64
486.249	9479.71
486.453	9057.82
486.657	9121.31
486.861	9274.91
487.065	8988.19
487.269	9238.05
487.473	8898.08
487.677	9233.95
487.881	9342.49
488.085	9168.41
488.289	9139.74
488.493	9109.02
488.697	9190.94
488.901	9287.2
489.105	9324.06
489.309	9217.57
489.512	9461.27
489.716	9147.94
489.92	9248.29
490.124	9199.13
490.328	9508.38
490.531	9152.03
490.735	9520.67
490.939	9489.95
491.143	9166.37
491.346	9328.16
491.55	9565.72
491.754	9571.86
491.958	9528.86
492.161	9408.03
492.365	9520.67
492.569	9498.14
492.772	9506.33
492.976	9467.42
493.18	9766.42
493.383	9780.76
493.587	9661.98
493.79	9874.96
493.994	9537.05
494.197	9723.41
494.401	9856.53
494.605	9889.3
494.808	10221.07
495.012	10208.78
495.215	10069.52
495.419	10202.64
495.622	10118.67
495.825	10327.57
496.029	10327.57
496.232	10487.31
496.436	10346
496.639	10638.86
496.843	10452.49
497.046	10839.56
497.249	10894.85
497.453	10786.31
497.656	11138.56
497.859	11163.14
498.063	11243.01
498.266	11113.99
498.469	11273.73
498.673	11423.23
498.876	11589.11
499.079	11806.2
499.282	11660.79
499.485	11734.52
499.689	11920.88
499.892	12262.9
500.095	12176.88
500.298	12522.99
500.501	12340.72
500.705	12664.3
500.908	12703.21
501.111	12729.83
501.314	13004.26
501.517	12936.68
501.72	13346.27
501.923	13288.93
502.126	13317.6
502.329	13624.79
502.532	13745.62
502.735	13878.74
502.938	13991.38
503.141	13796.82
503.344	14077.4
503.547	14388.69
503.75	14392.78
503.953	14722.51
504.156	14620.11
504.359	15050.18
504.562	14896.58
504.765	15263.17
504.968	15422.91
505.17	15515.07
505.373	15676.86
505.576	15967.67
505.779	15920.57
505.982	15973.81
506.185	16221.62
506.387	16373.17
506.59	16422.32
506.793	16643.5
506.996	16975.27
507.198	17112.49
507.401	17343.91
507.604	17552.8
507.807	17628.57
508.009	17786.27
508.212	17825.18
508.415	17905.05
508.617	18138.52
508.82	18429.33
509.022	18199.96
509.225	18916.75
509.428	19008.9
509.63	19164.55
509.833	19139.97
510.035	19772.8
510.238	19404.16
510.44	19975.55
510.643	20114.81
510.845	20225.4
511.048	20141.43
511.25	20581.74
511.453	20651.38
511.655	21347.68
511.858	21220.71
512.06	21493.09
512.262	21577.06
512.465	21499.23
512.667	21847.39
512.87	22232.41
513.072	22252.89
513.274	22584.66
513.477	22904.14
513.679	22865.23
513.881	23168.33
514.084	23110.99
514.286	23409.99
514.488	23598.4
514.69	24360.25
514.893	24141.11
515.095	24245.56
515.297	24462.65
515.499	24548.66
515.701	24771.89
515.904	25126.19
516.106	24923.44
516.308	25558.31
516.51	25838.88
516.712	25632.04
516.914	25996.57
517.116	26049.82
517.318	26576.15
517.52	26608.92
517.722	26789.14
517.925	27043.09
518.127	27395.34
518.329	27262.22
518.531	27542.79
518.733	27776.26
518.935	27731.2
519.136	27989.25
519.338	28318.97
519.54	28476.66
519.742	28787.96
519.944	29043.95
520.146	29254.89
520.348	29740.26
520.55	29054.19
520.752	29197.55
520.954	29994.21
521.155	29738.21
521.357	30151.9
521.559	30119.14
521.761	30831.83
521.963	30641.37
522.164	30713.05
522.366	30837.97
522.568	30964.95
522.77	31298.77
522.971	31460.55
523.173	31177.93
523.375	31505.61
523.576	31433.93
523.778	31489.23
523.98	31718.6
524.181	31911.11
524.383	32019.65
524.584	32216.26
524.786	32486.59
524.988	32253.12
525.189	32433.34
525.391	32228.54
525.592	32421.05
525.794	32652.47
525.995	33027.25
526.197	32810.17
526.398	32959.67
526.6	33029.3
526.801	32740.54
527.003	32904.37
527.204	32750.77
527.406	33125.55
527.607	32879.8
527.808	33045.68
528.01	32826.55
528.211	32894.13
528.412	33565.87
528.614	33242.29
528.815	33373.36
529.016	33488.04
529.218	33367.21
529.419	33397.93
529.62	33150.13
529.822	33410.22
530.023	33023.15
530.224	33170.61
530.425	33193.14
530.626	33035.44
530.828	32824.5
531.029	33178.8
531.23	33096.88
531.431	33006.77
531.632	32816.31
531.833	33158.32
532.035	32871.61
532.236	32920.76
532.437	33029.3
532.638	33117.36
532.839	32795.83
533.04	33066.16
533.241	32638.14
533.442	32730.3
533.643	32775.35
533.844	32392.38
534.045	32722.1
534.246	32165.06
534.447	32490.68
534.648	32609.47
534.849	32689.34
535.05	32269.5
535.251	32435.39
535.451	32376
535.652	32347.33
535.853	32292.03
536.054	32273.6
536.255	32365.76
536.456	31913.16
536.657	32406.72
536.857	31722.69
537.058	31835.33
537.259	32216.26
537.46	31921.35
537.66	31960.26
537.861	31833.28
538.062	31767.75
538.263	32079.04
538.463	31683.78
538.664	31780.04
538.865	31804.61
539.065	31655.11
539.266	31528.14
539.466	31769.8
539.667	31261.9
539.868	31603.91
540.068	31732.93
540.269	31495.37
540.469	31720.65
540.67	31333.58
540.87	31612.1
541.071	31577.29
541.271	31296.72
541.472	31454.41
541.672	31245.52
541.873	31495.37
542.073	31100.11
542.274	31614.15
542.474	30997.71
542.675	30903.51
542.875	31366.35
543.075	31368.4
543.276	30647.51
543.476	31290.57
543.676	30756.05
543.877	30993.62
544.077	31108.3
544.277	30749.91
544.478	30727.38
544.678	31038.67
544.878	31341.77
545.078	30958.8
545.279	30940.37
545.479	31010
545.679	31190.22
545.879	31114.45
546.079	31186.13
546.28	31212.75
546.48	30684.37
546.68	30635.22
546.88	31167.7
547.08	30805.2
547.28	30715.09
547.48	30778.58
547.68	30911.7
547.88	30805.2
548.081	31298.77
548.281	31001.81
548.481	30612.7
548.681	31227.09
548.881	30889.17
549.081	30833.88
549.28	30665.94
549.48	30876.88
549.68	30991.57
549.88	31413.45
550.08	30921.94
550.28	31155.41
550.48	30897.36
550.68	31245.52
550.88	30928.08
551.08	31284.43
551.279	31214.8
551.479	30993.62
551.679	31089.87
551.879	31087.82
552.079	30954.71
552.278	30801.11
552.478	31112.4
552.678	31053.01
552.878	31401.16
553.077	30852.31
553.277	31069.39
553.477	31515.85
553.676	30837.97
553.876	31241.42
554.076	31192.27
554.275	31278.29
554.475	30934.23
554.674	31102.16
554.874	31153.36
555.074	31325.39
555.273	31302.86
555.473	31448.27
555.672	31061.2
555.872	31472.84
556.071	31284.43
556.271	31601.86
556.47	31478.99
556.67	31171.79
556.869	31216.85
557.068	31427.79
557.268	31302.86
557.467	31542.47
557.667	31493.32
557.866	31458.51
558.065	31575.24
558.265	31425.74
558.464	31055.06
558.663	31763.65
558.863	31360.2
559.062	32005.31
559.261	31372.49
559.461	31788.23
559.66	31253.71
559.859	31407.31
560.058	30962.9
560.258	31478.99
560.457	31261.9
560.656	31540.43
560.855	31343.82
561.054	31472.84
561.253	31505.61
561.453	31661.26
561.652	31630.54
561.851	31808.71
562.05	31384.78
562.249	31509.71
562.448	31872.2
562.647	31669.45
562.846	31030.48
563.045	31397.07
563.244	31257.81
563.443	31567.05
563.642	30723.29
563.841	31347.92
564.04	31112.4
564.239	31589.58
564.438	31225.04
564.637	31536.33
564.836	31487.18
565.035	30997.71
565.234	31210.7
565.432	31261.9
565.631	30971.09
565.83	31366.35
566.029	31155.41
566.228	30842.07
566.427	30854.36
566.625	30751.96
566.824	30653.65
567.023	30768.34
567.222	30299.36
567.42	30659.8
567.619	30964.95
567.818	30293.21
568.016	30536.92
568.215	30690.52
568.414	30581.98
568.612	30790.87
568.811	30395.61
569.01	30395.61
569.208	29940.96
569.407	30260.44
569.605	29945.06
569.804	30520.54
570.002	30008.54
570.201	29979.87
570.4	30067.94
570.598	29816.04
570.797	29566.18
570.995	29756.64
571.193	29451.5
571.392	29707.49
571.59	29230.32
571.789	29490.41
571.987	29406.44
572.186	29463.79
572.384	29041.9
572.582	29115.63
572.781	29224.17
572.979	28683.51
573.177	28896.5
573.376	28841.2
573.574	28435.7
573.772	28695.8
573.971	28536.06
574.169	28398.84
574.367	28114.17
574.565	28339.45
574.763	28671.22
574.962	28382.46
575.16	27735.3
575.358	28198.14
575.556	28069.12
575.754	28241.15
575.952	27723.01
576.151	27802.88
576.349	27567.37
576.547	27555.08
576.745	27643.14
576.943	27647.24
577.141	27634.95
577.339	27737.35
577.537	27176.2
577.735	27479.3
577.933	26957.07
578.131	27247.88
578.329	26879.25
578.527	27008.27
578.725	27221.26
578.923	27096.33
579.121	26864.91
579.319	26377.5
579.516	26760.47
579.714	26496.28
579.912	26311.96
580.11	26172.7
580.308	26445.08
580.506	26465.56
580.704	26025.25
580.901	26328.34
581.099	26144.03
581.297	25777.44
581.495	25785.63
581.692	26221.85
581.89	25695.52
582.088	25818.4
582.285	25619.75
582.483	25974.05
582.681	25361.7
582.878	25830.69
583.076	25218.35
583.274	25507.11
583.471	24872.24
583.669	25455.91
583.866	25257.26
584.064	25097.52
584.262	25027.88
584.459	24763.7
584.657	24808.75
584.854	24966.45
585.052	24792.37
585.249	24728.88
585.447	24862
585.644	24628.53
585.841	24902.96
586.039	24704.31
586.236	24671.54
586.434	24579.38
586.631	24384.82
586.828	24374.58
587.026	24274.23
587.223	24128.83
587.42	24315.19
587.618	24315.19
587.815	23815.49
588.012	23756.1
588.21	23942.46
588.407	24198.46
588.604	23952.7
588.801	23729.47
588.999	23928.13
589.196	23754.05
589.393	23868.73
589.59	23604.55
589.787	23332.17
589.984	23467.33
590.182	23397.7
590.379	23418.18
590.576	23483.72
590.773	23383.37
590.97	23201.1
591.167	23379.27
591.364	23090.51
591.561	23170.38
591.758	23043.4
591.955	23276.87
592.152	23141.71
592.349	23121.23
592.546	23063.88
592.743	22789.45
592.94	22900.05
593.137	22932.81
593.334	22760.78
593.531	22666.58
593.727	22496.6
593.924	22871.37
594.121	22607.19
594.318	22654.29
594.515	22605.14
594.712	22977.87
594.908	22582.61
595.105	22748.5
595.302	22275.41
595.499	22644.05
595.696	22668.62
595.892	22287.7
596.089	22525.27
596.286	22465.88
596.482	22306.13
596.679	22515.03
596.876	22566.23
597.072	22410.58
597.269	22730.06
597.466	22279.51
597.662	22566.23
597.859	22531.41
598.055	22498.64
598.252	22564.18
598.448	22500.69
598.645	22291.8
598.841	22332.76
599.038	22457.68
599.234	22343
599.431	21968.22
599.627	22467.92
599.824	22742.35
600.02	22193.5
600.217	22506.84
600.413	22426.96
600.609	22146.39
600.806	22359.38
601.002	22240.6
601.198	22177.11
601.395	22439.25
601.591	22631.76
601.787	22390.1
601.984	22523.22
602.18	22678.86
602.376	22478.16
602.572	22635.86
602.769	22560.08
602.965	22701.39
603.161	22660.43
603.357	22535.51
603.553	22572.37
603.75	22699.34
603.946	22861.13
604.142	22850.89
604.338	22742.35
604.534	22701.39
604.73	22797.65
604.926	22752.59
605.122	22971.72
605.318	22936.91
605.514	22932.81
605.71	22932.81
605.906	23037.26
606.102	23219.53
606.298	22885.71
606.494	23049.55
606.69	23457.09
606.886	23149.9
607.082	22975.82
607.278	23510.34
607.474	23184.71
607.67	23229.77
607.866	22934.86
608.062	23557.44
608.257	23098.7
608.453	23512.39
608.649	23567.68
608.845	23305.54
609.041	23407.94
609.236	23733.57
609.432	23575.87
609.628	23909.69
609.824	23727.42
610.019	23772.48
610.215	23790.91
610.411	24081.72
610.606	24079.68
610.802	23969.08
610.998	23999.8
611.193	23971.13
611.389	23901.5
611.584	24053.05
611.78	24261.94
611.976	24309.05
612.171	24364.34
612.367	24149.31
612.562	24175.93
612.758	23833.92
612.953	24190.27
613.149	24751.41
613.344	24235.32
613.539	24188.22
613.735	24395.06
613.93	24470.84
614.126	24085.82
614.321	24884.53
614.517	24284.47
614.712	24538.42
614.907	24507.7
615.103	24409.4
615.298	24077.63
615.493	24714.55
615.688	24372.53
615.884	24970.54
616.079	24532.28
616.274	24468.79
616.47	24601.91
616.665	24653.11
616.86	24235.32
617.055	24763.7
617.25	24710.45
617.445	24671.54
617.641	24216.89
617.836	24601.91
618.031	24132.92
618.226	24491.32
618.421	24538.42
618.616	24431.93
618.811	24339.77
619.006	24563
619.201	23838.01
619.396	24519.99
619.591	23885.12
619.786	24333.62
619.981	23842.11
620.176	24151.35
620.371	23725.38
620.566	23719.23
620.761	23639.36
620.956	23995.71
621.151	23428.42
621.346	23729.47
621.541	23211.34
621.735	23649.6
621.93	23084.36
622.125	23317.83
622.32	22906.19
622.515	23086.41
622.709	22873.42
622.904	23082.31
623.099	22920.52
623.294	22811.98
623.488	22662.48
623.683	22803.79
623.878	22111.58
624.072	22525.27
624.267	22226.26
624.462	21779.81
624.656	22066.52
624.851	22152.54
625.046	21851.49
625.24	22031.71
625.435	21763.42
625.629	21806.43
625.824	21570.91
626.018	21677.41
626.213	20997.48
626.407	21118.31
626.602	21146.98
626.796	20825.45
626.991	21038.44
627.185	20788.59
627.38	20782.45
627.574	20772.21
627.768	20786.54
627.963	20450.67
628.157	20254.07
628.352	20219.25
628.546	20077.94
628.74	20422
628.935	19993.98
629.129	20053.37
629.323	19981.69
629.517	20051.32
629.712	19619.2
629.906	19572.1
630.1	19385.73
630.294	19486.08
630.489	19269
630.683	19471.75
630.877	19076.49
631.071	19002.76
631.265	18867.59
631.459	18820.49
631.653	18818.44
631.848	18783.63
632.042	18511.25
632.236	18605.45
632.43	18470.29
632.624	18212.24
632.818	18560.4
633.012	18228.63
633.206	17931.67
633.4	17853.85
633.594	17759.64
633.788	18075.03
633.982	18007.45
634.176	17847.71
634.369	17442.21
634.563	17403.3
634.757	17049
634.951	17421.73
635.145	17286.56
635.339	17225.12
635.533	17249.7
635.726	17003.94
635.92	16520.62
636.114	16913.83
636.308	16637.36
636.501	16801.19
636.695	16520.62
636.889	16606.64
637.083	16297.39
637.276	16229.81
637.47	15969.72
637.664	16041.4
637.857	15939
638.051	15924.66
638.244	15754.68
638.438	15521.21
638.632	15590.84
638.825	15590.84
639.019	15443.39
639.212	15332.8
639.406	15527.36
639.599	15287.75
639.793	15418.82
639.986	15031.75
640.18	15209.92
640.373	14896.58
640.567	14661.07
640.76	14798.28
640.954	14534.09
641.147	14257.62
641.34	14443.98
641.534	14392.78
641.727	14257.62
641.92	14280.14
642.114	13929.94
642.307	14050.77
642.5	14052.82
642.694	13641.18
642.887	13714.91
643.08	13813.21
643.273	13762.01
643.467	13495.77
643.66	13233.63
643.853	13325.79
644.046	13231.58
644.239	13043.17
644.432	13088.23
644.626	13045.22
644.819	13157.86
645.012	12715.5
645.205	12865
645.398	12633.58
645.591	12518.89
645.784	12563.95
645.977	12400.11
646.17	12365.29
646.363	12191.22
646.556	12180.98
646.749	12254.7
646.942	12291.57
647.135	11892.21
647.328	12062.19
647.521	12056.05
647.714	11814.39
647.907	11521.53
648.099	11640.31
648.292	11843.06
648.485	11609.59
648.678	11404.8
648.871	11378.17
649.064	11109.89
649.256	11429.37
649.449	11095.55
649.642	11116.03
649.835	10831.37
650.027	11013.63
650.22	10915.33
650.413	10841.61
650.605	10958.34
650.798	10665.48
650.991	10700.3
651.183	10806.79
651.376	10356.24
651.568	10526.22
651.761	10229.26
651.954	10421.77
652.146	10286.61
652.339	10329.61
652.531	10124.82
652.724	10167.82
652.916	10038.8
653.109	10028.56
653.301	10014.23
653.494	10016.27
653.686	9782.81
653.879	10161.68
654.071	9870.87
654.263	9621.02
654.456	9717.27
654.648	9823.76
654.84	9356.83
655.033	9651.74
655.225	9580.06
655.417	9295.39
655.61	9438.75
655.802	9549.34
655.994	9307.68
656.186	9168.41
656.379	9217.57
656.571	9172.51
656.763	8973.86
656.955	9145.89
657.148	8939.04
657.34	9000.48
657.532	8773.16
657.724	8848.93
657.916	8906.27
658.108	8605.22
658.3	8539.69
658.492	8719.91
658.684	8615.46
658.876	8551.98
659.068	8584.74
659.26	8511.02
659.452	8418.86
659.644	8263.21
659.836	8105.52
660.028	8191.53
660.22	8234.54
660.412	8119.85
660.604	7999.02
660.796	7982.64
660.988	7988.78
661.18	8027.7
661.372	7759.41
661.563	7966.26
661.755	7818.8
661.947	7706.17
662.139	7673.4
662.331	7673.4
662.522	7718.45
662.714	7726.64
662.906	7677.49
663.097	7587.38
663.289	7337.53
663.481	7300.67
663.673	7464.5
663.864	7333.43
664.056	7261.76
664.247	7159.36
664.439	7116.35
664.631	7134.78
664.822	7286.33
665.014	7112.25
665.205	7001.66
665.397	6891.07
665.588	6997.57
665.78	7038.53
665.971	6880.83
666.163	6934.08
666.354	6911.55
666.546	6891.07
666.737	6712.9
666.929	6669.89
667.12	6815.3
667.311	6790.72
667.503	6626.89
667.694	6698.56
667.885	6542.92
668.077	6735.43
668.268	6501.96
668.459	6561.35
668.651	6350.41
668.842	6518.34
669.033	6405.7
669.224	6336.07
669.416	6428.23
669.607	6366.79
669.798	6084.17
669.989	6350.41
670.18	6137.42
670.371	6211.15
670.563	5965.39
670.754	6241.87
670.945	5996.11
671.136	6137.42
671.327	6262.35
671.518	6006.35
671.709	6108.75
671.9	6055.5
672.091	5862.99
672.282	5895.76
672.473	5834.32
672.664	5830.23
672.855	5834.32
673.046	5840.47
673.237	5819.99
673.428	5916.24
673.619	5762.64
673.809	5727.83
674	5727.83
674.191	5883.47
674.382	5785.17
674.573	5656.15
674.764	5615.19
674.954	5938.77
675.145	5719.64
675.336	5697.11
675.527	5625.43
675.717	5563.99
675.908	5457.5
676.099	5494.36
676.289	5506.65
676.48	5529.17
676.671	5402.2
676.861	5617.24
677.052	5404.25
677.243	5377.62
677.433	5514.84
677.624	5439.06
677.814	5402.2
678.005	5430.87
678.195	5344.86
678.386	5375.58
678.576	5183.07
678.767	5279.32
678.957	5066.33
679.148	5326.43
679.338	5258.84
679.529	5482.07
679.719	5367.38
679.909	5322.33
680.1	5297.75
680.29	5215.84
680.481	5293.66
680.671	5230.17
680.861	5252.7
681.052	5246.55
681.242	5273.18
681.432	5342.81
681.622	5187.16
681.813	5287.51
682.003	5226.07
682.193	5170.78
682.383	5230.17
682.573	5123.68
682.764	5133.92
682.954	5199.45
683.144	5049.95
683.334	5121.63
683.524	5322.33
683.714	5156.44
683.904	5049.95
684.094	5197.4
684.284	5205.6
684.474	5207.64
684.664	5017.18
684.854	5148.25
685.044	5031.52
685.234	5058.14
685.424	5158.49
685.614	4992.61
685.804	5082.72
685.994	5011.04
686.184	5097.05
686.374	5013.09
686.564	5039.71
686.753	5008.99
686.943	4865.63
687.133	5164.64
687.323	4951.65
687.513	4851.3
687.702	4910.69
687.892	4828.77
688.082	4877.92
688.272	5090.91
688.461	5045.85
688.651	4875.87
688.841	4875.87
689.03	4834.91
689.22	4802.15
689.41	4785.76
689.599	4793.95
689.789	4789.86
689.979	4796
690.168	4857.44
690.358	4736.61
690.547	4730.47
690.737	4656.74
690.926	4718.18
691.116	4703.84
691.305	4785.76
691.495	4798.05
691.684	4679.27
691.874	4634.21
692.063	4634.21
692.252	4607.59
692.442	4646.5
692.631	4548.2
692.82	4654.69
693.01	4494.95
693.199	4613.73
693.388	4591.2
693.578	4589.16
693.767	4599.4
693.956	4537.96
694.146	4404.84
694.335	4617.83
694.524	4515.43
694.713	4644.45
694.902	4580.96
695.092	4576.87
695.281	4456.04
695.47	4488.81
695.659	4417.13
695.848	4384.36
696.037	4482.66
696.226	4370.02
696.415	4431.46
696.604	4408.94
696.793	4324.97
696.982	4353.64
697.171	4517.48
697.36	4402.79
697.549	4503.14
697.738	4249.19
697.927	4306.54
698.116	4382.31
698.305	4269.67
698.494	4263.53
698.683	4212.33
698.872	4400.74
699.061	4232.81
699.25	4189.8
699.438	4191.85
699.627	4187.75
699.816	4173.42
700.005	4281.96
700.193	4103.79
700.382	4179.56
700.571	4089.45
700.76	4236.91
700.948	4236.91
701.137	4093.55
701.326	4144.75
701.514	3958.38
701.703	4105.84
701.892	4042.35
702.08	4122.22
702.269	4083.31
702.457	4025.97
702.646	3974.77
702.834	3925.61
703.023	3944.05
703.212	3825.26
703.4	3974.77
703.589	3907.18
703.777	4036.21
703.965	3919.47
704.154	3858.03
704.342	3827.31
704.531	3999.34
704.719	3780.21
704.907	3845.74
705.096	3823.22
705.284	3868.27
705.472	3909.23
705.661	3952.24
705.849	3829.36
706.037	3741.3
706.226	3839.6
706.414	3792.5
706.602	3704.43
706.79	3630.71
706.979	3794.54
707.167	3763.83
707.355	3622.52
707.543	3683.95
707.731	3755.63
707.919	3688.05
708.107	3597.94
708.296	3542.64
708.484	3532.4
708.672	3655.28
708.86	3663.47
709.048	3618.42
709.236	3528.31
709.424	3655.28
709.612	3599.99
709.8	3462.77
709.988	3499.64
710.176	3516.02
710.364	3509.88
710.551	3528.31
710.739	3532.4
710.927	3528.31
711.115	3493.49
711.303	3454.58
711.491	3450.49
711.679	3466.87
711.866	3446.39
712.054	3362.42
712.242	3335.8
712.43	3387
712.617	3430.01
712.805	3382.9
712.993	3362.42
713.181	3343.99
713.368	3239.55
713.556	3270.26
713.744	3212.92
713.931	3382.9
714.119	3341.94
714.306	3227.26
714.494	3198.59
714.682	3204.73
714.869	3032.7
715.057	3354.23
715.244	3075.71
715.432	3282.55
715.619	3163.77
715.807	3116.67
715.994	3122.81
716.182	3044.99
716.369	3237.5
716.556	3057.28
716.744	3057.28
716.931	3057.28
717.119	3157.63
717.306	3057.28
717.493	3044.99
717.681	3047.04
717.868	2993.79
718.055	3020.41
718.242	3057.28
718.43	2985.6
718.617	2856.58
718.804	2997.88
718.991	2879.1
719.179	3065.47
719.366	2897.53
719.553	2934.4
719.74	2993.79
719.927	2854.53
720.114	3016.32
720.301	2928.25
720.488	2872.96
720.676	2877.05
720.863	2838.14
721.05	3036.8
721.237	2993.79
721.424	2832
721.611	2813.57
721.798	2823.81
721.985	2832
722.172	2741.89
722.358	2836.1
722.545	2838.14
722.732	2659.97
722.919	2659.97
723.106	2696.83
723.293	2692.74
723.48	2848.38
723.667	2672.26
723.853	2619.01
724.04	2631.3
724.227	2696.83
724.414	2520.71
724.6	2739.84
724.787	2836.1
724.974	2633.35
725.161	2662.02
725.347	2533
725.534	2557.57
725.72	2645.63
725.907	2623.11
726.094	2662.02
726.28	2485.89
726.467	2653.83
726.653	2496.13
726.84	2569.86
727.027	2520.71
727.213	2461.32
727.4	2565.76
727.586	2526.85
727.773	2354.82
727.959	2506.37
728.145	2565.76
728.332	2459.27
728.518	2549.38
728.705	2401.93
728.891	2373.25
729.077	2598.53
729.264	2438.79
729.45	2379.4
729.636	2481.8
729.823	2489.99
730.009	2397.83
730.195	2451.08
730.382	2420.36
730.568	2324.1
730.754	2356.87
730.94	2346.63
731.126	2344.58
731.313	2340.49
731.499	2336.39
731.685	2268.81
731.871	2197.13
732.057	2311.82
732.243	2328.2
732.429	2307.72
732.615	2377.35
732.801	2295.43
732.987	2166.41
733.173	2141.83
733.359	2129.55
733.545	2287.24
733.731	2340.49
733.917	2258.57
734.103	2385.54
734.289	2213.51
734.475	2152.07
734.661	2264.71
734.847	2268.81
735.033	2188.94
735.219	2193.03
735.404	2213.51
735.59	2109.07
735.776	2205.32
735.962	2141.83
736.148	2236.04
736.333	2125.45
736.519	2211.46
736.705	2154.12
736.89	2197.13
737.076	2141.83
737.262	2139.79
737.447	2150.03
737.633	1961.61
737.819	2174.6
738.004	2090.63
738.19	2100.87
738.375	1978
738.561	2094.73
738.747	2051.72
738.932	2049.68
739.118	2113.16
739.303	2111.11
739.489	2025.1
739.674	1988.24
739.859	1945.23
740.045	2004.62
740.23	2014.86
740.416	1906.32
740.601	1910.41
740.786	1947.28
740.972	1885.84
741.157	1816.21
741.342	1914.51
741.528	1863.31
741.713	1853.07
741.898	1945.23
742.084	1814.16
742.269	1943.18
742.454	1869.45
742.639	1875.6
742.824	1887.89
743.01	1812.11
743.195	1906.32
743.38	1869.45
743.565	1722
743.75	1836.69
743.935	1781.39
744.12	1814.16
744.305	1642.13
744.49	1844.88
744.675	1797.78
744.86	1726.1
745.045	1830.54
745.23	1754.77
745.415	1666.71
745.6	1668.75
745.785	1701.52
745.97	1803.92
746.155	1758.86
746.34	1726.1
746.525	1685.14
746.71	1775.25
746.895	1660.56
747.079	1609.36
747.264	1642.13
747.449	1656.47
747.634	1543.83
747.819	1562.26
748.003	1576.59
748.188	1511.06
748.373	1459.86
748.557	1525.4
748.742	1502.87
748.927	1552.02
749.111	1459.86
749.296	1492.63
749.481	1525.4
749.665	1502.87
749.85	1455.76
750.034	1468.05
750.219	1357.46
750.404	1431.19
750.588	1423
750.773	1414.81
750.957	1412.76
751.141	1349.27
751.326	1412.76
751.51	1369.75
751.695	1451.67
751.879	1361.56
752.064	1406.61
752.248	1379.99
752.432	1339.03
752.617	1414.81
752.801	1330.84
752.985	1253.02
753.17	1255.06
753.354	1379.99
753.538	1324.69
753.722	1343.13
753.907	1287.83
754.091	1191.58
754.275	1230.49
754.459	1222.3
754.643	1197.72
754.828	1312.41
755.012	1232.54
755.196	1195.67
755.38	1216.15
755.564	1126.04
755.748	1203.86
755.932	1230.49
756.116	1158.81
756.3	1205.91
756.484	1142.43
756.668	1193.62
756.852	1033.88
757.036	1199.77
757.22	1046.17
757.404	1050.27
757.588	1031.83
757.772	1097.37
757.956	1066.65
758.14	1101.47
758.323	1054.36
758.507	997.02
758.691	976.54
758.875	1146.52
759.059	1042.07
759.242	1029.79
759.426	1015.45
759.61	980.64
759.794	1017.5
759.977	1003.16
760.161	1035.93
760.345	1054.36
760.528	976.54
760.712	951.96
760.895	933.53
761.079	992.92
761.263	919.2
761.446	894.62
761.63	1009.31
761.813	976.54
761.997	937.63
762.18	923.29
762.364	954.01
762.547	898.72
762.731	992.92
762.914	921.24
763.098	906.91
763.281	937.63
763.464	861.85
763.648	857.76
763.831	886.43
764.015	876.19
764.198	913.05
764.381	843.42
764.564	1001.12
764.748	829.09
764.931	847.52
765.114	921.24
765.297	820.89
765.481	820.89
765.664	845.47
765.847	820.89
766.03	941.72
766.213	870.05
766.397	759.46
766.58	753.31
766.763	720.54
766.946	833.18
767.129	824.99
767.312	806.56
767.495	771.74
767.678	775.84
767.861	820.89
768.044	837.28
768.227	824.99
768.41	771.74
768.593	777.89
768.776	853.66
768.959	788.13
769.142	796.32
769.324	863.9
769.507	724.64
769.69	706.21
769.873	816.8
770.056	837.28
770.239	798.37
770.421	738.98
770.604	777.89
770.787	767.65
770.97	759.46
771.152	738.98
771.335	706.21
771.518	708.26
771.7	706.21
771.883	706.21
772.066	765.6
772.248	632.48
772.431	675.49
772.613	730.78
772.796	685.73
772.978	722.59
773.161	784.03
773.343	702.11
773.526	599.71
773.708	544.42
773.891	642.72
774.073	741.02
774.256	722.59
774.438	632.48
774.621	603.81
774.803	650.91
774.985	640.67
775.168	720.54
775.35	648.86
775.532	644.77
775.715	618.15
775.897	599.71
776.079	607.91
776.261	632.48
776.444	552.61
776.626	648.86
776.808	558.75
776.99	550.56
777.173	632.48
777.355	546.47
777.537	560.8
777.719	550.56
777.901	607.91
778.083	501.41
778.265	583.33
778.447	577.19
778.629	577.19
778.811	591.52
778.993	644.77
779.175	626.34
779.357	591.52
779.539	566.95
779.721	493.22
779.903	577.19
780.085	511.65
780.267	542.37
780.449	523.94
780.631	525.99
780.812	538.27
780.994	536.23
781.176	435.88
781.358	558.75
781.54	468.64
781.721	560.8
781.903	468.64
782.085	511.65
782.267	525.99
782.448	431.78
782.63	450.21
782.812	439.97
782.993	423.59
783.175	472.74
783.357	464.55
783.538	446.12
783.72	421.54
783.901	462.5
784.083	480.93
784.264	353.96
784.446	413.35
784.627	423.59
784.809	431.78
784.99	419.49
785.172	444.07
785.353	351.91
785.535	364.2
785.716	435.88
785.897	347.81
786.079	388.77
786.26	378.53
786.441	427.68
786.623	394.92
786.804	323.24
786.985	370.34
787.167	378.53
787.348	353.96
787.529	362.15
787.71	452.26
787.891	384.68
788.073	351.91
788.254	288.42
788.435	394.92
788.616	331.43
788.797	372.39
788.978	364.2
789.159	403.11
789.34	388.77
789.522	368.29
789.703	356.01
789.884	370.34
790.065	337.57
790.246	444.07
790.427	327.33
790.607	333.48
790.788	304.81
790.969	272.04
791.15	304.81
791.331	267.94
791.512	296.61
791.693	282.28
791.874	272.04
792.054	313
792.235	313
792.416	280.23
792.597	239.27
792.778	353.96
792.958	372.39
793.139	325.29
793.32	325.29
793.5	239.27
793.681	396.96
793.862	321.19
794.042	263.85
794.223	218.79
794.404	255.65
794.584	251.56
794.765	308.9
794.945	259.75
795.126	294.57
795.306	288.42
795.487	300.71
795.667	317.09
795.848	231.08
796.028	304.81
796.209	226.98
796.389	315.05
796.57	214.7
796.75	188.07
796.93	265.89
797.111	214.7
797.291	265.89
797.471	288.42
797.652	249.51
797.832	216.74
798.012	251.56
798.192	241.32
798.373	222.89
798.553	214.7
798.733	263.85
798.913	274.09
799.093	239.27
799.274	253.61
799.454	216.74
799.634	169.64
799.814	272.04
799.994	214.7
800.174	214.7
800.354	226.98
800.534	177.83
800.714	226.98
800.894	198.31
801.074	173.74
801.254	126.63
801.434	251.56
801.614	173.74
801.794	220.84
801.974	824.99
802.154	286.37
802.334	169.64
802.514	181.93
802.693	247.46
802.873	208.55
803.053	231.08
803.233	190.12
803.413	214.7
803.592	140.97
803.772	216.74
803.952	222.89
804.131	186.02
804.311	226.98
804.491	233.13
804.67	196.26
804.85	95.91
805.03	257.7
805.209	149.16
805.389	118.44
805.568	190.12
805.748	116.39
805.928	218.79
806.107	233.13
806.287	128.68
806.466	181.93
806.646	161.45
806.825	140.97
807.004	100.01
807.184	157.35
807.363	214.7
807.543	241.32
807.722	149.16
807.901	165.54
808.081	190.12
808.26	159.4
808.439	159.4
808.619	132.78
808.798	149.16
808.977	235.18
809.156	169.64
809.336	173.74
809.515	169.64
809.694	190.12
809.873	104.11
810.052	136.87
810.231	214.7
810.411	157.35
810.59	173.74
810.769	104.11
810.948	159.4
811.127	52.91
811.306	173.74
811.485	87.72
811.664	196.26
811.843	179.88
812.022	140.97
812.201	181.93
812.38	126.63
812.559	100.01
812.737	149.16
812.916	46.76
813.095	75.43
813.274	114.34
813.453	136.87
813.632	140.97
813.811	112.3
813.989	157.35
814.168	126.63
814.347	138.92
814.526	157.35
814.704	102.06
814.883	165.54
815.062	108.2
815.24	120.49
815.419	79.53
815.598	83.63
815.776	54.95
815.955	36.52
816.133	28.33
816.312	18.09
816.49	40.62
816.669	85.67
816.847	104.11
817.026	173.74
817.204	59.05
817.383	50.86
817.561	63.15
817.74	124.58
817.918	73.39
818.097	102.06
818.275	112.3
818.453	155.3
818.632	128.68
818.81	69.29
818.988	138.92
819.167	118.44
819.345	73.39
819.523	83.63
819.701	116.39
819.879	91.82
820.058	87.72
820.236	120.49
820.414	145.06
820.592	81.58
820.77	46.76
820.948	87.72
821.127	93.87
821.305	110.25
821.483	104.11
821.661	183.98
821.839	151.21
822.017	38.57
822.195	116.39
822.373	134.82
822.551	75.43
822.729	116.39
822.907	18.09
823.085	149.16
823.262	83.63
823.44	93.87
823.618	83.63
823.796	91.82
823.974	52.91
824.152	36.52
824.329	122.54
824.507	124.58
824.685	110.25
824.863	138.92
825.04	-2.39
825.218	132.78
825.396	42.67
825.574	75.43
825.751	69.29
825.929	67.24
826.107	81.58
826.284	110.25
826.462	134.82
826.639	100.01
826.817	54.95
826.994	91.82
827.172	5.8
827.349	136.87
827.527	128.68
827.704	116.39
827.882	11.95
828.059	104.11
828.237	34.47
828.414	63.15
828.591	20.14
828.769	130.73
828.946	54.95
829.124	102.06
829.301	50.86
829.478	44.71
829.655	24.23
829.833	112.3
830.01	13.99
830.187	59.05
830.364	59.05
830.542	91.82
830.719	149.16
830.896	73.39
831.073	85.67
831.25	63.15
831.427	100.01
831.604	46.76
831.782	5.8
831.959	102.06
832.136	106.15
832.313	18.09
832.49	26.28
832.667	128.68
832.844	63.15
833.021	26.28
833.198	54.95
833.374	18.09
833.551	-41.3
833.728	-6.49
833.905	18.09
834.082	9.9
834.259	52.91
834.436	40.62
834.612	24.23
834.789	65.19
834.966	20.14
835.143	63.15
835.319	28.33
835.496	54.95
835.673	57
835.85	36.52
836.026	50.86
836.203	20.14
836.38	46.76
836.556	34.47
836.733	20.14
836.909	42.67
837.086	11.95
837.262	-4.44
837.439	-26.96
837.616	9.9
837.792	85.67
837.968	122.54
838.145	-26.96
838.321	46.76
838.498	77.48
838.674	-0.34
838.851	42.67
839.027	9.9
839.203	34.47
839.38	61.1
839.556	34.47
839.732	97.96
839.909	3.75
840.085	69.29
840.261	-31.06
840.437	5.8
840.614	108.2
840.79	85.67
840.966	36.52
841.142	3.75
841.318	-35.16
841.494	-14.68
841.671	59.05
841.847	-6.49
842.023	42.67
842.199	-14.68
842.375	57
842.551	-76.12
842.727	9.9
842.903	134.82
843.079	-6.49
843.255	42.67
843.431	-14.68
843.607	91.82
843.783	-6.49
843.959	34.47
844.134	7.85
844.31	-20.82
844.486	50.86
844.662	28.33
844.838	34.47
845.013	85.67
845.189	50.86
845.365	-43.35
845.541	20.14
845.716	-6.49
845.892	42.67
846.068	3.75
846.244	9.9
846.419	-47.44
846.595	-8.53
846.77	-57.68
846.946	-39.25
847.122	-18.77
847.297	7.85
847.473	61.1
847.648	-31.06
847.824	11.95
847.999	-61.78
848.175	-8.53
848.35	69.29
848.526	126.63
848.701	134.82
848.876	34.47
849.052	67.24
849.227	102.06
849.403	-24.92
849.578	-39.25
849.753	116.39
849.929	24.23
850.104	18.09
850.279	36.52
850.454	108.2
850.63	44.71
850.805	3.75
850.98	-18.77
851.155	13.99
851.33	18.09
851.505	-39.25
851.681	16.04
851.856	22.19
852.031	91.82
852.206	59.05
852.381	-14.68
852.556	1.71
852.731	67.24
852.906	-12.63
853.081	26.28
853.256	22.19
853.431	79.53
853.606	-47.44
853.781	3.75
853.956	-76.12
854.131	38.57
854.305	-22.87
854.48	54.95
854.655	-55.64
854.83	-45.4
855.005	-6.49
855.18	-4.44
855.354	42.67
855.529	11.95
855.704	11.95
855.879	79.53
856.053	-65.88
856.228	48.81
856.403	-45.4
856.577	9.9
856.752	-51.54
856.926	9.9
857.101	69.29
857.276	-57.68
857.45	-35.16
857.625	30.38
857.799	18.09
857.974	61.1
858.148	-20.82
858.323	69.29
858.497	30.38
858.672	-20.82
858.846	-8.53
859.02	67.24
859.195	-37.2
859.369	42.67
859.543	-39.25
859.718	-37.2
859.892	-14.68
860.066	100.01
860.241	-47.44
860.415	24.23
860.589	-29.01
860.763	22.19
860.938	-39.25
861.112	3.75
861.286	-22.87
861.46	36.52
861.634	-31.06
861.808	26.28
861.982	-2.39
862.157	-57.68
862.331	48.81
862.505	-37.2
862.679	-22.87
862.853	42.67
863.027	-31.06
863.201	18.09
863.375	-2.39
863.549	71.34
863.722	5.8
863.896	79.53
864.07	18.09
864.244	-2.39
864.418	42.67
864.592	-29.01
864.766	50.86
864.939	-10.58
865.113	3.75
865.287	-37.2
865.461	-88.4
865.634	-43.35
865.808	20.14
865.982	-96.6
866.156	30.38
866.329	-18.77
866.503	95.91
866.676	-8.53
866.85	-8.53
867.024	20.14
867.197	-6.49
867.371	18.09
867.544	-61.78
867.718	7.85
867.891	59.05
868.065	-29.01
868.238	-20.82
868.412	81.58
868.585	9.9
868.759	16.04
868.932	1.71
869.105	9.9
869.279	-29.01
869.452	-4.44
869.625	13.99
869.799	1.71
869.972	-47.44
870.145	-69.97
870.319	-37.2
870.492	-16.73
870.665	-55.64
870.838	-22.87
871.011	-33.11
871.185	26.28
871.358	-18.77
871.531	75.43
871.704	20.14
871.877	59.05
872.05	-47.44
872.223	38.57
872.396	46.76
872.569	-6.49
872.742	-76.12
872.915	-4.44
873.088	-31.06
873.261	34.47
873.434	-18.77
873.607	-26.96
873.78	18.09
873.953	-53.59
874.126	22.19
874.299	-4.44
874.471	-121.17
874.644	-31.06
874.817	18.09
874.99	-2.39
875.163	-6.49
875.335	26.28
875.508	-102.74
875.681	32.43
875.853	-4.44
876.026	-61.78
876.199	110.25
876.371	18.09
876.544	-22.87
876.717	-6.49
876.889	-39.25
877.062	34.47
877.234	-37.2
877.407	-14.68
877.579	-10.58
877.752	34.47
877.924	42.67
878.097	50.86
878.269	36.52
878.442	13.99
878.614	42.67
878.786	-41.3
878.959	-4.44
879.131	-47.44
879.303	-20.82
879.476	-35.16
879.648	69.29
879.82	57
879.993	16.04
880.165	9.9
880.337	-88.4
880.509	-63.83
880.681	-20.82
880.854	26.28
881.026	13.99
881.198	83.63
881.37	-53.59
881.542	26.28
881.714	26.28
881.886	7.85
882.058	-31.06
882.23	-22.87
882.402	36.52
882.574	-55.64
882.746	-22.87
882.918	52.91
883.09	-59.73
883.262	-100.69
883.434	-22.87
883.606	-37.2
883.778	-53.59
883.95	-45.4
884.122	-29.01
884.293	83.63
884.465	-80.21
884.637	-33.11
884.809	46.76
884.98	-43.35
885.152	-61.78
885.324	-41.3
885.496	-35.16
885.667	-55.64
885.839	-22.87
886.011	34.47
886.182	-76.12
886.354	1.71
886.525	1.71
886.697	75.43
886.869	-67.92
887.04	16.04
887.212	-12.63
887.383	59.05
887.555	-10.58
887.726	-22.87
887.897	44.71
888.069	-4.44
888.24	75.43
888.412	11.95
888.583	-69.97
888.754	-29.01
888.926	-74.07
889.097	9.9
889.268	-22.87
889.44	57
889.611	-31.06
889.782	-8.53
889.953	9.9
890.125	1.71
890.296	-6.49
890.467	13.99
890.638	-78.16
890.809	3.75
890.98	-65.88
891.151	65.19
891.323	20.14
891.494	-26.96
891.665	-2.39
891.836	1.71
892.007	3.75
892.178	36.52
892.349	30.38
892.52	-18.77
892.691	5.8
892.862	-6.49
893.032	-12.63
893.203	-84.31
893.374	-47.44
893.545	63.15
893.716	-47.44
893.887	18.09
894.057	-84.31
894.228	-29.01
894.399	-45.4
894.57	26.28
894.74	-26.96
894.911	34.47
895.082	-20.82
895.253	-33.11
895.423	20.14
895.594	-14.68
895.764	11.95
895.935	-22.87
896.106	36.52
896.276	-69.97
896.447	36.52
896.617	32.43
896.788	-51.54
896.958	-102.74
897.129	-10.58
897.299	-20.82
897.47	1.71
897.64	13.99
897.81	-29.01
897.981	18.09
898.151	-100.69
898.322	-26.96
898.492	69.29
898.662	-35.16
898.832	-37.2
899.003	-0.34
899.173	22.19
899.343	-63.83
899.513	61.1
