Data from USB4F104151__230__14-34-01-563.txt Node

Date: Thu Mar 13 14:34:01 EDT 2025
User: louis
Spectrometer: USB4F10415
Trigger mode: 4
Integration Time (sec): 2.500000E-2
Scans to average: 1
Electric dark correction enabled: true
Nonlinearity correction enabled: false
Boxcar width: 0
XAxis mode: Wavelengths
Number of Pixels in Spectrum: 3648
>>>>>Begin Spectral Data<<<<<
178.204	-167.08
178.424	-167.08
178.644	-167.08
178.864	-87.21
179.084	-150.7
179.304	-29.87
179.524	9.05
179.744	7
179.964	17.24
180.184	-21.67
180.404	17.24
180.624	-13.48
180.844	-5.29
181.064	2.9
181.283	41.81
181.503	-46.25
181.723	21.33
181.943	-31.91
182.163	66.39
182.383	17.24
182.602	9.05
182.822	9.05
183.042	2.9
183.262	9.05
183.482	52.05
183.701	-62.63
183.921	45.91
184.141	35.67
184.361	60.24
184.58	-23.72
184.8	-3.24
185.02	-36.01
185.239	-21.67
185.459	-7.34
185.679	60.24
185.898	-23.72
186.118	4.95
186.338	4.95
186.557	9.05
186.777	25.43
186.997	-40.11
187.216	9.05
187.436	52.05
187.655	33.62
187.875	76.63
188.095	-11.43
188.314	54.1
188.534	50
188.753	-15.53
188.973	74.58
189.192	74.58
189.412	-36.01
189.631	25.43
189.851	84.82
190.07	84.82
190.29	-85.16
190.509	25.43
190.729	9.05
190.948	19.29
191.168	193.36
191.387	90.96
191.607	43.86
191.826	-1.19
192.045	-60.59
192.265	25.43
192.484	-38.06
192.704	0.85
192.923	-15.53
193.142	74.58
193.362	15.19
193.581	15.19
193.8	11.09
194.02	39.76
194.239	52.05
194.458	68.44
194.678	45.91
194.897	-31.91
195.116	86.87
195.335	43.86
195.555	-21.67
195.774	-87.21
195.993	4.95
196.212	-36.01
196.432	-52.39
196.651	47.96
196.87	-9.39
197.089	74.58
197.308	76.63
197.528	4.95
197.747	-54.44
197.966	-7.34
198.185	76.63
198.404	-3.24
198.623	105.3
198.842	-3.24
199.062	21.33
199.281	0.85
199.5	43.86
199.719	-5.29
199.938	-38.06
200.157	43.86
200.376	-7.34
200.595	33.62
200.814	154.45
201.033	2.9
201.252	45.91
201.471	-5.29
201.69	13.14
201.909	-40.11
202.128	41.81
202.347	-74.92
202.566	-46.25
202.785	31.57
203.004	-74.92
203.223	95.06
203.442	54.1
203.661	0.85
203.879	21.33
204.098	11.09
204.317	-126.12
204.536	60.24
204.755	-23.72
204.974	0.85
205.193	-31.91
205.411	68.44
205.63	-3.24
205.849	23.38
206.068	0.85
206.287	-48.3
206.505	29.52
206.724	52.05
206.943	-1.19
207.162	-48.3
207.381	0.85
207.599	52.05
207.818	17.24
208.037	-29.87
208.255	33.62
208.474	-36.01
208.693	-13.48
208.911	27.48
209.13	101.2
209.349	-31.91
209.567	93.01
209.786	17.24
210.005	4.95
210.223	62.29
210.442	-7.34
210.661	45.91
210.879	9.05
211.098	43.86
211.316	-56.49
211.535	97.11
211.753	29.52
211.972	0.85
212.191	15.19
212.409	-11.43
212.628	25.43
212.846	0.85
213.065	-19.63
213.283	-23.72
213.502	-5.29
213.72	-7.34
213.938	25.43
214.157	33.62
214.375	52.05
214.594	-44.2
214.812	72.53
215.031	47.96
215.249	21.33
215.467	-21.67
215.686	2.9
215.904	60.24
216.122	-5.29
216.341	-7.34
216.559	58.2
216.778	66.39
216.996	47.96
217.214	-7.34
217.432	60.24
217.651	-23.72
217.869	0.85
218.087	-31.91
218.306	0.85
218.524	-11.43
218.742	-56.49
218.96	2.9
219.179	-48.3
219.397	29.52
219.615	25.43
219.833	37.72
220.051	-85.16
220.27	43.86
220.488	78.68
220.706	52.05
220.924	-70.83
221.142	0.85
221.36	-3.24
221.578	27.48
221.796	-9.39
222.015	82.77
222.233	54.1
222.451	66.39
222.669	-42.15
222.887	11.09
223.105	2.9
223.323	-7.34
223.541	25.43
223.759	9.05
223.977	-3.24
224.195	60.24
224.413	66.39
224.631	-13.48
224.849	-54.44
225.067	33.62
225.285	37.72
225.503	-21.67
225.721	-87.21
225.939	0.85
226.157	-19.63
226.375	62.29
226.592	47.96
226.81	19.29
227.028	90.96
227.246	66.39
227.464	25.43
227.682	27.48
227.9	54.1
228.117	-21.67
228.335	-15.53
228.553	-42.15
228.771	45.91
228.989	56.15
229.206	-31.91
229.424	2.9
229.642	-48.3
229.86	-1.19
230.077	27.48
230.295	19.29
230.513	43.86
230.731	70.48
230.948	80.72
231.166	101.2
231.384	19.29
231.601	-64.68
231.819	80.72
232.037	-7.34
232.254	2.9
232.472	37.72
232.689	17.24
232.907	66.39
233.125	-3.24
233.342	41.81
233.56	-31.91
233.777	-40.11
233.995	9.05
234.213	41.81
234.43	99.16
234.648	27.48
234.865	17.24
235.083	19.29
235.3	9.05
235.518	-7.34
235.735	45.91
235.953	140.12
236.17	0.85
236.388	50
236.605	25.43
236.822	140.12
237.04	4.95
237.257	-27.82
237.475	-13.48
237.692	97.11
237.909	50
238.127	-29.87
238.344	-5.29
238.562	9.05
238.779	33.62
238.996	-60.59
239.214	21.33
239.431	-27.82
239.648	-13.48
239.865	37.72
240.083	45.91
240.3	-31.91
240.517	-13.48
240.735	4.95
240.952	-31.91
241.169	58.2
241.386	25.43
241.603	84.82
241.821	50
242.038	9.05
242.255	41.81
242.472	-48.3
242.689	95.06
242.907	76.63
243.124	-29.87
243.341	43.86
243.558	19.29
243.775	-58.54
243.992	15.19
244.209	13.14
244.426	70.48
244.643	33.62
244.86	54.1
245.078	41.81
245.295	35.67
245.512	-23.72
245.729	-46.25
245.946	9.05
246.163	-7.34
246.38	43.86
246.597	2.9
246.814	52.05
247.031	-48.3
247.248	-13.48
247.464	33.62
247.681	-3.24
247.898	-11.43
248.115	66.39
248.332	52.05
248.549	19.29
248.766	101.2
248.983	64.34
249.2	9.05
249.417	58.2
249.633	-48.3
249.85	64.34
250.067	31.57
250.284	21.33
250.501	82.77
250.717	43.86
250.934	-74.92
251.151	-31.91
251.368	52.05
251.585	56.15
251.801	-40.11
252.018	-68.78
252.235	-31.91
252.451	-44.2
252.668	-21.67
252.885	21.33
253.102	52.05
253.318	-7.34
253.535	35.67
253.752	52.05
253.968	-44.2
254.185	66.39
254.401	29.52
254.618	17.24
254.835	-15.53
255.051	82.77
255.268	-40.11
255.484	-13.48
255.701	-25.77
255.917	9.05
256.134	-15.53
256.351	2.9
256.567	-1.19
256.784	-38.06
257	11.09
257.217	27.48
257.433	45.91
257.65	-19.63
257.866	41.81
258.082	-21.67
258.299	-11.43
258.515	-15.53
258.732	-33.96
258.948	-31.91
259.165	-11.43
259.381	-11.43
259.597	45.91
259.814	17.24
260.03	0.85
260.246	-70.83
260.463	47.96
260.679	121.68
260.895	21.33
261.112	43.86
261.328	-64.68
261.544	-42.15
261.761	93.01
261.977	-58.54
262.193	-81.07
262.409	0.85
262.626	54.1
262.842	-13.48
263.058	0.85
263.274	21.33
263.49	33.62
263.707	43.86
263.923	35.67
264.139	-54.44
264.355	109.4
264.571	131.92
264.787	50
265.004	17.24
265.22	29.52
265.436	-33.96
265.652	50
265.868	21.33
266.084	-68.78
266.3	0.85
266.516	-27.82
266.732	4.95
266.948	23.38
267.164	19.29
267.38	66.39
267.596	35.67
267.812	82.77
268.028	19.29
268.244	-89.26
268.46	-7.34
268.676	25.43
268.892	39.76
269.108	-13.48
269.324	17.24
269.54	-27.82
269.756	-23.72
269.972	9.05
270.188	-36.01
270.403	-15.53
270.619	74.58
270.835	54.1
271.051	11.09
271.267	50
271.483	25.43
271.698	58.2
271.914	68.44
272.13	-27.82
272.346	70.48
272.562	52.05
272.777	17.24
272.993	-13.48
273.209	0.85
273.425	33.62
273.64	-68.78
273.856	47.96
274.072	33.62
274.287	-46.25
274.503	56.15
274.719	39.76
274.934	-3.24
275.15	54.1
275.366	-31.91
275.581	-40.11
275.797	43.86
276.012	31.57
276.228	-79.02
276.444	17.24
276.659	33.62
276.875	-38.06
277.09	33.62
277.306	37.72
277.521	-5.29
277.737	-5.29
277.952	-17.58
278.168	29.52
278.383	35.67
278.599	19.29
278.814	17.24
279.03	39.76
279.245	50
279.461	21.33
279.676	37.72
279.892	-40.11
280.107	31.57
280.322	45.91
280.538	-7.34
280.753	-5.29
280.969	41.81
281.184	11.09
281.399	54.1
281.615	66.39
281.83	19.29
282.045	-60.59
282.26	-29.87
282.476	-38.06
282.691	103.25
282.906	41.81
283.122	50
283.337	4.95
283.552	37.72
283.767	-7.34
283.983	66.39
284.198	58.2
284.413	13.14
284.628	17.24
284.843	29.52
285.058	-13.48
285.274	-7.34
285.489	-38.06
285.704	7
285.919	-27.82
286.134	50
286.349	0.85
286.564	-54.44
286.779	140.12
286.995	33.62
287.21	-19.63
287.425	58.2
287.64	-38.06
287.855	101.2
288.07	2.9
288.285	54.1
288.5	93.01
288.715	58.2
288.93	68.44
289.145	9.05
289.36	60.24
289.575	-27.82
289.79	13.14
290.004	4.95
290.219	9.05
290.434	52.05
290.649	41.81
290.864	72.53
291.079	-21.67
291.294	-23.72
291.509	41.81
291.724	58.2
291.938	-13.48
292.153	0.85
292.368	58.2
292.583	103.25
292.798	60.24
293.012	-89.26
293.227	35.67
293.442	13.14
293.657	82.77
293.871	95.06
294.086	68.44
294.301	17.24
294.516	-13.48
294.73	109.4
294.945	29.52
295.16	66.39
295.374	58.2
295.589	127.83
295.804	-52.39
296.018	19.29
296.233	47.96
296.447	19.29
296.662	17.24
296.877	78.68
297.091	11.09
297.306	17.24
297.52	-97.45
297.735	27.48
297.949	-31.91
298.164	-13.48
298.378	33.62
298.593	0.85
298.807	17.24
299.022	-7.34
299.236	41.81
299.451	62.29
299.665	-64.68
299.88	68.44
300.094	113.49
300.309	54.1
300.523	-70.83
300.737	-3.24
300.952	-13.48
301.166	-27.82
301.381	43.86
301.595	2.9
301.809	-7.34
302.024	11.09
302.238	-15.53
302.452	74.58
302.667	-15.53
302.881	56.15
303.095	35.67
303.309	23.38
303.524	-3.24
303.738	11.09
303.952	17.24
304.166	21.33
304.381	-25.77
304.595	41.81
304.809	31.57
305.023	-33.96
305.237	-9.39
305.452	-15.53
305.666	39.76
305.88	50
306.094	-3.24
306.308	-15.53
306.522	78.68
306.736	43.86
306.95	41.81
307.164	50
307.379	2.9
307.593	66.39
307.807	-27.82
308.021	11.09
308.235	33.62
308.449	33.62
308.663	86.87
308.877	52.05
309.091	45.91
309.305	19.29
309.519	13.14
309.733	50
309.947	-15.53
310.161	21.33
310.374	52.05
310.588	-5.29
310.802	-60.59
311.016	-31.91
311.23	25.43
311.444	82.77
311.658	-40.11
311.872	45.91
312.085	82.77
312.299	84.82
312.513	0.85
312.727	-11.43
312.941	-3.24
313.154	60.24
313.368	86.87
313.582	70.48
313.796	-31.91
314.009	70.48
314.223	-31.91
314.437	25.43
314.651	-3.24
314.864	33.62
315.078	27.48
315.292	-60.59
315.505	7
315.719	70.48
315.933	25.43
316.146	29.52
316.36	31.57
316.573	136.02
316.787	50
317.001	50
317.214	13.14
317.428	-13.48
317.641	25.43
317.855	-29.87
318.068	27.48
318.282	-13.48
318.495	99.16
318.709	78.68
318.922	62.29
319.136	142.16
319.349	107.35
319.563	29.52
319.776	95.06
319.99	-13.48
320.203	78.68
320.417	-23.72
320.63	33.62
320.843	99.16
321.057	58.2
321.27	90.96
321.483	2.9
321.697	95.06
321.91	11.09
322.124	17.24
322.337	45.91
322.55	-68.78
322.763	37.72
322.977	-19.63
323.19	25.43
323.403	33.62
323.617	-21.67
323.83	95.06
324.043	-15.53
324.256	86.87
324.469	-27.82
324.683	52.05
324.896	-52.39
325.109	-13.48
325.322	-27.82
325.535	50
325.748	109.4
325.962	-15.53
326.175	37.72
326.388	43.86
326.601	-3.24
326.814	50
327.027	-40.11
327.24	74.58
327.453	-19.63
327.666	-7.34
327.879	52.05
328.092	9.05
328.305	84.82
328.518	-48.3
328.731	23.38
328.944	37.72
329.157	66.39
329.37	0.85
329.583	11.09
329.796	19.29
330.009	58.2
330.222	50
330.435	84.82
330.648	-11.43
330.861	-44.2
331.073	-68.78
331.286	-25.77
331.499	-3.24
331.712	-15.53
331.925	54.1
332.138	-48.3
332.35	99.16
332.563	-15.53
332.776	-19.63
332.989	-40.11
333.202	62.29
333.414	62.29
333.627	41.81
333.84	17.24
334.053	52.05
334.265	-31.91
334.478	-56.49
334.691	41.81
334.903	-7.34
335.116	0.85
335.329	41.81
335.541	58.2
335.754	84.82
335.966	-13.48
336.179	-64.68
336.392	58.2
336.604	-21.67
336.817	43.86
337.029	90.96
337.242	-17.58
337.454	27.48
337.667	-95.4
337.88	13.14
338.092	-27.82
338.305	-5.29
338.517	-25.77
338.729	88.92
338.942	25.43
339.154	9.05
339.367	11.09
339.579	50
339.792	-3.24
340.004	88.92
340.217	68.44
340.429	82.77
340.641	-23.72
340.854	84.82
341.066	35.67
341.278	68.44
341.491	80.72
341.703	86.87
341.915	9.05
342.128	72.53
342.34	107.35
342.552	-11.43
342.764	-11.43
342.977	17.24
343.189	52.05
343.401	21.33
343.613	2.9
343.826	33.62
344.038	9.05
344.25	-1.19
344.462	-15.53
344.674	-9.39
344.886	-11.43
345.099	0.85
345.311	-11.43
345.523	29.52
345.735	-54.44
345.947	50
346.159	64.34
346.371	66.39
346.583	-33.96
346.795	119.64
347.007	-36.01
347.219	13.14
347.431	21.33
347.643	50
347.855	41.81
348.067	60.24
348.279	-3.24
348.491	93.01
348.703	27.48
348.915	9.05
349.127	-52.39
349.339	25.43
349.551	74.58
349.763	43.86
349.975	86.87
350.187	50
350.399	11.09
350.61	33.62
350.822	4.95
351.034	-7.34
351.246	41.81
351.458	52.05
351.669	41.81
351.881	107.35
352.093	45.91
352.305	119.64
352.517	21.33
352.728	58.2
352.94	-48.3
353.152	74.58
353.363	17.24
353.575	-15.53
353.787	117.59
353.999	58.2
354.21	29.52
354.422	-23.72
354.633	33.62
354.845	31.57
355.057	90.96
355.268	50
355.48	50
355.692	25.43
355.903	35.67
356.115	21.33
356.326	-89.26
356.538	70.48
356.749	13.14
356.961	58.2
357.172	82.77
357.384	107.35
357.595	119.64
357.807	-17.58
358.018	17.24
358.23	-19.63
358.441	82.77
358.653	70.48
358.864	80.72
359.075	54.1
359.287	58.2
359.498	76.63
359.709	66.39
359.921	101.2
360.132	-23.72
360.344	-5.29
360.555	27.48
360.766	41.81
360.977	35.67
361.189	123.73
361.4	9.05
361.611	60.24
361.823	80.72
362.034	72.53
362.245	-11.43
362.456	50
362.667	43.86
362.879	-42.15
363.09	33.62
363.301	90.96
363.512	84.82
363.723	19.29
363.935	19.29
364.146	19.29
364.357	29.52
364.568	99.16
364.779	31.57
364.99	93.01
365.201	-31.91
365.412	125.78
365.623	-23.72
365.834	45.91
366.045	4.95
366.256	17.24
366.467	58.2
366.678	27.48
366.889	105.3
367.1	-19.63
367.311	50
367.522	33.62
367.733	72.53
367.944	52.05
368.155	43.86
368.366	82.77
368.577	25.43
368.788	62.29
368.999	9.05
369.209	84.82
369.42	56.15
369.631	99.16
369.842	39.76
370.053	-44.2
370.264	56.15
370.474	-64.68
370.685	17.24
370.896	131.92
371.107	70.48
371.317	60.24
371.528	27.48
371.739	82.77
371.95	68.44
372.16	-25.77
372.371	25.43
372.582	-7.34
372.792	121.68
373.003	119.64
373.214	62.29
373.424	52.05
373.635	-21.67
373.846	105.3
374.056	29.52
374.267	-21.67
374.477	86.87
374.688	-15.53
374.898	54.1
375.109	70.48
375.319	23.38
375.53	66.39
375.74	50
375.951	11.09
376.161	25.43
376.372	58.2
376.582	23.38
376.793	60.24
377.003	25.43
377.214	35.67
377.424	37.72
377.635	60.24
377.845	33.62
378.055	107.35
378.266	-48.3
378.476	70.48
378.686	41.81
378.897	13.14
379.107	107.35
379.317	43.86
379.528	13.14
379.738	4.95
379.948	7
380.158	123.73
380.369	50
380.579	99.16
380.789	54.1
380.999	76.63
381.21	17.24
381.42	76.63
381.63	43.86
381.84	-13.48
382.05	105.3
382.261	43.86
382.471	90.96
382.681	43.86
382.891	68.44
383.101	-13.48
383.311	13.14
383.521	95.06
383.731	-11.43
383.941	50
384.151	-31.91
384.361	11.09
384.571	54.1
384.781	35.67
384.991	60.24
385.201	78.68
385.411	142.16
385.621	0.85
385.831	78.68
386.041	35.67
386.251	-44.2
386.461	84.82
386.671	-44.2
386.881	19.29
387.091	35.67
387.301	93.01
387.511	19.29
387.72	43.86
387.93	95.06
388.14	-48.3
388.35	-19.63
388.56	21.33
388.769	43.86
388.979	33.62
389.189	62.29
389.399	50
389.609	4.95
389.818	109.4
390.028	80.72
390.238	76.63
390.447	11.09
390.657	-23.72
390.867	-5.29
391.076	11.09
391.286	84.82
391.496	99.16
391.705	70.48
391.915	103.25
392.125	82.77
392.334	19.29
392.544	111.44
392.753	62.29
392.963	-48.3
393.172	39.76
393.382	-31.91
393.591	119.64
393.801	66.39
394.01	-11.43
394.22	64.34
394.429	41.81
394.639	41.81
394.848	168.79
395.058	41.81
395.267	113.49
395.477	74.58
395.686	97.11
395.895	138.07
396.105	189.27
396.314	123.73
396.524	17.24
396.733	121.68
396.942	93.01
397.152	41.81
397.361	123.73
397.57	97.11
397.78	39.76
397.989	19.29
398.198	127.83
398.407	82.77
398.617	189.27
398.826	140.12
399.035	90.96
399.244	162.64
399.453	95.06
399.663	109.4
399.872	88.92
400.081	50
400.29	107.35
400.499	68.44
400.708	127.83
400.917	33.62
401.127	154.45
401.336	23.38
401.545	213.84
401.754	90.96
401.963	101.2
402.172	43.86
402.381	90.96
402.59	105.3
402.799	74.58
403.008	123.73
403.217	138.07
403.426	148.31
403.635	76.63
403.844	129.88
404.053	131.92
404.262	99.16
404.471	183.12
404.68	88.92
404.888	197.46
405.097	187.22
405.306	133.97
405.515	222.03
405.724	265.04
405.933	287.57
406.142	131.92
406.35	133.97
406.559	170.83
406.768	248.66
406.977	254.8
407.185	238.42
407.394	246.61
407.603	191.31
407.812	246.61
408.02	254.8
408.229	172.88
408.438	217.94
408.646	228.18
408.855	242.51
409.064	283.47
409.272	340.82
409.481	381.78
409.69	392.02
409.898	256.85
410.107	295.76
410.315	389.97
410.524	394.06
410.733	381.78
410.941	340.82
411.15	441.17
411.358	424.78
411.567	435.02
411.775	451.41
411.984	541.52
412.192	498.51
412.401	467.79
412.609	617.29
412.818	492.37
413.026	598.86
413.234	549.71
413.443	699.21
413.651	598.86
413.86	611.15
414.068	664.4
414.276	734.03
414.485	648.01
414.693	750.41
414.901	729.93
415.11	777.03
415.318	885.58
415.526	869.19
415.734	918.34
415.943	981.83
416.151	938.82
416.359	914.25
416.567	1037.13
416.776	1049.41
416.984	1117
417.192	1061.7
417.4	1100.61
417.608	1205.06
417.817	1141.57
418.025	1198.92
418.233	1362.75
418.441	1370.94
418.649	1467.2
418.857	1575.74
419.065	1528.64
419.273	1598.27
419.481	1614.65
419.689	1794.87
419.897	1747.77
420.105	1839.93
420.313	1839.93
420.521	1882.94
420.729	1956.66
420.937	1811.26
421.145	2050.87
421.353	2104.12
421.561	2337.59
421.769	2329.39
421.977	2419.5
422.185	2368.31
422.393	2491.18
422.601	2636.59
422.809	2728.75
423.017	2763.56
423.224	2841.39
423.432	2962.22
423.64	3037.99
423.848	3144.49
424.056	3148.58
424.263	3380
424.471	3253.03
424.679	3515.17
424.887	3623.71
425.094	3711.77
425.302	3793.69
425.51	3891.99
425.718	4055.83
425.925	4074.26
426.133	4274.96
426.341	4522.77
426.548	4616.97
426.756	4461.33
426.964	4690.7
427.171	5053.19
427.379	4981.51
427.586	5155.59
427.794	5387.01
428.001	5628.67
428.209	5788.41
428.417	5653.25
428.624	6275.83
428.832	6130.42
429.039	6046.46
429.247	6011.64
429.454	6722.29
429.662	7193.32
429.869	6660.85
430.076	6963.95
430.284	6939.37
430.491	7185.13
430.699	7611.11
430.906	7645.92
431.114	7686.88
431.321	7922.4
431.528	8137.43
431.736	8694.48
431.943	9087.69
432.15	8680.14
432.358	8899.28
432.565	9450.18
432.772	9349.83
432.979	9669.31
433.187	9906.88
433.394	9978.56
433.601	10756.79
433.808	10629.81
434.016	11029.17
434.223	10902.19
434.43	11889.31
434.637	11332.26
434.844	12350.1
435.052	12257.95
435.259	12477.08
435.466	12503.7
435.673	12538.52
435.88	13222.54
436.087	13859.46
436.294	13812.35
436.501	13503.11
436.708	13628.04
436.915	14152.32
437.122	14877.3
437.329	14713.46
437.537	15207.02
437.743	15426.15
437.95	15319.66
438.157	16167.52
438.364	16724.57
438.571	16609.88
438.778	16812.63
438.985	18297.41
439.192	17699.4
439.399	18270.78
439.606	17754.69
439.813	18651.7
440.02	20021.8
440.227	19446.32
440.433	19569.19
440.64	19995.17
440.847	19966.5
441.054	20384.29
441.261	21834.25
441.467	21412.37
441.674	21871.11
441.881	22583.8
442.088	22546.94
442.294	22561.28
442.501	22874.62
442.708	23564.78
442.914	24396.26
443.121	25240.02
443.328	24558.05
443.534	26153.41
443.741	25555.41
443.948	25029.08
444.154	27453.87
444.361	26845.63
444.568	26972.6
444.774	26878.4
444.981	27558.32
445.187	28209.57
445.394	29397.4
445.6	28699.04
445.807	31727.99
446.013	30564.74
446.22	30681.47
446.426	32307.56
446.633	32751.97
446.839	33790.29
447.046	31830.38
447.252	34279.75
447.459	34138.44
447.665	34050.38
447.871	35356.99
448.078	36731.17
448.284	34982.21
448.491	35995.95
448.697	37353.76
448.903	38000.91
449.11	37867.8
449.316	37382.43
449.522	38031.63
449.728	38873.35
449.935	39553.27
450.141	39299.33
450.347	40130.8
450.553	38705.41
450.76	39368.96
450.966	40722.66
451.172	40311.02
451.378	41341.15
451.584	40614.12
451.791	41777.37
451.997	41310.43
452.203	41847
452.409	42078.42
452.615	41726.17
452.821	39948.53
453.027	39850.23
453.233	41973.97
453.44	40030.45
453.646	40261.87
453.852	41132.26
454.058	41263.33
454.264	40077.55
454.47	41181.41
454.676	39860.47
454.882	41408.73
455.088	37798.16
455.294	38205.71
455.5	38578.44
455.705	39442.68
455.911	37757.21
456.117	36938.02
456.323	36632.87
456.529	34423.11
456.735	36319.53
456.941	35045.69
457.147	34484.55
457.352	33698.13
457.558	33106.27
457.764	33419.61
457.97	32274.79
458.176	31748.46
458.381	32102.76
458.587	30273.93
458.793	30370.18
458.999	28463.52
459.204	30503.3
459.41	29737.36
459.616	27662.77
459.821	27664.82
460.027	27771.31
460.233	27195.83
460.438	25838.03
460.644	25967.05
460.85	25053.66
461.055	24476.13
461.261	24381.92
461.466	22706.68
461.672	21803.53
461.878	23742.96
462.083	21991.94
462.289	21651.98
462.494	21484.05
462.7	20232.74
462.905	19737.13
463.111	20376.09
463.316	20570.65
463.522	20181.54
463.727	20308.51
463.932	20060.71
464.138	19810.86
464.343	19798.57
464.549	19202.61
464.754	19827.24
464.959	19819.05
465.165	19730.98
465.37	18698.81
465.575	18283.07
465.781	19122.74
465.986	19096.11
466.191	18530.87
466.397	18106.95
466.602	17113.68
466.807	17728.07
467.012	18178.62
467.218	17482.31
467.423	17293.9
467.628	17492.55
467.833	18297.41
468.038	17631.82
468.244	17191.5
468.449	17521.23
468.654	17265.23
468.859	17046.1
469.064	17279.57
469.269	16163.42
469.474	16480.86
469.679	16724.57
469.885	16231.01
470.09	16403.04
470.295	16163.42
470.5	15860.32
470.705	16173.66
470.91	15729.25
471.115	15399.53
471.32	15671.91
471.525	15528.55
471.73	15235.69
471.935	15123.05
472.139	14547.58
472.344	14801.52
472.549	14551.67
472.754	14733.94
472.959	14295.68
473.164	13976.19
473.369	13845.12
473.574	14262.91
473.778	14068.35
473.983	14025.34
474.188	13922.94
474.393	13320.84
474.598	13480.58
474.802	13118.09
475.007	13230.73
475.212	13077.13
475.417	12720.79
475.621	12610.2
475.826	12855.95
476.031	12618.39
476.235	12100.25
476.44	12391.06
476.645	12042.91
476.849	12155.55
477.054	11983.52
477.259	11834.02
477.463	11885.22
477.668	11453.09
477.872	11788.96
478.077	11584.16
478.282	11297.45
478.486	11131.56
478.691	11428.52
478.895	11004.59
479.1	11133.61
479.304	11233.96
479.509	10840.75
479.713	10840.75
479.918	10736.31
480.122	10519.22
480.326	10670.77
480.531	10728.11
480.735	10341.05
480.94	10291.9
481.144	10627.76
481.348	10134.2
481.553	10341.05
481.757	10343.1
481.961	10361.53
482.166	10568.37
482.37	10453.69
482.574	10146.49
482.778	10160.83
482.983	10334.9
483.187	10111.68
483.391	10269.37
483.595	10052.28
483.8	9951.93
484.004	10361.53
484.208	10175.16
484.412	10119.87
484.616	10150.59
484.821	10263.22
485.025	9962.17
485.229	10058.43
485.433	10185.4
485.637	10201.79
485.841	10109.63
486.045	9908.93
486.249	10070.72
486.453	10162.87
486.657	10234.55
486.861	10058.43
487.065	9904.83
487.269	10011.32
487.473	9726.66
487.677	10091.2
487.881	10283.7
488.085	10050.24
488.289	10281.66
488.493	10011.32
488.697	10156.73
488.901	10091.2
489.105	10152.63
489.309	10240.7
489.512	10023.61
489.716	10160.83
489.92	10062.52
490.124	10220.22
490.328	10279.61
490.531	10123.96
490.735	10412.73
490.939	10199.74
491.143	10261.18
491.346	10388.15
491.55	10539.7
491.754	10259.13
491.958	10420.92
492.161	10379.96
492.365	10584.76
492.569	10668.72
492.772	10494.65
492.976	10588.85
493.18	10543.8
493.383	10764.98
493.587	10912.43
493.79	11045.55
493.994	10621.62
494.197	10691.25
494.401	10937.01
494.605	10871.47
494.808	11258.54
495.012	11066.03
495.215	11018.93
495.419	11305.64
495.622	11141.8
495.825	11391.66
496.029	11473.57
496.232	11596.45
496.436	11600.55
496.639	11866.78
496.843	11821.73
497.046	12061.34
497.249	12036.77
497.453	12206.75
497.656	12337.82
497.859	12370.58
498.063	12432.02
498.266	12737.17
498.469	12450.46
498.673	12677.78
498.876	12726.93
499.079	12817.04
499.282	12634.77
499.485	13406.86
499.689	13353.61
499.892	13619.85
500.095	13314.7
500.298	13812.35
500.501	13849.22
500.705	14260.86
500.908	14039.68
501.111	14387.83
501.314	14533.24
501.517	14713.46
501.72	15010.42
501.923	14959.22
502.126	15114.86
502.329	15198.83
502.532	15344.24
502.735	15309.42
502.938	15633
503.141	15688.29
503.344	15950.43
503.547	16075.36
503.75	16302.68
503.953	16540.25
504.156	16681.56
504.359	16833.11
504.562	16720.47
504.765	17472.07
504.968	17359.44
505.17	17558.09
505.373	17752.65
505.576	17992.26
505.779	17812.04
505.982	18137.66
506.185	18696.76
506.387	18446.91
506.59	18836.02
506.793	18954.8
506.996	18983.48
507.198	19384.88
507.401	19366.45
507.604	19511.85
507.807	20007.46
508.009	19970.6
508.212	20259.36
508.415	20558.36
508.617	20584.99
508.82	20916.76
509.022	20539.93
509.225	21191.19
509.428	21416.46
509.63	21645.84
509.833	21762.57
510.035	22266.37
510.238	21944.84
510.44	22215.17
510.643	22682.11
510.845	22733.31
511.048	22665.72
511.25	22934.01
511.453	23407.09
511.655	24033.77
511.858	23882.22
512.06	23790.06
512.262	24343.01
512.465	24254.95
512.667	24453.6
512.87	24955.35
513.072	24883.67
513.274	25354.71
513.477	25805.26
513.679	25741.77
513.881	25993.67
514.084	26059.21
514.286	26218.95
514.488	26376.64
514.69	27208.12
514.893	27042.23
515.095	27216.31
515.297	27533.75
515.499	27888.04
515.701	27871.66
515.904	27972.01
516.106	28533.15
516.308	28551.59
516.51	28821.92
516.712	29079.96
516.914	29626.77
517.116	29653.39
517.318	29776.27
517.52	29829.52
517.722	30386.57
517.925	30448
518.127	30888.32
518.329	31152.51
518.531	30630.27
518.733	30747.01
518.935	31570.29
519.136	31373.69
519.338	31959.41
519.54	31832.43
519.742	32303.46
519.944	32665.95
520.146	32905.57
520.348	32969.05
520.55	33194.33
520.752	32868.7
520.954	33614.16
521.155	33401.18
521.357	33653.08
521.559	34013.52
521.761	34355.53
521.963	34156.88
522.164	34376.01
522.366	34699.59
522.568	34847.04
522.77	34965.82
522.971	35526.97
523.173	34904.38
523.375	35434.81
523.576	35453.24
523.778	35502.39
523.98	36127.02
524.181	35754.29
524.383	35895.6
524.584	36561.19
524.786	36690.21
524.988	36239.66
525.189	36688.17
525.391	36946.21
525.592	36919.59
525.794	37013.79
525.995	37091.62
526.197	36852
526.398	37384.47
526.6	37296.41
526.801	37634.33
527.003	37585.18
527.204	37212.45
527.406	37536.02
527.607	37822.74
527.808	37691.67
528.01	37114.14
528.211	37325.08
528.412	38095.12
528.614	38017.3
528.815	37806.36
529.016	38230.29
529.218	37812.5
529.419	38347.02
529.62	38095.12
529.822	37884.18
530.023	38041.87
530.224	37875.99
530.425	37757.21
530.626	37845.27
530.828	37368.09
531.029	38340.88
531.23	37796.12
531.431	37693.72
531.632	37929.23
531.833	37921.04
532.035	38007.06
532.236	37970.19
532.437	38164.75
532.638	37773.59
532.839	38041.87
533.04	37986.58
533.241	37390.62
533.442	38342.92
533.643	37886.23
533.844	37501.21
534.045	37632.28
534.246	37609.75
534.447	37720.34
534.648	37900.56
534.849	37372.19
535.05	37665.05
535.251	37320.99
535.451	37337.37
535.652	37660.95
535.853	37165.34
536.054	37519.64
536.255	37615.9
536.456	37306.65
536.657	37749.01
536.857	37452.06
537.058	37351.71
537.259	37284.12
537.46	37243.17
537.66	37396.76
537.861	37116.19
538.062	36931.87
538.263	37333.28
538.463	36911.39
538.664	37067.04
538.865	36915.49
539.065	37298.46
539.266	37019.94
539.466	37087.52
539.667	36628.77
539.868	37540.12
540.068	37157.15
540.269	36899.11
540.469	36849.96
540.67	36794.66
540.87	36897.06
541.071	36925.73
541.271	37007.65
541.472	36927.78
541.672	36641.06
541.873	36626.73
542.073	36479.27
542.274	37075.23
542.474	36487.46
542.675	36473.13
542.875	36725.03
543.075	36663.59
543.276	36585.77
543.476	36915.49
543.676	36655.4
543.877	36747.56
544.077	36553
544.277	36780.32
544.478	36368.68
544.678	36526.38
544.878	36624.68
545.078	36557.1
545.279	36198.7
545.479	36012.34
545.679	36495.66
545.879	36098.35
546.079	36376.87
546.28	36460.84
546.48	36262.19
546.68	36632.87
546.88	36360.49
547.08	36217.13
547.28	36294.96
547.48	36002.1
547.68	36436.27
547.88	36143.41
548.081	36772.13
548.281	36340.01
548.481	36200.75
548.681	36540.71
548.881	36053.3
549.081	36092.21
549.28	36266.28
549.48	36297
549.68	36141.36
549.88	36550.95
550.08	36229.42
550.28	36456.75
550.48	36618.53
550.68	36387.11
550.88	36251.95
551.08	36475.18
551.279	36215.08
551.479	35961.14
551.679	36352.3
551.879	36290.86
552.079	36606.25
552.278	36239.66
552.478	36540.71
552.678	36585.77
552.878	36716.84
553.077	36323.63
553.277	35934.51
553.477	36878.63
553.676	36610.34
553.876	36522.28
554.076	36518.18
554.275	36366.63
554.475	35899.7
554.674	36575.53
554.874	36620.58
555.074	36411.69
555.273	36753.7
555.473	36561.19
555.672	36051.25
555.872	36440.36
556.071	36245.8
556.271	36806.95
556.47	36409.64
556.67	35895.6
556.869	36618.53
557.068	36847.91
557.268	36688.17
557.467	36346.15
557.667	36620.58
557.866	36651.3
558.065	36993.31
558.265	36649.25
558.464	36380.97
558.663	36917.54
558.863	36581.67
559.062	37300.51
559.261	36043.06
559.461	36722.98
559.66	36342.06
559.859	36628.77
560.058	36616.49
560.258	36700.45
560.457	36219.18
560.656	36491.56
560.855	36407.59
561.054	36907.3
561.253	36239.66
561.453	36575.53
561.652	37171.49
561.851	36507.94
562.05	36491.56
562.249	36188.46
562.448	36376.87
562.647	36591.91
562.846	36712.74
563.045	36251.95
563.244	36036.91
563.443	36923.68
563.642	36129.07
563.841	36401.45
564.04	36180.27
564.239	36483.37
564.438	35854.64
564.637	36264.24
564.836	36477.22
565.035	35766.58
565.234	35852.59
565.432	36147.5
565.631	36147.5
565.83	36598.05
566.029	35848.5
566.228	36290.86
566.427	35699
566.625	35911.99
566.824	35354.94
567.023	35903.79
567.222	35303.74
567.42	35916.08
567.619	35817.78
567.818	35438.9
568.016	35412.28
568.215	35543.35
568.414	35281.21
568.612	35490.1
568.811	35240.25
569.01	35565.88
569.208	34904.38
569.407	35189.05
569.605	34840.9
569.804	35477.82
570.002	34900.29
570.201	34910.53
570.4	34961.73
570.598	34242.89
570.797	34646.34
570.995	34607.43
571.193	34404.68
571.392	34687.3
571.59	34220.36
571.789	34404.68
571.987	34306.38
572.186	34316.62
572.384	34154.83
572.582	34187.6
572.781	34285.9
572.979	33685.84
573.177	34017.61
573.376	33986.89
573.574	33405.27
573.772	33651.03
573.971	33605.97
574.169	33276.25
574.367	33388.89
574.565	33503.57
574.763	33175.9
574.962	33302.87
575.16	32960.86
575.358	33106.27
575.556	32629.09
575.754	33526.1
575.952	32633.19
576.151	33231.19
576.349	32377.19
576.547	32289.13
576.745	32571.75
576.943	32704.87
577.141	32237.93
577.339	32260.46
577.537	32391.53
577.735	32293.22
577.933	32113
578.131	31820.14
578.329	31695.22
578.527	31703.41
578.725	31789.42
578.923	32186.73
579.121	32115.05
579.319	31519.09
579.516	31646.07
579.714	31701.36
579.912	31414.65
580.11	31398.26
580.308	31545.72
580.506	31283.58
580.704	30626.18
580.901	31359.35
581.099	31224.18
581.297	30757.25
581.495	30865.79
581.692	31095.16
581.89	30601.6
582.088	30906.75
582.285	30503.3
582.483	30792.06
582.681	30286.22
582.878	30249.35
583.076	30085.51
583.274	30507.4
583.471	29788.56
583.669	30245.26
583.866	30077.32
584.064	30110.09
584.262	29499.8
584.459	29804.94
584.657	29360.53
584.854	29843.85
585.052	29305.24
585.249	29276.57
585.447	29663.63
585.644	29473.17
585.841	29127.06
586.039	29403.54
586.236	29321.62
586.434	29532.56
586.631	29127.06
586.828	29114.78
587.026	29206.94
587.223	29090.2
587.42	28475.81
587.618	28965.28
587.815	28588.45
588.012	28826.01
588.21	28588.45
588.407	28701.09
588.604	28309.93
588.801	28404.13
588.999	28287.4
589.196	28375.46
589.393	28529.06
589.59	28332.45
589.787	28053.93
589.984	27855.28
590.182	27654.58
590.379	28168.62
590.576	27922.86
590.773	27548.08
590.97	27750.83
591.167	27466.16
591.364	27646.38
591.561	27865.52
591.758	27437.49
591.955	27314.61
592.152	27603.38
592.349	27435.44
592.546	27457.97
592.743	27384.24
592.94	27261.37
593.137	27183.54
593.334	27204.02
593.531	26847.68
593.727	27150.78
593.924	27423.15
594.121	26853.82
594.318	27228.6
594.515	26802.62
594.712	27189.69
594.908	26655.17
595.105	26892.73
595.302	26708.41
595.499	26845.63
595.696	26757.57
595.892	26489.28
596.089	26976.7
596.286	26644.93
596.482	26757.57
596.679	26669.5
596.876	26714.56
597.072	26565.06
597.269	26509.76
597.466	26235.33
597.662	25770.44
597.859	26251.72
598.055	26231.24
598.252	26358.21
598.448	26264
598.645	26075.59
598.841	25823.69
599.038	26333.64
599.234	26071.5
599.431	26108.36
599.627	26104.26
599.824	26235.33
600.02	25932.23
600.217	26116.55
600.413	25913.8
600.609	25752.01
600.806	25840.08
601.002	26087.88
601.198	25909.71
601.395	26059.21
601.591	25674.19
601.787	26046.92
601.984	25686.48
602.18	26182.09
602.376	25893.32
602.572	25840.08
602.769	25897.42
602.965	25909.71
603.161	26114.5
603.357	25907.66
603.553	25676.24
603.75	25862.6
603.946	25766.35
604.142	26108.36
604.338	25635.28
604.534	25874.89
604.73	25985.48
604.926	26159.56
605.122	26132.93
605.318	25928.14
605.514	25856.46
605.71	25950.67
605.906	25969.1
606.102	25835.98
606.298	26073.54
606.494	25932.23
606.69	26001.86
606.886	26370.5
607.082	25809.36
607.278	26132.93
607.474	25721.29
607.67	26202.57
607.866	25930.19
608.062	26225.09
608.257	26204.61
608.453	26280.39
608.649	26468.8
608.845	26051.02
609.041	25985.48
609.236	26466.75
609.432	26528.19
609.628	26288.58
609.824	26386.88
610.019	26415.55
610.215	26096.07
610.411	26225.09
610.606	26147.27
610.802	26180.04
610.998	26294.72
611.193	26571.2
611.389	26380.74
611.584	26540.48
611.78	26249.67
611.976	26689.98
612.171	26321.35
612.367	26431.94
612.562	26552.77
612.758	26157.51
612.953	26390.98
613.149	26786.24
613.344	26591.68
613.539	26446.27
613.735	26405.31
613.93	26515.9
614.126	26601.92
614.321	27070.9
614.517	26784.19
614.712	26489.28
614.907	26624.45
615.103	26880.44
615.298	26898.87
615.493	26730.94
615.688	26214.85
615.884	26931.64
616.079	26218.95
616.274	26716.61
616.47	26444.23
616.665	26683.84
616.86	26630.59
617.055	26393.03
617.25	26575.3
617.445	26743.23
617.641	26407.36
617.836	26679.74
618.031	26182.09
618.226	26636.73
618.421	26343.88
618.616	26855.87
618.811	25864.65
619.006	26747.33
619.201	25870.79
619.396	26433.99
619.591	25711.05
619.786	26112.45
619.981	25815.5
620.176	26012.1
620.371	25995.72
620.566	25752.01
620.761	25467.34
620.956	26163.65
621.151	25323.99
621.346	25526.74
621.541	25225.68
621.735	25289.17
621.93	24891.87
622.125	25342.42
622.32	24826.33
622.515	24852.95
622.709	24715.74
622.904	24799.71
623.099	24164.84
623.294	24773.08
623.488	24244.71
623.683	24472.03
623.878	23970.28
624.072	24152.55
624.267	24058.34
624.462	23765.48
624.656	23609.84
624.851	23949.8
625.046	23601.65
625.24	23251.44
625.435	23161.33
625.629	23099.89
625.824	23288.31
626.018	23583.21
626.213	22581.76
626.407	22622.72
626.602	22968.82
626.796	22688.25
626.991	22725.11
627.185	22483.45
627.38	22538.75
627.574	22096.39
627.768	21828.1
627.963	22219.27
628.157	21883.4
628.352	21971.46
628.546	21244.43
628.74	21651.98
628.935	21477.9
629.129	21645.84
629.323	21318.16
629.517	21264.91
629.712	21230.1
629.906	21082.64
630.1	20814.36
630.294	20855.32
630.489	20746.78
630.683	20910.61
630.877	20314.66
631.071	20478.49
631.265	20281.89
631.459	20390.43
631.653	20189.73
631.848	19868.2
632.042	20038.18
632.236	20144.67
632.43	19771.94
632.624	20025.89
632.818	19640.87
633.012	19366.45
633.206	19325.49
633.4	19452.46
633.594	18743.86
633.788	18883.13
633.982	19147.31
634.176	18842.17
634.369	18797.11
634.563	18811.45
634.757	18555.45
634.951	18799.16
635.145	18471.48
635.339	18350.65
635.533	18115.14
635.726	18541.11
635.92	17926.72
636.114	17941.06
636.308	18031.17
636.501	17953.35
636.695	17812.04
636.889	17695.3
637.083	17568.33
637.276	17506.89
637.47	17302.09
637.664	17074.77
637.857	17334.86
638.051	17162.83
638.244	16933.46
638.438	16654.94
638.632	16894.55
638.825	16704.09
639.019	16409.18
639.212	16675.41
639.406	16499.29
639.599	16503.39
639.793	16368.22
639.986	16333.4
640.18	16142.94
640.373	15991.39
640.567	16128.61
640.76	15862.37
640.954	15893.09
641.147	15643.24
641.34	15903.33
641.534	15622.76
641.727	15635.05
641.92	15327.85
642.114	15256.17
642.307	15286.89
642.5	15227.5
642.694	14754.42
642.887	15092.34
643.08	15084.14
643.273	15022.7
643.467	14684.79
643.66	14506.62
643.853	14625.4
644.046	14287.48
644.239	14350.97
644.432	14049.92
644.626	14111.36
644.819	14035.58
645.012	14281.34
645.205	14209.66
645.398	13873.79
645.591	13664.9
645.784	14008.96
645.977	13654.66
646.17	13779.59
646.363	13593.22
646.556	13279.88
646.749	13322.89
646.942	13468.3
647.135	13226.64
647.328	13247.12
647.521	13247.12
647.714	13058.7
647.907	12935.82
648.099	12761.75
648.292	12958.35
648.485	12741.27
648.678	12679.83
648.871	12583.57
649.064	12446.36
649.256	12475.03
649.449	12513.94
649.642	12384.92
649.835	12276.38
650.027	12163.74
650.22	12219.03
650.413	11928.22
650.605	11907.74
650.798	11862.69
650.991	11731.62
651.183	11678.37
651.376	11772.58
651.568	11803.3
651.761	11588.26
651.954	11334.31
652.146	11504.29
652.339	11729.57
652.531	11324.07
652.724	11307.69
652.916	11129.52
653.109	11317.93
653.301	11084.46
653.494	10982.06
653.686	10959.53
653.879	11072.17
654.071	10748.59
654.263	10807.98
654.456	10783.41
654.648	10873.52
654.84	10613.43
655.033	10584.76
655.225	10529.46
655.417	10463.93
655.61	10492.6
655.802	10443.45
655.994	10367.67
656.186	10312.38
656.379	10314.42
656.571	10072.76
656.763	9941.69
656.955	10060.48
657.148	10033.85
657.34	9953.98
657.532	9775.81
657.724	9870.01
657.916	9687.75
658.108	9773.76
658.3	9677.51
658.492	9614.02
658.684	9550.53
658.876	9507.52
659.068	9421.51
659.26	9515.72
659.452	9331.4
659.644	9298.63
659.836	9253.58
660.028	9390.79
660.22	9142.99
660.412	9177.8
660.604	8927.95
660.796	9079.5
660.988	8970.96
661.18	8936.14
661.372	8794.83
661.563	9048.78
661.755	8866.51
661.947	8700.62
662.139	8544.98
662.331	8618.71
662.522	8512.21
662.714	8563.41
662.906	8430.29
663.097	8418
663.289	8411.86
663.481	8192.73
663.673	8463.06
663.864	8317.65
664.056	8270.55
664.247	8184.54
664.439	8030.94
664.631	8063.71
664.822	8051.42
665.014	8084.19
665.205	7817.95
665.397	7727.84
665.588	7803.61
665.78	7682.78
665.971	7869.15
666.163	7693.02
666.354	7758.56
666.546	7586.53
666.737	7566.05
666.929	7695.07
667.12	7545.57
667.311	7551.71
667.503	7404.26
667.694	7430.88
667.885	7357.16
668.077	7416.55
668.268	7164.65
668.459	7267.05
668.651	7271.14
668.842	7205.61
669.033	7045.87
669.224	7185.13
669.416	7148.26
669.607	7080.68
669.798	7086.83
669.989	7011.05
670.18	6937.32
670.371	7148.26
670.563	6789.87
670.754	6992.62
670.945	6730.48
671.136	6849.26
671.327	6775.53
671.518	6783.73
671.709	6652.66
671.9	6623.98
672.091	6738.67
672.282	6691.57
672.473	6533.87
672.664	6710
672.855	6591.22
673.046	6666.99
673.237	6589.17
673.428	6607.6
673.619	6429.43
673.809	6462.19
674	6396.66
674.191	6367.99
674.382	6456.05
674.573	6169.34
674.764	6372.08
674.954	6417.14
675.145	6173.43
675.336	6257.4
675.527	6165.24
675.717	6318.84
675.908	6222.58
676.099	6169.34
676.289	6152.95
676.48	6210.29
676.671	6038.27
676.861	6195.96
677.052	6011.64
677.243	5878.52
677.433	6169.34
677.624	6202.1
677.814	5907.2
678.005	6097.66
678.195	5843.71
678.386	5921.53
678.576	5784.32
678.767	5925.63
678.957	5890.81
679.148	5870.33
679.338	5806.84
679.529	5856
679.719	5833.47
679.909	5847.8
680.1	5894.91
680.29	5796.6
680.481	5753.6
680.671	5567.23
680.861	5653.25
681.052	5776.13
681.242	5587.71
681.432	5792.51
681.622	5624.58
681.813	5579.52
682.003	5747.45
682.193	5573.38
682.383	5737.21
682.573	5593.86
682.764	5563.14
682.954	5716.73
683.144	5673.73
683.334	5602.05
683.524	5534.46
683.714	5712.64
683.904	5387.01
684.094	5606.14
684.284	5460.74
684.474	5479.17
684.664	5583.62
684.854	5409.54
685.044	5501.7
685.234	5178.12
685.424	5430.02
685.614	5378.82
685.804	5524.23
685.994	5546.75
686.184	5319.43
686.374	5403.39
686.564	5264.13
686.753	5311.24
686.943	5229.32
687.133	5210.89
687.323	5118.73
687.513	5294.85
687.702	5272.32
687.892	5182.21
688.082	5262.09
688.272	5149.45
688.461	5188.36
688.651	5108.49
688.841	5114.63
689.03	5178.12
689.22	5065.48
689.41	5059.34
689.599	5190.41
689.789	5260.04
689.979	4942.6
690.168	4989.71
690.358	4817.68
690.547	5040.9
690.737	4915.98
690.926	4938.51
691.116	4838.16
691.305	4977.42
691.495	4891.4
691.684	4825.87
691.874	4926.22
692.063	4797.2
692.252	4899.59
692.442	4735.76
692.631	4606.74
692.82	4924.17
693.01	4840.2
693.199	4799.24
693.388	4621.07
693.578	4678.41
693.767	4768.52
693.956	4530.96
694.146	4576.02
694.335	4643.6
694.524	4731.66
694.713	4746
694.902	4481.81
695.092	4541.2
695.281	4498.19
695.47	4598.54
695.659	4555.54
695.848	4498.19
696.037	4565.78
696.226	4506.38
696.415	4358.93
696.604	4559.63
696.793	4510.48
696.982	4346.64
697.171	4565.78
697.36	4375.31
697.549	4446.99
697.738	4330.26
697.927	4281.11
698.116	4373.27
698.305	4363.03
698.494	4399.89
698.683	4209.43
698.872	4522.77
699.061	4322.07
699.25	4199.19
699.438	4244.24
699.627	4268.82
699.816	4354.83
700.005	4201.24
700.193	4139.8
700.382	4158.23
700.571	4023.06
700.76	4131.61
700.948	4162.33
701.137	4066.07
701.326	3990.3
701.514	4164.37
701.703	4104.98
701.892	4170.52
702.08	4213.53
702.269	4129.56
702.457	4123.41
702.646	4012.82
702.834	4059.93
703.023	3998.49
703.212	3935
703.4	3861.27
703.589	3810.08
703.777	3971.86
703.965	3855.13
704.154	4064.02
704.342	3801.88
704.531	3967.77
704.719	3894.04
704.907	3984.15
705.096	3740.44
705.284	3941.15
705.472	3848.99
705.661	3988.25
705.849	3887.9
706.037	3824.41
706.226	3756.83
706.414	3726.11
706.602	3740.44
706.79	3814.17
706.979	3812.12
707.167	3748.64
707.355	3760.92
707.543	3668.77
707.731	3795.74
707.919	3670.81
708.107	3541.79
708.296	3691.29
708.484	3474.21
708.672	3711.77
708.86	3588.89
709.048	3709.72
709.236	3539.74
709.424	3636
709.612	3670.81
709.8	3502.88
709.988	3539.74
710.176	3547.94
710.364	3476.26
710.551	3484.45
710.739	3490.59
710.927	3515.17
711.115	3556.13
711.303	3529.5
711.491	3459.87
711.679	3423.01
711.866	3498.78
712.054	3418.91
712.242	3367.71
712.43	3416.87
712.617	3351.33
712.805	3351.33
712.993	3334.95
713.181	3332.9
713.368	3326.75
713.556	3441.44
713.744	3380
713.931	3412.77
714.119	3244.84
714.306	3431.2
714.494	3121.96
714.682	3128.1
714.869	3308.32
715.057	3175.2
715.244	3095.33
715.432	3195.68
715.619	3205.92
715.807	3236.64
715.994	3132.2
716.182	3132.2
716.369	3031.85
716.556	3158.82
716.744	3124.01
716.931	2999.08
717.119	3220.26
717.306	3081
717.493	3009.32
717.681	2911.02
717.868	3007.27
718.055	2919.21
718.242	3115.81
718.43	3097.38
718.617	3027.75
718.804	2929.45
718.991	3072.81
719.179	2990.89
719.366	2839.34
719.553	3011.37
719.74	2966.31
719.927	2997.03
720.114	2849.58
720.301	3056.42
720.488	2822.95
720.676	2788.14
720.863	2876.2
721.05	2933.54
721.237	2884.39
721.424	2882.35
721.611	2935.59
721.798	2812.71
721.985	2728.75
722.172	2695.98
722.358	2779.95
722.545	2753.32
722.732	2790.19
722.919	2878.25
723.106	2835.24
723.293	2763.56
723.48	2779.95
723.667	2827.05
723.853	2632.49
724.04	2814.76
724.227	2626.35
724.414	2671.4
724.6	2648.88
724.787	2738.99
724.974	2708.27
725.161	2712.36
725.347	2609.97
725.534	2691.88
725.72	2589.49
725.907	2550.57
726.094	2687.79
726.28	2573.1
726.467	2532.14
726.653	2564.91
726.84	2581.29
727.027	2683.69
727.213	2517.81
727.4	2528.05
727.586	2640.69
727.773	2597.68
727.959	2532.14
728.145	2573.1
728.332	2425.65
728.518	2491.18
728.705	2468.66
728.891	2501.42
729.077	2532.14
729.264	2503.47
729.45	2556.72
729.636	2532.14
729.823	2353.97
730.009	2437.94
730.195	2376.5
730.382	2628.4
730.568	2411.31
730.754	2431.79
730.94	2335.54
731.126	2413.36
731.313	2462.51
731.499	2419.5
731.685	2575.15
731.871	2378.55
732.057	2433.84
732.243	2409.26
732.429	2433.84
732.615	2466.61
732.801	2380.59
732.987	2335.54
733.173	2345.78
733.359	2388.78
733.545	2364.21
733.731	2321.2
733.917	2321.2
734.103	2437.94
734.289	2313.01
734.475	2251.57
734.661	2237.24
734.847	2362.16
735.033	2163.51
735.219	2229.04
735.404	2233.14
735.59	2222.9
735.776	2276.15
735.962	2323.25
736.148	2351.92
736.333	2253.62
736.519	2335.54
736.705	2157.36
736.89	2290.48
737.076	2122.55
737.262	2243.38
737.447	2054.97
737.633	2216.76
737.819	2294.58
738.004	2132.79
738.19	2263.86
738.375	2134.84
738.561	2276.15
738.747	2224.95
738.932	2179.89
739.118	2190.13
739.303	2212.66
739.489	2052.92
739.674	2052.92
739.859	1964.86
740.045	2132.79
740.23	2040.63
740.416	2001.72
740.601	2048.82
740.786	1966.9
740.972	1999.67
741.157	2007.86
741.342	1995.57
741.528	2075.45
741.713	2073.4
741.898	2005.81
742.084	2028.34
742.269	2018.1
742.454	1975.1
742.639	2024.25
742.824	1975.1
743.01	1925.94
743.195	2001.72
743.38	1882.94
743.565	1887.03
743.75	1811.26
743.935	1876.79
744.12	1940.28
744.305	1764.15
744.49	1764.15
744.675	1948.47
744.86	1844.03
745.045	1729.34
745.23	1753.91
745.415	1856.31
745.6	1805.11
745.785	1723.2
745.97	1813.31
746.155	1651.52
746.34	1696.57
746.525	1721.15
746.71	1790.78
746.895	1805.11
747.079	1680.19
747.264	1729.34
747.449	1743.67
747.634	1809.21
747.819	1737.53
748.003	1649.47
748.188	1616.7
748.373	1735.48
748.557	1608.51
748.742	1553.21
748.927	1672
749.111	1610.56
749.296	1610.56
749.481	1680.19
749.665	1534.78
749.85	1526.59
750.034	1579.84
750.219	1598.27
750.404	1444.67
750.588	1528.64
750.773	1573.69
750.957	1524.54
751.141	1416
751.326	1469.25
751.51	1426.24
751.695	1475.39
751.879	1409.86
752.064	1395.52
752.248	1413.95
752.432	1469.25
752.617	1372.99
752.801	1413.95
752.985	1295.17
753.17	1395.52
753.354	1495.87
753.538	1289.03
753.722	1307.46
753.907	1332.03
754.091	1401.66
754.275	1448.77
754.459	1332.03
754.643	1246.02
754.828	1336.13
755.012	1223.49
755.196	1229.63
755.38	1241.92
755.564	1237.83
755.748	1266.5
755.932	1186.63
756.116	1223.49
756.3	1237.83
756.484	1264.45
756.668	1215.3
756.852	1272.64
757.036	1196.87
757.22	1286.98
757.404	1164.1
757.588	1117
757.772	1094.47
757.956	1131.33
758.14	1076.04
758.323	1209.15
758.507	1239.87
758.691	1121.09
758.875	1065.8
759.059	1110.85
759.242	1035.08
759.426	1082.18
759.61	1119.04
759.794	1055.56
759.977	1055.56
760.161	1180.48
760.345	1092.42
760.528	1125.19
760.712	1055.56
760.895	1100.61
761.079	1078.08
761.263	1035.08
761.446	1008.45
761.63	992.07
761.813	1055.56
761.997	975.69
762.18	1028.93
762.364	1002.31
762.547	983.88
762.731	918.34
762.914	971.59
763.098	981.83
763.281	1024.84
763.464	951.11
763.648	947.01
763.831	869.19
764.015	938.82
764.198	1004.36
764.381	871.24
764.564	947.01
764.748	871.24
764.931	1033.03
765.114	914.25
765.297	865.1
765.481	725.83
765.664	861
765.847	893.77
766.03	992.07
766.213	906.06
766.397	942.92
766.58	865.1
766.763	836.42
766.946	877.38
767.129	863.05
767.312	832.33
767.495	871.24
767.678	873.29
767.861	828.23
768.044	852.81
768.227	836.42
768.41	789.32
768.593	875.34
768.776	789.32
768.959	832.33
769.142	889.67
769.324	791.37
769.507	846.66
769.69	863.05
769.873	820.04
770.056	848.71
770.239	861
770.421	772.94
770.604	852.81
770.787	789.32
770.97	680.78
771.152	817.99
771.335	885.58
771.518	721.74
771.7	721.74
771.883	787.27
772.066	840.52
772.248	828.23
772.431	770.89
772.613	877.38
772.796	768.84
772.978	836.42
773.161	723.79
773.343	678.73
773.526	709.45
773.708	697.16
773.891	693.07
774.073	631.63
774.256	691.02
774.438	729.93
774.621	721.74
774.803	727.88
774.985	699.21
775.168	731.98
775.35	656.2
775.532	697.16
775.715	709.45
775.897	664.4
776.079	729.93
776.261	574.28
776.444	668.49
776.626	658.25
776.808	633.68
776.99	574.28
777.173	721.74
777.355	701.26
777.537	625.48
777.719	623.44
777.901	602.96
778.083	572.24
778.265	652.11
778.447	680.78
778.629	586.57
778.811	625.48
778.993	531.28
779.175	549.71
779.357	611.15
779.539	543.57
779.721	529.23
779.903	582.48
780.085	615.24
780.267	633.68
780.449	572.24
780.631	543.57
780.812	549.71
780.994	488.27
781.176	613.2
781.358	502.61
781.54	547.66
781.721	590.67
781.903	572.24
782.085	469.84
782.267	639.82
782.448	484.17
782.63	455.5
782.812	437.07
782.993	529.23
783.175	484.17
783.357	443.21
783.538	504.65
783.72	498.51
783.901	453.45
784.083	529.23
784.264	525.13
784.446	400.21
784.627	369.49
784.809	498.51
784.99	453.45
785.172	435.02
785.353	500.56
785.535	426.83
785.716	422.73
785.897	387.92
786.079	480.08
786.26	435.02
786.441	451.41
786.623	412.5
786.804	355.15
786.985	443.21
787.167	357.2
787.348	414.54
787.529	385.87
787.71	451.41
787.891	428.88
788.073	383.82
788.254	381.78
788.435	373.58
788.616	402.26
788.797	324.43
788.978	408.4
789.159	279.38
789.34	396.11
789.522	363.34
789.703	455.5
789.884	379.73
790.065	328.53
790.246	379.73
790.427	328.53
790.607	369.49
790.788	402.26
790.969	344.91
791.15	414.54
791.331	355.15
791.512	389.97
791.693	240.47
791.874	361.3
792.054	385.87
792.235	279.38
792.416	312.14
792.597	242.51
792.778	256.85
792.958	371.54
793.139	344.91
793.32	303.95
793.5	312.14
793.681	291.66
793.862	228.18
794.042	299.86
794.223	306
794.404	287.57
794.584	250.71
794.765	281.43
794.945	242.51
795.126	336.72
795.306	365.39
795.487	217.94
795.667	234.32
795.848	297.81
796.028	265.04
796.209	238.42
796.389	297.81
796.57	222.03
796.75	205.65
796.93	217.94
797.111	189.27
797.291	287.57
797.471	344.91
797.652	271.19
797.832	252.75
798.012	353.1
798.192	160.59
798.373	197.46
798.553	308.05
798.733	250.71
798.913	213.84
799.093	262.99
799.274	248.66
799.454	228.18
799.634	215.89
799.814	267.09
799.994	215.89
800.174	273.23
800.354	275.28
800.534	136.02
800.714	244.56
800.894	185.17
801.074	174.93
801.254	166.74
801.434	197.46
801.614	242.51
801.794	189.27
801.974	934.73
802.154	156.5
802.334	246.61
802.514	207.7
802.693	215.89
802.873	172.88
803.053	246.61
803.233	240.47
803.413	209.75
803.592	207.7
803.772	242.51
803.952	269.14
804.131	181.07
804.311	222.03
804.491	199.51
804.67	136.02
804.85	125.78
805.03	181.07
805.209	226.13
805.389	119.64
805.568	107.35
805.748	226.13
805.928	168.79
806.107	213.84
806.287	156.5
806.466	267.09
806.646	170.83
806.825	217.94
807.004	181.07
807.184	230.23
807.363	185.17
807.543	185.17
807.722	181.07
807.901	187.22
808.081	193.36
808.26	88.92
808.439	197.46
808.619	119.64
808.798	115.54
808.977	191.31
809.156	213.84
809.336	174.93
809.515	209.75
809.694	140.12
809.873	66.39
810.052	140.12
810.231	320.34
810.411	156.5
810.59	158.55
810.769	121.68
810.948	148.31
811.127	66.39
811.306	154.45
811.485	107.35
811.664	242.51
811.843	148.31
812.022	138.07
812.201	60.24
812.38	158.55
812.559	170.83
812.737	82.77
812.916	99.16
813.095	142.16
813.274	140.12
813.453	82.77
813.632	164.69
813.811	142.16
813.989	97.11
814.168	148.31
814.347	115.54
814.526	156.5
814.704	142.16
814.883	166.74
815.062	144.21
815.24	193.36
815.419	66.39
815.598	99.16
815.776	-23.72
815.955	78.68
816.133	64.34
816.312	138.07
816.49	74.58
816.669	115.54
816.847	121.68
817.026	127.83
817.204	66.39
817.383	107.35
817.561	131.92
817.74	45.91
817.918	150.36
818.097	11.09
818.275	99.16
818.453	97.11
818.632	197.46
818.81	113.49
818.988	74.58
819.167	84.82
819.345	148.31
819.523	127.83
819.701	93.01
819.879	150.36
820.058	105.3
820.236	90.96
820.414	115.54
820.592	56.15
820.77	158.55
820.948	140.12
821.127	33.62
821.305	60.24
821.483	50
821.661	131.92
821.839	117.59
822.017	76.63
822.195	121.68
822.373	111.44
822.551	11.09
822.729	136.02
822.907	99.16
823.085	82.77
823.262	19.29
823.44	72.53
823.618	68.44
823.796	158.55
823.974	25.43
824.152	64.34
824.329	90.96
824.507	123.73
824.685	82.77
824.863	82.77
825.04	74.58
825.218	99.16
825.396	99.16
825.574	70.48
825.751	78.68
825.929	93.01
826.107	64.34
826.284	21.33
826.462	31.57
826.639	113.49
826.817	90.96
826.994	138.07
827.172	66.39
827.349	117.59
827.527	35.67
827.704	76.63
827.882	58.2
828.059	58.2
828.237	58.2
828.414	103.25
828.591	56.15
828.769	54.1
828.946	70.48
829.124	113.49
829.301	119.64
829.478	52.05
829.655	-36.01
829.833	95.06
830.01	33.62
830.187	21.33
830.364	50
830.542	68.44
830.719	125.78
830.896	99.16
831.073	-11.43
831.25	84.82
831.427	58.2
831.604	17.24
831.782	4.95
831.959	29.52
832.136	76.63
832.313	117.59
832.49	0.85
832.667	52.05
832.844	4.95
833.021	45.91
833.198	111.44
833.374	160.59
833.551	33.62
833.728	39.76
833.905	78.68
834.082	17.24
834.259	90.96
834.436	101.2
834.612	33.62
834.789	99.16
834.966	15.19
835.143	35.67
835.319	27.48
835.496	17.24
835.673	90.96
835.85	74.58
836.026	45.91
836.203	90.96
836.38	-11.43
836.556	60.24
836.733	23.38
836.909	117.59
837.086	41.81
837.262	11.09
837.439	66.39
837.616	37.72
837.792	97.11
837.968	103.25
838.145	25.43
838.321	35.67
838.498	86.87
838.674	74.58
838.851	50
839.027	60.24
839.203	54.1
839.38	45.91
839.556	41.81
839.732	37.72
839.909	84.82
840.085	62.29
840.261	29.52
840.437	50
840.614	47.96
840.79	-7.34
840.966	45.91
841.142	35.67
841.318	-38.06
841.494	142.16
841.671	-21.67
841.847	11.09
842.023	35.67
842.199	144.21
842.375	66.39
842.551	41.81
842.727	66.39
842.903	90.96
843.079	-3.24
843.255	109.4
843.431	74.58
843.607	35.67
843.783	-60.59
843.959	2.9
844.134	-72.87
844.31	103.25
844.486	54.1
844.662	0.85
844.838	45.91
845.013	107.35
845.189	58.2
845.365	-7.34
845.541	52.05
845.716	37.72
845.892	17.24
846.068	66.39
846.244	-7.34
846.419	-27.82
846.595	17.24
846.77	-7.34
846.946	25.43
847.122	-23.72
847.297	35.67
847.473	25.43
847.648	-11.43
847.824	33.62
847.999	-15.53
848.175	27.48
848.35	17.24
848.526	19.29
848.701	31.57
848.876	33.62
849.052	-31.91
849.227	47.96
849.403	37.72
849.578	43.86
849.753	43.86
849.929	27.48
850.104	-31.91
850.279	19.29
850.454	0.85
850.63	93.01
850.805	-27.82
850.98	21.33
851.155	58.2
851.33	-19.63
851.505	31.57
851.681	-5.29
851.856	52.05
852.031	27.48
852.206	50
852.381	13.14
852.556	-7.34
852.731	43.86
852.906	-42.15
853.081	2.9
853.256	-21.67
853.431	9.05
853.606	-23.72
853.781	-15.53
853.956	66.39
854.131	23.38
854.305	-31.91
854.48	37.72
854.655	-1.19
854.83	23.38
855.005	-13.48
855.18	-36.01
855.354	-42.15
855.529	21.33
855.704	-5.29
855.879	-7.34
856.053	-17.58
856.228	74.58
856.403	17.24
856.577	37.72
856.752	-29.87
856.926	9.05
857.101	4.95
857.276	11.09
857.45	33.62
857.625	88.92
857.799	88.92
857.974	-17.58
858.148	-15.53
858.323	-70.83
858.497	19.29
858.672	-87.21
858.846	-7.34
859.02	33.62
859.195	-38.06
859.369	9.05
859.543	2.9
859.718	-31.91
859.892	7
860.066	41.81
860.241	-13.48
860.415	9.05
860.589	-40.11
860.763	17.24
860.938	-7.34
861.112	35.67
861.286	27.48
861.46	9.05
861.634	21.33
861.808	0.85
861.982	25.43
862.157	29.52
862.331	-40.11
862.505	29.52
862.679	-9.39
862.853	-13.48
863.027	0.85
863.201	19.29
863.375	-40.11
863.549	17.24
863.722	-36.01
863.896	148.31
864.07	-5.29
864.244	-72.87
864.418	39.76
864.592	-13.48
864.766	2.9
864.939	43.86
865.113	54.1
865.287	-46.25
865.461	-27.82
865.634	-11.43
865.808	-11.43
865.982	41.81
866.156	-79.02
866.329	-23.72
866.503	0.85
866.676	0.85
866.85	19.29
867.024	-7.34
867.197	19.29
867.371	0.85
867.544	41.81
867.718	-54.44
867.891	-7.34
868.065	35.67
868.238	37.72
868.412	60.24
868.585	-81.07
868.759	-15.53
868.932	-48.3
869.105	37.72
869.279	4.95
869.452	-40.11
869.625	11.09
869.799	-72.87
869.972	-29.87
870.145	0.85
870.319	17.24
870.492	29.52
870.665	-19.63
870.838	-5.29
871.011	-36.01
871.185	21.33
871.358	-5.29
871.531	9.05
871.704	2.9
871.877	-17.58
872.05	11.09
872.223	9.05
872.396	0.85
872.569	19.29
872.742	25.43
872.915	0.85
873.088	-48.3
873.261	-56.49
873.434	0.85
873.607	54.1
873.78	25.43
873.953	2.9
874.126	2.9
874.299	21.33
874.471	-60.59
874.644	-66.73
874.817	99.16
874.99	45.91
875.163	-19.63
875.335	-19.63
875.508	4.95
875.681	39.76
875.853	-62.63
876.026	-56.49
876.199	27.48
876.371	-44.2
876.544	-44.2
876.717	-31.91
876.889	11.09
877.062	0.85
877.234	-50.35
877.407	60.24
877.579	-23.72
877.752	-7.34
877.924	35.67
878.097	0.85
878.269	27.48
878.442	29.52
878.614	-40.11
878.786	-15.53
878.959	-44.2
879.131	2.9
879.303	-9.39
879.476	13.14
879.648	50
879.82	-7.34
879.993	-79.02
880.165	-46.25
880.337	-9.39
880.509	0.85
880.681	2.9
880.854	19.29
881.026	-29.87
881.198	-3.24
881.37	-25.77
881.542	17.24
881.714	-54.44
881.886	-62.63
882.058	-95.4
882.23	17.24
882.402	4.95
882.574	-40.11
882.746	4.95
882.918	-31.91
883.09	-27.82
883.262	4.95
883.434	-7.34
883.606	-25.77
883.778	-81.07
883.95	84.82
884.122	23.38
884.293	35.67
884.465	33.62
884.637	64.34
884.809	-58.54
884.98	15.19
885.152	-5.29
885.324	52.05
885.496	-15.53
885.667	19.29
885.839	-52.39
886.011	52.05
886.182	0.85
886.354	-38.06
886.525	-15.53
886.697	19.29
886.869	-89.26
887.04	93.01
887.212	25.43
887.383	45.91
887.555	19.29
887.726	-5.29
887.897	-72.87
888.069	-23.72
888.24	33.62
888.412	2.9
888.583	-38.06
888.754	-72.87
888.926	-89.26
889.097	-21.67
889.268	-15.53
889.44	-36.01
889.611	-91.31
889.782	11.09
889.953	54.1
890.125	47.96
890.296	66.39
890.467	-5.29
890.638	-31.91
890.809	25.43
890.98	-31.91
891.151	43.86
891.323	66.39
891.494	-5.29
891.665	-3.24
891.836	19.29
892.007	0.85
892.178	-11.43
892.349	0.85
892.52	-23.72
892.691	2.9
892.862	-25.77
893.032	-44.2
893.203	-44.2
893.374	43.86
893.545	-11.43
893.716	-44.2
893.887	80.72
894.057	-42.15
894.228	-13.48
894.399	-68.78
894.57	29.52
894.74	58.2
894.911	-23.72
895.082	-19.63
895.253	-48.3
895.423	0.85
895.594	-9.39
895.764	19.29
895.935	-72.87
896.106	-27.82
896.276	-40.11
896.447	33.62
896.617	-72.87
896.788	-48.3
896.958	-97.45
897.129	-38.06
897.299	-3.24
897.47	37.72
897.64	43.86
897.81	0.85
897.981	-15.53
898.151	-19.63
898.322	-15.53
898.492	27.48
898.662	-52.39
898.832	-17.58
899.003	-7.34
899.173	-15.53
899.343	37.72
899.513	0.85
