Data from USB4F104151__49__14-29-58-183.txt Node

Date: Thu Mar 13 14:29:58 EDT 2025
User: louis
Spectrometer: USB4F10415
Trigger mode: 4
Integration Time (sec): 2.500000E-2
Scans to average: 1
Electric dark correction enabled: true
Nonlinearity correction enabled: false
Boxcar width: 0
XAxis mode: Wavelengths
Number of Pixels in Spectrum: 3648
>>>>>Begin Spectral Data<<<<<
178.204	-180.9
178.424	-180.9
178.644	-180.9
178.864	-96.94
179.084	-135.85
179.304	-17.07
179.524	-21.16
179.744	32.08
179.964	48.47
180.184	-15.02
180.404	17.75
180.624	-10.92
180.844	-21.16
181.064	-58.03
181.283	48.47
181.503	15.7
181.723	-19.11
181.943	-15.02
182.163	101.72
182.383	-25.26
182.602	95.57
182.822	99.67
183.042	-6.83
183.262	48.47
183.482	48.47
183.701	-0.68
183.921	23.89
184.141	93.52
184.361	56.66
184.58	91.48
184.8	64.85
185.02	-10.92
185.239	34.13
185.459	23.89
185.679	60.76
185.898	-2.73
186.118	85.33
186.338	60.76
186.557	77.14
186.777	17.75
186.997	15.7
187.216	68.95
187.436	105.81
187.655	122.2
187.875	83.28
188.095	-10.92
188.314	114
188.534	95.57
188.753	114
188.973	60.76
189.192	114
189.412	77.14
189.631	58.71
189.851	-0.68
190.07	56.66
190.29	15.7
190.509	27.99
190.729	11.61
190.948	89.43
191.168	165.2
191.387	159.06
191.607	118.1
191.826	-29.35
192.045	68.95
192.265	89.43
192.484	44.37
192.704	15.7
192.923	40.28
193.142	130.39
193.362	71
193.581	91.48
193.8	79.19
194.02	118.1
194.239	77.14
194.458	32.08
194.678	21.85
194.897	95.57
195.116	-15.02
195.335	60.76
195.555	48.47
195.774	25.94
195.993	81.24
196.212	64.85
196.432	56.66
196.651	42.32
196.87	62.8
197.089	9.56
197.308	66.9
197.528	75.09
197.747	40.28
197.966	32.08
198.185	68.95
198.404	114
198.623	116.05
198.842	81.24
199.062	99.67
199.281	167.25
199.5	21.85
199.719	85.33
199.938	95.57
200.157	27.99
200.376	81.24
200.595	50.52
200.814	81.24
201.033	83.28
201.252	116.05
201.471	32.08
201.69	122.2
201.909	124.24
202.128	58.71
202.347	48.47
202.566	27.99
202.785	-31.4
203.004	25.94
203.223	163.15
203.442	126.29
203.661	32.08
203.879	97.62
204.098	89.43
204.317	11.61
204.536	93.52
204.755	101.72
204.974	116.05
205.193	56.66
205.411	105.81
205.63	40.28
205.849	130.39
206.068	73.04
206.287	34.13
206.505	107.86
206.724	138.58
206.943	1.37
207.162	25.94
207.381	40.28
207.599	54.61
207.818	91.48
208.037	25.94
208.255	36.18
208.474	56.66
208.693	9.56
208.911	77.14
209.13	30.04
209.349	107.86
209.567	122.2
209.786	48.47
210.005	114
210.223	66.9
210.442	19.8
210.661	32.08
210.879	118.1
211.098	97.62
211.316	97.62
211.535	56.66
211.753	73.04
211.972	109.91
212.191	23.89
212.409	3.41
212.628	56.66
212.846	58.71
213.065	27.99
213.283	105.81
213.502	50.52
213.72	109.91
213.938	138.58
214.157	163.15
214.375	83.28
214.594	58.71
214.812	107.86
215.031	9.56
215.249	73.04
215.467	27.99
215.686	48.47
215.904	64.85
216.122	52.56
216.341	81.24
216.559	32.08
216.778	187.73
216.996	157.01
217.214	-0.68
217.432	-17.07
217.651	87.38
217.869	-0.68
218.087	73.04
218.306	81.24
218.524	71
218.742	-6.83
218.96	58.71
219.179	56.66
219.397	48.47
219.615	126.29
219.833	109.91
220.051	11.61
220.27	140.63
220.488	109.91
220.706	95.57
220.924	56.66
221.142	-6.83
221.36	114
221.578	19.8
221.796	68.95
222.015	23.89
222.233	36.18
222.451	81.24
222.669	-17.07
222.887	42.32
223.105	64.85
223.323	15.7
223.541	81.24
223.759	52.56
223.977	73.04
224.195	114
224.413	42.32
224.631	195.92
224.849	73.04
225.067	124.24
225.285	17.75
225.503	126.29
225.721	-17.07
225.939	75.09
226.157	38.23
226.375	187.73
226.592	50.52
226.81	-41.64
227.028	87.38
227.246	105.81
227.464	32.08
227.682	52.56
227.9	122.2
228.117	48.47
228.335	23.89
228.553	-0.68
228.771	97.62
228.989	97.62
229.206	52.56
229.424	91.48
229.642	19.8
229.86	17.75
230.077	99.67
230.295	25.94
230.513	118.1
230.731	103.76
230.948	208.21
231.166	105.81
231.384	64.85
231.601	48.47
231.819	68.95
232.037	-29.35
232.254	62.8
232.472	97.62
232.689	23.89
232.907	118.1
233.125	52.56
233.342	21.85
233.56	62.8
233.777	58.71
233.995	64.85
234.213	58.71
234.43	56.66
234.648	56.66
234.865	60.76
235.083	77.14
235.3	32.08
235.518	99.67
235.735	122.2
235.953	56.66
236.17	34.13
236.388	-37.55
236.605	68.95
236.822	124.24
237.04	181.59
237.257	75.09
237.475	48.47
237.692	97.62
237.909	9.56
238.127	15.7
238.344	11.61
238.562	68.95
238.779	58.71
238.996	73.04
239.214	44.37
239.431	30.04
239.648	15.7
239.865	66.9
240.083	146.77
240.3	48.47
240.517	-29.35
240.735	56.66
240.952	93.52
241.169	97.62
241.386	58.71
241.603	9.56
241.821	89.43
242.038	32.08
242.255	107.86
242.472	3.41
242.689	56.66
242.907	109.91
243.124	42.32
243.341	36.18
243.558	40.28
243.775	32.08
243.992	19.8
244.209	40.28
244.426	161.11
244.643	58.71
244.86	105.81
245.078	3.41
245.295	89.43
245.512	89.43
245.729	109.91
245.946	68.95
246.163	109.91
246.38	75.09
246.597	66.9
246.814	56.66
247.031	23.89
247.248	40.28
247.464	60.76
247.681	48.47
247.898	71
248.115	91.48
248.332	5.46
248.549	122.2
248.766	97.62
248.983	126.29
249.2	114
249.417	38.23
249.633	27.99
249.85	48.47
250.067	64.85
250.284	71
250.501	105.81
250.717	66.9
250.934	17.75
251.151	-6.83
251.368	91.48
251.585	122.2
251.801	73.04
252.018	64.85
252.235	34.13
252.451	1.37
252.668	50.52
252.885	60.76
253.102	97.62
253.318	50.52
253.535	34.13
253.752	-0.68
253.968	13.65
254.185	7.51
254.401	56.66
254.618	56.66
254.835	64.85
255.051	56.66
255.268	9.56
255.484	130.39
255.701	99.67
255.917	48.47
256.134	56.66
256.351	-4.78
256.567	93.52
256.784	130.39
257	54.61
257.217	89.43
257.433	118.1
257.65	34.13
257.866	91.48
258.082	15.7
258.299	36.18
258.515	56.66
258.732	97.62
258.948	3.41
259.165	46.42
259.381	87.38
259.597	64.85
259.814	68.95
260.03	38.23
260.246	38.23
260.463	128.34
260.679	111.96
260.895	58.71
261.112	52.56
261.328	71
261.544	114
261.761	105.81
261.977	54.61
262.193	34.13
262.409	66.9
262.626	56.66
262.842	73.04
263.058	42.32
263.274	146.77
263.49	1.37
263.707	48.47
263.923	42.32
264.139	23.89
264.355	-15.02
264.571	144.72
264.787	36.18
265.004	40.28
265.22	64.85
265.436	-15.02
265.652	66.9
265.868	79.19
266.084	60.76
266.3	23.89
266.516	23.89
266.732	56.66
266.948	15.7
267.164	81.24
267.38	38.23
267.596	107.86
267.812	130.39
268.028	91.48
268.244	48.47
268.46	7.51
268.676	42.32
268.892	89.43
269.108	15.7
269.324	64.85
269.54	17.75
269.756	114
269.972	-6.83
270.188	81.24
270.403	-17.07
270.619	62.8
270.835	60.76
271.051	9.56
271.267	-23.21
271.483	71
271.698	130.39
271.914	32.08
272.13	34.13
272.346	64.85
272.562	122.2
272.777	58.71
272.993	62.8
273.209	103.76
273.425	36.18
273.64	32.08
273.856	85.33
274.072	15.7
274.287	-8.87
274.503	25.94
274.719	-8.87
274.934	124.24
275.15	15.7
275.366	120.15
275.581	27.99
275.797	54.61
276.012	87.38
276.228	9.56
276.444	17.75
276.659	124.24
276.875	-6.83
277.09	111.96
277.306	85.33
277.521	101.72
277.737	130.39
277.952	114
278.168	48.47
278.383	48.47
278.599	5.46
278.814	126.29
279.03	9.56
279.245	97.62
279.461	109.91
279.676	56.66
279.892	97.62
280.107	95.57
280.322	-12.97
280.538	58.71
280.753	9.56
280.969	34.13
281.184	1.37
281.399	52.56
281.615	7.51
281.83	73.04
282.045	23.89
282.26	111.96
282.476	114
282.691	19.8
282.906	56.66
283.122	7.51
283.337	-6.83
283.552	19.8
283.767	148.82
283.983	58.71
284.198	32.08
284.413	97.62
284.628	23.89
284.843	114
285.058	83.28
285.274	146.77
285.489	64.85
285.704	122.2
285.919	52.56
286.134	81.24
286.349	85.33
286.564	3.41
286.779	132.44
286.995	81.24
287.21	-6.83
287.425	66.9
287.64	15.7
287.855	83.28
288.07	-0.68
288.285	140.63
288.5	34.13
288.715	122.2
288.93	64.85
289.145	46.42
289.36	77.14
289.575	97.62
289.79	144.72
290.004	40.28
290.219	60.76
290.434	81.24
290.649	101.72
290.864	83.28
291.079	58.71
291.294	23.89
291.509	130.39
291.724	95.57
291.938	58.71
292.153	27.99
292.368	42.32
292.583	36.18
292.798	87.38
293.012	107.86
293.227	77.14
293.442	50.52
293.657	89.43
293.871	44.37
294.086	93.52
294.301	56.66
294.516	93.52
294.73	157.01
294.945	146.77
295.16	25.94
295.374	134.48
295.589	128.34
295.804	17.75
296.018	105.81
296.233	107.86
296.447	-21.16
296.662	25.94
296.877	91.48
297.091	-31.4
297.306	68.95
297.52	5.46
297.735	71
297.949	73.04
298.164	97.62
298.378	97.62
298.593	64.85
298.807	52.56
299.022	154.96
299.236	146.77
299.451	40.28
299.665	11.61
299.88	3.41
300.094	-17.07
300.309	71
300.523	64.85
300.737	-25.26
300.952	97.62
301.166	48.47
301.381	54.61
301.595	56.66
301.809	13.65
302.024	87.38
302.238	-8.87
302.452	132.44
302.667	107.86
302.881	138.58
303.095	85.33
303.309	130.39
303.524	56.66
303.738	7.51
303.952	44.37
304.166	42.32
304.381	1.37
304.595	93.52
304.809	83.28
305.023	56.66
305.237	36.18
305.452	105.81
305.666	32.08
305.88	103.76
306.094	81.24
306.308	103.76
306.522	122.2
306.736	66.9
306.95	48.47
307.164	42.32
307.379	107.86
307.593	93.52
307.807	130.39
308.021	140.63
308.235	48.47
308.449	-4.78
308.663	32.08
308.877	165.2
309.091	17.75
309.305	91.48
309.519	7.51
309.733	79.19
309.947	15.7
310.161	93.52
310.374	85.33
310.588	157.01
310.802	-8.87
311.016	25.94
311.23	124.24
311.444	32.08
311.658	27.99
311.872	34.13
312.085	103.76
312.299	64.85
312.513	32.08
312.727	66.9
312.941	42.32
313.154	105.81
313.368	99.67
313.582	58.71
313.796	44.37
314.009	15.7
314.223	114
314.437	75.09
314.651	73.04
314.864	97.62
315.078	60.76
315.292	73.04
315.505	75.09
315.719	91.48
315.933	130.39
316.146	75.09
316.36	15.7
316.573	77.14
316.787	118.1
317.001	64.85
317.214	36.18
317.428	75.09
317.641	40.28
317.855	17.75
318.068	44.37
318.282	50.52
318.495	114
318.709	101.72
318.922	81.24
319.136	73.04
319.349	40.28
319.563	44.37
319.776	85.33
319.99	32.08
320.203	64.85
320.417	73.04
320.63	97.62
320.843	81.24
321.057	52.56
321.27	73.04
321.483	91.48
321.697	85.33
321.91	38.23
322.124	77.14
322.337	66.9
322.55	-49.83
322.763	56.66
322.977	-23.21
323.19	17.75
323.403	146.77
323.617	58.71
323.83	89.43
324.043	-37.55
324.256	103.76
324.469	-25.26
324.683	130.39
324.896	97.62
325.109	99.67
325.322	48.47
325.535	191.83
325.748	89.43
325.962	103.76
326.175	68.95
326.388	40.28
326.601	64.85
326.814	111.96
327.027	3.41
327.24	130.39
327.453	3.41
327.666	85.33
327.879	77.14
328.092	36.18
328.305	103.76
328.518	122.2
328.731	48.47
328.944	114
329.157	34.13
329.37	114
329.583	64.85
329.796	97.62
330.009	46.42
330.222	44.37
330.435	99.67
330.648	9.56
330.861	99.67
331.073	79.19
331.286	56.66
331.499	64.85
331.712	56.66
331.925	58.71
332.138	81.24
332.35	116.05
332.563	114
332.776	140.63
332.989	144.72
333.202	-0.68
333.414	32.08
333.627	89.43
333.84	77.14
334.053	105.81
334.265	23.89
334.478	89.43
334.691	97.62
334.903	-8.87
335.116	-6.83
335.329	130.39
335.541	9.56
335.754	91.48
335.966	44.37
336.179	62.8
336.392	73.04
336.604	50.52
336.817	62.8
337.029	99.67
337.242	73.04
337.454	130.39
337.667	71
337.88	32.08
338.092	73.04
338.305	95.57
338.517	48.47
338.729	118.1
338.942	105.81
339.154	73.04
339.367	32.08
339.579	101.72
339.792	50.52
340.004	183.63
340.217	48.47
340.429	124.24
340.641	52.56
340.854	42.32
341.066	95.57
341.278	157.01
341.491	89.43
341.703	107.86
341.915	81.24
342.128	42.32
342.34	34.13
342.552	105.81
342.764	64.85
342.977	19.8
343.189	32.08
343.401	120.15
343.613	25.94
343.826	42.32
344.038	99.67
344.25	91.48
344.462	56.66
344.674	120.15
344.886	46.42
345.099	34.13
345.311	83.28
345.523	83.28
345.735	62.8
345.947	83.28
346.159	-10.92
346.371	114
346.583	-0.68
346.795	122.2
347.007	60.76
347.219	81.24
347.431	101.72
347.643	75.09
347.855	15.7
348.067	154.96
348.279	56.66
348.491	120.15
348.703	56.66
348.915	27.99
349.127	48.47
349.339	89.43
349.551	27.99
349.763	101.72
349.975	19.8
350.187	97.62
350.399	89.43
350.61	157.01
350.822	64.85
351.034	62.8
351.246	73.04
351.458	124.24
351.669	126.29
351.881	93.52
352.093	85.33
352.305	81.24
352.517	114
352.728	105.81
352.94	44.37
353.152	7.51
353.363	75.09
353.575	85.33
353.787	97.62
353.999	68.95
354.21	154.96
354.422	81.24
354.633	3.41
354.845	85.33
355.057	154.96
355.268	89.43
355.48	81.24
355.692	75.09
355.903	105.81
356.115	81.24
356.326	48.47
356.538	114
356.749	73.04
356.961	118.1
357.172	114
357.384	118.1
357.595	130.39
357.807	91.48
358.018	52.56
358.23	122.2
358.441	146.77
358.653	130.39
358.864	38.23
359.075	7.51
359.287	60.76
359.498	109.91
359.709	7.51
359.921	-21.16
360.132	109.91
360.344	101.72
360.555	93.52
360.766	52.56
360.977	54.61
361.189	32.08
361.4	42.32
361.611	83.28
361.823	163.15
362.034	81.24
362.245	44.37
362.456	54.61
362.667	56.66
362.879	54.61
363.09	81.24
363.301	30.04
363.512	25.94
363.723	73.04
363.935	89.43
364.146	81.24
364.357	3.41
364.568	62.8
364.779	1.37
364.99	146.77
365.201	50.52
365.412	52.56
365.623	48.47
365.834	134.48
366.045	36.18
366.256	138.58
366.467	42.32
366.678	130.39
366.889	-0.68
367.1	89.43
367.311	64.85
367.522	-15.02
367.733	19.8
367.944	105.81
368.155	36.18
368.366	23.89
368.577	103.76
368.788	105.81
368.999	23.89
369.209	101.72
369.42	154.96
369.631	167.25
369.842	52.56
370.053	-17.07
370.264	73.04
370.474	62.8
370.685	68.95
370.896	111.96
371.107	77.14
371.317	118.1
371.528	56.66
371.739	111.96
371.95	68.95
372.16	56.66
372.371	56.66
372.582	64.85
372.792	36.18
373.003	56.66
373.214	9.56
373.424	34.13
373.635	93.52
373.846	93.52
374.056	36.18
374.267	89.43
374.477	85.33
374.688	7.51
374.898	89.43
375.109	105.81
375.319	44.37
375.53	120.15
375.74	62.8
375.951	56.66
376.161	73.04
376.372	97.62
376.582	15.7
376.793	93.52
377.003	17.75
377.214	89.43
377.424	165.2
377.635	25.94
377.845	60.76
378.055	179.54
378.266	56.66
378.476	138.58
378.686	97.62
378.897	56.66
379.107	101.72
379.317	114
379.528	52.56
379.738	216.4
379.948	68.95
380.158	130.39
380.369	79.19
380.579	89.43
380.789	17.75
380.999	56.66
381.21	120.15
381.42	93.52
381.63	77.14
381.84	132.44
382.05	118.1
382.261	91.48
382.471	118.1
382.681	97.62
382.891	130.39
383.101	161.11
383.311	77.14
383.521	77.14
383.731	101.72
383.941	68.95
384.151	58.71
384.361	89.43
384.571	44.37
384.781	66.9
384.991	105.81
385.201	64.85
385.411	71
385.621	114
385.831	56.66
386.041	97.62
386.251	64.85
386.461	132.44
386.671	27.99
386.881	83.28
387.091	179.54
387.301	163.15
387.511	44.37
387.72	75.09
387.93	15.7
388.14	23.89
388.35	109.91
388.56	157.01
388.769	134.48
388.979	30.04
389.189	40.28
389.399	73.04
389.609	163.15
389.818	142.68
390.028	163.15
390.238	105.81
390.447	46.42
390.657	52.56
390.867	77.14
391.076	93.52
391.286	122.2
391.496	124.24
391.705	118.1
391.915	105.81
392.125	77.14
392.334	89.43
392.544	132.44
392.753	97.62
392.963	56.66
393.172	103.76
393.382	40.28
393.591	105.81
393.801	101.72
394.01	124.24
394.22	97.62
394.429	23.89
394.639	52.56
394.848	124.24
395.058	105.81
395.267	107.86
395.477	132.44
395.686	216.4
395.895	114
396.105	206.16
396.314	77.14
396.524	130.39
396.733	122.2
396.942	116.05
397.152	148.82
397.361	122.2
397.57	124.24
397.78	167.25
397.989	163.15
398.198	202.07
398.407	91.48
398.617	142.68
398.826	175.44
399.035	97.62
399.244	230.74
399.453	136.53
399.663	81.24
399.872	79.19
400.081	91.48
400.29	222.55
400.499	138.58
400.708	171.35
400.917	97.62
401.127	118.1
401.336	179.54
401.545	271.7
401.754	212.31
401.963	191.83
402.172	109.91
402.381	187.73
402.59	157.01
402.799	140.63
403.008	122.2
403.217	152.92
403.426	171.35
403.635	138.58
403.844	132.44
404.053	148.82
404.262	146.77
404.471	167.25
404.68	243.03
404.888	204.11
405.097	195.92
405.306	251.22
405.515	146.77
405.724	187.73
405.933	236.88
406.142	185.68
406.35	243.03
406.559	159.06
406.768	236.88
406.977	337.23
407.185	265.55
407.394	343.38
407.603	206.16
407.812	277.84
408.02	298.32
408.229	304.46
408.438	249.17
408.646	222.55
408.855	302.42
409.064	343.38
409.272	286.03
409.481	318.8
409.69	318.8
409.898	318.8
410.107	386.38
410.315	359.76
410.524	392.53
410.733	329.04
410.941	415.06
411.15	443.73
411.358	396.62
411.567	437.58
411.775	427.34
411.984	425.29
412.192	560.46
412.401	435.53
412.609	599.37
412.818	677.2
413.026	527.69
413.234	533.84
413.443	548.17
413.651	572.75
413.86	687.43
414.068	763.21
414.276	793.93
414.485	693.58
414.693	716.11
414.901	879.94
415.11	922.95
415.318	816.46
415.526	834.89
415.734	804.17
415.943	933.19
416.151	970.05
416.359	982.34
416.567	986.44
416.776	1002.82
416.984	1039.69
417.192	1121.6
417.4	1031.49
417.608	1092.93
417.817	1162.56
418.025	1205.57
418.233	1400.13
418.441	1277.25
418.649	1322.31
418.857	1459.52
419.065	1467.71
419.273	1488.19
419.481	1490.24
419.689	1631.55
419.897	1654.08
420.105	1533.25
420.313	1727.8
420.521	1934.65
420.729	1789.24
420.937	1873.21
421.145	1875.26
421.353	2186.55
421.561	2067.77
421.769	2200.88
421.977	2229.56
422.185	2268.47
422.393	2465.07
422.601	2557.23
422.809	2573.61
423.017	2534.7
423.224	2598.19
423.432	2774.32
423.64	2759.98
423.848	3024.17
424.056	2827.56
424.263	3222.82
424.471	3089.7
424.679	3228.96
424.887	3433.76
425.094	3368.23
425.302	3507.49
425.51	3552.54
425.718	3710.24
425.925	3683.61
426.133	3788.06
426.341	4117.78
426.548	4201.75
426.756	4392.21
426.964	4381.97
427.171	4482.32
427.379	4742.41
427.586	4783.37
427.794	4853
428.001	5053.7
428.209	5328.13
428.417	5295.36
428.624	5704.96
428.832	5442.82
429.039	5485.83
429.247	5577.98
429.454	6124.79
429.662	6575.35
429.869	5995.77
430.076	6489.33
430.284	6333.68
430.491	6515.95
430.699	6857.96
430.906	6999.27
431.114	7101.67
431.321	7257.32
431.528	7474.4
431.736	7834.85
431.943	8318.17
432.15	8076.51
432.358	8430.8
432.565	8621.27
432.772	8492.24
432.979	8860.88
433.187	9166.03
433.394	9153.74
433.601	9643.2
433.808	9753.79
434.016	9690.31
434.223	10122.43
434.43	10747.06
434.637	10587.32
434.844	11101.36
435.052	11469.99
435.259	11234.47
435.466	11263.15
435.673	11410.6
435.88	11984.03
436.087	12627.09
436.294	12512.41
436.501	12143.77
436.708	12811.41
436.915	12887.18
437.122	13352.07
437.329	13487.24
437.537	13939.84
437.743	14146.69
437.95	13929.6
438.157	14855.28
438.364	15142
438.571	15201.39
438.778	15418.47
438.985	16948.31
439.192	16030.82
439.399	16534.62
439.606	16258.14
439.813	17185.87
440.02	18105.41
440.227	17873.99
440.433	17648.71
440.64	18310.21
440.847	18183.23
441.054	18607.16
441.261	19602.47
441.467	19321.9
441.674	19807.27
441.881	20616.22
442.088	20728.86
442.294	20263.97
442.501	20917.27
442.708	21492.75
442.914	21818.38
443.121	22793.21
443.328	22158.34
443.534	23991.27
443.741	23294.96
443.948	23008.25
444.154	24644.57
444.361	24443.87
444.568	24550.37
444.774	24325.09
444.981	24648.67
445.187	25531.34
445.394	26782.65
445.6	26444.74
445.807	28961.69
446.013	27532.21
446.22	28593.06
446.426	29043.61
446.633	29412.24
446.839	30737.28
447.046	29477.78
447.252	30784.38
447.459	30653.31
447.665	30550.92
447.871	31974.25
448.078	33887.06
448.284	31681.39
448.491	32865.12
448.697	33815.38
448.903	34417.48
449.11	34915.14
449.316	33846.1
449.522	34800.45
449.728	35488.57
449.935	36117.29
450.141	35904.31
450.347	36291.37
450.553	35392.31
450.76	35717.94
450.966	37053.22
451.172	36793.12
451.378	37552.92
451.584	36662.05
451.791	37604.12
451.997	37335.84
452.203	37978.9
452.409	38058.77
452.615	38073.1
452.821	36401.96
453.027	36346.67
453.233	37997.33
453.44	36479.78
453.646	37124.89
453.852	36926.24
454.058	37554.97
454.264	36348.71
454.47	37407.51
454.676	36496.17
454.882	37770.01
455.088	34310.99
455.294	34708.29
455.5	35183.42
455.705	35621.69
455.911	34349.9
456.117	33672.02
456.323	33059.68
456.529	31531.89
456.735	32832.35
456.941	31798.13
457.147	31253.37
457.352	30614.4
457.558	29914
457.764	30108.55
457.97	29516.69
458.176	28859.29
458.381	29000.6
458.587	27405.24
458.793	27456.43
458.999	26104.77
459.204	28087.21
459.41	27114.42
459.616	25109.46
459.821	25238.48
460.027	25068.5
460.233	24710.11
460.438	23606.25
460.644	23712.75
460.85	22395.9
461.055	22567.93
461.261	22301.7
461.466	20417.57
461.672	19952.68
461.878	21380.11
462.083	19786.79
462.289	19579.95
462.494	19246.13
462.7	18670.65
462.905	18144.32
463.111	18668.6
463.316	18768.95
463.522	18043.97
463.727	18009.15
463.932	18129.98
464.138	18113.6
464.343	18117.7
464.549	17697.86
464.754	18195.52
464.959	17976.39
465.165	17753.16
465.37	17255.5
465.575	16850
465.781	17038.42
465.986	17341.52
466.191	16702.55
466.397	16319.58
466.602	15457.39
466.807	16057.44
467.012	16153.69
467.218	16014.43
467.423	15789.16
467.628	15809.64
467.833	16536.66
468.038	15965.28
468.244	15191.15
468.449	15875.17
468.654	15441
468.859	15098.99
469.064	15221.87
469.269	14759.03
469.474	14752.88
469.679	15053.94
469.885	14754.93
470.09	14683.25
470.295	14638.2
470.5	14271.61
470.705	14543.99
470.91	14206.08
471.115	13892.74
471.32	14064.77
471.525	14058.62
471.73	14027.9
471.935	13907.07
472.139	13044.88
472.344	13282.44
472.549	13587.59
472.754	13069.45
472.959	12657.81
473.164	12582.04
473.369	12164.25
473.574	12788.88
473.778	12539.03
473.983	12614.8
474.188	12629.14
474.393	11992.22
474.598	12010.65
474.802	11779.23
475.007	11783.33
475.212	11725.99
475.417	11396.26
475.621	11492.52
475.826	11195.56
476.031	11123.88
476.235	11158.7
476.44	11062.44
476.645	10878.13
476.849	11015.34
477.054	10894.51
477.259	10800.3
477.463	10611.89
477.668	10435.77
477.872	10468.53
478.077	10140.86
478.282	10116.28
478.486	10144.95
478.691	10030.27
478.895	9858.24
479.1	9680.07
479.304	10054.84
479.509	9557.19
479.713	10034.36
479.918	9700.55
480.122	9436.36
480.326	9546.95
480.531	9575.62
480.735	9270.47
480.94	9465.03
481.144	9526.47
481.348	9229.51
481.553	9534.66
481.757	9034.96
481.961	9182.41
482.166	9333.96
482.37	9299.14
482.574	9241.8
482.778	8981.71
482.983	9317.58
483.187	9080.01
483.391	9215.18
483.595	9213.13
483.8	9043.15
484.004	9116.87
484.208	9016.52
484.412	9174.22
484.616	9059.53
484.821	8987.85
485.025	8715.47
485.229	9100.49
485.433	9002.19
485.637	9039.05
485.841	8879.31
486.045	8910.03
486.249	9106.63
486.453	8975.56
486.657	9061.58
486.861	8961.23
487.065	8893.65
487.269	8967.37
487.473	8772.82
487.677	9049.29
487.881	9204.94
488.085	8994
488.289	9055.44
488.493	8936.65
488.697	9082.06
488.901	8883.41
489.105	9043.15
489.309	8903.89
489.512	9407.69
489.716	9002.19
489.92	8936.65
490.124	9051.34
490.328	9125.07
490.531	9053.39
490.735	9063.63
490.939	9080.01
491.143	9120.97
491.346	9127.11
491.55	9381.06
491.754	9022.67
491.958	9192.65
492.161	9209.03
492.365	9315.53
492.569	9297.1
492.772	9354.44
492.976	9379.01
493.18	9362.63
493.383	9551.04
493.587	9374.92
493.79	9485.51
493.994	9405.64
494.197	9612.48
494.401	9772.22
494.605	9680.07
494.808	10030.27
495.012	9819.33
495.215	9817.28
495.419	9913.53
495.622	10134.71
495.825	9952.45
496.029	10337.46
496.232	10269.88
496.436	9911.49
496.639	10482.87
496.843	10292.41
497.046	10591.41
497.249	10589.36
497.453	10742.96
497.656	10794.16
497.859	10820.78
498.063	11060.4
498.266	11410.6
498.469	11158.7
498.673	11242.67
498.876	11472.04
499.079	11558.05
499.282	11457.7
499.485	11828.38
499.689	11553.96
499.892	11668.64
500.095	11797.67
500.298	12291.23
500.501	12020.89
500.705	12283.03
500.908	12373.14
501.111	12471.45
501.314	12719.25
501.517	12659.86
501.72	13026.45
501.923	12620.95
502.126	13110.41
502.329	13472.9
502.532	13509.77
502.735	13413.51
502.938	13886.59
503.141	13679.75
503.344	14097.53
503.547	14107.77
503.75	14150.78
503.953	14560.38
504.156	14500.98
504.359	14787.7
504.562	14455.93
504.765	15453.29
504.968	15254.64
505.17	15322.22
505.373	15256.68
505.576	15713.38
505.779	15905.89
505.982	15752.29
506.185	16088.16
506.387	16030.82
506.59	16202.85
506.793	16565.34
506.996	16297.05
507.198	16700.5
507.401	16807
507.604	17187.92
507.807	17507.4
508.009	17476.68
508.212	17681.48
508.415	17839.17
508.617	18199.62
508.82	18158.66
509.022	18050.11
509.225	18504.76
509.428	18623.55
509.63	18809.91
509.833	19104.82
510.035	19477.55
510.238	19250.22
510.44	19475.5
510.643	19897.38
510.845	20335.65
511.048	19616.81
511.25	20274.21
511.453	20466.72
511.655	21027.86
511.858	20534.3
512.06	21054.48
512.262	21290
512.465	21027.86
512.667	21662.73
512.87	21838.86
513.072	21765.13
513.274	22424.58
513.477	22535.17
513.679	22768.63
513.881	22838.26
514.084	22969.33
514.286	23002.1
514.488	23165.94
514.69	23647.21
514.893	23966.7
515.095	23870.44
515.297	24296.42
515.499	24280.03
515.701	24923.1
515.904	24634.33
516.106	24740.83
516.308	25078.74
516.51	25463.76
516.712	25375.7
516.914	25740.24
517.116	25930.7
517.318	25940.94
517.52	25955.27
517.722	26584
517.925	26452.93
518.127	26833.85
518.329	27014.07
518.531	27038.65
518.733	27919.28
518.935	27722.67
519.136	27851.69
519.338	28330.92
519.54	27995.05
519.742	28576.67
519.944	28468.13
520.146	28912.54
520.348	28916.64
520.55	28951.45
520.752	28998.55
520.954	29805.45
521.155	28990.36
521.357	29907.85
521.559	29948.81
521.761	30534.53
521.963	30378.89
522.164	30421.89
522.366	30475.14
522.568	30598.02
522.77	30989.18
522.971	31329.14
523.173	30948.22
523.375	31302.52
523.576	31085.44
523.778	31157.11
523.98	31662.96
524.181	31900.53
524.383	31556.47
524.584	32066.41
524.786	31497.08
524.988	31863.66
525.189	32211.82
525.391	32320.36
525.592	32070.51
525.794	32160.62
525.995	32688.99
526.197	32439.14
526.398	32502.63
526.6	32248.68
526.801	32463.72
527.003	32527.2
527.204	32512.87
527.406	32873.31
527.607	32502.63
527.808	33266.52
528.01	32433
528.211	32842.59
528.412	33477.46
528.614	32936.8
528.815	33084.25
529.016	33223.51
529.218	33033.05
529.419	33078.11
529.62	32844.64
529.822	32596.84
530.023	32922.46
530.224	32936.8
530.425	32844.64
530.626	32648.04
530.828	32678.75
531.029	33182.56
531.23	32195.43
531.431	32637.8
531.632	33348.44
531.833	32850.78
532.035	32611.17
532.236	32420.71
532.437	32854.88
532.638	32617.32
532.839	32846.69
533.04	32936.8
533.241	32215.91
533.442	32824.16
533.643	32856.93
533.844	32451.43
534.045	32834.4
534.246	31949.68
534.447	32488.29
534.648	32883.55
534.849	32490.34
535.05	32418.66
535.251	32041.84
535.451	32088.94
535.652	32258.92
535.853	32414.57
536.054	32383.85
536.255	32179.05
536.456	31787.89
536.657	32435.05
536.857	31802.22
537.058	32076.65
537.259	32027.5
537.46	32072.56
537.66	31832.94
537.861	31986.54
538.062	31689.59
538.263	31511.41
538.463	31812.46
538.664	31603.57
538.865	31619.95
539.065	31726.45
539.266	31179.64
539.466	31753.07
539.667	31372.15
539.868	31642.48
540.068	31279.99
540.269	31574.9
540.469	31679.35
540.67	31222.65
540.87	31271.8
541.071	31638.39
541.271	31249.27
541.472	31439.73
541.672	31122.3
541.873	31028.09
542.073	30993.28
542.274	31413.11
542.474	31243.13
542.675	30983.04
542.875	31105.91
543.075	30999.42
543.276	30724.99
543.476	31249.27
543.676	31212.41
543.877	31001.47
544.077	31261.56
544.277	30612.35
544.478	30862.21
544.678	31148.92
544.878	30915.45
545.078	30952.32
545.279	30641.03
545.479	30690.18
545.679	31001.47
545.879	30712.7
546.079	30514.05
546.28	30991.23
546.48	30829.44
546.68	30804.86
546.88	30919.55
547.08	30892.93
547.28	30704.51
547.48	30505.86
547.68	30585.73
547.88	30262.15
548.081	30784.38
548.281	30724.99
548.481	30788.48
548.681	30759.81
548.881	31019.9
549.081	31077.24
549.28	30673.79
549.48	31019.9
549.68	30835.58
549.88	31064.96
550.08	30499.72
550.28	30530.44
550.48	30561.15
550.68	30913.41
550.88	30473.09
551.08	30600.07
551.279	31099.77
551.479	30755.71
551.679	30876.54
551.879	30839.68
552.079	30866.3
552.278	30872.45
552.478	30780.29
552.678	30761.86
552.878	31230.84
553.077	31157.11
553.277	30620.55
553.477	31079.29
553.676	30880.64
553.876	31116.15
554.076	31009.66
554.275	30786.43
554.475	30714.75
554.674	31187.83
554.874	31003.52
555.074	31085.44
555.273	30985.08
555.473	31140.73
555.672	30823.29
555.872	30970.75
556.071	31200.12
556.271	31320.95
556.47	31206.27
556.67	30972.8
556.869	31159.16
557.068	30888.83
557.268	30923.65
557.467	31357.81
557.667	31056.76
557.866	31042.43
558.065	30989.18
558.265	30774.14
558.464	30774.14
558.663	31474.55
558.863	30976.89
559.062	31099.77
559.261	31118.2
559.461	31400.82
559.66	31079.29
559.859	31343.48
560.058	30905.21
560.258	30983.04
560.457	30368.65
560.656	31214.46
560.855	31021.95
561.054	31261.56
561.253	30882.69
561.453	31097.72
561.652	30921.6
561.851	31019.9
562.05	31255.42
562.249	30962.56
562.448	31204.22
562.647	31216.51
562.846	30966.65
563.045	31058.81
563.244	30798.72
563.443	31126.39
563.642	30430.08
563.841	30847.87
564.04	30792.58
564.239	31044.48
564.438	31036.28
564.637	30921.6
564.836	30942.08
565.035	30219.14
565.234	30686.08
565.432	30765.95
565.631	30507.91
565.83	30897.02
566.029	30612.35
566.228	30253.96
566.427	30256.01
566.625	30049.16
566.824	30110.6
567.023	30626.69
567.222	29711.25
567.42	30346.12
567.619	29957
567.818	30178.18
568.016	29983.63
568.215	30075.79
568.414	29832.08
568.612	30436.23
568.811	29799.31
569.01	29930.38
569.208	29725.58
569.407	30075.79
569.605	29463.44
569.804	29883.28
570.002	29074.33
570.201	29776.78
570.4	29334.42
570.598	29201.3
570.797	28908.44
570.995	29461.4
571.193	28881.82
571.392	29248.41
571.59	28447.65
571.789	28937.12
571.987	28812.19
572.186	28961.69
572.384	28748.7
572.582	29047.71
572.781	28769.18
572.979	28183.46
573.177	28748.7
573.376	28801.95
573.574	28427.17
573.772	28349.35
573.971	28193.7
574.169	27972.52
574.367	27896.75
574.565	28169.13
574.763	27632.56
574.962	27986.86
575.16	27689.9
575.358	27773.87
575.556	27333.56
575.754	27505.59
575.952	27456.43
576.151	27499.44
576.349	27417.52
576.547	26872.76
576.745	27288.5
576.943	27313.08
577.141	27153.33
577.339	27237.3
577.537	26991.55
577.735	26964.92
577.933	26446.79
578.131	26969.02
578.329	26493.89
578.527	26422.21
578.725	26620.86
578.923	26442.69
579.121	26409.92
579.319	26205.13
579.516	26272.71
579.714	26137.54
579.912	26139.59
580.11	26303.43
580.308	26344.39
580.506	26014.66
580.704	25525.2
580.901	25582.54
581.099	25961.42
581.297	25553.87
581.495	25551.82
581.692	25754.57
581.89	25267.16
582.088	25635.79
582.285	25412.56
582.483	25531.34
582.681	25447.38
582.878	25156.57
583.076	25076.69
583.274	25117.65
583.471	24599.52
583.669	25095.13
583.866	24730.59
584.064	24822.75
584.262	24533.98
584.459	24486.88
584.657	24894.43
584.854	25045.98
585.052	24038.37
585.249	24656.86
585.447	24597.47
585.644	24101.86
585.841	24392.67
586.039	24511.46
586.236	23827.43
586.434	24136.68
586.631	24105.96
586.828	23925.74
587.026	24019.94
587.223	23897.06
587.42	23739.37
587.618	23880.68
587.815	23765.99
588.012	23575.53
588.21	23765.99
588.407	24157.16
588.604	23362.54
588.801	23362.54
588.999	23778.28
589.196	23739.37
589.393	23477.23
589.59	23454.7
589.787	23211
589.984	23208.95
590.182	22998.01
590.379	23110.64
590.576	23219.19
590.773	23112.69
590.97	23036.92
591.167	23014.39
591.364	22477.82
591.561	22948.86
591.758	22561.79
591.955	22791.16
592.152	22764.54
592.349	22602.75
592.546	22555.65
592.743	22481.92
592.94	22211.59
593.137	22739.96
593.334	22475.77
593.531	22416.38
593.727	22520.83
593.924	22514.69
594.121	22553.6
594.318	22318.08
594.515	22299.65
594.712	22486.01
594.908	22369.28
595.105	22379.52
595.302	22096.9
595.499	22047.75
595.696	22166.53
595.892	21931.01
596.089	22172.67
596.286	22320.13
596.482	21941.25
596.679	22096.9
596.876	21910.53
597.072	21863.43
597.269	22068.23
597.466	21867.53
597.662	21834.76
597.859	21502.99
598.055	21933.06
598.252	22019.08
598.448	22101
598.645	21742.6
598.841	21357.58
599.038	21904.39
599.234	22137.86
599.431	21634.06
599.627	21564.43
599.824	22121.48
600.02	21619.72
600.217	21861.38
600.413	21791.75
600.609	21935.11
600.806	21658.63
601.002	21679.11
601.198	21718.03
601.395	21617.68
601.591	21984.26
601.787	21885.96
601.984	21814.28
602.18	22043.65
602.376	21658.63
602.572	21744.65
602.769	22154.24
602.965	21644.3
603.161	21947.4
603.357	21965.83
603.553	21707.79
603.75	21937.16
603.946	21605.39
604.142	22096.9
604.338	21738.51
604.534	21935.11
604.73	21902.34
604.926	21873.67
605.122	22230.02
605.318	21957.64
605.514	21728.27
605.71	21955.59
605.906	22068.23
606.102	22027.27
606.298	22113.28
606.494	22201.35
606.69	22256.64
606.886	22205.44
607.082	22025.22
607.278	22311.94
607.474	22111.24
607.67	22148.1
607.866	21873.67
608.062	22569.98
608.257	22125.57
608.453	22424.58
608.649	22334.46
608.845	22475.77
609.041	22434.81
609.236	22408.19
609.432	22328.32
609.628	22379.52
609.824	22739.96
610.019	22361.09
610.215	22729.72
610.411	22692.86
610.606	22723.58
610.802	22586.36
610.998	22842.36
611.193	22711.29
611.389	22502.4
611.584	22451.2
611.78	22774.78
611.976	22643.71
612.171	22817.79
612.367	22832.12
612.562	23151.6
612.758	22508.54
612.953	22772.73
613.149	23018.49
613.344	22821.88
613.539	23141.36
613.735	23256.05
613.93	22942.71
614.126	22952.95
614.321	22918.14
614.517	23098.36
614.712	22860.79
614.907	23100.4
615.103	23143.41
615.298	22936.57
615.493	23192.56
615.688	22844.41
615.884	23321.59
616.079	22516.73
616.274	22877.18
616.47	22694.91
616.665	22991.86
616.86	23206.9
617.055	22922.23
617.25	22762.49
617.445	22905.85
617.641	22545.41
617.836	22817.79
618.031	22797.31
618.226	23180.28
618.421	22610.94
618.616	23133.17
618.811	22815.74
619.006	22930.42
619.201	22334.46
619.396	22443.01
619.591	22524.93
619.786	22426.62
619.981	22559.74
620.176	22457.34
620.371	22111.24
620.566	22348.8
620.761	22283.27
620.956	21896.2
621.151	21715.98
621.346	22084.61
621.541	21644.3
621.735	22029.32
621.93	21804.04
622.125	21867.53
622.32	21345.3
622.515	21267.47
622.709	21621.77
622.904	21525.52
623.099	21115.92
623.294	21089.3
623.488	21013.52
623.683	21183.51
623.878	20929.56
624.072	20812.82
624.267	20757.53
624.462	20835.35
624.656	20648.99
624.851	20331.55
625.046	20386.85
625.24	20206.62
625.435	20079.65
625.629	20085.79
625.824	20167.71
626.018	20061.22
626.213	19532.84
626.407	19897.38
626.602	19653.67
626.796	19772.46
626.991	19399.73
627.185	19190.83
627.38	19287.09
627.574	19299.37
627.768	19043.38
627.963	18834.49
628.157	18932.79
628.352	18850.87
628.546	18750.52
628.74	18777.14
628.935	18598.97
629.129	18947.12
629.323	18357.31
629.517	18279.49
629.712	18674.74
629.906	18158.66
630.1	17962.05
630.294	18324.54
630.489	18005.06
630.683	18031.68
630.877	17706.06
631.071	17493.07
631.265	17609.8
631.459	17570.89
631.653	17501.26
631.848	17448.01
632.042	17085.52
632.236	17343.56
632.43	17325.13
632.624	16999.51
632.818	17116.24
633.012	16811.09
633.206	16739.41
633.4	16899.16
633.594	16419.93
633.788	16520.28
633.982	16237.66
634.176	16368.73
634.369	16544.86
634.563	16225.37
634.757	16075.87
634.951	16061.54
635.145	16145.5
635.339	16041.06
635.533	15869.03
635.726	15760.48
635.92	15795.3
636.114	15643.75
636.308	15498.34
636.501	15617.13
636.695	15406.19
636.889	14994.54
637.083	15088.75
637.276	14869.62
637.47	15068.27
637.664	14892.15
637.857	14840.95
638.051	14681.21
638.244	14597.24
638.438	14449.78
638.632	14505.08
638.825	14468.22
639.019	14101.63
639.212	14036.1
639.406	14359.67
639.599	14130.3
639.793	13890.69
639.986	13685.89
640.18	13714.56
640.373	13745.28
640.567	13409.42
640.76	13450.38
640.954	13466.76
641.147	13464.71
641.34	13221
641.534	13171.85
641.727	13294.73
641.92	12999.82
642.114	13073.55
642.307	12944.53
642.5	13036.69
642.694	12641.43
642.887	12623
643.08	12754.07
643.273	12469.4
643.467	12690.58
643.66	12340.38
643.853	12354.71
644.046	12166.3
644.239	12426.39
644.432	12217.5
644.626	11959.45
644.819	11764.9
645.012	12022.94
645.205	11904.16
645.398	11883.68
645.591	11562.15
645.784	11666.6
645.977	11652.26
646.17	11558.05
646.363	11398.31
646.556	11207.85
646.749	11449.51
646.942	11150.51
647.135	11091.12
647.328	11084.97
647.521	10984.62
647.714	10781.87
647.907	11033.77
648.099	10882.22
648.292	10828.98
648.485	10656.95
648.678	10663.09
648.871	10601.65
649.064	10515.64
649.256	10446.01
649.449	10583.22
649.642	10357.94
649.835	10441.91
650.027	10235.07
650.22	10190.01
650.413	10194.11
650.605	10124.47
650.798	9929.92
650.991	10110.14
651.183	9850.05
651.376	9714.88
651.568	9778.37
651.761	9671.87
651.954	9749.7
652.146	9600.19
652.339	9661.63
652.531	9692.35
652.724	9446.6
652.916	9196.74
653.109	9235.66
653.301	9219.27
653.494	9442.5
653.686	9080.01
653.879	9053.39
654.071	9118.92
654.263	9039.05
654.456	9063.63
654.648	9166.03
654.84	8961.23
655.033	8895.69
655.225	8797.39
655.417	8713.42
655.61	8840.4
655.802	8824.01
655.994	8705.23
656.186	8664.27
656.379	8506.58
656.571	8357.08
656.763	8473.81
656.955	8492.24
657.148	8621.27
657.34	8314.07
657.532	8176.86
657.724	8213.72
657.916	8215.77
658.108	8223.96
658.3	8170.71
658.492	8137.95
658.684	7853.28
658.876	7857.37
659.068	8076.51
659.26	7867.61
659.452	7752.93
659.644	7980.25
659.836	7679.2
660.028	7685.34
660.22	7869.66
660.412	7724.26
660.604	7505.12
660.796	7630.05
660.988	7630.05
661.18	7576.8
661.372	7349.48
661.563	7253.22
661.755	7306.47
661.947	7347.43
662.139	7126.25
662.331	7331.05
662.522	7218.41
662.714	7060.71
662.906	7118.06
663.097	6980.84
663.289	7077.1
663.481	6843.63
663.673	7038.19
663.864	6849.77
664.056	6913.26
664.247	7148.78
664.439	6757.61
664.631	6874.35
664.822	6757.61
665.014	6749.42
665.205	6694.13
665.397	6544.63
665.588	6716.65
665.78	6561.01
665.971	6636.78
666.163	6477.04
666.354	6612.21
666.546	6282.49
666.737	6470.9
666.929	6339.83
667.12	6350.07
667.311	6272.25
667.503	6257.91
667.694	6151.42
667.885	6245.62
668.077	6139.13
668.268	6061.3
668.459	6184.18
668.651	5942.52
668.842	6118.65
669.033	5836.03
669.224	5995.77
669.416	5963
669.607	5909.76
669.798	5909.76
669.989	6075.64
670.18	5973.24
670.371	5760.25
670.563	5895.42
670.754	5924.09
670.945	5715.2
671.136	5795.07
671.327	5784.83
671.518	5784.83
671.709	5750.01
671.9	5733.63
672.091	5653.76
672.282	5676.29
672.473	5620.99
672.664	5573.89
672.855	5524.74
673.046	5692.67
673.237	5645.57
673.428	5637.38
673.619	5469.44
673.809	5551.36
674	5541.12
674.191	5293.32
674.382	5307.65
674.573	5414.15
674.764	5319.94
674.954	5309.7
675.145	5428.48
675.336	5305.6
675.527	5299.46
675.717	5274.88
675.908	5086.47
676.099	5350.66
676.289	5350.66
676.48	5209.35
676.671	5283.08
676.861	5328.13
677.052	5238.02
677.243	5256.45
677.433	5211.4
677.624	5381.38
677.814	5203.21
678.005	5248.26
678.195	5006.6
678.386	4926.73
678.576	5270.79
678.767	5129.48
678.957	5045.51
679.148	5217.54
679.338	5205.25
679.529	5141.77
679.719	5121.29
679.909	5072.14
680.1	5092.62
680.29	5072.14
680.481	5057.8
680.671	5063.94
680.861	5106.95
681.052	5080.33
681.242	5037.32
681.432	5131.53
681.622	4953.35
681.813	4971.79
682.003	5053.7
682.193	4951.31
682.383	5012.74
682.573	4881.67
682.764	4893.96
682.954	4941.07
683.144	5078.28
683.334	5072.14
683.524	4920.59
683.714	4859.15
683.904	5127.43
684.094	5078.28
684.284	4918.54
684.474	4979.98
684.664	5016.84
684.854	4896.01
685.044	4867.34
685.234	4769.04
685.424	4826.38
685.614	4873.48
685.804	4908.3
685.994	4949.26
686.184	4793.61
686.374	4766.99
686.564	4779.28
686.753	4766.99
686.943	4803.85
687.133	4728.08
687.323	4701.45
687.513	4726.03
687.702	4914.44
687.892	4556.05
688.082	4693.26
688.272	4693.26
688.461	4709.65
688.651	4728.08
688.841	4760.84
689.03	4562.19
689.22	4578.58
689.41	4590.86
689.599	4556.05
689.789	4635.92
689.979	4537.62
690.168	4506.9
690.358	4515.09
690.547	4562.19
690.737	4517.14
690.926	4439.31
691.116	4349.2
691.305	4558.1
691.495	4461.84
691.684	4334.87
691.874	4545.81
692.063	4302.1
692.252	4406.55
692.442	4443.41
692.631	4298
692.82	4392.21
693.01	4164.89
693.199	4345.11
693.388	4310.29
693.578	4234.52
693.767	4384.02
693.956	4259.09
694.146	4234.52
694.335	4179.22
694.524	4183.32
694.713	4341.01
694.902	4275.48
695.092	4234.52
695.281	4230.42
695.47	4347.16
695.659	3972.38
695.848	4304.15
696.037	4168.98
696.226	4244.76
696.415	4171.03
696.604	4138.26
696.793	4275.48
696.982	4105.49
697.171	4115.73
697.36	4136.21
697.549	4173.08
697.738	4095.25
697.927	4054.3
698.116	4164.89
698.305	4136.21
698.494	4058.39
698.683	4082.97
698.872	4056.34
699.061	3984.66
699.25	4013.34
699.438	3984.66
699.627	3966.23
699.816	4037.91
700.005	3927.32
700.193	3960.09
700.382	4097.3
700.571	3939.61
700.76	4039.96
700.948	4037.91
701.137	3874.07
701.326	3929.37
701.514	3876.12
701.703	3847.45
701.892	3865.88
702.08	3812.64
702.269	3859.74
702.457	3933.47
702.646	3900.7
702.834	3867.93
703.023	3783.96
703.212	3767.58
703.4	3816.73
703.589	3755.29
703.777	3816.73
703.965	3636.51
704.154	3874.07
704.342	3636.51
704.531	3702.04
704.719	3767.58
704.907	3820.83
705.096	3585.31
705.284	3671.33
705.472	3685.66
705.661	3560.74
705.849	3687.71
706.037	3661.09
706.226	3495.2
706.414	3548.45
706.602	3507.49
706.79	3763.48
706.979	3405.09
707.167	3581.21
707.355	3415.33
707.543	3484.96
707.731	3706.14
707.919	3597.6
708.107	3542.3
708.296	3472.67
708.484	3521.82
708.672	3411.23
708.86	3513.63
709.048	3374.37
709.236	3497.25
709.424	3538.21
709.612	3417.38
709.8	3444
709.988	3415.33
710.176	3464.48
710.364	3482.91
710.551	3480.86
710.739	3409.19
710.927	3366.18
711.115	3278.12
711.303	3351.84
711.491	3226.92
711.679	3194.15
711.866	3259.68
712.054	3390.75
712.242	3271.97
712.43	3370.27
712.617	3333.41
712.805	3284.26
712.993	3130.66
713.181	3179.81
713.368	3329.31
713.556	3145
713.744	3239.2
713.931	3145
714.119	3046.69
714.306	3157.29
714.494	3140.9
714.682	3140.9
714.869	3136.81
715.057	3194.15
715.244	3079.46
715.432	3106.09
715.619	3157.29
715.807	3032.36
715.994	3081.51
716.182	3013.93
716.369	3087.65
716.556	3112.23
716.744	3020.07
716.931	3063.08
717.119	3056.93
717.306	3046.69
717.493	3046.69
717.681	2893.1
717.868	3065.13
718.055	3056.93
718.242	3030.31
718.43	2876.71
718.617	3022.12
718.804	2940.2
718.991	2889
719.179	2858.28
719.366	2934.06
719.553	2917.67
719.74	2809.13
719.927	3007.78
720.114	2882.86
720.301	2921.77
720.488	2784.55
720.676	2798.89
720.863	2864.43
721.05	2901.29
721.237	2825.51
721.424	2856.23
721.611	2770.22
721.798	2784.55
721.985	2807.08
722.172	2809.13
722.358	2776.36
722.545	2800.94
722.732	2751.79
722.919	2805.03
723.106	2678.06
723.293	2678.06
723.48	2676.01
723.667	2606.38
723.853	2696.49
724.04	2690.35
724.227	2665.77
724.414	2727.21
724.6	2702.64
724.787	2809.13
724.974	2639.15
725.161	2608.43
725.347	2690.35
725.534	2637.1
725.72	2622.77
725.907	2751.79
726.094	2682.16
726.28	2686.25
726.467	2442.54
726.653	2559.28
726.84	2651.44
727.027	2661.68
727.213	2467.12
727.4	2635.05
727.586	2540.85
727.773	2649.39
727.959	2579.76
728.145	2506.03
728.332	2485.55
728.518	2565.42
728.705	2530.61
728.891	2522.41
729.077	2524.46
729.264	2503.98
729.45	2663.72
729.636	2444.59
729.823	2450.74
730.009	2411.82
730.195	2489.65
730.382	2440.5
730.568	2354.48
730.754	2424.11
730.94	2358.58
731.126	2467.12
731.313	2483.5
731.499	2387.25
731.685	2489.65
731.871	2366.77
732.057	2370.87
732.243	2544.94
732.429	2368.82
732.615	2424.11
732.801	2379.06
732.987	2409.78
733.173	2321.71
733.359	2329.91
733.545	2463.02
733.731	2342.19
733.917	2383.15
734.103	2276.66
734.289	2319.67
734.475	2260.27
734.661	2342.19
734.847	2391.34
735.033	2325.81
735.219	2360.63
735.404	2336.05
735.59	2252.08
735.776	2194.74
735.962	2227.51
736.148	2227.51
736.333	2207.03
736.519	2313.52
736.705	2260.27
736.89	2243.89
737.076	2182.45
737.262	2178.36
737.447	2174.26
737.633	2174.26
737.819	2227.51
738.004	2182.45
738.19	2129.2
738.375	2161.97
738.561	2325.81
738.747	2217.27
738.932	2159.92
739.118	2254.13
739.303	2155.83
739.489	2121.01
739.674	2112.82
739.859	2088.25
740.045	2057.53
740.23	2096.44
740.416	2067.77
740.601	2006.33
740.786	2059.57
740.972	1953.08
741.157	1987.9
741.342	2147.64
741.528	2071.86
741.713	2030.9
741.898	2016.57
742.084	2055.48
742.269	1916.22
742.454	2039.09
742.639	2051.38
742.824	1897.78
743.01	2057.53
743.195	1957.18
743.38	2000.18
743.565	1897.78
743.75	1987.9
743.935	1858.87
744.12	1934.65
744.305	1885.5
744.49	1867.06
744.675	1883.45
744.86	1854.78
745.045	1746.23
745.23	1793.34
745.415	1809.72
745.6	1854.78
745.785	1768.76
745.97	1883.45
746.155	1746.23
746.34	1826.11
746.525	1744.19
746.71	1846.59
746.895	1662.27
747.079	1770.81
747.264	1750.33
747.449	1738.04
747.634	1772.86
747.819	1729.85
748.003	1699.13
748.188	1596.73
748.373	1723.71
748.557	1670.46
748.742	1613.12
748.927	1578.3
749.111	1670.46
749.296	1475.9
749.481	1625.4
749.665	1563.97
749.85	1574.21
750.034	1606.97
750.219	1637.69
750.404	1604.92
750.588	1582.4
750.773	1625.4
750.957	1514.81
751.141	1516.86
751.326	1588.54
751.51	1490.24
751.695	1441.09
751.879	1420.61
752.064	1375.55
752.248	1424.7
752.432	1459.52
752.617	1498.43
752.801	1471.81
752.985	1465.66
753.17	1482.05
753.354	1344.83
753.538	1402.18
753.722	1467.71
753.907	1350.98
754.091	1367.36
754.275	1183.04
754.459	1414.46
754.643	1224
754.828	1434.94
755.012	1332.55
755.196	1269.06
755.38	1240.39
755.564	1314.11
755.748	1252.67
755.932	1318.21
756.116	1277.25
756.3	1256.77
756.484	1303.87
756.668	1221.95
756.852	1252.67
757.036	1242.43
757.22	1203.52
757.404	1183.04
757.588	1246.53
757.772	1203.52
757.956	1228.1
758.14	1217.86
758.323	1051.97
758.507	1140.04
758.691	1097.03
758.875	1117.51
759.059	1133.89
759.242	1125.7
759.426	1148.23
759.61	1068.36
759.794	1123.65
759.977	994.63
760.161	1238.34
760.345	1121.6
760.528	1043.78
760.712	1099.08
760.895	1097.03
761.079	1109.32
761.263	972.1
761.446	1107.27
761.63	1129.8
761.813	1064.26
761.997	998.73
762.18	1015.11
762.364	1056.07
762.547	1062.21
762.731	1002.82
762.914	1015.11
763.098	1031.49
763.281	974.15
763.464	1047.88
763.648	1054.02
763.831	920.9
764.015	974.15
764.198	970.05
764.381	984.39
764.564	1015.11
764.748	970.05
764.931	902.47
765.114	935.24
765.297	922.95
765.481	875.85
765.664	994.63
765.847	916.81
766.03	875.85
766.213	1015.11
766.397	937.29
766.58	941.38
766.763	1127.75
766.946	861.51
767.129	968.01
767.312	892.23
767.495	937.29
767.678	912.71
767.861	918.86
768.044	881.99
768.227	920.9
768.41	925
768.593	920.9
768.776	916.81
768.959	933.19
769.142	875.85
769.324	845.13
769.507	853.32
769.69	884.04
769.873	773.45
770.056	953.67
770.239	830.79
770.421	822.6
770.604	900.42
770.787	875.85
770.97	795.98
771.152	908.62
771.335	814.41
771.518	789.83
771.7	824.65
771.883	820.55
772.066	740.68
772.248	771.4
772.431	861.51
772.613	810.31
772.796	701.77
772.978	869.7
773.161	779.59
773.343	752.97
773.526	761.16
773.708	816.46
773.891	816.46
774.073	832.84
774.256	685.39
774.438	802.12
774.621	781.64
774.803	734.54
774.985	712.01
775.168	781.64
775.35	693.58
775.532	744.78
775.715	671.05
775.897	693.58
776.079	603.47
776.261	777.55
776.444	679.24
776.626	720.2
776.808	671.05
776.99	709.96
777.173	642.38
777.355	609.61
777.537	736.59
777.719	693.58
777.901	640.33
778.083	669
778.265	548.17
778.447	699.72
778.629	496.97
778.811	615.76
778.993	654.67
779.175	632.14
779.357	564.56
779.539	554.32
779.721	613.71
779.903	644.43
780.085	609.61
780.267	636.24
780.449	597.32
780.631	613.71
780.812	589.13
780.994	580.94
781.176	529.74
781.358	605.52
781.54	523.6
781.721	654.67
781.903	521.55
782.085	568.65
782.267	554.32
782.448	519.5
782.63	546.13
782.812	558.41
782.993	519.5
783.175	607.56
783.357	572.75
783.538	515.41
783.72	548.17
783.901	496.97
784.083	507.21
784.264	527.69
784.446	478.54
784.627	460.11
784.809	466.25
784.99	429.39
785.172	558.41
785.353	482.64
785.535	417.1
785.716	490.83
785.897	429.39
786.079	451.92
786.26	527.69
786.441	482.64
786.623	490.83
786.804	376.14
786.985	400.72
787.167	492.88
787.348	384.34
787.529	482.64
787.71	427.34
787.891	361.81
788.073	408.91
788.254	310.61
788.435	490.83
788.616	392.53
788.797	359.76
788.978	449.87
789.159	349.52
789.34	302.42
789.522	359.76
789.703	400.72
789.884	353.62
790.065	453.97
790.246	413.01
790.427	343.38
790.607	427.34
790.788	376.14
790.969	310.61
791.15	396.62
791.331	394.58
791.512	335.18
791.693	400.72
791.874	310.61
792.054	359.76
792.235	339.28
792.416	310.61
792.597	351.57
792.778	310.61
792.958	335.18
793.139	388.43
793.32	359.76
793.5	304.46
793.681	324.94
793.862	279.89
794.042	306.51
794.223	279.89
794.404	312.66
794.584	257.36
794.765	384.34
794.945	318.8
795.126	331.09
795.306	331.09
795.487	302.42
795.667	288.08
795.848	349.52
796.028	335.18
796.209	365.9
796.389	320.85
796.57	298.32
796.75	296.27
796.93	306.51
797.111	286.03
797.291	292.18
797.471	378.19
797.652	286.03
797.832	314.7
798.012	294.22
798.192	253.27
798.373	257.36
798.553	296.27
798.733	271.7
798.913	275.79
799.093	286.03
799.274	294.22
799.454	214.35
799.634	300.37
799.814	269.65
799.994	275.79
800.174	388.43
800.354	222.55
800.534	208.21
800.714	267.6
800.894	253.27
801.074	169.3
801.254	253.27
801.434	286.03
801.614	261.46
801.794	181.59
801.974	900.42
802.154	222.55
802.334	216.4
802.514	238.93
802.693	271.7
802.873	245.07
803.053	257.36
803.233	197.97
803.413	230.74
803.592	249.17
803.772	245.07
803.952	253.27
804.131	179.54
804.311	296.27
804.491	302.42
804.67	261.46
804.85	238.93
805.03	208.21
805.209	286.03
805.389	195.92
805.568	249.17
805.748	157.01
805.928	263.51
806.107	202.07
806.287	222.55
806.466	224.59
806.646	220.5
806.825	171.35
807.004	224.59
807.184	230.74
807.363	245.07
807.543	144.72
807.722	222.55
807.901	202.07
808.081	214.35
808.26	114
808.439	220.5
808.619	173.39
808.798	177.49
808.977	161.11
809.156	294.22
809.336	173.39
809.515	267.6
809.694	142.68
809.873	187.73
810.052	281.94
810.231	228.69
810.411	247.12
810.59	253.27
810.769	183.63
810.948	218.45
811.127	130.39
811.306	249.17
811.485	185.68
811.664	228.69
811.843	165.2
812.022	191.83
812.201	73.04
812.38	187.73
812.559	114
812.737	234.83
812.916	109.91
813.095	202.07
813.274	208.21
813.453	163.15
813.632	154.96
813.811	200.02
813.989	50.52
814.168	197.97
814.347	159.06
814.526	210.26
814.704	222.55
814.883	195.92
815.062	171.35
815.24	187.73
815.419	36.18
815.598	216.4
815.776	212.31
815.955	167.25
816.133	93.52
816.312	210.26
816.49	150.87
816.669	146.77
816.847	202.07
817.026	150.87
817.204	245.07
817.383	171.35
817.561	134.48
817.74	212.31
817.918	173.39
818.097	236.88
818.275	97.62
818.453	97.62
818.632	85.33
818.81	87.38
818.988	89.43
819.167	200.02
819.345	140.63
819.523	163.15
819.701	181.59
819.879	187.73
820.058	173.39
820.236	206.16
820.414	157.01
820.592	148.82
820.77	124.24
820.948	195.92
821.127	120.15
821.305	138.58
821.483	124.24
821.661	142.68
821.839	126.29
822.017	118.1
822.195	134.48
822.373	130.39
822.551	71
822.729	146.77
822.907	187.73
823.085	134.48
823.262	109.91
823.44	21.85
823.618	109.91
823.796	142.68
823.974	122.2
824.152	56.66
824.329	114
824.507	68.95
824.685	173.39
824.863	175.44
825.04	169.3
825.218	122.2
825.396	130.39
825.574	148.82
825.751	148.82
825.929	171.35
826.107	89.43
826.284	89.43
826.462	91.48
826.639	93.52
826.817	73.04
826.994	114
827.172	64.85
827.349	175.44
827.527	130.39
827.704	187.73
827.882	146.77
828.059	138.58
828.237	138.58
828.414	171.35
828.591	38.23
828.769	154.96
828.946	109.91
829.124	105.81
829.301	152.92
829.478	148.82
829.655	144.72
829.833	17.75
830.01	66.9
830.187	107.86
830.364	85.33
830.542	142.68
830.719	175.44
830.896	171.35
831.073	142.68
831.25	195.92
831.427	122.2
831.604	68.95
831.782	126.29
831.959	64.85
832.136	91.48
832.313	101.72
832.49	132.44
832.667	128.34
832.844	134.48
833.021	200.02
833.198	132.44
833.374	58.71
833.551	77.14
833.728	122.2
833.905	152.92
834.082	114
834.259	85.33
834.436	77.14
834.612	109.91
834.789	114
834.966	97.62
835.143	40.28
835.319	32.08
835.496	142.68
835.673	66.9
835.85	146.77
836.026	97.62
836.203	105.81
836.38	73.04
836.556	114
836.733	79.19
836.909	64.85
837.086	3.41
837.262	58.71
837.439	181.59
837.616	68.95
837.792	124.24
837.968	105.81
838.145	-0.68
838.321	56.66
838.498	32.08
838.674	99.67
838.851	66.9
839.027	75.09
839.203	7.51
839.38	89.43
839.556	48.47
839.732	126.29
839.909	97.62
840.085	130.39
840.261	130.39
840.437	138.58
840.614	3.41
840.79	122.2
840.966	66.9
841.142	93.52
841.318	32.08
841.494	93.52
841.671	56.66
841.847	77.14
842.023	97.62
842.199	11.61
842.375	64.85
842.551	9.56
842.727	97.62
842.903	60.76
843.079	124.24
843.255	114
843.431	48.47
843.607	48.47
843.783	46.42
843.959	58.71
844.134	68.95
844.31	68.95
844.486	-17.07
844.662	118.1
844.838	44.37
845.013	116.05
845.189	122.2
845.365	124.24
845.541	87.38
845.716	132.44
845.892	91.48
846.068	52.56
846.244	27.99
846.419	93.52
846.595	15.7
846.77	-15.02
846.946	124.24
847.122	40.28
847.297	132.44
847.473	138.58
847.648	34.13
847.824	128.34
847.999	99.67
848.175	159.06
848.35	64.85
848.526	140.63
848.701	44.37
848.876	138.58
849.052	130.39
849.227	89.43
849.403	64.85
849.578	73.04
849.753	11.61
849.929	50.52
850.104	-90.79
850.279	97.62
850.454	64.85
850.63	97.62
850.805	81.24
850.98	99.67
851.155	40.28
851.33	19.8
851.505	40.28
851.681	107.86
851.856	42.32
852.031	60.76
852.206	23.89
852.381	19.8
852.556	89.43
852.731	64.85
852.906	64.85
853.081	73.04
853.256	109.91
853.431	9.56
853.606	48.47
853.781	56.66
853.956	54.61
854.131	179.54
854.305	103.76
854.48	81.24
854.655	64.85
854.83	95.57
855.005	58.71
855.18	107.86
855.354	34.13
855.529	46.42
855.704	50.52
855.879	64.85
856.053	7.51
856.228	44.37
856.403	21.85
856.577	71
856.752	-74.41
856.926	83.28
857.101	56.66
857.276	1.37
857.45	23.89
857.625	157.01
857.799	25.94
857.974	79.19
858.148	-33.45
858.323	91.48
858.497	27.99
858.672	-10.92
858.846	-8.87
859.02	91.48
859.195	5.46
859.369	97.62
859.543	132.44
859.718	64.85
859.892	118.1
860.066	54.61
860.241	107.86
860.415	30.04
860.589	23.89
860.763	40.28
860.938	48.47
861.112	81.24
861.286	58.71
861.46	25.94
861.634	23.89
861.808	91.48
861.982	122.2
862.157	60.76
862.331	21.85
862.505	-33.45
862.679	-0.68
862.853	17.75
863.027	81.24
863.201	116.05
863.375	89.43
863.549	56.66
863.722	17.75
863.896	52.56
864.07	9.56
864.244	103.76
864.418	66.9
864.592	1.37
864.766	30.04
864.939	48.47
865.113	-2.73
865.287	27.99
865.461	40.28
865.634	9.56
865.808	34.13
865.982	9.56
866.156	-0.68
866.329	42.32
866.503	-37.55
866.676	75.09
866.85	75.09
867.024	-45.74
867.197	97.62
867.371	40.28
867.544	34.13
867.718	40.28
867.891	42.32
868.065	103.76
868.238	56.66
868.412	93.52
868.585	-45.74
868.759	3.41
868.932	40.28
869.105	-33.45
869.279	25.94
869.452	34.13
869.625	71
869.799	27.99
869.972	40.28
870.145	-33.45
870.319	36.18
870.492	42.32
870.665	1.37
870.838	50.52
871.011	75.09
871.185	50.52
871.358	111.96
871.531	30.04
871.704	17.75
871.877	89.43
872.05	-64.17
872.223	56.66
872.396	93.52
872.569	68.95
872.742	-2.73
872.915	138.58
873.088	25.94
873.261	7.51
873.434	105.81
873.607	32.08
873.78	173.39
873.953	7.51
874.126	75.09
874.299	1.37
874.471	54.61
874.644	7.51
874.817	99.67
874.99	89.43
875.163	15.7
875.335	52.56
875.508	107.86
875.681	81.24
875.853	116.05
876.026	23.89
876.199	7.51
876.371	85.33
876.544	-37.55
876.717	85.33
876.889	-10.92
877.062	89.43
877.234	11.61
877.407	-39.59
877.579	85.33
877.752	81.24
877.924	42.32
878.097	48.47
878.269	81.24
878.442	30.04
878.614	-6.83
878.786	75.09
878.959	17.75
879.131	56.66
879.303	-0.68
879.476	-12.97
879.648	91.48
879.82	40.28
879.993	-12.97
880.165	-17.07
880.337	56.66
880.509	-29.35
880.681	42.32
880.854	73.04
881.026	64.85
881.198	83.28
881.37	32.08
881.542	81.24
881.714	9.56
881.886	-15.02
882.058	32.08
882.23	-12.97
882.402	32.08
882.574	-6.83
882.746	-0.68
882.918	77.14
883.09	36.18
883.262	15.7
883.434	11.61
883.606	-0.68
883.778	17.75
883.95	40.28
884.122	7.51
884.293	23.89
884.465	75.09
884.637	7.51
884.809	13.65
884.98	56.66
885.152	101.72
885.324	23.89
885.496	23.89
885.667	-6.83
885.839	15.7
886.011	101.72
886.182	71
886.354	85.33
886.525	107.86
886.697	-4.78
886.869	9.56
887.04	48.47
887.212	85.33
887.383	105.81
887.555	21.85
887.726	52.56
887.897	-12.97
888.069	68.95
888.24	75.09
888.412	48.47
888.583	-37.55
888.754	42.32
888.926	-0.68
889.097	50.52
889.268	-0.68
889.44	27.99
889.611	-21.16
889.782	9.56
889.953	23.89
890.125	116.05
890.296	-41.64
890.467	44.37
890.638	-17.07
890.809	56.66
890.98	-15.02
891.151	7.51
891.323	5.46
891.494	81.24
891.665	42.32
891.836	23.89
892.007	17.75
892.178	40.28
892.349	48.47
892.52	-4.78
892.691	-27.31
892.862	44.37
893.032	48.47
893.203	87.38
893.374	64.85
893.545	48.47
893.716	-53.93
893.887	40.28
894.057	32.08
894.228	25.94
894.399	40.28
894.57	64.85
894.74	-72.36
894.911	68.95
895.082	-21.16
895.253	7.51
895.423	27.99
895.594	64.85
895.764	68.95
895.935	-0.68
896.106	111.96
896.276	27.99
896.447	11.61
896.617	42.32
896.788	-17.07
896.958	27.99
897.129	79.19
897.299	83.28
897.47	107.86
897.64	179.54
897.81	-10.92
897.981	58.71
898.151	21.85
898.322	23.89
898.492	71
898.662	44.37
898.832	30.04
899.003	25.94
899.173	42.32
899.343	-10.92
899.513	-88.75
