Data from USB4F104151__50__14-29-58-683.txt Node

Date: Thu Mar 13 14:29:58 EDT 2025
User: louis
Spectrometer: USB4F10415
Trigger mode: 4
Integration Time (sec): 2.500000E-2
Scans to average: 1
Electric dark correction enabled: true
Nonlinearity correction enabled: false
Boxcar width: 0
XAxis mode: Wavelengths
Number of Pixels in Spectrum: 3648
>>>>>Begin Spectral Data<<<<<
178.204	-163.67
178.424	-163.67
178.644	-163.67
178.864	-163.67
179.084	-104.28
179.304	-14.17
179.524	-48.98
179.744	-16.21
179.964	10.41
180.184	-20.31
180.404	75.95
180.624	92.33
180.844	-63.32
181.064	-83.8
181.283	57.51
181.503	-40.79
181.723	51.37
181.943	-42.84
182.163	90.28
182.383	51.37
182.602	96.43
182.822	110.76
183.042	82.09
183.262	-30.55
183.482	18.6
183.701	37.03
183.921	18.6
184.141	-36.69
184.361	108.71
184.58	10.41
184.8	-55.12
185.02	14.51
185.239	45.23
185.459	12.46
185.679	61.61
185.898	-46.93
186.118	-16.21
186.338	14.51
186.557	-3.93
186.777	30.89
186.997	16.55
187.216	8.36
187.436	84.14
187.655	49.32
187.875	98.47
188.095	86.19
188.314	6.31
188.534	84.14
188.753	28.84
188.973	39.08
189.192	22.7
189.412	-14.17
189.631	26.79
189.851	26.79
190.07	24.75
190.29	45.23
190.509	-24.4
190.729	22.7
190.948	53.42
191.168	84.14
191.387	41.13
191.607	77.99
191.826	45.23
192.045	37.03
192.265	2.22
192.484	-20.31
192.704	59.56
192.923	-8.02
193.142	137.38
193.362	37.03
193.581	84.14
193.8	26.79
194.02	116.9
194.239	125.1
194.458	129.19
194.678	-12.12
194.897	71.85
195.116	-59.22
195.335	-46.93
195.555	26.79
195.774	-46.93
195.993	26.79
196.212	67.75
196.432	-18.26
196.651	2.22
196.87	63.66
197.089	112.81
197.308	-14.17
197.528	84.14
197.747	6.31
197.966	94.38
198.185	24.75
198.404	43.18
198.623	90.28
198.842	14.51
199.062	-1.88
199.281	75.95
199.5	37.03
199.719	75.95
199.938	67.75
200.157	10.41
200.376	18.6
200.595	92.33
200.814	49.32
201.033	-10.07
201.252	75.95
201.471	55.47
201.69	59.56
201.909	-14.17
202.128	37.03
202.347	86.19
202.566	55.47
202.785	18.6
203.004	-46.93
203.223	84.14
203.442	26.79
203.661	59.56
203.879	55.47
204.098	129.19
204.317	14.51
204.536	39.08
204.755	45.23
204.974	2.22
205.193	59.56
205.411	116.9
205.63	47.27
205.849	28.84
206.068	26.79
206.287	-48.98
206.505	-55.12
206.724	8.36
206.943	-55.12
207.162	24.75
207.381	-22.36
207.599	4.27
207.818	63.66
208.037	-14.17
208.255	77.99
208.474	43.18
208.693	63.66
208.911	14.51
209.13	88.23
209.349	61.61
209.567	26.79
209.786	37.03
210.005	14.51
210.223	30.89
210.442	18.6
210.661	26.79
210.879	-10.07
211.098	94.38
211.316	4.27
211.535	55.47
211.753	-10.07
211.972	10.41
212.191	51.37
212.409	26.79
212.628	47.27
212.846	8.36
213.065	131.24
213.283	110.76
213.502	2.22
213.72	6.31
213.938	39.08
214.157	69.8
214.375	24.75
214.594	4.27
214.812	37.03
215.031	32.94
215.249	37.03
215.467	26.79
215.686	-3.93
215.904	34.99
216.122	39.08
216.341	84.14
216.559	10.41
216.778	34.99
216.996	96.43
217.214	20.65
217.432	30.89
217.651	18.6
217.869	88.23
218.087	43.18
218.306	-5.97
218.524	18.6
218.742	51.37
218.96	-3.93
219.179	0.17
219.397	-20.31
219.615	114.86
219.833	77.99
220.051	2.22
220.27	-18.26
220.488	39.08
220.706	39.08
220.924	6.31
221.142	-22.36
221.36	-14.17
221.578	75.95
221.796	34.99
222.015	-1.88
222.233	-22.36
222.451	86.19
222.669	-53.08
222.887	86.19
223.105	67.75
223.323	108.71
223.541	28.84
223.759	39.08
223.977	45.23
224.195	77.99
224.413	67.75
224.631	67.75
224.849	55.47
225.067	106.67
225.285	30.89
225.503	18.6
225.721	-30.55
225.939	100.52
226.157	88.23
226.375	190.63
226.592	18.6
226.81	-36.69
227.028	77.99
227.246	147.62
227.464	116.9
227.682	43.18
227.9	65.71
228.117	45.23
228.335	67.75
228.553	100.52
228.771	18.6
228.989	141.48
229.206	45.23
229.424	92.33
229.642	26.79
229.86	20.65
230.077	2.22
230.295	2.22
230.513	61.61
230.731	92.33
230.948	100.52
231.166	141.48
231.384	12.46
231.601	30.89
231.819	104.62
232.037	22.7
232.254	0.17
232.472	84.14
232.689	-1.88
232.907	63.66
233.125	2.22
233.342	16.55
233.56	2.22
233.777	-79.7
233.995	24.75
234.213	30.89
234.43	37.03
234.648	121
234.865	-28.5
235.083	6.31
235.3	49.32
235.518	53.42
235.735	67.75
235.953	2.22
236.17	32.94
236.388	133.29
236.605	-8.02
236.822	80.04
237.04	2.22
237.257	55.47
237.475	-61.27
237.692	26.79
237.909	88.23
238.127	59.56
238.344	77.99
238.562	4.27
238.779	20.65
238.996	-75.6
239.214	45.23
239.431	108.71
239.648	-32.6
239.865	96.43
240.083	43.18
240.3	53.42
240.517	-55.12
240.735	6.31
240.952	37.03
241.169	14.51
241.386	20.65
241.603	69.8
241.821	14.51
242.038	59.56
242.255	94.38
242.472	43.18
242.689	43.18
242.907	116.9
243.124	47.27
243.341	-20.31
243.558	-1.88
243.775	20.65
243.992	18.6
244.209	14.51
244.426	80.04
244.643	84.14
244.86	-3.93
245.078	51.37
245.295	28.84
245.512	4.27
245.729	-22.36
245.946	26.79
246.163	51.37
246.38	43.18
246.597	37.03
246.814	73.9
247.031	6.31
247.248	82.09
247.464	32.94
247.681	141.48
247.898	2.22
248.115	61.61
248.332	-10.07
248.549	69.8
248.766	71.85
248.983	-10.07
249.2	51.37
249.417	55.47
249.633	59.56
249.85	59.56
250.067	30.89
250.284	4.27
250.501	43.18
250.717	37.03
250.934	6.31
251.151	55.47
251.368	12.46
251.585	75.95
251.801	2.22
252.018	92.33
252.235	71.85
252.451	-16.21
252.668	20.65
252.885	94.38
253.102	55.47
253.318	43.18
253.535	32.94
253.752	-38.74
253.968	-8.02
254.185	26.79
254.401	75.95
254.618	75.95
254.835	2.22
255.051	94.38
255.268	16.55
255.484	-28.5
255.701	34.99
255.917	69.8
256.134	51.37
256.351	0.17
256.567	2.22
256.784	14.51
257	8.36
257.217	34.99
257.433	12.46
257.65	100.52
257.866	59.56
258.082	-5.97
258.299	67.75
258.515	96.43
258.732	-42.84
258.948	71.85
259.165	53.42
259.381	41.13
259.597	88.23
259.814	-22.36
260.03	-22.36
260.246	82.09
260.463	61.61
260.679	65.71
260.895	-38.74
261.112	125.1
261.328	71.85
261.544	-10.07
261.761	59.56
261.977	59.56
262.193	-77.65
262.409	43.18
262.626	2.22
262.842	75.95
263.058	4.27
263.274	77.99
263.49	-14.17
263.707	43.18
263.923	4.27
264.139	47.27
264.355	100.52
264.571	55.47
264.787	45.23
265.004	96.43
265.22	43.18
265.436	34.99
265.652	37.03
265.868	12.46
266.084	8.36
266.3	63.66
266.516	4.27
266.732	18.6
266.948	-12.12
267.164	4.27
267.38	18.6
267.596	-51.03
267.812	24.75
268.028	92.33
268.244	28.84
268.46	26.79
268.676	45.23
268.892	88.23
269.108	37.03
269.324	-12.12
269.54	53.42
269.756	69.8
269.972	-91.99
270.188	59.56
270.403	8.36
270.619	28.84
270.835	53.42
271.051	84.14
271.267	-20.31
271.483	-14.17
271.698	39.08
271.914	22.7
272.13	63.66
272.346	-30.55
272.562	75.95
272.777	-14.17
272.993	-5.97
273.209	-1.88
273.425	51.37
273.64	-48.98
273.856	94.38
274.072	98.47
274.287	22.7
274.503	92.33
274.719	96.43
274.934	41.13
275.15	-59.22
275.366	45.23
275.581	-8.02
275.797	45.23
276.012	59.56
276.228	45.23
276.444	43.18
276.659	80.04
276.875	-22.36
277.09	51.37
277.306	2.22
277.521	10.41
277.737	-75.6
277.952	57.51
278.168	80.04
278.383	26.79
278.599	41.13
278.814	59.56
279.03	77.99
279.245	125.1
279.461	-10.07
279.676	26.79
279.892	63.66
280.107	43.18
280.322	-42.84
280.538	24.75
280.753	34.99
280.969	37.03
281.184	12.46
281.399	32.94
281.615	-5.97
281.83	43.18
282.045	-96.08
282.26	-10.07
282.476	39.08
282.691	133.29
282.906	84.14
283.122	34.99
283.337	45.23
283.552	75.95
283.767	39.08
283.983	71.85
284.198	82.09
284.413	37.03
284.628	-38.74
284.843	69.8
285.058	49.32
285.274	96.43
285.489	55.47
285.704	80.04
285.919	0.17
286.134	51.37
286.349	18.6
286.564	14.51
286.779	67.75
286.995	34.99
287.21	32.94
287.425	-10.07
287.64	41.13
287.855	-24.4
288.07	51.37
288.285	73.9
288.5	6.31
288.715	53.42
288.93	30.89
289.145	39.08
289.36	-12.12
289.575	45.23
289.79	-63.32
290.004	94.38
290.219	67.75
290.434	18.6
290.649	6.31
290.864	90.28
291.079	34.99
291.294	-14.17
291.509	37.03
291.724	14.51
291.938	8.36
292.153	143.53
292.368	86.19
292.583	108.71
292.798	108.71
293.012	37.03
293.227	45.23
293.442	43.18
293.657	59.56
293.871	100.52
294.086	-5.97
294.301	28.84
294.516	86.19
294.73	121
294.945	-10.07
295.16	22.7
295.374	88.23
295.589	67.75
295.804	110.76
296.018	-14.17
296.233	61.61
296.447	84.14
296.662	-51.03
296.877	65.71
297.091	12.46
297.306	51.37
297.52	-28.5
297.735	-55.12
297.949	82.09
298.164	45.23
298.378	75.95
298.593	-10.07
298.807	-20.31
299.022	-3.93
299.236	45.23
299.451	-61.27
299.665	18.6
299.88	61.61
300.094	-55.12
300.309	34.99
300.523	43.18
300.737	34.99
300.952	32.94
301.166	59.56
301.381	10.41
301.595	112.81
301.809	30.89
302.024	-28.5
302.238	32.94
302.452	-10.07
302.667	26.79
302.881	63.66
303.095	-30.55
303.309	-94.04
303.524	-12.12
303.738	110.76
303.952	-46.93
304.166	12.46
304.381	-71.51
304.595	57.51
304.809	12.46
305.023	24.75
305.237	69.8
305.452	51.37
305.666	94.38
305.88	67.75
306.094	24.75
306.308	-12.12
306.522	100.52
306.736	73.9
306.95	43.18
307.164	59.56
307.379	-32.6
307.593	75.95
307.807	4.27
308.021	71.85
308.235	86.19
308.449	18.6
308.663	-8.02
308.877	96.43
309.091	77.99
309.305	63.66
309.519	-12.12
309.733	94.38
309.947	-102.23
310.161	-5.97
310.374	88.23
310.588	108.71
310.802	18.6
311.016	8.36
311.23	-1.88
311.444	14.51
311.658	116.9
311.872	96.43
312.085	4.27
312.299	53.42
312.513	-18.26
312.727	43.18
312.941	57.51
313.154	61.61
313.368	18.6
313.582	82.09
313.796	92.33
314.009	-69.46
314.223	43.18
314.437	43.18
314.651	59.56
314.864	57.51
315.078	26.79
315.292	-38.74
315.505	45.23
315.719	4.27
315.933	45.23
316.146	26.79
316.36	51.37
316.573	75.95
316.787	18.6
317.001	92.33
317.214	14.51
317.428	112.81
317.641	2.22
317.855	43.18
318.068	47.27
318.282	45.23
318.495	63.66
318.709	69.8
318.922	12.46
319.136	94.38
319.349	63.66
319.563	26.79
319.776	26.79
319.99	18.6
320.203	32.94
320.417	-12.12
320.63	69.8
320.843	100.52
321.057	37.03
321.27	-1.88
321.483	92.33
321.697	116.9
321.91	-30.55
322.124	26.79
322.337	-16.21
322.55	77.99
322.763	26.79
322.977	-3.93
323.19	22.7
323.403	77.99
323.617	77.99
323.83	20.65
324.043	10.41
324.256	12.46
324.469	-22.36
324.683	41.13
324.896	8.36
325.109	18.6
325.322	-26.45
325.535	77.99
325.748	22.7
325.962	10.41
326.175	51.37
326.388	26.79
326.601	53.42
326.814	53.42
327.027	-38.74
327.24	55.47
327.453	-55.12
327.666	2.22
327.879	43.18
328.092	80.04
328.305	59.56
328.518	4.27
328.731	-12.12
328.944	-30.55
329.157	59.56
329.37	88.23
329.583	114.86
329.796	59.56
330.009	-5.97
330.222	67.75
330.435	-12.12
330.648	71.85
330.861	-16.21
331.073	37.03
331.286	45.23
331.499	118.95
331.712	-32.6
331.925	82.09
332.138	-22.36
332.35	92.33
332.563	-18.26
332.776	88.23
332.989	55.47
333.202	43.18
333.414	45.23
333.627	59.56
333.84	16.55
334.053	55.47
334.265	34.99
334.478	61.61
334.691	-16.21
334.903	34.99
335.116	59.56
335.329	69.8
335.541	59.56
335.754	96.43
335.966	63.66
336.179	51.37
336.392	34.99
336.604	39.08
336.817	108.71
337.029	63.66
337.242	10.41
337.454	-1.88
337.667	34.99
337.88	86.19
338.092	43.18
338.305	43.18
338.517	59.56
338.729	-12.12
338.942	37.03
339.154	94.38
339.367	37.03
339.579	53.42
339.792	112.81
340.004	90.28
340.217	-32.6
340.429	14.51
340.641	51.37
340.854	6.31
341.066	10.41
341.278	43.18
341.491	86.19
341.703	121
341.915	12.46
342.128	77.99
342.34	-3.93
342.552	34.99
342.764	84.14
342.977	28.84
343.189	94.38
343.401	51.37
343.613	-24.4
343.826	75.95
344.038	10.41
344.25	10.41
344.462	-8.02
344.674	47.27
344.886	12.46
345.099	84.14
345.311	143.53
345.523	-10.07
345.735	34.99
345.947	30.89
346.159	100.52
346.371	59.56
346.583	34.99
346.795	92.33
347.007	-12.12
347.219	4.27
347.431	22.7
347.643	108.71
347.855	-16.21
348.067	116.9
348.279	43.18
348.491	6.31
348.703	14.51
348.915	94.38
349.127	75.95
349.339	86.19
349.551	43.18
349.763	112.81
349.975	69.8
350.187	14.51
350.399	-18.26
350.61	2.22
350.822	30.89
351.034	77.99
351.246	-24.4
351.458	69.8
351.669	28.84
351.881	-3.93
352.093	69.8
352.305	37.03
352.517	77.99
352.728	30.89
352.94	88.23
353.152	51.37
353.363	67.75
353.575	22.7
353.787	12.46
353.999	34.99
354.21	125.1
354.422	0.17
354.633	8.36
354.845	69.8
355.057	84.14
355.268	84.14
355.48	75.95
355.692	43.18
355.903	96.43
356.115	10.41
356.326	-71.51
356.538	96.43
356.749	18.6
356.961	118.95
357.172	39.08
357.384	84.14
357.595	104.62
357.807	43.18
358.018	-18.26
358.23	63.66
358.441	104.62
358.653	118.95
358.864	34.99
359.075	-5.97
359.287	-44.88
359.498	98.47
359.709	86.19
359.921	98.47
360.132	2.22
360.344	26.79
360.555	100.52
360.766	69.8
360.977	26.79
361.189	118.95
361.4	-10.07
361.611	28.84
361.823	43.18
362.034	61.61
362.245	32.94
362.456	61.61
362.667	28.84
362.879	63.66
363.09	55.47
363.301	61.61
363.512	-14.17
363.723	2.22
363.935	88.23
364.146	59.56
364.357	26.79
364.568	41.13
364.779	43.18
364.99	100.52
365.201	102.57
365.412	61.61
365.623	34.99
365.834	20.65
366.045	12.46
366.256	26.79
366.467	143.53
366.678	45.23
366.889	39.08
367.1	-3.93
367.311	51.37
367.522	-8.02
367.733	82.09
367.944	71.85
368.155	-5.97
368.366	41.13
368.577	116.9
368.788	96.43
368.999	-1.88
369.209	67.75
369.42	67.75
369.631	104.62
369.842	71.85
370.053	8.36
370.264	26.79
370.474	39.08
370.685	2.22
370.896	-5.97
371.107	159.91
371.317	10.41
371.528	-1.88
371.739	84.14
371.95	67.75
372.16	82.09
372.371	43.18
372.582	59.56
372.792	14.51
373.003	75.95
373.214	53.42
373.424	75.95
373.635	10.41
373.846	88.23
374.056	67.75
374.267	116.9
374.477	53.42
374.688	2.22
374.898	53.42
375.109	47.27
375.319	125.1
375.53	30.89
375.74	41.13
375.951	-3.93
376.161	47.27
376.372	84.14
376.582	37.03
376.793	112.81
377.003	34.99
377.214	86.19
377.424	49.32
377.635	102.57
377.845	-5.97
378.055	123.05
378.266	-38.74
378.476	26.79
378.686	0.17
378.897	61.61
379.107	55.47
379.317	86.19
379.528	92.33
379.738	16.55
379.948	59.56
380.158	67.75
380.369	82.09
380.579	182.44
380.789	43.18
380.999	51.37
381.21	86.19
381.42	133.29
381.63	16.55
381.84	108.71
382.05	57.51
382.261	28.84
382.471	94.38
382.681	-20.31
382.891	116.9
383.101	100.52
383.311	-34.64
383.521	22.7
383.731	61.61
383.941	-3.93
384.151	37.03
384.361	-22.36
384.571	67.75
384.781	63.66
384.991	121
385.201	133.29
385.411	92.33
385.621	75.95
385.831	51.37
386.041	98.47
386.251	84.14
386.461	6.31
386.671	63.66
386.881	61.61
387.091	26.79
387.301	77.99
387.511	82.09
387.72	75.95
387.93	8.36
388.14	-30.55
388.35	84.14
388.56	86.19
388.769	176.3
388.979	63.66
389.189	-1.88
389.399	71.85
389.609	28.84
389.818	129.19
390.028	69.8
390.238	69.8
390.447	-38.74
390.657	127.14
390.867	6.31
391.076	-30.55
391.286	26.79
391.496	61.61
391.705	26.79
391.915	88.23
392.125	67.75
392.334	80.04
392.544	106.67
392.753	108.71
392.963	84.14
393.172	108.71
393.382	30.89
393.591	143.53
393.801	77.99
394.01	125.1
394.22	116.9
394.429	61.61
394.639	71.85
394.848	102.57
395.058	53.42
395.267	12.46
395.477	94.38
395.686	125.1
395.895	88.23
396.105	153.77
396.314	125.1
396.524	118.95
396.733	71.85
396.942	84.14
397.152	92.33
397.361	92.33
397.57	63.66
397.78	92.33
397.989	116.9
398.198	168.1
398.407	151.72
398.617	112.81
398.826	75.95
399.035	114.86
399.244	133.29
399.453	63.66
399.663	75.95
399.872	155.82
400.081	90.28
400.29	131.24
400.499	51.37
400.708	133.29
400.917	106.67
401.127	112.81
401.336	59.56
401.545	200.87
401.754	178.34
401.963	184.49
402.172	149.67
402.381	110.76
402.59	90.28
402.799	141.48
403.008	184.49
403.217	106.67
403.426	84.14
403.635	153.77
403.844	75.95
404.053	127.14
404.262	139.43
404.471	215.21
404.68	133.29
404.888	116.9
405.097	92.33
405.306	182.44
405.515	178.34
405.724	153.77
405.933	145.58
406.142	164.01
406.35	168.1
406.559	217.26
406.768	170.15
406.977	149.67
407.185	243.88
407.394	118.95
407.603	211.11
407.812	266.41
408.02	231.59
408.229	221.35
408.438	280.74
408.646	149.67
408.855	250.02
409.064	247.97
409.272	239.78
409.481	305.32
409.69	317.61
409.898	272.55
410.107	379.04
410.315	346.28
410.524	323.75
410.733	395.43
410.941	370.85
411.15	411.81
411.358	356.52
411.567	450.72
411.775	415.91
411.984	452.77
412.192	452.77
412.401	383.14
412.609	559.27
412.818	534.69
413.026	555.17
413.234	602.27
413.443	592.03
413.651	546.98
413.86	573.6
414.068	669.86
414.276	690.34
414.485	630.95
414.693	790.69
414.901	770.21
415.11	766.11
415.318	766.11
415.526	778.4
415.734	895.13
415.943	790.69
416.151	917.66
416.359	968.86
416.567	915.61
416.776	895.13
416.984	1063.07
417.192	989.34
417.4	1044.63
417.608	1034.39
417.817	1034.39
418.025	1251.48
418.233	1366.17
418.441	1181.85
418.649	1249.43
418.857	1339.54
419.065	1378.45
419.273	1470.61
419.481	1478.8
419.689	1656.98
419.897	1601.68
420.105	1566.87
420.313	1634.45
420.521	1591.44
420.729	1835.15
420.937	1841.29
421.145	1958.03
421.353	2123.91
421.561	2042
421.769	2140.3
421.977	2287.75
422.185	2220.17
422.393	2418.82
422.601	2386.05
422.809	2517.12
423.017	2508.93
423.224	2615.43
423.432	2762.88
423.64	2672.77
423.848	2979.97
424.056	2820.22
424.263	3082.36
424.471	3115.13
424.679	3104.89
424.887	3254.39
425.094	3418.23
425.302	3446.9
425.51	3704.95
425.718	3698.8
425.925	3756.15
426.133	3852.4
426.341	4204.65
426.548	4155.5
426.756	4149.36
426.964	4274.28
427.171	4520.04
427.379	4679.78
427.586	4716.64
427.794	4780.13
428.001	4982.88
428.209	5408.86
428.417	5146.72
428.624	5523.54
428.832	5513.3
429.039	5552.21
429.247	5615.7
429.454	6068.3
429.662	6408.26
429.869	6137.93
430.076	6420.55
430.284	6285.39
430.491	6649.93
430.699	6932.54
430.906	7094.33
431.114	7088.19
431.321	7186.49
431.528	7477.3
431.736	7944.24
431.943	8247.34
432.15	7942.19
432.358	8155.18
432.565	8509.48
432.772	8470.57
432.979	8906.79
433.187	9107.49
433.394	9152.54
433.601	9785.37
433.808	9678.87
434.016	9795.61
434.223	10092.56
434.43	10561.55
434.637	10541.07
434.844	11046.91
435.052	11503.61
435.259	11280.38
435.466	11421.69
435.673	11104.26
435.88	11978.74
436.087	12527.6
436.294	12535.79
436.501	12556.27
436.708	12593.13
436.915	12910.57
437.122	13520.86
437.329	13457.37
437.537	13967.32
437.743	14241.75
437.95	14143.44
438.157	14755.79
438.364	15321.02
438.571	15208.39
438.778	15239.11
438.985	16592.81
439.192	15857.59
439.399	16517.04
439.606	16097.21
439.813	17084.33
440.02	17905.56
440.227	17590.17
440.433	17760.16
440.64	18057.11
440.847	17964.95
441.054	18601.87
441.261	19793.79
441.467	19455.87
441.674	19785.6
441.881	20780.91
442.088	20492.15
442.294	20219.77
442.501	20866.92
442.708	21297
442.914	21905.24
443.121	22882.13
443.328	22374.23
443.534	23844.67
443.741	23340.87
443.948	22927.18
444.154	24790.83
444.361	24407.86
444.568	24420.15
444.774	24643.38
444.981	25028.4
445.187	25732.9
445.394	26867.47
445.6	26408.73
445.807	28755.7
446.013	27674.37
446.22	28188.41
446.426	29222.64
446.633	29007.6
446.839	30346.97
447.046	29019.89
447.252	31053.52
447.459	30805.72
447.665	30590.68
447.871	31786.69
448.078	33627.82
448.284	31846.08
448.491	32741.05
448.697	33775.27
448.903	34268.83
449.11	34545.31
449.316	34397.85
449.522	34623.13
449.728	35462.8
449.935	35733.13
450.141	35833.48
450.347	36492.93
450.553	35585.68
450.76	35909.25
450.966	37035.64
451.172	36816.5
451.378	37576.3
451.584	36896.38
451.791	37721.71
451.997	37099.12
452.203	38334.05
452.409	38000.23
452.615	38153.83
452.821	36550.27
453.027	36173.44
453.233	38057.57
453.44	36597.37
453.646	36884.09
453.852	37133.94
454.058	37396.08
454.264	36736.63
454.47	37318.26
454.676	36099.72
454.882	37574.25
455.088	34512.54
455.294	34840.22
455.5	35251.86
455.705	35823.24
455.911	34481.82
456.117	33660.59
456.323	32937.65
456.529	31172.3
456.735	32974.52
456.941	32216.77
457.147	31246.03
457.352	30238.43
457.558	30242.53
457.764	30056.16
457.97	29173.49
458.176	28901.11
458.381	28702.45
458.587	27473.67
458.793	27588.36
458.999	25714.47
459.204	27899.65
459.41	27195.15
459.616	25110.32
459.821	25372.46
460.027	25087.79
460.233	24608.56
460.438	23408.45
460.644	23680.83
460.85	22792.01
461.055	22042.46
461.261	22042.46
461.466	20440.95
461.672	19758.97
461.878	21337.96
462.083	19844.99
462.289	19500.93
462.494	19349.38
462.7	18497.42
462.905	17868.7
463.111	18200.47
463.316	18687.89
463.522	18073.49
463.727	18214.8
463.932	18132.89
464.138	18018.2
464.343	17876.89
464.549	17596.32
464.754	18151.32
464.959	17743.77
465.165	17774.49
465.37	16875.43
465.575	16484.27
465.781	17168.29
465.986	17336.23
466.191	16562.09
466.397	16195.51
466.602	15767.48
466.807	16041.91
467.012	15972.28
467.218	15753.15
467.423	15798.2
467.628	16009.14
467.833	16234.42
468.038	15650.75
468.244	15511.49
468.449	16109.49
468.654	15316.93
468.859	15439.81
469.064	15095.75
469.269	14571.47
469.474	14591.95
469.679	14952.39
469.885	14575.56
470.09	14903.24
470.295	14716.87
470.5	14323.66
470.705	14546.89
470.91	14249.94
471.115	13957.08
471.32	14176.21
471.525	14086.1
471.73	13678.55
471.935	13639.64
472.139	13160.42
472.344	13195.23
472.549	13199.33
472.754	13115.36
472.959	12883.94
473.164	12519.4
473.369	12277.74
473.574	12857.32
473.778	12687.34
473.983	12441.58
474.188	12322.8
474.393	12171.25
474.598	11827.19
474.802	12013.56
475.007	11900.92
475.212	11802.61
475.417	11257.85
475.621	11350.01
475.826	11595.77
476.031	11161.6
476.235	10946.56
476.44	11053.06
476.645	10629.13
476.849	10776.58
477.054	10715.14
477.259	10653.7
477.463	10618.89
477.668	10268.69
477.872	10209.29
478.077	10291.21
478.282	10037.27
478.486	10096.66
478.691	10100.75
478.895	9981.97
479.1	9918.48
479.304	9857.04
479.509	9705.49
479.713	9834.52
479.918	9375.77
480.122	9318.43
480.326	9603.1
480.531	9353.24
480.735	9488.41
480.94	9252.89
481.144	9359.39
481.348	9340.96
481.553	9316.38
481.757	9087.01
481.961	9168.93
482.166	9148.45
482.37	9154.59
482.574	9089.06
482.778	8986.66
482.983	9277.47
483.187	9111.58
483.391	9070.62
483.595	8923.17
483.8	8853.54
484.004	8935.46
484.208	9050.14
484.412	9009.19
484.616	9130.02
484.821	8882.21
485.025	8857.64
485.229	8970.27
485.433	8955.94
485.637	9117.73
485.841	8714.28
486.045	8849.44
486.249	8921.12
486.453	8898.59
486.657	9091.1
486.861	8978.47
487.065	8626.22
487.269	8923.17
487.473	8816.68
487.677	9054.24
487.881	9025.57
488.085	8927.27
488.289	9058.34
488.493	8792.1
488.697	9107.49
488.901	8990.75
489.105	8876.07
489.309	9035.81
489.512	9170.97
489.716	9076.77
489.92	8964.13
490.124	8947.75
490.328	9107.49
490.531	8927.27
490.735	9205.79
490.939	9000.99
491.143	8876.07
491.346	9013.28
491.55	9127.97
491.754	9197.6
491.958	9336.86
492.161	9103.39
492.365	9300
492.569	9121.82
492.772	9369.63
492.976	9265.18
493.18	9390.11
493.383	9529.37
493.587	9463.83
493.79	9644.06
493.994	9486.36
494.197	9592.86
494.401	9656.34
494.605	9519.13
494.808	9850.9
495.012	9889.81
495.215	9779.22
495.419	9881.62
495.622	9920.53
495.825	9979.92
496.029	10199.06
496.232	10223.63
496.436	10295.31
496.639	10366.99
496.843	10385.42
497.046	10471.43
497.249	10792.97
497.453	10579.98
497.656	10811.4
497.859	10821.64
498.063	10903.56
498.266	11098.11
498.469	11106.31
498.673	11102.21
498.876	11481.08
499.079	11259.9
499.282	11345.92
499.485	11755.51
499.689	11630.59
499.892	11999.22
500.095	11995.12
500.298	12247.02
500.501	12103.67
500.705	12593.13
500.908	12576.75
501.111	12537.84
501.314	12791.78
501.517	12820.46
501.72	12949.48
501.923	13017.06
502.126	13332.45
502.329	13363.17
502.532	13739.99
502.735	13440.99
502.938	13883.35
503.141	13869.02
503.344	13934.55
503.547	13971.41
503.75	14176.21
503.953	14307.28
504.156	14796.74
504.359	14555.08
504.562	14520.27
504.765	14915.53
504.968	15257.54
505.17	15249.35
505.373	15265.73
505.576	15620.03
505.779	15771.58
505.982	15665.08
506.185	16101.3
506.387	16175.03
506.59	16248.75
506.793	16496.56
506.996	16521.13
507.198	17022.89
507.401	16861.1
507.604	17014.7
507.807	17323.94
508.009	17571.74
508.212	17614.75
508.415	17917.85
508.617	17913.75
508.82	18096.02
509.022	18136.98
509.225	18487.18
509.428	18667.41
509.63	18810.76
509.833	18976.65
510.035	19478.4
510.238	19296.13
510.44	19570.56
510.643	19568.51
510.845	20082.55
511.048	19806.08
511.25	20139.9
511.453	20043.64
511.655	21196.65
511.858	20774.77
512.06	20969.32
512.262	21217.13
512.465	21167.98
512.667	21522.27
512.87	21630.82
513.072	21749.6
513.274	22249.3
513.477	22300.5
513.679	22597.46
513.881	22814.54
514.084	22820.69
514.286	22873.93
514.488	23297.86
514.69	23756.61
514.893	23994.17
515.095	23873.34
515.297	24246.07
515.499	24074.04
515.701	24477.49
515.904	24704.82
516.106	24596.28
516.308	25055.02
516.51	25347.88
516.712	25274.15
516.914	25665.32
517.116	25839.39
517.318	26208.03
517.52	26302.23
517.722	26289.95
517.925	26490.65
518.127	26842.9
518.329	27113.23
518.531	27119.37
518.733	27479.82
518.935	27717.38
519.136	27553.54
519.338	27942.66
519.54	28010.24
519.742	28262.14
519.944	28632.82
520.146	29040.37
520.348	28921.59
520.55	29073.14
520.752	29191.92
520.954	29660.9
521.155	29023.98
521.357	29226.73
521.559	30029.54
521.761	30230.24
521.963	29966.05
522.164	30312.16
522.366	30463.71
522.568	30600.92
522.77	30762.71
522.971	31381.2
523.173	30791.38
523.375	31135.44
523.576	31200.97
523.778	31303.37
523.98	31817.41
524.181	31809.22
524.383	31352.52
524.584	31758.02
524.786	31665.86
524.988	31647.43
525.189	31905.48
525.391	32233.15
525.592	32251.58
525.794	32399.04
525.995	32198.34
526.197	32360.12
526.398	32474.81
526.6	32747.19
526.801	32280.25
527.003	32421.56
527.204	32902.84
527.406	32720.57
527.607	32472.76
527.808	33265.33
528.01	32462.52
528.211	32665.27
528.412	33052.34
528.614	33373.87
528.815	33085.11
529.016	32988.85
529.218	32788.15
529.419	32757.43
529.62	33062.58
529.822	32925.36
530.023	32894.64
530.224	32923.32
530.425	32734.9
530.626	32614.07
530.828	32747.19
531.029	33281.71
531.23	32845.49
531.431	32429.76
531.632	32698.04
531.833	32552.63
532.035	32468.67
532.236	32630.46
532.437	32751.29
532.638	32620.22
532.839	33017.52
533.04	32583.35
533.241	32227.01
533.442	33087.15
533.643	32505.53
533.844	32415.42
534.045	32286.4
534.246	32235.2
534.447	32605.88
534.648	32263.87
534.849	32470.72
535.05	31993.54
535.251	32192.19
535.451	32245.44
535.652	32378.56
535.853	31803.08
536.054	32018.11
536.255	32147.14
536.456	31678.15
536.657	31774.41
536.857	31964.87
537.058	31684.3
537.259	31989.44
537.46	31676.1
537.66	31919.81
537.861	32024.26
538.062	31542.99
538.263	31755.97
538.463	31430.35
538.664	31663.82
538.865	31403.72
539.065	31772.36
539.266	31198.93
539.466	31561.42
539.667	30971.6
539.868	31696.58
540.068	31434.44
540.269	31223.5
540.469	31125.2
540.67	31465.16
540.87	31389.39
541.071	31291.09
541.271	31430.35
541.472	31243.98
541.672	30818
541.873	31373
542.073	30578.39
542.274	31407.82
542.474	31086.29
542.675	30723.8
542.875	31088.34
543.075	30953.17
543.276	30650.07
543.476	31311.56
543.676	31307.47
543.877	31024.85
544.077	30893.78
544.277	30584.54
544.478	30959.31
544.678	30887.64
544.878	30971.6
545.078	30697.17
545.279	31024.85
545.479	30906.07
545.679	31057.62
545.879	30676.69
546.079	30791.38
546.28	30492.38
546.48	30912.21
546.68	30926.55
546.88	30826.2
547.08	30858.96
547.28	31010.51
547.48	30385.88
547.68	30680.79
547.88	30578.39
548.081	31030.99
548.281	30781.14
548.481	30590.68
548.681	30858.96
548.881	30953.17
549.081	30568.15
549.28	30662.36
549.48	31078.1
549.68	30691.03
549.88	31094.48
550.08	30947.03
550.28	30519
550.48	30590.68
550.68	31012.56
550.88	30334.68
551.08	30977.75
551.279	30938.83
551.479	30514.91
551.679	30645.98
551.879	30701.27
552.079	31112.91
552.278	30781.14
552.478	31049.42
552.678	30713.56
552.878	30951.12
553.077	30963.41
553.277	30510.81
553.477	31033.04
553.676	31211.21
553.876	31006.42
554.076	30793.43
554.275	30607.06
554.475	30942.93
554.674	30932.69
554.874	31268.56
555.074	31053.52
555.273	31071.95
555.473	31129.3
555.672	30910.16
555.872	30881.49
556.071	31307.47
556.271	31299.28
556.47	30904.02
556.67	31086.29
556.869	31164.11
557.068	31243.98
557.268	30803.67
557.467	30983.89
557.667	31082.19
557.866	30969.55
558.065	31008.47
558.265	30977.75
558.464	30883.54
558.663	31272.65
558.863	30740.18
559.062	31194.83
559.261	31024.85
559.461	31549.13
559.66	30521.05
559.859	31135.44
560.058	30869.2
560.258	31112.91
560.457	31051.47
560.656	31088.34
560.855	31108.82
561.054	30934.74
561.253	30983.89
561.453	30791.38
561.652	31104.72
561.851	31071.95
562.05	31043.28
562.249	30676.69
562.448	31088.34
562.647	30875.35
562.846	31131.34
563.045	31100.62
563.244	30742.23
563.443	30936.79
563.642	30783.19
563.841	30910.16
564.04	30494.43
564.239	31276.75
564.438	30850.77
564.637	30942.93
564.836	30676.69
565.035	30617.3
565.234	30625.5
565.432	30185.18
565.631	30789.33
565.83	30586.58
566.029	30465.75
566.228	30226.14
566.427	29953.76
566.625	30406.36
566.824	29814.5
567.023	30506.71
567.222	30172.89
567.42	30260.96
567.619	29859.56
567.818	29998.82
568.016	30306.01
568.215	29966.05
568.414	29855.46
568.612	29908.71
568.811	29761.25
569.01	30099.17
569.208	29626.09
569.407	29847.27
569.605	29550.31
569.804	29847.27
570.002	29337.32
570.201	29394.67
570.4	29783.78
570.598	29110
570.797	29079.28
570.995	29267.69
571.193	29077.23
571.392	29454.06
571.59	28495.61
571.789	28555
571.987	29116.14
572.186	28573.43
572.384	28712.69
572.582	28946.16
572.781	28407.55
572.979	28290.81
573.177	28399.35
573.376	28661.49
573.574	28157.69
573.772	28305.15
573.971	28303.1
574.169	27938.56
574.367	27961.09
574.565	28192.51
574.763	27852.55
574.962	27610.89
575.16	27473.67
575.358	27891.46
575.556	27696.9
575.754	27965.18
575.952	27338.51
576.151	27563.78
576.349	27512.58
576.547	27332.36
576.745	27504.39
576.943	27307.79
577.141	26715.92
577.339	27375.37
577.537	26951.44
577.735	27023.12
577.933	26748.69
578.131	26834.71
578.329	26543.89
578.527	26597.14
578.725	26240.79
578.923	26783.51
579.121	26142.49
579.319	26312.47
579.516	26099.48
579.714	26269.47
579.912	26158.88
580.11	25984.8
580.308	26017.57
580.506	25886.5
580.704	25593.64
580.901	26167.07
581.099	26013.47
581.297	25671.46
581.495	25732.9
581.692	25626.4
581.89	25421.61
582.088	25665.32
582.285	25098.03
582.483	25607.97
582.681	25380.65
582.878	25077.55
583.076	24969.01
583.274	25202.47
583.471	24778.54
583.669	25014.06
583.866	24678.19
584.064	25227.05
584.262	24428.34
584.459	24770.35
584.657	24448.82
584.854	24751.92
585.052	24338.23
585.249	24479.54
585.447	24432.44
585.644	24207.16
585.841	24248.12
586.039	24399.67
586.236	23977.79
586.434	23988.03
586.631	24047.42
586.828	23965.5
587.026	23924.54
587.223	24153.91
587.42	23912.25
587.618	23514.95
587.815	23357.25
588.012	23590.72
588.21	23594.82
588.407	23867.2
588.604	23539.52
588.801	23301.96
588.999	23304.01
589.196	23418.69
589.393	23174.99
589.59	23295.82
589.787	23283.53
589.984	23222.09
590.182	23013.2
590.379	23005
590.576	22916.94
590.773	23027.53
590.97	22845.26
591.167	22697.81
591.364	22677.33
591.561	22699.86
591.758	22691.66
591.955	22794.06
592.152	22890.32
592.349	22529.87
592.546	22865.74
592.743	22452.05
592.94	22308.69
593.137	22327.13
593.334	22402.9
593.531	22286.17
593.727	22697.81
593.924	22441.81
594.121	22071.13
594.318	22402.9
594.515	22155.1
594.712	22441.81
594.908	22114.14
595.105	22122.33
595.302	22146.9
595.499	22116.19
595.696	22173.53
595.892	22130.52
596.089	22255.45
596.286	21983.07
596.482	22259.54
596.679	22155.1
596.876	21823.33
597.072	21684.06
597.269	21585.76
597.466	21913.44
597.662	21808.99
597.859	21827.42
598.055	22083.42
598.252	21675.87
598.448	21952.35
598.645	21833.57
598.841	21505.89
599.038	21876.57
599.234	22054.75
599.431	21514.08
599.627	21456.74
599.824	21890.91
600.02	21466.98
600.217	21714.78
600.413	21843.81
600.609	21978.97
600.806	21557.09
601.002	21636.96
601.198	21587.81
601.395	21835.61
601.591	21407.59
601.787	21755.74
601.984	21690.21
602.18	21759.84
602.376	21753.69
602.572	21806.94
602.769	21540.71
602.965	21624.67
603.161	21628.77
603.357	21710.69
603.553	21808.99
603.75	21620.58
603.946	21628.77
604.142	21813.09
604.338	21765.98
604.534	21864.29
604.73	21892.96
604.926	21845.85
605.122	22087.51
605.318	21972.83
605.514	21856.09
605.71	21970.78
605.906	22124.38
606.102	21925.72
606.298	21983.07
606.494	22054.75
606.69	22054.75
606.886	22241.11
607.082	21788.51
607.278	22339.41
607.474	21913.44
607.67	22226.78
607.866	22085.47
608.062	22542.16
608.257	21964.64
608.453	22407
608.649	22665.04
608.845	22196.06
609.041	22146.9
609.236	22609.75
609.432	22171.48
609.628	22208.34
609.824	22658.9
610.019	22560.59
610.215	22308.69
610.411	22701.9
610.606	22568.79
610.802	22783.82
610.998	22683.47
611.193	22986.57
611.389	22593.36
611.584	22636.37
611.78	22454.1
611.976	22714.19
612.171	22832.97
612.367	22726.48
612.562	22648.66
612.758	22527.83
612.953	22769.49
613.149	22894.41
613.344	22474.58
613.539	22818.64
613.735	23009.1
613.93	22976.33
614.126	22808.4
614.321	23076.68
614.517	23072.59
614.712	22982.48
614.907	23029.58
615.103	22808.4
615.298	22787.92
615.493	23363.4
615.688	22818.64
615.884	23433.03
616.079	22628.18
616.274	22794.06
616.47	22959.95
616.665	22933.32
616.86	22716.24
617.055	22921.04
617.25	22781.78
617.445	23179.08
617.641	22511.44
617.836	23269.19
618.031	22593.36
618.226	22957.9
618.421	22837.07
618.616	22677.33
618.811	22407
619.006	23027.53
619.201	22538.07
619.396	22925.13
619.591	22118.23
619.786	22751.06
619.981	22140.76
620.176	22476.63
620.371	22185.82
620.566	22157.14
620.761	22067.03
620.956	22581.07
621.151	21720.93
621.346	22064.99
621.541	21925.72
621.735	21868.38
621.93	21567.33
622.125	21868.38
622.32	21401.44
622.515	21579.62
622.709	21356.39
622.904	21305.19
623.099	21423.97
623.294	21235.56
623.488	20858.73
623.683	21202.79
623.878	20701.04
624.072	21106.54
624.267	20680.56
624.462	20586.35
624.656	20629.36
624.851	20375.41
625.046	20232.05
625.24	20242.29
625.435	20031.35
625.629	19953.53
625.824	19711.87
626.018	19955.58
626.213	19679.1
626.407	19916.67
626.602	19408.77
626.796	19828.6
626.991	19761.02
627.185	19451.78
627.38	19154.82
627.574	19193.73
627.768	19181.45
627.963	19079.05
628.157	18745.23
628.352	19113.86
628.546	18413.46
628.74	19025.8
628.935	18304.92
629.129	18632.59
629.323	18407.31
629.517	18392.98
629.712	18296.72
629.906	18466.7
630.1	17817.5
630.294	17981.34
630.489	17915.8
630.683	17995.67
630.877	17674.14
631.071	17676.19
631.265	17721.24
631.459	17405.86
631.653	17239.97
631.848	17526.69
632.042	17233.83
632.236	17178.53
632.43	17113
632.624	17170.34
632.818	16969.64
633.012	16545.71
633.206	16656.3
633.4	16705.45
633.594	16453.55
633.788	16406.45
633.982	16392.11
634.176	16443.31
634.369	16328.63
634.563	16166.84
634.757	16109.49
634.951	16048.05
635.145	16082.87
635.339	15744.95
635.533	15599.55
635.726	15755.19
635.92	15480.77
636.114	15529.92
636.308	15292.35
636.501	15417.28
636.695	15243.2
636.889	15142.85
637.083	15017.93
637.276	14895.05
637.47	14985.16
637.664	14843.85
637.857	14804.94
638.051	14774.22
638.244	14522.32
638.438	14579.66
638.632	14526.41
638.825	14247.89
639.019	14403.53
639.212	14065.62
639.406	13895.64
639.599	13879.25
639.793	13873.11
639.986	13711.32
640.18	13887.45
640.373	13576.16
640.567	13541.34
640.76	13531.1
640.954	13348.83
641.147	13379.55
641.34	13371.36
641.534	13567.96
641.727	13078.5
641.92	13189.09
642.114	12982.24
642.307	13139.94
642.5	12720.1
642.694	12593.13
642.887	12623.85
643.08	12638.19
643.273	12543.98
643.467	12744.68
643.66	12335.09
643.853	12267.5
644.046	12234.74
644.239	12179.44
644.432	11962.36
644.626	11724.79
644.819	11925.49
645.012	11859.96
645.205	11939.83
645.398	11745.27
645.591	11481.08
645.784	11534.33
645.977	11575.29
646.17	11483.13
646.363	11423.74
646.556	11253.76
646.749	11323.39
646.942	11327.49
647.135	11362.3
647.328	10989.57
647.521	11061.25
647.714	10948.61
647.907	10657.8
648.099	10700.81
648.292	11048.96
648.485	10688.52
648.678	10557.45
648.871	10551.31
649.064	10424.33
649.256	10487.82
649.449	10332.17
649.642	10094.61
649.835	10268.69
650.027	10250.25
650.22	10217.49
650.413	10078.22
650.605	10029.07
650.798	10055.7
650.991	9924.63
651.183	9967.63
651.376	9861.14
651.568	9728.02
651.761	9689.11
651.954	9586.71
652.146	9521.18
652.339	9539.61
652.531	9379.87
652.724	9455.64
652.916	9029.66
653.109	9281.57
653.301	9340.96
653.494	9216.03
653.686	8966.18
653.879	9363.48
654.071	9289.76
654.263	8937.51
654.456	9078.82
654.648	9062.43
654.84	8906.79
655.033	8788
655.225	9009.19
655.417	8845.35
655.61	8777.76
655.802	8644.65
655.994	8611.88
656.186	8646.69
656.379	8595.5
656.571	8476.71
656.763	8374.31
656.955	8185.9
657.148	8364.08
657.34	8421.42
657.532	8341.55
657.724	8357.93
657.916	8292.4
658.108	8142.89
658.3	7964.72
658.492	8210.48
658.684	7983.15
658.876	8060.98
659.068	7925.81
659.26	7888.95
659.452	7966.77
659.644	7792.69
659.836	7628.85
660.028	7811.12
660.22	7589.94
660.412	7522.36
660.604	7643.19
660.796	7579.7
660.988	7444.54
661.18	7256.12
661.372	7532.6
661.563	7370.81
661.755	7315.52
661.947	7301.18
662.139	7262.27
662.331	7213.12
662.522	7161.92
662.714	7182.4
662.906	7034.94
663.097	7092.29
663.289	6946.88
663.481	6953.02
663.673	7092.29
663.864	6789.19
664.056	6645.83
664.247	6783.04
664.439	6613.06
664.631	6715.46
664.822	6670.4
665.014	6592.58
665.205	6654.02
665.397	6594.63
665.588	6682.69
665.78	6572.1
665.971	6352.97
666.163	6645.83
666.354	6535.24
666.546	6295.63
666.737	6350.92
666.929	6328.39
667.12	6395.98
667.311	6164.56
667.503	6047.82
667.694	6236.24
667.885	6166.6
668.077	6092.88
668.268	6090.83
668.459	6051.92
668.651	6008.91
668.842	6090.83
669.033	5933.14
669.224	5892.18
669.416	6074.45
669.607	5920.85
669.798	5892.18
669.989	6031.44
670.18	5744.72
670.371	5818.45
670.563	5732.44
670.754	5906.51
670.945	5574.74
671.136	5908.56
671.327	5728.34
671.518	5697.62
671.709	5816.4
671.9	5709.91
672.091	5587.03
672.282	5544.02
672.473	5498.97
672.664	5613.65
672.855	5609.56
673.046	5601.37
673.237	5492.82
673.428	5591.13
673.619	5425.24
673.809	5429.34
674	5376.09
674.191	5478.49
674.382	5447.77
674.573	5482.58
674.764	5312.6
674.954	5474.39
675.145	5195.87
675.336	5253.21
675.527	5380.18
675.717	5511.25
675.908	5269.59
676.099	5277.79
676.289	5308.51
676.48	5138.52
676.671	5105.76
676.861	5081.18
677.052	5326.94
677.243	5161.05
677.433	5118.04
677.624	5191.77
677.814	5064.8
678.005	5175.39
678.195	5257.31
678.386	4982.88
678.576	4993.12
678.767	4995.17
678.957	5001.31
679.148	5224.54
679.338	5025.89
679.529	5152.86
679.719	4999.26
679.909	5130.33
680.1	5015.65
680.29	4927.58
680.481	4903.01
680.671	5060.7
680.861	5029.98
681.052	4896.86
681.242	5058.65
681.432	4905.06
681.622	4847.71
681.813	4862.05
682.003	5032.03
682.193	4753.51
682.383	5001.31
682.573	4890.72
682.764	4984.93
682.954	4888.67
683.144	5042.27
683.334	4886.62
683.524	4872.29
683.714	4821.09
683.904	4862.05
684.094	4696.16
684.284	4929.63
684.474	4917.34
684.664	4819.04
684.854	4819.04
685.044	4888.67
685.234	4872.29
685.424	4794.47
685.614	4800.61
685.804	4868.19
685.994	4771.94
686.184	4733.03
686.374	4829.28
686.564	4823.14
686.753	4794.47
686.943	4708.45
687.133	4595.81
687.323	4554.85
687.513	4679.78
687.702	4565.09
687.892	4561
688.082	4642.92
688.272	4679.78
688.461	4544.61
688.651	4659.3
688.841	4411.5
689.03	4386.92
689.22	4575.33
689.41	4638.82
689.599	4462.69
689.789	4565.09
689.979	4474.98
690.168	4477.03
690.358	4405.35
690.547	4370.54
690.737	4466.79
690.926	4395.11
691.116	4272.23
691.305	4515.94
691.495	4561
691.684	4466.79
691.874	4421.74
692.063	4554.85
692.252	4442.21
692.442	4368.49
692.631	4292.71
692.82	4354.15
693.01	4225.13
693.199	4200.55
693.388	4241.51
693.578	4157.55
693.767	4231.27
693.956	4282.47
694.146	4274.28
694.335	4270.19
694.524	4198.51
694.713	4147.31
694.902	4261.99
695.092	4196.46
695.281	4143.21
695.47	4061.29
695.659	4157.55
695.848	4167.79
696.037	4186.22
696.226	4190.31
696.415	4065.39
696.604	4204.65
696.793	4081.77
696.982	4139.12
697.171	4155.5
697.36	4188.27
697.549	4153.45
697.738	4030.57
697.927	3913.84
698.116	4114.54
698.305	3993.71
698.494	4120.68
698.683	4104.3
698.872	4024.43
699.061	3987.57
699.25	3868.78
699.438	4003.95
699.627	3870.83
699.816	4059.24
700.005	3950.7
700.193	4040.81
700.382	4065.39
700.571	3962.99
700.76	3899.5
700.948	3971.18
701.137	3975.28
701.326	3934.32
701.514	3811.44
701.703	3829.87
701.892	3776.63
702.08	3817.58
702.269	3821.68
702.457	3815.54
702.646	3844.21
702.834	3647.6
703.023	3848.3
703.212	3817.58
703.4	3801.2
703.589	3635.32
703.777	3790.96
703.965	3688.56
704.154	3676.27
704.342	3608.69
704.531	3772.53
704.719	3586.16
704.907	3829.87
705.096	3524.72
705.284	3616.88
705.472	3635.32
705.661	3557.49
705.849	3602.55
706.037	3563.64
706.226	3580.02
706.414	3602.55
706.602	3393.65
706.79	3639.41
706.979	3551.35
707.167	3485.81
707.355	3498.1
707.543	3704.95
707.731	3594.36
707.919	3567.73
708.107	3422.33
708.296	3373.18
708.484	3354.74
708.672	3451
708.86	3510.39
709.048	3422.33
709.236	3328.12
709.424	3371.13
709.612	3311.74
709.8	3328.12
709.988	3420.28
710.176	3467.38
710.364	3393.65
710.551	3287.16
710.739	3420.28
710.927	3283.06
711.115	3350.65
711.303	3321.98
711.491	3352.7
711.679	3274.87
711.866	3252.35
712.054	3346.55
712.242	3190.91
712.43	3311.74
712.617	3238.01
712.805	3240.06
712.993	3250.3
713.181	3151.99
713.368	3229.82
713.556	3168.38
713.744	3100.8
713.931	3420.28
714.119	3199.1
714.306	3178.62
714.494	3059.84
714.682	3098.75
714.869	3098.75
715.057	3119.23
715.244	3061.88
715.432	2961.53
715.619	3139.71
715.807	3049.6
715.994	2939.01
716.182	3000.44
716.369	2984.06
716.556	2975.87
716.744	3027.07
716.931	2992.25
717.119	2912.38
717.306	2955.39
717.493	3002.49
717.681	2904.19
717.868	2904.19
718.055	2912.38
718.242	2922.62
718.43	2918.53
718.617	2893.95
718.804	2992.25
718.991	3016.83
719.179	2898.05
719.366	3041.4
719.553	2949.25
719.74	2881.66
719.927	2857.09
720.114	2869.37
720.301	2914.43
720.488	2836.61
720.676	2844.8
720.863	2832.51
721.05	2875.52
721.237	2660.48
721.424	2726.02
721.611	2877.57
721.798	2640
721.985	2713.73
722.172	2691.2
722.358	2750.59
722.545	2869.37
722.732	2672.77
722.919	2680.96
723.106	2689.15
723.293	2666.63
723.48	2748.54
723.667	2566.28
723.853	2738.3
724.04	2588.8
724.227	2699.39
724.414	2678.91
724.6	2543.75
724.787	2730.11
724.974	2672.77
725.161	2693.25
725.347	2631.81
725.534	2633.86
725.72	2683.01
725.907	2680.96
726.094	2607.23
726.28	2590.85
726.467	2500.74
726.653	2517.12
726.84	2769.02
727.027	2699.39
727.213	2623.62
727.4	2541.7
727.586	2553.99
727.773	2386.05
727.959	2463.88
728.145	2531.46
728.332	2420.87
728.518	2406.53
728.705	2513.03
728.891	2529.41
729.077	2560.13
729.264	2467.97
729.45	2441.35
729.636	2398.34
729.823	2445.45
730.009	2461.83
730.195	2410.63
730.382	2388.1
730.568	2398.34
730.754	2371.72
730.94	2443.4
731.126	2435.21
731.313	2449.54
731.499	2308.23
731.685	2447.49
731.871	2408.58
732.057	2429.06
732.243	2287.75
732.429	2400.39
732.615	2365.57
732.801	2459.78
732.987	2316.42
733.173	2355.33
733.359	2275.46
733.545	2324.62
733.731	2320.52
733.917	2306.18
734.103	2334.86
734.289	2271.37
734.475	2205.83
734.661	2381.96
734.847	2306.18
735.033	2257.03
735.219	2289.8
735.404	2271.37
735.59	2123.91
735.776	2148.49
735.962	2175.11
736.148	2166.92
736.333	2197.64
736.519	2197.64
736.705	2232.46
736.89	2189.45
737.076	2302.09
737.262	2216.07
737.447	2119.82
737.633	2238.6
737.819	2222.22
738.004	2132.11
738.19	2044.04
738.375	2164.87
738.561	2166.92
738.747	2136.2
738.932	2164.87
739.118	2209.93
739.303	2093.19
739.489	2128.01
739.674	2052.24
739.859	2082.95
740.045	2052.24
740.23	2046.09
740.416	2085
740.601	2011.28
740.786	1972.36
740.972	1962.12
741.157	1998.99
741.342	1927.31
741.528	1998.99
741.713	2099.34
741.898	2033.8
742.084	2019.47
742.269	1943.69
742.454	2009.23
742.639	1951.88
742.824	1902.73
743.01	2017.42
743.195	2054.28
743.38	1915.02
743.565	1861.77
743.75	1865.87
743.935	1902.73
744.12	1904.78
744.305	1869.97
744.49	1765.52
744.675	1779.86
744.86	1882.25
745.045	1833.1
745.23	1798.29
745.415	1841.29
745.6	1812.62
745.785	1763.47
745.97	1673.36
746.155	1706.13
746.34	1863.82
746.525	1783.95
746.71	1820.81
746.895	1624.21
747.079	1607.83
747.264	1702.03
747.449	1724.56
747.634	1747.09
747.819	1720.46
748.003	1652.88
748.188	1714.32
748.373	1648.79
748.557	1632.4
748.742	1687.7
748.927	1542.29
749.111	1706.13
749.296	1566.87
749.481	1659.03
749.665	1605.78
749.85	1585.3
750.034	1495.19
750.219	1566.87
750.404	1511.57
750.588	1466.52
750.773	1435.8
750.957	1624.21
751.141	1460.37
751.326	1521.81
751.51	1448.08
751.695	1372.31
751.879	1421.46
752.064	1468.56
752.248	1417.37
752.432	1403.03
752.617	1351.83
752.801	1382.55
752.985	1411.22
753.17	1439.89
753.354	1478.8
753.538	1378.45
753.722	1282.2
753.907	1394.84
754.091	1317.01
754.275	1312.92
754.459	1357.97
754.643	1341.59
754.828	1237.14
755.012	1323.16
755.196	1241.24
755.38	1259.67
755.564	1314.97
755.748	1312.92
755.932	1296.53
756.116	1224.86
756.3	1271.96
756.484	1241.24
756.668	1231
756.852	1122.46
757.036	1167.51
757.22	1110.17
757.404	1110.17
757.588	1144.99
757.772	1179.8
757.956	1155.23
758.14	1163.42
758.323	1042.59
758.507	1157.27
758.691	1081.5
758.875	1110.17
759.059	1046.68
759.242	1067.16
759.426	1071.26
759.61	1058.97
759.794	1034.39
759.977	1069.21
760.161	1153.18
760.345	919.71
760.528	1124.51
760.712	1067.16
760.895	1091.74
761.079	1005.72
761.263	954.52
761.446	997.53
761.63	1075.35
761.813	1005.72
761.997	991.39
762.18	993.44
762.364	1077.4
762.547	927.9
762.731	911.52
762.914	954.52
763.098	913.56
763.281	938.14
763.464	1001.63
763.648	905.37
763.831	944.28
764.015	868.51
764.198	878.75
764.381	1028.25
764.564	878.75
764.748	927.9
764.931	940.19
765.114	919.71
765.297	915.61
765.481	848.03
765.664	886.94
765.847	870.56
766.03	897.18
766.213	798.88
766.397	856.22
766.58	888.99
766.763	893.09
766.946	886.94
767.129	858.27
767.312	934.04
767.495	825.5
767.678	805.02
767.861	899.23
768.044	831.65
768.227	913.56
768.41	831.65
768.593	940.19
768.776	864.41
768.959	858.27
769.142	903.32
769.324	837.79
769.507	800.93
769.69	778.4
769.873	862.37
770.056	856.22
770.239	764.06
770.421	759.97
770.604	805.02
770.787	839.84
770.97	858.27
771.152	862.37
771.335	850.08
771.518	815.26
771.7	850.08
771.883	872.61
772.066	702.62
772.248	794.78
772.431	800.93
772.613	813.21
772.796	714.91
772.978	841.89
773.161	741.54
773.343	764.06
773.526	682.14
773.708	741.54
773.891	719.01
774.073	686.24
774.256	706.72
774.438	757.92
774.621	686.24
774.803	778.4
774.985	628.9
775.168	749.73
775.35	694.43
775.532	684.19
775.715	714.91
775.897	643.23
776.079	637.09
776.261	686.24
776.444	680.1
776.626	657.57
776.808	608.42
776.99	651.42
777.173	622.75
777.355	690.34
777.537	628.9
777.719	661.66
777.901	567.46
778.083	641.18
778.265	561.31
778.447	635.04
778.629	569.51
778.811	526.5
778.993	639.14
779.175	626.85
779.357	544.93
779.539	551.07
779.721	673.95
779.903	678.05
780.085	653.47
780.267	532.64
780.449	569.51
780.631	632.99
780.812	542.88
780.994	520.35
781.176	557.22
781.358	526.5
781.54	585.89
781.721	561.31
781.903	506.02
782.085	514.21
782.267	563.36
782.448	485.54
782.63	436.39
782.812	479.4
782.993	518.31
783.175	473.25
783.357	460.96
783.538	422.05
783.72	501.92
783.901	506.02
784.083	448.68
784.264	424.1
784.446	467.11
784.627	372.9
784.809	532.64
784.99	440.48
785.172	473.25
785.353	510.11
785.535	383.14
785.716	422.05
785.897	434.34
786.079	452.77
786.26	422.05
786.441	460.96
786.623	370.85
786.804	379.04
786.985	444.58
787.167	407.72
787.348	364.71
787.529	338.09
787.71	452.77
787.891	424.1
788.073	403.62
788.254	358.57
788.435	456.87
788.616	401.57
788.797	370.85
788.978	430.24
789.159	346.28
789.34	331.94
789.522	356.52
789.703	424.1
789.884	379.04
790.065	340.13
790.246	358.57
790.427	250.02
790.607	417.96
790.788	350.37
790.969	366.76
791.15	379.04
791.331	370.85
791.512	362.66
791.693	352.42
791.874	356.52
792.054	362.66
792.235	338.09
792.416	272.55
792.597	313.51
792.778	360.61
792.958	260.26
793.139	383.14
793.32	336.04
793.5	317.61
793.681	364.71
793.862	245.93
794.042	307.37
794.223	194.73
794.404	256.17
794.584	237.74
794.765	346.28
794.945	270.5
795.126	299.17
795.306	329.89
795.487	256.17
795.667	336.04
795.848	301.22
796.028	231.59
796.209	309.41
796.389	288.93
796.57	274.6
796.75	266.41
796.93	215.21
797.111	256.17
797.291	288.93
797.471	231.59
797.652	307.37
797.832	264.36
798.012	379.04
798.192	286.89
798.373	243.88
798.553	241.83
798.733	200.87
798.913	198.82
799.093	159.91
799.274	268.45
799.454	198.82
799.634	303.27
799.814	297.13
799.994	225.45
800.174	290.98
800.354	264.36
800.534	225.45
800.714	231.59
800.894	219.3
801.074	215.21
801.254	215.21
801.434	297.13
801.614	190.63
801.794	157.86
801.974	845.98
802.154	223.4
802.334	217.26
802.514	202.92
802.693	256.17
802.873	153.77
803.053	229.54
803.233	190.63
803.413	168.1
803.592	225.45
803.772	235.69
803.952	151.72
804.131	92.33
804.311	225.45
804.491	264.36
804.67	149.67
804.85	133.29
805.03	180.39
805.209	239.78
805.389	151.72
805.568	276.65
805.748	196.78
805.928	247.97
806.107	207.02
806.287	145.58
806.466	245.93
806.646	192.68
806.825	125.1
807.004	190.63
807.184	207.02
807.363	221.35
807.543	241.83
807.722	178.34
807.901	260.26
808.081	239.78
808.26	67.75
808.439	168.1
808.619	161.96
808.798	143.53
808.977	157.86
809.156	182.44
809.336	223.4
809.515	196.78
809.694	108.71
809.873	190.63
810.052	73.9
810.231	170.15
810.411	153.77
810.59	237.74
810.769	127.14
810.948	159.91
811.127	143.53
811.306	141.48
811.485	235.69
811.664	190.63
811.843	143.53
812.022	215.21
812.201	157.86
812.38	37.03
812.559	151.72
812.737	164.01
812.916	96.43
813.095	137.38
813.274	155.82
813.453	161.96
813.632	71.85
813.811	188.58
813.989	92.33
814.168	161.96
814.347	61.61
814.526	182.44
814.704	161.96
814.883	125.1
815.062	112.81
815.24	147.62
815.419	100.52
815.598	129.19
815.776	129.19
815.955	157.86
816.133	30.89
816.312	235.69
816.49	88.23
816.669	77.99
816.847	168.1
817.026	133.29
817.204	88.23
817.383	59.56
817.561	118.95
817.74	180.39
817.918	176.3
818.097	100.52
818.275	67.75
818.453	84.14
818.632	77.99
818.81	100.52
818.988	108.71
819.167	108.71
819.345	170.15
819.523	133.29
819.701	180.39
819.879	153.77
820.058	100.52
820.236	100.52
820.414	106.67
820.592	51.37
820.77	121
820.948	102.57
821.127	155.82
821.305	121
821.483	75.95
821.661	133.29
821.839	145.58
822.017	125.1
822.195	145.58
822.373	211.11
822.551	127.14
822.729	137.38
822.907	34.99
823.085	176.3
823.262	176.3
823.44	94.38
823.618	84.14
823.796	116.9
823.974	84.14
824.152	59.56
824.329	155.82
824.507	127.14
824.685	141.48
824.863	133.29
825.04	114.86
825.218	104.62
825.396	94.38
825.574	141.48
825.751	51.37
825.929	127.14
826.107	61.61
826.284	55.47
826.462	100.52
826.639	67.75
826.817	61.61
826.994	139.43
827.172	45.23
827.349	133.29
827.527	77.99
827.704	118.95
827.882	145.58
828.059	61.61
828.237	100.52
828.414	137.38
828.591	77.99
828.769	92.33
828.946	116.9
829.124	106.67
829.301	37.03
829.478	198.82
829.655	104.62
829.833	88.23
830.01	26.79
830.187	84.14
830.364	71.85
830.542	73.9
830.719	71.85
830.896	125.1
831.073	108.71
831.25	67.75
831.427	51.37
831.604	94.38
831.782	75.95
831.959	88.23
832.136	65.71
832.313	47.27
832.49	135.34
832.667	75.95
832.844	-3.93
833.021	75.95
833.198	67.75
833.374	41.13
833.551	118.95
833.728	28.84
833.905	82.09
834.082	-14.17
834.259	26.79
834.436	104.62
834.612	10.41
834.789	84.14
834.966	100.52
835.143	69.8
835.319	45.23
835.496	100.52
835.673	43.18
835.85	51.37
836.026	98.47
836.203	71.85
836.38	34.99
836.556	26.79
836.733	49.32
836.909	-1.88
837.086	28.84
837.262	53.42
837.439	24.75
837.616	77.99
837.792	65.71
837.968	84.14
838.145	26.79
838.321	69.8
838.498	59.56
838.674	67.75
838.851	94.38
839.027	75.95
839.203	88.23
839.38	96.43
839.556	14.51
839.732	100.52
839.909	75.95
840.085	96.43
840.261	59.56
840.437	53.42
840.614	55.47
840.79	20.65
840.966	28.84
841.142	28.84
841.318	77.99
841.494	100.52
841.671	55.47
841.847	53.42
842.023	57.51
842.199	86.19
842.375	32.94
842.551	47.27
842.727	61.61
842.903	127.14
843.079	12.46
843.255	110.76
843.431	55.47
843.607	84.14
843.783	28.84
843.959	92.33
844.134	43.18
844.31	49.32
844.486	37.03
844.662	26.79
844.838	84.14
845.013	-18.26
845.189	18.6
845.365	65.71
845.541	51.37
845.716	37.03
845.892	43.18
846.068	92.33
846.244	-14.17
846.419	69.8
846.595	34.99
846.77	41.13
846.946	41.13
847.122	-5.97
847.297	30.89
847.473	125.1
847.648	-18.26
847.824	34.99
847.999	61.61
848.175	75.95
848.35	43.18
848.526	51.37
848.701	116.9
848.876	80.04
849.052	6.31
849.227	26.79
849.403	-22.36
849.578	51.37
849.753	51.37
849.929	47.27
850.104	4.27
850.279	-20.31
850.454	-10.07
850.63	59.56
850.805	55.47
850.98	-44.88
851.155	2.22
851.33	51.37
851.505	6.31
851.681	92.33
851.856	12.46
852.031	71.85
852.206	86.19
852.381	43.18
852.556	45.23
852.731	-8.02
852.906	39.08
853.081	-5.97
853.256	84.14
853.431	61.61
853.606	-16.21
853.781	86.19
853.956	-61.27
854.131	26.79
854.305	-18.26
854.48	-22.36
854.655	51.37
854.83	43.18
855.005	-5.97
855.18	86.19
855.354	20.65
855.529	59.56
855.704	-16.21
855.879	80.04
856.053	-14.17
856.228	22.7
856.403	-32.6
856.577	34.99
856.752	10.41
856.926	10.41
857.101	84.14
857.276	22.7
857.45	45.23
857.625	67.75
857.799	32.94
857.974	18.6
858.148	-53.08
858.323	51.37
858.497	12.46
858.672	30.89
858.846	84.14
859.02	90.28
859.195	2.22
859.369	67.75
859.543	18.6
859.718	37.03
859.892	6.31
860.066	28.84
860.241	55.47
860.415	14.51
860.589	37.03
860.763	22.7
860.938	12.46
861.112	53.42
861.286	30.89
861.46	-42.84
861.634	30.89
861.808	28.84
861.982	-28.5
862.157	30.89
862.331	22.7
862.505	-20.31
862.679	26.79
862.853	2.22
863.027	-12.12
863.201	84.14
863.375	10.41
863.549	47.27
863.722	37.03
863.896	-20.31
864.07	10.41
864.244	57.51
864.418	-36.69
864.592	8.36
864.766	6.31
864.939	-1.88
865.113	-53.08
865.287	-28.5
865.461	-73.56
865.634	-18.26
865.808	-10.07
865.982	18.6
866.156	-26.45
866.329	14.51
866.503	53.42
866.676	59.56
866.85	-1.88
867.024	-14.17
867.197	37.03
867.371	108.71
867.544	51.37
867.718	-42.84
867.891	55.47
868.065	6.31
868.238	-1.88
868.412	47.27
868.585	10.41
868.759	116.9
868.932	108.71
869.105	-3.93
869.279	77.99
869.452	16.55
869.625	55.47
869.799	28.84
869.972	-1.88
870.145	-14.17
870.319	102.57
870.492	14.51
870.665	-26.45
870.838	-8.02
871.011	-79.7
871.185	-24.4
871.358	-1.88
871.531	59.56
871.704	-55.12
871.877	6.31
872.05	-28.5
872.223	43.18
872.396	59.56
872.569	67.75
872.742	-42.84
872.915	37.03
873.088	-10.07
873.261	28.84
873.434	39.08
873.607	67.75
873.78	18.6
873.953	8.36
874.126	55.47
874.299	10.41
874.471	-46.93
874.644	-28.5
874.817	39.08
874.99	143.53
875.163	-8.02
875.335	2.22
875.508	30.89
875.681	59.56
875.853	26.79
876.026	43.18
876.199	41.13
876.371	51.37
876.544	22.7
876.717	37.03
876.889	6.31
877.062	-46.93
877.234	-30.55
877.407	-22.36
877.579	-1.88
877.752	-24.4
877.924	51.37
878.097	-5.97
878.269	10.41
878.442	-53.08
878.614	8.36
878.786	18.6
878.959	-22.36
879.131	69.8
879.303	-63.32
879.476	77.99
879.648	22.7
879.82	-14.17
879.993	-14.17
880.165	-30.55
880.337	-5.97
880.509	-34.64
880.681	12.46
880.854	-63.32
881.026	-28.5
881.198	51.37
881.37	22.7
881.542	75.95
881.714	2.22
881.886	-46.93
882.058	43.18
882.23	28.84
882.402	-28.5
882.574	-16.21
882.746	-20.31
882.918	49.32
883.09	75.95
883.262	-38.74
883.434	14.51
883.606	-42.84
883.778	18.6
883.95	75.95
884.122	-91.99
884.293	20.65
884.465	-30.55
884.637	39.08
884.809	-40.79
884.98	61.61
885.152	-10.07
885.324	55.47
885.496	4.27
885.667	-32.6
885.839	28.84
886.011	26.79
886.182	51.37
886.354	34.99
886.525	14.51
886.697	-26.45
886.869	4.27
887.04	59.56
887.212	43.18
887.383	67.75
887.555	20.65
887.726	-30.55
887.897	-10.07
888.069	-14.17
888.24	86.19
888.412	-36.69
888.583	22.7
888.754	-5.97
888.926	-42.84
889.097	-61.27
889.268	-18.26
889.44	41.13
889.611	-104.28
889.782	-36.69
889.953	-102.23
890.125	49.32
890.296	-32.6
890.467	-32.6
890.638	4.27
890.809	51.37
890.98	26.79
891.151	34.99
891.323	-18.26
891.494	20.65
891.665	34.99
891.836	-3.93
892.007	-36.69
892.178	53.42
892.349	-5.97
892.52	-34.64
892.691	75.95
892.862	-10.07
893.032	-8.02
893.203	-34.64
893.374	-28.5
893.545	20.65
893.716	34.99
893.887	28.84
894.057	18.6
894.228	-10.07
894.399	-14.17
894.57	10.41
894.74	39.08
894.911	53.42
895.082	4.27
895.253	43.18
895.423	39.08
895.594	51.37
895.764	30.89
895.935	-5.97
896.106	-5.97
896.276	-53.08
896.447	-34.64
896.617	-44.88
896.788	14.51
896.958	-34.64
897.129	-20.31
897.299	2.22
897.47	2.22
897.64	18.6
897.81	22.7
897.981	43.18
898.151	-26.45
898.322	16.55
898.492	-10.07
898.662	-12.12
898.832	-8.02
899.003	0.17
899.173	28.84
899.343	-5.97
899.513	12.46
