Data from USB4F104151__109__14-31-05-188.txt Node

Date: Thu Mar 13 14:31:05 EDT 2025
User: louis
Spectrometer: USB4F10415
Trigger mode: 4
Integration Time (sec): 2.500000E-2
Scans to average: 1
Electric dark correction enabled: true
Nonlinearity correction enabled: false
Boxcar width: 0
XAxis mode: Wavelengths
Number of Pixels in Spectrum: 3648
>>>>>Begin Spectral Data<<<<<
178.204	-210.94
178.424	-210.94
178.644	-210.94
178.864	-143.36
179.084	-135.17
179.304	47.1
179.524	-4.1
179.744	-4.1
179.964	8.19
180.184	36.86
180.404	-6.14
180.624	-10.24
180.844	20.48
181.064	-24.58
181.283	-28.67
181.503	-6.14
181.723	-28.67
181.943	-59.39
182.163	57.34
182.383	-28.67
182.602	53.25
182.822	12.29
183.042	28.67
183.262	-16.38
183.482	-12.29
183.701	71.68
183.921	36.86
184.141	-38.91
184.361	28.67
184.58	71.68
184.8	55.3
185.02	36.86
185.239	45.06
185.459	-2.05
185.679	110.59
185.898	-8.19
186.118	53.25
186.338	4.1
186.557	69.63
186.777	-12.29
186.997	-100.35
187.216	24.58
187.436	81.92
187.655	79.87
187.875	40.96
188.095	-2.05
188.314	36.86
188.534	77.82
188.753	10.24
188.973	38.91
189.192	104.45
189.412	51.2
189.631	24.58
189.851	22.53
190.07	-18.43
190.29	4.1
190.509	14.34
190.729	32.77
190.948	104.45
191.168	151.55
191.387	139.26
191.607	86.01
191.826	71.68
192.045	38.91
192.265	45.06
192.484	2.05
192.704	45.06
192.923	36.86
193.142	88.06
193.362	47.1
193.581	12.29
193.8	47.1
194.02	22.53
194.239	100.35
194.458	40.96
194.678	-12.29
194.897	30.72
195.116	94.21
195.335	30.72
195.555	28.67
195.774	2.05
195.993	86.01
196.212	53.25
196.432	20.48
196.651	36.86
196.87	49.15
197.089	110.59
197.308	36.86
197.528	47.1
197.747	-20.48
197.966	14.34
198.185	69.63
198.404	12.29
198.623	14.34
198.842	69.63
199.062	100.35
199.281	30.72
199.5	75.77
199.719	-16.38
199.938	45.06
200.157	22.53
200.376	18.43
200.595	81.92
200.814	36.86
201.033	79.87
201.252	45.06
201.471	22.53
201.69	55.3
201.909	55.3
202.128	118.78
202.347	36.86
202.566	-12.29
202.785	69.63
203.004	-34.82
203.223	98.3
203.442	69.63
203.661	-10.24
203.879	10.24
204.098	-2.05
204.317	-30.72
204.536	77.82
204.755	20.48
204.974	102.4
205.193	90.11
205.411	151.55
205.63	8.19
205.849	36.86
206.068	4.1
206.287	77.82
206.505	-4.1
206.724	57.34
206.943	69.63
207.162	20.48
207.381	51.2
207.599	28.67
207.818	4.1
208.037	16.38
208.255	38.91
208.474	116.73
208.693	69.63
208.911	92.16
209.13	94.21
209.349	-36.86
209.567	61.44
209.786	86.01
210.005	61.44
210.223	38.91
210.442	22.53
210.661	47.1
210.879	36.86
211.098	12.29
211.316	47.1
211.535	77.82
211.753	-36.86
211.972	77.82
212.191	6.14
212.409	45.06
212.628	20.48
212.846	8.19
213.065	-20.48
213.283	98.3
213.502	22.53
213.72	-8.19
213.938	49.15
214.157	98.3
214.375	22.53
214.594	34.82
214.812	49.15
215.031	30.72
215.249	47.1
215.467	77.82
215.686	0
215.904	129.02
216.122	38.91
216.341	86.01
216.559	-2.05
216.778	86.01
216.996	20.48
217.214	22.53
217.432	10.24
217.651	-38.91
217.869	79.87
218.087	88.06
218.306	49.15
218.524	-18.43
218.742	-18.43
218.96	102.4
219.179	-4.1
219.397	20.48
219.615	86.01
219.833	108.54
220.051	-26.62
220.27	4.1
220.488	28.67
220.706	71.68
220.924	2.05
221.142	20.48
221.36	34.82
221.578	30.72
221.796	4.1
222.015	112.64
222.233	36.86
222.451	94.21
222.669	-51.2
222.887	45.06
223.105	47.1
223.323	-20.48
223.541	8.19
223.759	55.3
223.977	-40.96
224.195	79.87
224.413	67.58
224.631	55.3
224.849	24.58
225.067	47.1
225.285	59.39
225.503	55.3
225.721	-77.82
225.939	22.53
226.157	20.48
226.375	129.02
226.592	-75.77
226.81	126.97
227.028	32.77
227.246	77.82
227.464	77.82
227.682	90.11
227.9	40.96
228.117	145.41
228.335	20.48
228.553	28.67
228.771	24.58
228.989	4.1
229.206	86.01
229.424	20.48
229.642	6.14
229.86	-79.87
230.077	40.96
230.295	8.19
230.513	75.77
230.731	57.34
230.948	61.44
231.166	77.82
231.384	-36.86
231.601	32.77
231.819	100.35
232.037	69.63
232.254	12.29
232.472	112.64
232.689	20.48
232.907	110.59
233.125	63.49
233.342	102.4
233.56	14.34
233.777	61.44
233.995	-36.86
234.213	2.05
234.43	45.06
234.648	61.44
234.865	-36.86
235.083	75.77
235.3	90.11
235.518	-32.77
235.735	73.73
235.953	69.63
236.17	38.91
236.388	92.16
236.605	77.82
236.822	45.06
237.04	-4.1
237.257	131.07
237.475	10.24
237.692	55.3
237.909	73.73
238.127	47.1
238.344	106.49
238.562	65.54
238.779	71.68
238.996	81.92
239.214	24.58
239.431	100.35
239.648	-45.06
239.865	53.25
240.083	53.25
240.3	30.72
240.517	53.25
240.735	86.01
240.952	53.25
241.169	126.97
241.386	40.96
241.603	4.1
241.821	-20.48
242.038	47.1
242.255	61.44
242.472	14.34
242.689	24.58
242.907	67.58
243.124	28.67
243.341	-28.67
243.558	32.77
243.775	40.96
243.992	8.19
244.209	40.96
244.426	135.17
244.643	90.11
244.86	120.83
245.078	28.67
245.295	71.68
245.512	28.67
245.729	65.54
245.946	51.2
246.163	53.25
246.38	16.38
246.597	16.38
246.814	114.69
247.031	73.73
247.248	77.82
247.464	45.06
247.681	120.83
247.898	49.15
248.115	120.83
248.332	43.01
248.549	73.73
248.766	90.11
248.983	53.25
249.2	20.48
249.417	90.11
249.633	4.1
249.85	61.44
250.067	71.68
250.284	20.48
250.501	24.58
250.717	79.87
250.934	38.91
251.151	16.38
251.368	49.15
251.585	53.25
251.801	122.88
252.018	53.25
252.235	36.86
252.451	69.63
252.668	-26.62
252.885	143.36
253.102	20.48
253.318	30.72
253.535	22.53
253.752	12.29
253.968	30.72
254.185	63.49
254.401	55.3
254.618	32.77
254.835	12.29
255.051	98.3
255.268	22.53
255.484	96.25
255.701	14.34
255.917	6.14
256.134	0
256.351	104.45
256.567	22.53
256.784	94.21
257	-69.63
257.217	32.77
257.433	57.34
257.65	45.06
257.866	71.68
258.082	-86.01
258.299	22.53
258.515	-2.05
258.732	32.77
258.948	18.43
259.165	53.25
259.381	63.49
259.597	36.86
259.814	6.14
260.03	65.54
260.246	12.29
260.463	65.54
260.679	79.87
260.895	28.67
261.112	61.44
261.328	53.25
261.544	-34.82
261.761	110.59
261.977	55.3
262.193	-2.05
262.409	51.2
262.626	32.77
262.842	20.48
263.058	55.3
263.274	57.34
263.49	77.82
263.707	47.1
263.923	53.25
264.139	45.06
264.355	61.44
264.571	86.01
264.787	45.06
265.004	106.49
265.22	49.15
265.436	32.77
265.652	28.67
265.868	51.2
266.084	45.06
266.3	24.58
266.516	0
266.732	45.06
266.948	-18.43
267.164	34.82
267.38	36.86
267.596	-12.29
267.812	149.5
268.028	51.2
268.244	77.82
268.46	86.01
268.676	-10.24
268.892	102.4
269.108	-4.1
269.324	-16.38
269.54	28.67
269.756	32.77
269.972	-18.43
270.188	-8.19
270.403	-2.05
270.619	8.19
270.835	49.15
271.051	38.91
271.267	73.73
271.483	16.38
271.698	0
271.914	28.67
272.13	-47.1
272.346	45.06
272.562	6.14
272.777	114.69
272.993	75.77
273.209	10.24
273.425	55.3
273.64	8.19
273.856	73.73
274.072	6.14
274.287	53.25
274.503	40.96
274.719	40.96
274.934	45.06
275.15	-20.48
275.366	-36.86
275.581	16.38
275.797	12.29
276.012	69.63
276.228	-10.24
276.444	40.96
276.659	88.06
276.875	32.77
277.09	47.1
277.306	32.77
277.521	24.58
277.737	10.24
277.952	47.1
278.168	47.1
278.383	28.67
278.599	-16.38
278.814	106.49
279.03	6.14
279.245	133.12
279.461	-8.19
279.676	108.54
279.892	65.54
280.107	20.48
280.322	2.05
280.538	45.06
280.753	-4.1
280.969	79.87
281.184	4.1
281.399	40.96
281.615	8.19
281.83	118.78
282.045	-8.19
282.26	-69.63
282.476	53.25
282.691	61.44
282.906	10.24
283.122	20.48
283.337	22.53
283.552	-12.29
283.767	12.29
283.983	53.25
284.198	0
284.413	36.86
284.628	61.44
284.843	118.78
285.058	69.63
285.274	98.3
285.489	-14.34
285.704	67.58
285.919	20.48
286.134	57.34
286.349	65.54
286.564	12.29
286.779	53.25
286.995	124.93
287.21	-43.01
287.425	28.67
287.64	-4.1
287.855	129.02
288.07	28.67
288.285	83.97
288.5	86.01
288.715	45.06
288.93	4.1
289.145	22.53
289.36	53.25
289.575	20.48
289.79	38.91
290.004	63.49
290.219	73.73
290.434	38.91
290.649	18.43
290.864	43.01
291.079	61.44
291.294	63.49
291.509	16.38
291.724	40.96
291.938	-24.58
292.153	65.54
292.368	30.72
292.583	106.49
292.798	55.3
293.012	40.96
293.227	28.67
293.442	20.48
293.657	38.91
293.871	77.82
294.086	102.4
294.301	-4.1
294.516	43.01
294.73	61.44
294.945	73.73
295.16	26.62
295.374	53.25
295.589	63.49
295.804	47.1
296.018	129.02
296.233	94.21
296.447	-30.72
296.662	-30.72
296.877	47.1
297.091	94.21
297.306	88.06
297.52	-22.53
297.735	110.59
297.949	36.86
298.164	61.44
298.378	98.3
298.593	14.34
298.807	4.1
299.022	32.77
299.236	92.16
299.451	47.1
299.665	30.72
299.88	8.19
300.094	96.25
300.309	-18.43
300.523	-20.48
300.737	53.25
300.952	86.01
301.166	126.97
301.381	-12.29
301.595	8.19
301.809	71.68
302.024	12.29
302.238	8.19
302.452	45.06
302.667	53.25
302.881	77.82
303.095	45.06
303.309	96.25
303.524	6.14
303.738	-51.2
303.952	36.86
304.166	53.25
304.381	26.62
304.595	61.44
304.809	40.96
305.023	12.29
305.237	53.25
305.452	102.4
305.666	94.21
305.88	16.38
306.094	47.1
306.308	45.06
306.522	34.82
306.736	59.39
306.95	106.49
307.164	8.19
307.379	-55.3
307.593	2.05
307.807	88.06
308.021	69.63
308.235	61.44
308.449	2.05
308.663	61.44
308.877	24.58
309.091	104.45
309.305	45.06
309.519	12.29
309.733	122.88
309.947	36.86
310.161	77.82
310.374	61.44
310.588	116.73
310.802	57.34
311.016	-18.43
311.23	57.34
311.444	-4.1
311.658	34.82
311.872	143.36
312.085	61.44
312.299	79.87
312.513	102.4
312.727	106.49
312.941	8.19
313.154	22.53
313.368	53.25
313.582	4.1
313.796	28.67
314.009	-4.1
314.223	51.2
314.437	53.25
314.651	90.11
314.864	96.25
315.078	-12.29
315.292	12.29
315.505	-36.86
315.719	28.67
315.933	-4.1
316.146	49.15
316.36	-71.68
316.573	61.44
316.787	118.78
317.001	61.44
317.214	30.72
317.428	106.49
317.641	-32.77
317.855	61.44
318.068	106.49
318.282	43.01
318.495	159.74
318.709	102.4
318.922	61.44
319.136	73.73
319.349	49.15
319.563	-2.05
319.776	104.45
319.99	-14.34
320.203	24.58
320.417	-10.24
320.63	108.54
320.843	126.97
321.057	-6.14
321.27	59.39
321.483	61.44
321.697	104.45
321.91	47.1
322.124	40.96
322.337	110.59
322.55	-18.43
322.763	57.34
322.977	-2.05
323.19	47.1
323.403	63.49
323.617	86.01
323.83	61.44
324.043	-2.05
324.256	61.44
324.469	36.86
324.683	102.4
324.896	53.25
325.109	106.49
325.322	-16.38
325.535	83.97
325.748	73.73
325.962	8.19
326.175	16.38
326.388	45.06
326.601	-36.86
326.814	14.34
327.027	69.63
327.24	71.68
327.453	-26.62
327.666	120.83
327.879	38.91
328.092	159.74
328.305	45.06
328.518	36.86
328.731	26.62
328.944	22.53
329.157	8.19
329.37	96.25
329.583	106.49
329.796	86.01
330.009	86.01
330.222	75.77
330.435	28.67
330.648	53.25
330.861	-2.05
331.073	53.25
331.286	86.01
331.499	79.87
331.712	36.86
331.925	32.77
332.138	30.72
332.35	114.69
332.563	-8.19
332.776	198.65
332.989	24.58
333.202	36.86
333.414	61.44
333.627	40.96
333.84	49.15
334.053	53.25
334.265	-4.1
334.478	10.24
334.691	61.44
334.903	30.72
335.116	30.72
335.329	40.96
335.541	79.87
335.754	96.25
335.966	40.96
336.179	20.48
336.392	16.38
336.604	28.67
336.817	28.67
337.029	77.82
337.242	77.82
337.454	57.34
337.667	16.38
337.88	88.06
338.092	-2.05
338.305	102.4
338.517	-10.24
338.729	83.97
338.942	112.64
339.154	98.3
339.367	-4.1
339.579	63.49
339.792	-16.38
340.004	53.25
340.217	4.1
340.429	59.39
340.641	34.82
340.854	73.73
341.066	45.06
341.278	28.67
341.491	55.3
341.703	8.19
341.915	108.54
342.128	94.21
342.34	40.96
342.552	10.24
342.764	30.72
342.977	53.25
343.189	120.83
343.401	65.54
343.613	51.2
343.826	38.91
344.038	-2.05
344.25	104.45
344.462	43.01
344.674	4.1
344.886	0
345.099	110.59
345.311	135.17
345.523	67.58
345.735	-6.14
345.947	104.45
346.159	20.48
346.371	36.86
346.583	8.19
346.795	86.01
347.007	8.19
347.219	47.1
347.431	8.19
347.643	20.48
347.855	40.96
348.067	40.96
348.279	38.91
348.491	38.91
348.703	151.55
348.915	106.49
349.127	8.19
349.339	20.48
349.551	47.1
349.763	71.68
349.975	118.78
350.187	73.73
350.399	86.01
350.61	83.97
350.822	47.1
351.034	32.77
351.246	53.25
351.458	94.21
351.669	98.3
351.881	45.06
352.093	79.87
352.305	145.41
352.517	14.34
352.728	86.01
352.94	53.25
353.152	131.07
353.363	4.1
353.575	55.3
353.787	81.92
353.999	32.77
354.21	159.74
354.422	106.49
354.633	-8.19
354.845	94.21
355.057	102.4
355.268	86.01
355.48	14.34
355.692	55.3
355.903	30.72
356.115	77.82
356.326	59.39
356.538	69.63
356.749	20.48
356.961	77.82
357.172	36.86
357.384	53.25
357.595	172.03
357.807	18.43
358.018	8.19
358.23	104.45
358.441	88.06
358.653	45.06
358.864	2.05
359.075	20.48
359.287	104.45
359.498	86.01
359.709	98.3
359.921	59.39
360.132	45.06
360.344	61.44
360.555	36.86
360.766	129.02
360.977	71.68
361.189	63.49
361.4	16.38
361.611	110.59
361.823	129.02
362.034	28.67
362.245	-43.01
362.456	59.39
362.667	49.15
362.879	69.63
363.09	102.4
363.301	102.4
363.512	75.77
363.723	81.92
363.935	69.63
364.146	126.97
364.357	28.67
364.568	94.21
364.779	69.63
364.99	126.97
365.201	-2.05
365.412	63.49
365.623	110.59
365.834	77.82
366.045	43.01
366.256	88.06
366.467	61.44
366.678	106.49
366.889	6.14
367.1	51.2
367.311	141.31
367.522	77.82
367.733	18.43
367.944	120.83
368.155	59.39
368.366	102.4
368.577	94.21
368.788	122.88
368.999	16.38
369.209	77.82
369.42	110.59
369.631	73.73
369.842	108.54
370.053	14.34
370.264	57.34
370.474	16.38
370.685	75.77
370.896	137.21
371.107	143.36
371.317	98.3
371.528	73.73
371.739	102.4
371.95	120.83
372.16	73.73
372.371	4.1
372.582	40.96
372.792	65.54
373.003	71.68
373.214	90.11
373.424	94.21
373.635	30.72
373.846	73.73
374.056	24.58
374.267	-2.05
374.477	98.3
374.688	22.53
374.898	100.35
375.109	30.72
375.319	77.82
375.53	98.3
375.74	28.67
375.951	94.21
376.161	69.63
376.372	112.64
376.582	14.34
376.793	45.06
377.003	36.86
377.214	53.25
377.424	131.07
377.635	55.3
377.845	-10.24
378.055	77.82
378.266	53.25
378.476	120.83
378.686	53.25
378.897	129.02
379.107	86.01
379.317	12.29
379.528	36.86
379.738	202.75
379.948	77.82
380.158	71.68
380.369	28.67
380.579	124.93
380.789	94.21
380.999	102.4
381.21	28.67
381.42	67.58
381.63	96.25
381.84	147.45
382.05	38.91
382.261	100.35
382.471	135.17
382.681	-10.24
382.891	69.63
383.101	53.25
383.311	28.67
383.521	94.21
383.731	61.44
383.941	137.21
384.151	47.1
384.361	61.44
384.571	77.82
384.781	69.63
384.991	112.64
385.201	110.59
385.411	43.01
385.621	114.69
385.831	67.58
386.041	14.34
386.251	88.06
386.461	110.59
386.671	14.34
386.881	83.97
387.091	71.68
387.301	126.97
387.511	47.1
387.72	129.02
387.93	47.1
388.14	36.86
388.35	96.25
388.56	79.87
388.769	86.01
388.979	47.1
389.189	112.64
389.399	77.82
389.609	110.59
389.818	102.4
390.028	73.73
390.238	104.45
390.447	90.11
390.657	51.2
390.867	126.97
391.076	98.3
391.286	129.02
391.496	129.02
391.705	57.34
391.915	86.01
392.125	143.36
392.334	88.06
392.544	102.4
392.753	139.26
392.963	53.25
393.172	108.54
393.382	86.01
393.591	155.65
393.801	86.01
394.01	159.74
394.22	143.36
394.429	86.01
394.639	137.21
394.848	100.35
395.058	77.82
395.267	118.78
395.477	57.34
395.686	112.64
395.895	235.52
396.105	247.8
396.314	139.26
396.524	143.36
396.733	145.41
396.942	167.93
397.152	129.02
397.361	200.7
397.57	79.87
397.78	61.44
397.989	167.93
398.198	204.8
398.407	174.08
398.617	143.36
398.826	77.82
399.035	77.82
399.244	75.77
399.453	159.74
399.663	188.41
399.872	184.32
400.081	163.84
400.29	225.28
400.499	143.36
400.708	196.61
400.917	159.74
401.127	159.74
401.336	69.63
401.545	233.47
401.754	243.71
401.963	143.36
402.172	94.21
402.381	192.51
402.59	202.75
402.799	159.74
403.008	135.17
403.217	129.02
403.426	145.41
403.635	141.31
403.844	129.02
404.053	245.76
404.262	61.44
404.471	219.13
404.68	192.51
404.888	249.85
405.097	143.36
405.306	176.13
405.515	227.32
405.724	184.32
405.933	206.84
406.142	270.33
406.35	256
406.559	251.9
406.768	196.61
406.977	274.43
407.185	245.76
407.394	276.48
407.603	231.42
407.812	208.89
408.02	309.24
408.229	225.28
408.438	225.28
408.646	221.18
408.855	311.29
409.064	362.49
409.272	358.39
409.481	374.78
409.69	387.07
409.898	387.07
410.107	348.15
410.315	456.7
410.524	397.31
410.733	450.55
410.941	421.88
411.15	464.89
411.358	503.8
411.567	421.88
411.775	479.22
411.984	493.56
412.192	544.76
412.401	520.18
412.609	630.77
412.818	598.01
413.026	628.73
413.234	641.01
413.443	692.21
413.651	720.89
413.86	710.65
414.068	858.1
414.276	788.47
414.485	800.76
414.693	843.76
414.901	950.26
415.11	868.34
415.318	856.05
415.526	921.59
415.734	995.31
415.943	901.11
416.151	987.12
416.359	1071.09
416.567	1085.42
416.776	1159.15
416.984	1175.53
417.192	1183.73
417.4	1316.84
417.608	1140.72
417.817	1284.08
418.025	1302.51
418.233	1505.26
418.441	1415.15
418.649	1470.44
418.857	1572.84
419.065	1560.55
419.273	1675.24
419.481	1724.39
419.689	1865.7
419.897	1800.16
420.105	1861.6
420.313	1994.72
420.521	2023.39
420.729	1951.71
420.937	2265.05
421.145	2240.48
421.353	2346.97
421.561	2469.85
421.769	2396.12
421.977	2637.78
422.185	2519
422.393	2809.81
422.601	2854.87
422.809	2781.14
423.017	2875.35
423.224	3004.37
423.432	3174.35
423.64	3172.3
423.848	3487.69
424.056	3461.07
424.263	3629
424.471	3592.14
424.679	3690.44
424.887	3848.13
425.094	3870.66
425.302	3938.24
425.51	3991.49
425.718	4210.62
425.925	4394.94
426.133	4581.31
426.341	4603.83
426.548	4868.02
426.756	4988.85
426.964	4974.52
427.171	5314.48
427.379	5482.41
427.586	5525.42
427.794	5525.42
428.001	5908.39
428.209	6197.15
428.417	6096.8
428.624	6565.79
428.832	6557.6
429.039	6358.94
429.247	6410.14
429.454	6983.57
429.662	7458.7
429.869	6926.23
430.076	7585.68
430.284	7337.87
430.491	7769.99
430.699	7985.03
430.906	8015.75
431.114	8247.17
431.321	8378.24
431.528	8634.24
431.736	9119.6
431.943	9617.26
432.15	9312.11
432.358	9514.86
432.565	10043.24
432.772	9774.95
432.979	10555.23
433.187	10532.7
433.394	10518.37
433.601	11554.64
433.808	11405.14
434.016	11231.06
434.223	11810.64
434.43	12443.46
434.637	12205.89
434.844	12951.35
435.052	13121.34
435.259	13186.87
435.466	13186.87
435.673	13217.59
435.88	13948.72
436.087	14714.66
436.294	14655.26
436.501	14376.74
436.708	14710.56
436.915	15249.18
437.122	15824.65
437.329	15769.36
437.537	16197.38
437.743	16789.25
437.95	16371.46
438.157	17313.53
438.364	18085.61
438.571	17778.42
438.778	18124.52
438.985	19312.35
439.192	18956
439.399	19457.75
439.606	18786.02
439.813	20133.58
440.02	21210.81
440.227	20979.39
440.433	20453.06
440.64	21409.47
440.847	20917.95
441.054	21667.51
441.261	23207.58
441.467	22802.08
441.674	23080.61
441.881	24481.42
442.088	23912.08
442.294	23768.73
442.501	24450.7
442.708	24868.48
442.914	26095.22
443.121	27037.28
443.328	26099.31
443.534	27831.9
443.741	27297.38
443.948	27137.63
444.154	28853.83
444.361	28735.05
444.568	28980.81
444.774	28739.15
444.981	29482.56
445.187	30070.33
445.394	31133.22
445.6	31030.82
445.807	33615.36
446.013	32095.77
446.22	32630.29
446.426	34393.59
446.633	34706.93
446.839	35562.98
447.046	34188.79
447.252	36341.21
447.459	35939.8
447.665	35997.15
447.871	37615.04
448.078	38884.78
448.284	37379.53
448.491	38608.31
448.697	39617.96
448.903	40750.48
449.11	40680.85
449.316	39335.34
449.522	40732.05
449.728	41815.43
449.935	42063.23
450.141	41911.68
450.347	42943.86
450.553	41448.84
450.76	42321.27
450.966	43246.96
451.172	43011.44
451.378	44037.47
451.584	43068.78
451.791	44080.48
451.997	44205.41
452.203	44780.88
452.409	44635.48
452.615	44508.5
452.821	42624.37
453.027	42517.88
453.233	44795.22
453.44	42825.07
453.646	43554.15
453.852	43646.31
454.058	44516.7
454.264	42968.43
454.47	43799.91
454.676	42892.66
454.882	44096.86
455.088	40277.4
455.294	41328.01
455.5	41678.21
455.705	41971.07
455.911	40576.4
456.117	39697.83
456.323	39036.33
456.529	37242.31
456.735	39001.52
456.941	37490.12
457.147	37078.47
457.352	36134.36
457.558	35644.9
457.764	35827.17
457.97	35026.41
458.176	34110.97
458.381	34104.82
458.587	32800.27
458.793	32454.16
458.999	31190.56
459.204	33074.7
459.41	32257.56
459.616	30039.61
459.821	30197.3
460.027	29937.21
460.233	29515.33
460.438	27907.67
460.644	28249.68
460.85	26883.69
461.055	26293.87
461.261	26404.46
461.466	24673.93
461.672	23592.6
461.878	25255.55
462.083	23994
462.289	23381.66
462.494	23045.79
462.7	21941.94
462.905	21436.09
463.111	21939.89
463.316	22263.47
463.522	21475
463.727	21851.83
463.932	21606.07
464.138	21403.32
464.343	21526.2
464.549	20690.63
464.754	21722.8
464.959	21264.06
465.165	21255.87
465.37	20014.8
465.575	19996.37
465.781	20467.4
465.986	20682.44
466.191	20059.85
466.397	19429.08
466.602	18446.05
466.807	19269.34
467.012	19132.12
467.218	18806.5
467.423	18962.14
467.628	19017.44
467.833	19777.23
468.038	19211.99
468.244	18542.31
468.449	19211.99
468.654	18411.24
468.859	18224.87
469.064	18556.64
469.269	17837.81
469.474	17899.25
469.679	18038.51
469.885	17716.98
470.09	17846
470.295	17542.9
470.5	17385.21
470.705	17225.47
470.91	17059.58
471.115	17002.24
471.32	17182.46
471.525	16838.4
471.73	16580.35
471.935	16684.8
472.139	15791.89
472.344	16125.71
472.549	15939.34
472.754	15847.18
472.959	15701.78
473.164	15234.84
473.369	15200.02
473.574	15449.88
473.778	15388.44
473.983	15050.52
474.188	15075.1
474.393	14360.36
474.598	14593.83
474.802	14630.69
475.007	14298.92
475.212	14561.06
475.417	13889.32
475.621	13823.79
475.826	13846.32
476.031	13627.18
476.235	13125.43
476.44	13741.87
476.645	13446.96
476.849	13315.89
477.054	13272.89
477.259	12900.16
477.463	13133.62
477.668	12627.78
477.872	12785.47
478.077	12502.85
478.282	12255.04
478.486	12070.73
478.691	11978.57
478.895	12166.98
479.1	11935.56
479.304	12162.89
479.509	11833.16
479.713	11939.66
479.918	11485.01
480.122	11274.07
480.326	11722.57
480.531	11394.9
480.735	11460.43
480.94	11505.49
481.144	11806.54
481.348	11259.73
481.553	11333.46
481.757	11145.05
481.961	11310.93
482.166	11333.46
482.37	11341.65
482.574	11095.89
482.778	11083.61
482.983	11419.47
483.187	10878.81
483.391	11280.21
483.595	11034.46
483.8	10868.57
484.004	11341.65
484.208	11149.14
484.412	11026.26
484.616	11226.96
484.821	11054.94
485.025	11085.65
485.229	11042.65
485.433	10944.35
485.637	11272.02
485.841	10987.35
486.045	11013.98
486.249	11046.74
486.453	10952.54
486.657	11083.61
486.861	11013.98
487.065	10866.52
487.269	11128.66
487.473	10696.54
487.677	11067.22
487.881	11147.09
488.085	11022.17
488.289	11171.67
488.493	11118.42
488.697	11134.81
488.901	10876.76
489.105	10823.51
489.309	11183.96
489.512	11181.91
489.716	11089.75
489.92	11130.71
490.124	11069.27
490.328	11325.27
490.531	11255.64
490.735	11276.12
490.939	11317.08
491.143	11202.39
491.346	11333.46
491.55	11380.56
491.754	11294.55
491.958	11581.26
492.161	11335.51
492.365	11476.82
492.569	11587.41
492.772	11591.5
492.976	11607.89
493.18	11560.78
493.383	11794.25
493.587	11734.86
493.79	12005.19
493.994	11775.82
494.197	11927.37
494.401	12060.49
494.605	11947.85
494.808	12457.79
495.012	12341.06
495.215	12513.09
495.419	12365.64
495.622	12453.7
495.825	12326.72
496.029	12627.78
496.232	12621.63
496.436	12724.03
496.639	13356.85
496.843	13014.84
497.046	13373.24
497.249	13152.06
497.453	13492.02
497.656	13541.17
497.859	13438.77
498.063	13614.9
498.266	13782.83
498.469	13684.53
498.673	13874.99
498.876	14006.06
499.079	14470.95
499.282	14333.73
499.485	14591.78
499.689	14454.56
499.892	15091.48
500.095	15009.56
500.298	15249.18
500.501	15413.01
500.705	15650.58
500.908	15589.14
501.111	15968.01
501.314	16113.42
501.517	15912.72
501.72	16359.17
501.923	16346.89
502.126	16598.79
502.329	16877.31
502.532	16754.43
502.735	17026.81
502.938	17608.44
503.141	17227.51
503.344	17831.66
503.547	17534.71
503.75	18149.1
503.953	18255.59
504.156	18435.81
504.359	18583.27
504.562	18855.65
504.765	18943.71
504.968	19277.53
505.17	19437.27
505.373	19166.94
505.576	19742.42
505.779	19855.06
505.982	19766.99
506.185	20397.77
506.387	20426.44
506.59	20729.54
506.793	20864.71
506.996	21229.24
507.198	21593.78
507.401	21489.34
507.604	21821.11
507.807	21876.4
508.009	22058.67
508.212	22535.85
508.415	22671.01
508.617	22931.11
508.82	22890.15
509.022	22621.86
509.225	23371.42
509.428	23682.71
509.63	23977.62
509.833	23760.53
510.035	24221.33
510.238	24428.17
510.44	24755.85
510.643	25226.88
510.845	24940.16
511.048	25507.45
511.25	25239.17
511.453	25333.37
511.655	26293.87
511.858	26330.73
512.06	26422.89
512.262	26752.62
512.465	26658.41
512.667	27051.62
512.87	27430.49
513.072	27481.69
513.274	27690.59
513.477	28167.76
513.679	28257.87
513.881	28753.48
514.084	28708.43
514.286	28827.21
514.488	29050.44
514.69	29937.21
514.893	29933.11
515.095	30236.21
515.297	30467.63
515.499	30688.81
515.701	30811.69
515.904	31276.58
516.106	31055.4
516.308	31333.92
516.51	31997.46
516.712	32230.93
516.914	32267.8
517.116	32816.65
517.318	32923.15
517.52	33089.03
517.722	32712.2
517.925	33285.64
518.127	33932.79
518.329	33887.74
518.531	33752.57
518.733	34522.61
518.935	34751.98
519.136	34872.81
519.338	34807.28
519.54	35507.68
519.742	35513.83
519.944	35452.39
520.146	36431.32
520.348	36193.75
520.55	36089.31
520.752	36478.42
520.954	37377.48
521.155	36830.67
521.357	37318.09
521.559	37514.69
521.761	38010.3
521.963	37969.34
522.164	38071.74
522.366	38014.4
522.568	38100.41
522.77	38432.18
522.971	38811.06
523.173	38682.03
523.375	39208.36
523.576	39486.89
523.778	39062.96
523.98	39134.63
524.181	39654.82
524.383	39763.36
524.584	40269.21
524.786	40117.66
524.988	39742.88
525.189	40525.21
525.391	40443.29
525.592	40312.22
525.794	40816.02
525.995	40609.17
526.197	40701.33
526.398	40773.01
526.6	40535.45
526.801	41158.03
527.003	41168.27
527.204	41901.44
527.406	41282.95
527.607	41151.88
527.808	41928.06
528.01	40641.94
528.211	41244.04
528.412	42098.05
528.614	41909.63
528.815	41688.45
529.016	42040.7
529.218	41360.78
529.419	42003.84
529.62	41928.06
529.822	41674.12
530.023	41526.66
530.224	41928.06
530.425	41500.04
530.626	41620.87
530.828	41209.23
531.029	42493.3
531.23	41915.78
531.431	42075.52
531.632	41981.31
531.833	42157.44
532.035	41960.83
532.236	41919.87
532.437	42413.43
532.638	41629.06
532.839	42005.89
533.04	41813.38
533.241	41563.53
533.442	42220.92
533.643	41665.92
533.844	41772.42
534.045	41721.22
534.246	41289.1
534.447	42300.79
534.648	41422.22
534.849	41610.63
535.05	41708.93
535.251	41868.67
535.451	41153.93
535.652	41526.66
535.853	41031.05
536.054	41971.07
536.255	41866.63
536.456	40899.98
536.657	41846.15
536.857	41395.59
537.058	41424.26
537.259	41479.56
537.46	41514.37
537.66	41330.06
537.861	41385.35
538.062	41201.04
538.263	40820.11
538.463	40885.65
538.664	41018.77
538.865	41053.58
539.065	41260.43
539.266	41254.28
539.466	41065.87
539.667	40861.07
539.868	41450.89
540.068	40891.79
540.269	41000.33
540.469	41239.95
540.67	40543.64
540.87	40693.14
541.071	40871.31
541.271	40762.77
541.472	40510.87
541.672	40732.05
541.873	40314.26
542.073	40390.04
542.274	40631.7
542.474	40342.94
542.675	40387.99
542.875	41057.68
543.075	40361.37
543.276	40132
543.476	40727.95
543.676	40263.07
543.877	40551.83
544.077	40291.74
544.277	40314.26
544.478	40639.89
544.678	40428.95
544.878	40191.39
545.078	40820.11
545.279	40334.74
545.479	40058.27
545.679	40502.68
545.879	40715.67
546.079	40359.32
546.28	40426.9
546.48	40154.52
546.68	40566.17
546.88	40330.65
547.08	40246.68
547.28	40418.71
547.48	40218.01
547.68	40281.5
547.88	40154.52
548.081	40222.11
548.281	40340.89
548.481	40277.4
548.681	40480.15
548.881	40351.13
549.081	40650.13
549.28	40189.34
549.48	40336.79
549.68	40394.14
549.88	40887.7
550.08	40215.96
550.28	40545.69
550.48	40480.15
550.68	40758.67
550.88	40332.7
551.08	40283.55
551.279	40697.24
551.479	40074.65
551.679	40318.36
551.879	40326.55
552.079	40570.26
552.278	40170.91
552.478	40318.36
552.678	40203.67
552.878	40740.24
553.077	40531.35
553.277	40177.05
553.477	40738.19
553.676	40254.87
553.876	40646.04
554.076	40576.4
554.275	40684.95
554.475	40025.5
554.674	40584.6
554.874	40496.53
555.074	40138.14
555.273	40893.84
555.473	40553.88
555.672	40312.22
555.872	40596.88
556.071	40766.87
556.271	40740.24
556.47	40215.96
556.67	39894.43
556.869	40482.2
557.068	40703.38
557.268	40232.35
557.467	40127.9
557.667	40181.15
557.866	40687
558.065	40664.47
558.265	40158.62
558.464	40070.56
558.663	40660.37
558.863	40166.81
559.062	40633.75
559.261	40220.06
559.461	40998.29
559.66	39970.21
559.859	40326.55
560.058	40445.33
560.258	40555.93
560.457	40164.76
560.656	40191.39
560.855	40369.56
561.054	40492.44
561.253	39933.34
561.453	40297.88
561.652	40478.1
561.851	40215.96
562.05	40332.7
562.249	40103.32
562.448	40465.81
562.647	40076.7
562.846	39959.97
563.045	40252.83
563.244	39820.7
563.443	40521.11
563.642	39712.16
563.841	40052.12
564.04	39726.5
564.239	40144.28
564.438	39921.05
564.637	40072.6
564.836	40162.72
565.035	39572.9
565.234	40017.31
565.432	39570.85
565.631	39894.43
565.83	39876
566.029	39544.23
566.228	39439.78
566.427	39937.44
566.625	39396.77
566.824	39124.4
567.023	39450.02
567.222	38804.91
567.42	39558.56
567.619	39728.55
567.818	39321
568.016	39359.91
568.215	39189.93
568.414	38954.41
568.612	39601.57
568.811	39007.66
569.01	38809.01
569.208	38362.55
569.407	38962.61
569.605	38460.85
569.804	38798.77
570.002	38202.81
570.201	38809.01
570.4	38348.21
570.598	38231.48
570.797	38075.83
570.995	38202.81
571.193	37721.54
571.392	38268.34
571.59	37617.09
571.789	37725.63
571.987	38012.35
572.186	37797.31
572.384	37516.74
572.582	37948.86
572.781	37813.69
572.979	37242.31
573.177	37404.1
573.376	37479.88
573.574	36859.34
573.772	37434.82
573.971	37326.28
574.169	37234.12
574.367	36765.14
574.565	37107.15
574.763	36867.53
574.962	36677.07
575.16	36146.65
575.358	36720.08
575.556	36179.42
575.754	36679.12
575.952	36140.5
576.151	36371.93
576.349	35681.76
576.547	36027.87
576.745	35950.04
576.943	36322.77
577.141	35902.94
577.339	36105.69
577.537	35784.16
577.735	35390.95
577.933	34844.14
578.131	35417.57
578.329	35321.32
578.527	35124.71
578.725	35280.36
578.923	35050.99
579.121	35026.41
579.319	35077.61
579.516	34971.11
579.714	34983.4
579.912	34614.77
580.11	34385.4
580.308	35038.7
580.506	34547.18
580.704	34094.58
580.901	34346.48
581.099	34553.33
581.297	34326
581.495	34092.54
581.692	34401.78
581.89	33730.05
582.088	34037.24
582.285	33945.08
582.483	33809.92
582.681	33568.26
582.878	33547.78
583.076	33811.96
583.274	33752.57
583.471	33281.54
583.669	33541.63
583.866	33302.02
584.064	33449.47
584.262	33046.02
584.459	32998.92
584.657	33146.37
584.854	33480.19
585.052	32294.42
585.249	32847.37
585.447	33033.74
585.644	32468.5
585.841	33089.03
586.039	32423.44
586.236	32300.56
586.434	32388.63
586.631	32060.95
586.828	32308.76
587.026	32364.05
587.223	32263.7
587.42	32071.19
587.618	32202.26
587.815	31696.41
588.012	31665.69
588.21	31800.86
588.407	32063
588.604	31579.68
588.801	31413.79
588.999	31794.71
589.196	31495.71
589.393	31440.42
589.59	31311.39
589.787	31260.19
589.984	31063.59
590.182	31057.45
590.379	30996.01
590.576	30629.42
590.773	30993.96
590.97	30580.27
591.167	30936.62
591.364	30678.57
591.561	30877.22
591.758	30262.83
591.955	30414.38
592.152	30785.07
592.349	30273.07
592.546	30344.75
592.743	30086.71
592.94	29625.92
593.137	30166.58
593.334	29922.87
593.531	29752.89
593.727	29787.71
593.924	29988.41
594.121	29611.58
594.318	29961.78
594.515	29814.33
594.712	30172.72
594.908	29525.57
595.105	29761.08
595.302	29449.79
595.499	29445.69
595.696	29288
595.892	29275.71
596.089	29443.65
596.286	29189.7
596.482	29298.24
596.679	29711.93
596.876	29494.85
597.072	29075.01
597.269	29218.37
597.466	28978.76
597.662	28759.63
597.859	29138.5
598.055	29072.96
598.252	28608.08
598.448	28945.99
598.645	28993.09
598.841	28870.22
599.038	28511.82
599.234	28730.95
599.431	28350.03
599.627	28098.13
599.824	29032
600.02	28569.16
600.217	28790.34
600.413	28538.44
600.609	28429.9
600.806	28794.44
601.002	28702.28
601.198	28081.75
601.395	28362.32
601.591	28235.35
601.787	28593.74
601.984	28417.61
602.18	28700.23
602.376	28280.4
602.572	28178
602.769	28304.98
602.965	28098.13
603.161	28243.54
603.357	27965.01
603.553	28235.35
603.75	28298.83
603.946	27971.16
604.142	28380.75
604.338	27762.26
604.534	28401.23
604.73	27797.08
604.926	27897.43
605.122	27844.18
605.318	27733.59
605.514	27807.32
605.71	27919.96
605.906	27782.74
606.102	27745.88
606.298	28083.8
606.494	27799.13
606.69	28122.71
606.886	27934.29
607.082	27696.73
607.278	27952.73
607.474	27801.18
607.67	28171.86
607.866	27510.36
608.062	27813.46
608.257	27887.19
608.453	27835.99
608.649	27680.35
608.845	27805.27
609.041	27936.34
609.236	28163.67
609.432	27817.56
609.628	28036.69
609.824	28210.77
610.019	27788.89
610.215	27766.36
610.411	28243.54
610.606	27917.91
610.802	28018.26
610.998	28214.87
611.193	27973.21
611.389	28038.74
611.584	27874.9
611.78	27737.69
611.976	28001.88
612.171	27948.63
612.367	27797.08
612.562	27692.63
612.758	27569.76
612.953	27725.4
613.149	27944.53
613.344	27569.76
613.539	28182.1
613.735	27864.66
613.93	28051.03
614.126	27801.18
614.321	27942.49
614.517	28026.45
614.712	27778.65
614.907	27471.45
615.103	27938.39
615.298	27534.94
615.493	27647.58
615.688	27440.73
615.884	27889.24
616.079	27422.3
616.274	27766.36
616.47	27702.87
616.665	27727.45
616.86	27731.54
617.055	28016.21
617.25	27401.82
617.445	27874.9
617.641	27123.3
617.836	27623
618.031	26959.46
618.226	27512.41
618.421	27272.8
618.616	27467.36
618.811	27219.55
619.006	27453.02
619.201	26570.35
619.396	27194.98
619.591	26715.75
619.786	26836.58
619.981	26553.96
620.176	27065.95
620.371	26500.72
620.566	26660.46
620.761	26420.84
620.956	26504.81
621.151	26039.92
621.346	26383.98
621.541	25706.1
621.735	26148.46
621.93	25450.11
622.125	25697.91
622.32	25466.49
622.515	25851.51
622.709	25529.98
622.904	25544.31
623.099	25239.17
623.294	25173.63
623.488	24839.81
623.683	25101.95
623.878	24626.82
624.072	24983.17
624.267	24669.83
624.462	24643.21
624.656	24460.94
624.851	24067.73
625.046	24438.41
625.24	23981.71
625.435	23754.39
625.629	23811.73
625.824	23488.15
626.018	23805.59
626.213	23072.42
626.407	23406.23
626.602	23170.72
626.796	23115.42
626.991	23115.42
627.185	23367.32
627.38	22771.36
627.574	22517.42
627.768	22726.31
627.963	22384.3
628.157	22509.22
628.352	22400.68
628.546	21939.89
628.74	22339.24
628.935	22095.53
629.129	21943.99
629.323	21597.88
629.517	21491.38
629.712	21556.92
629.906	21499.58
630.1	21157.57
630.294	21325.5
630.489	21100.22
630.683	21114.56
630.877	20639.43
631.071	20704.96
631.265	21010.11
631.459	20676.29
631.653	20563.65
631.848	20494.02
632.042	20197.07
632.236	20457.16
632.43	19979.98
632.624	20319.95
632.818	19752.66
633.012	19832.53
633.206	19549.91
633.4	19803.86
633.594	19459.8
633.788	19449.56
633.982	19523.29
634.176	19537.62
634.369	19185.37
634.563	19015.39
634.757	18898.66
634.951	18994.91
635.145	18634.47
635.339	18673.38
635.533	18411.24
635.726	18843.36
635.92	18583.27
636.114	18292.46
636.308	18061.04
636.501	18136.81
636.695	18071.28
636.889	18007.79
637.083	17831.66
637.276	17751.79
637.47	17596.15
637.664	17497.84
637.857	17776.37
638.051	17440.5
638.244	17127.16
638.438	17397.49
638.632	17153.79
638.825	16924.41
639.019	16942.85
639.212	16674.56
639.406	16897.79
639.599	16899.84
639.793	16740.1
639.986	16379.65
640.18	16539.4
640.373	16713.47
640.567	16168.71
640.76	16035.6
640.954	16133.9
641.147	15935.24
641.34	15755.02
641.534	15824.65
641.727	15836.94
641.92	15791.89
642.114	15750.93
642.307	15740.69
642.5	15290.13
642.694	15288.09
642.887	15128.35
643.08	15204.12
643.273	15197.98
643.467	15212.31
643.66	14714.66
643.853	14753.57
644.046	14692.13
644.239	14823.2
644.432	14728.99
644.626	14417.7
644.819	14360.36
645.012	14346.02
645.205	14337.83
645.398	14217
645.591	14014.25
645.784	14137.13
645.977	13918
646.17	13809.45
646.363	13627.18
646.556	13768.49
646.749	13659.95
646.942	13500.21
647.135	13414.2
647.328	13469.49
647.521	13295.41
647.714	13012.79
647.907	13246.26
648.099	12971.83
648.292	13047.61
648.485	13078.33
648.678	12795.71
648.871	12595.01
649.064	12789.56
649.256	12705.6
649.449	12613.44
649.642	12574.53
649.835	12400.45
650.027	12404.55
650.22	12472.13
650.413	12130.12
650.605	12218.18
650.798	12177.22
650.991	12197.7
651.183	12267.33
651.376	11884.36
651.568	12011.34
651.761	11751.24
651.954	11894.6
652.146	11669.33
652.339	11771.72
652.531	11571.02
652.724	11442
652.916	11409.23
653.109	11401.04
653.301	11409.23
653.494	11327.32
653.686	11286.36
653.879	11233.11
654.071	11177.81
654.263	11161.43
654.456	10979.16
654.648	11169.62
654.84	10876.76
655.033	10743.64
655.225	10895.19
655.417	10477.41
655.61	10940.25
655.802	10884.95
655.994	10647.39
656.186	10612.57
656.379	10506.08
656.571	10497.89
656.763	10354.53
656.955	10227.56
657.148	10133.35
657.34	10182.5
657.532	10090.34
657.724	10094.44
657.916	9846.63
658.108	9989.99
658.3	9863.02
658.492	9516.91
658.684	9830.25
658.876	9752.43
659.068	9754.48
659.26	9400.18
659.452	9516.91
659.644	9686.89
659.836	9310.07
660.028	9574.25
660.22	9441.14
660.412	9437.04
660.604	9248.63
660.796	9279.35
660.988	9277.3
661.18	9170.8
661.372	9054.07
661.563	9222
661.755	8699.77
661.947	9156.47
662.139	8925.05
662.331	8998.77
662.522	8750.97
662.714	8771.45
662.906	8638.33
663.097	8656.76
663.289	8574.85
663.481	8515.45
663.673	8378.24
663.864	8441.73
664.056	8372.1
664.247	8300.42
664.439	8310.66
664.631	8327.04
664.822	8228.74
665.014	8245.12
665.205	8155.01
665.397	8173.44
665.588	8339.33
665.78	8165.25
665.971	8112
666.163	7958.41
666.354	7966.6
666.546	7806.86
666.737	7911.3
666.929	7825.29
667.12	7839.62
667.311	7696.27
667.503	7743.37
667.694	7825.29
667.885	7589.77
668.077	7491.47
668.268	7479.18
668.459	7501.71
668.651	7282.58
668.842	7446.41
669.033	7382.93
669.224	7227.28
669.416	7393.17
669.607	7391.12
669.798	7294.86
669.989	7393.17
670.18	7151.51
670.371	7241.62
670.563	7122.84
670.754	7245.71
670.945	6963.09
671.136	7280.53
671.327	6975.38
671.518	6856.6
671.709	7008.15
671.9	6977.43
672.091	7137.17
672.282	6819.74
672.473	6801.3
672.664	6969.24
672.855	6844.31
673.046	6789.02
673.237	6610.84
673.428	6827.93
673.619	6598.56
673.809	6715.29
674	6725.53
674.191	6651.8
674.382	6569.88
674.573	6655.9
674.764	6565.79
674.954	6471.58
675.145	6436.77
675.336	6373.28
675.527	6483.87
675.717	6387.61
675.908	6307.74
676.099	6369.18
676.289	6131.62
676.48	6363.04
676.671	6266.78
676.861	6344.61
677.052	6209.44
677.243	6154.15
677.433	6250.4
677.624	6281.12
677.814	6150.05
678.005	6225.82
678.195	6037.41
678.386	6123.43
678.576	6016.93
678.767	6070.18
678.957	6098.85
679.148	6084.52
679.338	5939.11
679.529	5994.4
679.719	5994.4
679.909	5975.97
680.1	5967.78
680.29	5914.53
680.481	6012.84
680.671	5984.16
680.861	6092.71
681.052	6033.32
681.242	5935.01
681.432	5996.45
681.622	5787.56
681.813	5664.68
682.003	5846.95
682.193	5894.05
682.383	5742.5
682.573	5838.76
682.764	5648.3
682.954	5838.76
683.144	5877.67
683.334	5601.19
683.524	5756.84
683.714	5738.41
683.904	5836.71
684.094	5652.39
684.284	5650.35
684.474	5742.5
684.664	5730.22
684.854	5740.46
685.044	5535.66
685.234	5367.73
685.424	5689.26
685.614	5404.59
685.804	5437.36
685.994	5451.69
686.184	5466.03
686.374	5386.16
686.564	5478.32
686.753	5388.21
686.943	5320.62
687.133	5494.7
687.323	5459.88
687.513	5418.93
687.702	5377.97
687.892	5101.49
688.082	5250.99
688.272	5398.45
688.461	5423.02
688.651	5353.39
688.841	5083.06
689.03	5189.55
689.22	4943.8
689.41	5242.8
689.599	5007.28
689.789	5148.59
689.979	5197.74
690.168	5007.28
690.358	5179.31
690.547	4872.12
690.737	5081.01
690.926	5056.43
691.116	4941.75
691.305	4898.74
691.495	4880.31
691.684	4990.9
691.874	4806.58
692.063	4988.85
692.252	4839.35
692.442	4896.69
692.631	4796.34
692.82	4825.01
693.01	4857.78
693.199	4706.23
693.388	4650.94
693.578	4757.43
693.767	4644.79
693.956	4759.48
694.146	4616.12
694.335	4519.87
694.524	4544.44
694.713	4689.85
694.902	4661.18
695.092	4628.41
695.281	4560.83
695.47	4544.44
695.659	4493.24
695.848	4511.68
696.037	4548.54
696.226	4505.53
696.415	4433.85
696.604	4409.28
696.793	4396.99
696.982	4464.57
697.171	4534.2
697.36	4411.32
697.549	4431.8
697.738	4419.52
697.927	4396.99
698.116	4298.69
698.305	4292.54
698.494	4403.13
698.683	4272.06
698.872	4374.46
699.061	4353.98
699.25	4333.5
699.438	4220.86
699.627	4247.49
699.816	4440
700.005	4323.26
700.193	4042.69
700.382	4173.76
700.571	4186.05
700.76	4140.99
700.948	4120.51
701.137	4134.85
701.326	3993.54
701.514	4161.47
701.703	4151.23
701.892	4040.64
702.08	4083.65
702.269	4044.74
702.457	4038.59
702.646	4059.07
702.834	3995.59
703.023	3796.93
703.212	4200.38
703.4	4022.21
703.589	3917.76
703.777	3991.49
703.965	3878.85
704.154	3903.43
704.342	3897.28
704.531	3944.39
704.719	3895.24
704.907	3870.66
705.096	3780.55
705.284	3893.19
705.472	3823.56
705.661	3862.47
705.849	3725.26
706.037	3782.6
706.226	3698.63
706.414	3798.98
706.602	3610.57
706.79	3585.99
706.979	3700.68
707.167	3770.31
707.355	3604.43
707.543	3684.3
707.731	3723.21
707.919	3780.55
708.107	3567.56
708.296	3608.52
708.484	3702.73
708.672	3569.61
708.86	3522.51
709.048	3426.25
709.236	3602.38
709.424	3629
709.612	3571.66
709.8	3510.22
709.988	3489.74
710.176	3403.72
710.364	3547.08
710.551	3413.96
710.739	3471.31
710.927	3379.15
711.115	3442.64
711.303	3432.4
711.491	3301.33
711.679	3370.96
711.866	3340.24
712.054	3389.39
712.242	3354.57
712.43	3499.98
712.617	3332.05
712.805	3172.3
712.993	3239.89
713.181	3305.42
713.368	3293.13
713.556	3141.58
713.744	3200.98
713.931	3309.52
714.119	3198.93
714.306	3260.37
714.494	3229.65
714.682	3174.35
714.869	3231.69
715.057	3192.78
715.244	3143.63
715.432	3227.6
715.619	3282.89
715.807	3311.57
715.994	3137.49
716.182	3207.12
716.369	2957.27
716.556	3045.33
716.744	2973.65
716.931	3037.14
717.119	3030.99
717.306	2998.23
717.493	3166.16
717.681	2936.79
717.868	3022.8
718.055	3043.28
718.242	2977.75
718.43	3018.71
718.617	2985.94
718.804	2846.68
718.991	2912.21
719.179	2990.03
719.366	2934.74
719.553	2899.92
719.74	2914.26
719.927	2934.74
720.114	2822.1
720.301	2920.4
720.488	2731.99
720.676	2797.53
720.863	2846.68
721.05	2990.03
721.237	2842.58
721.424	2756.57
721.611	2772.95
721.798	2830.29
721.985	2670.55
722.172	2863.06
722.358	2686.94
722.545	2770.9
722.732	2693.08
722.919	2668.5
723.106	2617.3
723.293	2709.46
723.48	2633.69
723.667	2660.31
723.853	2672.6
724.04	2674.65
724.227	2664.41
724.414	2594.78
724.6	2699.22
724.787	2666.46
724.974	2609.11
725.161	2531.29
725.347	2576.34
725.534	2625.5
725.72	2529.24
725.907	2543.58
726.094	2678.74
726.28	2510.81
726.467	2551.77
726.653	2535.39
726.84	2578.39
727.027	2594.78
727.213	2365.4
727.4	2432.99
727.586	2463.71
727.773	2553.82
727.959	2633.69
728.145	2510.81
728.332	2359.26
728.518	2447.32
728.705	2447.32
728.891	2414.56
729.077	2463.71
729.264	2406.36
729.45	2355.16
729.636	2453.47
729.823	2412.51
730.009	2461.66
730.195	2398.17
730.382	2318.3
730.568	2451.42
730.754	2363.36
730.94	2258.91
731.126	2455.51
731.313	2269.15
731.499	2244.57
731.685	2363.36
731.871	2342.88
732.057	2291.68
732.243	2256.86
732.429	2273.25
732.615	2289.63
732.801	2281.44
732.987	2260.96
733.173	2236.38
733.359	2191.33
733.545	2232.29
733.731	2158.56
733.917	2244.57
734.103	2447.32
734.289	2314.2
734.475	2076.64
734.661	2260.96
734.847	2183.13
735.033	2193.37
735.219	2207.71
735.404	2211.81
735.59	2125.79
735.776	2133.98
735.962	2142.18
736.148	2170.85
736.333	2088.93
736.519	2142.18
736.705	2107.36
736.89	2093.02
737.076	2097.12
737.262	2064.35
737.447	2142.18
737.633	2107.36
737.819	2213.85
738.004	2047.97
738.19	2004.96
738.375	1912.8
738.561	2170.85
738.747	2117.6
738.932	1945.57
739.118	2078.69
739.303	2150.37
739.489	2109.41
739.674	2015.2
739.859	2043.87
740.045	1972.19
740.23	2023.39
740.416	1970.15
740.601	1945.57
740.786	1955.81
740.972	1961.95
741.157	1923.04
741.342	1873.89
741.528	1990.63
741.713	2023.39
741.898	1843.17
742.084	1896.42
742.269	1923.04
742.454	1929.19
742.639	1871.84
742.824	1826.79
743.01	1912.8
743.195	1920.99
743.38	1949.67
743.565	1765.35
743.75	1955.81
743.935	1767.4
744.12	1777.64
744.305	1791.97
744.49	1802.21
744.675	1775.59
744.86	1695.72
745.045	1796.07
745.23	1740.77
745.415	1732.58
745.6	1740.77
745.785	1705.96
745.97	1765.35
746.155	1740.77
746.34	1665
746.525	1718.25
746.71	1722.34
746.895	1691.62
747.079	1652.71
747.264	1634.28
747.449	1621.99
747.634	1683.43
747.819	1642.47
748.003	1538.02
748.188	1540.07
748.373	1554.41
748.557	1531.88
748.742	1462.25
748.927	1615.85
749.111	1529.83
749.296	1478.63
749.481	1529.83
749.665	1552.36
749.85	1495.02
750.034	1482.73
750.219	1521.64
750.404	1472.49
750.588	1535.98
750.773	1300.46
750.957	1472.49
751.141	1468.39
751.326	1462.25
751.51	1355.76
751.695	1398.76
751.879	1292.27
752.064	1521.64
752.248	1351.66
752.432	1495.02
752.617	1421.29
752.801	1384.43
752.985	1298.41
753.17	1413.1
753.354	1290.22
753.538	1343.47
753.722	1335.28
753.907	1322.99
754.091	1210.35
754.275	1224.69
754.459	1175.53
754.643	1265.64
754.828	1263.6
755.012	1210.35
755.196	1286.12
755.38	1226.73
755.564	1171.44
755.748	1232.88
755.932	1269.74
756.116	1200.11
756.3	1218.54
756.484	1208.3
756.668	1232.88
756.852	1044.46
757.036	1120.24
757.22	1071.09
757.404	1077.23
757.588	1130.48
757.772	1122.29
757.956	1175.53
758.14	1112.05
758.323	1118.19
758.507	1077.23
758.691	1044.46
758.875	1062.9
759.059	1112.05
759.242	1054.7
759.426	1064.94
759.61	1093.62
759.794	1032.18
759.977	1013.74
760.161	1046.51
760.345	1077.23
760.528	999.41
760.712	1023.98
760.895	1017.84
761.079	905.2
761.263	937.97
761.446	942.07
761.63	929.78
761.813	991.22
761.997	987.12
762.18	1028.08
762.364	946.16
762.547	923.63
762.731	925.68
762.914	856.05
763.098	888.82
763.281	929.78
763.464	833.52
763.648	931.83
763.831	866.29
764.015	974.83
764.198	880.63
764.381	931.83
764.564	866.29
764.748	849.91
764.931	813.04
765.114	917.49
765.297	948.21
765.481	761.84
765.664	847.86
765.847	847.86
766.03	876.53
766.213	854
766.397	774.13
766.58	817.14
766.763	849.91
766.946	841.72
767.129	958.45
767.312	757.75
767.495	841.72
767.678	831.48
767.861	913.39
768.044	856.05
768.227	774.13
768.41	755.7
768.593	823.28
768.776	794.61
768.959	675.83
769.142	790.52
769.324	823.28
769.507	772.08
769.69	765.94
769.873	710.65
770.056	839.67
770.239	774.13
770.421	899.06
770.604	770.04
770.787	784.37
770.97	774.13
771.152	786.42
771.335	890.87
771.518	747.51
771.7	770.04
771.883	790.52
772.066	802.8
772.248	784.37
772.431	847.86
772.613	741.36
772.796	706.55
772.978	724.98
773.161	778.23
773.343	737.27
773.526	675.83
773.708	706.55
773.891	712.69
774.073	710.65
774.256	692.21
774.438	653.3
774.621	671.73
774.803	659.45
774.985	686.07
775.168	786.42
775.35	661.49
775.532	724.98
775.715	667.64
775.897	618.49
776.079	653.3
776.261	702.45
776.444	684.02
776.626	708.6
776.808	692.21
776.99	634.87
777.173	671.73
777.355	667.64
777.537	645.11
777.719	688.12
777.901	620.53
778.083	579.58
778.265	561.14
778.447	610.29
778.629	524.28
778.811	612.34
778.993	567.29
779.175	522.23
779.357	651.25
779.539	561.14
779.721	528.38
779.903	514.04
780.085	528.38
780.267	573.43
780.449	579.58
780.631	546.81
780.812	669.69
780.994	466.94
781.176	460.79
781.358	464.89
781.54	514.04
781.721	544.76
781.903	559.1
782.085	548.86
782.267	471.03
782.448	561.14
782.63	471.03
782.812	530.42
782.993	413.69
783.175	561.14
783.357	432.12
783.538	544.76
783.72	413.69
783.901	487.42
784.083	471.03
784.264	438.27
784.446	438.27
784.627	438.27
784.809	497.66
784.99	421.88
785.172	503.8
785.353	421.88
785.535	456.7
785.716	458.74
785.897	448.51
786.079	391.16
786.26	364.54
786.441	481.27
786.623	344.06
786.804	358.39
786.985	358.39
787.167	479.22
787.348	378.87
787.529	405.5
787.71	391.16
787.891	393.21
788.073	313.34
788.254	370.68
788.435	466.94
788.616	417.79
788.797	362.49
788.978	391.16
789.159	380.92
789.34	452.6
789.522	348.15
789.703	315.39
789.884	348.15
790.065	438.27
790.246	366.59
790.427	372.73
790.607	360.44
790.788	374.78
790.969	331.77
791.15	397.31
791.331	327.68
791.512	317.44
791.693	311.29
791.874	372.73
792.054	438.27
792.235	331.77
792.416	262.14
792.597	290.81
792.778	389.11
792.958	233.47
793.139	323.58
793.32	350.2
793.5	329.72
793.681	358.39
793.862	309.24
794.042	315.39
794.223	305.15
794.404	286.72
794.584	210.94
794.765	233.47
794.945	301.05
795.126	272.38
795.306	337.91
795.487	253.95
795.667	192.51
795.848	282.62
796.028	258.04
796.209	325.63
796.389	342.01
796.57	276.48
796.75	292.86
796.93	178.17
797.111	212.99
797.291	118.78
797.471	208.89
797.652	315.39
797.832	131.07
798.012	241.66
798.192	208.89
798.373	231.42
798.553	247.8
798.733	178.17
798.913	229.37
799.093	210.94
799.274	266.24
799.454	268.28
799.634	292.86
799.814	276.48
799.994	243.71
800.174	329.72
800.354	321.53
800.534	217.08
800.714	276.48
800.894	192.51
801.074	241.66
801.254	172.03
801.434	192.51
801.614	169.98
801.794	143.36
801.974	874.48
802.154	229.37
802.334	262.14
802.514	192.51
802.693	212.99
802.873	167.93
803.053	239.61
803.233	241.66
803.413	188.41
803.592	221.18
803.772	270.33
803.952	176.13
804.131	200.7
804.311	229.37
804.491	249.85
804.67	196.61
804.85	180.22
805.03	176.13
805.209	219.13
805.389	149.5
805.568	260.09
805.748	243.71
805.928	198.65
806.107	200.7
806.287	186.37
806.466	284.67
806.646	215.04
806.825	174.08
807.004	167.93
807.184	190.46
807.363	229.37
807.543	180.22
807.722	124.93
807.901	180.22
808.081	231.42
808.26	186.37
808.439	137.21
808.619	192.51
808.798	172.03
808.977	131.07
809.156	176.13
809.336	233.47
809.515	229.37
809.694	169.98
809.873	202.75
810.052	210.94
810.231	206.84
810.411	178.17
810.59	167.93
810.769	137.21
810.948	294.91
811.127	77.82
811.306	192.51
811.485	126.97
811.664	186.37
811.843	200.7
812.022	137.21
812.201	159.74
812.38	159.74
812.559	122.88
812.737	169.98
812.916	116.73
813.095	188.41
813.274	94.21
813.453	206.84
813.632	167.93
813.811	149.5
813.989	69.63
814.168	161.79
814.347	69.63
814.526	151.55
814.704	172.03
814.883	159.74
815.062	137.21
815.24	102.4
815.419	151.55
815.598	194.56
815.776	151.55
815.955	143.36
816.133	122.88
816.312	77.82
816.49	94.21
816.669	129.02
816.847	94.21
817.026	145.41
817.204	112.64
817.383	110.59
817.561	159.74
817.74	110.59
817.918	153.6
818.097	67.58
818.275	69.63
818.453	96.25
818.632	126.97
818.81	118.78
818.988	55.3
819.167	163.84
819.345	122.88
819.523	143.36
819.701	208.89
819.879	108.54
820.058	143.36
820.236	94.21
820.414	112.64
820.592	77.82
820.77	112.64
820.948	81.92
821.127	-6.14
821.305	167.93
821.483	141.31
821.661	147.45
821.839	102.4
822.017	137.21
822.195	79.87
822.373	120.83
822.551	-14.34
822.729	129.02
822.907	61.44
823.085	141.31
823.262	92.16
823.44	61.44
823.618	135.17
823.796	24.58
823.974	40.96
824.152	45.06
824.329	10.24
824.507	137.21
824.685	143.36
824.863	63.49
825.04	139.26
825.218	94.21
825.396	114.69
825.574	112.64
825.751	149.5
825.929	96.25
826.107	49.15
826.284	63.49
826.462	161.79
826.639	61.44
826.817	30.72
826.994	143.36
827.172	81.92
827.349	135.17
827.527	137.21
827.704	61.44
827.882	126.97
828.059	94.21
828.237	30.72
828.414	151.55
828.591	69.63
828.769	118.78
828.946	86.01
829.124	94.21
829.301	98.3
829.478	88.06
829.655	61.44
829.833	102.4
830.01	61.44
830.187	24.58
830.364	139.26
830.542	86.01
830.719	98.3
830.896	114.69
831.073	34.82
831.25	55.3
831.427	96.25
831.604	86.01
831.782	79.87
831.959	151.55
832.136	-20.48
832.313	92.16
832.49	86.01
832.667	77.82
832.844	-16.38
833.021	86.01
833.198	55.3
833.374	53.25
833.551	94.21
833.728	86.01
833.905	114.69
834.082	114.69
834.259	65.54
834.436	67.58
834.612	38.91
834.789	69.63
834.966	118.78
835.143	159.74
835.319	61.44
835.496	86.01
835.673	98.3
835.85	100.35
836.026	106.49
836.203	129.02
836.38	67.58
836.556	90.11
836.733	88.06
836.909	75.77
837.086	12.29
837.262	61.44
837.439	77.82
837.616	45.06
837.792	28.67
837.968	112.64
838.145	-86.01
838.321	28.67
838.498	104.45
838.674	73.73
838.851	159.74
839.027	131.07
839.203	57.34
839.38	124.93
839.556	49.15
839.732	81.92
839.909	55.3
840.085	28.67
840.261	86.01
840.437	118.78
840.614	-16.38
840.79	118.78
840.966	67.58
841.142	51.2
841.318	20.48
841.494	98.3
841.671	63.49
841.847	79.87
842.023	55.3
842.199	45.06
842.375	145.41
842.551	20.48
842.727	12.29
842.903	102.4
843.079	8.19
843.255	55.3
843.431	94.21
843.607	0
843.783	14.34
843.959	102.4
844.134	65.54
844.31	139.26
844.486	114.69
844.662	63.49
844.838	34.82
845.013	112.64
845.189	102.4
845.365	69.63
845.541	26.62
845.716	120.83
845.892	55.3
846.068	2.05
846.244	6.14
846.419	69.63
846.595	73.73
846.77	96.25
846.946	81.92
847.122	71.68
847.297	-32.77
847.473	63.49
847.648	-6.14
847.824	49.15
847.999	-47.1
848.175	-16.38
848.35	47.1
848.526	24.58
848.701	16.38
848.876	118.78
849.052	112.64
849.227	26.62
849.403	151.55
849.578	16.38
849.753	40.96
849.929	110.59
850.104	-69.63
850.279	-4.1
850.454	135.17
850.63	32.77
850.805	71.68
850.98	-4.1
851.155	24.58
851.33	86.01
851.505	4.1
851.681	126.97
851.856	47.1
852.031	61.44
852.206	53.25
852.381	12.29
852.556	34.82
852.731	36.86
852.906	38.91
853.081	71.68
853.256	102.4
853.431	51.2
853.606	36.86
853.781	-16.38
853.956	2.05
854.131	65.54
854.305	-10.24
854.48	77.82
854.655	4.1
854.83	79.87
855.005	32.77
855.18	77.82
855.354	118.78
855.529	88.06
855.704	-2.05
855.879	96.25
856.053	-4.1
856.228	47.1
856.403	-49.15
856.577	88.06
856.752	65.54
856.926	30.72
857.101	71.68
857.276	16.38
857.45	32.77
857.625	116.73
857.799	47.1
857.974	63.49
858.148	47.1
858.323	24.58
858.497	55.3
858.672	-2.05
858.846	-2.05
859.02	-32.77
859.195	12.29
859.369	-2.05
859.543	16.38
859.718	22.53
859.892	65.54
860.066	114.69
860.241	-4.1
860.415	14.34
860.589	-8.19
860.763	36.86
860.938	98.3
861.112	61.44
861.286	55.3
861.46	102.4
861.634	94.21
861.808	40.96
861.982	24.58
862.157	-28.67
862.331	4.1
862.505	12.29
862.679	51.2
862.853	6.14
863.027	81.92
863.201	59.39
863.375	40.96
863.549	63.49
863.722	-4.1
863.896	86.01
864.07	-73.73
864.244	36.86
864.418	24.58
864.592	14.34
864.766	49.15
864.939	47.1
865.113	20.48
865.287	30.72
865.461	40.96
865.634	20.48
865.808	-10.24
865.982	14.34
866.156	-26.62
866.329	-16.38
866.503	16.38
866.676	63.49
866.85	16.38
867.024	40.96
867.197	38.91
867.371	20.48
867.544	38.91
867.718	-2.05
867.891	69.63
868.065	-2.05
868.238	-38.91
868.412	49.15
868.585	47.1
868.759	22.53
868.932	-26.62
869.105	94.21
869.279	2.05
869.452	-53.25
869.625	24.58
869.799	55.3
869.972	20.48
870.145	-28.67
870.319	26.62
870.492	10.24
870.665	36.86
870.838	22.53
871.011	-83.97
871.185	22.53
871.358	47.1
871.531	47.1
871.704	63.49
871.877	81.92
872.05	-20.48
872.223	12.29
872.396	135.17
872.569	51.2
872.742	-77.82
872.915	-10.24
873.088	-67.58
873.261	53.25
873.434	22.53
873.607	77.82
873.78	14.34
873.953	-92.16
874.126	118.78
874.299	26.62
874.471	4.1
874.644	-4.1
874.817	-10.24
874.99	147.45
875.163	36.86
875.335	94.21
875.508	-26.62
875.681	65.54
875.853	-69.63
876.026	61.44
876.199	-16.38
876.371	49.15
876.544	-14.34
876.717	12.29
876.889	22.53
877.062	40.96
877.234	-20.48
877.407	20.48
877.579	-69.63
877.752	-12.29
877.924	67.58
878.097	30.72
878.269	18.43
878.442	86.01
878.614	55.3
878.786	55.3
878.959	79.87
879.131	12.29
879.303	-40.96
879.476	12.29
879.648	116.73
879.82	-4.1
879.993	-43.01
880.165	4.1
880.337	38.91
880.509	53.25
880.681	-59.39
880.854	-12.29
881.026	20.48
881.198	90.11
881.37	59.39
881.542	73.73
881.714	-22.53
881.886	43.01
882.058	0
882.23	2.05
882.402	43.01
882.574	28.67
882.746	-28.67
882.918	57.34
883.09	16.38
883.262	-26.62
883.434	-32.77
883.606	-59.39
883.778	53.25
883.95	112.64
884.122	-45.06
884.293	63.49
884.465	-6.14
884.637	61.44
884.809	10.24
884.98	96.25
885.152	4.1
885.324	18.43
885.496	-16.38
885.667	16.38
885.839	38.91
886.011	104.45
886.182	12.29
886.354	79.87
886.525	24.58
886.697	69.63
886.869	-8.19
887.04	0
887.212	108.54
887.383	28.67
887.555	-43.01
887.726	-4.1
887.897	16.38
888.069	16.38
888.24	40.96
888.412	118.78
888.583	-2.05
888.754	12.29
888.926	6.14
889.097	61.44
889.268	-100.35
889.44	-20.48
889.611	-12.29
889.782	-36.86
889.953	38.91
890.125	12.29
890.296	-2.05
890.467	-45.06
890.638	-8.19
890.809	36.86
890.98	-53.25
891.151	-36.86
891.323	77.82
891.494	32.77
891.665	45.06
891.836	67.58
892.007	36.86
892.178	14.34
892.349	6.14
892.52	12.29
892.691	53.25
892.862	-28.67
893.032	-45.06
893.203	59.39
893.374	10.24
893.545	36.86
893.716	-8.19
893.887	57.34
894.057	-61.44
894.228	-63.49
894.399	-26.62
894.57	69.63
894.74	49.15
894.911	-6.14
895.082	-4.1
895.253	-2.05
895.423	-10.24
895.594	47.1
895.764	20.48
895.935	69.63
896.106	63.49
896.276	-30.72
896.447	-32.77
896.617	16.38
896.788	-2.05
896.958	45.06
897.129	-53.25
897.299	30.72
897.47	69.63
897.64	30.72
897.81	-43.01
897.981	20.48
898.151	-20.48
898.322	16.38
898.492	8.19
898.662	-4.1
898.832	-100.35
899.003	143.36
899.173	14.34
899.343	28.67
899.513	-92.16
