Data from USB4F104151__82__14-30-34-397.txt Node

Date: Thu Mar 13 14:30:34 EDT 2025
User: louis
Spectrometer: USB4F10415
Trigger mode: 4
Integration Time (sec): 2.500000E-2
Scans to average: 1
Electric dark correction enabled: true
Nonlinearity correction enabled: false
Boxcar width: 0
XAxis mode: Wavelengths
Number of Pixels in Spectrum: 3648
>>>>>Begin Spectral Data<<<<<
178.204	-115.03
178.424	-115.03
178.644	-115.03
178.864	-164.18
179.084	-151.89
179.304	9.9
179.524	-29.01
179.744	-41.3
179.964	93.87
180.184	-49.49
180.404	28.33
180.624	-33.11
180.844	-37.2
181.064	59.05
181.283	-20.82
181.503	1.71
181.723	18.09
181.943	1.71
182.163	136.87
182.383	3.75
182.602	57
182.822	18.09
183.042	83.63
183.262	-90.45
183.482	-20.82
183.701	65.19
183.921	32.43
184.141	-53.59
184.361	36.52
184.58	24.23
184.8	-12.63
185.02	42.67
185.239	83.63
185.459	52.91
185.679	59.05
185.898	-6.49
186.118	32.43
186.338	50.86
186.557	40.62
186.777	3.75
186.997	-12.63
187.216	-14.68
187.436	18.09
187.655	57
187.875	28.33
188.095	24.23
188.314	24.23
188.534	83.63
188.753	-47.44
188.973	-12.63
189.192	65.19
189.412	-14.68
189.631	48.81
189.851	-0.34
190.07	130.73
190.29	63.15
190.509	7.85
190.729	34.47
190.948	40.62
191.168	151.21
191.387	122.54
191.607	48.81
191.826	1.71
192.045	-14.68
192.265	28.33
192.484	-31.06
192.704	44.71
192.923	-47.44
193.142	91.82
193.362	67.24
193.581	16.04
193.8	69.29
194.02	38.57
194.239	3.75
194.458	89.77
194.678	40.62
194.897	-0.34
195.116	-8.53
195.335	81.58
195.555	24.23
195.774	28.33
195.993	42.67
196.212	-14.68
196.432	-29.01
196.651	28.33
196.87	-4.44
197.089	7.85
197.308	3.75
197.528	93.87
197.747	-20.82
197.966	28.33
198.185	87.72
198.404	7.85
198.623	24.23
198.842	48.81
199.062	57
199.281	26.28
199.5	-6.49
199.719	7.85
199.938	77.48
200.157	69.29
200.376	138.92
200.595	83.63
200.814	9.9
201.033	67.24
201.252	81.58
201.471	18.09
201.69	85.67
201.909	81.58
202.128	48.81
202.347	59.05
202.566	13.99
202.785	89.77
203.004	40.62
203.223	38.57
203.442	69.29
203.661	38.57
203.879	85.67
204.098	36.52
204.317	11.95
204.536	36.52
204.755	30.38
204.974	30.38
205.193	-6.49
205.411	50.86
205.63	-16.73
205.849	91.82
206.068	-0.34
206.287	16.04
206.505	40.62
206.724	57
206.943	24.23
207.162	32.43
207.381	26.28
207.599	42.67
207.818	42.67
208.037	-12.63
208.255	-18.77
208.474	50.86
208.693	-4.44
208.911	-41.3
209.13	65.19
209.349	89.77
209.567	24.23
209.786	52.91
210.005	65.19
210.223	-14.68
210.442	-37.2
210.661	1.71
210.879	81.58
211.098	7.85
211.316	-10.58
211.535	40.62
211.753	54.95
211.972	100.01
212.191	-24.92
212.409	3.75
212.628	73.39
212.846	3.75
213.065	44.71
213.283	118.44
213.502	34.47
213.72	40.62
213.938	34.47
214.157	48.81
214.375	48.81
214.594	32.43
214.812	67.24
215.031	16.04
215.249	65.19
215.467	13.99
215.686	1.71
215.904	54.95
216.122	44.71
216.341	42.67
216.559	48.81
216.778	73.39
216.996	7.85
217.214	-14.68
217.432	28.33
217.651	81.58
217.869	-16.73
218.087	-82.26
218.306	73.39
218.524	67.24
218.742	67.24
218.96	7.85
219.179	48.81
219.397	69.29
219.615	63.15
219.833	32.43
220.051	-29.01
220.27	73.39
220.488	46.76
220.706	59.05
220.924	-0.34
221.142	30.38
221.36	16.04
221.578	-31.06
221.796	50.86
222.015	1.71
222.233	24.23
222.451	69.29
222.669	24.23
222.887	40.62
223.105	77.48
223.323	-45.4
223.541	9.9
223.759	91.82
223.977	40.62
224.195	106.15
224.413	42.67
224.631	91.82
224.849	7.85
225.067	65.19
225.285	-61.78
225.503	1.71
225.721	1.71
225.939	32.43
226.157	38.57
226.375	102.06
226.592	24.23
226.81	54.95
227.028	61.1
227.246	69.29
227.464	9.9
227.682	65.19
227.9	48.81
228.117	73.39
228.335	65.19
228.553	-35.16
228.771	5.8
228.989	44.71
229.206	-22.87
229.424	79.53
229.642	13.99
229.86	22.19
230.077	63.15
230.295	9.9
230.513	7.85
230.731	52.91
230.948	34.47
231.166	81.58
231.384	-8.53
231.601	59.05
231.819	106.15
232.037	-12.63
232.254	97.96
232.472	34.47
232.689	48.81
232.907	20.14
233.125	24.23
233.342	61.1
233.56	-33.11
233.777	44.71
233.995	69.29
234.213	38.57
234.43	32.43
234.648	67.24
234.865	-0.34
235.083	67.24
235.3	46.76
235.518	13.99
235.735	-24.92
235.953	100.01
236.17	32.43
236.388	16.04
236.605	42.67
236.822	75.43
237.04	28.33
237.257	36.52
237.475	-16.73
237.692	77.48
237.909	3.75
238.127	-39.25
238.344	81.58
238.562	38.57
238.779	-72.02
238.996	-0.34
239.214	40.62
239.431	38.57
239.648	-20.82
239.865	65.19
240.083	26.28
240.3	97.96
240.517	42.67
240.735	36.52
240.952	108.2
241.169	104.11
241.386	61.1
241.603	22.19
241.821	26.28
242.038	59.05
242.255	20.14
242.472	-51.54
242.689	77.48
242.907	20.14
243.124	-33.11
243.341	-10.58
243.558	-37.2
243.775	-33.11
243.992	-51.54
244.209	48.81
244.426	83.63
244.643	48.81
244.86	-35.16
245.078	20.14
245.295	40.62
245.512	44.71
245.729	-16.73
245.946	16.04
246.163	-24.92
246.38	87.72
246.597	42.67
246.814	44.71
247.031	-0.34
247.248	73.39
247.464	73.39
247.681	-22.87
247.898	16.04
248.115	114.34
248.332	32.43
248.549	130.73
248.766	106.15
248.983	97.96
249.2	-22.87
249.417	65.19
249.633	34.47
249.85	32.43
250.067	42.67
250.284	81.58
250.501	89.77
250.717	71.34
250.934	-22.87
251.151	71.34
251.368	73.39
251.585	81.58
251.801	36.52
252.018	-8.53
252.235	16.04
252.451	42.67
252.668	20.14
252.885	61.1
253.102	1.71
253.318	26.28
253.535	-12.63
253.752	32.43
253.968	18.09
254.185	16.04
254.401	28.33
254.618	61.1
254.835	57
255.051	73.39
255.268	63.15
255.484	24.23
255.701	52.91
255.917	36.52
256.134	18.09
256.351	122.54
256.567	-41.3
256.784	36.52
257	5.8
257.217	1.71
257.433	40.62
257.65	20.14
257.866	7.85
258.082	30.38
258.299	-29.01
258.515	108.2
258.732	-49.49
258.948	32.43
259.165	73.39
259.381	-31.06
259.597	44.71
259.814	26.28
260.03	-39.25
260.246	32.43
260.463	67.24
260.679	122.54
260.895	16.04
261.112	48.81
261.328	-6.49
261.544	-22.87
261.761	110.25
261.977	-0.34
262.193	34.47
262.409	5.8
262.626	110.25
262.842	24.23
263.058	16.04
263.274	46.76
263.49	13.99
263.707	32.43
263.923	108.2
264.139	-29.01
264.355	16.04
264.571	65.19
264.787	-63.83
265.004	46.76
265.22	36.52
265.436	77.48
265.652	-20.82
265.868	81.58
266.084	-14.68
266.3	91.82
266.516	-0.34
266.732	106.15
266.948	59.05
267.164	36.52
267.38	108.2
267.596	75.43
267.812	61.1
268.028	67.24
268.244	42.67
268.46	-35.16
268.676	40.62
268.892	-41.3
269.108	-16.73
269.324	-8.53
269.54	-24.92
269.756	32.43
269.972	-8.53
270.188	7.85
270.403	-12.63
270.619	-10.58
270.835	57
271.051	-0.34
271.267	7.85
271.483	65.19
271.698	-8.53
271.914	81.58
272.13	22.19
272.346	5.8
272.562	67.24
272.777	69.29
272.993	32.43
273.209	-8.53
273.425	-0.34
273.64	44.71
273.856	-0.34
274.072	57
274.287	36.52
274.503	93.87
274.719	40.62
274.934	42.67
275.15	26.28
275.366	18.09
275.581	48.81
275.797	73.39
276.012	67.24
276.228	48.81
276.444	57
276.659	138.92
276.875	-16.73
277.09	38.57
277.306	48.81
277.521	48.81
277.737	65.19
277.952	7.85
278.168	85.67
278.383	24.23
278.599	-16.73
278.814	7.85
279.03	34.47
279.245	-8.53
279.461	16.04
279.676	32.43
279.892	24.23
280.107	-0.34
280.322	26.28
280.538	73.39
280.753	-57.68
280.969	71.34
281.184	77.48
281.399	89.77
281.615	57
281.83	40.62
282.045	-10.58
282.26	40.62
282.476	-31.06
282.691	-14.68
282.906	50.86
283.122	91.82
283.337	16.04
283.552	61.1
283.767	-12.63
283.983	26.28
284.198	83.63
284.413	26.28
284.628	7.85
284.843	16.04
285.058	59.05
285.274	-53.59
285.489	26.28
285.704	48.81
285.919	83.63
286.134	1.71
286.349	-8.53
286.564	100.01
286.779	57
286.995	-22.87
287.21	-8.53
287.425	26.28
287.64	57
287.855	-16.73
288.07	9.9
288.285	57
288.5	40.62
288.715	32.43
288.93	7.85
289.145	67.24
289.36	42.67
289.575	7.85
289.79	81.58
290.004	-8.53
290.219	28.33
290.434	9.9
290.649	75.43
290.864	-8.53
291.079	24.23
291.294	87.72
291.509	100.01
291.724	13.99
291.938	24.23
292.153	20.14
292.368	44.71
292.583	34.47
292.798	-8.53
293.012	34.47
293.227	24.23
293.442	40.62
293.657	3.75
293.871	124.58
294.086	32.43
294.301	97.96
294.516	34.47
294.73	32.43
294.945	-0.34
295.16	3.75
295.374	110.25
295.589	106.15
295.804	26.28
296.018	38.57
296.233	46.76
296.447	-14.68
296.662	-2.39
296.877	75.43
297.091	67.24
297.306	63.15
297.52	16.04
297.735	83.63
297.949	48.81
298.164	73.39
298.378	48.81
298.593	-20.82
298.807	7.85
299.022	20.14
299.236	77.48
299.451	48.81
299.665	24.23
299.88	91.82
300.094	97.96
300.309	75.43
300.523	1.71
300.737	67.24
300.952	67.24
301.166	97.96
301.381	40.62
301.595	112.3
301.809	7.85
302.024	48.81
302.238	24.23
302.452	-10.58
302.667	32.43
302.881	151.21
303.095	-2.39
303.309	83.63
303.524	28.33
303.738	-8.53
303.952	28.33
304.166	-14.68
304.381	-22.87
304.595	138.92
304.809	93.87
305.023	108.2
305.237	44.71
305.452	57
305.666	18.09
305.88	48.81
306.094	83.63
306.308	52.91
306.522	106.15
306.736	40.62
306.95	-18.77
307.164	16.04
307.379	52.91
307.593	77.48
307.807	79.53
308.021	71.34
308.235	140.97
308.449	-63.83
308.663	-24.92
308.877	114.34
309.091	-26.96
309.305	40.62
309.519	-100.69
309.733	83.63
309.947	-29.01
310.161	40.62
310.374	83.63
310.588	50.86
310.802	36.52
311.016	-8.53
311.23	36.52
311.444	46.76
311.658	-2.39
311.872	34.47
312.085	114.34
312.299	42.67
312.513	106.15
312.727	126.63
312.941	57
313.154	16.04
313.368	50.86
313.582	95.91
313.796	24.23
314.009	24.23
314.223	85.67
314.437	77.48
314.651	50.86
314.864	16.04
315.078	-41.3
315.292	57
315.505	65.19
315.719	52.91
315.933	40.62
316.146	57
316.36	34.47
316.573	75.43
316.787	77.48
317.001	167.59
317.214	-49.49
317.428	114.34
317.641	-74.07
317.855	1.71
318.068	85.67
318.282	73.39
318.495	75.43
318.709	73.39
318.922	69.29
319.136	67.24
319.349	18.09
319.563	89.77
319.776	57
319.99	18.09
320.203	71.34
320.417	-31.06
320.63	-0.34
320.843	26.28
321.057	32.43
321.27	54.95
321.483	91.82
321.697	89.77
321.91	16.04
322.124	32.43
322.337	24.23
322.55	65.19
322.763	48.81
322.977	81.58
323.19	-16.73
323.403	1.71
323.617	102.06
323.83	52.91
324.043	52.91
324.256	40.62
324.469	34.47
324.683	65.19
324.896	77.48
325.109	24.23
325.322	-8.53
325.535	48.81
325.748	106.15
325.962	16.04
326.175	69.29
326.388	57
326.601	67.24
326.814	48.81
327.027	48.81
327.24	83.63
327.453	65.19
327.666	85.67
327.879	22.19
328.092	50.86
328.305	16.04
328.518	20.14
328.731	11.95
328.944	89.77
329.157	71.34
329.37	69.29
329.583	73.39
329.796	149.16
330.009	-22.87
330.222	26.28
330.435	52.91
330.648	69.29
330.861	7.85
331.073	40.62
331.286	22.19
331.499	59.05
331.712	34.47
331.925	34.47
332.138	48.81
332.35	128.68
332.563	-4.44
332.776	91.82
332.989	42.67
333.202	65.19
333.414	134.82
333.627	73.39
333.84	26.28
334.053	136.87
334.265	34.47
334.478	22.19
334.691	-18.77
334.903	48.81
335.116	7.85
335.329	28.33
335.541	87.72
335.754	108.2
335.966	1.71
336.179	-0.34
336.392	81.58
336.604	13.99
336.817	102.06
337.029	44.71
337.242	36.52
337.454	75.43
337.667	89.77
337.88	81.58
338.092	85.67
338.305	85.67
338.517	-43.35
338.729	67.24
338.942	106.15
339.154	20.14
339.367	81.58
339.579	-0.34
339.792	1.71
340.004	20.14
340.217	91.82
340.429	75.43
340.641	20.14
340.854	40.62
341.066	18.09
341.278	112.3
341.491	97.96
341.703	13.99
341.915	-8.53
342.128	85.67
342.34	75.43
342.552	1.71
342.764	-37.2
342.977	61.1
343.189	73.39
343.401	11.95
343.613	-22.87
343.826	91.82
344.038	50.86
344.25	34.47
344.462	-0.34
344.674	112.3
344.886	34.47
345.099	89.77
345.311	24.23
345.523	61.1
345.735	-8.53
345.947	81.58
346.159	100.01
346.371	79.53
346.583	65.19
346.795	100.01
347.007	7.85
347.219	54.95
347.431	52.91
347.643	32.43
347.855	-12.63
348.067	36.52
348.279	20.14
348.491	32.43
348.703	118.44
348.915	65.19
349.127	-8.53
349.339	32.43
349.551	-37.2
349.763	16.04
349.975	46.76
350.187	48.81
350.399	-4.44
350.61	24.23
350.822	7.85
351.034	81.58
351.246	57
351.458	65.19
351.669	42.67
351.881	75.43
352.093	20.14
352.305	28.33
352.517	91.82
352.728	26.28
352.94	1.71
353.152	11.95
353.363	36.52
353.575	-29.01
353.787	73.39
353.999	16.04
354.21	97.96
354.422	-20.82
354.633	44.71
354.845	48.81
355.057	16.04
355.268	65.19
355.48	124.58
355.692	-35.16
355.903	-10.58
356.115	1.71
356.326	-37.2
356.538	57
356.749	-4.44
356.961	24.23
357.172	69.29
357.384	71.34
357.595	102.06
357.807	3.75
358.018	24.23
358.23	65.19
358.441	124.58
358.653	48.81
358.864	16.04
359.075	-31.06
359.287	-0.34
359.498	75.43
359.709	61.1
359.921	24.23
360.132	9.9
360.344	97.96
360.555	42.67
360.766	46.76
360.977	52.91
361.189	93.87
361.4	16.04
361.611	48.81
361.823	42.67
362.034	24.23
362.245	46.76
362.456	77.48
362.667	65.19
362.879	5.8
363.09	-14.68
363.301	73.39
363.512	28.33
363.723	61.1
363.935	44.71
364.146	26.28
364.357	-6.49
364.568	-33.11
364.779	-35.16
364.99	75.43
365.201	5.8
365.412	104.11
365.623	-35.16
365.834	73.39
366.045	65.19
366.256	79.53
366.467	24.23
366.678	44.71
366.889	30.38
367.1	28.33
367.311	83.63
367.522	75.43
367.733	102.06
367.944	18.09
368.155	40.62
368.366	73.39
368.577	79.53
368.788	100.01
368.999	114.34
369.209	5.8
369.42	106.15
369.631	114.34
369.842	16.04
370.053	65.19
370.264	116.39
370.474	48.81
370.685	114.34
370.896	102.06
371.107	110.25
371.317	57
371.528	13.99
371.739	77.48
371.95	28.33
372.16	-6.49
372.371	85.67
372.582	73.39
372.792	54.95
373.003	24.23
373.214	77.48
373.424	75.43
373.635	28.33
373.846	24.23
374.056	3.75
374.267	108.2
374.477	81.58
374.688	-6.49
374.898	46.76
375.109	110.25
375.319	85.67
375.53	73.39
375.74	73.39
375.951	69.29
376.161	75.43
376.372	67.24
376.582	52.91
376.793	26.28
377.003	-65.88
377.214	65.19
377.424	69.29
377.635	97.96
377.845	52.91
378.055	89.77
378.266	16.04
378.476	44.71
378.686	102.06
378.897	61.1
379.107	34.47
379.317	69.29
379.528	32.43
379.738	54.95
379.948	40.62
380.158	24.23
380.369	73.39
380.579	73.39
380.789	65.19
380.999	34.47
381.21	106.15
381.42	106.15
381.63	38.57
381.84	-0.34
382.05	77.48
382.261	52.91
382.471	69.29
382.681	18.09
382.891	106.15
383.101	73.39
383.311	36.52
383.521	24.23
383.731	28.33
383.941	97.96
384.151	38.57
384.361	24.23
384.571	36.52
384.781	97.96
384.991	95.91
385.201	190.12
385.411	102.06
385.621	97.96
385.831	16.04
386.041	26.28
386.251	77.48
386.461	198.31
386.671	67.24
386.881	42.67
387.091	40.62
387.301	102.06
387.511	95.91
387.72	151.21
387.93	87.72
388.14	-31.06
388.35	128.68
388.56	122.54
388.769	130.73
388.979	134.82
389.189	-24.92
389.399	102.06
389.609	118.44
389.818	20.14
390.028	54.95
390.238	50.86
390.447	65.19
390.657	112.3
390.867	-16.73
391.076	28.33
391.286	52.91
391.496	155.3
391.705	126.63
391.915	48.81
392.125	151.21
392.334	87.72
392.544	61.1
392.753	3.75
392.963	149.16
393.172	97.96
393.382	116.39
393.591	167.59
393.801	79.53
394.01	177.83
394.22	73.39
394.429	67.24
394.639	59.05
394.848	122.54
395.058	122.54
395.267	44.71
395.477	97.96
395.686	77.48
395.895	67.24
396.105	161.45
396.314	126.63
396.524	48.81
396.733	38.57
396.942	116.39
397.152	106.15
397.361	167.59
397.57	122.54
397.78	44.71
397.989	97.96
398.198	122.54
398.407	126.63
398.617	130.73
398.826	143.02
399.035	165.54
399.244	114.34
399.453	167.59
399.663	32.43
399.872	89.77
400.081	32.43
400.29	106.15
400.499	114.34
400.708	179.88
400.917	24.23
401.127	44.71
401.336	124.58
401.545	192.17
401.754	145.06
401.963	183.98
402.172	196.26
402.381	124.58
402.59	122.54
402.799	147.11
403.008	147.11
403.217	130.73
403.426	171.69
403.635	179.88
403.844	153.26
404.053	212.65
404.262	147.11
404.471	224.94
404.68	241.32
404.888	140.97
405.097	108.2
405.306	233.13
405.515	198.31
405.724	163.5
405.933	251.56
406.142	237.22
406.35	231.08
406.559	284.33
406.768	196.26
406.977	278.18
407.185	206.5
407.394	306.85
407.603	239.27
407.812	294.57
408.02	409.25
408.229	315.05
408.438	269.99
408.646	220.84
408.855	239.27
409.064	321.19
409.272	239.27
409.481	286.37
409.69	405.16
409.898	450.21
410.107	507.55
410.315	351.91
410.524	351.91
410.733	476.84
410.941	405.16
411.15	493.22
411.358	497.32
411.567	534.18
411.775	532.13
411.984	487.08
412.192	534.18
412.401	460.45
412.609	585.38
412.818	616.1
413.026	650.91
413.234	648.86
413.443	650.91
413.651	671.39
413.86	736.93
414.068	632.48
414.276	790.17
414.485	829.09
414.693	843.42
414.901	921.24
415.11	736.93
415.318	921.24
415.526	919.2
415.734	1050.27
415.943	1105.56
416.151	1062.55
416.359	974.49
416.567	988.83
416.776	1087.13
416.984	1212.06
417.192	1205.91
417.4	1175.19
417.608	1201.82
417.817	1224.34
418.025	1312.41
418.233	1451.67
418.441	1392.28
418.649	1472.15
418.857	1638.03
419.065	1615.51
419.273	1572.5
419.481	1707.66
419.689	1810.06
419.897	1834.64
420.105	1826.45
420.313	1918.61
420.521	2041.48
420.729	2055.82
420.937	2084.49
421.145	2006.67
421.353	2287.24
421.561	2391.69
421.769	2440.84
421.977	2596.48
422.185	2416.26
422.393	2715.27
422.601	2813.57
422.809	2821.76
423.017	2832
423.224	2940.54
423.432	3114.62
423.64	2961.02
423.848	3456.63
424.056	3153.53
424.263	3411.57
424.471	3485.3
424.679	3706.48
424.887	3817.07
425.094	3987.05
425.302	3972.72
425.51	4021.87
425.718	4128.36
425.925	4284.01
426.133	4382.31
426.341	4609.64
426.548	4847.2
426.756	4822.63
426.964	4828.77
427.171	5217.88
427.379	5217.88
427.586	5351
427.794	5574.23
428.001	5912.14
428.209	6192.72
428.417	6004.3
428.624	6411.85
428.832	6317.64
429.039	6301.26
429.247	6456.9
429.454	6864.45
429.662	7241.28
429.869	6895.17
430.076	7448.12
430.284	7249.47
430.491	7458.36
430.699	7921.2
430.906	7982.64
431.114	8007.22
431.321	8416.81
431.528	8461.87
431.736	8885.8
431.943	9432.6
432.15	9211.42
432.358	9289.24
432.565	9764.37
432.772	9797.14
432.979	10014.23
433.187	10305.04
433.394	10272.27
433.601	11253.25
433.808	11132.42
434.016	11148.8
434.223	11464.19
434.43	12197.36
434.637	11920.88
434.844	12713.45
435.052	13161.95
435.259	12819.94
435.466	12819.94
435.673	12879.33
435.88	13630.94
436.087	14134.74
436.294	14439.89
436.501	13934.04
436.708	14280.14
436.915	14747.08
437.122	15291.84
437.329	15334.85
437.537	15734.2
437.743	16223.67
437.95	16045.49
438.157	16670.12
438.364	17589.66
438.571	17118.63
438.778	17413.54
438.985	19039.62
439.192	18144.66
439.399	18855.31
439.606	18378.13
439.813	19488.13
440.02	20555.12
440.227	20192.63
440.433	20168.05
440.64	20893.04
440.847	20536.69
441.054	21292.39
441.261	22461.78
441.467	22119.77
441.674	22771.02
441.881	23377.22
442.088	23418.18
442.294	23424.33
442.501	23711.04
442.708	24573.24
442.914	25212.2
443.121	26277.15
443.328	25455.91
443.534	27561.22
443.741	26490.13
443.948	26524.95
444.154	27895.04
444.361	28026.11
444.568	28177.66
444.774	28013.82
444.981	28726.52
445.187	29152.49
445.394	30745.81
445.6	30272.73
445.807	33119.41
446.013	31524.04
446.22	31943.88
446.426	33264.82
446.633	33989.8
446.839	34886.81
447.046	33492.14
447.252	35433.61
447.459	35019.92
447.665	35058.84
447.871	36662.4
448.078	38261.86
448.284	36486.27
448.491	37145.72
448.697	38558.81
448.903	39502.93
449.11	39496.78
449.316	38802.52
449.522	39412.82
449.728	40361.03
449.935	40997.95
450.141	41376.82
450.347	41786.41
450.553	40754.24
450.76	41094.2
450.966	42595.36
451.172	41823.28
451.378	42560.55
451.584	42013.74
451.791	43283.48
451.997	42748.96
452.203	43516.95
452.409	43811.85
452.615	43453.46
452.821	41831.47
453.027	41022.52
453.233	43168.79
453.44	41831.47
453.646	42241.06
453.852	42087.46
454.058	43019.29
454.264	41516.08
454.47	42359.84
454.676	41686.06
454.882	42994.71
455.088	39148.63
455.294	39955.53
455.5	40324.16
455.705	40653.89
455.911	38888.54
456.117	38444.13
456.323	37405.81
456.529	36191.36
456.735	37493.87
456.941	36826.23
457.147	35697.8
457.352	34542.75
457.558	34192.54
457.764	34337.95
457.97	33379.5
458.176	32726.2
458.381	33230
458.587	31315.15
458.793	31485.13
458.999	29824.23
459.204	31673.54
459.41	30921.94
459.616	28798.2
459.821	28939.51
460.027	28755.19
460.233	28155.13
460.438	26717.46
460.644	27360.52
460.85	25871.65
461.055	25660.71
461.261	25349.42
461.466	23672.13
461.672	22793.55
461.878	24509.75
462.083	22648.15
462.289	22080.86
462.494	21998.94
462.7	21265.77
462.905	20540.79
463.111	21249.38
463.316	21407.08
463.522	20852.08
463.727	20790.64
463.932	20667.76
464.138	20657.52
464.343	20759.92
464.549	20073.85
464.754	20512.11
464.959	20548.98
465.165	20403.57
465.37	19504.51
465.575	19185.03
465.781	19832.19
465.986	19840.38
466.191	19203.46
466.397	18759.05
466.602	18146.71
466.807	18578.83
467.012	18408.85
467.218	18136.47
467.423	18275.73
467.628	18333.07
467.833	18865.55
468.038	18199.96
468.244	17900.95
468.449	18673.04
468.654	17874.33
468.859	17702.3
469.064	17632.67
469.269	16756.14
469.474	17243.56
469.679	17540.51
469.885	16958.89
470.09	16860.59
470.295	17010.09
470.5	16653.74
470.705	16450.99
470.91	16113.08
471.115	16137.65
471.32	16420.27
471.525	16518.57
471.73	15828.41
471.935	15824.31
472.139	15424.96
472.344	15353.28
472.549	15214.02
472.754	15103.43
472.959	15080.9
473.164	14493.13
473.369	14392.78
473.574	14814.66
473.778	14630.35
473.983	14667.21
474.188	14288.34
474.393	13688.28
474.598	13946.33
474.802	13850.07
475.007	13755.86
475.212	13843.93
475.417	13219.3
475.621	13073.89
475.826	13196.77
476.031	12885.48
476.235	12803.56
476.44	12809.7
476.645	12510.7
476.849	12848.61
477.054	12479.98
477.259	12330.48
477.463	12527.08
477.668	12174.83
477.872	12066.29
478.077	11810.29
478.282	11697.66
478.486	11664.89
478.691	11572.73
478.895	11548.15
479.1	11509.24
479.304	11484.67
479.509	11001.35
479.713	11369.98
479.918	11212.29
480.122	10978.82
480.326	11124.22
480.531	11093.51
480.735	10937.86
480.94	10884.61
481.144	11470.33
481.348	10591.75
481.553	10991.11
481.757	10522.12
481.961	10702.34
482.166	11034.11
482.37	10706.44
482.574	10403.34
482.778	10769.93
482.983	10829.32
483.187	10601.99
483.391	10763.78
483.595	10636.81
483.8	10409.48
484.004	10579.47
484.208	10696.2
484.412	10675.72
484.616	10731.01
484.821	10657.29
485.025	10544.65
485.229	10503.69
485.433	10649.1
485.637	10454.54
485.841	10479.11
486.045	10411.53
486.249	10329.61
486.453	10325.52
486.657	10683.91
486.861	10659.34
487.065	10169.87
487.269	10526.22
487.473	10446.35
487.677	10579.47
487.881	10726.92
488.085	10491.4
488.289	10710.54
488.493	10464.78
488.697	10585.61
488.901	10403.34
489.105	10585.61
489.309	10683.91
489.512	10536.46
489.716	10425.87
489.92	10917.38
490.124	10446.35
490.328	10749.45
490.531	10726.92
490.735	10675.72
490.939	10616.33
491.143	10870.28
491.346	10673.67
491.55	10911.24
491.754	10905.09
491.958	10886.66
492.161	10763.78
492.365	10911.24
492.569	10829.32
492.772	11122.18
492.976	10989.06
493.18	11107.84
493.383	11363.84
493.587	11165.18
493.79	11392.51
493.994	11247.1
494.197	11388.41
494.401	11556.35
494.605	11443.71
494.808	11666.94
495.012	11640.31
495.215	11765.24
495.419	11955.7
495.622	11810.29
495.825	11927.03
496.029	12000.76
496.232	12185.07
496.436	11970.04
496.639	12451.31
496.843	12328.43
497.046	12367.34
497.249	12578.28
497.453	12586.47
497.656	13002.21
497.859	12973.54
498.063	13034.98
498.266	13256.16
498.469	13258.21
498.673	13176.29
498.876	13696.47
499.079	13589.98
499.282	13508.06
499.485	13946.33
499.689	13911.51
499.892	14294.48
500.095	14206.42
500.298	14673.35
500.501	14386.64
500.705	14796.23
500.908	14915.02
501.111	15289.79
501.314	15082.95
501.517	15168.96
501.72	15439.3
501.923	15656.38
502.126	15789.5
502.329	16154.04
502.532	15895.99
502.735	16272.82
502.938	16498.09
503.141	16494
503.344	16784.81
503.547	16829.87
503.75	16872.87
503.953	17368.48
504.156	17440.16
504.359	17726.88
504.562	17651.1
504.765	18038.17
504.968	18054.55
505.17	18316.69
505.373	18419.09
505.576	18574.74
505.779	19008.9
505.982	18943.37
506.185	19453.31
506.387	19324.29
506.59	19613.06
506.793	19752.32
506.996	19965.31
507.198	20352.37
507.401	20372.85
507.604	20444.53
507.807	20776.3
508.009	21099.88
508.212	21040.49
508.415	21257.57
508.617	21560.67
508.82	21835.1
509.022	22062.43
509.225	22594.9
509.428	22273.37
509.63	22369.62
509.833	22467.92
510.035	23489.86
510.238	23174.47
510.44	23307.59
510.643	23721.28
510.845	23819.58
511.048	23881.02
511.25	24368.44
511.453	24096.06
511.655	25206.06
511.858	24980.78
512.06	25283.88
512.262	25572.64
512.465	25380.14
512.667	25916.7
512.87	25990.43
513.072	26318.11
513.274	26621.2
513.477	26879.25
513.679	26797.33
513.881	27282.7
514.084	27456.78
514.286	27413.77
514.488	27419.91
514.69	28658.93
514.893	28482.81
515.095	28601.59
515.297	29115.63
515.499	29172.97
515.701	29488.36
515.904	29480.17
516.106	30147.81
516.308	30207.2
516.51	30573.78
516.712	30711
516.914	30713.05
517.116	31239.37
517.318	31057.1
517.52	31573.19
517.722	31657.16
517.925	31984.83
518.127	32201.92
518.329	32691.38
518.531	32324.8
518.733	33135.79
518.935	33496.24
519.136	33285.29
519.338	33586.35
519.54	33791.14
519.742	33832.1
519.944	33920.17
520.146	34851.99
520.348	34884.76
520.55	34823.32
520.752	35046.55
520.954	35480.72
521.155	34849.94
521.357	35687.56
521.559	35851.4
521.761	36478.08
521.963	36220.03
522.164	36574.33
522.366	36457.6
522.568	37106.8
522.77	37033.08
522.971	37629.04
523.173	36908.15
523.375	37719.15
523.576	37551.21
523.778	37340.27
523.98	38044.77
524.181	37975.14
524.383	38186.08
524.584	38321.25
524.786	38138.98
524.988	38290.53
525.189	38597.73
525.391	38933.59
525.592	38779.99
525.794	38808.67
525.995	39113.81
526.197	38958.17
526.398	39279.7
526.6	39175.25
526.801	39654.48
527.003	39283.8
527.204	39429.2
527.406	39836.75
527.607	39634
527.808	39937.1
528.01	39236.69
528.211	39734.35
528.412	40066.12
528.614	39758.92
528.815	39859.27
529.016	40227.91
529.218	39713.87
529.419	39830.6
529.62	39986.25
529.822	39795.79
530.023	39558.22
530.224	39916.62
530.425	39289.94
530.626	39521.36
530.828	39242.84
531.029	40086.6
531.23	39621.71
531.431	39634
531.632	39720.01
531.833	40137.8
532.035	39797.84
532.236	39656.53
532.437	39775.31
532.638	39679.05
532.839	39730.25
533.04	39930.95
533.241	39556.18
533.442	40115.27
533.643	39894.09
533.844	39380.05
534.045	39685.2
534.246	39011.42
534.447	40031.3
534.648	39433.3
534.849	39414.87
535.05	38847.58
535.251	39048.28
535.451	39257.17
535.652	39402.58
535.853	39035.99
536.054	39052.37
536.255	39205.97
536.456	38831.19
536.657	39320.66
536.857	38777.95
537.058	38782.04
537.259	38710.36
537.46	39124.05
537.66	38517.85
537.861	39101.53
538.062	38407.26
538.263	38716.51
538.463	38491.23
538.664	38321.25
538.865	38782.04
539.065	38929.5
539.266	38208.61
539.466	38698.08
539.667	38159.46
539.868	38720.6
540.068	38022.25
540.269	38376.55
540.469	38487.14
540.67	38073.45
540.87	38112.36
541.071	38335.59
541.271	38687.84
541.472	37772.39
541.672	38001.77
541.873	37751.91
542.073	37778.54
542.274	38431.84
542.474	37993.57
542.675	37723.24
542.875	38265.95
543.075	38153.32
543.276	37827.69
543.476	38394.98
543.676	38050.92
543.877	37823.59
544.077	37770.35
544.277	38057.06
544.478	37825.64
544.678	38061.16
544.878	37778.54
545.078	37862.5
545.279	37721.2
545.479	37532.78
545.679	38159.46
545.879	38098.02
546.079	37987.43
546.28	37923.94
546.48	37930.09
546.68	37999.72
546.88	37921.9
547.08	37778.54
547.28	37612.65
547.48	37586.03
547.68	37479.53
547.88	37653.61
548.081	38143.08
548.281	37571.69
548.481	37418.1
548.681	37956.71
548.881	37807.21
549.081	37672.04
549.28	37545.07
549.48	38083.69
549.68	37973.1
549.88	38409.31
550.08	37344.37
550.28	37813.35
550.48	37600.36
550.68	37985.38
550.88	38186.08
551.08	38181.99
551.279	38089.83
551.479	37641.32
551.679	38335.59
551.879	37710.96
552.079	38118.5
552.278	37747.82
552.478	38087.78
552.678	37948.52
552.878	38194.28
553.077	37637.23
553.277	37428.34
553.477	38630.49
553.676	38163.56
553.876	37917.8
554.076	37758.06
554.275	38110.31
554.475	37768.3
554.674	38265.95
554.874	38134.88
555.074	38231.14
555.273	38222.95
555.473	38194.28
555.672	38163.56
555.872	38069.35
556.071	38323.3
556.271	38327.39
556.47	38079.59
556.67	38048.87
556.869	38175.84
557.068	37962.86
557.268	38083.69
557.467	38351.97
557.667	38452.32
557.866	38151.27
558.065	38169.7
558.265	37774.44
558.464	37733.48
558.663	38374.5
558.863	37717.1
559.062	38679.64
559.261	37919.85
559.461	38706.27
559.66	37844.07
559.859	37821.55
560.058	37825.64
560.258	38292.58
560.457	38071.4
560.656	38016.1
560.855	37801.07
561.054	37862.5
561.253	37887.08
561.453	38311.01
561.652	38157.41
561.851	38220.9
562.05	37905.51
562.249	37647.47
562.448	38732.89
562.647	38274.15
562.846	38470.75
563.045	37940.33
563.244	37735.53
563.443	38161.51
563.642	37483.63
563.841	37753.96
564.04	37776.49
564.239	37981.29
564.438	37913.7
564.637	37901.42
564.836	37604.46
565.035	37448.82
565.234	37760.11
565.432	37409.9
565.631	37497.97
565.83	37655.66
566.029	37287.03
566.228	37948.52
566.427	37127.28
566.625	36883.58
566.824	37311.6
567.023	37528.69
567.222	36850.81
567.42	37356.66
567.619	37278.83
567.818	37026.93
568.016	37043.32
568.215	37147.76
568.414	36648.06
568.612	37098.61
568.811	36871.29
569.01	36807.8
569.208	36541.57
569.407	36545.66
569.605	36310.14
569.804	36752.51
570.002	36519.04
570.201	36521.09
570.4	36088.96
570.598	35953.8
570.797	35992.71
570.995	36050.05
571.193	35615.88
571.392	36121.73
571.59	35789.96
571.789	35536.01
571.987	35875.98
572.186	35695.75
572.384	35421.33
572.582	35738.76
572.781	35751.05
572.979	34862.23
573.177	35615.88
573.376	35116.18
573.574	35028.12
573.772	35286.16
573.971	35093.65
574.169	34700.44
574.367	34129.06
574.565	34788.5
574.763	34598.04
574.962	34190.5
575.16	34020.52
575.358	34372.77
575.556	33705.13
575.754	34411.68
575.952	33993.89
576.151	34364.57
576.349	33807.53
576.547	33744.04
576.745	33580.2
576.943	33854.63
577.141	33707.18
577.339	33641.64
577.537	33623.21
577.735	33432.75
577.933	33246.38
578.131	33211.57
578.329	33289.39
578.527	32421.05
578.725	32971.96
578.923	33236.14
579.121	32591.03
579.319	32689.34
579.516	32732.34
579.714	33062.07
579.912	32509.11
580.11	32601.27
580.308	32210.11
580.506	32138.43
580.704	31929.54
580.901	31804.61
581.099	32380.09
581.297	32066.75
581.495	32136.38
581.692	31976.64
581.89	31499.47
582.088	31878.34
582.285	31382.73
582.483	31612.1
582.681	31540.43
582.878	31296.72
583.076	31192.27
583.274	31505.61
583.471	30837.97
583.669	31182.03
583.866	30989.52
584.064	31194.32
584.262	30825.68
584.459	31034.58
584.657	30635.22
584.854	30895.32
585.052	30168.29
585.249	30788.82
585.447	30721.24
585.644	30401.75
585.841	30639.32
586.039	30575.83
586.236	30053.6
586.434	29983.97
586.631	30012.64
586.828	29865.19
587.026	29951.2
587.223	29813.99
587.42	29795.56
587.618	30088.42
587.815	29539.56
588.012	29775.08
588.21	29492.46
588.407	29760.74
588.604	29494.5
588.801	29390.06
588.999	29416.68
589.196	29347.05
589.393	29256.94
589.59	28798.2
589.787	28990.7
589.984	28992.75
590.182	28712.18
590.379	29019.38
590.576	28732.66
590.773	28884.21
590.97	28730.61
591.167	28521.72
591.364	28603.64
591.561	28601.59
591.758	28228.86
591.955	28491
592.152	28703.99
592.349	28230.91
592.546	28214.52
592.743	28339.45
592.94	27956.48
593.137	28128.51
593.334	28185.85
593.531	27782.4
593.727	28132.61
593.924	27880.71
594.121	28085.5
594.318	28044.54
594.515	27837.7
594.712	28241.15
594.908	27671.81
595.105	27878.66
595.302	27774.21
595.499	27804.93
595.696	27704.58
595.892	27530.5
596.089	27628.81
596.286	27356.43
596.482	27536.65
596.679	27440.39
596.876	27864.32
597.072	27374.86
597.269	27806.98
597.466	27190.54
597.662	27239.69
597.859	27573.51
598.055	27399.43
598.252	27381
598.448	27364.62
598.645	27325.71
598.841	27047.18
599.038	27370.76
599.234	27165.96
599.431	26842.39
599.627	26993.93
599.824	27288.84
600.02	26971.41
600.217	27215.12
600.413	26955.02
600.609	26977.55
600.806	27284.75
601.002	27180.3
601.198	26854.67
601.395	27086.09
601.591	26973.46
601.787	26854.67
601.984	26883.34
602.18	27274.51
602.376	26826
602.572	27102.48
602.769	27313.42
602.965	26739.99
603.161	27032.85
603.357	27092.24
603.553	26713.36
603.75	26844.43
603.946	26780.95
604.142	26975.5
604.338	26635.54
604.534	27133.2
604.73	26643.73
604.926	27182.35
605.122	26918.16
605.318	27090.19
605.514	26950.93
605.71	27008.27
605.906	27043.09
606.102	27149.58
606.298	27120.91
606.494	27282.7
606.69	27032.85
606.886	27227.4
607.082	26928.4
607.278	27198.73
607.474	26854.67
607.67	27456.78
607.866	27194.64
608.062	27837.7
608.257	27260.17
608.453	27161.87
608.649	27381
608.845	27065.61
609.041	27227.4
609.236	27438.34
609.432	27258.12
609.628	27374.86
609.824	27413.77
610.019	27387.14
610.215	27507.97
610.411	27634.95
610.606	27337.99
610.802	27655.43
610.998	27598.09
611.193	27581.7
611.389	27573.51
611.584	27708.68
611.78	27729.16
611.976	27383.05
612.171	27360.52
612.367	27690.24
612.562	27319.56
612.758	27059.47
612.953	27428.1
613.149	27675.91
613.344	27284.75
613.539	28101.89
613.735	27770.11
613.93	27974.91
614.126	27585.8
614.321	27921.66
614.517	27712.77
614.712	27637
614.907	27825.41
615.103	28001.54
615.298	27704.58
615.493	27866.37
615.688	27612.42
615.884	28300.54
616.079	27194.64
616.274	27737.35
616.47	27688.2
616.665	27708.68
616.86	27835.65
617.055	27614.47
617.25	27094.29
617.445	28083.45
617.641	27202.83
617.836	27628.81
618.031	27221.26
618.226	27942.14
618.421	27454.73
618.616	27606.28
618.811	27333.9
619.006	27356.43
619.201	27073.81
619.396	27264.27
619.591	26897.68
619.786	27221.26
619.981	26645.78
620.176	27127.05
620.371	26883.34
620.566	27075.85
620.761	26619.16
620.956	26828.05
621.151	26281.24
621.346	26305.82
621.541	26182.94
621.735	26570.01
621.93	26150.17
622.125	25992.48
622.32	25660.71
622.515	25920.8
622.709	25689.38
622.904	25699.62
623.099	25304.36
623.294	25597.22
623.488	25267.5
623.683	25349.42
623.878	25011.5
624.072	24917.29
624.267	24765.74
624.462	24626.48
624.656	24732.98
624.851	24698.16
625.046	24585.52
625.24	24405.3
625.435	24288.57
625.629	24333.62
625.824	24233.27
626.018	24190.27
626.213	23606.59
626.407	23811.39
626.602	23246.15
626.796	23588.16
626.991	23348.55
627.185	23395.65
627.38	22938.96
627.574	23213.38
627.768	23061.83
627.963	23002.44
628.157	22572.37
628.352	22588.75
628.546	22332.76
628.74	22816.08
628.935	22615.38
629.129	22265.17
629.323	22084.95
629.517	22009.18
629.712	21759.33
629.906	21982.56
630.1	21564.77
630.294	21402.98
630.489	21572.96
630.683	21415.27
630.877	21095.78
631.071	20917.61
631.265	20821.36
631.459	21060.97
631.653	20585.84
631.848	20702.57
632.042	20675.95
632.236	20661.62
632.43	20305.27
632.624	20411.76
632.818	20209.01
633.012	20174.2
633.206	20039.03
633.4	20227.45
633.594	19500.42
633.788	19967.35
633.982	19926.39
634.176	19805.56
634.369	19359.11
634.563	19357.06
634.757	19344.77
634.951	19154.31
635.145	19105.16
635.339	19428.74
635.533	18804.11
635.726	19125.64
635.92	18697.61
636.114	18601.36
636.308	18259.35
636.501	18232.72
636.695	18189.72
636.889	18134.42
637.083	18251.16
637.276	17870.23
637.47	17849.75
637.664	17878.43
637.857	17804.7
638.051	17632.67
638.244	17431.97
638.438	17560.99
638.632	17384.87
638.825	17145.25
639.019	17204.64
639.212	16911.78
639.406	16803.24
639.599	17038.76
639.793	16930.22
639.986	16623.02
640.18	16678.32
640.373	16721.32
640.567	16293.3
640.76	16428.46
640.954	16154.04
641.147	16106.93
641.34	16137.65
641.534	15900.09
641.727	16027.06
641.92	15836.6
642.114	15615.42
642.307	15793.59
642.5	15549.89
642.694	15162.82
642.887	15279.55
643.08	15164.87
643.273	15242.69
643.467	15191.49
643.66	14945.73
643.853	14972.36
644.046	14749.13
644.239	14669.26
644.432	14587.34
644.626	14593.48
644.819	14548.43
645.012	14339.54
645.205	14425.55
645.398	14407.12
645.591	14314.96
645.784	13868.5
645.977	13751.77
646.17	13852.12
646.363	13794.78
646.556	13616.6
646.749	13743.58
646.942	13471.2
647.135	13532.64
647.328	13325.79
647.521	13315.55
647.714	13014.5
647.907	13192.67
648.099	12975.59
648.292	13082.08
648.485	13151.71
648.678	12766.7
648.871	12877.29
649.064	12756.46
649.256	13022.69
649.449	12719.59
649.642	12506.6
649.835	12465.64
650.027	12283.38
650.22	12180.98
650.413	12355.05
650.605	12406.25
650.798	12123.63
650.991	11976.18
651.183	12193.26
651.376	11881.97
651.568	12135.92
651.761	11783.67
651.954	11759.1
652.146	11687.42
652.339	11611.64
652.531	11613.69
652.724	11372.03
652.916	11499
653.109	11462.14
653.301	11404.8
653.494	11294.21
653.686	11046.4
653.879	11189.76
654.071	11130.37
654.263	10860.04
654.456	10982.92
654.648	10964.48
654.84	10749.45
655.033	10817.03
655.225	10692.1
655.417	10577.42
655.61	10407.44
655.802	10542.6
655.994	10667.53
656.186	10683.91
656.379	10294.8
656.571	10346
656.763	10173.97
656.955	10014.23
657.148	10534.41
657.34	10247.69
657.532	10069.52
657.724	10108.43
657.916	10055.19
658.108	9987.6
658.3	9854.48
658.492	9831.96
658.684	9838.1
658.876	9895.44
659.068	9637.4
659.26	9717.27
659.452	9518.62
659.644	9606.68
659.836	9463.32
660.028	9590.3
660.22	9330.2
660.412	9301.53
660.604	9328.16
660.796	9301.53
660.988	9248.29
661.18	9209.37
661.372	8912.42
661.563	9055.78
661.755	8887.84
661.947	8807.97
662.139	8748.58
662.331	8726.05
662.522	8594.98
662.714	8785.44
662.906	8584.74
663.097	8603.18
663.289	8529.45
663.481	8420.91
663.673	8504.87
663.864	8449.58
664.056	8351.28
664.247	8453.67
664.439	8216.11
664.631	8187.44
664.822	8187.44
665.014	8212.01
665.205	8150.57
665.397	8119.85
665.588	7978.54
665.78	8093.23
665.971	7845.43
666.163	7929.39
666.354	7892.53
666.546	7888.43
666.737	7732.79
666.929	7865.91
667.12	7704.12
667.311	7827
667.503	7712.31
667.694	7747.12
667.885	7685.69
668.077	7536.18
668.268	7413.31
668.459	7437.88
668.651	7163.45
668.842	7458.36
669.033	7532.09
669.224	7306.81
669.416	7347.77
669.607	7243.32
669.798	7278.14
669.989	7226.94
670.18	7204.41
670.371	7114.3
670.563	7149.12
670.754	7249.47
670.945	6966.85
671.136	6811.2
671.327	7011.9
671.518	7079.49
671.709	6833.73
671.9	6876.74
672.091	6991.42
672.282	6848.07
672.473	6741.57
672.664	6841.92
672.855	6809.15
673.046	6827.59
673.237	6772.29
673.428	6790.72
673.619	6667.84
673.809	6702.66
674	6563.4
674.191	6622.79
674.382	6487.62
674.573	6587.97
674.764	6444.62
674.954	6569.54
675.145	6389.32
675.336	6438.47
675.527	6301.26
675.717	6569.54
675.908	6491.72
676.099	6391.37
676.289	6473.29
676.48	6340.17
676.671	6248.01
676.861	6391.37
677.052	6415.94
677.243	6372.94
677.433	6078.03
677.624	6129.23
677.814	6217.29
678.005	6297.16
678.195	6270.54
678.386	6205
678.576	6096.46
678.767	6123.09
678.957	6151.76
679.148	6086.22
679.338	6096.46
679.529	5922.38
679.719	5920.34
679.909	6241.87
680.1	5989.97
680.29	5949.01
680.481	6039.12
680.671	5965.39
680.861	5840.47
681.052	5869.14
681.242	5938.77
681.432	6153.8
681.622	5783.12
681.813	5799.51
682.003	5817.94
682.193	5822.03
682.383	5819.99
682.573	5828.18
682.764	5963.34
682.954	5887.57
683.144	5742.16
683.334	5826.13
683.524	5883.47
683.714	5686.87
683.904	5803.6
684.094	5813.84
684.284	5574.23
684.474	5721.68
684.664	5695.06
684.854	5590.61
685.044	5695.06
685.234	5670.48
685.424	5631.57
685.614	5676.63
685.804	5586.52
685.994	5676.63
686.184	5668.44
686.374	5529.17
686.564	5705.3
686.753	5676.63
686.943	5535.32
687.133	5492.31
687.323	5539.41
687.513	5516.89
687.702	5506.65
687.892	5457.5
688.082	5408.34
688.272	5449.3
688.461	5400.15
688.651	5547.61
688.841	5101.15
689.03	5301.85
689.22	5219.93
689.41	5232.22
689.599	5365.34
689.789	5267.03
689.979	5340.76
690.168	5140.06
690.358	5099.1
690.547	5115.48
690.737	5086.81
690.926	5168.73
691.116	5156.44
691.305	5189.21
691.495	5252.7
691.684	5152.35
691.874	5095
692.063	5092.96
692.252	4914.78
692.442	5058.14
692.631	5049.95
692.82	5023.33
693.01	5013.09
693.199	4980.32
693.388	4986.46
693.578	4875.87
693.767	4865.63
693.956	4877.92
694.146	4890.21
694.335	4771.43
694.524	4841.06
694.713	4916.83
694.902	4929.12
695.092	4783.71
695.281	4873.82
695.47	4882.02
695.659	4638.31
695.848	4705.89
696.037	4730.47
696.226	4718.18
696.415	4720.23
696.604	4568.68
696.793	4638.31
696.982	4460.13
697.171	4660.84
697.36	4509.29
697.549	4607.59
697.738	4677.22
697.927	4402.79
698.116	4472.42
698.305	4490.85
698.494	4456.04
698.683	4400.74
698.872	4537.96
699.061	4589.16
699.25	4515.43
699.438	4392.55
699.627	4400.74
699.816	4521.57
700.005	4370.02
700.193	4503.14
700.382	4497
700.571	4540.01
700.76	4378.22
700.948	4349.54
701.137	4355.69
701.326	4312.68
701.514	4175.47
701.703	4267.63
701.892	4214.38
702.08	4273.77
702.269	4349.54
702.457	4202.09
702.646	4075.12
702.834	4040.3
703.023	4204.14
703.212	4105.84
703.4	4241
703.589	4120.17
703.777	4136.56
703.965	3964.53
704.154	4130.41
704.342	4038.25
704.531	4046.44
704.719	4046.44
704.907	4048.49
705.096	3911.28
705.284	4013.68
705.472	3915.37
705.661	3888.75
705.849	3890.8
706.037	3858.03
706.226	3882.61
706.414	3901.04
706.602	3976.81
706.79	3987.05
706.979	3853.94
707.167	3669.62
707.355	3788.4
707.543	3755.63
707.731	3890.8
707.919	3737.2
708.107	3763.83
708.296	3747.44
708.484	3843.7
708.672	3628.66
708.86	3765.87
709.048	3735.15
709.236	3626.61
709.424	3782.26
709.612	3679.86
709.8	3614.32
709.988	3612.28
710.176	3622.52
710.364	3661.43
710.551	3599.99
710.739	3417.72
710.927	3571.32
711.115	3554.93
711.303	3548.79
711.491	3542.64
711.679	3440.25
711.866	3540.6
712.054	3479.16
712.242	3538.55
712.43	3452.53
712.617	3624.56
712.805	3427.96
712.993	3387
713.181	3561.08
713.368	3530.36
713.556	3473.01
713.744	3319.42
713.931	3290.74
714.119	3315.32
714.306	3395.19
714.494	3436.15
714.682	3415.67
714.869	3210.87
715.057	3221.11
715.244	3235.45
715.432	3300.98
715.619	3235.45
715.807	3325.56
715.994	3227.26
716.182	3145.34
716.369	3264.12
716.556	3210.87
716.744	3235.45
716.931	3237.5
717.119	3325.56
717.306	3153.53
717.493	3208.83
717.681	3090.04
717.868	3186.3
718.055	3139.19
718.242	3120.76
718.43	3042.94
718.617	3051.13
718.804	3090.04
718.991	3128.95
719.179	2989.69
719.366	2952.83
719.553	2993.79
719.74	2989.69
719.927	3042.94
720.114	2952.83
720.301	2903.68
720.488	2983.55
720.676	2969.21
720.863	2948.73
721.05	3081.85
721.237	2866.81
721.424	2928.25
721.611	2889.34
721.798	2901.63
721.985	2821.76
722.172	2805.38
722.358	2817.66
722.545	2879.1
722.732	2766.46
722.919	2801.28
723.106	2788.99
723.293	2877.05
723.48	2823.81
723.667	2760.32
723.853	2778.75
724.04	2764.42
724.227	2858.62
724.414	2684.55
724.6	2719.36
724.787	2764.42
724.974	2764.42
725.161	2672.26
725.347	2643.59
725.534	2555.52
725.72	2662.02
725.907	2662.02
726.094	2606.72
726.28	2612.87
726.467	2649.73
726.653	2612.87
726.84	2596.48
727.027	2688.64
727.213	2610.82
727.4	2559.62
727.586	2586.24
727.773	2582.15
727.959	2598.53
728.145	2616.96
728.332	2528.9
728.518	2537.09
728.705	2553.48
728.891	2559.62
729.077	2557.57
729.264	2365.06
729.45	2498.18
729.636	2487.94
729.823	2414.21
730.009	2586.24
730.195	2535.04
730.382	2434.69
730.568	2469.51
730.754	2461.32
730.94	2475.65
731.126	2510.47
731.313	2440.84
731.499	2506.37
731.685	2285.19
731.871	2336.39
732.057	2354.82
732.243	2424.45
732.429	2399.88
732.615	2403.97
732.801	2420.36
732.987	2328.2
733.173	2412.17
733.359	2385.54
733.545	2260.62
733.731	2301.58
733.917	2360.97
734.103	2238.09
734.289	2334.34
734.475	2266.76
734.661	2473.6
734.847	2336.39
735.033	2254.47
735.219	2317.96
735.404	2129.55
735.59	2270.86
735.776	2338.44
735.962	2287.24
736.148	2244.23
736.333	2254.47
736.519	2207.37
736.705	2209.42
736.89	2231.94
737.076	2236.04
737.262	2246.28
737.447	2205.32
737.633	2088.59
737.819	2137.74
738.004	2121.35
738.19	2203.27
738.375	2133.64
738.561	2147.98
738.747	2125.45
738.932	2115.21
739.118	2150.03
739.303	2078.35
739.489	2082.44
739.674	2018.96
739.859	1916.56
740.045	2178.7
740.23	2012.81
740.416	2084.49
740.601	1998.48
740.786	1998.48
740.972	1889.93
741.157	2066.06
741.342	1973.9
741.528	2014.86
741.713	2031.24
741.898	1887.89
742.084	2055.82
742.269	1949.32
742.454	1939.09
742.639	1992.33
742.824	1975.95
743.01	1963.66
743.195	1967.76
743.38	1932.94
743.565	2016.91
743.75	1971.85
743.935	1889.93
744.12	1883.79
744.305	1834.64
744.49	1797.78
744.675	1818.25
744.86	1744.53
745.045	1805.97
745.23	1869.45
745.415	1949.32
745.6	1791.63
745.785	1748.62
745.97	1822.35
746.155	1769.1
746.34	1791.63
746.525	1707.66
746.71	1728.14
746.895	1695.38
747.079	1732.24
747.264	1713.81
747.449	1656.47
747.634	1707.66
747.819	1609.36
748.003	1599.12
748.188	1769.1
748.373	1703.57
748.557	1678.99
748.742	1664.66
748.927	1672.85
749.111	1642.13
749.296	1701.52
749.481	1576.59
749.665	1539.73
749.85	1640.08
750.034	1515.16
750.219	1543.83
750.404	1494.68
750.588	1605.27
750.773	1504.92
750.957	1498.77
751.141	1408.66
751.326	1443.48
751.51	1416.85
751.695	1343.13
751.879	1453.72
752.064	1427.09
752.248	1425.04
752.432	1504.92
752.617	1478.29
752.801	1435.28
752.985	1388.18
753.17	1339.03
753.354	1302.17
753.538	1457.81
753.722	1466
753.907	1343.13
754.091	1273.5
754.275	1388.18
754.459	1283.74
754.643	1236.63
754.828	1359.51
755.012	1318.55
755.196	1265.3
755.38	1341.08
755.564	1203.86
755.748	1265.3
755.932	1308.31
756.116	1318.55
756.3	1277.59
756.484	1126.04
756.668	1244.82
756.852	1027.74
757.036	1244.82
757.22	1214.1
757.404	1142.43
757.588	1027.74
757.772	1126.04
757.956	1083.03
758.14	1167
758.323	1097.37
758.507	1097.37
758.691	1068.7
758.875	1072.79
759.059	1105.56
759.242	1109.66
759.426	1097.37
759.61	999.07
759.794	1074.84
759.977	1025.69
760.161	1253.02
760.345	1105.56
760.528	1009.31
760.712	1064.6
760.895	1093.27
761.079	1044.12
761.263	943.77
761.446	1001.12
761.63	1013.4
761.813	1031.83
761.997	974.49
762.18	1080.99
762.364	999.07
762.547	949.92
762.731	1025.69
762.914	984.73
763.098	902.81
763.281	941.72
763.464	999.07
763.648	1023.64
763.831	992.92
764.015	954.01
764.198	976.54
764.381	962.2
764.564	925.34
764.748	902.81
764.931	982.68
765.114	917.15
765.297	949.92
765.481	925.34
765.664	908.96
765.847	962.2
766.03	917.15
766.213	886.43
766.397	927.39
766.58	919.2
766.763	921.24
766.946	937.63
767.129	888.48
767.312	859.81
767.495	886.43
767.678	876.19
767.861	937.63
768.044	814.75
768.227	788.13
768.41	849.57
768.593	913.05
768.776	806.56
768.959	802.46
769.142	892.57
769.324	853.66
769.507	958.11
769.69	794.27
769.873	827.04
770.056	939.68
770.239	796.32
770.421	925.34
770.604	872.09
770.787	831.13
770.97	788.13
771.152	859.81
771.335	761.5
771.518	802.46
771.7	726.69
771.883	884.38
772.066	743.07
772.248	757.41
772.431	812.7
772.613	790.17
772.796	700.06
772.978	777.89
773.161	769.69
773.343	671.39
773.526	761.5
773.708	720.54
773.891	757.41
774.073	695.97
774.256	722.59
774.438	812.7
774.621	747.17
774.803	786.08
774.985	714.4
775.168	728.74
775.35	636.58
775.532	681.63
775.715	695.97
775.897	743.07
776.079	757.41
776.261	659.1
776.444	704.16
776.626	671.39
776.808	644.77
776.99	632.48
777.173	704.16
777.355	761.5
777.537	642.72
777.719	648.86
777.901	616.1
778.083	628.39
778.265	552.61
778.447	591.52
778.629	657.06
778.811	634.53
778.993	589.47
779.175	556.71
779.357	607.91
779.539	575.14
779.721	536.23
779.903	665.25
780.085	642.72
780.267	515.75
780.449	566.95
780.631	663.2
780.812	638.62
780.994	638.62
781.176	544.42
781.358	552.61
781.54	577.19
781.721	525.99
781.903	538.27
782.085	532.13
782.267	493.22
782.448	427.68
782.63	554.66
782.812	515.75
782.993	468.64
783.175	597.67
783.357	523.94
783.538	464.55
783.72	495.27
783.901	466.6
784.083	540.32
784.264	517.79
784.446	497.32
784.627	501.41
784.809	536.23
784.99	487.08
785.172	417.44
785.353	442.02
785.535	501.41
785.716	417.44
785.897	376.48
786.079	503.46
786.26	427.68
786.441	482.98
786.623	409.25
786.804	360.1
786.985	482.98
787.167	392.87
787.348	384.68
787.529	396.96
787.71	442.02
787.891	384.68
788.073	282.28
788.254	388.77
788.435	384.68
788.616	364.2
788.797	392.87
788.978	384.68
789.159	370.34
789.34	458.4
789.522	413.35
789.703	351.91
789.884	343.72
790.065	280.23
790.246	386.72
790.427	302.76
790.607	384.68
790.788	368.29
790.969	335.53
791.15	323.24
791.331	313
791.512	396.96
791.693	345.77
791.874	351.91
792.054	388.77
792.235	403.11
792.416	296.61
792.597	331.43
792.778	358.05
792.958	392.87
793.139	241.32
793.32	321.19
793.5	319.14
793.681	351.91
793.862	310.95
794.042	253.61
794.223	310.95
794.404	280.23
794.584	237.22
794.765	257.7
794.945	224.94
795.126	319.14
795.306	366.25
795.487	327.33
795.667	292.52
795.848	300.71
796.028	286.37
796.209	362.15
796.389	274.09
796.57	349.86
796.75	239.27
796.93	335.53
797.111	278.18
797.291	220.84
797.471	288.42
797.652	310.95
797.832	229.03
798.012	302.76
798.192	284.33
798.373	257.7
798.553	167.59
798.733	188.07
798.913	183.98
799.093	212.65
799.274	290.47
799.454	255.65
799.634	304.81
799.814	282.28
799.994	284.33
800.174	231.08
800.354	206.5
800.534	214.7
800.714	269.99
800.894	151.21
801.074	190.12
801.254	235.18
801.434	224.94
801.614	290.47
801.794	233.13
801.974	777.89
802.154	255.65
802.334	206.5
802.514	183.98
802.693	269.99
802.873	190.12
803.053	198.31
803.233	212.65
803.413	157.35
803.592	175.78
803.772	177.83
803.952	239.27
804.131	159.4
804.311	237.22
804.491	284.33
804.67	167.59
804.85	245.41
805.03	298.66
805.209	313
805.389	196.26
805.568	177.83
805.748	208.55
805.928	130.73
806.107	302.76
806.287	159.4
806.466	212.65
806.646	138.92
806.825	181.93
807.004	183.98
807.184	224.94
807.363	229.03
807.543	183.98
807.722	181.93
807.901	188.07
808.081	183.98
808.26	122.54
808.439	181.93
808.619	196.26
808.798	175.78
808.977	192.17
809.156	83.63
809.336	247.46
809.515	239.27
809.694	204.46
809.873	190.12
810.052	192.17
810.231	245.41
810.411	179.88
810.59	155.3
810.769	220.84
810.948	175.78
811.127	163.5
811.306	249.51
811.485	173.74
811.664	157.35
811.843	97.96
812.022	151.21
812.201	134.82
812.38	124.58
812.559	165.54
812.737	147.11
812.916	167.59
813.095	134.82
813.274	73.39
813.453	165.54
813.632	210.6
813.811	220.84
813.989	138.92
814.168	159.4
814.347	165.54
814.526	108.2
814.704	188.07
814.883	175.78
815.062	149.16
815.24	126.63
815.419	206.5
815.598	224.94
815.776	132.78
815.955	108.2
816.133	87.72
816.312	206.5
816.49	159.4
816.669	171.69
816.847	136.87
817.026	124.58
817.204	63.15
817.383	163.5
817.561	89.77
817.74	75.43
817.918	188.07
818.097	130.73
818.275	59.05
818.453	188.07
818.632	73.39
818.81	181.93
818.988	100.01
819.167	81.58
819.345	181.93
819.523	122.54
819.701	114.34
819.879	140.97
820.058	87.72
820.236	181.93
820.414	112.3
820.592	143.02
820.77	190.12
820.948	147.11
821.127	104.11
821.305	140.97
821.483	106.15
821.661	120.49
821.839	136.87
822.017	44.71
822.195	118.44
822.373	183.98
822.551	149.16
822.729	157.35
822.907	110.25
823.085	32.43
823.262	132.78
823.44	81.58
823.618	163.5
823.796	122.54
823.974	67.24
824.152	91.82
824.329	130.73
824.507	106.15
824.685	91.82
824.863	157.35
825.04	50.86
825.218	124.58
825.396	44.71
825.574	118.44
825.751	85.67
825.929	91.82
826.107	42.67
826.284	116.39
826.462	118.44
826.639	89.77
826.817	85.67
826.994	63.15
827.172	93.87
827.349	190.12
827.527	134.82
827.704	57
827.882	116.39
828.059	138.92
828.237	34.47
828.414	126.63
828.591	40.62
828.769	75.43
828.946	145.06
829.124	149.16
829.301	77.48
829.478	93.87
829.655	24.23
829.833	173.74
830.01	-10.58
830.187	138.92
830.364	89.77
830.542	120.49
830.719	32.43
830.896	102.06
831.073	75.43
831.25	114.34
831.427	118.44
831.604	77.48
831.782	38.57
831.959	54.95
832.136	114.34
832.313	50.86
832.49	120.49
832.667	147.11
832.844	59.05
833.021	83.63
833.198	73.39
833.374	52.91
833.551	61.1
833.728	77.48
833.905	134.82
834.082	77.48
834.259	147.11
834.436	87.72
834.612	122.54
834.789	61.1
834.966	22.19
835.143	112.3
835.319	1.71
835.496	106.15
835.673	34.47
835.85	124.58
836.026	32.43
836.203	50.86
836.38	40.62
836.556	79.53
836.733	20.14
836.909	130.73
837.086	63.15
837.262	-14.68
837.439	75.43
837.616	97.96
837.792	91.82
837.968	69.29
838.145	40.62
838.321	40.62
838.498	46.76
838.674	-33.11
838.851	122.54
839.027	48.81
839.203	65.19
839.38	73.39
839.556	30.38
839.732	89.77
839.909	116.39
840.085	16.04
840.261	42.67
840.437	44.71
840.614	77.48
840.79	108.2
840.966	73.39
841.142	59.05
841.318	20.14
841.494	83.63
841.671	122.54
841.847	-8.53
842.023	40.62
842.199	65.19
842.375	132.78
842.551	24.23
842.727	52.91
842.903	50.86
843.079	-61.78
843.255	40.62
843.431	114.34
843.607	104.11
843.783	-61.78
843.959	9.9
844.134	-14.68
844.31	73.39
844.486	-2.39
844.662	73.39
844.838	-2.39
845.013	63.15
845.189	48.81
845.365	67.24
845.541	20.14
845.716	57
845.892	138.92
846.068	114.34
846.244	-0.34
846.419	54.95
846.595	20.14
846.77	-8.53
846.946	63.15
847.122	-29.01
847.297	48.81
847.473	73.39
847.648	83.63
847.824	36.52
847.999	-20.82
848.175	97.96
848.35	81.58
848.526	114.34
848.701	42.67
848.876	24.23
849.052	147.11
849.227	65.19
849.403	89.77
849.578	65.19
849.753	71.34
849.929	50.86
850.104	7.85
850.279	81.58
850.454	67.24
850.63	83.63
850.805	57
850.98	91.82
851.155	11.95
851.33	-6.49
851.505	1.71
851.681	65.19
851.856	26.28
852.031	40.62
852.206	-10.58
852.381	46.76
852.556	28.33
852.731	54.95
852.906	11.95
853.081	-20.82
853.256	32.43
853.431	7.85
853.606	28.33
853.781	7.85
853.956	-39.25
854.131	81.58
854.305	-33.11
854.48	73.39
854.655	34.47
854.83	32.43
855.005	28.33
855.18	87.72
855.354	65.19
855.529	-0.34
855.704	16.04
855.879	65.19
856.053	-6.49
856.228	40.62
856.403	-55.64
856.577	73.39
856.752	-57.68
856.926	38.57
857.101	34.47
857.276	-2.39
857.45	13.99
857.625	7.85
857.799	13.99
857.974	7.85
858.148	32.43
858.323	87.72
858.497	36.52
858.672	-39.25
858.846	-14.68
859.02	48.81
859.195	-39.25
859.369	79.53
859.543	63.15
859.718	52.91
859.892	-0.34
860.066	67.24
860.241	28.33
860.415	40.62
860.589	48.81
860.763	36.52
860.938	-37.2
861.112	-0.34
861.286	32.43
861.46	48.81
861.634	-14.68
861.808	3.75
861.982	-106.84
862.157	-8.53
862.331	-37.2
862.505	-24.92
862.679	-6.49
862.853	-22.87
863.027	-6.49
863.201	59.05
863.375	32.43
863.549	48.81
863.722	-63.83
863.896	40.62
864.07	-33.11
864.244	42.67
864.418	54.95
864.592	81.58
864.766	65.19
864.939	9.9
865.113	-2.39
865.287	-12.63
865.461	-49.49
865.634	28.33
865.808	-4.44
865.982	-35.16
866.156	26.28
866.329	-24.92
866.503	-37.2
866.676	85.67
866.85	1.71
867.024	-22.87
867.197	36.52
867.371	81.58
867.544	-35.16
867.718	9.9
867.891	57
868.065	7.85
868.238	-4.44
868.412	36.52
868.585	20.14
868.759	3.75
868.932	24.23
869.105	18.09
869.279	16.04
869.452	50.86
869.625	9.9
869.799	-20.82
869.972	-2.39
870.145	32.43
870.319	32.43
870.492	16.04
870.665	-72.02
870.838	42.67
871.011	-49.49
871.185	71.34
871.358	-18.77
871.531	3.75
871.704	-39.25
871.877	44.71
872.05	1.71
872.223	-57.68
872.396	48.81
872.569	18.09
872.742	-16.73
872.915	69.29
873.088	48.81
873.261	67.24
873.434	-0.34
873.607	40.62
873.78	52.91
873.953	34.47
874.126	61.1
874.299	-12.63
874.471	-55.64
874.644	-8.53
874.817	-57.68
874.99	75.43
875.163	20.14
875.335	46.76
875.508	-33.11
875.681	13.99
875.853	-35.16
876.026	44.71
876.199	-8.53
876.371	-45.4
876.544	-37.2
876.717	-24.92
876.889	-69.97
877.062	28.33
877.234	-8.53
877.407	-47.44
877.579	-53.59
877.752	-90.45
877.924	46.76
878.097	42.67
878.269	7.85
878.442	16.04
878.614	61.1
878.786	-8.53
878.959	7.85
879.131	36.52
879.303	11.95
879.476	65.19
879.648	-10.58
879.82	16.04
879.993	-6.49
880.165	44.71
880.337	-94.55
880.509	54.95
880.681	-31.06
880.854	3.75
881.026	-33.11
881.198	50.86
881.37	63.15
881.542	-45.4
881.714	-12.63
881.886	-49.49
882.058	26.28
882.23	7.85
882.402	3.75
882.574	-61.78
882.746	40.62
882.918	48.81
883.09	20.14
883.262	-0.34
883.434	-33.11
883.606	-65.88
883.778	71.34
883.95	7.85
884.122	24.23
884.293	57
884.465	32.43
884.637	1.71
884.809	-4.44
884.98	7.85
885.152	-29.01
885.324	-29.01
885.496	-6.49
885.667	32.43
885.839	-8.53
886.011	40.62
886.182	40.62
886.354	20.14
886.525	-2.39
886.697	48.81
886.869	-41.3
887.04	-65.88
887.212	32.43
887.383	36.52
887.555	20.14
887.726	-69.97
887.897	-22.87
888.069	11.95
888.24	32.43
888.412	7.85
888.583	-24.92
888.754	57
888.926	-14.68
889.097	-0.34
889.268	-65.88
889.44	16.04
889.611	32.43
889.782	-6.49
889.953	57
890.125	7.85
890.296	-22.87
890.467	-14.68
890.638	-0.34
890.809	-6.49
890.98	-4.44
891.151	-20.82
891.323	36.52
891.494	3.75
891.665	34.47
891.836	32.43
892.007	-33.11
892.178	-24.92
892.349	5.8
892.52	-16.73
892.691	59.05
892.862	-12.63
893.032	-61.78
893.203	-16.73
893.374	-63.83
893.545	40.62
893.716	46.76
893.887	9.9
894.057	-72.02
894.228	57
894.399	-33.11
894.57	69.29
894.74	26.28
894.911	26.28
895.082	40.62
895.253	7.85
895.423	-4.44
895.594	20.14
895.764	-90.45
895.935	-8.53
896.106	32.43
896.276	-8.53
896.447	42.67
896.617	32.43
896.788	-47.44
896.958	32.43
897.129	-20.82
897.299	-31.06
897.47	32.43
897.64	1.71
897.81	16.04
897.981	-57.68
898.151	-63.83
898.322	-49.49
898.492	75.43
898.662	-31.06
898.832	-74.07
899.003	73.39
899.173	38.57
899.343	-55.64
899.513	-26.96
