Data from USB4F104151__63__14-30-11-104.txt Node

Date: Thu Mar 13 14:30:11 EDT 2025
User: louis
Spectrometer: USB4F10415
Trigger mode: 4
Integration Time (sec): 2.500000E-2
Scans to average: 1
Electric dark correction enabled: true
Nonlinearity correction enabled: false
Boxcar width: 0
XAxis mode: Wavelengths
Number of Pixels in Spectrum: 3648
>>>>>Begin Spectral Data<<<<<
178.204	-113.83
178.424	-113.83
178.644	-113.83
178.864	-109.74
179.084	-109.74
179.304	-11.43
179.524	-11.43
179.744	-40.11
179.964	66.39
180.184	4.95
180.404	-3.24
180.624	39.76
180.844	23.38
181.064	-19.63
181.283	-11.43
181.503	-50.35
181.723	13.14
181.943	-76.97
182.163	47.96
182.383	13.14
182.602	-7.34
182.822	84.82
183.042	4.95
183.262	54.1
183.482	-15.53
183.701	-42.15
183.921	-58.54
184.141	7
184.361	-1.19
184.58	74.58
184.8	45.91
185.02	-52.39
185.239	29.52
185.459	52.05
185.679	29.52
185.898	-1.19
186.118	86.87
186.338	4.95
186.557	29.52
186.777	-3.24
186.997	21.33
187.216	82.77
187.436	86.87
187.655	66.39
187.875	45.91
188.095	21.33
188.314	23.38
188.534	103.25
188.753	56.15
188.973	19.29
189.192	123.73
189.412	45.91
189.631	62.29
189.851	21.33
190.07	-21.67
190.29	-1.19
190.509	37.72
190.729	21.33
190.948	78.68
191.168	162.64
191.387	-3.24
191.607	7
191.826	62.29
192.045	-29.87
192.265	25.43
192.484	45.91
192.704	76.63
192.923	21.33
193.142	95.06
193.362	-38.06
193.581	13.14
193.8	45.91
194.02	21.33
194.239	78.68
194.458	-19.63
194.678	68.44
194.897	70.48
195.116	56.15
195.335	66.39
195.555	-11.43
195.774	-3.24
195.993	109.4
196.212	101.2
196.432	25.43
196.651	47.96
196.87	21.33
197.089	111.44
197.308	29.52
197.528	47.96
197.747	15.19
197.966	-13.48
198.185	58.2
198.404	101.2
198.623	21.33
198.842	25.43
199.062	72.53
199.281	97.11
199.5	9.05
199.719	56.15
199.938	33.62
200.157	11.09
200.376	68.44
200.595	21.33
200.814	-5.29
201.033	39.76
201.252	-5.29
201.471	13.14
201.69	56.15
201.909	25.43
202.128	29.52
202.347	4.95
202.566	80.72
202.785	-19.63
203.004	29.52
203.223	121.68
203.442	31.57
203.661	4.95
203.879	95.06
204.098	62.29
204.317	21.33
204.536	86.87
204.755	60.24
204.974	62.29
205.193	4.95
205.411	76.63
205.63	70.48
205.849	-9.39
206.068	27.48
206.287	-27.82
206.505	127.83
206.724	21.33
206.943	43.86
207.162	47.96
207.381	-38.06
207.599	29.52
207.818	-1.19
208.037	-38.06
208.255	0.85
208.474	54.1
208.693	66.39
208.911	43.86
209.13	37.72
209.349	86.87
209.567	11.09
209.786	107.35
210.005	82.77
210.223	54.1
210.442	17.24
210.661	-11.43
210.879	64.34
211.098	47.96
211.316	-19.63
211.535	72.53
211.753	90.96
211.972	37.72
212.191	25.43
212.409	21.33
212.628	25.43
212.846	-1.19
213.065	86.87
213.283	37.72
213.502	9.05
213.72	-19.63
213.938	-33.96
214.157	25.43
214.375	23.38
214.594	19.29
214.812	-11.43
215.031	78.68
215.249	-23.72
215.467	39.76
215.686	-21.67
215.904	-17.58
216.122	25.43
216.341	66.39
216.559	68.44
216.778	142.16
216.996	17.24
217.214	-19.63
217.432	127.83
217.651	-44.2
217.869	33.62
218.087	62.29
218.306	-19.63
218.524	103.25
218.742	-3.24
218.96	7
219.179	-36.01
219.397	60.24
219.615	60.24
219.833	93.01
220.051	58.2
220.27	39.76
220.488	72.53
220.706	37.72
220.924	37.72
221.142	99.16
221.36	37.72
221.578	37.72
221.796	4.95
222.015	68.44
222.233	56.15
222.451	56.15
222.669	-7.34
222.887	15.19
223.105	54.1
223.323	86.87
223.541	-29.87
223.759	99.16
223.977	50
224.195	29.52
224.413	152.4
224.631	41.81
224.849	56.15
225.067	76.63
225.285	80.72
225.503	47.96
225.721	-3.24
225.939	86.87
226.157	113.49
226.375	138.07
226.592	23.38
226.81	113.49
227.028	78.68
227.246	95.06
227.464	-19.63
227.682	37.72
227.9	56.15
228.117	78.68
228.335	37.72
228.553	74.58
228.771	21.33
228.989	74.58
229.206	80.72
229.424	76.63
229.642	-1.19
229.86	-19.63
230.077	15.19
230.295	-1.19
230.513	2.9
230.731	37.72
230.948	103.25
231.166	64.34
231.384	-42.15
231.601	50
231.819	168.79
232.037	70.48
232.254	13.14
232.472	-7.34
232.689	-9.39
232.907	54.1
233.125	4.95
233.342	0.85
233.56	127.83
233.777	-23.72
233.995	62.29
234.213	64.34
234.43	33.62
234.648	72.53
234.865	-23.72
235.083	39.76
235.3	17.24
235.518	-42.15
235.735	82.77
235.953	54.1
236.17	50
236.388	17.24
236.605	0.85
236.822	84.82
237.04	131.92
237.257	29.52
237.475	13.14
237.692	41.81
237.909	45.91
238.127	-31.91
238.344	-64.68
238.562	62.29
238.779	-9.39
238.996	4.95
239.214	129.88
239.431	15.19
239.648	56.15
239.865	43.86
240.083	7
240.3	29.52
240.517	80.72
240.735	72.53
240.952	21.33
241.169	107.35
241.386	31.57
241.603	29.52
241.821	0.85
242.038	99.16
242.255	138.07
242.472	9.05
242.689	33.62
242.907	13.14
243.124	74.58
243.341	21.33
243.558	2.9
243.775	-27.82
243.992	-66.73
244.209	37.72
244.426	156.5
244.643	56.15
244.86	-36.01
245.078	54.1
245.295	47.96
245.512	101.2
245.729	-15.53
245.946	47.96
246.163	-17.58
246.38	-11.43
246.597	25.43
246.814	29.52
247.031	54.1
247.248	78.68
247.464	-58.54
247.681	11.09
247.898	107.35
248.115	119.64
248.332	-19.63
248.549	74.58
248.766	121.68
248.983	121.68
249.2	-9.39
249.417	105.3
249.633	19.29
249.85	0.85
250.067	-50.35
250.284	62.29
250.501	-15.53
250.717	50
250.934	-3.24
251.151	-72.87
251.368	-3.24
251.585	-9.39
251.801	29.52
252.018	4.95
252.235	-21.67
252.451	45.91
252.668	-1.19
252.885	25.43
253.102	54.1
253.318	37.72
253.535	68.44
253.752	62.29
253.968	39.76
254.185	-44.2
254.401	54.1
254.618	62.29
254.835	-50.35
255.051	45.91
255.268	31.57
255.484	33.62
255.701	0.85
255.917	113.49
256.134	-52.39
256.351	2.9
256.567	-11.43
256.784	-19.63
257	4.95
257.217	58.2
257.433	39.76
257.65	74.58
257.866	35.67
258.082	47.96
258.299	70.48
258.515	-31.91
258.732	21.33
258.948	15.19
259.165	41.81
259.381	11.09
259.597	56.15
259.814	29.52
260.03	41.81
260.246	29.52
260.463	64.34
260.679	29.52
260.895	76.63
261.112	90.96
261.328	15.19
261.544	29.52
261.761	43.86
261.977	-11.43
262.193	31.57
262.409	115.54
262.626	58.2
262.842	-31.91
263.058	54.1
263.274	45.91
263.49	-21.67
263.707	41.81
263.923	37.72
264.139	15.19
264.355	82.77
264.571	80.72
264.787	119.64
265.004	29.52
265.22	-17.58
265.436	54.1
265.652	25.43
265.868	60.24
266.084	9.05
266.3	54.1
266.516	-42.15
266.732	54.1
266.948	-56.49
267.164	64.34
267.38	58.2
267.596	80.72
267.812	52.05
268.028	-23.72
268.244	7
268.46	86.87
268.676	25.43
268.892	27.48
269.108	0.85
269.324	17.24
269.54	41.81
269.756	0.85
269.972	-7.34
270.188	25.43
270.403	4.95
270.619	70.48
270.835	37.72
271.051	-68.78
271.267	50
271.483	29.52
271.698	33.62
271.914	70.48
272.13	35.67
272.346	-11.43
272.562	37.72
272.777	101.2
272.993	-3.24
273.209	-60.59
273.425	78.68
273.64	13.14
273.856	125.78
274.072	-3.24
274.287	-27.82
274.503	90.96
274.719	82.77
274.934	78.68
275.15	-3.24
275.366	43.86
275.581	-23.72
275.797	84.82
276.012	15.19
276.228	41.81
276.444	62.29
276.659	43.86
276.875	-11.43
277.09	-7.34
277.306	-11.43
277.521	144.21
277.737	17.24
277.952	39.76
278.168	-17.58
278.383	80.72
278.599	50
278.814	29.52
279.03	70.48
279.245	78.68
279.461	47.96
279.676	11.09
279.892	21.33
280.107	-17.58
280.322	62.29
280.538	47.96
280.753	86.87
280.969	62.29
281.184	52.05
281.399	9.05
281.615	35.67
281.83	95.06
282.045	0.85
282.26	82.77
282.476	62.29
282.691	66.39
282.906	115.54
283.122	21.33
283.337	25.43
283.552	4.95
283.767	58.2
283.983	70.48
284.198	27.48
284.413	86.87
284.628	-17.58
284.843	62.29
285.058	103.25
285.274	82.77
285.489	72.53
285.704	62.29
285.919	19.29
286.134	64.34
286.349	29.52
286.564	-48.3
286.779	90.96
286.995	62.29
287.21	-19.63
287.425	25.43
287.64	66.39
287.855	54.1
288.07	39.76
288.285	80.72
288.5	21.33
288.715	41.81
288.93	7
289.145	45.91
289.36	86.87
289.575	13.14
289.79	66.39
290.004	0.85
290.219	84.82
290.434	62.29
290.649	13.14
290.864	-25.77
291.079	31.57
291.294	21.33
291.509	111.44
291.724	25.43
291.938	-3.24
292.153	37.72
292.368	9.05
292.583	64.34
292.798	56.15
293.012	76.63
293.227	103.25
293.442	54.1
293.657	105.3
293.871	13.14
294.086	13.14
294.301	58.2
294.516	97.11
294.73	82.77
294.945	64.34
295.16	31.57
295.374	50
295.589	56.15
295.804	17.24
296.018	25.43
296.233	54.1
296.447	25.43
296.662	29.52
296.877	60.24
297.091	82.77
297.306	93.01
297.52	-27.82
297.735	66.39
297.949	50
298.164	31.57
298.378	37.72
298.593	50
298.807	-52.39
299.022	56.15
299.236	70.48
299.451	45.91
299.665	70.48
299.88	23.38
300.094	7
300.309	64.34
300.523	68.44
300.737	-15.53
300.952	19.29
301.166	45.91
301.381	4.95
301.595	9.05
301.809	41.81
302.024	54.1
302.238	25.43
302.452	109.4
302.667	123.73
302.881	95.06
303.095	97.11
303.309	82.77
303.524	15.19
303.738	-3.24
303.952	4.95
304.166	56.15
304.381	-19.63
304.595	68.44
304.809	9.05
305.023	78.68
305.237	82.77
305.452	39.76
305.666	-17.58
305.88	97.11
306.094	66.39
306.308	86.87
306.522	88.92
306.736	15.19
306.95	45.91
307.164	-17.58
307.379	31.57
307.593	58.2
307.807	78.68
308.021	56.15
308.235	107.35
308.449	2.9
308.663	9.05
308.877	107.35
309.091	80.72
309.305	111.44
309.519	-36.01
309.733	11.09
309.947	-66.73
310.161	-15.53
310.374	45.91
310.588	80.72
310.802	19.29
311.016	-17.58
311.23	37.72
311.444	-44.2
311.658	62.29
311.872	78.68
312.085	56.15
312.299	78.68
312.513	54.1
312.727	52.05
312.941	25.43
313.154	19.29
313.368	27.48
313.582	4.95
313.796	23.38
314.009	82.77
314.223	90.96
314.437	41.81
314.651	86.87
314.864	23.38
315.078	33.62
315.292	23.38
315.505	-9.39
315.719	60.24
315.933	76.63
316.146	15.19
316.36	21.33
316.573	37.72
316.787	43.86
317.001	21.33
317.214	50
317.428	37.72
317.641	-64.68
317.855	-1.19
318.068	-27.82
318.282	-7.34
318.495	105.3
318.709	62.29
318.922	-60.59
319.136	45.91
319.349	74.58
319.563	29.52
319.776	7
319.99	21.33
320.203	13.14
320.417	-19.63
320.63	54.1
320.843	45.91
321.057	27.48
321.27	-15.53
321.483	23.38
321.697	45.91
321.91	-3.24
322.124	78.68
322.337	66.39
322.55	50
322.763	37.72
322.977	-11.43
323.19	-7.34
323.403	29.52
323.617	66.39
323.83	90.96
324.043	4.95
324.256	39.76
324.469	-9.39
324.683	2.9
324.896	-11.43
325.109	58.2
325.322	64.34
325.535	152.4
325.748	21.33
325.962	64.34
326.175	35.67
326.388	41.81
326.601	109.4
326.814	-23.72
327.027	-64.68
327.24	52.05
327.453	-17.58
327.666	47.96
327.879	47.96
328.092	11.09
328.305	103.25
328.518	15.19
328.731	70.48
328.944	56.15
329.157	127.83
329.37	-38.06
329.583	84.82
329.796	144.21
330.009	29.52
330.222	54.1
330.435	86.87
330.648	-19.63
330.861	80.72
331.073	72.53
331.286	74.58
331.499	97.11
331.712	25.43
331.925	15.19
332.138	109.4
332.35	146.26
332.563	21.33
332.776	64.34
332.989	62.29
333.202	-1.19
333.414	29.52
333.627	62.29
333.84	-25.77
334.053	76.63
334.265	19.29
334.478	4.95
334.691	-19.63
334.903	90.96
335.116	-52.39
335.329	54.1
335.541	37.72
335.754	66.39
335.966	45.91
336.179	13.14
336.392	-68.78
336.604	39.76
336.817	21.33
337.029	7
337.242	86.87
337.454	107.35
337.667	99.16
337.88	74.58
338.092	72.53
338.305	127.83
338.517	121.68
338.729	37.72
338.942	119.64
339.154	29.52
339.367	2.9
339.579	72.53
339.792	23.38
340.004	80.72
340.217	-11.43
340.429	80.72
340.641	103.25
340.854	37.72
341.066	4.95
341.278	123.73
341.491	125.78
341.703	72.53
341.915	13.14
342.128	138.07
342.34	4.95
342.552	25.43
342.764	4.95
342.977	86.87
343.189	37.72
343.401	64.34
343.613	17.24
343.826	115.54
344.038	-58.54
344.25	25.43
344.462	-17.58
344.674	37.72
344.886	70.48
345.099	86.87
345.311	31.57
345.523	111.44
345.735	-7.34
345.947	101.2
346.159	54.1
346.371	84.82
346.583	23.38
346.795	70.48
347.007	17.24
347.219	21.33
347.431	21.33
347.643	47.96
347.855	17.24
348.067	78.68
348.279	0.85
348.491	90.96
348.703	37.72
348.915	97.11
349.127	29.52
349.339	93.01
349.551	58.2
349.763	56.15
349.975	72.53
350.187	99.16
350.399	29.52
350.61	74.58
350.822	29.52
351.034	117.59
351.246	-11.43
351.458	93.01
351.669	54.1
351.881	88.92
352.093	76.63
352.305	113.49
352.517	2.9
352.728	58.2
352.94	45.91
353.152	45.91
353.363	47.96
353.575	84.82
353.787	39.76
353.999	80.72
354.21	129.88
354.422	-9.39
354.633	9.05
354.845	-7.34
355.057	37.72
355.268	86.87
355.48	115.54
355.692	-17.58
355.903	103.25
356.115	37.72
356.326	45.91
356.538	113.49
356.749	144.21
356.961	9.05
357.172	7
357.384	66.39
357.595	56.15
357.807	15.19
358.018	13.14
358.23	72.53
358.441	58.2
358.653	111.44
358.864	80.72
359.075	29.52
359.287	58.2
359.498	162.64
359.709	-27.82
359.921	68.44
360.132	70.48
360.344	50
360.555	103.25
360.766	11.09
360.977	9.05
361.189	58.2
361.4	54.1
361.611	33.62
361.823	78.68
362.034	0.85
362.245	-3.24
362.456	95.06
362.667	82.77
362.879	45.91
363.09	54.1
363.301	111.44
363.512	64.34
363.723	23.38
363.935	39.76
364.146	154.45
364.357	35.67
364.568	127.83
364.779	99.16
364.99	115.54
365.201	70.48
365.412	56.15
365.623	39.76
365.834	111.44
366.045	86.87
366.256	-7.34
366.467	-11.43
366.678	47.96
366.889	168.79
367.1	64.34
367.311	88.92
367.522	-36.01
367.733	80.72
367.944	2.9
368.155	64.34
368.366	82.77
368.577	68.44
368.788	111.44
368.999	31.57
369.209	-11.43
369.42	107.35
369.631	29.52
369.842	-1.19
370.053	-3.24
370.264	33.62
370.474	109.4
370.685	66.39
370.896	33.62
371.107	111.44
371.317	111.44
371.528	47.96
371.739	23.38
371.95	70.48
372.16	50
372.371	-17.58
372.582	19.29
372.792	-17.58
373.003	88.92
373.214	2.9
373.424	47.96
373.635	-23.72
373.846	111.44
374.056	138.07
374.267	62.29
374.477	50
374.688	-15.53
374.898	54.1
375.109	9.05
375.319	103.25
375.53	111.44
375.74	-7.34
375.951	64.34
376.161	95.06
376.372	88.92
376.582	2.9
376.793	160.59
377.003	15.19
377.214	-85.16
377.424	80.72
377.635	54.1
377.845	80.72
378.055	15.19
378.266	33.62
378.476	-11.43
378.686	68.44
378.897	74.58
379.107	70.48
379.317	72.53
379.528	62.29
379.738	45.91
379.948	90.96
380.158	68.44
380.369	99.16
380.579	103.25
380.789	47.96
380.999	90.96
381.21	131.92
381.42	105.3
381.63	58.2
381.84	123.73
382.05	33.62
382.261	123.73
382.471	29.52
382.681	66.39
382.891	97.11
383.101	84.82
383.311	58.2
383.521	58.2
383.731	47.96
383.941	127.83
384.151	-13.48
384.361	78.68
384.571	31.57
384.781	99.16
384.991	131.92
385.201	31.57
385.411	121.68
385.621	21.33
385.831	45.91
386.041	111.44
386.251	64.34
386.461	29.52
386.671	86.87
386.881	86.87
387.091	74.58
387.301	111.44
387.511	43.86
387.72	138.07
387.93	86.87
388.14	50
388.35	62.29
388.56	127.83
388.769	103.25
388.979	127.83
389.189	56.15
389.399	23.38
389.609	103.25
389.818	160.59
390.028	103.25
390.238	70.48
390.447	2.9
390.657	121.68
390.867	47.96
391.076	-7.34
391.286	54.1
391.496	90.96
391.705	-3.24
391.915	70.48
392.125	148.31
392.334	90.96
392.544	142.16
392.753	56.15
392.963	-11.43
393.172	84.82
393.382	68.44
393.591	166.74
393.801	25.43
394.01	179.03
394.22	129.88
394.429	56.15
394.639	127.83
394.848	64.34
395.058	29.52
395.267	160.59
395.477	41.81
395.686	121.68
395.895	142.16
396.105	119.64
396.314	70.48
396.524	152.4
396.733	172.88
396.942	164.69
397.152	99.16
397.361	152.4
397.57	115.54
397.78	127.83
397.989	103.25
398.198	238.42
398.407	176.98
398.617	187.22
398.826	88.92
399.035	148.31
399.244	103.25
399.453	39.76
399.663	201.55
399.872	76.63
400.081	95.06
400.29	121.68
400.499	121.68
400.708	152.4
400.917	66.39
401.127	121.68
401.336	99.16
401.545	195.41
401.754	156.5
401.963	88.92
402.172	119.64
402.381	156.5
402.59	119.64
402.799	201.55
403.008	195.41
403.217	179.03
403.426	203.6
403.635	166.74
403.844	54.1
404.053	219.99
404.262	187.22
404.471	250.71
404.68	181.07
404.888	156.5
405.097	125.78
405.306	144.21
405.515	201.55
405.724	179.03
405.933	250.71
406.142	185.17
406.35	228.18
406.559	197.46
406.768	267.09
406.977	234.32
407.185	258.9
407.394	193.36
407.603	185.17
407.812	283.47
408.02	205.65
408.229	244.56
408.438	277.33
408.646	185.17
408.855	250.71
409.064	328.53
409.272	267.09
409.481	320.34
409.69	375.63
409.898	361.3
410.107	301.9
410.315	342.86
410.524	398.16
410.733	451.41
410.941	439.12
411.15	367.44
411.358	504.65
411.567	514.89
411.775	531.28
411.984	521.04
412.192	357.2
412.401	504.65
412.609	639.82
412.818	643.92
413.026	590.67
413.234	611.15
413.443	660.3
413.651	684.87
413.86	721.74
414.068	713.55
414.276	676.68
414.485	695.11
414.693	805.71
414.901	875.34
415.11	828.23
415.318	799.56
415.526	834.38
415.734	865.1
415.943	922.44
416.151	1028.93
416.359	998.21
416.567	983.88
416.776	1102.66
416.984	1141.57
417.192	1229.63
417.4	1221.44
417.608	1151.81
417.817	1225.54
418.025	1323.84
418.233	1381.18
418.441	1424.19
418.649	1438.53
418.857	1549.12
419.065	1667.9
419.273	1618.75
419.481	1753.91
419.689	1733.43
419.897	1786.68
420.105	1852.22
420.313	1983.29
420.521	1917.75
420.729	1956.66
420.937	2102.07
421.145	2083.64
421.353	2331.44
421.561	2415.41
421.769	2347.83
421.977	2491.18
422.185	2448.18
422.393	2577.2
422.601	2732.84
422.809	2786.09
423.017	2738.99
423.224	2816.81
423.432	3068.71
423.64	3076.9
423.848	3287.84
424.056	3271.46
424.263	3533.6
424.471	3363.62
424.679	3556.13
424.887	3853.08
425.094	3816.22
425.302	3857.18
425.51	3957.53
425.718	4088.6
425.925	4076.31
426.133	4137.75
426.341	4510.48
426.548	4651.79
426.756	4707.09
426.964	4846.35
427.171	4979.47
427.379	5161.73
427.586	5292.8
427.794	5399.3
428.001	5755.65
428.209	5978.87
428.417	5841.66
428.624	6181.62
428.832	6159.1
429.039	6099.7
429.247	6062.84
429.454	6710
429.662	7131.88
429.869	6939.37
430.076	7369.44
430.284	6961.9
430.491	7394.02
430.699	7748.32
430.906	7785.18
431.114	8067.8
431.321	8131.29
431.528	8254.17
431.736	8979.15
431.943	9099.98
432.15	9077.45
432.358	9095.88
432.565	9437.89
432.772	9648.83
432.979	10134.2
433.187	10091.2
433.394	10060.48
433.601	10853.04
433.808	10805.94
434.016	10879.66
434.223	11246.25
434.43	11932.32
434.637	11758.24
434.844	12448.41
435.052	12505.75
435.259	12468.89
435.466	12876.43
435.673	12755.6
435.88	13234.83
436.087	13888.13
436.294	14189.18
436.501	13890.18
436.708	14029.44
436.915	14553.72
437.122	15196.78
437.329	15139.44
437.537	15465.07
437.743	15768.16
437.95	15639.14
438.157	16290.4
438.364	16886.36
438.571	16931.41
438.778	16980.56
438.985	19108.4
439.192	18029.12
439.399	18471.48
439.606	17889.86
439.813	19024.44
440.02	20128.29
440.227	19628.59
440.433	19778.09
440.64	20273.7
440.847	19972.64
441.054	20488.73
441.261	22002.18
441.467	21783.05
441.674	22499.84
441.881	22905.34
442.088	23126.52
442.294	22782.46
442.501	23103.99
442.708	23474.67
442.914	24842.71
443.121	25528.78
443.328	24902.11
443.534	26483.14
443.741	26034.63
443.948	25565.65
444.154	27511.22
444.361	27077.05
444.568	27550.13
444.774	27726.25
444.981	27619.76
445.187	28606.88
445.394	29659.54
445.6	29206.94
445.807	32110.96
446.013	31009.15
446.22	31437.17
446.426	32532.84
446.633	32749.92
446.839	33978.7
447.046	32717.15
447.252	34472.26
447.459	34384.2
447.665	34208.08
447.871	35678.52
448.078	37073.18
448.284	35248.44
448.491	36419.88
448.697	37798.16
448.903	38349.07
449.11	38480.14
449.316	37835.03
449.522	38717.7
449.728	39788.79
449.935	40077.55
450.141	39897.33
450.347	40773.86
450.553	39561.47
450.76	39977.2
450.966	41177.31
451.172	40737
451.378	41631.96
451.584	41060.58
451.791	42305.74
451.997	42125.52
452.203	42754.25
452.409	42428.62
452.615	42426.57
452.821	41044.2
453.027	40245.49
453.233	42883.27
453.44	40904.93
453.646	41894.1
453.852	41369.82
454.058	42045.65
454.264	40429.8
454.47	41492.7
454.676	40548.59
454.882	42184.91
455.088	38570.25
455.294	39059.71
455.5	39520.51
455.705	39782.65
455.911	38125.84
456.117	37562.65
456.323	37157.15
456.529	35072.32
456.735	36856.1
456.941	35719.48
457.147	35334.46
457.352	34287.95
457.558	34009.42
457.764	33618.26
457.97	32995.68
458.176	32446.82
458.381	32412.01
458.587	30859.65
458.793	30935.42
458.999	29073.82
459.204	31213.95
459.41	30628.23
459.616	28387.75
459.821	28529.06
460.027	28264.87
460.233	28221.86
460.438	26565.06
460.644	26616.26
460.85	25446.87
461.055	25201.11
461.261	24922.59
461.466	22927.86
461.672	22344.19
461.878	24025.57
462.083	22469.12
462.289	22045.19
462.494	21707.27
462.7	20931.09
462.905	19997.22
463.111	20556.32
463.316	20656.67
463.522	20185.63
463.727	20439.58
463.932	20427.29
464.138	20404.77
464.343	20111.91
464.549	19808.81
464.754	20306.46
464.959	20060.71
465.165	19821.09
465.37	19155.51
465.575	18762.3
465.781	19601.96
465.986	19386.93
466.191	18541.11
466.397	18281.02
466.602	17418.83
466.807	18051.65
467.012	17941.06
467.218	17945.16
467.423	17738.31
467.628	17705.54
467.833	18381.37
468.038	17846.85
468.244	17281.61
468.449	18229.82
468.654	17404.49
468.859	17306.19
469.064	17224.27
469.269	16736.85
469.474	16704.09
469.679	16890.45
469.885	16284.25
470.09	16671.32
470.295	16462.43
470.5	16173.66
470.705	16294.49
470.91	15661.67
471.115	15807.08
471.32	16124.51
471.525	15950.43
471.73	15399.53
471.935	15346.28
472.139	15135.34
472.344	15116.91
472.549	14848.63
472.754	14578.29
472.959	14271.1
473.164	14156.41
473.369	14084.73
473.574	14637.69
473.778	14396.03
473.983	14099.07
474.188	14154.37
474.393	13548.17
474.598	13669
474.802	13286.03
475.007	13400.71
475.212	13202.06
475.417	12620.44
475.621	12804.75
475.826	12745.36
476.031	12653.2
476.235	12323.48
476.44	12655.25
476.645	12313.24
476.849	12378.78
477.054	12286.62
477.259	12188.32
477.463	12030.62
477.668	11704.99
477.872	12032.67
478.077	11477.67
478.282	11227.82
478.486	11258.54
478.691	11111.08
478.895	11041.45
479.1	11342.5
479.304	11096.75
479.509	10861.23
479.713	11086.51
479.918	10764.98
480.122	10621.62
480.326	10762.93
480.531	10588.85
480.735	10422.97
480.94	10195.64
481.144	10846.9
481.348	10146.49
481.553	10324.66
481.757	10087.1
481.961	10336.95
482.166	10549.94
482.37	10560.18
482.574	10339
482.778	10128.06
482.983	10482.36
483.187	10427.06
483.391	10445.49
483.595	10232.51
483.8	10083
484.004	10099.39
484.208	10508.98
484.412	10162.87
484.616	10128.06
484.821	10506.93
485.025	10054.33
485.229	10154.68
485.433	9935.55
485.637	10183.35
485.841	10195.64
486.045	10058.43
486.249	10267.32
486.453	9941.69
486.657	10113.72
486.861	9990.84
487.065	9908.93
487.269	10021.56
487.473	10152.63
487.677	10269.37
487.881	10281.66
488.085	10160.83
488.289	10179.26
488.493	9994.94
488.697	10236.6
488.901	10207.93
489.105	10023.61
489.309	10228.41
489.512	10250.94
489.716	10083
489.92	10212.03
490.124	10076.86
490.328	10320.57
490.531	10107.58
490.735	10255.03
490.939	10252.98
491.143	10304.18
491.346	10148.54
491.55	10490.55
491.754	10375.86
491.958	10584.76
492.161	10492.6
492.365	10482.36
492.569	10433.21
492.772	10453.69
492.976	10529.46
493.18	10451.64
493.383	10834.61
493.587	10846.9
493.79	10937.01
493.994	10773.17
494.197	10980.01
494.401	10803.89
494.605	11006.64
494.808	11231.91
495.012	11182.76
495.215	11174.57
495.419	11387.56
495.622	11225.77
495.825	11326.12
496.029	11428.52
496.232	11629.22
496.436	11565.73
496.639	11821.73
496.843	11694.75
497.046	11963.04
497.249	12239.51
497.453	12219.03
497.656	12143.26
497.859	12423.83
498.063	12667.54
498.266	12579.48
498.469	12499.61
498.673	12681.88
498.876	12761.75
499.079	13095.57
499.282	13157
499.485	13441.67
499.689	13193.87
499.892	13501.06
500.095	13623.94
500.298	14043.78
500.501	13537.93
500.705	13947.52
500.908	14127.74
501.111	14305.92
501.314	14502.52
501.517	14512.76
501.72	14918.26
501.923	14619.25
502.126	14965.36
502.329	15237.74
502.532	15415.91
502.735	15448.68
502.938	16028.26
503.141	15698.53
503.344	15958.63
503.547	15950.43
503.75	16192.09
503.953	16446.04
504.156	16921.17
504.359	16761.43
504.562	16714.33
504.765	17228.37
504.968	17367.63
505.17	17476.17
505.373	17496.65
505.576	17926.72
505.779	17779.27
505.982	18074.18
506.185	18436.67
506.387	18346.56
506.59	18668.09
506.793	18745.91
506.996	18950.71
507.198	19311.15
507.401	19165.74
507.604	19642.92
507.807	19866.15
508.009	19747.37
508.212	20052.52
508.415	20415.01
508.617	20464.16
508.82	20718.11
509.022	20527.64
509.225	21404.17
509.428	21195.28
509.63	21537.29
509.833	21656.07
510.035	22139.4
510.238	22006.28
510.44	22213.12
510.643	22678.01
510.845	22395.39
511.048	22829.56
511.25	23364.08
511.453	22895.1
511.655	23777.77
511.858	23773.67
512.06	23966.18
512.262	24388.07
512.465	24191.46
512.667	24515.04
512.87	24682.97
513.072	24474.08
513.274	25471.44
513.477	25649.61
513.679	25764.3
513.881	25971.15
514.084	26003.91
514.286	26085.83
514.488	26395.07
514.69	26810.81
514.893	27187.64
515.095	27240.89
515.297	27580.85
515.499	27875.76
515.701	27937.2
515.904	28148.14
516.106	28518.82
516.308	29082.01
516.51	28930.46
516.712	28688.8
516.914	29421.97
517.116	29395.35
517.318	29725.07
517.52	29708.69
517.722	29962.64
517.925	30384.52
518.127	30937.47
518.329	30933.37
518.531	30585.22
518.733	31457.65
518.935	31496.56
519.136	31764.85
519.338	32239.98
519.54	31687.03
519.742	32272.74
519.944	32235.88
520.146	32940.38
520.348	33204.57
520.55	33278.3
520.752	33194.33
520.954	33857.87
521.155	33546.58
521.357	33923.41
521.559	34072.91
521.761	34611.53
521.963	34488.65
522.164	34832.71
522.366	34484.55
522.568	34896.19
522.77	34763.07
522.971	35477.82
523.173	35422.52
523.375	35989.81
523.576	35445.05
523.778	35651.89
523.98	35977.52
524.181	36055.34
524.383	35975.47
524.584	36262.19
524.786	36448.55
524.988	36464.94
525.189	36882.72
525.391	36641.06
525.592	37138.72
525.794	36841.76
525.995	37122.33
526.197	37349.66
526.398	37146.91
526.6	37261.6
526.801	37234.97
527.003	37333.28
527.204	37566.74
527.406	37384.47
527.607	37060.9
527.808	37566.74
528.01	37325.08
528.211	37292.32
528.412	38080.78
528.614	37859.6
528.815	37359.9
529.016	37871.89
529.218	37656.85
529.419	37675.29
529.62	37644.57
529.822	37542.17
530.023	37546.26
530.224	37749.01
530.425	37933.33
530.626	37574.94
530.828	37507.35
531.029	37607.7
531.23	37585.18
531.431	37742.87
531.632	37769.49
531.833	37722.39
532.035	37619.99
532.236	37452.06
532.437	37742.87
532.638	37271.84
532.839	37515.54
533.04	37370.14
533.241	36966.69
533.442	37798.16
533.643	37617.94
533.844	37222.69
534.045	37423.39
534.246	37087.52
534.447	37615.9
534.648	37251.36
534.849	37038.37
535.05	37009.7
535.251	37472.54
535.451	36634.92
535.652	36923.68
535.853	37005.6
536.054	37284.12
536.255	37128.48
536.456	36700.45
536.657	37243.17
536.857	36569.38
537.058	36432.17
537.259	37091.62
537.46	36817.19
537.66	36917.54
537.861	37105.95
538.062	36448.55
538.263	36653.35
538.463	36546.86
538.664	36397.35
538.865	36329.77
539.065	36694.31
539.266	36344.11
539.466	36530.47
539.667	36194.61
539.868	36423.98
540.068	36612.39
540.269	36395.31
540.469	36403.5
540.67	36460.84
540.87	36241.71
541.071	36198.7
541.271	35948.85
541.472	36014.38
541.672	36364.59
541.873	35963.18
542.073	35567.93
542.274	36583.72
542.474	35911.99
542.675	35797.3
542.875	36321.58
543.075	35944.75
543.276	35787.06
543.476	36315.44
543.676	35832.11
543.877	35582.26
544.077	35680.56
544.277	35899.7
544.478	35737.91
544.678	35871.03
544.878	35674.42
545.078	35709.24
545.279	35854.64
545.479	35862.83
545.679	35954.99
545.879	35526.97
546.079	35291.45
546.28	35717.43
546.48	35338.55
546.68	35895.6
546.88	35596.6
547.08	35750.2
547.28	35486.01
547.48	35615.03
547.68	35762.48
547.88	35637.56
548.081	35787.06
548.281	35465.53
548.481	35633.46
548.681	35809.59
548.881	35377.47
549.081	35209.53
549.28	35701.04
549.48	35735.86
549.68	35533.11
549.88	35975.47
550.08	35625.27
550.28	35885.36
550.48	35350.84
550.68	35655.99
550.88	35795.25
551.08	35717.43
551.279	35547.45
551.479	35434.81
551.679	35651.89
551.879	35367.23
552.079	35764.53
552.278	35795.25
552.478	35731.76
552.678	35518.78
552.878	35942.7
553.077	35858.74
553.277	35420.47
553.477	36127.02
553.676	35758.39
553.876	35488.06
554.076	35647.8
554.275	35899.7
554.475	35653.94
554.674	35834.16
554.874	35399.99
555.074	35387.71
555.273	35983.66
555.473	36075.82
555.672	35637.56
555.872	35817.78
556.071	35987.76
556.271	35711.28
556.47	35684.66
556.67	35545.4
556.869	35322.17
557.068	36311.34
557.268	35592.5
557.467	36071.73
557.667	36045.1
557.866	35569.97
558.065	35551.54
558.265	35897.65
558.464	35848.5
558.663	36129.07
558.863	35498.3
559.062	36526.38
559.261	35529.02
559.461	35995.95
559.66	35375.42
559.859	35860.79
560.058	35699
560.258	35465.53
560.457	35465.53
560.656	35895.6
560.855	35514.68
561.054	36006.19
561.253	35268.92
561.453	35842.35
561.652	35688.76
561.851	36137.26
562.05	35440.95
562.249	35408.19
562.448	35643.7
562.647	36014.38
562.846	35836.21
563.045	35522.87
563.244	35428.66
563.443	35719.48
563.642	35076.41
563.841	35461.43
564.04	35246.4
564.239	35639.61
564.438	35211.58
564.637	35383.61
564.836	35273.02
565.035	35146.05
565.234	35387.71
565.432	35283.26
565.631	35127.61
565.83	35117.37
566.029	34965.82
566.228	35092.8
566.427	35047.74
566.625	35041.6
566.824	34349.39
567.023	35041.6
567.222	34410.82
567.42	35045.69
567.619	34990.4
567.818	34632
568.016	34713.92
568.215	34711.88
568.414	34373.96
568.612	34900.29
568.811	34271.56
569.01	34177.36
569.208	34230.6
569.407	34322.76
569.605	33818.96
569.804	34273.61
570.002	33984.85
570.201	34507.08
570.4	33841.49
570.598	33792.34
570.797	33479
570.995	33427.8
571.193	33591.64
571.392	33741.14
571.59	33460.57
571.789	33712.47
571.987	33403.22
572.186	33229.15
572.384	33147.23
572.582	33147.23
572.781	33257.82
572.979	32741.73
573.177	33108.32
573.376	33093.98
573.574	32790.88
573.772	32844.13
573.971	32616.8
574.169	32473.45
574.367	32473.45
574.565	32235.88
574.763	32180.59
574.962	32070
575.16	32076.14
575.358	32493.93
575.556	31846.77
575.754	31811.95
575.952	31650.16
576.151	32090.48
576.349	31265.14
576.547	31482.23
576.745	31422.84
576.943	31617.39
577.141	31635.83
577.339	31322.49
577.537	31322.49
577.735	31138.17
577.933	31144.31
578.131	31066.49
578.329	30734.72
578.527	30540.16
578.725	30830.97
578.923	30554.5
579.121	30667.14
579.319	30837.12
579.516	30491.01
579.714	30439.81
579.912	30474.63
580.11	30456.2
580.308	30347.65
580.506	30187.91
580.704	29696.4
580.901	30065.03
581.099	30232.97
581.297	29753.74
581.495	29591.95
581.692	29890.96
581.89	29550.99
582.088	29634.96
582.285	29129.11
582.483	29647.25
582.681	29444.5
582.878	29274.52
583.076	29010.33
583.274	29192.6
583.471	29049.24
583.669	29165.98
583.866	28766.62
584.064	28983.71
584.262	28721.57
584.459	28805.53
584.657	28778.91
584.854	28766.62
585.052	28203.43
585.249	28813.73
585.447	28418.47
585.644	28193.19
585.841	28354.98
586.039	28492.19
586.236	27896.24
586.434	28311.97
586.631	27972.01
586.828	28322.21
587.026	28180.9
587.223	27867.56
587.42	27834.8
587.618	27601.33
587.815	27742.64
588.012	27621.81
588.21	27503.03
588.407	27648.43
588.604	27589.04
588.801	27136.44
588.999	27234.74
589.196	27298.23
589.393	27097.53
589.59	27273.65
589.787	27021.75
589.984	26878.4
590.182	26710.46
590.379	27292.08
590.576	27015.61
590.773	26794.43
590.97	26436.03
591.167	26657.21
591.364	26532.29
591.561	26589.63
591.758	26384.83
591.955	26251.72
592.152	26724.8
592.349	26221
592.546	26325.44
592.743	26149.32
592.94	26057.16
593.137	26184.13
593.334	26120.65
593.531	25760.2
593.727	25983.43
593.924	25930.19
594.121	25915.85
594.318	25821.64
594.515	25506.26
594.712	25946.57
594.908	25727.44
595.105	25975.24
595.302	25631.18
595.499	25555.41
595.696	25596.37
595.892	25385.43
596.089	25577.94
596.286	25590.22
596.482	25455.06
596.679	25582.03
596.876	25383.38
597.072	25197.01
597.269	25264.6
597.466	24891.87
597.662	25473.49
597.859	25737.68
598.055	25614.8
598.252	25192.92
598.448	25287.12
598.645	25338.32
598.841	24855
599.038	25328.08
599.234	25373.14
599.431	25205.2
599.627	25229.78
599.824	25092.57
600.02	24914.39
600.217	25178.58
600.413	25104.85
600.609	24879.58
600.806	24742.36
601.002	25045.46
601.198	24730.08
601.395	25303.51
601.591	24959.45
601.787	25090.52
601.984	24859.1
602.18	25188.82
602.376	25194.96
602.572	24943.06
602.769	24816.09
602.965	25088.47
603.161	25043.42
603.357	24838.62
603.553	24918.49
603.75	24928.73
603.946	24902.11
604.142	25151.96
604.338	24699.36
604.534	24545.76
604.73	25022.94
604.926	24857.05
605.122	25205.2
605.318	24904.15
605.514	24666.59
605.71	24875.48
605.906	24877.53
606.102	24967.64
606.298	24867.29
606.494	24951.26
606.69	25235.92
606.886	25084.37
607.082	24893.91
607.278	25336.27
607.474	25260.5
607.67	25502.16
607.866	24926.68
608.062	25399.76
608.257	25139.67
608.453	25522.64
608.649	25352.66
608.845	25293.27
609.041	25160.15
609.236	25205.2
609.432	25453.01
609.628	25518.54
609.824	25340.37
610.019	25352.66
610.215	25500.11
610.411	25653.71
610.606	25555.41
610.802	25686.48
610.998	25455.06
611.193	25504.21
611.389	25473.49
611.584	25446.87
611.78	25514.45
611.976	25616.85
612.171	25692.62
612.367	25919.95
612.562	25453.01
612.758	25606.61
612.953	25397.71
613.149	25842.12
613.344	25401.81
613.539	25891.27
613.735	25768.4
613.93	26143.17
614.126	25711.05
614.321	26173.89
614.517	26046.92
614.712	25805.26
614.907	25643.47
615.103	26005.96
615.298	25721.29
615.493	25846.22
615.688	25498.06
615.884	26024.39
616.079	25838.03
616.274	26243.52
616.47	25823.69
616.665	26106.31
616.86	25510.35
617.055	25532.88
617.25	25674.19
617.445	26229.19
617.641	25321.94
617.836	25586.13
618.031	25670.09
618.226	25831.88
618.421	25545.17
618.616	25754.06
618.811	25422.29
619.006	25600.46
619.201	25397.71
619.396	25541.07
619.591	25033.18
619.786	25670.09
619.981	25106.9
620.176	25289.17
620.371	24838.62
620.566	25336.27
620.761	24715.74
620.956	24736.22
621.151	24723.93
621.346	24695.26
621.541	24517.09
621.735	24785.37
621.93	24041.96
622.125	24132.07
622.32	24168.93
622.515	24375.78
622.709	23996.9
622.904	24162.79
623.099	24048.1
623.294	23726.57
623.488	23581.17
623.683	23738.86
623.878	23392.75
624.072	23364.08
624.267	23382.51
624.462	23065.08
624.656	23181.81
624.851	23069.17
625.046	23063.03
625.24	22946.3
625.435	22878.71
625.629	22561.28
625.824	22598.14
626.018	22653.44
626.213	21967.37
626.407	22032.9
626.602	21944.84
626.796	22026.76
626.991	21940.74
627.185	22206.98
627.38	21533.2
627.574	21645.84
627.768	21412.37
627.963	21514.77
628.157	21041.68
628.352	21266.96
628.546	20761.11
628.74	21178.9
628.935	20476.44
629.129	20927
629.323	20671
629.517	20382.24
629.712	20396.57
629.906	20292.13
630.1	20109.86
630.294	20251.17
630.489	19880.49
630.683	19968.55
630.877	19831.33
631.071	20021.8
631.265	19886.63
631.459	19640.87
631.653	19599.91
631.848	19567.15
632.042	19233.33
632.236	19309.1
632.43	19059.25
632.624	18983.48
632.818	19006
633.012	18604.6
633.206	18840.12
633.4	18762.3
633.594	18506.3
633.788	18657.85
633.982	18518.59
634.176	18551.35
634.369	17932.87
634.563	18160.19
634.757	18082.37
634.951	18051.65
635.145	17969.73
635.339	17936.96
635.533	17685.06
635.726	17885.76
635.92	17437.26
636.114	17478.22
636.308	17209.93
636.501	17455.69
636.695	17152.59
636.889	17039.95
637.083	17072.72
637.276	16816.72
637.47	16751.19
637.664	16722.52
637.857	16601.69
638.051	16462.43
638.244	16415.32
638.438	16396.89
638.632	16020.06
638.825	15929.95
639.019	15946.34
639.212	15723.11
639.406	15876.71
639.599	15856.23
639.793	15716.97
639.986	15319.66
640.18	15618.66
640.373	15655.53
640.567	15174.25
640.76	15207.02
640.954	15276.65
641.147	14961.27
641.34	14996.08
641.534	15211.12
641.727	14850.67
641.92	14862.96
642.114	14658.17
642.307	14553.72
642.5	14449.27
642.694	14314.11
642.887	14031.49
643.08	14178.94
643.273	14336.63
643.467	13937.28
643.66	14254.72
643.853	13752.96
644.046	13705.86
644.239	13761.16
644.432	13697.67
644.626	13529.73
644.819	13243.02
645.012	13466.25
645.205	13447.82
645.398	13267.59
645.591	12941.97
645.784	13025.93
645.977	12880.53
646.17	12968.59
646.363	13019.79
646.556	12812.95
646.749	12626.58
646.942	12780.18
647.135	12466.84
647.328	12284.57
647.521	12362.39
647.714	12235.42
647.907	12403.35
648.099	12169.88
648.292	12161.69
648.485	12135.07
648.678	12069.53
648.871	11907.74
649.064	11893.41
649.256	11862.69
649.449	11680.42
649.642	11901.6
649.835	11694.75
650.027	11408.04
650.22	11449
650.413	11342.5
650.605	11477.67
650.798	11371.18
650.991	11227.82
651.183	11074.22
651.376	11205.29
651.568	10941.1
651.761	11043.5
651.954	10982.06
652.146	10867.38
652.339	10730.16
652.531	10517.17
652.724	10846.9
652.916	10508.98
653.109	10453.69
653.301	10502.84
653.494	10500.79
653.686	10318.52
653.879	10597.04
654.071	10179.26
654.263	10123.96
654.456	10064.57
654.648	10304.18
654.84	10037.95
655.033	10044.09
655.225	10046.14
655.417	9859.77
655.61	9763.52
655.802	10001.08
655.994	9720.51
656.186	9824.96
656.379	9687.75
656.571	9773.76
656.763	9398.98
656.955	9573.06
657.148	9708.23
657.34	9382.6
657.532	9220.81
657.724	9159.37
657.916	9427.65
658.108	9241.29
658.3	9216.71
658.492	9161.42
658.684	8950.48
658.876	8948.43
659.068	9077.45
659.26	8884.94
659.452	8966.86
659.644	8952.52
659.836	8805.07
660.028	8815.31
660.22	8555.22
660.412	8485.59
660.604	8475.35
660.796	8616.66
660.988	8575.7
661.18	8426.2
661.372	8499.92
661.563	8592.08
661.755	8190.68
661.947	8325.85
662.139	8030.94
662.331	8010.46
662.522	8075.99
662.714	7944.92
662.906	7906.01
663.097	7922.4
663.289	7793.37
663.481	7738.08
663.673	7795.42
663.864	7752.42
664.056	7711.46
664.247	7799.52
664.439	7607.01
664.631	7602.91
664.822	7695.07
665.014	7600.87
665.205	7394.02
665.397	7533.28
665.588	7455.46
665.78	7287.53
665.971	7361.25
666.163	7434.98
666.354	7328.49
666.546	7133.93
666.737	7103.21
666.929	7119.59
667.12	7131.88
667.311	7090.92
667.503	7189.22
667.694	6992.62
667.885	6990.57
668.077	6900.46
668.268	6959.85
668.459	6961.9
668.651	6910.7
668.842	6869.74
669.033	6777.58
669.224	6660.85
669.416	6580.98
669.607	6621.94
669.798	6554.35
669.989	6515.44
670.18	6648.56
670.371	6447.86
670.563	6570.74
670.754	6454
670.945	6501.11
671.136	6392.56
671.327	6273.78
671.518	6359.8
671.709	6437.62
671.9	6359.8
672.091	6486.77
672.282	6306.55
672.473	6241.01
672.664	6132.47
672.855	6173.43
673.046	6075.13
673.237	6259.45
673.428	6230.77
673.619	6157.05
673.809	6191.86
674	5925.63
674.191	6023.93
674.382	6021.88
674.573	5964.54
674.764	5888.76
674.954	5980.92
675.145	5757.69
675.336	5956.35
675.527	5944.06
675.717	5821.18
675.908	5616.38
676.099	5792.51
676.289	5649.15
676.48	5765.89
676.671	5597.95
676.861	5765.89
677.052	5559.04
677.243	5792.51
677.433	5675.77
677.624	5667.58
677.814	5706.49
678.005	5571.33
678.195	5575.42
678.386	5485.31
678.576	5503.75
678.767	5493.51
678.957	5405.44
679.148	5675.77
679.338	5587.71
679.529	5442.31
679.719	5264.13
679.909	5413.63
680.1	5376.77
680.29	5475.07
680.481	5405.44
680.671	5473.03
680.861	5255.94
681.052	5331.72
681.242	5165.83
681.432	5403.39
681.622	5329.67
681.813	5411.59
682.003	5102.34
682.193	5225.22
682.383	5270.28
682.573	5370.63
682.764	5264.13
682.954	5403.39
683.144	5102.34
683.334	5069.58
683.524	5419.78
683.714	5174.02
683.904	5133.06
684.094	5184.26
684.284	5014.28
684.474	5212.93
684.664	4999.95
684.854	5094.15
685.044	5071.62
685.234	4911.88
685.424	5128.97
685.614	5079.82
685.804	5112.58
685.994	5049.1
686.184	5071.62
686.374	4969.23
686.564	4846.35
686.753	5088.01
686.943	4862.73
687.133	4938.51
687.323	5094.15
687.513	4870.92
687.702	4840.2
687.892	4786.96
688.082	4657.93
688.272	4887.31
688.461	4911.88
688.651	4881.16
688.841	4733.71
689.03	4821.77
689.22	4743.95
689.41	4766.48
689.599	4793.1
689.789	4973.32
689.979	4649.74
690.168	4641.55
690.358	4719.37
690.547	4733.71
690.737	4840.2
690.926	4809.48
691.116	4569.87
691.305	4684.56
691.495	4645.65
691.684	4537.1
691.874	4530.96
692.063	4598.54
692.252	4616.97
692.442	4629.26
692.631	4494.1
692.82	4649.74
693.01	4510.48
693.199	4395.79
693.388	4266.77
693.578	4547.34
693.767	4545.3
693.956	4420.37
694.146	4360.98
694.335	4299.54
694.524	4438.8
694.713	4444.95
694.902	4479.76
695.092	4442.9
695.281	4285.2
695.47	4330.26
695.659	4137.75
695.848	4338.45
696.037	4285.2
696.226	4217.62
696.415	4227.86
696.604	4420.37
696.793	4350.74
696.982	4279.06
697.171	4408.08
697.36	4162.33
697.549	4348.69
697.738	4317.97
697.927	4184.85
698.116	4100.89
698.305	4223.76
698.494	4244.24
698.683	4059.93
698.872	4100.89
699.061	4043.54
699.25	4113.17
699.438	4066.07
699.627	4074.26
699.816	4264.72
700.005	4154.13
700.193	4260.63
700.382	4182.81
700.571	4053.78
700.76	4100.89
700.948	4191
701.137	4100.89
701.326	4027.16
701.514	3984.15
701.703	4043.54
701.892	4014.87
702.08	4133.65
702.269	3939.1
702.457	3791.64
702.646	3908.38
702.834	3912.47
703.023	3916.57
703.212	3918.62
703.4	3904.28
703.589	3943.19
703.777	3937.05
703.965	3891.99
704.154	3777.31
704.342	3846.94
704.531	3851.03
704.719	3832.6
704.907	3824.41
705.096	3767.07
705.284	3814.17
705.472	3707.68
705.661	3715.87
705.849	3773.21
706.037	3898.14
706.226	3668.77
706.414	3709.72
706.602	3736.35
706.79	3719.96
706.979	3674.91
707.167	3724.06
707.355	3646.24
707.543	3644.19
707.731	3603.23
707.919	3574.56
708.107	3492.64
708.296	3683.1
708.484	3529.5
708.672	3625.76
708.86	3601.18
709.048	3527.46
709.236	3412.77
709.424	3502.88
709.612	3513.12
709.8	3513.12
709.988	3445.54
710.176	3463.97
710.364	3586.85
710.551	3570.46
710.739	3564.32
710.927	3394.34
711.115	3396.39
711.303	3449.63
711.491	3425.06
711.679	3494.69
711.866	3441.44
712.054	3336.99
712.242	3412.77
712.43	3486.5
712.617	3420.96
712.805	3314.47
712.993	3199.78
713.181	3263.27
713.368	3250.98
713.556	3296.04
713.744	3226.4
713.931	3308.32
714.119	3334.95
714.306	3250.98
714.494	3242.79
714.682	3199.78
714.869	3232.55
715.057	3177.25
715.244	3169.06
715.432	3212.07
715.619	3003.18
715.807	3154.73
715.994	3109.67
716.182	2970.41
716.369	2964.26
716.556	3126.05
716.744	2978.6
716.931	3033.9
717.119	3117.86
717.306	3171.11
717.493	3113.77
717.681	3132.2
717.868	3117.86
718.055	2980.65
718.242	3035.94
718.43	3046.18
718.617	3078.95
718.804	3117.86
718.991	2970.41
719.179	2997.03
719.366	3021.61
719.553	2945.83
719.74	2939.69
719.927	2896.68
720.114	2870.06
720.301	2880.3
720.488	2970.41
720.676	2874.15
720.863	2849.58
721.05	2913.06
721.237	2745.13
721.424	2906.92
721.611	2841.39
721.798	2835.24
721.985	2716.46
722.172	2872.11
722.358	2749.23
722.545	2874.15
722.732	2777.9
722.919	2994.98
723.106	2708.27
723.293	2761.52
723.48	2673.45
723.667	2765.61
723.853	2724.65
724.04	2827.05
724.227	2820.91
724.414	2685.74
724.6	2644.78
724.787	2695.98
724.974	2884.39
725.161	2601.77
725.347	2661.16
725.534	2609.97
725.72	2745.13
725.907	2710.32
726.094	2781.99
726.28	2761.52
726.467	2695.98
726.653	2523.95
726.84	2595.63
727.027	2650.92
727.213	2585.39
727.4	2583.34
727.586	2560.81
727.773	2605.87
727.959	2595.63
728.145	2560.81
728.332	2480.94
728.518	2429.74
728.705	2552.62
728.891	2579.25
729.077	2401.07
729.264	2409.26
729.45	2519.85
729.636	2462.51
729.823	2462.51
730.009	2538.29
730.195	2540.33
730.382	2427.7
730.568	2390.83
730.754	2419.5
730.94	2366.26
731.126	2417.46
731.313	2437.94
731.499	2376.5
731.685	2476.85
731.871	2358.07
732.057	2413.36
732.243	2442.03
732.429	2485.04
732.615	2439.98
732.801	2493.23
732.987	2351.92
733.173	2327.35
733.359	2247.48
733.545	2368.31
733.731	2388.78
733.917	2292.53
734.103	2429.74
734.289	2298.67
734.475	2409.26
734.661	2257.71
734.847	2267.95
735.033	2171.7
735.219	2253.62
735.404	2325.3
735.59	2243.38
735.776	2276.15
735.962	2259.76
736.148	2274.1
736.333	2063.16
736.519	2112.31
736.705	2267.95
736.89	2224.95
737.076	2290.48
737.262	2218.8
737.447	2145.08
737.633	2222.9
737.819	2077.49
738.004	2136.88
738.19	2212.66
738.375	2159.41
738.561	2220.85
738.747	2069.3
738.932	2036.53
739.118	2118.45
739.303	2057.01
739.489	2011.96
739.674	2145.08
739.859	2122.55
740.045	2075.45
740.23	2104.12
740.416	1993.53
740.601	1956.66
740.786	1936.18
740.972	2028.34
741.157	2003.77
741.342	1973.05
741.528	1999.67
741.713	1964.86
741.898	1987.38
742.084	1946.42
742.269	1979.19
742.454	1923.9
742.639	1966.9
742.824	1925.94
743.01	2016.05
743.195	1979.19
743.38	1940.28
743.565	1958.71
743.75	1833.79
743.935	1962.81
744.12	1983.29
744.305	1893.18
744.49	1893.18
744.675	1901.37
744.86	1846.07
745.045	1880.89
745.23	1860.41
745.415	1792.83
745.6	1772.35
745.785	1868.6
745.97	1772.35
746.155	1643.32
746.34	1753.91
746.525	1856.31
746.71	1801.02
746.895	1719.1
747.079	1692.48
747.264	1669.95
747.449	1706.81
747.634	1643.32
747.819	1747.77
748.003	1669.95
748.188	1631.04
748.373	1643.32
748.557	1645.37
748.742	1579.84
748.927	1639.23
749.111	1663.8
749.296	1557.31
749.481	1708.86
749.665	1547.07
749.85	1557.31
750.034	1495.87
750.219	1479.49
750.404	1493.82
750.588	1491.77
750.773	1424.19
750.957	1493.82
751.141	1477.44
751.326	1553.21
751.51	1448.77
751.695	1360.7
751.879	1397.57
752.064	1446.72
752.248	1397.57
752.432	1456.96
752.617	1413.95
752.801	1481.53
752.985	1389.38
753.17	1332.03
753.354	1436.48
753.538	1291.07
753.722	1424.19
753.907	1438.53
754.091	1372.99
754.275	1440.58
754.459	1303.36
754.643	1286.98
754.828	1389.38
755.012	1372.99
755.196	1248.07
755.38	1313.6
755.564	1332.03
755.748	1309.51
755.932	1260.35
756.116	1235.78
756.3	1203.01
756.484	1262.4
756.668	1162.05
756.852	1196.87
757.036	1241.92
757.22	1129.28
757.404	1178.44
757.588	1143.62
757.772	1172.29
757.956	1213.25
758.14	1149.76
758.323	1168.2
758.507	1190.72
758.691	1162.05
758.875	1194.82
759.059	1139.52
759.242	1094.47
759.426	1104.71
759.61	1143.62
759.794	1069.89
759.977	1071.94
760.161	1200.96
760.345	975.69
760.528	1033.03
760.712	1139.52
760.895	1139.52
761.079	1010.5
761.263	973.64
761.446	981.83
761.63	1028.93
761.813	1094.47
761.997	922.44
762.18	992.07
762.364	996.17
762.547	924.49
762.731	994.12
762.914	963.4
763.098	979.78
763.281	1035.08
763.464	963.4
763.648	926.54
763.831	996.17
764.015	893.77
764.198	971.59
764.381	1053.51
764.564	959.3
764.748	1061.7
764.931	949.06
765.114	863.05
765.297	893.77
765.481	914.25
765.664	871.24
765.847	875.34
766.03	942.92
766.213	858.95
766.397	987.97
766.58	908.1
766.763	959.3
766.946	930.63
767.129	959.3
767.312	889.67
767.495	848.71
767.678	899.91
767.861	815.94
768.044	828.23
768.227	875.34
768.41	887.62
768.593	834.38
768.776	875.34
768.959	889.67
769.142	947.01
769.324	877.38
769.507	863.05
769.69	803.66
769.873	840.52
770.056	861
770.239	867.14
770.421	826.18
770.604	795.47
770.787	842.57
770.97	904.01
771.152	791.37
771.335	785.23
771.518	762.7
771.7	811.85
771.883	777.03
772.066	791.37
772.248	887.62
772.431	846.66
772.613	762.7
772.796	750.41
772.978	787.27
773.161	852.81
773.343	768.84
773.526	754.51
773.708	758.6
773.891	721.74
774.073	758.6
774.256	779.08
774.438	791.37
774.621	738.12
774.803	717.64
774.985	701.26
775.168	729.93
775.35	627.53
775.532	703.31
775.715	623.44
775.897	779.08
776.079	668.49
776.261	717.64
776.444	748.36
776.626	627.53
776.808	684.87
776.99	668.49
777.173	693.07
777.355	660.3
777.537	611.15
777.719	641.87
777.901	678.73
778.083	590.67
778.265	668.49
778.447	596.81
778.629	609.1
778.811	662.35
778.993	602.96
779.175	629.58
779.357	557.9
779.539	611.15
779.721	553.8
779.903	678.73
780.085	564.04
780.267	609.1
780.449	619.34
780.631	619.34
780.812	750.41
780.994	594.76
781.176	613.2
781.358	621.39
781.54	506.7
781.721	578.38
781.903	545.61
782.085	545.61
782.267	590.67
782.448	512.85
782.63	525.13
782.812	531.28
782.993	514.89
783.175	537.42
783.357	467.79
783.538	529.23
783.72	533.33
783.901	557.9
784.083	562
784.264	461.65
784.446	482.13
784.627	459.6
784.809	482.13
784.99	484.17
785.172	578.38
785.353	492.37
785.535	512.85
785.716	359.25
785.897	461.65
786.079	439.12
786.26	471.89
786.441	457.55
786.623	392.02
786.804	400.21
786.985	465.74
787.167	422.73
787.348	455.5
787.529	455.5
787.71	480.08
787.891	365.39
788.073	428.88
788.254	369.49
788.435	451.41
788.616	545.61
788.797	398.16
788.978	398.16
789.159	273.23
789.34	381.78
789.522	428.88
789.703	389.97
789.884	414.54
790.065	381.78
790.246	455.5
790.427	359.25
790.607	486.22
790.788	457.55
790.969	342.86
791.15	383.82
791.331	308.05
791.512	254.8
791.693	301.9
791.874	334.67
792.054	387.92
792.235	334.67
792.416	340.82
792.597	242.51
792.778	336.72
792.958	389.97
793.139	316.24
793.32	373.58
793.5	248.66
793.681	398.16
793.862	340.82
794.042	340.82
794.223	316.24
794.404	279.38
794.584	273.23
794.765	299.86
794.945	219.99
795.126	435.02
795.306	367.44
795.487	275.28
795.667	250.71
795.848	297.81
796.028	293.71
796.209	265.04
796.389	349.01
796.57	250.71
796.75	299.86
796.93	246.61
797.111	283.47
797.291	320.34
797.471	287.57
797.652	287.57
797.832	164.69
798.012	363.34
798.192	242.51
798.373	238.42
798.553	244.56
798.733	269.14
798.913	226.13
799.093	328.53
799.274	320.34
799.454	242.51
799.634	252.75
799.814	287.57
799.994	246.61
800.174	342.86
800.354	248.66
800.534	219.99
800.714	342.86
800.894	217.94
801.074	146.26
801.254	244.56
801.434	248.66
801.614	189.27
801.794	234.32
801.974	824.14
802.154	234.32
802.334	291.66
802.514	207.7
802.693	179.03
802.873	162.64
803.053	258.9
803.233	189.27
803.413	262.99
803.592	205.65
803.772	275.28
803.952	189.27
804.131	283.47
804.311	271.19
804.491	275.28
804.67	215.89
804.85	45.91
805.03	185.17
805.209	181.07
805.389	189.27
805.568	181.07
805.748	119.64
805.928	168.79
806.107	187.22
806.287	275.28
806.466	213.84
806.646	242.51
806.825	179.03
807.004	156.5
807.184	258.9
807.363	162.64
807.543	181.07
807.722	195.41
807.901	234.32
808.081	226.13
808.26	140.12
808.439	181.07
808.619	168.79
808.798	168.79
808.977	142.16
809.156	160.59
809.336	156.5
809.515	217.94
809.694	127.83
809.873	168.79
810.052	230.23
810.231	115.54
810.411	179.03
810.59	215.89
810.769	127.83
810.948	160.59
811.127	29.52
811.306	160.59
811.485	136.02
811.664	152.4
811.843	162.64
812.022	140.12
812.201	162.64
812.38	170.83
812.559	72.53
812.737	156.5
812.916	121.68
813.095	66.39
813.274	140.12
813.453	144.21
813.632	174.93
813.811	224.08
813.989	144.21
814.168	127.83
814.347	154.45
814.526	148.31
814.704	179.03
814.883	267.09
815.062	74.58
815.24	162.64
815.419	123.73
815.598	179.03
815.776	47.96
815.955	95.06
816.133	154.45
816.312	140.12
816.49	113.49
816.669	111.44
816.847	176.98
817.026	127.83
817.204	111.44
817.383	187.22
817.561	119.64
817.74	160.59
817.918	203.6
818.097	156.5
818.275	166.74
818.453	234.32
818.632	160.59
818.81	185.17
818.988	95.06
819.167	138.07
819.345	111.44
819.523	109.4
819.701	103.25
819.879	103.25
820.058	105.3
820.236	148.31
820.414	127.83
820.592	160.59
820.77	179.03
820.948	82.77
821.127	76.63
821.305	66.39
821.483	113.49
821.661	213.84
821.839	101.2
822.017	113.49
822.195	45.91
822.373	136.02
822.551	86.87
822.729	133.97
822.907	162.64
823.085	105.3
823.262	127.83
823.44	7
823.618	111.44
823.796	123.73
823.974	109.4
824.152	54.1
824.329	144.21
824.507	82.77
824.685	113.49
824.863	111.44
825.04	121.68
825.218	103.25
825.396	111.44
825.574	140.12
825.751	136.02
825.929	82.77
826.107	86.87
826.284	86.87
826.462	101.2
826.639	54.1
826.817	111.44
826.994	181.07
827.172	37.72
827.349	103.25
827.527	62.29
827.704	66.39
827.882	160.59
828.059	103.25
828.237	129.88
828.414	127.83
828.591	101.2
828.769	86.87
828.946	138.07
829.124	111.44
829.301	129.88
829.478	45.91
829.655	111.44
829.833	56.15
830.01	70.48
830.187	86.87
830.364	138.07
830.542	144.21
830.719	88.92
830.896	62.29
831.073	52.05
831.25	111.44
831.427	172.88
831.604	-15.53
831.782	52.05
831.959	152.4
832.136	62.29
832.313	121.68
832.49	41.81
832.667	58.2
832.844	119.64
833.021	144.21
833.198	54.1
833.374	127.83
833.551	101.2
833.728	90.96
833.905	119.64
834.082	90.96
834.259	68.44
834.436	172.88
834.612	50
834.789	95.06
834.966	33.62
835.143	21.33
835.319	-11.43
835.496	119.64
835.673	103.25
835.85	148.31
836.026	99.16
836.203	90.96
836.38	78.68
836.556	82.77
836.733	72.53
836.909	107.35
837.086	54.1
837.262	13.14
837.439	72.53
837.616	117.59
837.792	70.48
837.968	103.25
838.145	80.72
838.321	50
838.498	109.4
838.674	111.44
838.851	97.11
839.027	17.24
839.203	82.77
839.38	68.44
839.556	58.2
839.732	66.39
839.909	47.96
840.085	25.43
840.261	25.43
840.437	78.68
840.614	-11.43
840.79	111.44
840.966	80.72
841.142	78.68
841.318	0.85
841.494	45.91
841.671	52.05
841.847	29.52
842.023	88.92
842.199	56.15
842.375	113.49
842.551	-76.97
842.727	11.09
842.903	105.3
843.079	54.1
843.255	11.09
843.431	70.48
843.607	78.68
843.783	-50.35
843.959	119.64
844.134	-23.72
844.31	80.72
844.486	31.57
844.662	37.72
844.838	54.1
845.013	123.73
845.189	156.5
845.365	41.81
845.541	17.24
845.716	-9.39
845.892	78.68
846.068	35.67
846.244	7
846.419	-42.15
846.595	13.14
846.77	13.14
846.946	54.1
847.122	54.1
847.297	80.72
847.473	66.39
847.648	-13.48
847.824	88.92
847.999	-40.11
848.175	-9.39
848.35	62.29
848.526	84.82
848.701	72.53
848.876	58.2
849.052	35.67
849.227	15.19
849.403	25.43
849.578	64.34
849.753	41.81
849.929	62.29
850.104	4.95
850.279	58.2
850.454	64.34
850.63	78.68
850.805	72.53
850.98	45.91
851.155	103.25
851.33	13.14
851.505	4.95
851.681	144.21
851.856	70.48
852.031	111.44
852.206	64.34
852.381	-7.34
852.556	7
852.731	-31.91
852.906	86.87
853.081	13.14
853.256	113.49
853.431	-1.19
853.606	76.63
853.781	52.05
853.956	-50.35
854.131	25.43
854.305	70.48
854.48	13.14
854.655	0.85
854.83	35.67
855.005	-17.58
855.18	-9.39
855.354	-3.24
855.529	76.63
855.704	21.33
855.879	103.25
856.053	-17.58
856.228	43.86
856.403	-50.35
856.577	45.91
856.752	-46.25
856.926	62.29
857.101	70.48
857.276	-31.91
857.45	0.85
857.625	54.1
857.799	2.9
857.974	4.95
858.148	7
858.323	15.19
858.497	54.1
858.672	-9.39
858.846	-3.24
859.02	86.87
859.195	23.38
859.369	-1.19
859.543	-5.29
859.718	7
859.892	31.57
860.066	74.58
860.241	-25.77
860.415	21.33
860.589	-21.67
860.763	29.52
860.938	50
861.112	4.95
861.286	4.95
861.46	78.68
861.634	-15.53
861.808	47.96
861.982	0.85
862.157	25.43
862.331	-50.35
862.505	-150.7
862.679	-17.58
862.853	64.34
863.027	-33.96
863.201	140.12
863.375	19.29
863.549	74.58
863.722	4.95
863.896	121.68
864.07	97.11
864.244	-3.24
864.418	29.52
864.592	31.57
864.766	68.44
864.939	41.81
865.113	-11.43
865.287	-25.77
865.461	54.1
865.634	37.72
865.808	121.68
865.982	-21.67
866.156	-44.2
866.329	56.15
866.503	41.81
866.676	136.02
866.85	13.14
867.024	64.34
867.197	47.96
867.371	56.15
867.544	45.91
867.718	4.95
867.891	54.1
868.065	-3.24
868.238	-21.67
868.412	-5.29
868.585	-42.15
868.759	50
868.932	-17.58
869.105	39.76
869.279	39.76
869.452	9.05
869.625	39.76
869.799	-52.39
869.972	-76.97
870.145	35.67
870.319	74.58
870.492	-3.24
870.665	41.81
870.838	47.96
871.011	-93.35
871.185	19.29
871.358	4.95
871.531	21.33
871.704	-44.2
871.877	21.33
872.05	25.43
872.223	35.67
872.396	47.96
872.569	9.05
872.742	21.33
872.915	33.62
873.088	-23.72
873.261	9.05
873.434	-15.53
873.607	37.72
873.78	21.33
873.953	-11.43
874.126	-33.96
874.299	31.57
874.471	4.95
874.644	39.76
874.817	113.49
874.99	54.1
875.163	-5.29
875.335	47.96
875.508	-27.82
875.681	90.96
875.853	19.29
876.026	0.85
876.199	13.14
876.371	64.34
876.544	11.09
876.717	82.77
876.889	4.95
877.062	29.52
877.234	-48.3
877.407	4.95
877.579	11.09
877.752	45.91
877.924	31.57
878.097	27.48
878.269	70.48
878.442	7
878.614	9.05
878.786	56.15
878.959	9.05
879.131	56.15
879.303	-52.39
879.476	-7.34
879.648	54.1
879.82	29.52
879.993	-44.2
880.165	0.85
880.337	-76.97
880.509	72.53
880.681	-85.16
880.854	-1.19
881.026	78.68
881.198	97.11
881.37	-1.19
881.542	-38.06
881.714	21.33
881.886	-25.77
882.058	15.19
882.23	-33.96
882.402	13.14
882.574	64.34
882.746	19.29
882.918	72.53
883.09	25.43
883.262	-19.63
883.434	-38.06
883.606	33.62
883.778	9.05
883.95	45.91
884.122	-48.3
884.293	58.2
884.465	-9.39
884.637	13.14
884.809	7
884.98	41.81
885.152	43.86
885.324	86.87
885.496	-5.29
885.667	19.29
885.839	-13.48
886.011	56.15
886.182	86.87
886.354	88.92
886.525	31.57
886.697	82.77
886.869	-60.59
887.04	-48.3
887.212	64.34
887.383	74.58
887.555	-40.11
887.726	-52.39
887.897	17.24
888.069	19.29
888.24	-44.2
888.412	13.14
888.583	62.29
888.754	4.95
888.926	-38.06
889.097	62.29
889.268	-95.4
889.44	33.62
889.611	7
889.782	-17.58
889.953	-7.34
890.125	37.72
890.296	-60.59
890.467	-17.58
890.638	-42.15
890.809	-7.34
890.98	-66.73
891.151	78.68
891.323	45.91
891.494	-1.19
891.665	29.52
891.836	41.81
892.007	39.76
892.178	47.96
892.349	4.95
892.52	4.95
892.691	-31.91
892.862	-7.34
893.032	-52.39
893.203	-27.82
893.374	13.14
893.545	31.57
893.716	-15.53
893.887	111.44
894.057	-27.82
894.228	21.33
894.399	9.05
894.57	31.57
894.74	37.72
894.911	-52.39
895.082	127.83
895.253	13.14
895.423	29.52
895.594	43.86
895.764	-13.48
895.935	-1.19
896.106	43.86
896.276	-11.43
896.447	11.09
896.617	0.85
896.788	-17.58
896.958	-50.35
897.129	9.05
897.299	31.57
897.47	45.91
897.64	119.64
897.81	21.33
897.981	25.43
898.151	-83.11
898.322	31.57
898.492	-3.24
898.662	-29.87
898.832	64.34
899.003	95.06
899.173	-9.39
899.343	19.29
899.513	-68.78
