Data from USB4F104151__127__14-31-21-683.txt Node

Date: Thu Mar 13 14:31:21 EDT 2025
User: louis
Spectrometer: USB4F10415
Trigger mode: 4
Integration Time (sec): 2.500000E-2
Scans to average: 1
Electric dark correction enabled: true
Nonlinearity correction enabled: false
Boxcar width: 0
XAxis mode: Wavelengths
Number of Pixels in Spectrum: 3648
>>>>>Begin Spectral Data<<<<<
178.204	-98.99
178.424	-98.99
178.644	-98.99
178.864	-137.9
179.084	-201.38
179.304	-27.31
179.524	-70.31
179.744	-90.79
179.964	40.28
180.184	36.18
180.404	15.7
180.624	3.41
180.844	1.37
181.064	58.71
181.283	46.42
181.503	-49.83
181.723	36.18
181.943	-25.26
182.163	56.66
182.383	15.7
182.602	58.71
182.822	60.76
183.042	105.81
183.262	-33.45
183.482	-17.07
183.701	11.61
183.921	7.51
184.141	48.47
184.361	73.04
184.58	-64.17
184.8	-41.64
185.02	11.61
185.239	77.14
185.459	-23.21
185.679	138.58
185.898	-25.26
186.118	54.61
186.338	15.7
186.557	-21.16
186.777	-29.35
186.997	34.13
187.216	-4.78
187.436	154.96
187.655	75.09
187.875	114
188.095	46.42
188.314	36.18
188.534	68.95
188.753	1.37
188.973	77.14
189.192	48.47
189.412	-53.93
189.631	25.94
189.851	97.62
190.07	23.89
190.29	11.61
190.509	32.08
190.729	-25.26
190.948	7.51
191.168	181.59
191.387	89.43
191.607	15.7
191.826	-0.68
192.045	-23.21
192.265	71
192.484	19.8
192.704	103.76
192.923	7.51
193.142	17.75
193.362	25.94
193.581	105.81
193.8	77.14
194.02	34.13
194.239	-4.78
194.458	-8.87
194.678	36.18
194.897	-15.02
195.116	13.65
195.335	23.89
195.555	25.94
195.774	-29.35
195.993	138.58
196.212	23.89
196.432	83.28
196.651	-45.74
196.87	-8.87
197.089	89.43
197.308	68.95
197.528	-27.31
197.747	-41.64
197.966	124.24
198.185	50.52
198.404	58.71
198.623	32.08
198.842	17.75
199.062	68.95
199.281	-12.97
199.5	50.52
199.719	40.28
199.938	75.09
200.157	64.85
200.376	68.95
200.595	7.51
200.814	19.8
201.033	-25.26
201.252	54.61
201.471	32.08
201.69	23.89
201.909	-29.35
202.128	-25.26
202.347	7.51
202.566	50.52
202.785	40.28
203.004	11.61
203.223	116.05
203.442	-8.87
203.661	48.47
203.879	-23.21
204.098	52.56
204.317	44.37
204.536	68.95
204.755	56.66
204.974	58.71
205.193	-74.41
205.411	107.86
205.63	23.89
205.849	30.04
206.068	1.37
206.287	30.04
206.505	48.47
206.724	-62.12
206.943	34.13
207.162	75.09
207.381	3.41
207.599	89.43
207.818	46.42
208.037	-15.02
208.255	1.37
208.474	11.61
208.693	25.94
208.911	-33.45
209.13	27.99
209.349	19.8
209.567	81.24
209.786	56.66
210.005	44.37
210.223	34.13
210.442	-82.6
210.661	64.85
210.879	-25.26
211.098	19.8
211.316	-6.83
211.535	81.24
211.753	-33.45
211.972	54.61
212.191	36.18
212.409	56.66
212.628	-33.45
212.846	-17.07
213.065	97.62
213.283	91.48
213.502	120.15
213.72	-17.07
213.938	-0.68
214.157	23.89
214.375	15.7
214.594	40.28
214.812	48.47
215.031	-0.68
215.249	9.56
215.467	-31.4
215.686	-17.07
215.904	109.91
216.122	13.65
216.341	91.48
216.559	50.52
216.778	5.46
216.996	85.33
217.214	-41.64
217.432	5.46
217.651	-0.68
217.869	52.56
218.087	11.61
218.306	27.99
218.524	56.66
218.742	-78.51
218.96	30.04
219.179	91.48
219.397	-17.07
219.615	60.76
219.833	64.85
220.051	-60.07
220.27	27.99
220.488	48.47
220.706	114
220.924	32.08
221.142	32.08
221.36	40.28
221.578	77.14
221.796	40.28
222.015	17.75
222.233	42.32
222.451	83.28
222.669	58.71
222.887	105.81
223.105	50.52
223.323	17.75
223.541	48.47
223.759	75.09
223.977	-31.4
224.195	89.43
224.413	50.52
224.631	56.66
224.849	25.94
225.067	83.28
225.285	15.7
225.503	66.9
225.721	-17.07
225.939	9.56
226.157	15.7
226.375	83.28
226.592	-6.83
226.81	32.08
227.028	40.28
227.246	95.57
227.464	34.13
227.682	71
227.9	50.52
228.117	9.56
228.335	50.52
228.553	42.32
228.771	85.33
228.989	-12.97
229.206	-21.16
229.424	-58.03
229.642	23.89
229.86	23.89
230.077	89.43
230.295	73.04
230.513	103.76
230.731	-4.78
230.948	15.7
231.166	89.43
231.384	56.66
231.601	25.94
231.819	23.89
232.037	27.99
232.254	9.56
232.472	-17.07
232.689	-62.12
232.907	48.47
233.125	48.47
233.342	64.85
233.56	-8.87
233.777	17.75
233.995	32.08
234.213	124.24
234.43	32.08
234.648	93.52
234.865	60.76
235.083	38.23
235.3	54.61
235.518	79.19
235.735	34.13
235.953	118.1
236.17	32.08
236.388	42.32
236.605	-4.78
236.822	159.06
237.04	25.94
237.257	1.37
237.475	-8.87
237.692	56.66
237.909	23.89
238.127	-23.21
238.344	23.89
238.562	77.14
238.779	36.18
238.996	-8.87
239.214	-21.16
239.431	81.24
239.648	-25.26
239.865	68.95
240.083	62.8
240.3	36.18
240.517	11.61
240.735	7.51
240.952	25.94
241.169	9.56
241.386	7.51
241.603	60.76
241.821	-25.26
242.038	71
242.255	93.52
242.472	-29.35
242.689	87.38
242.907	71
243.124	-35.5
243.341	7.51
243.558	5.46
243.775	48.47
243.992	11.61
244.209	56.66
244.426	134.48
244.643	34.13
244.86	-72.36
245.078	7.51
245.295	48.47
245.512	56.66
245.729	-23.21
245.946	23.89
246.163	71
246.38	25.94
246.597	25.94
246.814	64.85
247.031	58.71
247.248	48.47
247.464	68.95
247.681	-0.68
247.898	11.61
248.115	25.94
248.332	-15.02
248.549	91.48
248.766	93.52
248.983	32.08
249.2	19.8
249.417	105.81
249.633	91.48
249.85	85.33
250.067	-12.97
250.284	105.81
250.501	19.8
250.717	17.75
250.934	64.85
251.151	27.99
251.368	11.61
251.585	58.71
251.801	95.57
252.018	50.52
252.235	52.56
252.451	15.7
252.668	-8.87
252.885	64.85
253.102	91.48
253.318	-21.16
253.535	101.72
253.752	40.28
253.968	48.47
254.185	48.47
254.401	34.13
254.618	25.94
254.835	-62.12
255.051	134.48
255.268	79.19
255.484	50.52
255.701	19.8
255.917	105.81
256.134	19.8
256.351	32.08
256.567	17.75
256.784	25.94
257	58.71
257.217	40.28
257.433	15.7
257.65	132.44
257.866	103.76
258.082	11.61
258.299	-49.83
258.515	130.39
258.732	-45.74
258.948	3.41
259.165	-6.83
259.381	-6.83
259.597	89.43
259.814	56.66
260.03	34.13
260.246	3.41
260.463	105.81
260.679	52.56
260.895	23.89
261.112	48.47
261.328	52.56
261.544	-15.02
261.761	122.2
261.977	-4.78
262.193	7.51
262.409	7.51
262.626	99.67
262.842	11.61
263.058	-31.4
263.274	7.51
263.49	3.41
263.707	32.08
263.923	32.08
264.139	40.28
264.355	-0.68
264.571	48.47
264.787	17.75
265.004	27.99
265.22	64.85
265.436	-31.4
265.652	27.99
265.868	17.75
266.084	-8.87
266.3	27.99
266.516	-60.07
266.732	-12.97
266.948	7.51
267.164	58.71
267.38	30.04
267.596	15.7
267.812	154.96
268.028	62.8
268.244	21.84
268.46	38.23
268.676	19.8
268.892	-17.07
269.108	25.94
269.324	-29.35
269.54	-33.45
269.756	50.52
269.972	40.28
270.188	50.52
270.403	25.94
270.619	101.72
270.835	-17.07
271.051	-4.78
271.267	99.67
271.483	48.47
271.698	27.99
271.914	83.28
272.13	27.99
272.346	23.89
272.562	-12.97
272.777	13.65
272.993	-15.02
273.209	23.89
273.425	19.8
273.64	-25.26
273.856	58.71
274.072	81.24
274.287	15.7
274.503	48.47
274.719	27.99
274.934	32.08
275.15	-37.55
275.366	36.18
275.581	-21.16
275.797	-17.07
276.012	58.71
276.228	7.51
276.444	114
276.659	50.52
276.875	-37.55
277.09	-8.87
277.306	50.52
277.521	40.28
277.737	15.7
277.952	56.66
278.168	17.75
278.383	40.28
278.599	71
278.814	32.08
279.03	95.57
279.245	40.28
279.461	42.32
279.676	54.61
279.892	17.75
280.107	-15.02
280.322	-23.21
280.538	11.61
280.753	64.85
280.969	75.09
281.184	36.18
281.399	56.66
281.615	-8.87
281.83	17.75
282.045	-62.12
282.26	15.7
282.476	-35.5
282.691	62.8
282.906	40.28
283.122	9.56
283.337	1.37
283.552	50.52
283.767	56.66
283.983	105.81
284.198	105.81
284.413	32.08
284.628	-19.11
284.843	30.04
285.058	44.37
285.274	97.62
285.489	25.94
285.704	25.94
285.919	56.66
286.134	50.52
286.349	32.08
286.564	73.04
286.779	-15.02
286.995	32.08
287.21	-12.97
287.425	85.33
287.64	25.94
287.855	-6.83
288.07	15.7
288.285	17.75
288.5	58.71
288.715	42.32
288.93	13.65
289.145	-15.02
289.36	97.62
289.575	27.99
289.79	101.72
290.004	-0.68
290.219	64.85
290.434	15.7
290.649	-82.6
290.864	-82.6
291.079	83.28
291.294	52.56
291.509	11.61
291.724	83.28
291.938	-8.87
292.153	68.95
292.368	23.89
292.583	40.28
292.798	44.37
293.012	50.52
293.227	32.08
293.442	25.94
293.657	48.47
293.871	97.62
294.086	23.89
294.301	40.28
294.516	56.66
294.73	27.99
294.945	32.08
295.16	-25.26
295.374	64.85
295.589	40.28
295.804	17.75
296.018	130.39
296.233	66.9
296.447	-15.02
296.662	34.13
296.877	56.66
297.091	34.13
297.306	23.89
297.52	46.42
297.735	15.7
297.949	77.14
298.164	97.62
298.378	64.85
298.593	-12.97
298.807	1.37
299.022	46.42
299.236	38.23
299.451	42.32
299.665	85.33
299.88	-12.97
300.094	89.43
300.309	17.75
300.523	48.47
300.737	19.8
300.952	50.52
301.166	95.57
301.381	23.89
301.595	9.56
301.809	58.71
302.024	-2.73
302.238	89.43
302.452	23.89
302.667	44.37
302.881	-4.78
303.095	64.85
303.309	17.75
303.524	40.28
303.738	97.62
303.952	32.08
304.166	68.95
304.381	-47.79
304.595	87.38
304.809	73.04
305.023	48.47
305.237	11.61
305.452	32.08
305.666	56.66
305.88	32.08
306.094	79.19
306.308	91.48
306.522	81.24
306.736	77.14
306.95	101.72
307.164	32.08
307.379	32.08
307.593	66.9
307.807	73.04
308.021	91.48
308.235	38.23
308.449	-64.17
308.663	64.85
308.877	103.76
309.091	60.76
309.305	97.62
309.519	25.94
309.733	68.95
309.947	68.95
310.161	38.23
310.374	36.18
310.588	-33.45
310.802	-25.26
311.016	50.52
311.23	64.85
311.444	40.28
311.658	64.85
311.872	81.24
312.085	15.7
312.299	89.43
312.513	58.71
312.727	42.32
312.941	-51.88
313.154	44.37
313.368	-0.68
313.582	23.89
313.796	48.47
314.009	27.99
314.223	89.43
314.437	40.28
314.651	11.61
314.864	23.89
315.078	-17.07
315.292	-12.97
315.505	-66.22
315.719	-4.78
315.933	68.95
316.146	-4.78
316.36	19.8
316.573	68.95
316.787	81.24
317.001	-17.07
317.214	-37.55
317.428	-8.87
317.641	-15.02
317.855	-25.26
318.068	89.43
318.282	7.51
318.495	134.48
318.709	83.28
318.922	-0.68
319.136	89.43
319.349	13.65
319.563	17.75
319.776	66.9
319.99	48.47
320.203	32.08
320.417	48.47
320.63	126.29
320.843	93.52
321.057	56.66
321.27	23.89
321.483	81.24
321.697	62.8
321.91	1.37
322.124	44.37
322.337	11.61
322.55	23.89
322.763	15.7
322.977	34.13
323.19	-25.26
323.403	105.81
323.617	17.75
323.83	89.43
324.043	-17.07
324.256	25.94
324.469	56.66
324.683	132.44
324.896	23.89
325.109	-8.87
325.322	58.71
325.535	36.18
325.748	40.28
325.962	30.04
326.175	71
326.388	73.04
326.601	83.28
326.814	11.61
327.027	56.66
327.24	91.48
327.453	-29.35
327.666	77.14
327.879	93.52
328.092	40.28
328.305	81.24
328.518	9.56
328.731	73.04
328.944	3.41
329.157	114
329.37	56.66
329.583	118.1
329.796	56.66
330.009	83.28
330.222	50.52
330.435	101.72
330.648	36.18
330.861	15.7
331.073	19.8
331.286	23.89
331.499	75.09
331.712	3.41
331.925	-8.87
332.138	124.24
332.35	146.77
332.563	32.08
332.776	48.47
332.989	-33.45
333.202	-6.83
333.414	64.85
333.627	15.7
333.84	32.08
334.053	66.9
334.265	73.04
334.478	40.28
334.691	64.85
334.903	44.37
335.116	38.23
335.329	36.18
335.541	68.95
335.754	48.47
335.966	11.61
336.179	17.75
336.392	-0.68
336.604	-55.98
336.817	75.09
337.029	64.85
337.242	58.71
337.454	81.24
337.667	50.52
337.88	50.52
338.092	44.37
338.305	27.99
338.517	-23.21
338.729	118.1
338.942	103.76
339.154	40.28
339.367	81.24
339.579	-17.07
339.792	15.7
340.004	-2.73
340.217	-4.78
340.429	27.99
340.641	32.08
340.854	60.76
341.066	48.47
341.278	118.1
341.491	81.24
341.703	21.84
341.915	-15.02
342.128	101.72
342.34	-0.68
342.552	-0.68
342.764	138.58
342.977	48.47
343.189	83.28
343.401	85.33
343.613	83.28
343.826	56.66
344.038	38.23
344.25	87.38
344.462	15.7
344.674	50.52
344.886	68.95
345.099	25.94
345.311	44.37
345.523	93.52
345.735	-82.6
345.947	58.71
346.159	58.71
346.371	13.65
346.583	93.52
346.795	120.15
347.007	-6.83
347.219	58.71
347.431	17.75
347.643	103.76
347.855	38.23
348.067	34.13
348.279	54.61
348.491	9.56
348.703	89.43
348.915	66.9
349.127	52.56
349.339	77.14
349.551	89.43
349.763	132.44
349.975	-6.83
350.187	97.62
350.399	23.89
350.61	40.28
350.822	50.52
351.034	56.66
351.246	66.9
351.458	42.32
351.669	54.61
351.881	62.8
352.093	77.14
352.305	48.47
352.517	-6.83
352.728	42.32
352.94	56.66
353.152	56.66
353.363	40.28
353.575	124.24
353.787	91.48
353.999	77.14
354.21	163.15
354.422	71
354.633	27.99
354.845	40.28
355.057	46.42
355.268	-31.4
355.48	54.61
355.692	-17.07
355.903	7.51
356.115	11.61
356.326	15.7
356.538	105.81
356.749	116.05
356.961	64.85
357.172	48.47
357.384	64.85
357.595	146.77
357.807	19.8
358.018	66.9
358.23	50.52
358.441	124.24
358.653	89.43
358.864	64.85
359.075	64.85
359.287	75.09
359.498	109.91
359.709	23.89
359.921	73.04
360.132	38.23
360.344	105.81
360.555	32.08
360.766	220.5
360.977	1.37
361.189	77.14
361.4	9.56
361.611	97.62
361.823	81.24
362.034	36.18
362.245	21.84
362.456	60.76
362.667	91.48
362.879	-8.87
363.09	40.28
363.301	97.62
363.512	48.47
363.723	-0.68
363.935	32.08
364.146	73.04
364.357	40.28
364.568	36.18
364.779	48.47
364.99	114
365.201	32.08
365.412	87.38
365.623	46.42
365.834	44.37
366.045	25.94
366.256	99.67
366.467	97.62
366.678	75.09
366.889	71
367.1	1.37
367.311	64.85
367.522	105.81
367.733	62.8
367.944	118.1
368.155	3.41
368.366	11.61
368.577	97.62
368.788	83.28
368.999	56.66
369.209	56.66
369.42	124.24
369.631	140.63
369.842	93.52
370.053	-37.55
370.264	-39.59
370.474	17.75
370.685	40.28
370.896	-8.87
371.107	44.37
371.317	140.63
371.528	42.32
371.739	99.67
371.95	52.56
372.16	-0.68
372.371	-12.97
372.582	27.99
372.792	79.19
373.003	25.94
373.214	15.7
373.424	64.85
373.635	25.94
373.846	73.04
374.056	23.89
374.267	91.48
374.477	17.75
374.688	34.13
374.898	50.52
375.109	-4.78
375.319	77.14
375.53	46.42
375.74	7.51
375.951	32.08
376.161	130.39
376.372	81.24
376.582	83.28
376.793	58.71
377.003	89.43
377.214	27.99
377.424	79.19
377.635	56.66
377.845	38.23
378.055	148.82
378.266	11.61
378.476	17.75
378.686	44.37
378.897	99.67
379.107	11.61
379.317	89.43
379.528	64.85
379.738	85.33
379.948	66.9
380.158	95.57
380.369	21.84
380.579	56.66
380.789	97.62
380.999	124.24
381.21	95.57
381.42	105.81
381.63	13.65
381.84	62.8
382.05	83.28
382.261	34.13
382.471	109.91
382.681	44.37
382.891	85.33
383.101	71
383.311	58.71
383.521	91.48
383.731	62.8
383.941	75.09
384.151	58.71
384.361	50.52
384.571	46.42
384.781	9.56
384.991	154.96
385.201	77.14
385.411	7.51
385.621	17.75
385.831	81.24
386.041	48.47
386.251	36.18
386.461	77.14
386.671	50.52
386.881	73.04
387.091	101.72
387.301	79.19
387.511	97.62
387.72	122.2
387.93	103.76
388.14	23.89
388.35	66.9
388.56	44.37
388.769	114
388.979	103.76
389.189	81.24
389.399	11.61
389.609	87.38
389.818	93.52
390.028	122.2
390.238	73.04
390.447	38.23
390.657	60.76
390.867	66.9
391.076	-23.21
391.286	146.77
391.496	68.95
391.705	32.08
391.915	130.39
392.125	193.87
392.334	79.19
392.544	132.44
392.753	107.86
392.963	17.75
393.172	81.24
393.382	109.91
393.591	111.96
393.801	75.09
394.01	126.29
394.22	116.05
394.429	15.7
394.639	85.33
394.848	48.47
395.058	154.96
395.267	152.91
395.477	138.58
395.686	132.44
395.895	58.71
396.105	132.44
396.314	126.29
396.524	81.24
396.733	34.13
396.942	118.1
397.152	91.48
397.361	89.43
397.57	183.63
397.78	146.77
397.989	116.05
398.198	118.1
398.407	114
398.617	99.67
398.826	146.77
399.035	97.62
399.244	130.39
399.453	107.86
399.663	171.35
399.872	132.44
400.081	193.87
400.29	134.48
400.499	138.58
400.708	154.96
400.917	179.54
401.127	79.19
401.336	75.09
401.545	173.39
401.754	114
401.963	109.91
402.172	124.24
402.381	179.54
402.59	138.58
402.799	122.2
403.008	64.85
403.217	171.35
403.426	212.31
403.635	175.44
403.844	173.39
404.053	220.5
404.262	138.58
404.471	236.88
404.68	197.97
404.888	183.63
405.097	150.87
405.306	224.59
405.515	173.39
405.724	197.97
405.933	163.15
406.142	290.13
406.35	195.92
406.559	218.45
406.768	173.39
406.977	296.27
407.185	224.59
407.394	214.35
407.603	208.21
407.812	257.36
408.02	279.89
408.229	236.88
408.438	345.42
408.646	253.27
408.855	259.41
409.064	292.18
409.272	304.46
409.481	357.71
409.69	310.61
409.898	286.03
410.107	363.86
410.315	413.01
410.524	384.34
410.733	517.45
410.941	425.29
411.15	451.92
411.358	531.79
411.567	445.77
411.775	482.64
411.984	460.11
412.192	580.94
412.401	531.79
412.609	658.76
412.818	601.42
413.026	609.61
413.234	675.15
413.443	718.15
413.651	664.91
413.86	701.77
414.068	777.55
414.276	820.55
414.485	757.07
414.693	802.12
414.901	920.9
415.11	853.32
415.318	879.94
415.526	879.94
415.734	978.25
415.943	931.14
416.151	1199.43
416.359	1062.21
416.567	1129.8
416.776	1148.23
416.984	1224
417.192	1281.35
417.4	1174.85
417.608	1219.91
417.817	1371.46
418.025	1426.75
418.233	1645.88
418.441	1475.9
418.649	1549.63
418.857	1695.04
419.065	1680.7
419.273	1688.89
419.481	1670.46
419.689	1916.22
419.897	1842.49
420.105	1828.15
420.313	1916.22
420.521	2073.91
420.729	2202.93
420.937	2080.05
421.145	2139.44
421.353	2327.86
421.561	2569.52
421.769	2612.53
421.977	2671.92
422.185	2542.89
422.393	2751.79
422.601	2895.15
422.809	2825.51
423.017	2895.15
423.224	2989.35
423.432	3181.86
423.64	3136.81
423.848	3538.21
424.056	3394.85
424.263	3603.74
424.471	3783.96
424.679	3736.86
424.887	3949.85
425.094	3906.84
425.302	4121.88
425.51	4171.03
425.718	4422.93
425.925	4373.78
426.133	4556.05
426.341	4734.22
426.548	5094.66
426.756	4893.96
426.964	5102.86
427.171	5274.88
427.379	5588.22
427.586	5614.85
427.794	5612.8
428.001	5940.47
428.209	6290.68
428.417	6206.71
428.624	6614.26
428.832	6585.58
429.039	6544.63
429.247	6454.51
429.454	7304.42
429.662	7650.53
429.869	7265.51
430.076	7664.86
430.284	7486.69
430.491	7834.85
430.699	8205.53
430.906	8301.78
431.114	8283.35
431.321	8643.79
431.528	8856.78
431.736	9362.63
431.943	9813.18
432.15	9577.67
432.358	9651.39
432.565	10204.35
432.772	9942.21
432.979	10554.55
433.187	10906.8
433.394	10650.8
433.601	11685.03
433.808	11556
434.016	11379.88
434.223	11959.45
434.43	12717.2
434.637	12403.86
434.844	13286.54
435.052	13221
435.259	13446.28
435.466	13544.58
435.673	13386.89
435.88	14314.62
436.087	15223.92
436.294	15047.79
436.501	14589.05
436.708	15037.55
436.915	15309.93
437.122	15946.85
437.329	16217.18
437.537	16608.34
437.743	17339.47
437.95	16794.71
438.157	17955.91
438.364	18275.39
438.571	18150.46
438.778	18316.35
438.985	19878.95
439.192	19119.15
439.399	19749.93
439.606	19231.79
439.813	20325.41
440.02	21885.96
440.227	21158.93
440.433	20917.27
440.64	21828.62
440.847	21586.96
441.054	21869.58
441.261	23473.14
441.467	23329.78
441.674	23837.67
441.881	24749.02
442.088	24533.98
442.294	24284.13
442.501	24751.07
442.708	25359.31
442.914	26321.86
443.121	27450.29
443.328	26500.03
443.534	28345.25
443.741	27648.94
443.948	27042.74
444.154	29447.06
444.361	29072.28
444.568	29674.38
444.774	29148.06
444.981	29922.19
445.187	30374.79
445.394	31392.63
445.6	31329.14
445.807	34165.58
446.013	32967.52
446.22	33362.78
446.426	34886.46
446.633	34833.22
446.839	36129.58
447.046	34992.96
447.252	36457.26
447.459	36819.75
447.665	36834.08
447.871	38427.4
448.078	39598.84
448.284	37903.12
448.491	39074.56
448.697	40368.88
448.903	41095.91
449.11	40768.23
449.316	40512.24
449.522	41347.81
449.728	42484.43
449.935	42988.23
450.141	42466
450.347	43528.89
450.553	42101.46
450.76	42652.36
450.966	43926.2
451.172	43485.89
451.378	45124.26
451.584	43856.57
451.791	44790.44
451.997	44849.83
452.203	45568.67
452.409	45427.36
452.615	45253.28
452.821	43442.88
453.027	43201.22
453.233	45232.8
453.44	43616.96
453.646	44352.18
453.852	44389.04
454.058	44858.02
454.264	43819.7
454.47	44681.9
454.676	43659.96
454.882	45296.29
455.088	41132.77
455.294	41855.7
455.5	42697.42
455.705	42791.62
455.911	41149.15
456.117	40506.09
456.323	39983.86
456.529	37868.31
456.735	39422.72
456.941	38300.43
457.147	38222.61
457.352	37006.11
457.558	36305.71
457.764	36473.64
457.97	35975.98
458.176	35334.97
458.381	35066.69
458.587	33430.36
458.793	33225.56
458.999	31695.73
459.204	33434.46
459.41	32650.08
459.616	30778.24
459.821	30833.53
460.027	30772.1
460.233	29944.72
460.438	28820.38
460.644	28924.83
460.85	27573.17
461.055	27198.39
461.261	27155.38
461.466	24886.23
461.672	24017.89
461.878	26029
462.083	24241.12
462.289	23741.42
462.494	23630.83
462.7	22535.17
462.905	22109.19
463.111	22342.66
463.316	22877.18
463.522	22264.83
463.727	22068.23
463.932	21801.99
464.138	21160.98
464.343	21816.33
464.549	21292.05
464.754	22017.03
464.959	21668.87
465.165	21249.04
465.37	20671.51
465.575	20096.03
465.781	20841.5
465.986	20880.41
466.191	20321.31
466.397	19899.43
466.602	18619.45
466.807	19676.2
467.012	19577.9
467.218	19420.21
467.423	19215.41
467.628	19272.75
467.833	20034.6
468.038	19348.53
468.244	18791.48
468.449	19432.49
468.654	18836.53
468.859	18584.63
469.064	18762.81
469.269	17939.52
469.474	18054.21
469.679	18240.58
469.885	18076.74
470.09	17790.02
470.295	18005.06
470.5	17278.03
470.705	17374.28
470.91	16921.68
471.115	17083.47
471.32	17134.67
471.525	17163.34
471.73	16790.61
471.935	16786.52
472.139	16008.29
472.344	16127.07
472.549	16006.24
472.754	16034.91
472.959	15633.51
473.164	15277.16
473.369	15441
473.574	15580.26
473.778	15617.13
473.983	15395.95
474.188	15305.84
474.393	14689.4
474.598	14853.23
474.802	14593.14
475.007	14630.01
475.212	14509.18
475.417	13960.32
475.621	14050.43
475.826	13821.06
476.031	13796.48
476.235	13376.65
476.44	13720.71
476.645	13587.59
476.849	13458.57
477.054	13237.39
477.259	12954.77
477.463	13059.21
477.668	12678.29
477.872	13044.88
478.077	12629.14
478.282	12352.66
478.486	12455.06
478.691	12043.42
478.895	12242.07
479.1	12352.66
479.304	12070.05
479.509	11627.68
479.713	12102.81
479.918	11416.74
480.122	11537.57
480.326	11799.71
480.531	11596.96
480.735	11570.34
480.94	11502.76
481.144	11881.63
481.348	11134.12
481.553	11404.46
481.757	11175.08
481.961	11257
482.166	11418.79
482.37	11238.57
482.574	10921.13
482.778	11363.5
482.983	11201.71
483.187	11195.56
483.391	11250.86
483.595	11209.9
483.8	10904.75
484.004	11146.41
484.208	11195.56
484.412	11277.48
484.616	10970.29
484.821	11189.42
485.025	10843.31
485.229	11320.49
485.433	11164.84
485.637	11082.92
485.841	11207.85
486.045	10970.29
486.249	11099.31
486.453	10792.11
486.657	11117.74
486.861	11003.05
487.065	10816.69
487.269	11091.12
487.473	10855.6
487.677	11250.86
487.881	11248.81
488.085	10968.24
488.289	10994.86
488.493	10824.88
488.697	11345.06
488.901	10984.62
489.105	11175.08
489.309	11132.08
489.512	11101.36
489.716	11250.86
489.92	11097.26
490.124	11037.87
490.328	11447.46
490.531	10974.38
490.735	11185.32
490.939	11207.85
491.143	11181.23
491.346	11009.2
491.55	11355.3
491.754	11486.37
491.958	11461.8
492.161	11322.54
492.365	11392.17
492.569	11392.17
492.772	11558.05
492.976	11599.01
493.18	11652.26
493.383	11938.98
493.587	11652.26
493.79	11920.54
493.994	11881.63
494.197	11736.23
494.401	11992.22
494.605	12002.46
494.808	12090.52
495.012	12387.48
495.215	12469.4
495.419	12489.88
495.622	12100.76
495.825	12567.7
496.029	12483.73
496.232	12709.01
496.436	12805.27
496.639	13091.98
496.843	12655.76
497.046	13032.59
497.249	13218.96
497.453	13347.98
497.656	13427.85
497.859	13468.81
498.063	13622.41
498.266	13884.55
498.469	13810.82
498.673	13974.66
498.876	14140.54
499.079	14281.85
499.282	14132.35
499.485	14359.67
499.689	14550.14
499.892	14789.75
500.095	14630.01
500.298	15002.74
500.501	14945.39
500.705	15428.71
500.908	15533.16
501.111	15760.48
501.314	15791.2
501.517	15969.38
501.72	16243.81
501.923	16172.13
502.126	16491.61
502.329	16579.67
502.532	16661.59
502.735	16778.33
502.938	17040.47
503.141	17392.72
503.344	17464.39
503.547	17593.42
503.75	17658.95
503.953	18039.87
504.156	18289.73
504.359	18332.73
504.562	18379.84
504.765	18947.12
504.968	19186.74
505.17	19293.23
505.373	19082.29
505.576	19735.59
505.779	19756.07
505.982	19672.11
506.185	20161.57
506.387	20429.85
506.59	20392.99
506.793	20808.73
506.996	21097.49
507.198	21150.74
507.401	21414.93
507.604	21335.06
507.807	21900.3
508.009	21791.75
508.212	22236.16
508.415	22555.65
508.617	22836.22
508.82	22608.89
509.022	22991.86
509.225	23260.15
509.428	23557.1
509.63	23507.95
509.833	23505.9
510.035	24101.86
510.238	24108.01
510.44	24628.19
510.643	24765.4
510.845	25218
511.048	24886.23
511.25	25164.76
511.453	25261.01
511.655	26090.44
511.858	25951.18
512.06	26303.43
512.262	26627.01
512.465	26346.44
512.667	26622.91
512.87	27239.35
513.072	27290.55
513.274	27657.14
513.477	28212.13
513.679	28154.79
513.881	28500.9
514.084	28773.28
514.286	29035.42
514.488	28797.85
514.69	29965.2
514.893	29711.25
515.095	29793.17
515.297	30258.06
515.499	30165.9
515.701	30634.88
515.904	30722.94
516.106	31427.45
516.308	31421.3
516.51	31925.1
516.712	31959.92
516.914	32129.9
517.116	32496.49
517.318	32701.28
517.52	32666.47
517.722	33137.5
517.925	33323.86
518.127	33704.79
518.329	33831.76
518.531	33526.61
518.733	34306.89
518.935	34640.71
519.136	34575.17
519.338	35167.04
519.54	35040.06
519.742	35445.56
519.944	35746.61
520.146	35826.48
520.348	36311.85
520.55	36283.18
520.752	36336.43
520.954	37368.6
521.155	36238.12
521.357	36979.49
521.559	37329.69
521.761	37491.48
521.963	37640.98
522.164	37657.37
522.366	37821.2
522.568	38198.03
522.77	38521.61
522.971	38902.53
523.173	38497.03
523.375	38992.64
523.576	38886.15
523.778	38908.68
523.98	39631.61
524.181	39703.29
524.383	39482.11
524.584	39834.36
524.786	40159.98
524.988	39346.94
525.189	40143.6
525.391	40448.75
525.592	40233.71
525.794	40768.23
525.995	40356.59
526.197	40841.96
526.398	40848.1
526.6	40850.15
526.801	41302.75
527.003	40983.27
527.204	41110.24
527.406	41265.89
527.607	41239.26
527.808	41186.02
528.01	40661.74
528.211	41337.57
528.412	42119.89
528.614	41904.85
528.815	41691.87
529.016	41726.68
529.218	41386.72
529.419	41775.83
529.62	41601.75
529.822	41577.18
530.023	42150.61
530.224	41695.96
530.425	41591.51
530.626	41470.68
530.828	41683.67
531.029	42152.66
531.23	41593.56
531.431	41476.83
531.632	41702.1
531.833	41773.78
532.035	41745.11
532.236	41841.37
532.437	42029.78
532.638	41278.18
532.839	41878.23
533.04	41853.65
533.241	41444.06
533.442	42240.72
533.643	41593.56
533.844	41179.87
534.045	41966.29
534.246	41034.47
534.447	41611.99
534.648	41190.11
534.849	41343.71
535.05	41274.08
535.251	41464.54
535.451	41186.02
535.652	41784.02
535.853	41245.41
536.054	41169.63
536.255	41495.26
536.456	40950.5
536.657	41911
536.857	40915.68
537.058	41280.22
537.259	41241.31
537.46	41341.66
537.66	41151.2
537.861	41235.17
538.062	40778.47
538.263	40948.45
538.463	40727.27
538.664	40684.26
538.865	40710.89
539.065	41456.35
539.266	40450.8
539.466	41214.69
539.667	40497.9
539.868	41212.64
540.068	41085.67
540.269	40745.7
540.469	40940.26
540.67	40372.97
540.87	40454.89
541.071	40547.05
541.271	40649.45
541.472	40569.58
541.672	40207.09
541.873	40469.23
542.073	39848.69
542.274	40518.38
542.474	40350.45
542.675	40202.99
542.875	40567.53
543.075	40850.15
543.276	39959.28
543.476	40739.56
543.676	40004.34
543.877	40252.14
544.077	40557.29
544.277	39813.88
544.478	40665.83
544.678	40413.93
544.878	40002.29
545.078	40340.21
545.279	40094.45
545.479	40334.06
545.679	40555.24
545.879	40317.68
546.079	40280.81
546.28	40352.49
546.48	40381.17
546.68	40114.93
546.88	40344.3
547.08	40172.27
547.28	39949.04
547.48	39942.9
547.68	40446.7
547.88	40055.54
548.081	40405.74
548.281	40475.37
548.481	40123.12
548.681	40428.27
548.881	40069.87
549.081	40237.81
549.28	40405.74
549.48	40321.77
549.68	40432.36
549.88	40194.8
550.08	40291.05
550.28	40657.64
550.48	40067.83
550.68	40397.55
550.88	40207.09
551.08	40071.92
551.279	40387.31
551.479	40233.71
551.679	40368.88
551.879	40389.36
552.079	40491.76
552.278	40123.12
552.478	40176.37
552.678	40407.79
552.878	40413.93
553.077	40379.12
553.277	40327.92
553.477	40774.38
553.676	40712.94
553.876	40372.97
554.076	40119.03
554.275	40246
554.475	39768.82
554.674	40350.45
554.874	40575.72
555.074	40354.54
555.273	40600.3
555.473	40749.8
555.672	40567.53
555.872	40510.19
556.071	40491.76
556.271	41016.04
556.47	40524.52
556.67	40682.22
556.869	40594.15
557.068	40622.83
557.268	40891.11
557.467	40598.25
557.667	40798.95
557.866	40702.7
558.065	40731.37
558.265	40159.98
558.464	40483.56
558.663	40671.98
558.863	40790.76
559.062	40782.57
559.261	40372.97
559.461	40880.87
559.66	40514.28
559.859	40297.2
560.058	40477.42
560.258	40706.79
560.457	40405.74
560.656	40813.29
560.855	40428.27
561.054	40889.06
561.253	40334.06
561.453	40663.78
561.652	40495.85
561.851	40700.65
562.05	40440.56
562.249	40190.7
562.448	40856.29
562.647	40497.9
562.846	40534.76
563.045	40508.14
563.244	40112.88
563.443	40772.33
563.642	39836.41
563.841	40323.82
564.04	40162.03
564.239	40438.51
564.438	40078.07
564.637	40327.92
564.836	40522.47
565.035	40022.77
565.234	39912.18
565.432	39531.26
565.631	39647.99
565.83	40391.4
566.029	39824.12
566.228	39723.77
566.427	40069.87
566.625	39467.77
566.824	39516.92
567.023	39451.39
567.222	39105.28
567.42	39844.6
567.619	39334.65
567.818	39635.7
568.016	39396.09
568.215	39502.59
568.414	39183.1
568.612	39471.87
568.811	39082.75
569.01	39146.24
569.208	38937.35
569.407	38978.31
569.605	38837
569.804	38742.79
570.002	38630.15
570.201	38785.8
570.4	38155.02
570.598	38216.46
570.797	38503.18
570.995	38472.46
571.193	37800.72
571.392	38273.81
571.59	38064.91
571.789	38222.61
571.987	38140.69
572.186	37944.08
572.384	37737.24
572.582	37858.07
572.781	37876.5
572.979	37421.85
573.177	37374.75
573.376	37509.91
573.574	37446.43
573.772	37487.39
573.971	37018.4
574.169	36885.28
574.367	36952.87
574.565	37370.65
574.763	36977.44
574.962	36793.12
575.16	36541.22
575.358	36875.04
575.556	36182.83
575.754	37194.53
575.952	36148.01
576.151	36649.77
576.349	36297.52
576.547	35719.99
576.745	36035.38
576.943	36279.08
577.141	35904.31
577.339	35701.56
577.537	35763
577.735	35689.27
577.933	35513.14
578.131	35461.94
578.329	35584.82
578.527	35367.74
578.725	35285.82
578.923	35318.59
579.121	35291.96
579.319	34810.69
579.516	34970.43
579.714	35173.18
579.912	34825.03
580.11	34784.07
580.308	34698.05
580.506	34425.67
580.704	33887.06
580.901	34169.68
581.099	34505.54
581.297	34104.14
581.495	33741.65
581.692	34169.68
581.89	33837.9
582.088	34071.37
582.285	33966.93
582.483	33928.02
582.681	33739.6
582.878	33674.07
583.076	33090.4
583.274	33493.85
583.471	33319.77
583.669	33434.46
583.866	33149.79
584.064	33172.32
584.262	32707.43
584.459	33264.47
584.657	33002.33
584.854	33268.57
585.052	32379.75
585.249	32625.51
585.447	32775.01
585.644	32195.43
585.841	32619.36
586.039	32525.16
586.236	32340.84
586.434	32557.92
586.631	31878
586.828	32289.64
587.026	32039.79
587.223	31959.92
587.42	32090.99
587.618	32111.47
587.815	31882.09
588.012	32224.11
588.21	31730.55
588.407	32066.41
588.604	31476.6
588.801	31361.91
588.999	31269.75
589.196	31386.49
589.393	31320.95
589.59	31126.39
589.787	30538.63
589.984	30911.36
590.182	30860.16
590.379	31198.07
590.576	30946.17
590.773	31042.43
590.97	30667.65
591.167	30909.31
591.364	30569.35
591.561	30610.31
591.758	30237.58
591.955	30763.9
592.152	30489.48
592.349	30368.65
592.546	30440.32
592.743	30321.54
592.94	30100.36
593.137	30022.54
593.334	30221.19
593.531	29791.12
593.727	30135.18
593.924	29815.69
594.121	29619.09
594.318	29967.24
594.515	29731.73
594.712	30200.71
594.908	29299.61
595.105	29858.7
595.302	29381.53
595.499	29647.76
595.696	29633.43
595.892	29109.15
596.089	29477.78
596.286	29649.81
596.482	29412.24
596.679	29547.41
596.876	29559.7
597.072	29291.41
597.269	29416.34
597.466	28908.44
597.662	29350.81
597.859	29117.34
598.055	29019.03
598.252	29066.14
598.448	29189.02
598.645	28781.47
598.841	28584.87
599.038	28801.95
599.234	29035.42
599.431	28871.58
599.627	28816.29
599.824	29019.03
600.02	28799.9
600.217	28744.61
600.413	28582.82
600.609	28537.76
600.806	28654.5
601.002	28832.67
601.198	28425.12
601.395	28560.29
601.591	28468.13
601.787	28818.33
601.984	28357.54
602.18	28951.45
602.376	28595.1
602.572	28410.79
602.769	28642.21
602.965	28193.7
603.161	28408.74
603.357	28390.31
603.553	28371.88
603.75	28482.47
603.946	28251.05
604.142	28390.31
604.338	28154.79
604.534	28269.48
604.73	28126.12
604.926	28242.85
605.122	28484.51
605.318	28146.6
605.514	28027.82
605.71	27976.62
605.906	28394.4
606.102	28359.59
606.298	28216.23
606.494	28371.88
606.69	28652.45
606.886	28593.06
607.082	27962.28
607.278	28310.44
607.474	28054.44
607.67	28621.73
607.866	27884.46
608.062	28449.7
608.257	28330.92
608.453	28359.59
608.649	28412.84
608.845	28040.11
609.041	28089.26
609.236	28500.9
609.432	28398.5
609.628	28179.37
609.824	28179.37
610.019	28005.29
610.215	28283.81
610.411	28328.87
610.606	28138.41
610.802	28339.11
610.998	28390.31
611.193	28539.81
611.389	28408.74
611.584	28435.36
611.78	28130.22
611.976	28171.18
612.171	28457.89
612.367	28328.87
612.562	28179.37
612.758	28281.77
612.953	28201.9
613.149	28599.2
613.344	28036.01
613.539	28552.1
613.735	28314.53
613.93	28380.07
614.126	28367.78
614.321	28367.78
614.517	28613.54
614.712	28527.52
614.907	28349.35
615.103	28564.39
615.298	27954.09
615.493	28781.47
615.688	27986.86
615.884	28650.4
616.079	27761.58
616.274	28236.71
616.47	28169.13
616.665	28259.24
616.86	28003.24
617.055	27763.63
617.25	27636.66
617.445	28210.09
617.641	27616.18
617.836	27876.27
618.031	27487.15
618.226	27978.67
618.421	27700.14
618.616	28232.61
618.811	27380.66
619.006	27601.84
619.201	27247.54
619.396	27644.85
619.591	27493.3
619.786	27395
619.981	26889.15
620.176	27431.86
620.371	26917.82
620.566	27145.14
620.761	26926.01
620.956	27151.29
621.151	26768.32
621.346	27075.51
621.541	26657.73
621.735	26725.31
621.93	26223.56
622.125	26170.31
622.32	25805.77
622.515	26020.81
622.709	25942.99
622.904	25809.87
623.099	25871.31
623.294	25981.9
623.488	25564.11
623.683	25734.09
623.878	25484.24
624.072	25320.4
624.267	25187.28
624.462	25123.8
624.656	25009.11
624.851	24937.43
625.046	24861.66
625.24	24443.87
625.435	24392.67
625.629	24361.95
625.824	24384.48
626.018	24173.54
626.213	23641.07
626.407	24003.56
626.602	23692.27
626.796	23831.53
626.991	23569.39
627.185	23663.6
627.38	23669.74
627.574	23116.79
627.768	23112.69
627.963	23176.18
628.157	23006.2
628.352	23022.58
628.546	22555.65
628.74	22871.03
628.935	22639.61
629.129	22518.78
629.323	22311.94
629.517	22096.9
629.712	21949.45
629.906	22354.94
630.1	21681.16
630.294	22002.69
630.489	21816.33
630.683	21744.65
630.877	21425.17
631.071	21703.69
631.265	21453.84
631.459	21099.54
631.653	20892.69
631.848	20907.03
632.042	21109.78
632.236	21335.06
632.43	20749.34
632.624	20775.96
632.818	20610.07
633.012	20339.74
633.206	20300.83
633.4	20524.06
633.594	20376.61
633.788	19956.77
633.982	20302.88
634.176	20036.64
634.369	19799.08
634.563	19586.09
634.757	19545.13
634.951	19301.42
635.145	19581.99
635.339	19213.36
635.533	19186.74
635.726	19178.54
635.92	18881.59
636.114	18830.39
636.308	18492.48
636.501	18746.42
636.695	18787.38
636.889	18457.66
637.083	18244.67
637.276	18289.73
637.47	18390.08
637.664	18222.14
637.857	18191.42
638.051	18107.46
638.244	17955.91
638.438	17894.47
638.632	17564.75
638.825	17523.79
639.019	17505.35
639.212	17194.06
639.406	17241.17
639.599	17255.5
639.793	17394.76
639.986	16907.35
640.18	16911.44
640.373	16833.62
640.567	16651.35
640.76	16489.56
640.954	16338.01
641.147	16493.66
641.34	16286.81
641.534	16383.07
641.727	16186.46
641.92	16137.31
642.114	15764.58
642.307	16168.03
642.5	15832.16
642.694	15498.34
642.887	15617.13
643.08	15832.16
643.273	15608.94
643.467	15561.83
643.66	15185.01
643.853	15473.77
644.046	15268.97
644.239	15248.49
644.432	15195.25
644.626	14828.66
644.819	14681.21
645.012	14867.57
645.205	14574.71
645.398	14797.94
645.591	14464.12
645.784	14589.05
645.977	14548.09
646.17	14128.25
646.363	14195.84
646.556	14068.86
646.749	14288
646.942	14089.34
647.135	13855.87
647.328	13808.77
647.521	13943.94
647.714	13524.1
647.907	13773.96
648.099	13567.11
648.292	13571.21
648.485	13225.1
648.678	13149.32
648.871	13106.32
649.064	13335.69
649.256	13034.64
649.449	13169.8
649.642	12901.52
649.835	12700.82
650.027	12827.79
650.22	12653.72
650.413	12577.94
650.605	12590.23
650.798	12592.28
650.991	12477.59
651.183	12430.49
651.376	12379.29
651.568	12280.99
651.761	12276.89
651.954	11973.79
652.146	12008.61
652.339	11930.78
652.531	12016.8
652.724	12020.89
652.916	11748.51
653.109	11828.38
653.301	11904.16
653.494	11887.78
653.686	11566.24
653.879	11826.34
654.071	11603.11
654.263	11410.6
654.456	11445.41
654.648	11443.37
654.84	11175.08
655.033	11134.12
655.225	11107.5
655.417	11064.49
655.61	11177.13
655.802	11050.16
655.994	10919.09
656.186	10902.7
656.379	10816.69
656.571	10706.1
656.763	10745.01
656.955	10671.28
657.148	10450.1
657.34	10366.14
657.532	10566.84
657.724	10366.14
657.916	10142.91
658.108	10273.98
658.3	10292.41
658.492	10337.46
658.684	10108.09
658.876	10247.35
659.068	10116.28
659.26	9993.4
659.452	9987.26
659.644	9891.01
659.836	9768.13
660.028	9835.71
660.22	9624.77
660.412	9716.93
660.604	9798.85
660.796	9718.98
660.988	9491.65
661.18	9462.98
661.372	9395.4
661.563	9436.36
661.755	9465.03
661.947	9450.69
662.139	9276.62
662.331	9223.37
662.522	9014.48
662.714	9174.22
662.906	8961.23
663.097	8807.63
663.289	8928.46
663.481	8914.13
663.673	8994
663.864	8774.86
664.056	8789.2
664.247	8910.03
664.439	8527.06
664.631	8791.25
664.822	8508.63
665.014	8555.73
665.205	8455.38
665.397	8287.45
665.588	8439
665.78	8226.01
665.971	8279.25
666.163	8412.37
666.354	8387.8
666.546	8199.38
666.737	8148.18
666.929	8150.23
667.12	8183
667.311	7840.99
667.503	7916.76
667.694	8076.51
667.885	7931.1
668.077	7861.47
668.268	7806.17
668.459	7884
668.651	7781.6
668.842	7834.85
669.033	7847.13
669.224	7595.23
669.416	7859.42
669.607	7748.83
669.798	7451.88
669.989	7625.95
670.18	7656.67
670.371	7402.72
670.563	7474.4
670.754	7453.92
670.945	7472.36
671.136	7367.91
671.327	7322.85
671.518	7310.57
671.709	7429.35
671.9	7265.51
672.091	7240.93
672.282	7130.34
672.473	7259.37
672.664	7161.06
672.855	7152.87
673.046	7070.95
673.237	7175.4
673.428	7204.07
673.619	7109.86
673.809	6986.99
674	7060.71
674.191	7044.33
674.382	7023.85
674.573	6853.87
674.764	6825.2
674.954	6929.64
675.145	6937.84
675.336	6751.47
675.527	6853.87
675.717	6710.51
675.908	6622.45
676.099	6806.77
676.289	6776.05
676.48	6720.75
676.671	6599.92
676.861	6675.7
677.052	6659.31
677.243	6593.78
677.433	6593.78
677.624	6798.57
677.814	6528.24
678.005	6667.5
678.195	6769.9
678.386	6507.76
678.576	6626.54
678.767	6454.51
678.957	6507.76
679.148	6544.63
679.338	6395.12
679.529	6538.48
679.719	6423.8
679.909	6272.25
680.1	6350.07
680.29	6440.18
680.481	6315.25
680.671	6423.8
680.861	6395.12
681.052	6282.49
681.242	6388.98
681.432	6450.42
681.622	6259.96
681.813	6255.86
682.003	6276.34
682.193	6212.85
682.383	6116.6
682.573	6307.06
682.764	6173.94
682.954	6171.9
683.144	6333.68
683.334	6077.69
683.524	6311.16
683.714	6126.84
683.904	6169.85
684.094	6030.59
684.284	5950.71
684.474	6184.18
684.664	6167.8
684.854	6036.73
685.044	6055.16
685.234	6014.2
685.424	6169.85
685.614	6028.54
685.804	6044.92
685.994	6132.98
686.184	5985.53
686.374	5973.24
686.564	5833.98
686.753	5879.04
686.943	5735.68
687.133	5872.89
687.323	5807.36
687.513	5979.39
687.702	5842.17
687.892	5680.38
688.082	5598.46
688.272	5821.69
688.461	5739.77
688.651	5752.06
688.841	5569.79
689.03	5670.14
689.22	5631.23
689.41	5537.02
689.599	5627.14
689.789	5457.15
689.979	5422.34
690.168	5399.81
690.358	5426.43
690.547	5547.26
690.737	5432.58
690.926	5426.43
691.116	5311.75
691.305	5459.2
691.495	5188.87
691.684	5283.08
691.874	5289.22
692.063	5154.05
692.252	5186.82
692.442	5287.17
692.631	5154.05
692.82	5235.97
693.01	5139.72
693.199	5160.2
693.388	5268.74
693.578	5055.75
693.767	5051.66
693.956	5055.75
694.146	5037.32
694.335	5037.32
694.524	5025.03
694.713	4947.21
694.902	4986.12
695.092	4922.63
695.281	4947.21
695.47	4922.63
695.659	4750.6
695.848	4801.8
696.037	4873.48
696.226	4746.51
696.415	4664.59
696.604	4969.74
696.793	4744.46
696.982	4791.56
697.171	4887.82
697.36	4769.04
697.549	4668.69
697.738	4766.99
697.927	4644.11
698.116	4834.57
698.305	4611.34
698.494	4658.45
698.683	4617.49
698.872	4726.03
699.061	4627.73
699.25	4672.78
699.438	4537.62
699.627	4586.77
699.816	4721.93
700.005	4545.81
700.193	4459.79
700.382	4584.72
700.571	4496.66
700.76	4611.34
700.948	4521.23
701.137	4574.48
701.326	4472.08
701.514	4439.31
701.703	4332.82
701.892	4420.88
702.08	4513.04
702.269	4396.31
702.457	4410.64
702.646	4408.59
702.834	4171.03
703.023	4349.2
703.212	4345.11
703.4	4234.52
703.589	4240.66
703.777	4381.97
703.965	4216.08
704.154	4160.79
704.342	4111.64
704.531	4377.87
704.719	4142.36
704.907	4308.24
705.096	4197.65
705.284	4128.02
705.472	4168.98
705.661	4048.15
705.849	4238.61
706.037	4085.01
706.226	4025.62
706.414	4101.4
706.602	4220.18
706.79	4218.13
706.979	4021.53
707.167	4111.64
707.355	4048.15
707.543	3970.33
707.731	3994.9
707.919	3972.38
708.107	3820.83
708.296	3857.69
708.484	3800.35
708.672	3943.71
708.86	3878.17
709.048	3917.08
709.236	3972.38
709.424	4017.43
709.612	3884.31
709.8	3886.36
709.988	3855.64
710.176	3900.7
710.364	3835.16
710.551	3878.17
710.739	3654.94
710.927	3835.16
711.115	3951.9
711.303	3736.86
711.491	3638.56
711.679	3681.57
711.866	3687.71
712.054	3734.81
712.242	3702.04
712.43	3761.44
712.617	3792.16
712.805	3636.51
712.993	3562.78
713.181	3564.83
713.368	3603.74
713.556	3685.66
713.744	3573.02
713.931	3697.95
714.119	3628.32
714.306	3644.7
714.494	3710.24
714.682	3673.37
714.869	3421.47
715.057	3495.2
715.244	3538.21
715.432	3611.93
715.619	3536.16
715.807	3554.59
715.994	3427.62
716.182	3394.85
716.369	3542.3
716.556	3360.03
716.744	3398.95
716.931	3484.96
717.119	3423.52
717.306	3317.03
717.493	3347.75
717.681	3405.09
717.868	3546.4
718.055	3308.83
718.242	3300.64
718.43	3390.75
718.617	3317.03
718.804	3335.46
718.991	3335.46
719.179	3216.68
719.366	3210.53
719.553	3378.47
719.74	3214.63
719.927	3136.81
720.114	3294.5
720.301	3239.2
720.488	3194.15
720.676	3282.21
720.863	3235.11
721.05	3251.49
721.237	3255.59
721.424	3231.01
721.611	3177.76
721.798	3018.02
721.985	3130.66
722.172	3075.37
722.358	3179.81
722.545	3200.29
722.732	3013.93
722.919	3048.74
723.106	3153.19
723.293	3028.26
723.48	3071.27
723.667	2972.97
723.853	3042.6
724.04	3040.55
724.227	3046.69
724.414	3044.65
724.6	3056.93
724.787	2964.78
724.974	2966.82
725.161	2905.38
725.347	3013.93
725.534	2891.05
725.72	2792.75
725.907	3054.89
726.094	2991.4
726.28	2981.16
726.467	2837.8
726.653	2870.57
726.84	2938.15
727.027	2944.3
727.213	2858.28
727.4	2913.58
727.586	2932.01
727.773	2913.58
727.959	2778.41
728.145	2841.9
728.332	2800.94
728.518	2784.55
728.705	2901.29
728.891	3032.36
729.077	2780.46
729.264	2905.38
729.45	2860.33
729.636	2854.19
729.823	2796.84
730.009	2889
730.195	2768.17
730.382	2782.51
730.568	2753.84
730.754	2702.64
730.94	2743.6
731.126	2772.27
731.313	2870.57
731.499	2759.98
731.685	2759.98
731.871	2764.08
732.057	2817.32
732.243	2678.06
732.429	2729.26
732.615	2731.31
732.801	2776.36
732.987	2653.48
733.173	2501.94
733.359	2772.27
733.545	2792.75
733.731	2688.3
733.917	2735.4
734.103	2688.3
734.289	2649.39
734.475	2698.54
734.661	2721.07
734.847	2698.54
735.033	2751.79
735.219	2661.68
735.404	2661.68
735.59	2573.61
735.776	2485.55
735.962	2608.43
736.148	2624.81
736.333	2637.1
736.519	2592.05
736.705	2606.38
736.89	2516.27
737.076	2563.37
737.262	2663.72
737.447	2520.37
737.633	2565.42
737.819	2454.83
738.004	2448.69
738.19	2471.22
738.375	2440.5
738.561	2477.36
738.747	2415.92
738.932	2497.84
739.118	2387.25
739.303	2426.16
739.489	2536.75
739.674	2403.63
739.859	2374.96
740.045	2407.73
740.23	2374.96
740.416	2420.02
740.601	2346.29
740.786	2370.87
740.972	2428.21
741.157	2338.1
741.342	2368.82
741.528	2227.51
741.713	2362.67
741.898	2329.91
742.084	2319.67
742.269	2399.54
742.454	2309.43
742.639	2327.86
742.824	2192.69
743.01	2321.71
743.195	2276.66
743.38	2293.04
743.565	2161.97
743.75	2188.6
743.935	2198.84
744.12	2290.99
744.305	2098.49
744.49	2159.92
744.675	2149.68
744.86	2161.97
745.045	2219.32
745.23	2139.44
745.415	2106.68
745.6	2043.19
745.785	2045.24
745.97	1983.8
746.155	1938.74
746.34	2129.2
746.525	2055.48
746.71	2135.35
746.895	1998.13
747.079	2063.67
747.264	2073.91
747.449	2000.18
747.634	1971.51
747.819	2014.52
748.003	1973.56
748.188	1920.31
748.373	2049.33
748.557	1959.22
748.742	1834.3
748.927	1932.6
749.111	1834.3
749.296	1932.6
749.481	1875.26
749.665	1811.77
749.85	1813.82
750.034	1781.05
750.219	1762.62
750.404	1762.62
750.588	1824.06
750.773	1774.91
750.957	1623.36
751.141	1654.08
751.326	1723.71
751.51	1738.04
751.695	1727.8
751.879	1645.88
752.064	1723.71
752.248	1676.6
752.432	1713.47
752.617	1645.88
752.801	1639.74
752.985	1566.01
753.17	1678.65
753.354	1721.66
753.538	1588.54
753.722	1539.39
753.907	1523.01
754.091	1580.35
754.275	1465.66
754.459	1563.97
754.643	1469.76
754.828	1490.24
755.012	1523.01
755.196	1529.15
755.38	1467.71
755.564	1502.53
755.748	1457.47
755.932	1494.33
756.116	1523.01
756.3	1391.94
756.484	1467.71
756.668	1422.66
756.852	1359.17
757.036	1326.4
757.22	1310.02
757.404	1355.07
757.588	1350.98
757.772	1482.05
757.956	1320.26
758.14	1424.7
758.323	1295.68
758.507	1328.45
758.691	1310.02
758.875	1336.64
759.059	1293.63
759.242	1260.87
759.426	1269.06
759.61	1299.78
759.794	1203.52
759.977	1242.43
760.161	1295.68
760.345	1322.31
760.528	1230.15
760.712	1226.05
760.895	1205.57
761.079	1142.08
761.263	1244.48
761.446	1064.26
761.63	1230.15
761.813	1307.97
761.997	1082.69
762.18	1148.23
762.364	1170.76
762.547	1146.18
762.731	1166.66
762.914	1154.37
763.098	1150.28
763.281	1219.91
763.464	1211.71
763.648	1129.8
763.831	1092.93
764.015	1064.26
764.198	1191.24
764.381	1121.6
764.564	1125.7
764.748	1060.17
764.931	1097.03
765.114	1031.49
765.297	1148.23
765.481	1090.88
765.664	1060.17
765.847	1103.17
766.03	1076.55
766.213	1060.17
766.397	1027.4
766.58	1006.92
766.763	1232.19
766.946	984.39
767.129	970.05
767.312	1039.69
767.495	939.33
767.678	1056.07
767.861	1068.36
768.044	1000.77
768.227	1054.02
768.41	947.53
768.593	1015.11
768.776	1015.11
768.959	974.15
769.142	986.44
769.324	873.8
769.507	957.77
769.69	851.27
769.873	1015.11
770.056	949.57
770.239	916.81
770.421	1015.11
770.604	957.77
770.787	933.19
770.97	925
771.152	830.79
771.335	937.29
771.518	906.57
771.7	918.86
771.883	900.42
772.066	853.32
772.248	957.77
772.431	859.46
772.613	912.71
772.796	892.23
772.978	916.81
773.161	904.52
773.343	843.08
773.526	855.37
773.708	875.85
773.891	826.7
774.073	918.86
774.256	836.94
774.438	820.55
774.621	826.7
774.803	879.94
774.985	834.89
775.168	900.42
775.35	738.63
775.532	847.18
775.715	730.44
775.897	875.85
776.079	855.37
776.261	763.21
776.444	755.02
776.626	793.93
776.808	755.02
776.99	707.91
777.173	795.98
777.355	683.34
777.537	808.26
777.719	714.06
777.901	728.39
778.083	834.89
778.265	664.91
778.447	810.31
778.629	658.76
778.811	730.44
778.993	765.26
779.175	691.53
779.357	597.32
779.539	679.24
779.721	601.42
779.903	548.17
780.085	687.43
780.267	707.91
780.449	617.8
780.631	580.94
780.812	679.24
780.994	595.28
781.176	564.56
781.358	648.52
781.54	630.09
781.721	656.72
781.903	617.8
782.085	623.95
782.267	585.04
782.448	482.64
782.63	539.98
782.812	570.7
782.993	556.36
783.175	607.56
783.357	482.64
783.538	478.54
783.72	521.55
783.901	630.09
784.083	582.99
784.264	654.67
784.446	537.93
784.627	464.21
784.809	527.69
784.99	451.92
785.172	515.41
785.353	496.97
785.535	544.08
785.716	552.27
785.897	556.36
786.079	531.79
786.26	511.31
786.441	503.12
786.623	378.19
786.804	486.73
786.985	578.89
787.167	451.92
787.348	466.25
787.529	404.82
787.71	501.07
787.891	476.49
788.073	431.44
788.254	406.86
788.435	531.79
788.616	396.62
788.797	417.1
788.978	486.73
789.159	421.2
789.34	486.73
789.522	365.9
789.703	386.38
789.884	396.62
790.065	523.6
790.246	449.87
790.427	435.53
790.607	492.88
790.788	429.39
790.969	392.53
791.15	408.91
791.331	392.53
791.512	392.53
791.693	316.75
791.874	482.64
792.054	400.72
792.235	441.68
792.416	351.57
792.597	329.04
792.778	458.06
792.958	337.23
793.139	384.34
793.32	365.9
793.5	384.34
793.681	374.1
793.862	310.61
794.042	314.7
794.223	249.17
794.404	361.81
794.584	296.27
794.765	339.28
794.945	339.28
795.126	326.99
795.306	386.38
795.487	273.75
795.667	277.84
795.848	367.95
796.028	275.79
796.209	339.28
796.389	314.7
796.57	310.61
796.75	283.98
796.93	322.9
797.111	310.61
797.291	359.76
797.471	324.94
797.652	245.07
797.832	249.17
798.012	277.84
798.192	320.85
798.373	236.88
798.553	318.8
798.733	212.31
798.913	269.65
799.093	273.75
799.274	290.13
799.454	232.79
799.634	290.13
799.814	253.27
799.994	324.94
800.174	341.33
800.354	261.46
800.534	245.07
800.714	279.89
800.894	288.08
801.074	243.03
801.254	249.17
801.434	331.09
801.614	288.08
801.794	134.48
801.974	886.09
802.154	290.13
802.334	257.36
802.514	288.08
802.693	286.03
802.873	247.12
803.053	206.16
803.233	271.7
803.413	236.88
803.592	281.94
803.772	228.69
803.952	183.63
804.131	222.55
804.311	224.59
804.491	286.03
804.67	240.98
804.85	179.54
805.03	154.96
805.209	251.22
805.389	234.83
805.568	228.69
805.748	240.98
805.928	267.6
806.107	277.84
806.287	204.11
806.466	277.84
806.646	187.73
806.825	214.35
807.004	173.39
807.184	222.55
807.363	204.11
807.543	197.97
807.722	167.25
807.901	218.45
808.081	298.32
808.26	187.73
808.439	173.39
808.619	228.69
808.798	193.87
808.977	179.54
809.156	273.75
809.336	269.65
809.515	216.4
809.694	175.44
809.873	114
810.052	191.83
810.231	214.35
810.411	144.72
810.59	197.97
810.769	222.55
810.948	200.02
811.127	118.1
811.306	146.77
811.485	189.78
811.664	193.87
811.843	126.29
812.022	275.79
812.201	124.24
812.38	81.24
812.559	179.54
812.737	277.84
812.916	58.71
813.095	111.96
813.274	148.82
813.453	163.15
813.632	130.39
813.811	185.68
813.989	101.72
814.168	195.92
814.347	85.33
814.526	169.3
814.704	150.87
814.883	228.69
815.062	165.2
815.24	99.67
815.419	44.37
815.598	126.29
815.776	77.14
815.955	154.96
816.133	68.95
816.312	140.63
816.49	73.04
816.669	114
816.847	95.57
817.026	132.44
817.204	128.34
817.383	130.39
817.561	126.29
817.74	193.87
817.918	187.73
818.097	93.52
818.275	146.77
818.453	173.39
818.632	214.35
818.81	159.06
818.988	122.2
819.167	64.85
819.345	81.24
819.523	114
819.701	89.43
819.879	195.92
820.058	144.72
820.236	159.06
820.414	89.43
820.592	177.49
820.77	159.06
820.948	105.81
821.127	136.53
821.305	189.78
821.483	64.85
821.661	40.28
821.839	44.37
822.017	132.44
822.195	32.08
822.373	105.81
822.551	146.77
822.729	142.68
822.907	189.78
823.085	159.06
823.262	95.57
823.44	134.48
823.618	87.38
823.796	154.96
823.974	79.19
824.152	9.56
824.329	126.29
824.507	173.39
824.685	103.76
824.863	107.86
825.04	130.39
825.218	124.24
825.396	85.33
825.574	163.15
825.751	120.15
825.929	191.83
826.107	30.04
826.284	93.52
826.462	107.86
826.639	179.54
826.817	87.38
826.994	85.33
827.172	32.08
827.349	163.15
827.527	150.87
827.704	154.96
827.882	40.28
828.059	85.33
828.237	32.08
828.414	105.81
828.591	7.51
828.769	130.39
828.946	81.24
829.124	136.53
829.301	50.52
829.478	179.54
829.655	46.42
829.833	132.44
830.01	48.47
830.187	130.39
830.364	118.1
830.542	95.57
830.719	187.73
830.896	42.32
831.073	48.47
831.25	116.05
831.427	118.1
831.604	27.99
831.782	36.18
831.959	66.9
832.136	56.66
832.313	68.95
832.49	54.61
832.667	48.47
832.844	15.7
833.021	152.91
833.198	58.71
833.374	87.38
833.551	91.48
833.728	56.66
833.905	146.77
834.082	42.32
834.259	40.28
834.436	105.81
834.612	-17.07
834.789	114
834.966	56.66
835.143	157.01
835.319	-0.68
835.496	177.49
835.673	44.37
835.85	130.39
836.026	64.85
836.203	97.62
836.38	58.71
836.556	-47.79
836.733	32.08
836.909	89.43
837.086	48.47
837.262	42.32
837.439	62.8
837.616	32.08
837.792	19.8
837.968	83.28
838.145	36.18
838.321	17.75
838.498	71
838.674	27.99
838.851	25.94
839.027	54.61
839.203	71
839.38	114
839.556	27.99
839.732	48.47
839.909	25.94
840.085	107.86
840.261	56.66
840.437	52.56
840.614	-17.07
840.79	-43.69
840.966	3.41
841.142	42.32
841.318	13.65
841.494	75.09
841.671	23.89
841.847	66.9
842.023	-4.78
842.199	58.71
842.375	40.28
842.551	64.85
842.727	60.76
842.903	93.52
843.079	-6.83
843.255	128.34
843.431	44.37
843.607	99.67
843.783	-23.21
843.959	7.51
844.134	21.84
844.31	73.04
844.486	40.28
844.662	64.85
844.838	91.48
845.013	36.18
845.189	-23.21
845.365	32.08
845.541	66.9
845.716	105.81
845.892	36.18
846.068	40.28
846.244	23.89
846.419	87.38
846.595	-8.87
846.77	66.9
846.946	36.18
847.122	56.66
847.297	40.28
847.473	48.47
847.648	-33.45
847.824	122.2
847.999	7.51
848.175	17.75
848.35	91.48
848.526	52.56
848.701	52.56
848.876	105.81
849.052	68.95
849.227	7.51
849.403	32.08
849.578	58.71
849.753	-4.78
849.929	46.42
850.104	-2.73
850.279	97.62
850.454	79.19
850.63	71
850.805	32.08
850.98	64.85
851.155	30.04
851.33	3.41
851.505	23.89
851.681	64.85
851.856	32.08
852.031	5.46
852.206	36.18
852.381	34.13
852.556	7.51
852.731	-4.78
852.906	19.8
853.081	-0.68
853.256	91.48
853.431	36.18
853.606	-60.07
853.781	-8.87
853.956	-37.55
854.131	44.37
854.305	58.71
854.48	27.99
854.655	62.8
854.83	13.65
855.005	-0.68
855.18	87.38
855.354	56.66
855.529	1.37
855.704	23.89
855.879	64.85
856.053	68.95
856.228	9.56
856.403	-0.68
856.577	48.47
856.752	32.08
856.926	-41.64
857.101	-4.78
857.276	-6.83
857.45	5.46
857.625	62.8
857.799	73.04
857.974	3.41
858.148	-70.31
858.323	54.61
858.497	48.47
858.672	23.89
858.846	11.61
859.02	66.9
859.195	27.99
859.369	23.89
859.543	34.13
859.718	21.84
859.892	5.46
860.066	42.32
860.241	64.85
860.415	-0.68
860.589	81.24
860.763	44.37
860.938	-8.87
861.112	81.24
861.286	58.71
861.46	52.56
861.634	23.89
861.808	54.61
861.982	-66.22
862.157	-12.97
862.331	-96.94
862.505	66.9
862.679	34.13
862.853	7.51
863.027	11.61
863.201	56.66
863.375	-29.35
863.549	75.09
863.722	9.56
863.896	73.04
864.07	25.94
864.244	27.99
864.418	40.28
864.592	-64.17
864.766	34.13
864.939	-8.87
865.113	23.89
865.287	56.66
865.461	23.89
865.634	46.42
865.808	17.75
865.982	13.65
866.156	-49.83
866.329	-70.31
866.503	-8.87
866.676	40.28
866.85	60.76
867.024	-0.68
867.197	60.76
867.371	73.04
867.544	11.61
867.718	32.08
867.891	-45.74
868.065	25.94
868.238	25.94
868.412	30.04
868.585	36.18
868.759	9.56
868.932	44.37
869.105	-2.73
869.279	7.51
869.452	36.18
869.625	42.32
869.799	58.71
869.972	27.99
870.145	11.61
870.319	-12.97
870.492	32.08
870.665	-41.64
870.838	-4.78
871.011	-58.03
871.185	81.24
871.358	9.56
871.531	11.61
871.704	-37.55
871.877	-0.68
872.05	7.51
872.223	-21.16
872.396	48.47
872.569	52.56
872.742	-66.22
872.915	97.62
873.088	-6.83
873.261	1.37
873.434	-15.02
873.607	-35.5
873.78	46.42
873.953	-23.21
874.126	9.56
874.299	32.08
874.471	-21.16
874.644	68.95
874.817	56.66
874.99	44.37
875.163	-8.87
875.335	34.13
875.508	42.32
875.681	50.52
875.853	-8.87
876.026	3.41
876.199	1.37
876.371	36.18
876.544	-4.78
876.717	52.56
876.889	-55.98
877.062	15.7
877.234	-17.07
877.407	-4.78
877.579	23.89
877.752	7.51
877.924	54.61
878.097	93.52
878.269	30.04
878.442	56.66
878.614	54.61
878.786	15.7
878.959	36.18
879.131	5.46
879.303	-74.41
879.476	1.37
879.648	21.84
879.82	-25.26
879.993	-53.93
880.165	34.13
880.337	-23.21
880.509	40.28
880.681	-25.26
880.854	9.56
881.026	27.99
881.198	-8.87
881.37	-4.78
881.542	19.8
881.714	-17.07
881.886	-6.83
882.058	7.51
882.23	27.99
882.402	3.41
882.574	27.99
882.746	36.18
882.918	-33.45
883.09	-21.16
883.262	23.89
883.434	-8.87
883.606	-8.87
883.778	-37.55
883.95	93.52
884.122	-8.87
884.293	23.89
884.465	-0.68
884.637	-25.26
884.809	19.8
884.98	-4.78
885.152	19.8
885.324	73.04
885.496	-21.16
885.667	7.51
885.839	23.89
886.011	97.62
886.182	1.37
886.354	56.66
886.525	-27.31
886.697	15.7
886.869	-37.55
887.04	-23.21
887.212	58.71
887.383	17.75
887.555	15.7
887.726	-17.07
887.897	-8.87
888.069	-31.4
888.24	38.23
888.412	21.84
888.583	-21.16
888.754	42.32
888.926	-78.51
889.097	27.99
889.268	-68.27
889.44	25.94
889.611	-78.51
889.782	7.51
889.953	-31.4
890.125	48.47
890.296	-39.59
890.467	-31.4
890.638	44.37
890.809	-6.83
890.98	-2.73
891.151	50.52
891.323	44.37
891.494	-21.16
891.665	-12.97
891.836	-23.21
892.007	-43.69
892.178	7.51
892.349	-58.03
892.52	1.37
892.691	-23.21
892.862	-55.98
893.032	-72.36
893.203	-43.69
893.374	23.89
893.545	-6.83
893.716	-17.07
893.887	-23.21
894.057	-0.68
894.228	-33.45
894.399	-19.11
894.57	1.37
894.74	32.08
894.911	40.28
895.082	-23.21
895.253	-8.87
895.423	52.56
895.594	17.75
895.764	130.39
895.935	-35.5
896.106	36.18
896.276	-2.73
896.447	30.04
896.617	-76.46
896.788	-74.41
896.958	-25.26
897.129	27.99
897.299	15.7
897.47	34.13
897.64	73.04
897.81	-10.92
897.981	25.94
898.151	11.61
898.322	27.99
898.492	-31.4
898.662	-2.73
898.832	-53.93
899.003	-55.98
899.173	25.94
899.343	-15.02
899.513	-41.64
