Data from USB4F104151__170__14-32-30-289.txt Node

Date: Thu Mar 13 14:32:30 EDT 2025
User: louis
Spectrometer: USB4F10415
Trigger mode: 4
Integration Time (sec): 2.500000E-2
Scans to average: 1
Electric dark correction enabled: true
Nonlinearity correction enabled: false
Boxcar width: 0
XAxis mode: Wavelengths
Number of Pixels in Spectrum: 3648
>>>>>Begin Spectral Data<<<<<
178.204	-145.41
178.424	-145.41
178.644	-145.41
178.864	-112.64
179.084	-94.21
179.304	40.96
179.524	-67.58
179.744	-20.48
179.964	30.72
180.184	12.29
180.404	12.29
180.624	-28.67
180.844	63.49
181.064	-28.67
181.283	-16.38
181.503	-12.29
181.723	14.34
181.943	-8.19
182.163	20.48
182.383	-75.77
182.602	135.17
182.822	57.34
183.042	75.77
183.262	20.48
183.482	-75.77
183.701	-28.67
183.921	8.19
184.141	-14.34
184.361	-49.15
184.58	28.67
184.8	73.73
185.02	36.86
185.239	57.34
185.459	28.67
185.679	24.58
185.898	-4.1
186.118	36.86
186.338	24.58
186.557	75.77
186.777	34.82
186.997	102.4
187.216	20.48
187.436	57.34
187.655	104.45
187.875	30.72
188.095	14.34
188.314	94.21
188.534	53.25
188.753	-10.24
188.973	24.58
189.192	120.83
189.412	22.53
189.631	20.48
189.851	-6.14
190.07	71.68
190.29	32.77
190.509	22.53
190.729	28.67
190.948	14.34
191.168	198.65
191.387	86.01
191.607	-43.01
191.826	81.92
192.045	79.87
192.265	69.63
192.484	-20.48
192.704	-32.77
192.923	79.87
193.142	77.82
193.362	139.26
193.581	77.82
193.8	51.2
194.02	0
194.239	-4.1
194.458	36.86
194.678	12.29
194.897	28.67
195.116	20.48
195.335	-4.1
195.555	12.29
195.774	-12.29
195.993	126.97
196.212	14.34
196.432	-16.38
196.651	90.11
196.87	77.82
197.089	90.11
197.308	40.96
197.528	49.15
197.747	45.06
197.966	22.53
198.185	112.64
198.404	94.21
198.623	-8.19
198.842	53.25
199.062	94.21
199.281	10.24
199.5	-12.29
199.719	-57.34
199.938	61.44
200.157	61.44
200.376	131.07
200.595	57.34
200.814	81.92
201.033	32.77
201.252	71.68
201.471	4.1
201.69	59.39
201.909	61.44
202.128	94.21
202.347	137.21
202.566	122.88
202.785	79.87
203.004	22.53
203.223	96.25
203.442	155.65
203.661	98.3
203.879	118.78
204.098	45.06
204.317	79.87
204.536	126.97
204.755	28.67
204.974	34.82
205.193	-18.43
205.411	100.35
205.63	40.96
205.849	18.43
206.068	-18.43
206.287	-8.19
206.505	36.86
206.724	55.3
206.943	69.63
207.162	38.91
207.381	83.97
207.599	10.24
207.818	47.1
208.037	69.63
208.255	12.29
208.474	-36.86
208.693	102.4
208.911	8.19
209.13	47.1
209.349	145.41
209.567	69.63
209.786	6.14
210.005	90.11
210.223	45.06
210.442	51.2
210.661	22.53
210.879	-106.49
211.098	94.21
211.316	20.48
211.535	88.06
211.753	20.48
211.972	-34.82
212.191	0
212.409	4.1
212.628	28.67
212.846	53.25
213.065	104.45
213.283	79.87
213.502	69.63
213.72	106.49
213.938	176.13
214.157	55.3
214.375	-18.43
214.594	96.25
214.812	36.86
215.031	98.3
215.249	16.38
215.467	47.1
215.686	75.77
215.904	61.44
216.122	14.34
216.341	51.2
216.559	45.06
216.778	63.49
216.996	24.58
217.214	2.05
217.432	61.44
217.651	-28.67
217.869	-8.19
218.087	20.48
218.306	4.1
218.524	47.1
218.742	-2.05
218.96	28.67
219.179	77.82
219.397	-28.67
219.615	141.31
219.833	36.86
220.051	12.29
220.27	34.82
220.488	53.25
220.706	53.25
220.924	69.63
221.142	90.11
221.36	69.63
221.578	40.96
221.796	-6.14
222.015	30.72
222.233	96.25
222.451	86.01
222.669	4.1
222.887	32.77
223.105	-16.38
223.323	106.49
223.541	43.01
223.759	102.4
223.977	-4.1
224.195	94.21
224.413	28.67
224.631	57.34
224.849	67.58
225.067	63.49
225.285	12.29
225.503	55.3
225.721	-12.29
225.939	34.82
226.157	22.53
226.375	102.4
226.592	-49.15
226.81	53.25
227.028	65.54
227.246	53.25
227.464	-12.29
227.682	30.72
227.9	59.39
228.117	38.91
228.335	61.44
228.553	-40.96
228.771	-16.38
228.989	57.34
229.206	98.3
229.424	-4.1
229.642	98.3
229.86	77.82
230.077	88.06
230.295	73.73
230.513	102.4
230.731	73.73
230.948	63.49
231.166	65.54
231.384	63.49
231.601	36.86
231.819	116.73
232.037	36.86
232.254	67.58
232.472	-4.1
232.689	57.34
232.907	49.15
233.125	20.48
233.342	24.58
233.56	-24.58
233.777	12.29
233.995	10.24
234.213	77.82
234.43	-2.05
234.648	14.34
234.865	40.96
235.083	110.59
235.3	30.72
235.518	28.67
235.735	81.92
235.953	86.01
236.17	-10.24
236.388	38.91
236.605	32.77
236.822	135.17
237.04	45.06
237.257	79.87
237.475	24.58
237.692	28.67
237.909	-20.48
238.127	-8.19
238.344	30.72
238.562	-12.29
238.779	36.86
238.996	12.29
239.214	90.11
239.431	77.82
239.648	4.1
239.865	-12.29
240.083	61.44
240.3	-2.05
240.517	98.3
240.735	-6.14
240.952	73.73
241.169	96.25
241.386	28.67
241.603	43.01
241.821	40.96
242.038	71.68
242.255	79.87
242.472	36.86
242.689	-4.1
242.907	53.25
243.124	12.29
243.341	36.86
243.558	106.49
243.775	-16.38
243.992	-61.44
244.209	77.82
244.426	49.15
244.643	61.44
244.86	65.54
245.078	-28.67
245.295	104.45
245.512	-4.1
245.729	30.72
245.946	69.63
246.163	-10.24
246.38	36.86
246.597	69.63
246.814	65.54
247.031	32.77
247.248	53.25
247.464	63.49
247.681	30.72
247.898	102.4
248.115	69.63
248.332	-8.19
248.549	69.63
248.766	98.3
248.983	86.01
249.2	30.72
249.417	94.21
249.633	49.15
249.85	118.78
250.067	51.2
250.284	-28.67
250.501	71.68
250.717	26.62
250.934	-43.01
251.151	65.54
251.368	47.1
251.585	59.39
251.801	63.49
252.018	-36.86
252.235	53.25
252.451	12.29
252.668	0
252.885	73.73
253.102	53.25
253.318	-16.38
253.535	-20.48
253.752	69.63
253.968	67.58
254.185	45.06
254.401	57.34
254.618	110.59
254.835	-36.86
255.051	77.82
255.268	-2.05
255.484	86.01
255.701	-4.1
255.917	45.06
256.134	77.82
256.351	-4.1
256.567	-90.11
256.784	26.62
257	12.29
257.217	30.72
257.433	90.11
257.65	36.86
257.866	77.82
258.082	28.67
258.299	73.73
258.515	8.19
258.732	24.58
258.948	45.06
259.165	16.38
259.381	22.53
259.597	90.11
259.814	38.91
260.03	75.77
260.246	38.91
260.463	94.21
260.679	86.01
260.895	77.82
261.112	47.1
261.328	53.25
261.544	61.44
261.761	102.4
261.977	14.34
262.193	-47.1
262.409	14.34
262.626	100.35
262.842	86.01
263.058	61.44
263.274	79.87
263.49	36.86
263.707	86.01
263.923	110.59
264.139	106.49
264.355	-28.67
264.571	77.82
264.787	94.21
265.004	110.59
265.22	10.24
265.436	-49.15
265.652	32.77
265.868	94.21
266.084	57.34
266.3	14.34
266.516	-8.19
266.732	86.01
266.948	71.68
267.164	94.21
267.38	20.48
267.596	6.14
267.812	96.25
268.028	61.44
268.244	34.82
268.46	53.25
268.676	77.82
268.892	45.06
269.108	59.39
269.324	-10.24
269.54	-8.19
269.756	79.87
269.972	0
270.188	20.48
270.403	-40.96
270.619	12.29
270.835	55.3
271.051	45.06
271.267	0
271.483	61.44
271.698	38.91
271.914	40.96
272.13	32.77
272.346	24.58
272.562	32.77
272.777	131.07
272.993	36.86
273.209	36.86
273.425	77.82
273.64	14.34
273.856	-10.24
274.072	57.34
274.287	45.06
274.503	90.11
274.719	61.44
274.934	65.54
275.15	-26.62
275.366	32.77
275.581	12.29
275.797	4.1
276.012	45.06
276.228	49.15
276.444	86.01
276.659	65.54
276.875	61.44
277.09	20.48
277.306	-12.29
277.521	28.67
277.737	34.82
277.952	118.78
278.168	32.77
278.383	96.25
278.599	28.67
278.814	-12.29
279.03	-32.77
279.245	118.78
279.461	104.45
279.676	100.35
279.892	-2.05
280.107	40.96
280.322	59.39
280.538	-28.67
280.753	-32.77
280.969	28.67
281.184	36.86
281.399	94.21
281.615	22.53
281.83	47.1
282.045	49.15
282.26	20.48
282.476	12.29
282.691	81.92
282.906	12.29
283.122	65.54
283.337	32.77
283.552	53.25
283.767	14.34
283.983	65.54
284.198	30.72
284.413	145.41
284.628	-8.19
284.843	63.49
285.058	53.25
285.274	36.86
285.489	-24.58
285.704	69.63
285.919	55.3
286.134	4.1
286.349	4.1
286.564	135.17
286.779	90.11
286.995	16.38
287.21	73.73
287.425	69.63
287.64	38.91
287.855	30.72
288.07	-12.29
288.285	106.49
288.5	90.11
288.715	77.82
288.93	-6.14
289.145	-16.38
289.36	28.67
289.575	53.25
289.79	106.49
290.004	81.92
290.219	65.54
290.434	12.29
290.649	16.38
290.864	-2.05
291.079	30.72
291.294	143.36
291.509	14.34
291.724	45.06
291.938	53.25
292.153	133.12
292.368	10.24
292.583	30.72
292.798	77.82
293.012	28.67
293.227	86.01
293.442	12.29
293.657	106.49
293.871	63.49
294.086	-43.01
294.301	180.22
294.516	14.34
294.73	63.49
294.945	-51.2
295.16	18.43
295.374	47.1
295.589	34.82
295.804	51.2
296.018	94.21
296.233	135.17
296.447	63.49
296.662	47.1
296.877	61.44
297.091	32.77
297.306	40.96
297.52	0
297.735	71.68
297.949	4.1
298.164	96.25
298.378	4.1
298.593	-20.48
298.807	-12.29
299.022	20.48
299.236	12.29
299.451	10.24
299.665	36.86
299.88	28.67
300.094	98.3
300.309	167.93
300.523	10.24
300.737	-4.1
300.952	69.63
301.166	88.06
301.381	36.86
301.595	57.34
301.809	-4.1
302.024	20.48
302.238	24.58
302.452	69.63
302.667	57.34
302.881	102.4
303.095	45.06
303.309	69.63
303.524	-45.06
303.738	96.25
303.952	43.01
304.166	26.62
304.381	-114.69
304.595	131.07
304.809	18.43
305.023	47.1
305.237	55.3
305.452	45.06
305.666	61.44
305.88	12.29
306.094	8.19
306.308	45.06
306.522	20.48
306.736	61.44
306.95	49.15
307.164	14.34
307.379	61.44
307.593	147.45
307.807	69.63
308.021	20.48
308.235	18.43
308.449	-59.39
308.663	110.59
308.877	118.78
309.091	38.91
309.305	147.45
309.519	49.15
309.733	96.25
309.947	-45.06
310.161	96.25
310.374	16.38
310.588	57.34
310.802	69.63
311.016	-53.25
311.23	98.3
311.444	8.19
311.658	-45.06
311.872	81.92
312.085	55.3
312.299	106.49
312.513	61.44
312.727	90.11
312.941	49.15
313.154	73.73
313.368	57.34
313.582	-12.29
313.796	28.67
314.009	24.58
314.223	86.01
314.437	36.86
314.651	40.96
314.864	20.48
315.078	106.49
315.292	65.54
315.505	30.72
315.719	63.49
315.933	49.15
316.146	28.67
316.36	4.1
316.573	20.48
316.787	96.25
317.001	38.91
317.214	14.34
317.428	14.34
317.641	0
317.855	81.92
318.068	30.72
318.282	32.77
318.495	96.25
318.709	38.91
318.922	24.58
319.136	102.4
319.349	55.3
319.563	4.1
319.776	104.45
319.99	-24.58
320.203	120.83
320.417	-12.29
320.63	53.25
320.843	61.44
321.057	98.3
321.27	47.1
321.483	6.14
321.697	51.2
321.91	81.92
322.124	65.54
322.337	6.14
322.55	28.67
322.763	38.91
322.977	40.96
323.19	-14.34
323.403	65.54
323.617	55.3
323.83	106.49
324.043	45.06
324.256	4.1
324.469	-18.43
324.683	38.91
324.896	12.29
325.109	45.06
325.322	24.58
325.535	8.19
325.748	-8.19
325.962	16.38
326.175	51.2
326.388	77.82
326.601	81.92
326.814	79.87
327.027	43.01
327.24	36.86
327.453	28.67
327.666	38.91
327.879	73.73
328.092	40.96
328.305	61.44
328.518	12.29
328.731	86.01
328.944	112.64
329.157	118.78
329.37	0
329.583	90.11
329.796	55.3
330.009	-2.05
330.222	-8.19
330.435	104.45
330.648	16.38
330.861	55.3
331.073	61.44
331.286	0
331.499	8.19
331.712	55.3
331.925	0
332.138	30.72
332.35	51.2
332.563	-4.1
332.776	94.21
332.989	40.96
333.202	45.06
333.414	77.82
333.627	14.34
333.84	53.25
334.053	40.96
334.265	36.86
334.478	45.06
334.691	34.82
334.903	71.68
335.116	28.67
335.329	120.83
335.541	-20.48
335.754	169.98
335.966	47.1
336.179	86.01
336.392	77.82
336.604	53.25
336.817	137.21
337.029	12.29
337.242	55.3
337.454	30.72
337.667	28.67
337.88	143.36
338.092	38.91
338.305	110.59
338.517	-10.24
338.729	49.15
338.942	38.91
339.154	20.48
339.367	-61.44
339.579	114.69
339.792	63.49
340.004	135.17
340.217	40.96
340.429	4.1
340.641	69.63
340.854	36.86
341.066	75.77
341.278	77.82
341.491	135.17
341.703	100.35
341.915	-24.58
342.128	28.67
342.34	75.77
342.552	20.48
342.764	-4.1
342.977	77.82
343.189	75.77
343.401	90.11
343.613	45.06
343.826	112.64
344.038	81.92
344.25	63.49
344.462	96.25
344.674	139.26
344.886	-4.1
345.099	65.54
345.311	-8.19
345.523	65.54
345.735	69.63
345.947	149.5
346.159	96.25
346.371	86.01
346.583	137.21
346.795	86.01
347.007	-12.29
347.219	45.06
347.431	34.82
347.643	45.06
347.855	-4.1
348.067	122.88
348.279	36.86
348.491	61.44
348.703	24.58
348.915	4.1
349.127	-28.67
349.339	67.58
349.551	55.3
349.763	53.25
349.975	45.06
350.187	77.82
350.399	30.72
350.61	20.48
350.822	106.49
351.034	86.01
351.246	61.44
351.458	36.86
351.669	90.11
351.881	38.91
352.093	63.49
352.305	94.21
352.517	-12.29
352.728	73.73
352.94	92.16
353.152	79.87
353.363	-53.25
353.575	69.63
353.787	98.3
353.999	0
354.21	63.49
354.422	12.29
354.633	94.21
354.845	77.82
355.057	73.73
355.268	73.73
355.48	47.1
355.692	30.72
355.903	-28.67
356.115	-4.1
356.326	-28.67
356.538	98.3
356.749	36.86
356.961	153.6
357.172	45.06
357.384	55.3
357.595	69.63
357.807	96.25
358.018	-28.67
358.23	30.72
358.441	104.45
358.653	94.21
358.864	14.34
359.075	28.67
359.287	-4.1
359.498	86.01
359.709	12.29
359.921	61.44
360.132	102.4
360.344	-12.29
360.555	16.38
360.766	61.44
360.977	4.1
361.189	102.4
361.4	49.15
361.611	69.63
361.823	61.44
362.034	102.4
362.245	12.29
362.456	63.49
362.667	53.25
362.879	-4.1
363.09	63.49
363.301	79.87
363.512	20.48
363.723	-53.25
363.935	20.48
364.146	61.44
364.357	73.73
364.568	-10.24
364.779	30.72
364.99	129.02
365.201	30.72
365.412	131.07
365.623	0
365.834	69.63
366.045	49.15
366.256	24.58
366.467	94.21
366.678	36.86
366.889	71.68
367.1	-2.05
367.311	63.49
367.522	55.3
367.733	40.96
367.944	102.4
368.155	28.67
368.366	100.35
368.577	86.01
368.788	96.25
368.999	30.72
369.209	120.83
369.42	45.06
369.631	149.5
369.842	110.59
370.053	38.91
370.264	122.88
370.474	-34.82
370.685	30.72
370.896	18.43
371.107	94.21
371.317	122.88
371.528	30.72
371.739	45.06
371.95	129.02
372.16	69.63
372.371	-34.82
372.582	86.01
372.792	22.53
373.003	77.82
373.214	86.01
373.424	45.06
373.635	61.44
373.846	73.73
374.056	18.43
374.267	96.25
374.477	100.35
374.688	86.01
374.898	47.1
375.109	63.49
375.319	75.77
375.53	94.21
375.74	86.01
375.951	96.25
376.161	-2.05
376.372	61.44
376.582	86.01
376.793	65.54
377.003	28.67
377.214	28.67
377.424	55.3
377.635	94.21
377.845	55.3
378.055	131.07
378.266	-20.48
378.476	49.15
378.686	86.01
378.897	67.58
379.107	32.77
379.317	20.48
379.528	88.06
379.738	12.29
379.948	14.34
380.158	69.63
380.369	53.25
380.579	55.3
380.789	24.58
380.999	38.91
381.21	24.58
381.42	98.3
381.63	4.1
381.84	98.3
382.05	36.86
382.261	69.63
382.471	69.63
382.681	40.96
382.891	90.11
383.101	90.11
383.311	61.44
383.521	36.86
383.731	122.88
383.941	69.63
384.151	102.4
384.361	90.11
384.571	47.1
384.781	106.49
384.991	110.59
385.201	126.97
385.411	118.78
385.621	110.59
385.831	53.25
386.041	106.49
386.251	-4.1
386.461	69.63
386.671	73.73
386.881	49.15
387.091	51.2
387.301	98.3
387.511	106.49
387.72	104.45
387.93	141.31
388.14	-6.14
388.35	47.1
388.56	69.63
388.769	36.86
388.979	102.4
389.189	14.34
389.399	122.88
389.609	65.54
389.818	141.31
390.028	114.69
390.238	73.73
390.447	45.06
390.657	73.73
390.867	26.62
391.076	65.54
391.286	77.82
391.496	69.63
391.705	106.49
391.915	112.64
392.125	92.16
392.334	83.97
392.544	79.87
392.753	71.68
392.963	86.01
393.172	63.49
393.382	14.34
393.591	120.83
393.801	53.25
394.01	122.88
394.22	55.3
394.429	49.15
394.639	94.21
394.848	118.78
395.058	63.49
395.267	53.25
395.477	118.78
395.686	86.01
395.895	100.35
396.105	274.43
396.314	79.87
396.524	126.97
396.733	36.86
396.942	186.37
397.152	143.36
397.361	114.69
397.57	63.49
397.78	61.44
397.989	131.07
398.198	86.01
398.407	106.49
398.617	102.4
398.826	69.63
399.035	32.77
399.244	81.92
399.453	169.98
399.663	28.67
399.872	120.83
400.081	90.11
400.29	92.16
400.499	135.17
400.708	194.56
400.917	77.82
401.127	86.01
401.336	118.78
401.545	126.97
401.754	81.92
401.963	155.65
402.172	110.59
402.381	135.17
402.59	161.79
402.799	71.68
403.008	151.55
403.217	159.74
403.426	155.65
403.635	61.44
403.844	184.32
404.053	133.12
404.262	104.45
404.471	225.28
404.68	186.37
404.888	129.02
405.097	192.51
405.306	159.74
405.515	135.17
405.724	122.88
405.933	137.21
406.142	153.6
406.35	114.69
406.559	274.43
406.768	210.94
406.977	212.99
407.185	237.56
407.394	233.47
407.603	137.21
407.812	184.32
408.02	266.24
408.229	172.03
408.438	292.86
408.646	169.98
408.855	299
409.064	303.1
409.272	196.61
409.481	311.29
409.69	315.39
409.898	215.04
410.107	309.24
410.315	382.97
410.524	299
410.733	272.38
410.941	364.54
411.15	356.35
411.358	405.5
411.567	464.89
411.775	395.26
411.984	389.11
412.192	413.69
412.401	391.16
412.609	538.62
412.818	546.81
413.026	497.66
413.234	532.47
413.443	471.03
413.651	503.8
413.86	540.66
414.068	604.15
414.276	606.2
414.485	577.53
414.693	708.6
414.901	649.21
415.11	675.83
415.318	702.45
415.526	663.54
415.734	751.6
415.943	720.89
416.151	815.09
416.359	800.76
416.567	784.37
416.776	808.95
416.984	972.79
417.192	933.87
417.4	888.82
417.608	944.11
417.817	976.88
418.025	1030.13
418.233	1095.66
418.441	1071.09
418.649	1110
418.857	1167.34
419.065	1216.49
419.273	1200.11
419.481	1224.69
419.689	1292.27
419.897	1406.95
420.105	1376.24
420.313	1466.35
420.521	1474.54
420.729	1650.66
420.937	1650.66
421.145	1658.85
421.353	1744.87
421.561	1798.12
421.769	1869.8
421.977	1941.47
422.185	1886.18
422.393	2119.65
422.601	2150.37
422.809	2174.94
423.017	2115.55
423.224	2267.1
423.432	2387.93
423.64	2232.29
423.848	2568.15
424.056	2519
424.263	2625.5
424.471	2676.7
424.679	2734.04
424.887	2863.06
425.094	2904.02
425.302	2940.88
425.51	3045.33
425.718	3133.39
425.925	3258.32
426.133	3391.44
426.341	3565.51
426.548	3657.67
426.756	3788.74
426.964	3704.78
427.171	3844.04
427.379	4014.02
427.586	3995.59
427.794	4134.85
428.001	4331.45
428.209	4691.9
428.417	4458.43
428.624	4650.94
428.832	4839.35
429.039	4788.15
429.247	4708.28
429.454	5099.44
429.662	5455.79
429.869	5281.71
430.076	5480.36
430.284	5445.55
430.491	5582.76
430.699	5812.14
430.906	6078.37
431.114	6100.9
431.321	6131.62
431.528	6367.13
431.736	6866.84
431.943	7092.12
432.15	6901.65
432.358	7102.36
432.565	7583.63
432.772	7309.2
432.979	7839.62
433.187	7769.99
433.394	7991.17
433.601	8327.04
433.808	8556.41
434.016	8474.49
434.223	8605.56
434.43	9330.55
434.637	8796.03
434.844	9787.24
435.052	9721.71
435.259	9734
435.466	9996.14
435.673	9736.04
435.88	10317.67
436.087	10757.98
436.294	10827.61
436.501	10753.88
436.708	10751.84
436.915	11132.76
437.122	11501.39
437.329	11538.26
437.537	12064.58
437.743	11812.68
437.95	12173.13
438.157	12568.38
438.364	12873.53
438.571	12902.2
438.778	13188.92
438.985	14372.64
439.192	13909.8
439.399	14217
439.606	14077.74
439.813	14823.2
440.02	15773.46
440.227	15501.08
440.433	15011.61
440.64	15683.34
440.847	15525.65
441.054	15886.09
441.261	17260.28
441.467	16824.06
441.674	17100.54
441.881	17651.44
442.088	17684.21
442.294	17622.77
442.501	17757.94
442.708	18226.92
442.914	19056.35
443.121	19902.16
443.328	19070.68
443.534	20483.78
443.741	19881.68
443.948	19865.3
444.154	21282.49
444.361	21108.41
444.568	21290.68
444.774	21405.37
444.981	21454.52
445.187	21788.34
445.394	22705.83
445.6	22668.97
445.807	24716.93
446.013	23512.73
446.22	23881.36
446.426	24921.73
446.633	25282.17
446.839	26127.99
447.046	24897.16
447.252	26642.03
447.459	26525.29
447.665	26564.2
447.871	27829.85
448.078	28597.84
448.284	27319.9
448.491	28417.61
448.697	29113.92
448.903	29742.65
449.11	29582.91
449.316	29515.33
449.522	29740.6
449.728	30656.04
449.935	30846.51
450.141	30916.14
450.347	31626.78
450.553	30455.34
450.76	30932.52
450.966	32286.23
451.172	31360.55
451.378	32474.64
451.584	31823.39
451.791	32714.25
451.997	32327.19
452.203	32816.65
452.409	33304.07
452.615	32728.59
452.821	31407.65
453.027	31184.42
453.233	32755.21
453.44	31460.9
453.646	32003.61
453.852	31843.87
454.058	32318.99
454.264	31487.52
454.47	31972.89
454.676	31157.8
454.882	32314.9
455.088	29498.94
455.294	30131.76
455.5	30457.39
455.705	30443.06
455.911	29165.12
456.117	28892.74
456.323	28366.42
456.529	27063.91
456.735	28298.83
456.941	27532.89
457.147	26832.49
457.352	25785.97
457.558	25861.75
457.764	26089.07
457.97	25306.75
458.176	24893.06
458.381	24653.45
458.587	23309.98
458.793	23492.25
458.999	22253.23
459.204	24172.18
459.41	23496.35
459.616	21640.89
459.821	21800.63
460.027	21661.37
460.233	21147.33
460.438	20313.8
460.644	20661.96
460.85	19621.59
461.055	19316.44
461.261	19052.25
461.466	17653.49
461.672	17086.2
461.878	18304.74
462.083	16893.69
462.289	16895.74
462.494	16465.67
462.7	15877.9
462.905	15421.2
463.111	16260.87
463.316	16066.31
463.522	15685.39
463.727	15494.93
463.932	15578.9
464.138	15400.73
464.343	15333.14
464.549	14882.59
464.754	15707.92
464.959	15652.63
465.165	15300.37
465.37	14407.46
465.575	14499.62
465.781	14950.17
465.986	15023.9
466.191	14440.23
466.397	14223.14
466.602	13303.6
466.807	13967.15
467.012	14032.68
467.218	14065.45
467.423	13758.25
467.628	14040.87
467.833	14339.88
468.038	13627.18
468.244	13373.24
468.449	13717.29
468.654	13621.04
468.859	13418.29
469.064	13240.12
469.269	12691.26
469.474	13051.7
469.679	13266.74
469.885	12719.93
470.09	12961.59
470.295	12742.46
470.5	12508.99
470.705	12427.07
470.91	12281.67
471.115	12205.89
471.32	12289.86
471.525	12138.31
471.73	11835.21
471.935	11972.43
472.139	11523.92
472.344	11681.61
472.549	11556.69
472.754	11644.75
472.959	11124.57
473.164	10999.64
473.369	10911.58
473.574	11138.9
473.778	11089.75
473.983	10952.54
474.188	10977.11
474.393	10577.76
474.598	10571.61
474.802	10356.58
475.007	10377.06
475.212	10520.42
475.417	9985.9
475.621	10094.44
475.826	10063.72
476.031	9705.32
476.235	9686.89
476.44	9760.62
476.645	9518.96
476.849	9559.92
477.054	9340.79
477.259	9385.84
477.463	9197.43
477.668	9043.83
477.872	9244.53
478.077	8968.06
478.282	8933.24
478.486	8888.18
478.691	8736.63
478.895	8728.44
479.1	8630.14
479.304	8771.45
479.509	8519.55
479.713	8630.14
479.918	8507.26
480.122	8179.59
480.326	8507.26
480.531	8388.48
480.735	8218.5
480.94	8257.41
481.144	8720.25
481.348	8073.09
481.553	8273.79
481.757	8009.61
481.961	8206.21
482.166	8187.78
482.37	8089.48
482.574	8056.71
482.778	7853.96
482.983	8292.23
483.187	8157.06
483.391	8126.34
483.595	7927.69
483.8	7952.26
484.004	8122.24
484.208	8183.68
484.412	8081.28
484.616	8050.57
484.821	7851.91
485.025	7954.31
485.229	7960.45
485.433	7995.27
485.637	7966.6
485.841	7935.88
486.045	7868.3
486.249	7868.3
486.453	7982.98
486.657	7835.53
486.861	7978.89
487.065	7853.96
487.269	8073.09
487.473	7847.82
487.677	7966.6
487.881	8023.94
488.085	7946.12
488.289	8077.19
488.493	8212.35
488.697	8056.71
488.901	7956.36
489.105	8118.15
489.309	8138.63
489.512	8064.9
489.716	7925.64
489.92	8173.44
490.124	8107.91
490.328	8312.71
490.531	8015.75
490.735	8261.51
490.939	8089.48
491.143	8093.57
491.346	8081.28
491.55	8238.98
491.754	8327.04
491.958	8284.03
492.161	8230.79
492.365	8400.77
492.569	8372.1
492.772	8445.82
492.976	8404.86
493.18	8349.57
493.383	8533.89
493.587	8638.33
493.79	8677.24
493.994	8728.44
494.197	8597.37
494.401	8681.34
494.605	8707.96
494.808	8959.86
495.012	8656.76
495.215	8888.18
495.419	8945.53
495.622	9041.78
495.825	8984.44
496.029	9054.07
496.232	9275.25
496.436	9154.42
496.639	9504.62
496.843	9314.16
497.046	9488.24
497.249	9639.79
497.453	9551.73
497.656	9834.35
497.859	9768.81
498.063	9949.03
498.266	10157.93
498.469	10010.47
498.673	10196.84
498.876	10231.65
499.079	10448.74
499.282	10325.86
499.485	10803.04
499.689	10588
499.892	10768.22
500.095	10755.93
500.298	11126.61
500.501	10884.95
500.705	11233.11
500.908	11210.58
501.111	11579.22
501.314	11499.34
501.517	11575.12
501.72	11792.2
501.923	11657.04
502.126	11990.86
502.329	12265.28
502.532	12275.52
502.735	12347.2
502.938	12515.14
503.141	12709.69
503.344	12758.85
503.547	12957.5
503.75	12941.11
503.953	13293.37
504.156	13350.71
504.359	13410.1
504.562	13307.7
504.765	13696.82
504.968	13780.78
505.17	13946.67
505.373	14022.44
505.576	14282.53
505.779	14266.15
505.982	14477.09
506.185	14950.17
506.387	14735.14
506.59	14925.6
506.793	15138.59
506.996	15111.96
507.198	15611.67
507.401	15374.1
507.604	15464.21
507.807	16140.04
508.009	15945.48
508.212	16291.59
508.415	16443.14
508.617	16426.76
508.82	16690.95
509.022	16768.77
509.225	16940.8
509.428	17026.81
509.63	17131.26
509.833	17168.12
510.035	17506.04
510.238	17512.18
510.44	17839.86
510.643	18190.06
510.845	17807.09
511.048	18292.46
511.25	18534.12
511.453	18849.5
511.655	19211.99
511.858	18992.86
512.06	19138.27
512.262	19281.63
512.465	19246.81
512.667	19666.64
512.87	19838.67
513.072	19844.82
513.274	20397.77
513.477	20389.58
513.679	20731.59
513.881	20881.09
514.084	20928.19
514.286	20797.12
514.488	21266.11
514.69	21593.78
514.893	21786.29
515.095	21927.6
515.297	22167.21
515.499	22091.44
515.701	22390.44
515.904	22853.28
516.106	22552.23
516.308	23140
516.51	23219.87
516.712	23017.12
516.914	23662.23
517.116	23778.97
517.318	23654.04
517.52	23944.85
517.722	23774.87
517.925	24311.44
518.127	24452.75
518.329	24641.16
518.531	24858.24
518.733	25026.18
518.935	25310.85
519.136	25429.63
519.338	25683.58
519.54	25816.69
519.742	26107.51
519.944	26084.98
520.146	26113.65
520.348	26293.87
520.55	26465.9
520.752	26480.24
520.954	26943.08
521.155	26887.78
521.357	27414.11
521.559	27389.53
521.761	27696.73
521.963	27455.07
522.164	27653.72
522.366	28042.84
522.568	27922.01
522.77	28231.25
522.971	28429.9
523.173	28470.86
523.375	28640.84
523.576	28655.18
523.778	28450.38
523.98	28632.65
524.181	28771.91
524.383	28573.26
524.584	29113.92
524.786	29128.26
524.988	29042.24
525.189	29599.29
525.391	29548.09
525.592	29550.14
525.794	29494.85
525.995	29783.61
526.197	29730.36
526.398	29576.76
526.6	29767.23
526.801	29840.95
527.003	30117.43
527.204	30090.8
527.406	30148.15
527.607	29906.49
527.808	29886.01
528.01	29759.03
528.211	30197.3
528.412	30938.66
528.614	30359.09
528.815	30496.3
529.016	30723.63
529.218	29740.6
529.419	30293.55
529.62	30666.28
529.822	30111.28
530.023	30238.26
530.224	30211.63
530.425	30385.71
530.626	30273.07
530.828	30107.19
531.029	30158.39
531.23	30240.31
531.431	29963.83
531.632	30643.76
531.833	30254.64
532.035	30115.38
532.236	30598.7
532.437	30748.2
532.638	30023.22
532.839	30649.9
533.04	30209.59
533.241	29900.34
533.442	30381.62
533.643	30217.78
533.844	30068.28
534.045	30154.29
534.246	29689.4
534.447	30144.05
534.648	30019.13
534.849	30064.18
535.05	29769.27
535.251	29875.77
535.451	29621.82
535.652	29638.2
535.853	29908.54
536.054	29924.92
536.255	29701.69
536.456	29503.04
536.657	30019.13
536.857	29836.86
537.058	29457.98
537.259	29640.25
537.46	29666.88
537.66	29253.19
537.861	29718.07
538.062	29437.5
538.263	29642.3
538.463	29548.09
538.664	29271.62
538.865	29251.14
539.065	29574.72
539.266	29273.67
539.466	29421.12
539.667	28935.75
539.868	29738.55
540.068	29023.81
540.269	29206.08
540.469	29644.35
540.67	28827.21
540.87	29013.57
541.071	28995.14
541.271	28958.28
541.472	29083.2
541.672	28905.03
541.873	28841.54
542.073	28585.55
542.274	29128.26
542.474	28837.45
542.675	28573.26
542.875	29232.71
543.075	28974.66
543.276	28380.75
543.476	28941.89
543.676	28649.03
543.877	28782.15
544.077	28886.6
544.277	28743.24
544.478	28776.01
544.678	28935.75
544.878	28909.13
545.078	28372.56
545.279	28634.7
545.479	28569.16
545.679	28890.7
545.879	28687.95
546.079	28601.93
546.28	28700.23
546.48	28292.69
546.68	28927.56
546.88	28804.68
547.08	28317.26
547.28	28644.94
547.48	28202.58
547.68	28776.01
547.88	28601.93
548.081	28679.75
548.281	28962.37
548.481	28671.56
548.681	28483.15
548.881	28634.7
549.081	28796.49
549.28	28919.37
549.48	28921.41
549.68	28560.97
549.88	29154.88
550.08	28653.13
550.28	28739.15
550.48	28653.13
550.68	29046.34
550.88	28626.51
551.08	28577.36
551.279	28814.92
551.479	28421.71
551.679	28778.06
551.879	28845.64
552.079	28874.31
552.278	28577.36
552.478	28974.66
552.678	28786.25
552.878	29300.29
553.077	28857.93
553.277	28720.71
553.477	29197.89
553.676	28980.81
553.876	29177.41
554.076	28669.51
554.275	28984.9
554.475	28520.01
554.674	29130.31
554.874	29079.11
555.074	28917.32
555.273	29183.55
555.473	28943.94
555.672	28900.93
555.872	28952.13
556.071	29007.43
556.271	29312.58
556.47	29050.44
556.67	28989
556.869	29138.5
557.068	29075.01
557.268	28735.05
557.467	28943.94
557.667	29349.44
557.866	28966.47
558.065	28913.22
558.265	28819.02
558.464	28694.09
558.663	29210.18
558.863	29021.77
559.062	29537.85
559.261	28796.49
559.461	29429.31
559.66	28862.02
559.859	29060.68
560.058	28765.77
560.258	29075.01
560.457	28894.79
560.656	29046.34
560.855	28995.14
561.054	29210.18
561.253	29193.79
561.453	28913.22
561.652	28896.84
561.851	28972.61
562.05	28991.05
562.249	28970.57
562.448	29343.3
562.647	28978.76
562.846	29042.24
563.045	28945.99
563.244	28689.99
563.443	28880.46
563.642	28696.14
563.841	28939.85
564.04	28569.16
564.239	29021.77
564.438	28452.43
564.637	28593.74
564.836	28982.85
565.035	28286.54
565.234	28571.21
565.432	28692.04
565.631	28485.2
565.83	28769.86
566.029	28646.99
566.228	28259.92
566.427	28280.4
566.625	27989.59
566.824	28157.52
567.023	28556.88
567.222	28077.65
567.42	28339.79
567.619	28057.17
567.818	28167.76
568.016	27979.35
568.215	28196.43
568.414	28016.21
568.612	28083.8
568.811	27895.38
569.01	28034.64
569.208	27582.04
569.407	28128.85
569.605	27364.96
569.804	27823.7
570.002	27387.49
570.201	27594.33
570.4	27455.07
570.598	27919.96
570.797	27479.64
570.995	27395.68
571.193	27039.33
571.392	27569.76
571.59	27127.39
571.789	27453.02
571.987	27201.12
572.186	27166.31
572.384	26900.07
572.582	26754.66
572.781	26865.25
572.979	26644.07
573.177	27033.19
573.376	27014.76
573.574	26637.93
573.772	27029.09
573.971	26513
574.169	26302.06
574.367	26236.53
574.565	26277.49
574.763	26310.25
574.962	26091.12
575.16	25941.62
575.358	25945.72
575.556	25699.96
575.754	26142.32
575.952	25929.33
576.151	25849.46
576.349	25622.14
576.547	25796.21
576.745	25839.22
576.943	25820.79
577.141	25773.69
577.339	25503.35
577.537	25310.85
577.735	25581.18
577.933	24878.72
578.131	25284.22
578.329	25251.45
578.527	25001.6
578.725	24811.14
578.923	25177.73
579.121	24753.8
579.319	24735.37
579.516	24815.24
579.714	24589.96
579.912	24909.44
580.11	24401.55
580.308	24704.65
580.506	24331.92
580.704	24301.2
580.901	24192.65
581.099	24270.48
581.297	23961.23
581.495	23957.14
581.692	24014.48
581.89	24012.43
582.088	24039.06
582.285	23742.1
582.483	24037.01
582.681	23750.29
582.878	23781.01
583.076	23467.67
583.274	23922.32
583.471	23049.89
583.669	23256.73
583.866	23522.97
584.064	23512.73
584.262	23017.12
584.459	23543.45
584.657	23076.51
584.854	23264.92
585.052	22832.8
585.249	23207.58
585.447	23273.12
585.644	22468.27
585.841	23068.32
586.039	22886.05
586.236	22607.53
586.434	22511.27
586.631	22556.33
586.828	22646.44
587.026	22472.36
587.223	22537.9
587.42	22628.01
587.618	22476.46
587.815	21808.82
588.012	22156.97
588.21	22224.56
588.407	22245.04
588.604	22355.63
588.801	21962.42
588.999	21952.18
589.196	21765.81
589.393	22230.7
589.59	21798.58
589.787	21814.96
589.984	22021.81
590.182	21587.64
590.379	21900.98
590.576	21606.07
590.773	21333.69
590.97	21571.25
591.167	21812.92
591.364	21311.16
591.561	21372.6
591.758	21294.78
591.955	21245.63
592.152	21552.82
592.349	21182.14
592.546	21311.16
592.743	21372.6
592.94	20868.8
593.137	21145.28
593.334	21157.57
593.531	20827.84
593.727	20967.1
593.924	21173.95
594.121	20731.59
594.318	21032.64
594.515	20909.76
594.712	21253.82
594.908	20995.78
595.105	21073.6
595.302	20848.32
595.499	20889.28
595.696	20850.37
595.892	20696.77
596.089	20991.68
596.286	20686.53
596.482	20739.78
596.679	20592.33
596.876	20926.14
597.072	20573.89
597.269	20606.66
597.466	20639.43
597.662	20664
597.859	20446.92
598.055	20543.17
598.252	20700.87
598.448	20518.6
598.645	20623.05
598.841	20319.95
599.038	20522.69
599.234	20741.83
599.431	20090.57
599.627	20522.69
599.824	20465.35
600.02	20342.47
600.217	20233.93
600.413	20463.3
600.609	20342.47
600.806	20260.55
601.002	20465.35
601.198	20354.76
601.395	20178.64
601.591	20186.83
601.787	20524.74
601.984	20123.34
602.18	20422.34
602.376	20174.54
602.572	20063.95
602.769	20016.85
602.965	20455.11
603.161	20213.45
603.357	20365
603.553	20498.12
603.75	20348.62
603.946	20160.2
604.142	20537.03
604.338	20047.57
604.534	20543.17
604.73	20195.02
604.926	20334.28
605.122	20365
605.318	20221.64
605.514	20414.15
605.71	20358.86
605.906	20389.58
606.102	20254.41
606.298	20418.25
606.494	20252.36
606.69	20305.61
606.886	20412.1
607.082	20260.55
607.278	20477.64
607.474	20285.13
607.67	20479.69
607.866	20328.14
608.062	20764.36
608.257	20723.4
608.453	20688.58
608.649	20549.32
608.845	20254.41
609.041	20201.16
609.236	20289.23
609.432	20285.13
609.628	20641.48
609.824	20672.2
610.019	20700.87
610.215	20489.93
610.411	20747.97
610.606	20633.29
610.802	20651.72
610.998	20758.21
611.193	20688.58
611.389	20577.99
611.584	20704.96
611.78	20971.2
611.976	20698.82
612.171	20762.31
612.367	20842.18
612.562	20725.44
612.758	20477.64
612.953	20481.74
613.149	20639.43
613.344	20483.78
613.539	21163.71
613.735	21003.97
613.93	21030.59
614.126	20717.25
614.321	20895.43
614.517	21001.92
614.712	20967.1
614.907	20756.16
615.103	20981.44
615.298	20950.72
615.493	21061.31
615.688	20539.08
615.884	21186.24
616.079	20426.44
616.274	20934.34
616.47	20707.01
616.665	20815.55
616.86	20586.18
617.055	20661.96
617.25	20428.49
617.445	20901.57
617.641	20258.51
617.836	20696.77
618.031	20344.52
618.226	20534.98
618.421	20416.2
618.616	20745.92
618.811	20289.23
619.006	20666.05
619.201	20141.77
619.396	20532.93
619.591	20039.37
619.786	20496.07
619.981	20152.01
620.176	20125.39
620.371	20082.38
620.566	20174.54
620.761	19633.88
620.956	19875.54
621.151	19779.28
621.346	19939.02
621.541	19556.05
621.735	20080.33
621.93	19330.78
622.125	19287.77
622.32	19195.61
622.515	19517.14
622.709	19097.31
622.904	19248.86
623.099	19085.02
623.294	19166.94
623.488	18929.38
623.683	19056.35
623.878	18704.1
624.072	18695.91
624.267	18765.54
624.462	18517.73
624.656	18513.64
624.851	18308.84
625.046	18235.11
625.24	18192.11
625.435	18079.47
625.629	18136.81
625.824	18044.65
626.018	17727.22
626.213	17551.09
626.407	17714.93
626.602	17444.6
626.796	17651.44
626.991	17643.25
627.185	17420.02
627.38	17221.37
627.574	17256.18
627.768	17016.57
627.963	16963.33
628.157	16994.04
628.352	16946.94
628.546	16594.69
628.74	16637.7
628.935	16602.88
629.129	16680.71
629.323	16592.64
629.517	16191.24
629.712	16312.07
629.906	16207.62
630.1	16062.22
630.294	16273.16
630.489	16002.83
630.683	16338.69
630.877	15779.6
631.071	15791.89
631.265	15646.48
631.459	15830.8
631.653	15413.01
631.848	15410.96
632.042	15175.45
632.236	15578.9
632.43	15437.59
632.624	15347.48
632.818	15202.07
633.012	14921.5
633.206	15034.14
633.4	14952.22
633.594	14673.7
633.788	14960.41
633.982	14651.17
634.176	14604.07
634.369	14577.44
634.563	14253.86
634.757	14415.65
634.951	14489.38
635.145	14286.63
635.339	14020.39
635.533	14126.89
635.726	14235.43
635.92	13768.49
636.114	13844.27
636.308	13791.02
636.501	13999.91
636.695	13733.68
636.889	13524.79
637.083	13535.03
637.276	13420.34
637.47	13367.09
637.664	13408.05
637.857	13436.72
638.051	13229.88
638.244	13201.21
638.438	13080.38
638.632	12873.53
638.825	12709.69
639.019	12820.28
639.212	12771.13
639.406	12611.39
639.599	12490.56
639.793	12513.09
639.986	12369.73
640.18	12392.26
640.373	12382.02
640.567	12021.58
640.76	12218.18
640.954	12230.47
641.147	12085.06
641.34	12029.77
641.534	11937.61
641.727	11951.95
641.92	11687.76
642.114	11765.58
642.307	11648.85
642.5	11743.05
642.694	11513.68
642.887	11296.6
643.08	11382.61
643.273	11317.08
643.467	11167.57
643.66	10991.45
643.853	11179.86
644.046	10927.96
644.239	11294.55
644.432	10825.56
644.626	10833.75
644.819	10766.17
645.012	10620.77
645.205	10835.8
645.398	10770.27
645.591	10522.46
645.784	10645.34
645.977	10342.24
646.17	10346.34
646.363	10456.93
646.556	10481.5
646.749	10162.02
646.942	10280.8
647.135	10002.28
647.328	10157.93
647.521	10116.97
647.714	9756.52
647.907	9617.26
648.099	10006.38
648.292	9858.92
648.485	9686.89
648.678	9500.53
648.871	9711.47
649.064	9531.25
649.256	9336.69
649.449	9490.29
649.642	9443.18
649.835	9297.78
650.027	9248.63
650.22	9213.81
650.413	9148.28
650.605	9271.15
650.798	8959.86
650.991	8863.61
651.183	8920.95
651.376	8902.52
651.568	8867.7
651.761	9039.73
651.954	8710.01
652.146	8531.84
652.339	8642.43
652.531	8812.41
652.724	8548.22
652.916	8408.96
653.109	8294.27
653.301	8423.3
653.494	8611.71
653.686	8327.04
653.879	8288.13
654.071	8230.79
654.263	8155.01
654.456	8247.17
654.648	8318.85
654.84	8142.72
655.033	7946.12
655.225	7958.41
655.417	8060.8
655.61	8023.94
655.802	8025.99
655.994	7722.89
656.186	7845.77
656.379	7817.1
656.571	7743.37
656.763	7516.05
656.955	7729.03
657.148	7569.29
657.34	7567.24
657.532	7493.52
657.724	7516.05
657.916	7475.09
658.108	7335.82
658.3	7204.75
658.492	7356.3
658.684	7327.63
658.876	7120.79
659.068	7376.78
659.26	6979.48
659.452	7073.68
659.644	7073.68
659.836	7049.11
660.028	7061.4
660.22	6934.42
660.412	6885.27
660.604	6870.94
660.796	7036.82
660.988	6899.61
661.18	6631.32
661.372	6823.83
661.563	6723.48
661.755	6631.32
661.947	6682.52
662.139	6627.23
662.331	6477.73
662.522	6356.89
662.714	6576.03
662.906	6389.66
663.097	6244.26
663.289	6389.66
663.481	6223.78
663.673	6195.11
663.864	6348.7
664.056	6098.85
664.247	6164.39
664.439	5971.88
664.631	6141.86
664.822	5902.25
665.014	5910.44
665.205	6043.56
665.397	6035.36
665.588	5877.67
665.78	5851.05
665.971	5990.31
666.163	5838.76
666.354	5900.2
666.546	5693.35
666.737	5681.07
666.929	5857.19
667.12	5758.89
667.311	5511.08
667.503	5570.47
667.694	5533.61
667.885	5552.04
668.077	5670.83
668.268	5525.42
668.459	5533.61
668.651	5470.12
668.842	5361.58
669.033	5398.45
669.224	5363.63
669.416	5552.04
669.607	5382.06
669.798	5238.7
669.989	5384.11
670.18	5197.74
670.371	5375.92
670.563	5337.01
670.754	5273.52
670.945	5199.79
671.136	5072.82
671.327	5095.35
671.518	5158.83
671.709	5228.46
671.9	5093.3
672.091	4902.84
672.282	5083.06
672.473	5017.52
672.664	5009.33
672.855	5017.52
673.046	4919.22
673.237	4968.37
673.428	4986.8
673.619	5074.87
673.809	4853.69
674	4906.93
674.191	5035.96
674.382	4853.69
674.573	4681.66
674.764	4779.96
674.954	4818.87
675.145	4702.14
675.336	4652.98
675.527	4741.05
675.717	4751.29
675.908	4704.18
676.099	4730.81
676.289	4720.57
676.48	4685.75
676.671	4599.74
676.861	4712.38
677.052	4626.36
677.243	4589.5
677.433	4562.87
677.624	4583.35
677.814	4542.39
678.005	4526.01
678.195	4501.44
678.386	4470.72
678.576	4503.48
678.767	4501.44
678.957	4472.76
679.148	4526.01
679.338	4575.16
679.529	4493.24
679.719	4423.61
679.909	4380.61
680.1	4415.42
680.29	4489.15
680.481	4442.04
680.671	4442.04
680.861	4349.89
681.052	4444.09
681.242	4290.49
681.432	4257.73
681.622	4190.14
681.813	4165.57
682.003	4323.26
682.193	4214.72
682.383	4382.65
682.573	4151.23
682.764	4231.1
682.954	4368.32
683.144	4179.9
683.334	4198.34
683.524	4231.1
683.714	4335.55
683.904	4249.54
684.094	4159.42
684.284	4132.8
684.474	4427.71
684.664	4290.49
684.854	4100.03
685.044	4091.84
685.234	3925.96
685.424	4149.18
685.614	4161.47
685.804	4018.11
685.994	4186.05
686.184	4126.66
686.374	3997.64
686.564	4009.92
686.753	4081.6
686.943	4050.88
687.133	4110.27
687.323	4018.11
687.513	4124.61
687.702	3934.15
687.892	4009.92
688.082	3987.4
688.272	3940.29
688.461	3895.24
688.651	3919.81
688.841	3870.66
689.03	3891.14
689.22	4018.11
689.41	3667.91
689.599	3872.71
689.789	3776.45
689.979	3895.24
690.168	3885
690.358	3782.6
690.547	3723.21
690.737	3891.14
690.926	3862.47
691.116	3717.06
691.305	3925.96
691.495	3739.59
691.684	3682.25
691.874	3624.9
692.063	3704.78
692.252	3616.71
692.442	3684.3
692.631	3616.71
692.82	3659.72
693.01	3678.15
693.199	3633.1
693.388	3477.45
693.578	3618.76
693.767	3651.53
693.956	3604.43
694.146	3522.51
694.335	3395.53
694.524	3475.4
694.713	3579.85
694.902	3553.23
695.092	3450.83
695.281	3520.46
695.47	3446.73
695.659	3405.77
695.848	3377.1
696.037	3397.58
696.226	3471.31
696.415	3512.27
696.604	3416.01
696.793	3510.22
696.982	3336.14
697.171	3416.01
697.36	3291.09
697.549	3325.9
697.738	3313.61
697.927	3170.26
698.116	3395.53
698.305	3358.67
698.494	3248.08
698.683	3266.51
698.872	3332.05
699.061	3350.48
699.25	3127.25
699.438	3346.38
699.627	3264.46
699.816	3340.24
700.005	3260.37
700.193	3248.08
700.382	3235.79
700.571	3282.89
700.76	3305.42
700.948	3149.78
701.137	3207.12
701.326	3200.98
701.514	3110.86
701.703	3096.53
701.892	3108.82
702.08	3219.41
702.269	3045.33
702.457	2971.6
702.646	3084.24
702.834	3074
703.023	3080.14
703.212	3067.86
703.4	3149.78
703.589	3014.61
703.777	3160.02
703.965	3131.34
704.154	3030.99
704.342	2987.99
704.531	2873.3
704.719	2873.3
704.907	3026.9
705.096	2940.88
705.284	2885.59
705.472	2957.27
705.661	2996.18
705.849	2992.08
706.037	3006.42
706.226	2889.68
706.414	2936.79
706.602	2830.29
706.79	2928.6
706.979	2871.25
707.167	2799.57
707.355	2811.86
707.543	2830.29
707.731	2832.34
707.919	2887.64
708.107	2824.15
708.296	2678.74
708.484	2781.14
708.672	2867.16
708.86	2746.33
709.048	2564.06
709.236	2723.8
709.424	2717.65
709.612	2631.64
709.8	2668.5
709.988	2779.09
710.176	2783.19
710.364	2727.89
710.551	2650.07
710.739	2701.27
710.927	2830.29
711.115	2746.33
711.303	2625.5
711.491	2684.89
711.679	2668.5
711.866	2650.07
712.054	2602.97
712.242	2568.15
712.43	2584.54
712.617	2463.71
712.805	2627.54
712.993	2578.39
713.181	2490.33
713.368	2500.57
713.556	2496.47
713.744	2527.19
713.931	2656.22
714.119	2521.05
714.306	2416.6
714.494	2445.27
714.682	2527.19
714.869	2443.23
715.057	2506.71
715.244	2437.08
715.432	2519
715.619	2600.92
715.807	2400.22
715.994	2353.12
716.182	2412.51
716.369	2441.18
716.556	2428.89
716.744	2248.67
716.931	2220
717.119	2482.14
717.306	2324.44
717.493	2346.97
717.681	2371.55
717.868	2387.93
718.055	2291.68
718.242	2265.05
718.43	2365.4
718.617	2482.14
718.804	2367.45
718.991	2367.45
719.179	2351.07
719.366	2256.86
719.553	2211.81
719.74	2314.2
719.927	2226.14
720.114	2193.37
720.301	2226.14
720.488	2201.57
720.676	2252.77
720.863	2224.09
721.05	2326.49
721.237	2176.99
721.424	2170.85
721.611	2187.23
721.798	2111.46
721.985	2193.37
722.172	2146.27
722.358	2248.67
722.545	2117.6
722.732	2160.61
722.919	2213.85
723.106	2109.41
723.293	2133.98
723.48	2086.88
723.667	2109.41
723.853	2093.02
724.04	2093.02
724.227	1968.1
724.414	2017.25
724.6	2082.78
724.787	2019.3
724.974	2023.39
725.161	2013.15
725.347	1949.67
725.534	2037.73
725.72	1972.19
725.907	2088.93
726.094	2121.7
726.28	2027.49
726.467	2007.01
726.653	1972.19
726.84	2021.35
727.027	1937.38
727.213	1988.58
727.4	2045.92
727.586	1920.99
727.773	1994.72
727.959	1953.76
728.145	1875.94
728.332	1875.94
728.518	1812.45
728.705	1949.67
728.891	1937.38
729.077	1857.51
729.264	1865.7
729.45	1847.27
729.636	1978.34
729.823	1765.35
730.009	1865.7
730.195	1863.65
730.382	1814.5
730.568	1896.42
730.754	1798.12
730.94	1808.36
731.126	1912.8
731.313	1855.46
731.499	1834.98
731.685	1851.36
731.871	1789.92
732.057	1892.32
732.243	1955.81
732.429	1816.55
732.615	1785.83
732.801	1839.08
732.987	1667.05
733.173	1826.79
733.359	1847.27
733.545	1691.62
733.731	1767.4
733.917	1818.6
734.103	1794.02
734.289	1810.4
734.475	1789.92
734.661	1814.5
734.847	1691.62
735.033	1748.97
735.219	1742.82
735.404	1771.49
735.59	1669.09
735.776	1726.44
735.962	1667.05
736.148	1685.48
736.333	1732.58
736.519	1611.75
736.705	1775.59
736.89	1761.25
737.076	1667.05
737.262	1693.67
737.447	1687.53
737.633	1718.25
737.819	1677.29
738.004	1601.51
738.19	1615.85
738.375	1574.89
738.561	1642.47
738.747	1507.31
738.932	1572.84
739.118	1636.33
739.303	1581.03
739.489	1650.66
739.674	1638.38
739.859	1411.05
740.045	1531.88
740.23	1617.9
740.416	1624.04
740.601	1476.59
740.786	1578.98
740.972	1605.61
741.157	1527.78
741.342	1535.98
741.528	1503.21
741.713	1466.35
741.898	1490.92
742.084	1554.41
742.269	1546.22
742.454	1540.07
742.639	1519.59
742.824	1456.11
743.01	1402.86
743.195	1540.07
743.38	1415.15
743.565	1366
743.75	1417.19
743.935	1511.4
744.12	1490.92
744.305	1454.06
744.49	1495.02
744.675	1296.36
744.86	1347.56
745.045	1454.06
745.23	1390.57
745.415	1374.19
745.6	1452.01
745.785	1327.08
745.97	1413.1
746.155	1273.84
746.34	1388.52
746.525	1329.13
746.71	1392.62
746.895	1288.17
747.079	1314.8
747.264	1185.77
747.449	1294.32
747.634	1232.88
747.819	1284.08
748.003	1245.17
748.188	1220.59
748.373	1253.36
748.557	1200.11
748.742	1259.5
748.927	1277.93
749.111	1189.87
749.296	1101.81
749.481	1232.88
749.665	1075.18
749.85	1167.34
750.034	1218.54
750.219	1126.38
750.404	1173.49
750.588	1146.86
750.773	1118.19
750.957	1122.29
751.141	1138.67
751.326	1056.75
751.51	1011.7
751.695	1069.04
751.879	1081.33
752.064	1112.05
752.248	1054.7
752.432	1093.62
752.617	1034.22
752.801	1130.48
752.985	1023.98
753.17	1036.27
753.354	1044.46
753.538	1101.81
753.722	1013.74
753.907	997.36
754.091	991.22
754.275	946.16
754.459	958.45
754.643	897.01
754.828	958.45
755.012	946.16
755.196	905.2
755.38	1011.7
755.564	882.67
755.748	940.02
755.932	923.63
756.116	1036.27
756.3	899.06
756.484	845.81
756.668	876.53
756.852	880.63
757.036	940.02
757.22	903.15
757.404	858.1
757.588	868.34
757.772	937.97
757.956	905.2
758.14	880.63
758.323	864.24
758.507	876.53
758.691	872.43
758.875	888.82
759.059	684.02
759.242	845.81
759.426	817.14
759.61	835.57
759.794	784.37
759.977	792.56
760.161	784.37
760.345	894.96
760.528	839.67
760.712	751.6
760.895	767.99
761.079	759.8
761.263	796.66
761.446	790.52
761.63	804.85
761.813	751.6
761.997	767.99
762.18	788.47
762.364	821.24
762.547	757.75
762.731	792.56
762.914	790.52
763.098	677.88
763.281	741.36
763.464	815.09
763.648	765.94
763.831	767.99
764.015	591.86
764.198	671.73
764.381	729.08
764.564	798.71
764.748	669.69
764.931	757.75
765.114	749.56
765.297	749.56
765.481	677.88
765.664	708.6
765.847	712.69
766.03	724.98
766.213	593.91
766.397	774.13
766.58	602.1
766.763	763.89
766.946	759.8
767.129	622.58
767.312	626.68
767.495	688.12
767.678	628.73
767.861	702.45
768.044	614.39
768.227	681.97
768.41	708.6
768.593	628.73
768.776	677.88
768.959	626.68
769.142	620.53
769.324	626.68
769.507	681.97
769.69	604.15
769.873	585.72
770.056	690.17
770.239	530.42
770.421	724.98
770.604	735.22
770.787	581.62
770.97	622.58
771.152	610.29
771.335	618.49
771.518	598.01
771.7	671.73
771.883	612.34
772.066	651.25
772.248	557.05
772.431	636.92
772.613	626.68
772.796	581.62
772.978	673.78
773.161	610.29
773.343	555
773.526	503.8
773.708	491.51
773.891	464.89
774.073	544.76
774.256	559.1
774.438	688.12
774.621	471.03
774.803	593.91
774.985	485.37
775.168	624.63
775.35	516.09
775.532	567.29
775.715	489.46
775.897	501.75
776.079	479.22
776.261	563.19
776.444	503.8
776.626	483.32
776.808	522.23
776.99	511.99
777.173	495.61
777.355	501.75
777.537	450.55
777.719	454.65
777.901	448.51
778.083	520.18
778.265	454.65
778.447	511.99
778.629	522.23
778.811	454.65
778.993	544.76
779.175	456.7
779.357	528.38
779.539	372.73
779.721	387.07
779.903	356.35
780.085	446.46
780.267	446.46
780.449	450.55
780.631	397.31
780.812	411.64
780.994	464.89
781.176	430.07
781.358	399.35
781.54	438.27
781.721	360.44
781.903	413.69
782.085	366.59
782.267	397.31
782.448	339.96
782.63	323.58
782.812	409.59
782.993	446.46
783.175	425.98
783.357	385.02
783.538	440.31
783.72	370.68
783.901	348.15
784.083	393.21
784.264	423.93
784.446	339.96
784.627	315.39
784.809	319.48
784.99	313.34
785.172	333.82
785.353	282.62
785.535	403.45
785.716	395.26
785.897	352.25
786.079	385.02
786.26	382.97
786.441	382.97
786.623	243.71
786.804	292.86
786.985	331.77
787.167	307.2
787.348	366.59
787.529	237.56
787.71	462.84
787.891	364.54
788.073	290.81
788.254	270.33
788.435	305.15
788.616	294.91
788.797	292.86
788.978	245.76
789.159	313.34
789.34	366.59
789.522	301.05
789.703	210.94
789.884	212.99
790.065	307.2
790.246	342.01
790.427	296.96
790.607	299
790.788	270.33
790.969	229.37
791.15	284.67
791.331	270.33
791.512	276.48
791.693	266.24
791.874	270.33
792.054	370.68
792.235	286.72
792.416	208.89
792.597	286.72
792.778	251.9
792.958	339.96
793.139	249.85
793.32	284.67
793.5	301.05
793.681	264.19
793.862	161.79
794.042	286.72
794.223	237.56
794.404	186.37
794.584	251.9
794.765	241.66
794.945	266.24
795.126	249.85
795.306	286.72
795.487	231.42
795.667	182.27
795.848	219.13
796.028	227.32
796.209	221.18
796.389	245.76
796.57	256
796.75	188.41
796.93	143.36
797.111	178.17
797.291	184.32
797.471	186.37
797.652	219.13
797.832	208.89
798.012	251.9
798.192	245.76
798.373	241.66
798.553	194.56
798.733	153.6
798.913	212.99
799.093	147.45
799.274	192.51
799.454	192.51
799.634	274.43
799.814	243.71
799.994	251.9
800.174	266.24
800.354	112.64
800.534	174.08
800.714	272.38
800.894	186.37
801.074	108.54
801.254	145.41
801.434	212.99
801.614	159.74
801.794	102.4
801.974	903.15
802.154	178.17
802.334	243.71
802.514	200.7
802.693	143.36
802.873	180.22
803.053	237.56
803.233	208.89
803.413	204.8
803.592	237.56
803.772	79.87
803.952	151.55
804.131	126.97
804.311	192.51
804.491	225.28
804.67	147.45
804.85	118.78
805.03	161.79
805.209	161.79
805.389	157.69
805.568	124.93
805.748	86.01
805.928	165.89
806.107	131.07
806.287	188.41
806.466	184.32
806.646	172.03
806.825	143.36
807.004	153.6
807.184	145.41
807.363	208.89
807.543	167.93
807.722	104.45
807.901	184.32
808.081	165.89
808.26	49.15
808.439	96.25
808.619	159.74
808.798	176.13
808.977	153.6
809.156	143.36
809.336	129.02
809.515	122.88
809.694	61.44
809.873	49.15
810.052	135.17
810.231	145.41
810.411	102.4
810.59	178.17
810.769	172.03
810.948	212.99
811.127	108.54
811.306	126.97
811.485	145.41
811.664	176.13
811.843	94.21
812.022	122.88
812.201	184.32
812.38	167.93
812.559	-8.19
812.737	122.88
812.916	14.34
813.095	176.13
813.274	55.3
813.453	172.03
813.632	77.82
813.811	96.25
813.989	102.4
814.168	102.4
814.347	63.49
814.526	112.64
814.704	145.41
814.883	192.51
815.062	77.82
815.24	114.69
815.419	104.45
815.598	59.39
815.776	131.07
815.955	94.21
816.133	0
816.312	12.29
816.49	129.02
816.669	45.06
816.847	102.4
817.026	145.41
817.204	94.21
817.383	143.36
817.561	155.65
817.74	106.49
817.918	118.78
818.097	149.5
818.275	186.37
818.453	180.22
818.632	131.07
818.81	63.49
818.988	65.54
819.167	61.44
819.345	92.16
819.523	47.1
819.701	18.43
819.879	122.88
820.058	118.78
820.236	167.93
820.414	88.06
820.592	94.21
820.77	120.83
820.948	86.01
821.127	106.49
821.305	61.44
821.483	88.06
821.661	184.32
821.839	45.06
822.017	120.83
822.195	100.35
822.373	167.93
822.551	122.88
822.729	143.36
822.907	71.68
823.085	151.55
823.262	55.3
823.44	36.86
823.618	61.44
823.796	47.1
823.974	137.21
824.152	22.53
824.329	92.16
824.507	120.83
824.685	-8.19
824.863	94.21
825.04	88.06
825.218	73.73
825.396	92.16
825.574	61.44
825.751	-16.38
825.929	143.36
826.107	77.82
826.284	169.98
826.462	169.98
826.639	112.64
826.817	28.67
826.994	122.88
827.172	40.96
827.349	131.07
827.527	114.69
827.704	159.74
827.882	45.06
828.059	102.4
828.237	45.06
828.414	131.07
828.591	49.15
828.769	20.48
828.946	63.49
829.124	102.4
829.301	110.59
829.478	20.48
829.655	124.93
829.833	145.41
830.01	57.34
830.187	75.77
830.364	135.17
830.542	47.1
830.719	57.34
830.896	75.77
831.073	61.44
831.25	69.63
831.427	81.92
831.604	32.77
831.782	-18.43
831.959	75.77
832.136	106.49
832.313	77.82
832.49	45.06
832.667	94.21
832.844	145.41
833.021	90.11
833.198	106.49
833.374	55.3
833.551	100.35
833.728	57.34
833.905	86.01
834.082	47.1
834.259	118.78
834.436	-83.97
834.612	-12.29
834.789	106.49
834.966	73.73
835.143	88.06
835.319	102.4
835.496	86.01
835.673	86.01
835.85	120.83
836.026	69.63
836.203	45.06
836.38	75.77
836.556	47.1
836.733	36.86
836.909	110.59
837.086	53.25
837.262	86.01
837.439	28.67
837.616	53.25
837.792	28.67
837.968	16.38
838.145	-10.24
838.321	36.86
838.498	59.39
838.674	-22.53
838.851	12.29
839.027	18.43
839.203	106.49
839.38	81.92
839.556	24.58
839.732	65.54
839.909	30.72
840.085	102.4
840.261	45.06
840.437	20.48
840.614	18.43
840.79	79.87
840.966	40.96
841.142	53.25
841.318	4.1
841.494	57.34
841.671	98.3
841.847	53.25
842.023	75.77
842.199	77.82
842.375	75.77
842.551	6.14
842.727	16.38
842.903	24.58
843.079	-51.2
843.255	92.16
843.431	26.62
843.607	51.2
843.783	30.72
843.959	36.86
844.134	-26.62
844.31	86.01
844.486	10.24
844.662	38.91
844.838	18.43
845.013	79.87
845.189	57.34
845.365	-4.1
845.541	49.15
845.716	45.06
845.892	47.1
846.068	36.86
846.244	-24.58
846.419	69.63
846.595	-28.67
846.77	-20.48
846.946	79.87
847.122	-8.19
847.297	-45.06
847.473	86.01
847.648	-4.1
847.824	79.87
847.999	22.53
848.175	53.25
848.35	47.1
848.526	36.86
848.701	12.29
848.876	43.01
849.052	81.92
849.227	79.87
849.403	16.38
849.578	77.82
849.753	26.62
849.929	61.44
850.104	63.49
850.279	45.06
850.454	-6.14
850.63	63.49
850.805	28.67
850.98	-12.29
851.155	-40.96
851.33	30.72
851.505	-4.1
851.681	102.4
851.856	20.48
852.031	65.54
852.206	16.38
852.381	-49.15
852.556	36.86
852.731	73.73
852.906	143.36
853.081	40.96
853.256	65.54
853.431	28.67
853.606	-45.06
853.781	-20.48
853.956	-40.96
854.131	57.34
854.305	8.19
854.48	61.44
854.655	6.14
854.83	24.58
855.005	75.77
855.18	49.15
855.354	-12.29
855.529	40.96
855.704	51.2
855.879	-10.24
856.053	-20.48
856.228	22.53
856.403	-6.14
856.577	94.21
856.752	-83.97
856.926	8.19
857.101	45.06
857.276	112.64
857.45	36.86
857.625	53.25
857.799	36.86
857.974	55.3
858.148	-4.1
858.323	30.72
858.497	8.19
858.672	40.96
858.846	16.38
859.02	79.87
859.195	-49.15
859.369	61.44
859.543	-8.19
859.718	0
859.892	28.67
860.066	36.86
860.241	30.72
860.415	12.29
860.589	59.39
860.763	12.29
860.938	10.24
861.112	-4.1
861.286	53.25
861.46	-28.67
861.634	-8.19
861.808	71.68
861.982	14.34
862.157	28.67
862.331	20.48
862.505	34.82
862.679	-40.96
862.853	20.48
863.027	0
863.201	69.63
863.375	0
863.549	20.48
863.722	18.43
863.896	36.86
864.07	-14.34
864.244	-18.43
864.418	71.68
864.592	-24.58
864.766	20.48
864.939	-4.1
865.113	-28.67
865.287	36.86
865.461	0
865.634	4.1
865.808	16.38
865.982	51.2
866.156	-69.63
866.329	-53.25
866.503	-12.29
866.676	8.19
866.85	-4.1
867.024	28.67
867.197	24.58
867.371	36.86
867.544	45.06
867.718	-4.1
867.891	30.72
868.065	-10.24
868.238	28.67
868.412	47.1
868.585	6.14
868.759	-18.43
868.932	-43.01
869.105	-8.19
869.279	53.25
869.452	53.25
869.625	61.44
869.799	-69.63
869.972	-28.67
870.145	57.34
870.319	-2.05
870.492	-12.29
870.665	28.67
870.838	61.44
871.011	-26.62
871.185	45.06
871.358	28.67
871.531	-30.72
871.704	-20.48
871.877	-4.1
872.05	10.24
872.223	-69.63
872.396	-20.48
872.569	20.48
872.742	-40.96
872.915	0
873.088	12.29
873.261	26.62
873.434	6.14
873.607	69.63
873.78	36.86
873.953	8.19
874.126	57.34
874.299	0
874.471	20.48
874.644	8.19
874.817	86.01
874.99	102.4
875.163	24.58
875.335	-2.05
875.508	69.63
875.681	40.96
875.853	-26.62
876.026	28.67
876.199	53.25
876.371	32.77
876.544	36.86
876.717	-24.58
876.889	-22.53
877.062	-61.44
877.234	-30.72
877.407	-2.05
877.579	-40.96
877.752	-43.01
877.924	59.39
878.097	-30.72
878.269	57.34
878.442	-6.14
878.614	6.14
878.786	-30.72
878.959	20.48
879.131	-18.43
879.303	-28.67
879.476	79.87
879.648	108.54
879.82	6.14
879.993	-12.29
880.165	32.77
880.337	40.96
880.509	2.05
880.681	20.48
880.854	-28.67
881.026	69.63
881.198	30.72
881.37	43.01
881.542	-10.24
881.714	55.3
881.886	53.25
882.058	-4.1
882.23	45.06
882.402	6.14
882.574	24.58
882.746	67.58
882.918	61.44
883.09	-16.38
883.262	28.67
883.434	0
883.606	-65.53
883.778	57.34
883.95	73.73
884.122	-28.67
884.293	57.34
884.465	8.19
884.637	110.59
884.809	-14.34
884.98	16.38
885.152	14.34
885.324	-12.29
885.496	-49.15
885.667	-36.86
885.839	10.24
886.011	96.25
886.182	4.1
886.354	36.86
886.525	-71.68
886.697	49.15
886.869	-40.96
887.04	-18.43
887.212	30.72
887.383	14.34
887.555	34.82
887.726	-2.05
887.897	8.19
888.069	57.34
888.24	102.4
888.412	24.58
888.583	-4.1
888.754	-12.29
888.926	-8.19
889.097	-16.38
889.268	-4.1
889.44	-24.58
889.611	-45.06
889.782	-16.38
889.953	-61.44
890.125	96.25
890.296	81.92
890.467	4.1
890.638	45.06
890.809	-12.29
890.98	4.1
891.151	61.44
891.323	18.43
891.494	30.72
891.665	55.3
891.836	12.29
892.007	-12.29
892.178	34.82
892.349	-69.63
892.52	0
892.691	-4.1
892.862	12.29
893.032	-32.77
893.203	53.25
893.374	30.72
893.545	45.06
893.716	28.67
893.887	-28.67
894.057	4.1
894.228	12.29
894.399	-69.63
894.57	-20.48
894.74	47.1
894.911	18.43
895.082	-10.24
895.253	12.29
895.423	59.39
895.594	34.82
895.764	-20.48
895.935	4.1
896.106	57.34
896.276	-2.05
896.447	-10.24
896.617	32.77
896.788	4.1
896.958	-43.01
897.129	69.63
897.299	4.1
897.47	53.25
897.64	32.77
897.81	18.43
897.981	53.25
898.151	-51.2
898.322	102.4
898.492	67.58
898.662	61.44
898.832	4.1
899.003	12.29
899.173	22.53
899.343	-8.19
899.513	-2.05
