Data from USB4F104151__214__14-33-32-596.txt Node

Date: Thu Mar 13 14:33:32 EDT 2025
User: louis
Spectrometer: USB4F10415
Trigger mode: 4
Integration Time (sec): 2.500000E-2
Scans to average: 1
Electric dark correction enabled: true
Nonlinearity correction enabled: false
Boxcar width: 0
XAxis mode: Wavelengths
Number of Pixels in Spectrum: 3648
>>>>>Begin Spectral Data<<<<<
178.204	-108.2
178.424	-108.2
178.644	-108.2
178.864	-120.49
179.084	-206.5
179.304	-36.52
179.524	4.44
179.744	24.92
179.964	18.77
180.184	-5.8
180.404	-20.14
180.624	-13.99
180.844	18.77
181.064	-34.47
181.283	8.53
181.503	-34.47
181.723	69.97
181.943	-7.85
182.163	-13.99
182.383	51.54
182.602	72.02
182.822	72.02
183.042	18.77
183.262	14.68
183.482	-11.95
183.701	49.49
183.921	49.49
184.141	-87.72
184.361	18.77
184.58	26.96
184.8	29.01
185.02	100.69
185.239	55.64
185.459	51.54
185.679	24.92
185.898	57.68
186.118	31.06
186.338	37.2
186.557	18.77
186.777	-5.8
186.997	10.58
187.216	-13.99
187.436	35.16
187.655	-22.19
187.875	-5.8
188.095	-54.95
188.314	149.84
188.534	76.12
188.753	31.06
188.973	49.49
189.192	129.36
189.412	26.96
189.631	22.87
189.851	37.2
190.07	76.12
190.29	-5.8
190.509	6.49
190.729	-3.75
190.948	61.78
191.168	153.94
191.387	39.25
191.607	-16.04
191.826	39.25
192.045	35.16
192.265	49.49
192.484	-5.8
192.704	35.16
192.923	4.44
193.142	94.55
193.362	104.79
193.581	86.36
193.8	8.53
194.02	100.69
194.239	86.36
194.458	53.59
194.678	84.31
194.897	53.59
195.116	0.34
195.335	53.59
195.555	37.2
195.774	69.97
195.993	55.64
196.212	18.77
196.432	37.2
196.651	-1.71
196.87	-1.71
197.089	55.64
197.308	-13.99
197.528	51.54
197.747	-13.99
197.966	8.53
198.185	158.03
198.404	-22.19
198.623	59.73
198.842	72.02
199.062	74.07
199.281	160.08
199.5	-11.95
199.719	100.69
199.938	88.4
200.157	18.77
200.376	115.03
200.595	55.64
200.814	26.96
201.033	43.35
201.252	84.31
201.471	26.96
201.69	96.6
201.909	53.59
202.128	37.2
202.347	63.83
202.566	14.68
202.785	18.77
203.004	-38.57
203.223	141.65
203.442	47.44
203.661	8.53
203.879	-36.52
204.098	61.78
204.317	86.36
204.536	74.07
204.755	6.49
204.974	43.35
205.193	43.35
205.411	96.6
205.63	51.54
205.849	110.93
206.068	12.63
206.287	-5.8
206.505	96.6
206.724	47.44
206.943	18.77
207.162	26.96
207.381	18.77
207.599	12.63
207.818	6.49
208.037	35.16
208.255	4.44
208.474	20.82
208.693	-3.75
208.911	86.36
209.13	45.4
209.349	80.21
209.567	67.92
209.786	164.18
210.005	84.31
210.223	63.83
210.442	-85.67
210.661	-22.19
210.879	47.44
211.098	74.07
211.316	45.4
211.535	115.03
211.753	26.96
211.972	86.36
212.191	-1.71
212.409	92.5
212.628	67.92
212.846	-22.19
213.065	117.08
213.283	59.73
213.502	65.88
213.72	53.59
213.938	92.5
214.157	-16.04
214.375	59.73
214.594	2.39
214.812	67.92
215.031	76.12
215.249	69.97
215.467	65.88
215.686	78.16
215.904	45.4
216.122	63.83
216.341	51.54
216.559	76.12
216.778	102.74
216.996	92.5
217.214	57.68
217.432	-11.95
217.651	31.06
217.869	16.73
218.087	-63.15
218.306	-11.95
218.524	84.31
218.742	-3.75
218.96	69.97
219.179	37.2
219.397	-13.99
219.615	67.92
219.833	112.98
220.051	0.34
220.27	47.44
220.488	78.16
220.706	35.16
220.924	18.77
221.142	63.83
221.36	18.77
221.578	10.58
221.796	33.11
222.015	-38.57
222.233	22.87
222.451	26.96
222.669	14.68
222.887	49.49
223.105	-30.38
223.323	-22.19
223.541	-42.67
223.759	12.63
223.977	61.78
224.195	80.21
224.413	80.21
224.631	31.06
224.849	12.63
225.067	117.08
225.285	-5.8
225.503	80.21
225.721	14.68
225.939	67.92
226.157	96.6
226.375	178.51
226.592	-20.14
226.81	41.3
227.028	69.97
227.246	147.8
227.464	20.82
227.682	72.02
227.9	117.08
228.117	53.59
228.335	51.54
228.553	49.49
228.771	31.06
228.989	59.73
229.206	10.58
229.424	29.01
229.642	35.16
229.86	59.73
230.077	96.6
230.295	18.77
230.513	72.02
230.731	104.79
230.948	155.99
231.166	172.37
231.384	35.16
231.601	10.58
231.819	127.32
232.037	-9.9
232.254	-5.8
232.472	29.01
232.689	10.58
232.907	61.78
233.125	31.06
233.342	26.96
233.56	-61.1
233.777	63.83
233.995	20.82
234.213	86.36
234.43	67.92
234.648	24.92
234.865	4.44
235.083	35.16
235.3	2.39
235.518	112.98
235.735	-30.38
235.953	53.59
236.17	-44.71
236.388	76.12
236.605	37.2
236.822	49.49
237.04	29.01
237.257	67.92
237.475	-38.57
237.692	37.2
237.909	49.49
238.127	-20.14
238.344	26.96
238.562	35.16
238.779	-30.38
238.996	22.87
239.214	59.73
239.431	55.64
239.648	43.35
239.865	129.36
240.083	51.54
240.3	10.58
240.517	10.58
240.735	39.25
240.952	92.5
241.169	26.96
241.386	61.78
241.603	14.68
241.821	4.44
242.038	117.08
242.255	-36.52
242.472	72.02
242.689	35.16
242.907	-9.9
243.124	67.92
243.341	14.68
243.558	57.68
243.775	-11.95
243.992	84.31
244.209	-22.19
244.426	72.02
244.643	94.55
244.86	69.97
245.078	84.31
245.295	-40.62
245.512	72.02
245.729	20.82
245.946	57.68
246.163	26.96
246.38	86.36
246.597	20.82
246.814	106.84
247.031	55.64
247.248	20.82
247.464	12.63
247.681	59.73
247.898	106.84
248.115	37.2
248.332	16.73
248.549	-5.8
248.766	133.46
248.983	35.16
249.2	61.78
249.417	92.5
249.633	51.54
249.85	78.16
250.067	92.5
250.284	14.68
250.501	92.5
250.717	82.26
250.934	-93.87
251.151	29.01
251.368	4.44
251.585	-9.9
251.801	61.78
252.018	65.88
252.235	-5.8
252.451	-26.28
252.668	37.2
252.885	45.4
253.102	65.88
253.318	0.34
253.535	43.35
253.752	29.01
253.968	4.44
254.185	-11.95
254.401	92.5
254.618	63.83
254.835	47.44
255.051	76.12
255.268	106.84
255.484	49.49
255.701	-13.99
255.917	69.97
256.134	59.73
256.351	67.92
256.567	8.53
256.784	43.35
257	-13.99
257.217	59.73
257.433	90.45
257.65	98.64
257.866	112.98
258.082	72.02
258.299	-50.86
258.515	-3.75
258.732	45.4
258.948	4.44
259.165	82.26
259.381	-5.8
259.597	39.25
259.814	108.88
260.03	112.98
260.246	6.49
260.463	162.13
260.679	92.5
260.895	37.2
261.112	100.69
261.328	51.54
261.544	-36.52
261.761	100.69
261.977	78.16
262.193	43.35
262.409	61.78
262.626	67.92
262.842	37.2
263.058	49.49
263.274	45.4
263.49	14.68
263.707	76.12
263.923	84.31
264.139	57.68
264.355	69.97
264.571	26.96
264.787	82.26
265.004	51.54
265.22	8.53
265.436	78.16
265.652	61.78
265.868	47.44
266.084	41.3
266.3	51.54
266.516	-3.75
266.732	78.16
266.948	76.12
267.164	37.2
267.38	84.31
267.596	26.96
267.812	151.89
268.028	82.26
268.244	18.77
268.46	94.55
268.676	0.34
268.892	69.97
269.108	10.58
269.324	-5.8
269.54	43.35
269.756	96.6
269.972	74.07
270.188	53.59
270.403	26.96
270.619	41.3
270.835	92.5
271.051	80.21
271.267	29.01
271.483	35.16
271.698	4.44
271.914	43.35
272.13	88.4
272.346	92.5
272.562	-16.04
272.777	108.88
272.993	29.01
273.209	-42.67
273.425	-9.9
273.64	51.54
273.856	-1.71
274.072	29.01
274.287	-20.14
274.503	59.73
274.719	57.68
274.934	100.69
275.15	45.4
275.366	63.83
275.581	22.87
275.797	-1.71
276.012	110.93
276.228	-22.19
276.444	35.16
276.659	100.69
276.875	-32.43
277.09	51.54
277.306	26.96
277.521	14.68
277.737	10.58
277.952	78.16
278.168	63.83
278.383	12.63
278.599	6.49
278.814	80.21
279.03	94.55
279.245	51.54
279.461	31.06
279.676	76.12
279.892	22.87
280.107	69.97
280.322	-9.9
280.538	90.45
280.753	-30.38
280.969	117.08
281.184	-30.38
281.399	168.27
281.615	94.55
281.83	37.2
282.045	51.54
282.26	22.87
282.476	16.73
282.691	51.54
282.906	-11.95
283.122	78.16
283.337	22.87
283.552	67.92
283.767	-34.47
283.983	2.39
284.198	92.5
284.413	63.83
284.628	-18.09
284.843	37.2
285.058	-9.9
285.274	-5.8
285.489	-18.09
285.704	53.59
285.919	65.88
286.134	92.5
286.349	26.96
286.564	92.5
286.779	35.16
286.995	84.31
287.21	26.96
287.425	94.55
287.64	-36.52
287.855	67.92
288.07	10.58
288.285	67.92
288.5	59.73
288.715	92.5
288.93	2.39
289.145	63.83
289.36	72.02
289.575	76.12
289.79	78.16
290.004	-3.75
290.219	117.08
290.434	33.11
290.649	117.08
290.864	10.58
291.079	-5.8
291.294	108.88
291.509	100.69
291.724	31.06
291.938	57.68
292.153	78.16
292.368	78.16
292.583	106.84
292.798	47.44
293.012	76.12
293.227	18.77
293.442	67.92
293.657	117.08
293.871	72.02
294.086	35.16
294.301	86.36
294.516	117.08
294.73	4.44
294.945	59.73
295.16	47.44
295.374	55.64
295.589	141.65
295.804	84.31
296.018	59.73
296.233	76.12
296.447	51.54
296.662	12.63
296.877	92.5
297.091	80.21
297.306	45.4
297.52	84.31
297.735	10.58
297.949	4.44
298.164	37.2
298.378	-28.33
298.593	26.96
298.807	92.5
299.022	133.46
299.236	55.64
299.451	26.96
299.665	-20.14
299.88	2.39
300.094	14.68
300.309	82.26
300.523	76.12
300.737	39.25
300.952	-28.33
301.166	-9.9
301.381	45.4
301.595	78.16
301.809	-9.9
302.024	86.36
302.238	92.5
302.452	151.89
302.667	26.96
302.881	92.5
303.095	22.87
303.309	2.39
303.524	-20.14
303.738	41.3
303.952	76.12
304.166	67.92
304.381	-38.57
304.595	137.56
304.809	-5.8
305.023	63.83
305.237	78.16
305.452	4.44
305.666	51.54
305.88	45.4
306.094	33.11
306.308	47.44
306.522	10.58
306.736	84.31
306.95	72.02
307.164	63.83
307.379	20.82
307.593	96.6
307.807	82.26
308.021	74.07
308.235	59.73
308.449	-11.95
308.663	35.16
308.877	108.88
309.091	-32.43
309.305	80.21
309.519	-85.67
309.733	80.21
309.947	-9.9
310.161	84.31
310.374	8.53
310.588	133.46
310.802	-42.67
311.016	35.16
311.23	41.3
311.444	22.87
311.658	88.4
311.872	153.94
312.085	100.69
312.299	-13.99
312.513	35.16
312.727	-5.8
312.941	22.87
313.154	57.68
313.368	59.73
313.582	82.26
313.796	41.3
314.009	18.77
314.223	125.27
314.437	78.16
314.651	33.11
314.864	47.44
315.078	112.98
315.292	20.82
315.505	-26.28
315.719	51.54
315.933	63.83
316.146	39.25
316.36	-69.29
316.573	37.2
316.787	84.31
317.001	53.59
317.214	2.39
317.428	67.92
317.641	69.97
317.855	20.82
318.068	18.77
318.282	88.4
318.495	108.88
318.709	39.25
318.922	67.92
319.136	115.03
319.349	78.16
319.563	61.78
319.776	37.2
319.99	51.54
320.203	31.06
320.417	2.39
320.63	88.4
320.843	20.82
321.057	31.06
321.27	12.63
321.483	84.31
321.697	119.12
321.91	76.12
322.124	61.78
322.337	90.45
322.55	53.59
322.763	29.01
322.977	88.4
323.19	55.64
323.403	92.5
323.617	69.97
323.83	53.59
324.043	51.54
324.256	108.88
324.469	-34.47
324.683	115.03
324.896	86.36
325.109	10.58
325.322	29.01
325.535	104.79
325.748	108.88
325.962	39.25
326.175	-1.71
326.388	127.32
326.601	80.21
326.814	82.26
327.027	69.97
327.24	47.44
327.453	-7.85
327.666	57.68
327.879	82.26
328.092	117.08
328.305	82.26
328.518	37.2
328.731	-40.62
328.944	35.16
329.157	10.58
329.37	117.08
329.583	88.4
329.796	127.32
330.009	24.92
330.222	63.83
330.435	80.21
330.648	98.64
330.861	55.64
331.073	18.77
331.286	96.6
331.499	76.12
331.712	8.53
331.925	26.96
332.138	-13.99
332.35	100.69
332.563	16.73
332.776	129.36
332.989	84.31
333.202	26.96
333.414	72.02
333.627	168.27
333.84	4.44
334.053	49.49
334.265	18.77
334.478	35.16
334.691	37.2
334.903	-46.76
335.116	51.54
335.329	53.59
335.541	65.88
335.754	67.92
335.966	-46.76
336.179	69.97
336.392	-38.57
336.604	-5.8
336.817	108.88
337.029	76.12
337.242	78.16
337.454	125.27
337.667	26.96
337.88	102.74
338.092	63.83
338.305	-34.47
338.517	-11.95
338.729	76.12
338.942	127.32
339.154	35.16
339.367	22.87
339.579	67.92
339.792	4.44
340.004	110.93
340.217	102.74
340.429	108.88
340.641	-9.9
340.854	55.64
341.066	92.5
341.278	47.44
341.491	96.6
341.703	74.07
341.915	69.97
342.128	55.64
342.34	51.54
342.552	59.73
342.764	31.06
342.977	51.54
343.189	8.53
343.401	10.58
343.613	39.25
343.826	63.83
344.038	-26.28
344.25	76.12
344.462	-5.8
344.674	26.96
344.886	72.02
345.099	112.98
345.311	53.59
345.523	102.74
345.735	-5.8
345.947	18.77
346.159	67.92
346.371	41.3
346.583	92.5
346.795	125.27
347.007	63.83
347.219	84.31
347.431	26.96
347.643	47.44
347.855	92.5
348.067	98.64
348.279	-44.71
348.491	12.63
348.703	43.35
348.915	35.16
349.127	94.55
349.339	86.36
349.551	-36.52
349.763	51.54
349.975	31.06
350.187	94.55
350.399	59.73
350.61	35.16
350.822	76.12
351.034	45.4
351.246	18.77
351.458	-9.9
351.669	43.35
351.881	76.12
352.093	74.07
352.305	80.21
352.517	133.46
352.728	76.12
352.94	67.92
353.152	108.88
353.363	112.98
353.575	78.16
353.787	57.68
353.999	96.6
354.21	96.6
354.422	29.01
354.633	31.06
354.845	43.35
355.057	-5.8
355.268	43.35
355.48	37.2
355.692	59.73
355.903	149.84
356.115	76.12
356.326	51.54
356.538	63.83
356.749	43.35
356.961	80.21
357.172	51.54
357.384	-5.8
357.595	139.6
357.807	37.2
358.018	69.97
358.23	137.56
358.441	78.16
358.653	108.88
358.864	39.25
359.075	-20.14
359.287	4.44
359.498	69.97
359.709	59.73
359.921	80.21
360.132	133.46
360.344	129.36
360.555	20.82
360.766	76.12
360.977	80.21
361.189	80.21
361.4	-13.99
361.611	127.32
361.823	143.7
362.034	53.59
362.245	12.63
362.456	31.06
362.667	59.73
362.879	26.96
363.09	53.59
363.301	-3.75
363.512	74.07
363.723	-30.38
363.935	-9.9
364.146	121.17
364.357	35.16
364.568	92.5
364.779	37.2
364.99	160.08
365.201	-16.04
365.412	129.36
365.623	-11.95
365.834	55.64
366.045	22.87
366.256	131.41
366.467	53.59
366.678	-5.8
366.889	119.12
367.1	22.87
367.311	69.97
367.522	76.12
367.733	102.74
367.944	61.78
368.155	90.45
368.366	76.12
368.577	45.4
368.788	29.01
368.999	43.35
369.209	69.97
369.42	119.12
369.631	184.66
369.842	76.12
370.053	12.63
370.264	65.88
370.474	4.44
370.685	43.35
370.896	10.58
371.107	86.36
371.317	63.83
371.528	59.73
371.739	51.54
371.95	63.83
372.16	115.03
372.371	14.68
372.582	100.69
372.792	31.06
373.003	35.16
373.214	55.64
373.424	117.08
373.635	37.2
373.846	102.74
374.056	2.39
374.267	45.4
374.477	72.02
374.688	4.44
374.898	84.31
375.109	59.73
375.319	100.69
375.53	119.12
375.74	151.89
375.951	78.16
376.161	133.46
376.372	67.92
376.582	10.58
376.793	61.78
377.003	112.98
377.214	51.54
377.424	53.59
377.635	67.92
377.845	22.87
378.055	149.84
378.266	51.54
378.476	55.64
378.686	108.88
378.897	127.32
379.107	96.6
379.317	84.31
379.528	10.58
379.738	76.12
379.948	-9.9
380.158	100.69
380.369	108.88
380.579	67.92
380.789	67.92
380.999	151.89
381.21	125.27
381.42	176.47
381.63	55.64
381.84	117.08
382.05	92.5
382.261	92.5
382.471	110.93
382.681	-30.38
382.891	84.31
383.101	76.12
383.311	-22.19
383.521	-54.95
383.731	74.07
383.941	158.03
384.151	61.78
384.361	76.12
384.571	96.6
384.781	127.32
384.991	131.41
385.201	92.5
385.411	53.59
385.621	78.16
385.831	76.12
386.041	121.17
386.251	45.4
386.461	63.83
386.671	80.21
386.881	61.78
387.091	57.68
387.301	12.63
387.511	84.31
387.72	135.51
387.93	76.12
388.14	49.49
388.35	43.35
388.56	37.2
388.769	72.02
388.979	92.5
389.189	45.4
389.399	69.97
389.609	92.5
389.818	168.27
390.028	69.97
390.238	-16.04
390.447	59.73
390.657	86.36
390.867	184.66
391.076	35.16
391.286	67.92
391.496	37.2
391.705	63.83
391.915	69.97
392.125	143.7
392.334	18.77
392.544	92.5
392.753	92.5
392.963	123.22
393.172	78.16
393.382	86.36
393.591	112.98
393.801	88.4
394.01	227.67
394.22	158.03
394.429	145.75
394.639	94.55
394.848	117.08
395.058	47.44
395.267	125.27
395.477	141.65
395.686	39.25
395.895	192.85
396.105	112.98
396.314	67.92
396.524	121.17
396.733	125.27
396.942	76.12
397.152	90.45
397.361	198.99
397.57	76.12
397.78	100.69
397.989	158.03
398.198	117.08
398.407	121.17
398.617	100.69
398.826	121.17
399.035	141.65
399.244	182.61
399.453	67.92
399.663	121.17
399.872	209.23
400.081	96.6
400.29	127.32
400.499	160.08
400.708	143.7
400.917	131.41
401.127	76.12
401.336	63.83
401.545	233.81
401.754	244.05
401.963	162.13
402.172	143.7
402.381	63.83
402.59	119.12
402.799	182.61
403.008	168.27
403.217	170.32
403.426	219.47
403.635	149.84
403.844	102.74
404.053	176.47
404.262	176.47
404.471	198.99
404.68	184.66
404.888	194.9
405.097	209.23
405.306	141.65
405.515	223.57
405.724	151.89
405.933	239.95
406.142	289.1
406.35	215.38
406.559	235.86
406.768	248.15
406.977	235.86
407.185	280.91
407.394	385.36
407.603	227.67
407.812	321.87
408.02	362.83
408.229	307.54
408.438	274.77
408.646	239.95
408.855	346.45
409.064	321.87
409.272	346.45
409.481	383.31
409.69	280.91
409.898	373.07
410.107	389.46
410.315	461.13
410.524	391.5
410.733	547.15
410.941	500.05
411.15	452.94
411.358	489.81
411.567	563.53
411.775	577.87
411.984	575.82
412.192	641.36
412.401	586.06
412.609	604.49
412.818	684.36
413.026	688.46
413.234	696.65
413.443	665.93
413.651	627.02
413.86	760.14
414.068	784.71
414.276	864.58
414.485	876.87
414.693	946.5
414.901	878.92
415.11	817.48
415.318	1030.47
415.526	948.55
415.734	985.41
415.943	1026.37
416.151	1108.29
416.359	1114.44
416.567	1118.53
416.776	1255.75
416.984	1212.74
417.192	1352
417.4	1216.83
417.608	1325.38
417.817	1372.48
418.025	1442.11
418.233	1438.02
418.441	1487.17
418.649	1526.08
418.857	1648.96
419.065	1808.7
419.273	1608
419.481	1698.11
419.689	1737.02
419.897	1929.53
420.105	2013.49
420.313	2070.84
420.521	2191.67
420.729	2101.56
420.937	2183.48
421.145	2242.87
421.353	2480.43
421.561	2545.97
421.769	2566.45
421.977	2744.62
422.185	2672.94
422.393	2853.16
422.601	3008.81
422.809	2902.31
423.017	2928.94
423.224	3035.43
423.432	3189.03
423.64	3332.39
423.848	3526.94
424.056	3598.62
424.263	3778.84
424.471	3737.88
424.679	3887.39
424.887	3938.59
425.094	4016.41
425.302	4196.63
425.51	4272.4
425.718	4360.47
425.925	4368.66
426.133	4737.29
426.341	4929.8
426.548	5069.06
426.756	5052.68
426.964	5212.42
427.171	5196.04
427.379	5527.81
427.586	5820.67
427.794	5691.65
428.001	6084.86
428.209	6306.04
428.417	6156.54
428.624	6883.56
428.832	6656.24
429.039	6799.6
429.247	6668.53
429.454	7385.32
429.662	7682.27
429.869	7354.6
430.076	7778.53
430.284	7637.22
430.491	7934.17
430.699	8343.77
430.906	8378.58
431.114	8239.32
431.321	8736.98
431.528	8849.61
431.736	9623.75
431.943	9932.99
432.15	9482.44
432.358	9955.52
432.565	10268.86
432.772	10098.88
432.979	10588.34
433.187	10750.13
433.394	10922.16
433.601	11655.33
433.808	11677.86
434.016	11612.32
434.223	12032.16
434.43	12875.92
434.637	12626.07
434.844	13357.19
435.052	13650.05
435.259	13496.46
435.466	13842.56
435.673	13484.17
435.88	14555.26
436.087	15263.85
436.294	14991.47
436.501	14635.13
436.708	14895.22
436.915	15302.76
437.122	16445.53
437.329	16287.84
437.537	16697.43
437.743	17006.67
437.95	16859.22
438.157	17893.44
438.364	18317.37
438.571	18352.19
438.778	18171.97
438.985	20017.19
439.192	19361.84
439.399	19986.47
439.606	19451.95
439.813	20672.54
440.02	21575.69
440.227	21362.7
440.433	21032.98
440.64	21704.71
440.847	21661.71
441.054	22554.62
441.261	23482.35
441.467	23187.44
441.674	24131.56
441.881	24608.73
442.088	24567.77
442.294	24356.83
442.501	25208.79
442.708	25360.34
442.914	26513.34
443.121	27647.92
443.328	26542.02
443.534	28501.92
443.741	27877.29
443.948	27254.71
444.154	29546.39
444.361	29460.37
444.568	29751.18
444.774	29470.61
444.981	29732.75
445.187	30793.6
445.394	31590.26
445.6	31407.99
445.807	34316.11
446.013	33001.31
446.22	33718.1
446.426	34963.26
446.633	35227.45
446.839	36253.48
447.046	34553.67
447.252	37054.24
447.459	36984.61
447.665	36564.78
447.871	38199.05
448.078	39788.28
448.284	38057.74
448.491	38917.89
448.697	40384.24
448.903	41367.26
449.11	41680.6
449.316	40685.29
449.522	41668.31
449.728	42489.55
449.935	43112.13
450.141	42639.05
450.347	43775.67
450.553	42323.66
450.76	42979.01
450.966	44170.93
451.172	43970.23
451.378	45149.86
451.584	44175.03
451.791	45080.23
451.997	45041.32
452.203	46173.84
452.409	45848.22
452.615	45876.89
452.821	44121.78
453.027	43189.95
453.233	45608.61
453.44	43957.94
453.646	44254.9
453.852	44560.05
454.058	45348.51
454.264	44060.34
454.47	44918.44
454.676	43501.25
454.882	45184.68
455.088	41518.81
455.294	42131.15
455.5	42694.35
455.705	42979.01
455.911	41361.12
456.117	40429.29
456.323	40349.42
456.529	37740.31
456.735	40015.6
456.941	38850.31
457.147	38033.17
457.352	36966.18
457.558	36738.85
457.764	37046.05
457.97	35852.08
458.176	35434.3
458.381	34979.65
458.587	33511.25
458.793	33525.59
458.999	31539.06
459.204	34076.49
459.41	32837.47
459.616	30680.96
459.821	31022.97
460.027	30437.25
460.233	29636.5
460.438	28751.77
460.644	28792.73
460.85	27146.17
461.055	26826.68
461.261	27234.23
461.466	25055.19
461.672	24430.56
461.878	25790.41
462.083	24010.73
462.289	23855.08
462.494	23939.05
462.7	22509.57
462.905	21893.13
463.111	22751.23
463.316	22847.48
463.522	22263.81
463.727	22245.38
463.932	22050.82
464.138	21698.57
464.343	22063.11
464.549	21100.56
464.754	21817.35
464.959	22083.59
465.165	21358.61
465.37	20635.67
465.575	20084.77
465.781	20527.13
465.986	20858.9
466.191	20146.21
466.397	20060.2
466.602	18444.35
466.807	19605.55
467.012	19449.9
467.218	19331.12
467.423	18772.02
467.628	19292.21
467.833	19740.71
468.038	19314.73
468.244	18778.17
468.449	19443.76
468.654	18835.51
468.859	18507.83
469.064	18411.58
469.269	17774.66
469.474	18108.48
469.679	18180.16
469.885	17553.48
470.09	17997.89
470.295	17573.96
470.5	17375.31
470.705	17629.26
470.91	17137.74
471.115	17006.67
471.32	17248.33
471.525	17215.57
471.73	16584.79
471.935	16914.52
472.139	16058.46
472.344	16380
472.549	15917.15
472.754	16121.95
472.959	15569
473.164	15304.81
473.369	15077.49
473.574	15732.84
473.778	15255.66
473.983	14944.37
474.188	15278.19
474.393	14794.87
474.598	14690.42
474.802	14346.36
475.007	14284.92
475.212	14272.64
475.417	13820.03
475.621	13734.02
475.826	13881.47
476.031	13453.45
476.235	13326.47
476.44	13543.56
476.645	13510.79
476.849	13232.27
477.054	13070.48
477.259	12957.84
477.463	12791.95
477.668	12511.38
477.872	13023.37
478.077	12466.33
478.282	12282.01
478.486	12161.18
478.691	12095.64
478.895	12079.26
479.1	12021.92
479.304	12044.45
479.509	11655.33
479.713	11708.58
479.918	11544.74
480.122	11241.64
480.326	11649.19
480.531	11649.19
480.735	11518.12
480.94	11266.22
481.144	11704.48
481.348	11202.73
481.553	11196.59
481.757	11073.71
481.961	11020.46
482.166	11524.26
482.37	11176.11
482.574	10997.93
482.778	10866.86
482.983	11198.63
483.187	11053.23
483.391	11249.83
483.595	11045.04
483.8	10721.46
484.004	11147.44
484.208	11116.72
484.412	10870.96
484.616	11061.42
484.821	11049.13
485.025	10631.35
485.229	10840.24
485.433	10840.24
485.637	11014.32
485.841	10821.81
486.045	10827.95
486.249	10983.6
486.453	10717.36
486.657	11038.89
486.861	11188.39
487.065	10617.01
487.269	10602.68
487.473	10750.13
487.677	10920.11
487.881	10967.21
488.085	10827.95
488.289	10936.49
488.493	10877.1
488.697	10877.1
488.901	10963.12
489.105	10811.57
489.309	10850.48
489.512	10840.24
489.716	11079.85
489.92	10719.41
490.124	10830
490.328	10950.83
490.531	10782.9
490.735	11153.58
490.939	11018.41
491.143	11147.44
491.346	11122.86
491.55	11118.76
491.754	11186.35
491.958	11292.84
492.161	11067.56
492.365	11423.91
492.569	11208.87
492.772	11360.42
492.976	11374.76
493.18	11487.4
493.383	11610.28
493.587	11741.35
493.79	11761.83
493.994	11516.07
494.197	11800.74
494.401	11929.76
494.605	11929.76
494.808	11774.11
495.012	12155.04
495.215	12060.83
495.419	11968.67
495.622	11796.64
495.825	12413.08
496.029	12316.83
496.232	12587.16
496.436	12423.32
496.639	12589.21
496.843	12724.37
497.046	12630.16
497.249	13093.01
497.453	13043.85
497.656	13148.3
497.859	13090.96
498.063	13199.5
498.266	13496.46
498.469	13379.72
498.673	13551.75
498.876	13648.01
499.079	13740.16
499.282	13947.01
499.485	14239.87
499.689	14297.21
499.892	14430.33
500.095	14440.57
500.298	14792.82
500.501	14706.8
500.705	15245.42
500.908	15298.67
501.111	15231.08
501.314	15413.35
501.517	15609.96
501.72	15747.17
501.923	15761.51
502.126	16099.42
502.329	16115.81
502.532	16193.63
502.735	16441.43
502.938	16787.54
503.141	17004.63
503.344	16943.19
503.547	17129.55
503.75	17424.46
503.953	17406.03
504.156	17805.38
504.359	17834.05
504.562	17705.03
504.765	18237.5
504.968	18540.6
505.17	18663.48
505.373	18862.13
505.576	19023.92
505.779	19251.25
505.982	19146.8
506.185	19525.68
506.387	19691.56
506.59	19726.38
506.793	20090.91
506.996	20199.46
507.198	20576.28
507.401	20639.77
507.604	21125.14
507.807	21389.33
508.009	21379.09
508.212	21387.28
508.415	21903.37
508.617	21798.92
508.82	22163.46
509.022	22294.53
509.225	22560.77
509.428	22614.01
509.63	23037.94
509.833	23132.15
510.035	23619.56
510.238	23312.37
510.44	23777.26
510.643	23957.48
510.845	24219.62
511.048	23992.3
511.25	24883.16
511.453	24600.54
511.655	25499.6
511.858	25268.18
512.06	25665.49
512.262	25417.68
512.465	25839.56
512.667	26075.08
512.87	26638.27
513.072	26372.03
513.274	27144.12
513.477	27283.38
513.679	27357.11
513.881	27916.2
514.084	28030.89
514.286	28260.26
514.488	28282.79
514.69	28827.55
514.893	29024.15
515.095	28581.79
515.297	29472.66
515.499	29161.37
515.701	29716.37
515.904	30029.71
516.106	30336.9
516.308	30330.76
516.51	30955.39
516.712	30349.19
516.914	31029.12
517.116	31465.33
517.318	31596.4
517.52	31899.5
517.722	31469.43
517.925	32163.69
518.127	32640.87
518.329	32812.9
518.531	32380.78
518.733	32706.4
518.935	33242.97
519.136	33777.49
519.338	34002.77
519.54	33781.59
519.742	34187.08
519.944	34664.26
520.146	34895.68
520.348	34893.63
520.55	35073.85
520.752	35335.99
520.954	36015.92
521.155	35575.61
521.357	36038.45
521.559	36177.71
521.761	36804.39
521.963	36605.73
522.164	36759.33
522.366	36745
522.568	37154.59
522.77	37218.08
522.971	37555.99
523.173	37584.66
523.375	37922.58
523.576	37889.81
523.778	37644.05
523.98	38389.52
524.181	38180.62
524.383	38121.23
524.584	38721.29
524.786	38770.44
524.988	38512.39
525.189	38803.21
525.391	39073.54
525.592	39169.79
525.794	39804.66
525.995	39634.68
526.197	39079.68
526.398	39696.12
526.6	39679.74
526.801	39554.81
527.003	39819
527.204	39671.54
527.406	39921.4
527.607	39847.67
527.808	40300.27
528.01	39208.7
528.211	39945.97
528.412	40556.27
528.614	39784.18
528.815	39827.19
529.016	40500.97
529.218	39827.19
529.419	40335.09
529.62	39958.26
529.822	40271.6
530.023	40257.26
530.224	40161.01
530.425	40072.95
530.626	39902.96
530.828	39880.44
531.029	40330.99
531.23	39925.49
531.431	39816.95
531.632	40083.19
531.833	40330.99
532.035	39976.69
532.236	40136.43
532.437	39810.81
532.638	39552.76
532.839	39948.02
533.04	40052.47
533.241	39814.9
533.442	40423.15
533.643	39868.15
533.844	39687.93
534.045	39765.75
534.246	39663.35
534.447	39757.56
534.648	39528.19
534.849	39581.43
535.05	39405.31
535.251	39476.99
535.451	39618.3
535.652	39110.4
535.853	39292.67
536.054	39413.5
536.255	39200.51
536.456	38932.23
536.657	39794.42
536.857	38764.29
537.058	38756.1
537.259	39532.28
537.46	39227.13
537.66	38962.95
537.861	39073.54
538.062	38678.28
538.263	38926.08
538.463	38739.72
538.664	38584.07
538.865	38778.63
539.065	38893.32
539.266	38364.94
539.466	38776.58
539.667	38027.03
539.868	38412.04
540.068	38594.31
540.269	38455.05
540.469	38786.82
540.67	38168.33
540.87	38108.94
541.071	38377.23
541.271	38137.62
541.472	38283.02
541.672	37949.2
541.873	38328.08
542.073	37601.05
542.274	38498.06
542.474	37889.81
542.675	37941.01
542.875	38401.8
543.075	38332.17
543.276	37857.04
543.476	38160.14
543.676	37965.59
543.877	37951.25
544.077	37850.9
544.277	37844.76
544.478	38145.81
544.678	37918.48
544.878	38192.91
545.078	37900.05
545.279	37646.1
545.479	37261.08
545.679	37883.67
545.879	37771.03
546.079	37695.25
546.28	37590.81
546.48	37502.75
546.68	37900.05
546.88	37832.47
547.08	37879.57
547.28	37756.69
547.48	37070.62
547.68	37977.87
547.88	37766.93
548.081	37852.95
548.281	37576.47
548.481	37797.65
548.681	37762.84
548.881	37644.05
549.081	37699.35
549.28	37637.91
549.48	38092.56
549.68	37709.59
549.88	38407.95
550.08	37709.59
550.28	38223.63
550.48	37584.66
550.68	37916.43
550.88	38014.74
551.08	37560.09
551.279	37709.59
551.479	37830.42
551.679	38072.08
551.879	37828.37
552.079	38235.92
552.278	37447.45
552.478	37902.1
552.678	37627.67
552.878	37891.86
553.077	37920.53
553.277	37725.97
553.477	38280.97
553.676	38137.62
553.876	38117.14
554.076	37879.57
554.275	38041.36
554.475	37439.26
554.674	38016.79
554.874	38221.58
555.074	37687.06
555.273	37898
555.473	38348.56
555.672	37924.63
555.872	37922.58
556.071	38428.43
556.271	38225.68
556.47	38121.23
556.67	37715.73
556.869	38045.46
557.068	38182.67
557.268	38672.14
557.467	38102.8
557.667	38436.62
557.866	37846.8
558.065	38285.07
558.265	38344.46
558.464	37926.67
558.663	38506.25
558.863	37502.75
559.062	38702.85
559.261	37820.18
559.461	38362.89
559.66	37617.43
559.859	38299.4
560.058	38049.55
560.258	38348.56
560.457	37943.06
560.656	38080.27
560.855	37877.52
561.054	38244.11
561.253	37740.31
561.453	38303.5
561.652	37941.01
561.851	37840.66
562.05	38027.03
562.249	37885.72
562.448	38338.32
562.647	38145.81
562.846	38014.74
563.045	38037.26
563.244	37480.22
563.443	38113.04
563.642	37494.55
563.841	37685.01
564.04	37482.27
564.239	37930.77
564.438	37629.72
564.637	37814.04
564.836	37449.5
565.035	37449.5
565.234	37748.5
565.432	37426.97
565.631	37394.2
565.83	37474.07
566.029	37048.1
566.228	37451.55
566.427	36767.52
566.625	36986.66
566.824	36964.13
567.023	37050.14
567.222	36790.05
567.42	37197.6
567.619	36912.93
567.818	36998.94
568.016	36751.14
568.215	37189.41
568.414	36722.47
568.612	36849.44
568.811	36241.2
569.01	36749.09
569.208	36020.02
569.407	36568.87
569.605	36165.42
569.804	36402.99
570.002	35831.6
570.201	36192.05
570.4	35559.22
570.598	35635
570.797	35807.03
570.995	35907.38
571.193	35583.8
571.392	35757.88
571.59	35471.16
571.789	35260.22
571.987	34905.92
572.186	35432.25
572.384	34946.88
572.582	35512.12
572.781	35157.82
572.979	34586.44
573.177	34760.51
573.376	34801.47
573.574	34969.41
573.772	34928.45
573.971	34223.95
574.169	34383.69
574.367	33597.27
574.565	34355.02
574.763	34350.92
574.962	33783.63
575.16	33611.6
575.358	33591.12
575.556	33488.73
575.754	34422.6
575.952	33535.83
576.151	33591.12
576.349	33232.73
576.547	32804.7
576.745	33396.57
576.943	32986.97
577.141	33259.35
577.339	32694.11
577.537	32702.31
577.735	32991.07
577.933	32583.52
578.131	32540.52
578.329	32528.23
578.527	32554.85
578.725	32464.74
578.923	32331.62
579.121	32341.86
579.319	32397.16
579.516	32104.3
579.714	32012.14
579.912	31874.93
580.11	31893.36
580.308	31940.46
580.506	31698.8
580.704	31147.9
580.901	31367.03
581.099	31547.25
581.297	31258.49
581.495	31053.69
581.692	31287.16
581.89	30955.39
582.088	31227.77
582.285	30713.73
582.483	31121.27
582.681	30951.29
582.878	30865.28
583.076	30400.39
583.274	30480.26
583.471	30193.54
583.669	30216.07
583.866	30515.08
584.064	30601.09
584.262	30076.81
584.459	30400.39
584.657	29687.7
584.854	30158.73
585.052	29333.4
585.249	30052.23
585.447	30046.09
585.644	29398.93
585.841	29589.39
586.039	29788.05
586.236	29314.97
586.434	29314.97
586.631	29243.29
586.828	29218.71
587.026	29421.46
587.223	28946.33
587.42	28874.65
587.618	29044.63
587.815	28923.8
588.012	28884.89
588.21	28784.54
588.407	29110.17
588.604	28600.22
588.801	28141.48
588.999	28616.61
589.196	28276.65
589.393	28512.16
589.59	28329.89
589.787	28049.32
589.984	27860.91
590.182	27924.4
590.379	28284.84
590.576	27987.88
590.773	28020.65
590.97	27996.07
591.167	28233.64
591.364	27314.1
591.561	27944.87
591.758	27604.91
591.955	27738.03
592.152	27832.24
592.349	27615.15
592.546	27416.5
592.743	27412.4
592.94	27125.69
593.137	27416.5
593.334	27285.43
593.531	27094.97
593.727	27422.64
593.924	27332.53
594.121	26922.94
594.318	27176.89
594.515	26793.92
594.712	27463.6
594.908	26900.41
595.105	26884.03
595.302	26875.84
595.499	27174.84
595.696	27015.1
595.892	26918.84
596.089	26836.92
596.286	26791.87
596.482	26773.44
596.679	26554.3
596.876	26611.65
597.072	26779.58
597.269	26652.61
597.466	26093.51
597.662	26736.57
597.859	26394.56
598.055	26609.6
598.252	26482.63
598.448	26429.38
598.645	26554.3
598.841	26382.27
599.038	25991.11
599.234	26802.11
599.431	26648.51
599.627	26187.72
599.824	26404.8
600.02	26230.73
600.217	26492.87
600.413	26144.71
600.609	26191.81
600.806	26226.63
601.002	26560.45
601.198	26271.68
601.395	26339.27
601.591	26341.32
601.787	26304.45
601.984	26089.42
602.18	26157
602.376	26210.25
602.572	26255.3
602.769	26695.61
602.965	26206.15
603.161	26486.72
603.357	26173.38
603.553	26283.97
603.75	26359.75
603.946	26171.33
604.142	26249.16
604.338	26050.5
604.534	26478.53
604.73	26374.08
604.926	26163.14
605.122	26367.94
605.318	26374.08
605.514	26052.55
605.71	26324.93
605.906	26365.89
606.102	26595.26
606.298	26576.83
606.494	26404.8
606.69	26705.85
606.886	26580.93
607.082	26343.36
607.278	26570.69
607.474	26324.93
607.67	26638.27
607.866	26460.1
608.062	26879.93
608.257	26607.55
608.453	26845.12
608.649	26867.64
608.845	26294.21
609.041	26699.71
609.236	26716.09
609.432	26996.67
609.628	26933.18
609.824	26582.98
610.019	26656.7
610.215	26802.11
610.411	26771.39
610.606	26767.29
610.802	26697.66
610.998	26998.71
611.193	26906.55
611.389	26562.5
611.584	26695.61
611.78	26838.97
611.976	26787.77
612.171	27199.41
612.367	27232.18
612.562	26877.88
612.758	26628.03
612.953	26570.69
613.149	27027.38
613.344	26589.12
613.539	27449.27
613.735	27156.41
613.93	27017.15
614.126	27013.05
614.321	27652.02
614.517	27297.72
614.712	27006.91
614.907	26978.23
615.103	27441.07
615.298	27015.1
615.493	27469.75
615.688	26804.16
615.884	27375.54
616.079	27117.5
616.274	26945.47
616.47	27049.91
616.665	27318.2
616.86	27070.39
617.055	27137.98
617.25	26916.79
617.445	27015.1
617.641	26521.54
617.836	27019.19
618.031	26408.9
618.226	26863.55
618.421	26826.68
618.616	26834.88
618.811	26421.19
619.006	26836.92
619.201	26253.25
619.396	26445.76
619.591	26224.58
619.786	26232.77
619.981	25956.3
620.176	26380.23
620.371	26228.68
620.566	26288.07
620.761	25812.94
620.956	26249.16
621.151	25567.18
621.346	25956.3
621.541	25509.84
621.735	25618.38
621.93	25214.93
622.125	25477.07
622.32	24913.88
622.515	25374.67
622.709	25116.63
622.904	25087.96
623.099	24788.96
623.294	24987.61
623.488	24356.83
623.683	24670.17
623.878	24639.45
624.072	24498.14
624.267	24268.77
624.462	24344.55
624.656	24258.53
624.851	24072.17
625.046	23996.39
625.24	23787.5
625.435	23764.97
625.629	23865.32
625.824	23209.97
626.018	23431.15
626.213	23130.1
626.407	23214.07
626.602	22978.55
626.796	22986.74
626.991	22661.12
627.185	22583.29
627.38	22499.33
627.574	22552.57
627.768	22140.93
627.963	21927.94
628.157	22112.26
628.352	22269.95
628.546	21995.53
628.74	21983.24
628.935	21714.95
629.129	21954.57
629.323	21125.14
629.517	21360.66
629.712	21207.06
629.906	21573.64
630.1	21010.45
630.294	21147.67
630.489	20799.51
630.683	20779.03
630.877	20461.6
631.071	20703.26
631.265	20727.83
631.459	20351.01
631.653	20273.18
631.848	20490.27
632.042	20088.87
632.236	20191.27
632.43	19990.56
632.624	20140.07
632.818	19970.08
633.012	19699.75
633.206	19769.38
633.4	19296.3
633.594	19324.97
633.788	19171.38
633.982	19343.41
634.176	19380.27
634.369	18985.01
634.563	18896.95
634.757	18843.7
634.951	18700.34
635.145	18653.24
635.339	18683.96
635.533	18380.86
635.726	18526.27
635.92	18260.03
636.114	18329.66
636.308	18153.54
636.501	18282.56
636.695	18016.32
636.889	17594.44
637.083	17684.55
637.276	17631.3
637.47	17567.82
637.664	17555.53
637.857	17285.2
638.051	17025.11
638.244	17283.15
638.438	17045.59
638.632	16959.57
638.825	16953.43
639.019	16992.34
639.212	16607.32
639.406	16476.25
639.599	16234.59
639.793	16404.57
639.986	16339.04
640.18	16232.54
640.373	16183.39
640.567	16197.73
640.76	15933.54
640.954	15915.11
641.147	15564.9
641.34	15628.39
641.534	15630.44
641.727	15566.95
641.92	15370.35
642.114	15366.25
642.307	15216.75
642.5	15073.39
642.694	14854.26
642.887	14897.27
643.08	15087.73
643.273	14784.63
643.467	14553.21
643.66	14547.06
643.853	14708.85
644.046	14200.96
644.239	14334.07
644.432	14219.39
644.626	14088.32
644.819	14157.95
645.012	14006.4
645.205	14112.89
645.398	13887.62
645.591	13561.99
645.784	13738.12
645.977	13588.61
646.17	13414.54
646.363	13281.42
646.556	13379.72
646.749	13265.03
646.942	13426.82
647.135	13287.56
647.328	13035.66
647.521	13105.29
647.714	12750.99
647.907	12925.07
648.099	12718.23
648.292	12589.21
648.485	12732.56
648.678	12470.42
648.871	12495
649.064	12431.51
649.256	12247.19
649.449	12273.82
649.642	12120.22
649.835	12181.66
650.027	11759.78
650.22	12050.59
650.413	11808.93
650.605	11741.35
650.798	11700.39
650.991	11716.77
651.183	11438.25
651.376	11573.41
651.568	11708.58
651.761	11327.66
651.954	11536.55
652.146	11344.04
652.339	11178.15
652.531	11155.63
652.724	11149.48
652.916	10963.12
653.109	11030.7
653.301	11028.65
653.494	11008.17
653.686	10885.3
653.879	10842.29
654.071	10617.01
654.263	10541.24
654.456	10500.28
654.648	10686.64
654.84	10588.34
655.033	10311.86
655.225	10559.67
655.417	10373.3
655.61	10455.22
655.802	10258.62
655.994	10160.31
656.186	9889.98
656.379	9984.19
656.571	10143.93
656.763	9910.46
656.955	9894.08
657.148	9947.33
657.34	9877.69
657.532	9562.31
657.724	9623.75
657.916	9662.66
658.108	9562.31
658.3	9474.24
658.492	9523.4
658.684	9488.58
658.876	9445.57
659.068	9562.31
659.26	9175.24
659.452	9240.78
659.644	9228.49
659.836	9009.36
660.028	9310.41
660.22	8958.16
660.412	8931.53
660.604	8616.15
660.796	8755.41
660.988	8876.24
661.18	8511.7
661.372	8577.23
661.563	8663.25
661.755	8487.12
661.947	8548.56
662.139	8464.6
662.331	8456.4
662.522	8313.05
662.714	8321.24
662.906	8308.95
663.097	8163.54
663.289	8274.14
663.481	8145.11
663.673	8141.02
663.864	8128.73
664.056	8007.9
664.247	7846.11
664.439	7735.52
664.631	7831.77
664.822	7727.33
665.014	7559.39
665.205	7661.79
665.397	7719.14
665.588	7557.35
665.78	7672.03
665.971	7571.68
666.163	7559.39
666.354	7391.46
666.546	7516.39
666.737	7121.13
666.929	7321.83
667.12	7416.04
667.311	7207.14
667.503	7133.42
667.694	7147.75
667.885	7162.09
668.077	7108.84
668.268	7090.41
668.459	7184.62
668.651	7033.07
668.842	7010.54
669.033	7035.11
669.224	6785.26
669.416	6858.99
669.607	6811.89
669.798	6689.01
669.989	6779.12
670.18	6703.34
670.371	6664.43
670.563	6523.12
670.754	6879.47
670.945	6648.05
671.136	6596.85
671.327	6541.55
671.518	6537.46
671.709	6586.61
671.9	6455.54
672.091	6516.98
672.282	6631.66
672.473	6527.22
672.664	6392.05
672.855	6228.21
673.046	6283.51
673.237	6338.8
673.428	6306.04
673.619	6185.21
673.809	6240.5
674	6144.25
674.191	6154.49
674.382	6113.53
674.573	6015.23
674.764	5916.92
674.954	5904.64
675.145	5986.55
675.336	5880.06
675.527	5781.76
675.717	6060.28
675.908	5867.77
676.099	5972.22
676.289	5894.4
676.48	5968.12
676.671	5818.62
676.861	6054.14
677.052	5753.09
677.243	5789.95
677.433	5681.41
677.624	5845.24
677.814	5785.85
678.005	5609.73
678.195	5726.46
678.386	5615.87
678.576	5671.17
678.767	5691.65
678.957	5671.17
679.148	5822.72
679.338	5650.69
679.529	5628.16
679.719	5622.02
679.909	5411.07
680.1	5640.45
680.29	5439.75
680.481	5454.08
680.671	5601.54
680.861	5601.54
681.052	5566.72
681.242	5380.36
681.432	5452.03
681.622	5300.48
681.813	5507.33
682.003	5511.43
682.193	5323.01
682.383	5437.7
682.573	5499.14
682.764	5282.05
682.954	5378.31
683.144	5380.36
683.334	5261.57
683.524	5245.19
683.714	5177.61
683.904	5155.08
684.094	5277.96
684.284	5249.29
684.474	5280
684.664	5298.44
684.854	5191.94
685.044	5302.53
685.234	5159.17
685.424	5232.9
685.614	5085.45
685.804	5247.24
685.994	5214.47
686.184	5261.57
686.374	5146.89
686.564	5097.74
686.753	5071.11
686.943	4935.95
687.133	5069.06
687.323	4985.1
687.513	5030.15
687.702	5310.72
687.892	4892.94
688.082	5030.15
688.272	5101.83
688.461	4829.45
688.651	5161.22
688.841	4876.55
689.03	4886.79
689.22	4899.08
689.41	5091.59
689.599	4966.67
689.789	4794.64
689.979	5050.63
690.168	4821.26
690.358	4901.13
690.547	4837.64
690.737	4845.84
690.926	4784.4
691.116	4663.57
691.305	4974.86
691.495	4825.36
691.684	4673.81
691.874	4671.76
692.063	4655.37
692.252	4851.98
692.442	4843.79
692.631	4675.85
692.82	4645.13
693.01	4641.04
693.199	4641.04
693.388	4587.79
693.578	4507.92
693.767	4690.19
693.956	4548.88
694.146	4589.84
694.335	4446.48
694.524	4618.51
694.713	4602.13
694.902	4696.33
695.092	4591.89
695.281	4534.54
695.47	4540.69
695.659	4501.78
695.848	4387.09
696.037	4479.25
696.226	4516.11
696.415	4442.39
696.604	4356.37
696.793	4573.46
696.982	4264.21
697.171	4434.19
697.36	4241.68
697.549	4426
697.738	4378.9
697.927	4313.36
698.116	4393.23
698.305	4460.82
698.494	4251.92
698.683	4354.32
698.872	4333.84
699.061	4368.66
699.25	4378.9
699.438	4374.8
699.627	4319.51
699.816	4274.45
700.005	4262.16
700.193	4200.73
700.382	4278.55
700.571	4188.44
700.76	4319.51
700.948	4290.84
701.137	4247.83
701.326	4151.57
701.514	4086.04
701.703	4069.66
701.892	4124.95
702.08	4217.11
702.269	4073.75
702.457	4196.63
702.646	4147.48
702.834	4090.13
703.023	4065.56
703.212	4184.34
703.4	4147.48
703.589	4075.8
703.777	4139.29
703.965	4032.79
704.154	4065.56
704.342	4000.02
704.531	3846.43
704.719	3819.8
704.907	3934.49
705.096	3864.86
705.284	3948.83
705.472	3952.92
705.661	3961.11
705.849	3967.26
706.037	3961.11
706.226	3879.19
706.414	3866.91
706.602	3830.04
706.79	3930.39
706.979	3821.85
707.167	3928.35
707.355	3713.31
707.543	3764.51
707.731	3852.57
707.919	3680.54
708.107	3701.02
708.296	3782.94
708.484	3713.31
708.672	3770.65
708.86	3655.97
709.048	3682.59
709.236	3668.25
709.424	3758.36
709.612	3664.16
709.8	3569.95
709.988	3627.29
710.176	3602.72
710.364	3655.97
710.551	3715.36
710.739	3565.85
710.927	3451.17
711.115	3569.95
711.303	3639.58
711.491	3459.36
711.679	3463.46
711.866	3389.73
712.054	3549.47
712.242	3500.32
712.43	3629.34
712.617	3610.91
712.805	3461.41
712.993	3410.21
713.181	3373.35
713.368	3569.95
713.556	3502.37
713.744	3377.44
713.931	3408.16
714.119	3414.31
714.306	3479.84
714.494	3395.87
714.682	3426.59
714.869	3348.77
715.057	3430.69
715.244	3195.17
715.432	3428.64
715.619	3434.78
715.807	3316
715.994	3184.93
716.182	3356.96
716.369	3320.1
716.556	3334.43
716.744	3277.09
716.931	3213.6
717.119	3197.22
717.306	3270.95
717.493	3227.94
717.681	3287.33
717.868	3254.56
718.055	3160.36
718.242	3313.95
718.43	3262.76
718.617	3062.05
718.804	3172.64
718.991	3084.58
719.179	3148.07
719.366	3107.11
719.553	3182.88
719.74	3070.25
719.927	3148.07
720.114	3094.82
720.301	3051.81
720.488	3074.34
720.676	3035.43
720.863	3131.69
721.05	3084.58
721.237	3068.2
721.424	3135.78
721.611	2937.13
721.798	2926.89
721.985	3025.19
722.172	2947.37
722.358	3000.62
722.545	3031.34
722.732	3127.59
722.919	3041.57
723.106	2896.17
723.293	2963.75
723.48	2906.41
723.667	2883.88
723.853	2804.01
724.04	2959.66
724.227	2869.55
724.414	2914.6
724.6	2926.89
724.787	2816.3
724.974	2922.79
725.161	2912.55
725.347	2797.87
725.534	2976.04
725.72	2869.55
725.907	2797.87
726.094	2822.44
726.28	2808.11
726.467	2738.48
726.653	2660.65
726.84	2795.82
727.027	2709.8
727.213	2658.6
727.4	2740.52
727.586	2724.14
727.773	2758.96
727.959	2722.09
728.145	2767.15
728.332	2636.08
728.518	2750.76
728.705	2773.29
728.891	2619.69
729.077	2691.37
729.264	2705.71
729.45	2711.85
729.636	2715.95
729.823	2709.8
730.009	2615.6
730.195	2652.46
730.382	2615.6
730.568	2634.03
730.754	2566.45
730.94	2746.67
731.126	2548.01
731.313	2586.93
731.499	2533.68
731.685	2472.24
731.871	2660.65
732.057	2582.83
732.243	2562.35
732.429	2459.95
732.615	2558.25
732.801	2576.69
732.987	2545.97
733.173	2494.77
733.359	2511.15
733.545	2492.72
733.731	2560.3
733.917	2462
734.103	2484.53
734.289	2451.76
734.475	2394.42
734.661	2560.3
734.847	2427.18
735.033	2398.51
735.219	2345.27
735.404	2560.3
735.59	2492.72
735.776	2439.47
735.962	2437.42
736.148	2404.66
736.333	2404.66
736.519	2410.8
736.705	2267.44
736.89	2361.65
737.076	2349.36
737.262	2306.35
737.447	2353.46
737.633	2343.22
737.819	2257.2
738.004	2318.64
738.19	2230.58
738.375	2355.51
738.561	2287.92
738.747	2261.3
738.932	2246.96
739.118	2396.46
739.303	2361.65
739.489	2330.93
739.674	2285.87
739.859	2214.2
740.045	2287.92
740.23	2222.39
740.416	2158.9
740.601	2140.47
740.786	2144.56
740.972	2105.65
741.157	2126.13
741.342	2197.81
741.528	2173.24
741.713	2242.87
741.898	2134.32
742.084	2070.84
742.269	2130.23
742.454	2158.9
742.639	2173.24
742.824	2060.6
743.01	2206
743.195	2146.61
743.38	2185.52
743.565	1978.68
743.75	2169.14
743.935	1970.49
744.12	2101.56
744.305	1954.1
744.49	1947.96
744.675	1937.72
744.86	2009.4
745.045	1935.67
745.23	1976.63
745.415	2083.13
745.6	2019.64
745.785	1964.34
745.97	2025.78
746.155	2021.69
746.34	2056.5
746.525	2029.88
746.71	1974.58
746.895	1907
747.079	1800.51
747.264	1882.42
747.449	1911.1
747.634	1806.65
747.819	1755.45
748.003	1849.66
748.188	1849.66
748.373	1780.03
748.557	1831.23
748.742	1820.99
748.927	1755.45
749.111	1829.18
749.296	1710.4
749.481	1798.46
749.665	1710.4
749.85	1595.71
750.034	1716.54
750.219	1771.83
750.404	1665.34
750.588	1675.58
750.773	1509.69
750.957	1677.63
751.141	1599.8
751.326	1718.59
751.51	1446.21
751.695	1569.09
751.879	1651
752.064	1659.2
752.248	1575.23
752.432	1605.95
752.617	1542.46
752.801	1567.04
752.985	1538.37
753.17	1624.38
753.354	1446.21
753.538	1501.5
753.722	1435.97
753.907	1487.17
754.091	1446.21
754.275	1460.54
754.459	1501.5
754.643	1354.05
754.828	1382.72
755.012	1466.69
755.196	1360.19
755.38	1423.68
755.564	1370.43
755.748	1354.05
755.932	1333.57
756.116	1407.3
756.3	1368.38
756.484	1290.56
756.668	1397.06
756.852	1337.66
757.036	1235.27
757.22	1325.38
757.404	1288.51
757.588	1263.94
757.772	1313.09
757.956	1255.75
758.14	1227.07
758.323	1304.9
758.507	1263.94
758.691	1231.17
758.875	1202.5
759.059	1284.42
759.242	1268.03
759.426	1190.21
759.61	1145.16
759.794	1167.68
759.977	1112.39
760.161	1257.79
760.345	1249.6
760.528	1073.48
760.712	1100.1
760.895	1198.4
761.079	1165.64
761.263	1161.54
761.446	1081.67
761.63	1173.83
761.813	1169.73
761.997	1071.43
762.18	1073.48
762.364	1085.76
762.547	936.26
762.731	1087.81
762.914	1079.62
763.098	989.51
763.281	1081.67
763.464	1026.37
763.648	1126.72
763.831	1050.95
764.015	973.13
764.198	1012.04
764.381	1116.48
764.564	966.98
764.748	979.27
764.931	950.6
765.114	1087.81
765.297	1034.57
765.481	979.27
765.664	956.74
765.847	993.61
766.03	987.46
766.213	909.64
766.397	962.89
766.58	987.46
766.763	977.22
766.946	993.61
767.129	977.22
767.312	911.69
767.495	969.03
767.678	923.98
767.861	987.46
768.044	969.03
768.227	950.6
768.41	909.64
768.593	932.17
768.776	950.6
768.959	919.88
769.142	872.78
769.324	921.93
769.507	829.77
769.69	911.69
769.873	891.21
770.056	954.69
770.239	850.25
770.421	960.84
770.604	854.34
770.787	866.63
770.97	864.58
771.152	928.07
771.335	880.97
771.518	848.2
771.7	829.77
771.883	887.11
772.066	805.19
772.248	862.54
772.431	887.11
772.613	788.81
772.796	837.96
772.978	907.59
773.161	887.11
773.343	801.1
773.526	766.28
773.708	825.67
773.891	758.09
774.073	799.05
774.256	764.23
774.438	786.76
774.621	700.75
774.803	817.48
774.985	749.9
775.168	751.95
775.35	821.58
775.532	690.51
775.715	682.31
775.897	811.34
776.079	702.79
776.261	665.93
776.444	692.55
776.626	665.93
776.808	741.71
776.99	676.17
777.173	680.27
777.355	780.62
777.537	717.13
777.719	698.7
777.901	682.31
778.083	710.99
778.265	584.01
778.447	706.89
778.629	641.36
778.811	770.38
778.993	665.93
779.175	741.71
779.357	584.01
779.539	592.2
779.721	698.7
779.903	743.75
780.085	594.25
780.267	594.25
780.449	612.68
780.631	649.55
780.812	702.79
780.994	653.64
781.176	584.01
781.358	561.48
781.54	545.1
781.721	586.06
781.903	526.67
782.085	577.87
782.267	586.06
782.448	563.53
782.63	452.94
782.812	571.72
782.993	502.09
783.175	639.31
783.357	545.1
783.538	553.29
783.72	579.92
783.901	526.67
784.083	639.31
784.264	573.77
784.446	510.29
784.627	485.71
784.809	528.72
784.99	461.13
785.172	512.33
785.353	493.9
785.535	471.37
785.716	504.14
785.897	489.81
786.079	436.56
786.26	477.52
786.441	489.81
786.623	457.04
786.804	436.56
786.985	342.35
787.167	459.09
787.348	397.65
787.529	446.8
787.71	563.53
787.891	446.8
788.073	399.7
788.254	411.98
788.435	504.14
788.616	467.28
788.797	426.32
788.978	493.9
789.159	395.6
789.34	381.26
789.522	461.13
789.703	444.75
789.884	411.98
790.065	438.61
790.246	461.13
790.427	454.99
790.607	387.41
790.788	381.26
790.969	346.45
791.15	362.83
791.331	338.26
791.512	358.74
791.693	362.83
791.874	395.6
792.054	457.04
792.235	422.22
792.416	287.06
792.597	256.34
792.778	340.3
792.958	395.6
793.139	395.6
793.32	401.74
793.5	444.75
793.681	239.95
793.862	354.64
794.042	305.49
794.223	307.54
794.404	315.73
794.584	309.58
794.765	254.29
794.945	405.84
795.126	342.35
795.306	379.22
795.487	366.93
795.667	239.95
795.848	301.39
796.028	315.73
796.209	317.78
796.389	297.3
796.57	313.68
796.75	274.77
796.93	299.34
797.111	248.15
797.291	313.68
797.471	301.39
797.652	334.16
797.832	252.24
798.012	274.77
798.192	291.15
798.373	155.99
798.553	278.87
798.733	348.5
798.913	366.93
799.093	233.81
799.274	256.34
799.454	319.82
799.634	256.34
799.814	315.73
799.994	227.67
800.174	291.15
800.354	280.91
800.534	223.57
800.714	299.34
800.894	264.53
801.074	264.53
801.254	309.58
801.434	313.68
801.614	254.29
801.794	182.61
801.974	942.41
802.154	176.47
802.334	215.38
802.514	242
802.693	239.95
802.873	272.72
803.053	297.3
803.233	225.62
803.413	176.47
803.592	285.01
803.772	282.96
803.952	221.52
804.131	244.05
804.311	209.23
804.491	227.67
804.67	235.86
804.85	289.1
805.03	192.85
805.209	213.33
805.389	92.5
805.568	231.76
805.748	233.81
805.928	248.15
806.107	244.05
806.287	250.19
806.466	229.71
806.646	192.85
806.825	190.8
807.004	182.61
807.184	207.19
807.363	246.1
807.543	188.75
807.722	168.27
807.901	186.71
808.081	221.52
808.26	112.98
808.439	198.99
808.619	233.81
808.798	198.99
808.977	170.32
809.156	168.27
809.336	223.57
809.515	242
809.694	141.65
809.873	94.55
810.052	209.23
810.231	231.76
810.411	141.65
810.59	256.34
810.769	158.03
810.948	207.19
811.127	135.51
811.306	153.94
811.485	186.71
811.664	153.94
811.843	174.42
812.022	125.27
812.201	227.67
812.38	149.84
812.559	160.08
812.737	217.43
812.916	176.47
813.095	149.84
813.274	176.47
813.453	231.76
813.632	160.08
813.811	184.66
813.989	76.12
814.168	133.46
814.347	47.44
814.526	168.27
814.704	162.13
814.883	190.8
815.062	100.69
815.24	219.47
815.419	151.89
815.598	166.23
815.776	123.22
815.955	158.03
816.133	162.13
816.312	147.8
816.49	184.66
816.669	121.17
816.847	96.6
817.026	170.32
817.204	153.94
817.383	125.27
817.561	133.46
817.74	141.65
817.918	135.51
818.097	153.94
818.275	143.7
818.453	125.27
818.632	137.56
818.81	209.23
818.988	65.88
819.167	151.89
819.345	125.27
819.523	186.71
819.701	143.7
819.879	155.99
820.058	78.16
820.236	96.6
820.414	137.56
820.592	190.8
820.77	162.13
820.948	84.31
821.127	80.21
821.305	149.84
821.483	47.44
821.661	235.86
821.839	59.73
822.017	125.27
822.195	98.64
822.373	166.23
822.551	112.98
822.729	106.84
822.907	125.27
823.085	158.03
823.262	117.08
823.44	67.92
823.618	121.17
823.796	108.88
823.974	72.02
824.152	92.5
824.329	51.54
824.507	168.27
824.685	168.27
824.863	135.51
825.04	198.99
825.218	55.64
825.396	137.56
825.574	35.16
825.751	125.27
825.929	129.36
826.107	53.59
826.284	108.88
826.462	59.73
826.639	158.03
826.817	117.08
826.994	61.78
827.172	108.88
827.349	133.46
827.527	69.97
827.704	92.5
827.882	174.42
828.059	139.6
828.237	51.54
828.414	125.27
828.591	41.3
828.769	63.83
828.946	127.32
829.124	106.84
829.301	135.51
829.478	67.92
829.655	160.08
829.833	104.79
830.01	26.96
830.187	92.5
830.364	123.22
830.542	-3.75
830.719	90.45
830.896	135.51
831.073	92.5
831.25	102.74
831.427	67.92
831.604	90.45
831.782	51.54
831.959	174.42
832.136	31.06
832.313	76.12
832.49	49.49
832.667	76.12
832.844	86.36
833.021	76.12
833.198	67.92
833.374	137.56
833.551	39.25
833.728	80.21
833.905	112.98
834.082	39.25
834.259	92.5
834.436	168.27
834.612	2.39
834.789	102.74
834.966	112.98
835.143	67.92
835.319	104.79
835.496	94.55
835.673	6.49
835.85	35.16
836.026	67.92
836.203	108.88
836.38	59.73
836.556	43.35
836.733	33.11
836.909	139.6
837.086	29.01
837.262	43.35
837.439	84.31
837.616	78.16
837.792	55.64
837.968	82.26
838.145	31.06
838.321	45.4
838.498	69.97
838.674	37.2
838.851	22.87
839.027	51.54
839.203	74.07
839.38	117.08
839.556	59.73
839.732	149.84
839.909	41.3
840.085	31.06
840.261	2.39
840.437	112.98
840.614	86.36
840.79	129.36
840.966	76.12
841.142	92.5
841.318	72.02
841.494	141.65
841.671	96.6
841.847	67.92
842.023	29.01
842.199	65.88
842.375	78.16
842.551	43.35
842.727	84.31
842.903	92.5
843.079	90.45
843.255	92.5
843.431	-3.75
843.607	92.5
843.783	37.2
843.959	43.35
844.134	45.4
844.31	160.08
844.486	63.83
844.662	78.16
844.838	-18.09
845.013	78.16
845.189	92.5
845.365	39.25
845.541	61.78
845.716	104.79
845.892	127.32
846.068	43.35
846.244	12.63
846.419	76.12
846.595	-1.71
846.77	47.44
846.946	96.6
847.122	84.31
847.297	10.58
847.473	121.17
847.648	0.34
847.824	104.79
847.999	-44.71
848.175	41.3
848.35	39.25
848.526	127.32
848.701	53.59
848.876	108.88
849.052	20.82
849.227	24.92
849.403	86.36
849.578	84.31
849.753	18.77
849.929	43.35
850.104	51.54
850.279	108.88
850.454	-1.71
850.63	119.12
850.805	26.96
850.98	-42.67
851.155	-18.09
851.33	55.64
851.505	53.59
851.681	112.98
851.856	67.92
852.031	100.69
852.206	22.87
852.381	2.39
852.556	102.74
852.731	131.41
852.906	47.44
853.081	67.92
853.256	90.45
853.431	76.12
853.606	-3.75
853.781	53.59
853.956	12.63
854.131	110.93
854.305	-42.67
854.48	-26.28
854.655	-1.71
854.83	2.39
855.005	31.06
855.18	67.92
855.354	-13.99
855.529	86.36
855.704	39.25
855.879	35.16
856.053	-13.99
856.228	90.45
856.403	18.77
856.577	166.23
856.752	-9.9
856.926	16.73
857.101	12.63
857.276	-24.23
857.45	-5.8
857.625	65.88
857.799	51.54
857.974	10.58
858.148	-83.63
858.323	26.96
858.497	22.87
858.672	10.58
858.846	22.87
859.02	59.73
859.195	14.68
859.369	-5.8
859.543	31.06
859.718	-1.71
859.892	-18.09
860.066	53.59
860.241	-24.23
860.415	51.54
860.589	8.53
860.763	65.88
860.938	-18.09
861.112	92.5
861.286	35.16
861.46	76.12
861.634	-9.9
861.808	78.16
861.982	35.16
862.157	59.73
862.331	20.82
862.505	-22.19
862.679	20.82
862.853	39.25
863.027	-20.14
863.201	100.69
863.375	-65.19
863.549	2.39
863.722	55.64
863.896	80.21
864.07	-52.91
864.244	12.63
864.418	43.35
864.592	-79.53
864.766	29.01
864.939	102.74
865.113	18.77
865.287	29.01
865.461	18.77
865.634	-9.9
865.808	4.44
865.982	18.77
866.156	74.07
866.329	-18.09
866.503	26.96
866.676	112.98
866.85	84.31
867.024	14.68
867.197	2.39
867.371	2.39
867.544	47.44
867.718	-87.72
867.891	43.35
868.065	18.77
868.238	26.96
868.412	63.83
868.585	4.44
868.759	-22.19
868.932	4.44
869.105	10.58
869.279	59.73
869.452	2.39
869.625	-7.85
869.799	4.44
869.972	-18.09
870.145	76.12
870.319	59.73
870.492	51.54
870.665	-30.38
870.838	-57
871.011	-54.95
871.185	18.77
871.358	-3.75
871.531	31.06
871.704	43.35
871.877	49.49
872.05	22.87
872.223	-20.14
872.396	78.16
872.569	-38.57
872.742	-26.28
872.915	26.96
873.088	43.35
873.261	29.01
873.434	41.3
873.607	-3.75
873.78	43.35
873.953	-3.75
874.126	-13.99
874.299	0.34
874.471	41.3
874.644	20.82
874.817	35.16
874.99	94.55
875.163	92.5
875.335	12.63
875.508	45.4
875.681	47.44
875.853	45.4
876.026	43.35
876.199	92.5
876.371	84.31
876.544	12.63
876.717	-3.75
876.889	-36.52
877.062	-13.99
877.234	-77.48
877.407	-30.38
877.579	55.64
877.752	45.4
877.924	2.39
878.097	53.59
878.269	51.54
878.442	-7.85
878.614	65.88
878.786	-5.8
878.959	10.58
879.131	59.73
879.303	6.49
879.476	-26.28
879.648	86.36
879.82	18.77
879.993	16.73
880.165	12.63
880.337	-5.8
880.509	12.63
880.681	-52.91
880.854	35.16
881.026	45.4
881.198	127.32
881.37	-18.09
881.542	61.78
881.714	26.96
881.886	2.39
882.058	35.16
882.23	84.31
882.402	-32.43
882.574	6.49
882.746	4.44
882.918	35.16
883.09	51.54
883.262	10.58
883.434	18.77
883.606	18.77
883.778	10.58
883.95	117.08
884.122	-20.14
884.293	-5.8
884.465	-9.9
884.637	45.4
884.809	-22.19
884.98	67.92
885.152	0.34
885.324	2.39
885.496	26.96
885.667	-34.47
885.839	-13.99
886.011	-13.99
886.182	2.39
886.354	51.54
886.525	-34.47
886.697	2.39
886.869	-11.95
887.04	2.39
887.212	86.36
887.383	92.5
887.555	-1.71
887.726	43.35
887.897	-77.48
888.069	51.54
888.24	-1.71
888.412	14.68
888.583	18.77
888.754	18.77
888.926	-38.57
889.097	31.06
889.268	59.73
889.44	35.16
889.611	-26.28
889.782	-13.99
889.953	10.58
890.125	2.39
890.296	-13.99
890.467	-75.43
890.638	-44.71
890.809	76.12
890.98	-38.57
891.151	31.06
891.323	72.02
891.494	4.44
891.665	-3.75
891.836	-5.8
892.007	-24.23
892.178	22.87
892.349	-50.86
892.52	-13.99
892.691	29.01
892.862	20.82
893.032	-7.85
893.203	86.36
893.374	-34.47
893.545	-38.57
893.716	-38.57
893.887	51.54
894.057	-46.76
894.228	10.58
894.399	18.77
894.57	67.92
894.74	-9.9
894.911	86.36
895.082	10.58
895.253	-3.75
895.423	31.06
895.594	-1.71
895.764	14.68
895.935	10.58
896.106	76.12
896.276	-97.96
896.447	92.5
896.617	6.49
896.788	69.97
896.958	26.96
897.129	-112.3
897.299	29.01
897.47	2.39
897.64	43.35
897.81	-42.67
897.981	20.82
898.151	-81.58
898.322	63.83
898.492	80.21
898.662	14.68
898.832	24.92
899.003	47.44
899.173	-22.19
899.343	6.49
899.513	10.58
