Data from USB4F104151__32__14-29-40-138.txt Node

Date: Thu Mar 13 14:29:40 EDT 2025
User: louis
Spectrometer: USB4F10415
Trigger mode: 4
Integration Time (sec): 2.500000E-2
Scans to average: 1
Electric dark correction enabled: true
Nonlinearity correction enabled: false
Boxcar width: 0
XAxis mode: Wavelengths
Number of Pixels in Spectrum: 3648
>>>>>Begin Spectral Data<<<<<
178.204	-154.45
178.424	-154.45
178.644	-154.45
178.864	-201.55
179.084	-154.45
179.304	33.96
179.524	11.43
179.744	3.24
179.964	33.96
180.184	-113.49
180.404	-62.29
180.624	3.24
180.844	-15.19
181.064	33.96
181.283	3.24
181.503	-4.95
181.723	72.87
181.943	-111.44
182.163	42.15
182.383	-7
182.602	33.96
182.822	15.53
183.042	68.78
183.262	33.96
183.482	-2.9
183.701	46.25
183.921	33.96
184.141	-4.95
184.361	52.39
184.58	38.06
184.8	-19.29
185.02	91.31
185.239	38.06
185.459	9.39
185.679	101.55
185.898	-19.29
186.118	50.35
186.338	-23.38
186.557	95.4
186.777	-47.96
186.997	105.64
187.216	5.29
187.436	72.87
187.655	-15.19
187.875	74.92
188.095	33.96
188.314	122.02
188.534	-21.33
188.753	-29.52
188.973	-15.19
189.192	-17.24
189.412	107.69
189.631	64.68
189.851	17.58
190.07	95.4
190.29	-19.29
190.509	56.49
190.729	91.31
190.948	70.83
191.168	208.04
191.387	74.92
191.607	9.39
191.826	33.96
192.045	56.49
192.265	-19.29
192.484	52.39
192.704	29.87
192.923	11.43
193.142	91.31
193.362	66.73
193.581	85.16
193.8	17.58
194.02	115.88
194.239	50.35
194.458	9.39
194.678	1.19
194.897	5.29
195.116	-35.67
195.335	-31.57
195.555	72.87
195.774	13.48
195.993	46.25
196.212	-50
196.432	74.92
196.651	7.34
196.87	46.25
197.089	115.88
197.308	13.48
197.528	52.39
197.747	-84.82
197.966	48.3
198.185	124.07
198.404	54.44
198.623	54.44
198.842	58.54
199.062	-15.19
199.281	60.59
199.5	-64.34
199.719	68.78
199.938	91.31
200.157	42.15
200.376	44.2
200.595	58.54
200.814	-29.52
201.033	36.01
201.252	29.87
201.471	-27.48
201.69	11.43
201.909	107.69
202.128	83.11
202.347	52.39
202.566	7.34
202.785	66.73
203.004	38.06
203.223	99.5
203.442	85.16
203.661	38.06
203.879	40.11
204.098	87.21
204.317	60.59
204.536	44.2
204.755	62.63
204.974	74.92
205.193	40.11
205.411	140.46
205.63	5.29
205.849	52.39
206.068	1.19
206.287	-19.29
206.505	83.11
206.724	52.39
206.943	33.96
207.162	36.01
207.381	105.64
207.599	9.39
207.818	25.77
208.037	48.3
208.255	-19.29
208.474	115.88
208.693	89.26
208.911	-64.34
209.13	101.55
209.349	87.21
209.567	107.69
209.786	1.19
210.005	105.64
210.223	76.97
210.442	13.48
210.661	58.54
210.879	7.34
211.098	-23.38
211.316	50.35
211.535	91.31
211.753	91.31
211.972	66.73
212.191	31.91
212.409	74.92
212.628	99.5
212.846	-35.67
213.065	52.39
213.283	93.35
213.502	-23.38
213.72	5.29
213.938	103.59
214.157	25.77
214.375	58.54
214.594	42.15
214.812	25.77
215.031	21.67
215.249	-47.96
215.467	25.77
215.686	-2.9
215.904	50.35
216.122	50.35
216.341	107.69
216.559	5.29
216.778	126.12
216.996	99.5
217.214	-25.43
217.432	68.78
217.651	25.77
217.869	58.54
218.087	50.35
218.306	-11.09
218.524	72.87
218.742	38.06
218.96	113.83
219.179	38.06
219.397	52.39
219.615	-23.38
219.833	27.82
220.051	-13.14
220.27	29.87
220.488	95.4
220.706	-11.09
220.924	27.82
221.142	25.77
221.36	52.39
221.578	70.83
221.796	64.68
222.015	-15.19
222.233	33.96
222.451	83.11
222.669	-47.96
222.887	85.16
223.105	52.39
223.323	36.01
223.541	-39.76
223.759	13.48
223.977	99.5
224.195	74.92
224.413	7.34
224.631	83.11
224.849	15.53
225.067	126.12
225.285	3.24
225.503	58.54
225.721	-33.62
225.939	48.3
226.157	38.06
226.375	181.42
226.592	72.87
226.81	3.24
227.028	33.96
227.246	113.83
227.464	3.24
227.682	25.77
227.9	66.73
228.117	17.58
228.335	33.96
228.553	19.63
228.771	13.48
228.989	-15.19
229.206	17.58
229.424	-21.33
229.642	72.87
229.86	17.58
230.077	27.82
230.295	-13.14
230.513	46.25
230.731	19.63
230.948	62.63
231.166	25.77
231.384	-2.9
231.601	46.25
231.819	91.31
232.037	15.53
232.254	-19.29
232.472	-27.48
232.689	-13.14
232.907	130.22
233.125	13.48
233.342	9.39
233.56	-105.3
233.777	93.35
233.995	15.53
234.213	62.63
234.43	-39.76
234.648	-27.48
234.865	66.73
235.083	115.88
235.3	58.54
235.518	-11.09
235.735	83.11
235.953	52.39
236.17	44.2
236.388	3.24
236.605	52.39
236.822	-7
237.04	3.24
237.257	27.82
237.475	29.87
237.692	85.16
237.909	1.19
238.127	42.15
238.344	58.54
238.562	50.35
238.779	74.92
238.996	66.73
239.214	58.54
239.431	-4.95
239.648	29.87
239.865	68.78
240.083	25.77
240.3	1.19
240.517	3.24
240.735	109.74
240.952	89.26
241.169	99.5
241.386	132.26
241.603	27.82
241.821	3.24
242.038	68.78
242.255	27.82
242.472	-15.19
242.689	25.77
242.907	38.06
243.124	91.31
243.341	9.39
243.558	3.24
243.775	-37.72
243.992	40.11
244.209	76.97
244.426	54.44
244.643	19.63
244.86	91.31
245.078	122.02
245.295	44.2
245.512	44.2
245.729	-7
245.946	36.01
246.163	66.73
246.38	66.73
246.597	83.11
246.814	9.39
247.031	-27.48
247.248	68.78
247.464	11.43
247.681	83.11
247.898	42.15
248.115	109.74
248.332	103.59
248.549	25.77
248.766	107.69
248.983	101.55
249.2	76.97
249.417	38.06
249.633	5.29
249.85	85.16
250.067	21.67
250.284	36.01
250.501	99.5
250.717	50.35
250.934	42.15
251.151	9.39
251.368	15.53
251.585	9.39
251.801	97.45
252.018	54.44
252.235	87.21
252.451	-9.05
252.668	50.35
252.885	107.69
253.102	21.67
253.318	97.45
253.535	-23.38
253.752	1.19
253.968	13.48
254.185	5.29
254.401	60.59
254.618	19.63
254.835	48.3
255.051	128.17
255.268	-43.86
255.484	38.06
255.701	58.54
255.917	1.19
256.134	-25.43
256.351	60.59
256.567	-52.05
256.784	103.59
257	-41.81
257.217	52.39
257.433	33.96
257.65	-23.38
257.866	72.87
258.082	17.58
258.299	1.19
258.515	40.11
258.732	40.11
258.948	-93.01
259.165	-39.76
259.381	17.58
259.597	23.72
259.814	-39.76
260.03	50.35
260.246	33.96
260.463	13.48
260.679	31.91
260.895	60.59
261.112	58.54
261.328	11.43
261.544	-11.09
261.761	42.15
261.977	81.07
262.193	33.96
262.409	50.35
262.626	74.92
262.842	25.77
263.058	5.29
263.274	72.87
263.49	60.59
263.707	29.87
263.923	66.73
264.139	-23.38
264.355	91.31
264.571	105.64
264.787	36.01
265.004	76.97
265.22	101.55
265.436	83.11
265.652	-15.19
265.868	117.93
266.084	21.67
266.3	93.35
266.516	-39.76
266.732	42.15
266.948	5.29
267.164	-11.09
267.38	93.35
267.596	-31.57
267.812	25.77
268.028	91.31
268.244	-45.91
268.46	89.26
268.676	-17.24
268.892	70.83
269.108	-72.53
269.324	25.77
269.54	-82.77
269.756	132.26
269.972	29.87
270.188	60.59
270.403	-7
270.619	52.39
270.835	60.59
271.051	46.25
271.267	9.39
271.483	101.55
271.698	62.63
271.914	83.11
272.13	-47.96
272.346	-11.09
272.562	17.58
272.777	42.15
272.993	52.39
273.209	9.39
273.425	11.43
273.64	81.07
273.856	105.64
274.072	-15.19
274.287	60.59
274.503	48.3
274.719	42.15
274.934	3.24
275.15	15.53
275.366	58.54
275.581	17.58
275.797	11.43
276.012	-15.19
276.228	134.31
276.444	-7
276.659	79.02
276.875	36.01
277.09	3.24
277.306	54.44
277.521	1.19
277.737	33.96
277.952	58.54
278.168	-11.09
278.383	23.72
278.599	36.01
278.814	66.73
279.03	31.91
279.245	62.63
279.461	42.15
279.676	44.2
279.892	-45.91
280.107	66.73
280.322	-11.09
280.538	9.39
280.753	74.92
280.969	36.01
281.184	99.5
281.399	15.53
281.615	58.54
281.83	70.83
282.045	-13.14
282.26	7.34
282.476	-19.29
282.691	48.3
282.906	91.31
283.122	25.77
283.337	3.24
283.552	60.59
283.767	-56.15
283.983	105.64
284.198	-11.09
284.413	74.92
284.628	-39.76
284.843	25.77
285.058	93.35
285.274	-39.76
285.489	-31.57
285.704	115.88
285.919	5.29
286.134	58.54
286.349	1.19
286.564	72.87
286.779	29.87
286.995	115.88
287.21	1.19
287.425	-47.96
287.64	-19.29
287.855	60.59
288.07	62.63
288.285	5.29
288.5	58.54
288.715	83.11
288.93	29.87
289.145	-86.87
289.36	46.25
289.575	-2.9
289.79	72.87
290.004	-7
290.219	76.97
290.434	27.82
290.649	95.4
290.864	-17.24
291.079	52.39
291.294	44.2
291.509	56.49
291.724	68.78
291.938	-15.19
292.153	62.63
292.368	54.44
292.583	58.54
292.798	76.97
293.012	-2.9
293.227	62.63
293.442	76.97
293.657	19.63
293.871	99.5
294.086	66.73
294.301	52.39
294.516	74.92
294.73	17.58
294.945	36.01
295.16	25.77
295.374	113.83
295.589	156.84
295.804	29.87
296.018	-2.9
296.233	160.94
296.447	107.69
296.662	1.19
296.877	93.35
297.091	3.24
297.306	19.63
297.52	9.39
297.735	52.39
297.949	79.02
298.164	3.24
298.378	7.34
298.593	-31.57
298.807	-39.76
299.022	46.25
299.236	52.39
299.451	115.88
299.665	27.82
299.88	66.73
300.094	52.39
300.309	9.39
300.523	58.54
300.737	60.59
300.952	95.4
301.166	66.73
301.381	-4.95
301.595	-0.85
301.809	-19.29
302.024	-11.09
302.238	25.77
302.452	52.39
302.667	44.2
302.881	85.16
303.095	64.68
303.309	66.73
303.524	46.25
303.738	107.69
303.952	66.73
304.166	74.92
304.381	3.24
304.595	81.07
304.809	1.19
305.023	25.77
305.237	11.43
305.452	74.92
305.666	38.06
305.88	-11.09
306.094	21.67
306.308	-37.72
306.522	58.54
306.736	25.77
306.95	58.54
307.164	85.16
307.379	107.69
307.593	60.59
307.807	99.5
308.021	54.44
308.235	1.19
308.449	-33.62
308.663	42.15
308.877	169.13
309.091	95.4
309.305	44.2
309.519	-72.53
309.733	107.69
309.947	13.48
310.161	38.06
310.374	9.39
310.588	42.15
310.802	56.49
311.016	17.58
311.23	5.29
311.444	36.01
311.658	76.97
311.872	72.87
312.085	36.01
312.299	40.11
312.513	1.19
312.727	52.39
312.941	-23.38
313.154	62.63
313.368	42.15
313.582	134.31
313.796	140.46
314.009	95.4
314.223	54.44
314.437	66.73
314.651	70.83
314.864	-60.24
315.078	1.19
315.292	-74.58
315.505	52.39
315.719	99.5
315.933	13.48
316.146	29.87
316.36	56.49
316.573	-13.14
316.787	3.24
317.001	29.87
317.214	-4.95
317.428	17.58
317.641	52.39
317.855	-39.76
318.068	25.77
318.282	17.58
318.495	68.78
318.709	44.2
318.922	50.35
319.136	76.97
319.349	42.15
319.563	1.19
319.776	19.63
319.99	-15.19
320.203	5.29
320.417	111.78
320.63	9.39
320.843	115.88
321.057	60.59
321.27	11.43
321.483	74.92
321.697	79.02
321.91	48.3
322.124	52.39
322.337	1.19
322.55	33.96
322.763	15.53
322.977	58.54
323.19	36.01
323.403	33.96
323.617	62.63
323.83	29.87
324.043	3.24
324.256	44.2
324.469	19.63
324.683	74.92
324.896	42.15
325.109	58.54
325.322	-11.09
325.535	68.78
325.748	93.35
325.962	54.44
326.175	50.35
326.388	38.06
326.601	-31.57
326.814	27.82
327.027	17.58
327.24	87.21
327.453	19.63
327.666	81.07
327.879	101.55
328.092	23.72
328.305	-13.14
328.518	58.54
328.731	-11.09
328.944	19.63
329.157	87.21
329.37	29.87
329.583	109.74
329.796	68.78
330.009	54.44
330.222	29.87
330.435	58.54
330.648	44.2
330.861	89.26
331.073	21.67
331.286	27.82
331.499	19.63
331.712	11.43
331.925	-4.95
332.138	99.5
332.35	50.35
332.563	48.3
332.776	91.31
332.989	3.24
333.202	40.11
333.414	25.77
333.627	25.77
333.84	50.35
334.053	-25.43
334.265	-13.14
334.478	48.3
334.691	33.96
334.903	85.16
335.116	66.73
335.329	64.68
335.541	48.3
335.754	83.11
335.966	-23.38
336.179	50.35
336.392	115.88
336.604	33.96
336.817	83.11
337.029	74.92
337.242	60.59
337.454	64.68
337.667	1.19
337.88	-13.14
338.092	29.87
338.305	-21.33
338.517	70.83
338.729	107.69
338.942	109.74
339.154	17.58
339.367	17.58
339.579	91.31
339.792	25.77
340.004	42.15
340.217	-23.38
340.429	33.96
340.641	25.77
340.854	-7
341.066	38.06
341.278	50.35
341.491	44.2
341.703	-7
341.915	38.06
342.128	15.53
342.34	23.72
342.552	124.07
342.764	-7
342.977	66.73
343.189	58.54
343.401	42.15
343.613	-0.85
343.826	-2.9
344.038	-2.9
344.25	68.78
344.462	29.87
344.674	87.21
344.886	56.49
345.099	17.58
345.311	107.69
345.523	13.48
345.735	33.96
345.947	79.02
346.159	91.31
346.371	68.78
346.583	29.87
346.795	113.83
347.007	83.11
347.219	25.77
347.431	13.48
347.643	66.73
347.855	29.87
348.067	132.26
348.279	29.87
348.491	83.11
348.703	33.96
348.915	33.96
349.127	52.39
349.339	91.31
349.551	1.19
349.763	29.87
349.975	38.06
350.187	115.88
350.399	87.21
350.61	42.15
350.822	107.69
351.034	40.11
351.246	50.35
351.458	3.24
351.669	38.06
351.881	103.59
352.093	58.54
352.305	76.97
352.517	64.68
352.728	42.15
352.94	115.88
353.152	111.78
353.363	1.19
353.575	33.96
353.787	58.54
353.999	83.11
354.21	128.17
354.422	-27.48
354.633	1.19
354.845	74.92
355.057	36.01
355.268	107.69
355.48	40.11
355.692	42.15
355.903	93.35
356.115	54.44
356.326	-47.96
356.538	109.74
356.749	85.16
356.961	115.88
357.172	44.2
357.384	48.3
357.595	74.92
357.807	42.15
358.018	-52.05
358.23	66.73
358.441	134.31
358.653	89.26
358.864	83.11
359.075	15.53
359.287	3.24
359.498	68.78
359.709	103.59
359.921	62.63
360.132	89.26
360.344	11.43
360.555	62.63
360.766	109.74
360.977	38.06
361.189	134.31
361.4	50.35
361.611	79.02
361.823	119.98
362.034	50.35
362.245	-2.9
362.456	87.21
362.667	7.34
362.879	107.69
363.09	-43.86
363.301	70.83
363.512	36.01
363.723	76.97
363.935	42.15
364.146	83.11
364.357	-4.95
364.568	87.21
364.779	29.87
364.99	122.02
365.201	140.46
365.412	62.63
365.623	9.39
365.834	99.5
366.045	52.39
366.256	60.59
366.467	68.78
366.678	29.87
366.889	23.72
367.1	70.83
367.311	109.74
367.522	46.25
367.733	76.97
367.944	99.5
368.155	58.54
368.366	74.92
368.577	74.92
368.788	70.83
368.999	19.63
369.209	91.31
369.42	66.73
369.631	126.12
369.842	79.02
370.053	99.5
370.264	74.92
370.474	40.11
370.685	101.55
370.896	-4.95
371.107	91.31
371.317	79.02
371.528	-23.38
371.739	117.93
371.95	50.35
372.16	107.69
372.371	-11.09
372.582	50.35
372.792	54.44
373.003	66.73
373.214	36.01
373.424	107.69
373.635	9.39
373.846	83.11
374.056	50.35
374.267	38.06
374.477	42.15
374.688	97.45
374.898	11.43
375.109	83.11
375.319	5.29
375.53	42.15
375.74	87.21
375.951	81.07
376.161	33.96
376.372	99.5
376.582	25.77
376.793	70.83
377.003	50.35
377.214	27.82
377.424	117.93
377.635	79.02
377.845	-19.29
378.055	44.2
378.266	107.69
378.476	52.39
378.686	33.96
378.897	99.5
379.107	52.39
379.317	79.02
379.528	33.96
379.738	85.16
379.948	33.96
380.158	42.15
380.369	25.77
380.579	93.35
380.789	31.91
380.999	134.31
381.21	148.65
381.42	126.12
381.63	-7
381.84	25.77
382.05	70.83
382.261	21.67
382.471	38.06
382.681	29.87
382.891	17.58
383.101	62.63
383.311	-23.38
383.521	17.58
383.731	66.73
383.941	36.01
384.151	60.59
384.361	21.67
384.571	-19.29
384.781	72.87
384.991	99.5
385.201	179.37
385.411	60.59
385.621	74.92
385.831	25.77
386.041	23.72
386.251	25.77
386.461	138.41
386.671	50.35
386.881	15.53
387.091	29.87
387.301	5.29
387.511	33.96
387.72	95.4
387.93	76.97
388.14	44.2
388.35	66.73
388.56	56.49
388.769	46.25
388.979	81.07
389.189	72.87
389.399	17.58
389.609	87.21
389.818	74.92
390.028	27.82
390.238	124.07
390.447	81.07
390.657	66.73
390.867	74.92
391.076	64.68
391.286	9.39
391.496	46.25
391.705	91.31
391.915	105.64
392.125	66.73
392.334	27.82
392.544	160.94
392.753	93.35
392.963	83.11
393.172	79.02
393.382	17.58
393.591	124.07
393.801	74.92
394.01	109.74
394.22	117.93
394.429	70.83
394.639	58.54
394.848	97.45
395.058	150.7
395.267	17.58
395.477	126.12
395.686	42.15
395.895	79.02
396.105	99.5
396.314	91.31
396.524	124.07
396.733	109.74
396.942	91.31
397.152	136.36
397.361	122.02
397.57	128.17
397.78	62.63
397.989	70.83
398.198	169.13
398.407	85.16
398.617	152.74
398.826	175.27
399.035	85.16
399.244	79.02
399.453	111.78
399.663	115.88
399.872	85.16
400.081	99.5
400.29	130.22
400.499	89.26
400.708	154.79
400.917	68.78
401.127	50.35
401.336	124.07
401.545	158.89
401.754	197.8
401.963	158.89
402.172	156.84
402.381	74.92
402.59	23.72
402.799	138.41
403.008	99.5
403.217	140.46
403.426	146.6
403.635	148.65
403.844	115.88
404.053	230.57
404.262	140.46
404.471	140.46
404.68	130.22
404.888	167.08
405.097	171.18
405.306	263.33
405.515	156.84
405.724	183.46
405.933	216.23
406.142	220.33
406.35	177.32
406.559	156.84
406.768	249
406.977	283.81
407.185	187.56
407.394	205.99
407.603	220.33
407.812	281.77
408.02	320.68
408.229	296.1
408.438	279.72
408.646	306.34
408.855	292.01
409.064	320.68
409.272	238.76
409.481	380.07
409.69	261.29
409.898	312.49
410.107	289.96
410.315	304.29
410.524	414.88
410.733	363.69
410.941	402.6
411.15	443.56
411.358	418.98
411.567	459.94
411.775	418.98
411.984	492.71
412.192	435.36
412.401	453.8
412.609	574.63
412.818	562.34
413.026	558.24
413.234	504.99
413.443	588.96
413.651	595.11
413.86	634.02
414.068	623.78
414.276	693.41
414.485	578.72
414.693	791.71
414.901	789.66
415.11	677.02
415.318	799.9
415.526	863.39
415.734	898.2
415.943	806.05
416.151	959.64
416.359	971.93
416.567	980.12
416.776	947.36
416.984	1008.8
417.192	1043.61
417.4	1041.56
417.608	1037.47
417.817	1174.68
418.025	1189.02
418.233	1311.89
418.441	1141.91
418.649	1131.67
418.857	1330.33
419.065	1477.78
419.273	1533.08
419.481	1440.92
419.689	1614.99
419.897	1571.99
420.105	1703.06
420.313	1629.33
420.521	1817.74
420.729	1805.46
420.937	1766.54
421.145	1930.38
421.353	2030.73
421.561	2147.47
421.769	2256.01
421.977	2188.43
422.185	2221.19
422.393	2294.92
422.601	2548.87
422.809	2405.51
423.017	2372.74
423.224	2573.44
423.432	2684.03
423.64	2704.51
423.848	3040.38
424.056	2983.04
424.263	3130.49
424.471	3097.72
424.679	3224.7
424.887	3327.1
425.094	3421.3
425.302	3533.94
425.51	3667.06
425.718	3718.26
425.925	3687.54
426.133	3908.72
426.341	3959.92
426.548	4230.25
426.756	4213.87
426.964	4312.17
427.171	4494.44
427.379	4596.84
427.586	4752.48
427.794	4918.37
428.001	5135.45
428.209	5278.81
428.417	5108.83
428.624	5653.59
428.832	5565.53
429.039	5526.61
429.247	5452.89
429.454	5891.15
429.662	6448.2
429.869	6036.56
430.076	6292.55
430.284	6300.75
430.491	6640.71
430.699	7101.5
430.906	6837.31
431.114	6982.72
431.321	7332.92
431.528	7488.57
431.736	7922.74
431.943	8211.5
432.15	8102.96
432.358	8164.4
432.565	8475.69
432.772	8621.1
432.979	9102.37
433.187	8995.87
433.394	9196.57
433.601	9714.71
433.808	9573.4
434.016	9806.87
434.223	10001.43
434.43	10718.22
434.637	10574.86
434.844	11185.15
435.052	11273.21
435.259	11310.08
435.466	11166.72
435.673	11338.75
435.88	11906.04
436.087	12495.85
436.294	12563.43
436.501	12309.49
436.708	12491.76
436.915	12934.12
437.122	13376.48
437.329	13493.21
437.537	13839.32
437.743	14017.49
437.95	14136.27
438.157	14717.9
438.364	15188.93
438.571	15250.37
438.778	15299.52
438.985	16651.18
439.192	15956.92
439.399	16294.83
439.606	15875
439.813	16882.6
440.02	17963.93
440.227	17466.27
440.433	17314.72
440.64	18291.6
440.847	17978.26
441.054	18416.53
441.261	19227.53
441.467	19422.08
441.674	19745.66
441.881	20310.9
442.088	20384.63
442.294	20417.4
442.501	20833.13
442.708	21136.23
442.914	21711.71
443.121	22848.33
443.328	22244.18
443.534	23927.61
443.741	22965.07
443.948	22745.94
444.154	24525.62
444.361	24511.28
444.568	24591.16
444.774	24486.71
444.981	24675.12
445.187	25641.76
445.394	26518.29
445.6	26182.43
445.807	28683
446.013	27341.58
446.22	27941.63
446.426	29362.92
446.633	29397.74
446.839	30249.69
447.046	28967.66
447.252	30724.82
447.459	30882.52
447.665	30364.38
447.871	32195.26
448.078	33301.17
448.284	31421.13
448.491	32586.43
448.697	33772.2
448.903	34226.85
449.11	34452.12
449.316	33915.56
449.522	34321.05
449.728	35449.49
449.935	35672.71
450.141	35488.4
450.347	36184.71
450.553	35080.85
450.76	35959.43
450.966	36823.67
451.172	36465.28
451.378	37343.86
451.584	36438.65
451.791	37505.65
451.997	37278.32
452.203	37509.74
452.409	37839.47
452.615	37606
452.821	36459.13
453.027	35723.91
453.233	38234.72
453.44	36180.61
453.646	36549.24
453.852	36854.39
454.058	37597.8
454.264	36074.12
454.47	36874.87
454.676	36205.19
454.882	37452.4
455.088	33616.55
455.294	34880.15
455.5	35130
455.705	35359.38
455.911	33710.76
456.117	33280.69
456.323	32957.11
456.529	31075.02
456.735	32119.49
456.941	31570.63
457.147	31197.9
457.352	30290.65
457.558	29704.93
457.764	30003.94
457.97	29043.44
458.176	28605.17
458.381	28705.52
458.587	26819.35
458.793	27196.17
458.999	25731.87
459.204	27454.22
459.41	26708.76
459.616	25205.55
459.821	24908.59
460.027	24849.2
460.233	24269.62
460.438	23223.11
460.644	23051.08
460.85	22448.98
461.055	21842.78
461.261	22059.87
461.466	20192.12
461.672	19745.66
461.878	21068.65
462.083	19639.17
462.289	19286.92
462.494	19151.75
462.7	18207.64
462.905	17867.67
463.111	18344.85
463.316	18250.64
463.522	17816.47
463.727	17949.59
463.932	17922.97
464.138	17826.71
464.343	17871.77
464.549	17322.91
464.754	17724.32
464.959	17718.17
465.165	17499.04
465.37	17030.05
465.575	16331.7
465.781	16937.9
465.986	16985
466.191	16497.58
466.397	16098.23
466.602	15442.88
466.807	15844.28
467.012	15889.34
467.218	15854.52
467.423	15639.48
467.628	15709.11
467.833	16329.65
468.038	15670.2
468.244	15199.17
468.449	15674.3
468.654	15475.65
468.859	15084.48
469.064	15262.66
469.269	14390.22
469.474	14400.46
469.679	14779.34
469.885	14408.65
470.09	14509.01
470.295	14715.85
470.5	14033.88
470.705	14136.27
470.91	13859.8
471.115	13960.15
471.32	14011.35
471.525	13804.5
471.73	13470.69
471.935	13530.08
472.139	13087.71
472.344	13233.12
472.549	13231.07
472.754	12991.46
472.959	12565.48
473.164	12174.32
473.369	12305.39
473.574	12729.32
473.778	12282.86
473.983	12426.22
474.188	12332.01
474.393	11561.98
474.598	11797.49
474.802	11762.68
475.007	11518.97
475.212	11633.66
475.417	11191.3
475.621	11246.59
475.826	11219.97
476.031	10839.05
476.235	10839.05
476.44	11060.23
476.645	10814.47
476.849	10644.49
477.054	10605.58
477.259	10435.6
477.463	10318.86
477.668	10310.67
477.872	10568.71
478.077	10155.02
478.282	9845.78
478.486	9839.64
478.691	9921.56
478.895	9696.28
479.1	9810.96
479.304	9694.23
479.509	9495.58
479.713	9661.46
479.918	9204.77
480.122	9141.28
480.326	9610.26
480.531	9387.04
480.735	9128.99
480.94	9053.22
481.144	9509.91
481.348	8889.38
481.553	9094.18
481.757	8913.95
481.961	9024.54
482.166	9307.16
482.37	9186.33
482.574	8913.95
482.778	8821.8
482.983	9143.33
483.187	8924.19
483.391	9067.55
483.595	8985.63
483.8	8799.27
484.004	9114.66
484.208	9176.09
484.412	8856.61
484.616	8932.39
484.821	8756.26
485.025	8827.94
485.229	8881.19
485.433	8858.66
485.637	8971.3
485.841	8676.39
486.045	8895.52
486.249	8940.58
486.453	8758.31
486.657	8897.57
486.861	8832.04
487.065	8524.84
487.269	8686.63
487.473	8678.44
487.677	8899.62
487.881	8741.93
488.085	8653.86
488.289	8866.85
488.493	8731.69
488.697	8983.59
488.901	8838.18
489.105	8721.45
489.309	8782.88
489.512	8907.81
489.716	8741.93
489.92	8885.28
490.124	8776.74
490.328	8987.68
490.531	9006.11
490.735	8995.87
490.939	8823.84
491.143	9049.12
491.346	8860.71
491.55	9006.11
491.754	9088.03
491.958	9059.36
492.161	8985.63
492.365	9049.12
492.569	8997.92
492.772	9063.46
492.976	9124.9
493.18	9231.39
493.383	9196.57
493.587	9212.96
493.79	9329.69
493.994	9292.83
494.197	9427.99
494.401	9391.13
494.605	9393.18
494.808	9694.23
495.012	9577.5
495.215	9798.68
495.419	9856.02
495.622	9499.67
495.825	9702.42
496.029	9866.26
496.232	9989.14
496.436	10146.83
496.639	10179.6
496.843	9946.13
497.046	10431.5
497.249	10384.4
497.453	10374.16
497.656	10392.59
497.859	10413.07
498.063	10589.19
498.266	10810.37
498.469	10978.31
498.673	10957.83
498.876	10839.05
499.079	11006.98
499.282	11060.23
499.485	11410.43
499.689	11428.86
499.892	11635.71
500.095	11518.97
500.298	11809.78
500.501	11772.92
500.705	12209.14
500.908	12073.97
501.111	12221.42
501.314	12497.9
501.517	12676.07
501.72	12753.9
501.923	12518.38
502.126	13003.75
502.329	13011.94
502.532	12995.56
502.735	13130.72
502.938	13601.76
503.141	13360.09
503.344	13747.16
503.547	13554.65
503.75	13927.38
503.953	13956.05
504.156	14248.91
504.359	14310.35
504.562	14253.01
504.765	14525.39
504.968	14715.85
505.17	14934.98
505.373	14842.82
505.576	15190.98
505.779	15395.78
505.982	15371.2
506.185	15686.59
506.387	15713.21
506.59	15799.23
506.793	15897.53
506.996	16065.46
507.198	16556.97
507.401	16223.16
507.604	16700.33
507.807	16921.51
508.009	16974.76
508.212	17253.28
508.415	17404.83
508.617	17683.36
508.82	17693.6
509.022	17392.55
509.225	17853.34
509.428	18348.95
509.63	18391.95
509.833	18322.32
510.035	18748.3
510.238	18697.1
510.44	18805.64
510.643	19291.01
510.845	19362.69
511.048	19243.91
511.25	19680.13
511.453	19856.25
511.655	20411.25
511.858	20063.1
512.06	20532.08
512.262	20812.65
512.465	20497.27
512.667	20767.6
512.87	21361.51
513.072	21093.22
513.274	21406.56
513.477	21773.15
513.679	21889.88
513.881	21967.71
514.084	22309.72
514.286	22160.22
514.488	22563.67
514.69	23327.56
514.893	23272.26
515.095	23280.46
515.297	23264.07
515.499	23317.32
515.701	23710.53
515.904	24058.68
516.106	24374.07
516.308	24357.69
516.51	24660.79
516.712	24372.02
516.914	24896.3
517.116	25303.85
517.318	25215.79
517.52	25334.57
517.722	25717.54
517.925	26088.22
518.127	26395.42
518.329	26288.92
518.531	26120.99
518.733	27073.29
518.935	26768.15
519.136	26647.32
519.338	27218.7
519.54	27388.68
519.742	27425.54
519.944	27964.16
520.146	28181.24
520.348	27925.25
520.55	28418.81
520.752	28291.83
520.954	28762.87
521.155	28390.14
521.357	28959.47
521.559	29084.4
521.761	29278.96
521.963	29070.06
522.164	29332.2
522.366	29268.72
522.568	29743.84
522.77	29747.94
522.971	30282.46
523.173	30096.1
523.375	30450.39
523.576	30411.48
523.778	30186.21
523.98	30329.56
524.181	30647
524.383	30538.46
524.584	30960.34
524.786	30864.08
524.988	30573.27
525.189	31142.61
525.391	31236.81
525.592	31462.09
525.794	31449.8
525.995	31374.03
526.197	31630.02
526.398	31357.64
526.6	31544.01
526.801	31820.49
527.003	31804.1
527.204	31668.94
527.406	31781.57
527.607	31343.31
527.808	31943.36
528.01	31470.28
528.211	31521.48
528.412	32019.14
528.614	31789.77
528.815	32039.62
529.016	31759.05
529.218	31523.53
529.419	31310.54
529.62	32004.8
529.822	31609.54
530.023	31523.53
530.224	31666.89
530.425	31609.54
530.626	31636.17
530.828	31152.85
531.029	31920.84
531.23	31478.47
531.431	31498.95
531.632	31709.89
531.833	31519.43
532.035	31568.58
532.236	31468.23
532.437	31433.42
532.638	31232.72
532.839	31636.17
533.04	31417.04
533.241	30823.12
533.442	31470.28
533.643	31083.22
533.844	31283.92
534.045	31257.29
534.246	30765.78
534.447	31132.37
534.648	31179.47
534.849	31210.19
535.05	30708.44
535.251	30808.79
535.451	30651.09
535.652	30816.98
535.853	30849.75
536.054	30788.31
536.255	30571.22
536.456	30503.64
536.657	30823.12
536.857	30673.62
537.058	30710.49
537.259	30886.61
537.46	30458.59
537.66	30509.79
537.861	30690.01
538.062	30276.32
538.263	30657.24
538.463	30280.41
538.664	30456.54
538.865	30057.18
539.065	30321.37
539.266	30059.23
539.466	30335.71
539.667	29790.95
539.868	30468.83
540.068	30100.19
540.269	29758.18
540.469	30210.78
540.67	29856.48
540.87	30106.34
541.071	29981.41
541.271	30010.08
541.472	29917.92
541.672	29797.09
541.873	29678.31
542.073	29270.76
542.274	29795.04
542.474	29784.8
542.675	29577.96
542.875	30083.81
543.075	29887.2
543.276	29569.77
543.476	29706.98
543.676	29899.49
543.877	29760.23
544.077	29686.5
544.277	29739.75
544.478	29475.56
544.678	29793
544.878	29399.79
545.078	29723.37
545.279	29461.23
545.479	29577.96
545.679	29758.18
545.879	29426.41
546.079	29690.6
546.28	29520.62
546.48	29188.85
546.68	29899.49
546.88	29612.77
547.08	29362.92
547.28	29432.55
547.48	29321.96
547.68	29307.63
547.88	29168.37
548.081	29659.88
548.281	29414.12
548.481	29342.44
548.681	29840.1
548.881	29520.62
549.081	29526.76
549.28	29580.01
549.48	29809.38
549.68	29403.88
549.88	29666.02
550.08	29524.71
550.28	29795.04
550.48	29721.32
550.68	29749.99
550.88	29485.8
551.08	29387.5
551.279	29510.38
551.479	29375.21
551.679	29577.96
551.879	29596.39
552.079	29737.7
552.278	29399.79
552.478	29663.97
552.678	29833.96
552.878	30079.71
553.077	29610.73
553.277	29346.54
553.477	29922.02
553.676	29922.02
553.876	29876.96
554.076	29606.63
554.275	29725.41
554.475	29184.75
554.674	30026.46
554.874	29780.71
555.074	29891.3
555.273	29823.72
555.473	30147.29
555.672	29801.19
555.872	29850.34
556.071	30012.13
556.271	30147.29
556.47	29950.69
556.67	29684.45
556.869	29889.25
557.068	29969.12
557.268	29590.25
557.467	29874.91
557.667	30022.37
557.866	29950.69
558.065	30118.62
558.265	29825.76
558.464	30083.81
558.663	30032.61
558.863	29903.59
559.062	30145.25
559.261	29795.04
559.461	30266.08
559.66	29731.56
559.859	30020.32
560.058	29782.76
560.258	29997.79
560.457	30065.38
560.656	30186.21
560.855	29842.15
561.054	30245.6
561.253	29850.34
561.453	29975.27
561.652	29913.83
561.851	30194.4
562.05	29917.92
562.249	29819.62
562.448	29952.74
562.647	29702.89
562.846	29928.16
563.045	30264.03
563.244	29569.77
563.443	30190.3
563.642	29563.62
563.841	30079.71
564.04	29960.93
564.239	29924.07
564.438	29483.75
564.637	29692.65
564.836	29555.43
565.035	29526.76
565.234	29840.1
565.432	29514.47
565.631	29356.78
565.83	29555.43
566.029	29641.45
566.228	29205.23
566.427	29344.49
566.625	29281
566.824	29145.84
567.023	29350.63
567.222	29080.3
567.42	29215.47
567.619	29348.59
567.818	28984.05
568.016	28922.61
568.215	29328.11
568.414	28672.76
568.612	29170.41
568.811	28938.99
569.01	28762.87
569.208	28656.37
569.407	28670.71
569.605	28656.37
569.804	28676.85
570.002	28758.77
570.201	28388.09
570.4	28187.39
570.598	28306.17
570.797	28117.76
570.995	28207.87
571.193	27945.73
571.392	28039.93
571.59	27573
571.789	28197.63
571.987	27763.46
572.186	27562.76
572.384	27339.53
572.582	27423.5
572.781	27675.4
572.979	27228.94
573.177	27546.37
573.376	27638.53
573.574	27044.62
573.772	27495.18
573.971	27257.61
574.169	26753.81
574.367	26880.78
574.565	27294.47
574.763	26764.05
574.962	27073.29
575.16	26512.15
575.358	26807.06
575.556	26518.29
575.754	26569.49
575.952	26067.74
576.151	26499.86
576.349	26118.94
576.547	26321.69
576.745	26149.66
576.943	26293.02
577.141	26188.57
577.339	26112.8
577.537	25852.7
577.735	26010.4
577.933	25744.16
578.131	25791.27
578.329	25623.33
578.527	25518.89
578.725	25529.13
578.923	25674.53
579.121	25398.06
579.319	25244.46
579.516	25592.61
579.714	25199.4
579.912	24980.27
580.11	25123.63
580.308	25111.34
580.506	25146.15
580.704	24681.27
580.901	24734.51
581.099	24906.54
581.297	24646.45
581.495	24642.35
581.692	24728.37
581.89	24116.03
582.088	24560.44
582.285	24222.52
582.483	24396.6
582.681	24294.2
582.878	24343.35
583.076	24177.47
583.274	24163.13
583.471	23823.17
583.669	24075.07
583.866	23690.05
584.064	24052.54
584.262	23526.21
584.459	23964.48
584.657	23677.76
584.854	23753.54
585.052	23401.29
585.249	23720.77
585.447	23518.02
585.644	23112.52
585.841	23198.54
586.039	23442.24
586.236	23272.26
586.434	23169.87
586.631	23036.75
586.828	23225.16
587.026	23120.71
587.223	23153.48
587.42	22715.22
587.618	23155.53
587.815	22682.45
588.012	22969.16
588.21	22692.69
588.407	23083.85
588.604	22827.85
588.801	22328.15
588.999	22465.36
589.196	22653.78
589.393	22471.51
589.59	22635.35
589.787	22436.69
589.984	22334.29
590.182	22213.46
590.379	22418.26
590.576	22004.57
590.773	22291.29
590.97	22086.49
591.167	22199.13
591.364	21685.09
591.561	21902.17
591.758	21889.88
591.955	21695.33
592.152	22053.72
592.349	21777.25
592.546	21842.78
592.743	21961.56
592.94	21576.55
593.137	21812.06
593.334	21758.81
593.531	21322.6
593.727	21807.97
593.924	21793.63
594.121	21207.91
594.318	21447.52
594.515	21179.24
594.712	21425
594.908	21365.6
595.105	21644.13
595.302	21246.82
595.499	21427.04
595.696	21416.8
595.892	21242.73
596.089	21558.11
596.286	21054.31
596.482	21175.14
596.679	21390.18
596.876	21279.59
597.072	20958.06
597.269	21549.92
597.466	21035.88
597.662	20925.29
597.859	21252.97
598.055	21336.93
598.252	21175.14
598.448	21263.21
598.645	21039.98
598.841	21025.64
599.038	21181.29
599.234	21216.1
599.431	21181.29
599.627	21109.61
599.824	21273.45
600.02	21250.92
600.217	21431.14
600.413	21214.05
600.609	21267.3
600.806	21033.83
601.002	21539.68
601.198	21144.42
601.395	21289.83
601.591	21463.91
601.787	21453.67
601.984	20960.11
602.18	21680.99
602.376	21156.71
602.572	21437.28
602.769	21504.87
602.965	21320.55
603.161	21515.11
603.357	21359.46
603.553	21160.81
603.75	21668.7
603.946	21392.23
604.142	21910.36
604.338	21404.52
604.534	21949.28
604.73	21547.87
604.926	21803.87
605.122	21988.19
605.318	21689.18
605.514	21842.78
605.71	21644.13
605.906	21959.52
606.102	21996.38
606.298	21953.37
606.494	21912.41
606.69	22098.78
606.886	21982.04
607.082	21873.5
607.278	22184.79
607.474	22020.95
607.67	22027.1
607.866	21844.83
608.062	22348.63
608.257	22309.72
608.453	22139.74
608.649	22113.11
608.845	22084.44
609.041	22168.41
609.236	22754.13
609.432	22436.69
609.628	22461.27
609.824	22539.09
610.019	22797.13
610.215	22707.02
610.411	22831.95
610.606	22526.8
610.802	22885.2
610.998	22811.47
611.193	22979.4
611.389	22895.44
611.584	22895.44
611.78	22938.44
611.976	23096.14
612.171	22756.18
612.367	23247.69
612.562	22424.4
612.758	22762.32
612.953	23038.8
613.149	23350.09
613.344	22793.04
613.539	23126.86
613.735	22926.16
613.93	23389
614.126	23010.12
614.321	23464.77
614.517	23501.64
614.712	23173.96
614.907	23399.24
615.103	23249.74
615.298	23257.93
615.493	23630.66
615.688	22938.44
615.884	23659.33
616.079	23374.66
616.274	23235.4
616.47	23128.91
616.665	23571.27
616.86	23100.23
617.055	23188.3
617.25	23286.6
617.445	23393.09
617.641	23055.18
617.836	23249.74
618.031	23382.85
618.226	23614.27
618.421	23208.78
618.616	23429.96
618.811	23081.8
619.006	23450.44
619.201	22995.79
619.396	23229.26
619.591	22819.66
619.786	22950.73
619.981	22694.74
620.176	22817.61
620.371	22532.95
620.566	22737.74
620.761	22653.78
620.956	22905.68
621.151	22436.69
621.346	22600.53
621.541	22254.42
621.735	22590.29
621.93	22258.52
622.125	22383.45
622.32	22027.1
622.515	22276.95
622.709	21732.19
622.904	21951.32
623.099	21711.71
623.294	21570.4
623.488	21535.59
623.683	21719.9
623.878	21289.83
624.072	21502.82
624.267	21345.12
624.462	20972.39
624.656	20835.18
624.851	20906.86
625.046	20665.2
625.24	20947.82
625.435	20802.41
625.629	20738.93
625.824	20421.49
626.018	20386.68
626.213	19852.16
626.407	20196.21
626.602	20149.11
626.796	20241.27
626.991	19932.03
627.185	19964.79
627.38	20040.57
627.574	19669.89
627.768	19544.96
627.963	19389.31
628.157	19202.95
628.352	19592.06
628.546	19133.32
628.74	19250.05
628.935	19174.28
629.129	19297.16
629.323	18844.56
629.517	18953.1
629.712	18750.35
629.906	18822.03
630.1	18463.63
630.294	18629.52
630.489	18262.93
630.683	18731.92
630.877	17888.15
631.071	18129.81
631.265	17947.54
631.459	18011.03
631.653	17945.5
631.848	17808.28
632.042	17740.7
632.236	17550.24
632.43	17548.19
632.624	17605.53
632.818	17275.81
633.012	16993.19
633.206	17011.62
633.4	17179.56
633.594	17001.38
633.788	16931.75
633.982	16980.9
634.176	16855.98
634.369	16622.51
634.563	16563.12
634.757	16542.64
634.951	16589.74
635.145	16532.4
635.339	16384.94
635.533	16253.87
635.726	16110.52
635.92	15991.73
636.114	16001.97
636.308	15866.81
636.501	15774.65
636.695	15696.83
636.889	15856.57
637.083	15309.76
637.276	15418.3
637.47	15442.88
637.664	15068.1
637.857	15272.9
638.051	15047.62
638.244	15104.96
638.438	15006.66
638.632	14736.33
638.825	14713.8
639.019	14560.2
639.212	14674.89
639.406	14554.06
639.599	14506.96
639.793	14515.15
639.986	14300.11
640.18	14226.39
640.373	14152.66
640.567	14019.54
640.76	14003.16
640.954	13745.11
641.147	13669.34
641.34	13843.42
641.534	13636.57
641.727	13384.67
641.92	13464.54
642.114	13372.38
642.307	13124.58
642.5	13155.3
642.694	12833.77
642.887	12989.41
643.08	13063.14
643.273	12952.55
643.467	12882.92
643.66	12618.73
643.853	12555.24
644.046	12796.9
644.239	12547.05
644.432	12159.99
644.626	12194.8
644.819	12250.1
645.012	12188.66
645.205	12200.94
645.398	12116.98
645.591	11815.93
645.784	11920.37
645.977	11703.29
646.17	11785.21
646.363	11793.4
646.556	11281.41
646.749	11504.64
646.942	11568.12
647.135	11275.26
647.328	11258.88
647.521	11129.86
647.714	11101.19
647.907	11166.72
648.099	11150.34
648.292	11070.47
648.485	10830.85
648.678	10650.63
648.871	10515.47
649.064	10585.1
649.256	10816.52
649.449	10472.46
649.642	10615.82
649.835	10642.44
650.027	10302.48
650.22	10183.7
650.413	10327.05
650.605	10171.41
650.798	10198.03
650.991	10056.72
651.183	9931.8
651.376	10060.82
651.568	9909.27
651.761	9896.98
651.954	9892.88
652.146	9839.64
652.339	9694.23
652.531	9657.37
652.724	9647.13
652.916	9319.45
653.109	9602.07
653.301	9593.88
653.494	9686.04
653.686	9313.31
653.879	9344.03
654.071	9315.36
654.263	9186.33
654.456	9102.37
654.648	9083.94
654.84	9147.42
655.033	9047.07
655.225	8905.76
655.417	8963.11
655.61	9102.37
655.802	8950.82
655.994	8799.27
656.186	8786.98
656.379	8817.7
656.571	8692.77
656.763	8645.67
656.955	8711.21
657.148	8555.56
657.34	8631.33
657.532	8410.15
657.724	8553.51
657.916	8268.84
658.108	8373.29
658.3	8072.24
658.492	8354.86
658.684	8064.05
658.876	8037.42
659.068	8162.35
659.26	7955.51
659.452	7840.82
659.644	7916.59
659.836	7894.07
660.028	7881.78
660.22	7760.95
660.412	7769.14
660.604	7498.81
660.796	7564.34
660.988	7910.45
661.18	7420.99
661.372	7535.67
661.563	7478.33
661.755	7414.84
661.947	7404.6
662.139	7437.37
662.331	7216.19
662.522	7314.49
662.714	7271.48
662.906	7218.24
663.097	7234.62
663.289	7142.46
663.481	7138.37
663.673	7152.7
663.864	6818.88
664.056	6988.86
664.247	6870.08
664.439	6618.18
664.631	6771.78
664.822	6939.71
665.014	6663.24
665.205	6698.05
665.397	6689.86
665.588	6597.7
665.78	6673.48
665.971	6526.02
666.163	6564.93
666.354	6511.69
666.546	6513.74
666.737	6472.78
666.929	6456.39
667.12	6409.29
667.311	6431.82
667.503	6308.94
667.694	6280.27
667.885	6255.69
668.077	6317.13
668.268	6290.51
668.459	6200.4
668.651	6104.14
668.842	6100.05
669.033	5932.11
669.224	6057.04
669.416	6024.27
669.607	5977.17
669.798	5981.26
669.989	5940.3
670.18	6095.95
670.371	5768.27
670.563	5989.46
670.754	5710.93
670.945	5825.62
671.136	5827.67
671.327	5874.77
671.518	5717.08
671.709	5745.75
671.9	5753.94
672.091	5717.08
672.282	5672.02
672.473	5684.31
672.664	5633.11
672.855	5614.68
673.046	5547.09
673.237	5561.43
673.428	5588.05
673.619	5702.74
673.809	5452.89
674	5399.64
674.191	5620.82
674.382	5522.52
674.573	5432.41
674.764	5489.75
674.954	5487.7
675.145	5284.95
675.336	5356.63
675.527	5338.2
675.717	5399.64
675.908	5264.47
676.099	5323.87
676.289	5387.35
676.48	5123.16
676.671	5231.71
676.861	5293.15
677.052	5262.43
677.243	5211.23
677.433	5350.49
677.624	5399.64
677.814	5123.16
678.005	5078.11
678.195	5178.46
678.386	5080.16
678.576	5196.89
678.767	5114.97
678.957	5145.69
679.148	5069.92
679.338	5276.76
679.529	5221.47
679.719	5178.46
679.909	5248.09
680.1	5100.64
680.29	5010.53
680.481	5080.16
680.671	5006.43
680.861	4983.9
681.052	5211.23
681.242	5149.79
681.432	5014.62
681.622	5006.43
681.813	5035.1
682.003	4975.71
682.193	5092.44
682.383	5071.97
682.573	5160.03
682.764	5014.62
682.954	5098.59
683.144	5057.63
683.334	5117.02
683.524	4932.7
683.714	5051.49
683.904	4891.74
684.094	5076.06
684.284	4920.42
684.474	4988
684.664	4936.8
684.854	4873.31
685.044	4914.27
685.234	4957.28
685.424	4891.74
685.614	4922.46
685.804	4889.7
685.994	4762.72
686.184	4953.18
686.374	4940.9
686.564	4791.39
686.753	4965.47
686.943	4875.36
687.133	4955.23
687.323	4793.44
687.513	4727.91
687.702	4875.36
687.892	4713.57
688.082	4897.89
688.272	4852.83
688.461	4711.52
688.651	4832.35
688.841	4693.09
689.03	4676.71
689.22	4723.81
689.41	4891.74
689.599	4656.23
689.789	4641.89
689.979	4787.3
690.168	4736.1
690.358	4738.15
690.547	4705.38
690.737	4670.56
690.926	4697.19
691.116	4590.69
691.305	4654.18
691.495	4621.41
691.684	4566.12
691.874	4574.31
692.063	4523.11
692.252	4459.62
692.442	4476.01
692.631	4478.05
692.82	4490.34
693.01	4428.9
693.199	4394.09
693.388	4473.96
693.578	4514.92
693.767	4482.15
693.956	4342.89
694.146	4441.19
694.335	4492.39
694.524	4443.24
694.713	4328.55
694.902	4406.38
695.092	4322.41
695.281	4303.98
695.47	4428.9
695.659	4207.72
695.848	4271.21
696.037	4387.94
696.226	4228.2
696.415	4220.01
696.604	4357.22
696.793	4398.18
696.982	4322.41
697.171	4453.48
697.36	4285.55
697.549	4328.55
697.738	4125.8
697.927	4179.05
698.116	4199.53
698.305	4328.55
698.494	4107.37
698.683	4248.68
698.872	4191.34
699.061	4181.1
699.25	4162.67
699.438	3986.54
699.627	3984.49
699.816	4181.1
700.005	3900.53
700.193	4035.69
700.382	4027.5
700.571	4072.56
700.76	4093.04
700.948	4113.52
701.137	3957.87
701.326	4064.36
701.514	4072.56
701.703	4109.42
701.892	3990.64
702.08	4037.74
702.269	3921.01
702.457	4070.51
702.646	3968.11
702.834	3939.44
703.023	3955.82
703.212	4011.12
703.4	3828.85
703.589	3783.79
703.777	3982.45
703.965	3873.9
704.154	3933.29
704.342	3921.01
704.531	3818.61
704.719	3791.98
704.907	3810.42
705.096	3847.28
705.284	3908.72
705.472	3753.07
705.661	3714.16
705.849	3781.74
706.037	3839.09
706.226	3589.24
706.414	3744.88
706.602	3757.17
706.79	3765.36
706.979	3687.54
707.167	3617.91
707.355	3589.24
707.543	3685.49
707.731	3548.28
707.919	3699.83
708.107	3640.44
708.296	3687.54
708.484	3652.72
708.672	3671.15
708.86	3591.28
709.048	3564.66
709.236	3490.93
709.424	3615.86
709.612	3564.66
709.8	3523.7
709.988	3548.28
710.176	3607.67
710.364	3515.51
710.551	3572.85
710.739	3398.77
710.927	3380.34
711.115	3390.58
711.303	3503.22
711.491	3255.42
711.679	3366.01
711.866	3277.94
712.054	3304.57
712.242	3310.71
712.43	3417.21
712.617	3286.14
712.805	3302.52
712.993	3337.34
713.181	3183.74
713.368	3234.94
713.556	3247.23
713.744	3247.23
713.931	3454.07
714.119	3234.94
714.306	3296.38
714.494	3312.76
714.682	3253.37
714.869	3126.39
715.057	3331.19
715.244	3187.83
715.432	3163.26
715.619	3140.73
715.807	3148.92
715.994	3015.8
716.182	3073.15
716.369	3032.19
716.556	3067
716.744	3120.25
716.931	3024
717.119	3101.82
717.306	3279.99
717.493	3048.57
717.681	3007.61
717.868	3060.86
718.055	2995.32
718.242	3058.81
718.43	3040.38
718.617	3007.61
718.804	2956.41
718.991	2821.25
719.179	2888.83
719.366	2958.46
719.553	2942.08
719.74	2966.65
719.927	2841.73
720.114	2819.2
720.301	2854.02
720.488	2821.25
720.676	2835.58
720.863	2868.35
721.05	2878.59
721.237	2753.66
721.424	2858.11
721.611	2745.47
721.798	2657.41
721.985	2866.3
722.172	2737.28
722.358	2763.9
722.545	2694.27
722.732	2829.44
722.919	2722.95
723.106	2860.16
723.293	2649.22
723.48	2724.99
723.667	2731.14
723.853	2659.46
724.04	2657.41
724.227	2665.6
724.414	2565.25
724.6	2618.5
724.787	2755.71
724.974	2622.59
725.161	2690.18
725.347	2532.48
725.534	2606.21
725.72	2542.72
725.907	2649.22
726.094	2733.18
726.28	2555.01
726.467	2618.5
726.653	2649.22
726.84	2516.1
727.027	2614.4
727.213	2423.94
727.4	2628.74
727.586	2581.64
727.773	2434.18
727.959	2559.11
728.145	2401.41
728.332	2514.05
728.518	2374.79
728.705	2477.19
728.891	2487.43
729.077	2569.35
729.264	2526.34
729.45	2526.34
729.636	2423.94
729.823	2419.85
730.009	2423.94
730.195	2469
730.382	2296.97
730.568	2385.03
730.754	2393.22
730.94	2501.76
731.126	2323.59
731.313	2364.55
731.499	2307.21
731.685	2370.69
731.871	2325.64
732.057	2303.11
732.243	2274.44
732.429	2323.59
732.615	2327.69
732.801	2421.89
732.987	2233.48
733.173	2290.82
733.359	2231.43
733.545	2258.06
733.731	2313.35
733.917	2196.62
734.103	2188.43
734.289	2315.4
734.475	2106.51
734.661	2382.98
734.847	2204.81
735.033	2237.58
735.219	2303.11
735.404	2241.67
735.59	2161.8
735.776	2147.47
735.962	2116.75
736.148	2090.12
736.333	2131.08
736.519	2215.05
736.705	2008.2
736.89	2135.18
737.076	2077.83
737.262	2053.26
737.447	2155.66
737.633	2122.89
737.819	2120.84
738.004	2065.55
738.19	1983.63
738.375	2075.79
738.561	2049.16
738.747	2106.51
738.932	2018.44
739.118	2139.27
739.303	2028.68
739.489	1959.05
739.674	2061.45
739.859	1983.63
740.045	2114.7
740.23	2161.8
740.416	2002.06
740.601	2069.64
740.786	1952.91
740.972	1995.92
741.157	1899.66
741.342	1877.13
741.528	1868.94
741.713	1977.48
741.898	1928.33
742.084	1959.05
742.269	1918.09
742.454	1950.86
742.639	1944.72
742.824	1987.72
743.01	1944.72
743.195	1905.81
743.38	1936.53
743.565	1830.03
743.75	1733.78
743.935	1899.66
744.12	1895.57
744.305	1672.34
744.49	1721.49
744.675	1815.69
744.86	1797.26
745.045	1852.56
745.23	1768.59
745.415	1713.3
745.6	1858.7
745.785	1735.82
745.97	1791.12
746.155	1739.92
746.34	1811.6
746.525	1664.15
746.71	1737.87
746.895	1676.43
747.079	1596.56
747.264	1701.01
747.449	1662.1
747.634	1625.23
747.819	1625.23
748.003	1664.15
748.188	1674.39
748.373	1483.92
748.557	1578.13
748.742	1488.02
748.927	1533.08
749.111	1535.12
749.296	1467.54
749.481	1508.5
749.665	1565.84
749.85	1471.64
750.034	1516.69
750.219	1461.4
750.404	1461.4
750.588	1524.88
750.773	1420.44
750.957	1475.73
751.141	1426.58
751.326	1502.36
751.51	1442.96
751.695	1430.68
751.879	1367.19
752.064	1422.48
752.248	1348.76
752.432	1332.37
752.617	1330.33
752.801	1289.37
752.985	1414.29
753.17	1328.28
753.354	1270.94
753.538	1184.92
753.722	1275.03
753.907	1299.61
754.091	1178.78
754.275	1320.09
754.459	1272.98
754.643	1324.18
754.828	1229.98
755.012	1232.02
755.196	1240.22
755.38	1166.49
755.564	1160.34
755.748	1131.67
755.932	1197.21
756.116	1168.54
756.3	1182.87
756.484	1205.4
756.668	1166.49
756.852	1041.56
757.036	1100.95
757.22	1041.56
757.404	1201.3
757.588	1131.67
757.772	1129.63
757.956	1035.42
758.14	1213.59
758.323	1107.1
758.507	1031.32
758.691	1027.23
758.875	1045.66
759.059	1107.1
759.242	955.55
759.426	1055.9
759.61	1008.8
759.794	1064.09
759.977	1041.56
760.161	1049.75
760.345	1137.82
760.528	1062.04
760.712	1049.75
760.895	1008.8
761.079	1027.23
761.263	951.45
761.446	1033.37
761.63	953.5
761.813	967.84
761.997	1025.18
762.18	953.5
762.364	988.32
762.547	930.97
762.731	920.73
762.914	904.35
763.098	900.25
763.281	922.78
763.464	959.64
763.648	947.36
763.831	949.4
764.015	1041.56
764.198	894.11
764.381	928.92
764.564	918.68
764.748	847.01
764.931	951.45
765.114	847.01
765.297	896.16
765.481	861.34
765.664	834.72
765.847	840.86
766.03	951.45
766.213	820.38
766.397	820.38
766.58	844.96
766.763	890.01
766.946	853.15
767.129	822.43
767.312	828.57
767.495	863.39
767.678	836.77
767.861	806.05
768.044	877.73
768.227	787.61
768.41	855.2
768.593	787.61
768.776	865.44
768.959	847.01
769.142	894.11
769.324	838.81
769.507	746.66
769.69	709.79
769.873	722.08
770.056	787.61
770.239	779.42
770.421	879.77
770.604	804
770.787	855.2
770.97	781.47
771.152	795.81
771.335	851.1
771.518	699.55
771.7	799.9
771.883	740.51
772.066	668.83
772.248	717.98
772.431	791.71
772.613	703.65
772.796	722.08
772.978	804
773.161	810.14
773.343	697.5
773.526	658.59
773.708	695.46
773.891	740.51
774.073	648.35
774.256	707.74
774.438	703.65
774.621	695.46
774.803	722.08
774.985	656.54
775.168	652.45
775.35	664.74
775.532	715.94
775.715	642.21
775.897	724.13
776.079	550.05
776.261	634.02
776.444	648.35
776.626	623.78
776.808	722.08
776.99	562.34
777.173	638.11
777.355	656.54
777.537	623.78
777.719	619.68
777.901	609.44
778.083	584.87
778.265	586.91
778.447	650.4
778.629	527.52
778.811	509.09
778.993	597.15
779.175	607.39
779.357	554.15
779.539	554.15
779.721	601.25
779.903	545.95
780.085	513.19
780.267	595.11
780.449	476.32
780.631	517.28
780.812	597.15
780.994	576.67
781.176	521.38
781.358	502.95
781.54	541.86
781.721	494.76
781.903	545.95
782.085	502.95
782.267	478.37
782.448	543.91
782.63	521.38
782.812	468.13
782.993	519.33
783.175	545.95
783.357	435.36
783.538	484.52
783.72	484.52
783.901	500.9
784.083	459.94
784.264	507.04
784.446	429.22
784.627	408.74
784.809	455.84
784.99	451.75
785.172	443.56
785.353	451.75
785.535	388.26
785.716	429.22
785.897	418.98
786.079	361.64
786.26	384.16
786.441	353.45
786.623	287.91
786.804	369.83
786.985	412.84
787.167	398.5
787.348	394.4
787.529	400.55
787.71	418.98
787.891	365.73
788.073	294.05
788.254	380.07
788.435	378.02
788.616	382.12
788.797	316.58
788.978	373.92
789.159	390.31
789.34	361.64
789.522	361.64
789.703	355.49
789.884	339.11
790.065	304.29
790.246	406.69
790.427	312.49
790.607	386.21
790.788	361.64
790.969	304.29
791.15	345.25
791.331	373.92
791.512	326.82
791.693	300.2
791.874	265.38
792.054	390.31
792.235	347.3
792.416	298.15
792.597	349.35
792.778	328.87
792.958	361.64
793.139	296.1
793.32	292.01
793.5	314.53
793.681	386.21
793.862	279.72
794.042	330.92
794.223	275.62
794.404	255.14
794.584	169.13
794.765	273.57
794.945	314.53
795.126	357.54
795.306	349.35
795.487	345.25
795.667	296.1
795.848	312.49
796.028	300.2
796.209	324.77
796.389	246.95
796.57	255.14
796.75	328.87
796.93	287.91
797.111	230.57
797.291	208.04
797.471	287.91
797.652	242.85
797.832	222.38
798.012	314.53
798.192	187.56
798.373	224.42
798.553	199.85
798.733	263.33
798.913	230.57
799.093	205.99
799.274	181.42
799.454	328.87
799.634	271.53
799.814	228.52
799.994	228.52
800.174	300.2
800.354	246.95
800.534	238.76
800.714	257.19
800.894	189.61
801.074	240.81
801.254	175.27
801.434	222.38
801.614	177.32
801.794	230.57
801.974	894.11
802.154	238.76
802.334	201.9
802.514	197.8
802.693	167.08
802.873	156.84
803.053	160.94
803.233	181.42
803.413	197.8
803.592	191.66
803.772	238.76
803.952	191.66
804.131	263.33
804.311	240.81
804.491	283.81
804.67	181.42
804.85	208.04
805.03	224.42
805.209	246.95
805.389	138.41
805.568	238.76
805.748	117.93
805.928	150.7
806.107	238.76
806.287	187.56
806.466	185.51
806.646	246.95
806.825	128.17
807.004	122.02
807.184	218.28
807.363	167.08
807.543	142.5
807.722	128.17
807.901	183.46
808.081	165.03
808.26	79.02
808.439	160.94
808.619	222.38
808.798	173.22
808.977	228.52
809.156	150.7
809.336	189.61
809.515	152.74
809.694	152.74
809.873	156.84
810.052	179.37
810.231	197.8
810.411	171.18
810.59	199.85
810.769	111.78
810.948	175.27
811.127	99.5
811.306	150.7
811.485	132.26
811.664	246.95
811.843	175.27
812.022	197.8
812.201	181.42
812.38	150.7
812.559	173.22
812.737	156.84
812.916	115.88
813.095	107.69
813.274	142.5
813.453	134.31
813.632	126.12
813.811	142.5
813.989	130.22
814.168	169.13
814.347	128.17
814.526	79.02
814.704	185.51
814.883	232.62
815.062	117.93
815.24	126.12
815.419	144.55
815.598	126.12
815.776	99.5
815.955	119.98
816.133	93.35
816.312	66.73
816.49	99.5
816.669	124.07
816.847	97.45
817.026	144.55
817.204	152.74
817.383	107.69
817.561	83.11
817.74	115.88
817.918	189.61
818.097	83.11
818.275	181.42
818.453	126.12
818.632	144.55
818.81	167.08
818.988	68.78
819.167	87.21
819.345	142.5
819.523	33.96
819.701	91.31
819.879	107.69
820.058	128.17
820.236	156.84
820.414	193.7
820.592	111.78
820.77	109.74
820.948	119.98
821.127	124.07
821.305	148.65
821.483	66.73
821.661	128.17
821.839	46.25
822.017	95.4
822.195	109.74
822.373	167.08
822.551	91.31
822.729	144.55
822.907	46.25
823.085	185.51
823.262	101.55
823.44	140.46
823.618	74.92
823.796	156.84
823.974	54.44
824.152	95.4
824.329	52.39
824.507	150.7
824.685	111.78
824.863	97.45
825.04	115.88
825.218	60.59
825.396	40.11
825.574	101.55
825.751	103.59
825.929	144.55
826.107	66.73
826.284	138.41
826.462	101.55
826.639	107.69
826.817	79.02
826.994	101.55
827.172	21.67
827.349	142.5
827.527	124.07
827.704	128.17
827.882	76.97
828.059	140.46
828.237	150.7
828.414	107.69
828.591	33.96
828.769	74.92
828.946	36.01
829.124	62.63
829.301	76.97
829.478	56.49
829.655	117.93
829.833	99.5
830.01	64.68
830.187	165.03
830.364	25.77
830.542	95.4
830.719	46.25
830.896	132.26
831.073	50.35
831.25	87.21
831.427	44.2
831.604	79.02
831.782	99.5
831.959	91.31
832.136	99.5
832.313	99.5
832.49	101.55
832.667	70.83
832.844	50.35
833.021	101.55
833.198	107.69
833.374	42.15
833.551	109.74
833.728	79.02
833.905	76.97
834.082	44.2
834.259	119.98
834.436	74.92
834.612	27.82
834.789	115.88
834.966	87.21
835.143	117.93
835.319	72.87
835.496	109.74
835.673	95.4
835.85	58.54
836.026	107.69
836.203	81.07
836.38	11.43
836.556	115.88
836.733	128.17
836.909	101.55
837.086	13.48
837.262	3.24
837.439	79.02
837.616	76.97
837.792	76.97
837.968	54.44
838.145	42.15
838.321	19.63
838.498	68.78
838.674	132.26
838.851	128.17
839.027	46.25
839.203	95.4
839.38	140.46
839.556	9.39
839.732	105.64
839.909	62.63
840.085	66.73
840.261	-11.09
840.437	9.39
840.614	85.16
840.79	76.97
840.966	58.54
841.142	36.01
841.318	-15.19
841.494	79.02
841.671	70.83
841.847	9.39
842.023	38.06
842.199	107.69
842.375	83.11
842.551	81.07
842.727	13.48
842.903	91.31
843.079	-7
843.255	25.77
843.431	50.35
843.607	-19.29
843.783	-2.9
843.959	60.59
844.134	-4.95
844.31	93.35
844.486	76.97
844.662	27.82
844.838	115.88
845.013	58.54
845.189	17.58
845.365	68.78
845.541	17.58
845.716	64.68
845.892	93.35
846.068	9.39
846.244	91.31
846.419	91.31
846.595	83.11
846.77	60.59
846.946	50.35
847.122	21.67
847.297	-31.57
847.473	-19.29
847.648	27.82
847.824	52.39
847.999	52.39
848.175	15.53
848.35	58.54
848.526	36.01
848.701	52.39
848.876	81.07
849.052	158.89
849.227	56.49
849.403	38.06
849.578	-39.76
849.753	40.11
849.929	85.16
850.104	-25.43
850.279	33.96
850.454	62.63
850.63	74.92
850.805	124.07
850.98	36.01
851.155	91.31
851.33	74.92
851.505	13.48
851.681	107.69
851.856	44.2
852.031	11.43
852.206	33.96
852.381	-23.38
852.556	9.39
852.731	103.59
852.906	-45.91
853.081	91.31
853.256	42.15
853.431	66.73
853.606	15.53
853.781	40.11
853.956	44.2
854.131	74.92
854.305	11.43
854.48	52.39
854.655	-29.52
854.83	83.11
855.005	21.67
855.18	62.63
855.354	50.35
855.529	52.39
855.704	-7
855.879	54.44
856.053	25.77
856.228	11.43
856.403	5.29
856.577	3.24
856.752	15.53
856.926	64.68
857.101	-13.14
857.276	9.39
857.45	-2.9
857.625	85.16
857.799	-19.29
857.974	7.34
858.148	-0.85
858.323	62.63
858.497	33.96
858.672	25.77
858.846	-15.19
859.02	70.83
859.195	33.96
859.369	46.25
859.543	91.31
859.718	9.39
859.892	79.02
860.066	-15.19
860.241	13.48
860.415	1.19
860.589	27.82
860.763	19.63
860.938	21.67
861.112	36.01
861.286	60.59
861.46	111.78
861.634	11.43
861.808	17.58
861.982	1.19
862.157	-11.09
862.331	60.59
862.505	36.01
862.679	-43.86
862.853	33.96
863.027	58.54
863.201	25.77
863.375	9.39
863.549	50.35
863.722	42.15
863.896	87.21
864.07	52.39
864.244	23.72
864.418	25.77
864.592	52.39
864.766	58.54
864.939	76.97
865.113	50.35
865.287	91.31
865.461	17.58
865.634	87.21
865.808	3.24
865.982	1.19
866.156	17.58
866.329	1.19
866.503	9.39
866.676	66.73
866.85	42.15
867.024	-37.72
867.197	13.48
867.371	109.74
867.544	95.4
867.718	-7
867.891	79.02
868.065	3.24
868.238	-15.19
868.412	85.16
868.585	15.53
868.759	-31.57
868.932	9.39
869.105	-50
869.279	44.2
869.452	-72.53
869.625	50.35
869.799	-54.1
869.972	17.58
870.145	-15.19
870.319	44.2
870.492	-64.34
870.665	1.19
870.838	1.19
871.011	-68.44
871.185	46.25
871.358	36.01
871.531	85.16
871.704	27.82
871.877	83.11
872.05	17.58
872.223	-54.1
872.396	-15.19
872.569	3.24
872.742	13.48
872.915	50.35
873.088	74.92
873.261	-13.14
873.434	85.16
873.607	42.15
873.78	33.96
873.953	1.19
874.126	50.35
874.299	50.35
874.471	-13.14
874.644	-7
874.817	-29.52
874.99	19.63
875.163	-35.67
875.335	27.82
875.508	-13.14
875.681	150.7
875.853	21.67
876.026	-7
876.199	9.39
876.371	-23.38
876.544	31.91
876.717	3.24
876.889	-68.44
877.062	74.92
877.234	5.29
877.407	-13.14
877.579	-2.9
877.752	105.64
877.924	46.25
878.097	33.96
878.269	-11.09
878.442	42.15
878.614	52.39
878.786	44.2
878.959	42.15
879.131	44.2
879.303	-37.72
879.476	87.21
879.648	25.77
879.82	25.77
879.993	-19.29
880.165	1.19
880.337	-7
880.509	95.4
880.681	-60.24
880.854	38.06
881.026	58.54
881.198	140.46
881.37	9.39
881.542	-47.96
881.714	50.35
881.886	-39.76
882.058	-19.29
882.23	11.43
882.402	-9.05
882.574	-45.91
882.746	-2.9
882.918	44.2
883.09	44.2
883.262	-31.57
883.434	9.39
883.606	33.96
883.778	-11.09
883.95	74.92
884.122	-7
884.293	83.11
884.465	-7
884.637	85.16
884.809	-13.14
884.98	109.74
885.152	31.91
885.324	50.35
885.496	-66.39
885.667	-0.85
885.839	27.82
886.011	83.11
886.182	-4.95
886.354	1.19
886.525	95.4
886.697	66.73
886.869	17.58
887.04	33.96
887.212	60.59
887.383	66.73
887.555	54.44
887.726	-21.33
887.897	-4.95
888.069	21.67
888.24	29.87
888.412	15.53
888.583	-23.38
888.754	-23.38
888.926	-66.39
889.097	46.25
889.268	-33.62
889.44	-56.15
889.611	19.63
889.782	-35.67
889.953	-19.29
890.125	58.54
890.296	-33.62
890.467	-72.53
890.638	66.73
890.809	17.58
890.98	-23.38
891.151	27.82
891.323	76.97
891.494	-17.24
891.665	42.15
891.836	27.82
892.007	17.58
892.178	81.07
892.349	-29.52
892.52	-2.9
892.691	5.29
892.862	1.19
893.032	1.19
893.203	19.63
893.374	-47.96
893.545	52.39
893.716	-19.29
893.887	54.44
894.057	-37.72
894.228	1.19
894.399	27.82
894.57	42.15
894.74	-31.57
894.911	-56.15
895.082	-2.9
895.253	9.39
895.423	74.92
895.594	-4.95
895.764	107.69
895.935	13.48
896.106	-11.09
896.276	-58.2
896.447	54.44
896.617	-62.29
896.788	17.58
896.958	36.01
897.129	1.19
897.299	25.77
897.47	-17.24
897.64	83.11
897.81	27.82
897.981	3.24
898.151	-33.62
898.322	-35.67
898.492	9.39
898.662	-21.33
898.832	31.91
899.003	42.15
899.173	66.73
899.343	-2.9
899.513	-70.48
