Data from USB4F104151__156__14-32-01-822.txt Node

Date: Thu Mar 13 14:32:01 EDT 2025
User: louis
Spectrometer: USB4F10415
Trigger mode: 4
Integration Time (sec): 2.500000E-2
Scans to average: 1
Electric dark correction enabled: true
Nonlinearity correction enabled: false
Boxcar width: 0
XAxis mode: Wavelengths
Number of Pixels in Spectrum: 3648
>>>>>Begin Spectral Data<<<<<
178.204	-149.5
178.424	-149.5
178.644	-149.5
178.864	-167.93
179.084	-77.82
179.304	36.86
179.524	-28.67
179.744	-12.29
179.964	36.86
180.184	30.72
180.404	-59.39
180.624	14.34
180.844	-2.05
181.064	-67.58
181.283	14.34
181.503	-14.34
181.723	51.2
181.943	-12.29
182.163	79.87
182.383	2.05
182.602	126.97
182.822	73.73
183.042	75.77
183.262	-14.34
183.482	77.82
183.701	18.43
183.921	-30.72
184.141	-6.14
184.361	38.91
184.58	-38.91
184.8	114.69
185.02	63.49
185.239	20.48
185.459	-18.43
185.679	24.58
185.898	63.49
186.118	106.49
186.338	-22.53
186.557	59.39
186.777	-34.82
186.997	-24.58
187.216	-10.24
187.436	67.58
187.655	51.2
187.875	36.86
188.095	8.19
188.314	43.01
188.534	75.77
188.753	14.34
188.973	-30.72
189.192	-4.1
189.412	26.62
189.631	59.39
189.851	61.44
190.07	83.97
190.29	-49.15
190.509	34.82
190.729	-43.01
190.948	108.54
191.168	112.64
191.387	73.73
191.607	-6.14
191.826	-8.19
192.045	-4.1
192.265	20.48
192.484	2.05
192.704	67.58
192.923	-30.72
193.142	88.06
193.362	-6.14
193.581	75.77
193.8	6.14
194.02	77.82
194.239	12.29
194.458	43.01
194.678	90.11
194.897	4.1
195.116	38.91
195.335	53.25
195.555	28.67
195.774	10.24
195.993	-6.14
196.212	32.77
196.432	86.01
196.651	14.34
196.87	55.3
197.089	40.96
197.308	55.3
197.528	20.48
197.747	6.14
197.966	28.67
198.185	104.45
198.404	0
198.623	63.49
198.842	14.34
199.062	43.01
199.281	36.86
199.5	34.82
199.719	26.62
199.938	16.38
200.157	63.49
200.376	2.05
200.595	112.64
200.814	47.1
201.033	10.24
201.252	-10.24
201.471	34.82
201.69	51.2
201.909	18.43
202.128	49.15
202.347	26.62
202.566	20.48
202.785	10.24
203.004	2.05
203.223	176.13
203.442	26.62
203.661	43.01
203.879	20.48
204.098	-12.29
204.317	10.24
204.536	20.48
204.755	79.87
204.974	108.54
205.193	24.58
205.411	135.17
205.63	45.06
205.849	77.82
206.068	-8.19
206.287	79.87
206.505	81.92
206.724	-10.24
206.943	18.43
207.162	-55.3
207.381	69.63
207.599	69.63
207.818	47.1
208.037	30.72
208.255	-34.82
208.474	43.01
208.693	-18.43
208.911	16.38
209.13	86.01
209.349	67.58
209.567	36.86
209.786	79.87
210.005	79.87
210.223	6.14
210.442	4.1
210.661	30.72
210.879	-14.34
211.098	-14.34
211.316	63.49
211.535	116.73
211.753	59.39
211.972	49.15
212.191	38.91
212.409	53.25
212.628	18.43
212.846	20.48
213.065	18.43
213.283	92.16
213.502	43.01
213.72	51.2
213.938	77.82
214.157	20.48
214.375	57.34
214.594	-18.43
214.812	86.01
215.031	10.24
215.249	-18.43
215.467	24.58
215.686	24.58
215.904	12.29
216.122	51.2
216.341	30.72
216.559	153.6
216.778	67.58
216.996	98.3
217.214	75.77
217.432	28.67
217.651	110.59
217.869	4.1
218.087	-28.67
218.306	12.29
218.524	69.63
218.742	-67.58
218.96	32.77
219.179	22.53
219.397	-34.82
219.615	71.68
219.833	59.39
220.051	-43.01
220.27	57.34
220.488	83.97
220.706	43.01
220.924	-2.05
221.142	12.29
221.36	-53.25
221.578	-6.14
221.796	51.2
222.015	28.67
222.233	24.58
222.451	165.89
222.669	55.3
222.887	-2.05
223.105	-22.53
223.323	57.34
223.541	-45.06
223.759	32.77
223.977	12.29
224.195	71.68
224.413	2.05
224.631	126.97
224.849	73.73
225.067	92.16
225.285	36.86
225.503	-28.67
225.721	-90.11
225.939	6.14
226.157	75.77
226.375	73.73
226.592	-30.72
226.81	-55.3
227.028	108.54
227.246	129.02
227.464	43.01
227.682	38.91
227.9	49.15
228.117	75.77
228.335	53.25
228.553	34.82
228.771	32.77
228.989	69.63
229.206	67.58
229.424	88.06
229.642	18.43
229.86	18.43
230.077	43.01
230.295	26.62
230.513	86.01
230.731	26.62
230.948	102.4
231.166	71.68
231.384	45.06
231.601	96.25
231.819	59.39
232.037	-77.82
232.254	16.38
232.472	-6.14
232.689	-2.05
232.907	86.01
233.125	61.44
233.342	-14.34
233.56	-4.1
233.777	-71.68
233.995	-47.1
234.213	120.83
234.43	26.62
234.648	16.38
234.865	-71.68
235.083	30.72
235.3	34.82
235.518	16.38
235.735	69.63
235.953	51.2
236.17	81.92
236.388	79.87
236.605	79.87
236.822	75.77
237.04	79.87
237.257	65.54
237.475	-28.67
237.692	75.77
237.909	67.58
238.127	2.05
238.344	102.4
238.562	-38.91
238.779	34.82
238.996	36.86
239.214	4.1
239.431	71.68
239.648	18.43
239.865	10.24
240.083	104.45
240.3	-67.58
240.517	51.2
240.735	51.2
240.952	2.05
241.169	59.39
241.386	22.53
241.603	34.82
241.821	-6.14
242.038	38.91
242.255	112.64
242.472	-10.24
242.689	94.21
242.907	47.1
243.124	-45.06
243.341	-14.34
243.558	-61.44
243.775	2.05
243.992	-36.86
244.209	75.77
244.426	69.63
244.643	26.62
244.86	-40.96
245.078	133.12
245.295	71.68
245.512	26.62
245.729	-6.14
245.946	49.15
246.163	-2.05
246.38	135.17
246.597	63.49
246.814	63.49
247.031	92.16
247.248	-18.43
247.464	20.48
247.681	51.2
247.898	12.29
248.115	79.87
248.332	14.34
248.549	71.68
248.766	69.63
248.983	59.39
249.2	10.24
249.417	114.69
249.633	-63.49
249.85	92.16
250.067	20.48
250.284	61.44
250.501	6.14
250.717	59.39
250.934	49.15
251.151	0
251.368	16.38
251.585	61.44
251.801	71.68
252.018	-4.1
252.235	28.67
252.451	45.06
252.668	10.24
252.885	28.67
253.102	30.72
253.318	-47.1
253.535	-10.24
253.752	83.97
253.968	47.1
254.185	2.05
254.401	28.67
254.618	40.96
254.835	22.53
255.051	114.69
255.268	18.43
255.484	32.77
255.701	6.14
255.917	92.16
256.134	-57.34
256.351	-81.92
256.567	-20.48
256.784	59.39
257	-30.72
257.217	110.59
257.433	45.06
257.65	83.97
257.866	51.2
258.082	10.24
258.299	20.48
258.515	86.01
258.732	18.43
258.948	45.06
259.165	-4.1
259.381	-4.1
259.597	-12.29
259.814	34.82
260.03	22.53
260.246	26.62
260.463	0
260.679	10.24
260.895	32.77
261.112	174.08
261.328	-8.19
261.544	24.58
261.761	51.2
261.977	10.24
262.193	-6.14
262.409	38.91
262.626	-2.05
262.842	-10.24
263.058	14.34
263.274	24.58
263.49	104.45
263.707	67.58
263.923	6.14
264.139	4.1
264.355	124.93
264.571	75.77
264.787	10.24
265.004	92.16
265.22	51.2
265.436	83.97
265.652	4.1
265.868	40.96
266.084	-55.3
266.3	12.29
266.516	-14.34
266.732	18.43
266.948	83.97
267.164	108.54
267.38	61.44
267.596	49.15
267.812	32.77
268.028	0
268.244	22.53
268.46	20.48
268.676	26.62
268.892	79.87
269.108	34.82
269.324	-26.62
269.54	-4.1
269.756	108.54
269.972	2.05
270.188	-26.62
270.403	16.38
270.619	79.87
270.835	69.63
271.051	59.39
271.267	6.14
271.483	30.72
271.698	24.58
271.914	16.38
272.13	-20.48
272.346	2.05
272.562	-38.91
272.777	92.16
272.993	20.48
273.209	-53.25
273.425	79.87
273.64	14.34
273.856	51.2
274.072	-55.3
274.287	45.06
274.503	86.01
274.719	51.2
274.934	14.34
275.15	26.62
275.366	47.1
275.581	26.62
275.797	43.01
276.012	-4.1
276.228	6.14
276.444	-6.14
276.659	73.73
276.875	-30.72
277.09	32.77
277.306	20.48
277.521	49.15
277.737	63.49
277.952	22.53
278.168	-6.14
278.383	4.1
278.599	63.49
278.814	-4.1
279.03	-14.34
279.245	83.97
279.461	10.24
279.676	51.2
279.892	49.15
280.107	-14.34
280.322	51.2
280.538	83.97
280.753	-43.01
280.969	94.21
281.184	92.16
281.399	20.48
281.615	55.3
281.83	-6.14
282.045	45.06
282.26	22.53
282.476	45.06
282.691	92.16
282.906	94.21
283.122	40.96
283.337	18.43
283.552	59.39
283.767	112.64
283.983	98.3
284.198	-6.14
284.413	131.07
284.628	34.82
284.843	92.16
285.058	81.92
285.274	-28.67
285.489	-34.82
285.704	8.19
285.919	4.1
286.134	26.62
286.349	65.54
286.564	51.2
286.779	34.82
286.995	53.25
287.21	-6.14
287.425	59.39
287.64	6.14
287.855	63.49
288.07	-30.72
288.285	108.54
288.5	43.01
288.715	-38.91
288.93	47.1
289.145	10.24
289.36	26.62
289.575	75.77
289.79	102.4
290.004	12.29
290.219	63.49
290.434	12.29
290.649	-43.01
290.864	10.24
291.079	118.78
291.294	30.72
291.509	61.44
291.724	67.58
291.938	18.43
292.153	10.24
292.368	116.73
292.583	43.01
292.798	59.39
293.012	30.72
293.227	51.2
293.442	36.86
293.657	75.77
293.871	26.62
294.086	-18.43
294.301	110.59
294.516	79.87
294.73	55.3
294.945	-53.25
295.16	2.05
295.374	67.58
295.589	49.15
295.804	59.39
296.018	92.16
296.233	51.2
296.447	36.86
296.662	-55.3
296.877	71.68
297.091	-6.14
297.306	18.43
297.52	-6.14
297.735	51.2
297.949	-14.34
298.164	34.82
298.378	22.53
298.593	18.43
298.807	10.24
299.022	79.87
299.236	108.54
299.451	22.53
299.665	-34.82
299.88	36.86
300.094	34.82
300.309	43.01
300.523	51.2
300.737	102.4
300.952	55.3
301.166	51.2
301.381	14.34
301.595	-4.1
301.809	12.29
302.024	43.01
302.238	-30.72
302.452	-6.14
302.667	32.77
302.881	22.53
303.095	22.53
303.309	20.48
303.524	-4.1
303.738	-34.82
303.952	-32.77
304.166	77.82
304.381	-34.82
304.595	30.72
304.809	-28.67
305.023	75.77
305.237	34.82
305.452	30.72
305.666	108.54
305.88	100.35
306.094	88.06
306.308	100.35
306.522	45.06
306.736	73.73
306.95	94.21
307.164	-22.53
307.379	-6.14
307.593	90.11
307.807	55.3
308.021	106.49
308.235	92.16
308.449	47.1
308.663	28.67
308.877	149.5
309.091	63.49
309.305	47.1
309.519	18.43
309.733	108.54
309.947	18.43
310.161	116.73
310.374	43.01
310.588	83.97
310.802	12.29
311.016	51.2
311.23	83.97
311.444	43.01
311.658	-2.05
311.872	75.77
312.085	61.44
312.299	100.35
312.513	108.54
312.727	79.87
312.941	71.68
313.154	34.82
313.368	90.11
313.582	129.02
313.796	-12.29
314.009	51.2
314.223	61.44
314.437	43.01
314.651	96.25
314.864	47.1
315.078	43.01
315.292	12.29
315.505	51.2
315.719	26.62
315.933	2.05
316.146	18.43
316.36	-6.14
316.573	122.88
316.787	26.62
317.001	69.63
317.214	14.34
317.428	59.39
317.641	-34.82
317.855	45.06
318.068	-16.38
318.282	108.54
318.495	73.73
318.709	38.91
318.922	51.2
319.136	43.01
319.349	34.82
319.563	112.64
319.776	55.3
319.99	-18.43
320.203	53.25
320.417	6.14
320.63	114.69
320.843	67.58
321.057	61.44
321.27	36.86
321.483	45.06
321.697	38.91
321.91	104.45
322.124	43.01
322.337	20.48
322.55	73.73
322.763	45.06
322.977	26.62
323.19	75.77
323.403	20.48
323.617	79.87
323.83	94.21
324.043	67.58
324.256	61.44
324.469	-63.49
324.683	59.39
324.896	28.67
325.109	83.97
325.322	-18.43
325.535	59.39
325.748	79.87
325.962	26.62
326.175	55.3
326.388	61.44
326.601	55.3
326.814	2.05
327.027	61.44
327.24	22.53
327.453	38.91
327.666	77.82
327.879	92.16
328.092	53.25
328.305	51.2
328.518	75.77
328.731	2.05
328.944	28.67
329.157	67.58
329.37	45.06
329.583	94.21
329.796	88.06
330.009	43.01
330.222	-22.53
330.435	18.43
330.648	116.73
330.861	69.63
331.073	75.77
331.286	98.3
331.499	67.58
331.712	18.43
331.925	79.87
332.138	10.24
332.35	77.82
332.563	55.3
332.776	77.82
332.989	43.01
333.202	30.72
333.414	-10.24
333.627	10.24
333.84	-4.1
334.053	14.34
334.265	26.62
334.478	51.2
334.691	2.05
334.903	-10.24
335.116	51.2
335.329	40.96
335.541	88.06
335.754	92.16
335.966	4.1
336.179	10.24
336.392	4.1
336.604	30.72
336.817	30.72
337.029	83.97
337.242	14.34
337.454	53.25
337.667	26.62
337.88	59.39
338.092	34.82
338.305	63.49
338.517	2.05
338.729	77.82
338.942	43.01
339.154	-10.24
339.367	30.72
339.579	59.39
339.792	-10.24
340.004	43.01
340.217	-30.72
340.429	38.91
340.641	-47.1
340.854	53.25
341.066	75.77
341.278	118.78
341.491	-4.1
341.703	26.62
341.915	14.34
342.128	34.82
342.34	-55.3
342.552	53.25
342.764	6.14
342.977	-8.19
343.189	83.97
343.401	86.01
343.613	-47.1
343.826	75.77
344.038	61.44
344.25	55.3
344.462	47.1
344.674	63.49
344.886	92.16
345.099	28.67
345.311	6.14
345.523	22.53
345.735	30.72
345.947	92.16
346.159	92.16
346.371	20.48
346.583	43.01
346.795	51.2
347.007	53.25
347.219	88.06
347.431	-6.14
347.643	18.43
347.855	24.58
348.067	92.16
348.279	96.25
348.491	18.43
348.703	59.39
348.915	-22.53
349.127	81.92
349.339	63.49
349.551	83.97
349.763	79.87
349.975	47.1
350.187	77.82
350.399	120.83
350.61	43.01
350.822	36.86
351.034	71.68
351.246	122.88
351.458	108.54
351.669	26.62
351.881	147.45
352.093	43.01
352.305	161.79
352.517	45.06
352.728	104.45
352.94	47.1
353.152	67.58
353.363	-30.72
353.575	100.35
353.787	112.64
353.999	69.63
354.21	129.02
354.422	51.2
354.633	6.14
354.845	26.62
355.057	88.06
355.268	59.39
355.48	57.34
355.692	2.05
355.903	79.87
356.115	6.14
356.326	-36.86
356.538	163.84
356.749	22.53
356.961	86.01
357.172	20.48
357.384	-32.77
357.595	108.54
357.807	14.34
358.018	34.82
358.23	71.68
358.441	137.21
358.653	16.38
358.864	40.96
359.075	43.01
359.287	26.62
359.498	79.87
359.709	55.3
359.921	67.58
360.132	96.25
360.344	94.21
360.555	10.24
360.766	67.58
360.977	-14.34
361.189	61.44
361.4	47.1
361.611	106.49
361.823	92.16
362.034	2.05
362.245	22.53
362.456	53.25
362.667	133.12
362.879	53.25
363.09	69.63
363.301	75.77
363.512	45.06
363.723	2.05
363.935	22.53
364.146	20.48
364.357	2.05
364.568	61.44
364.779	26.62
364.99	53.25
365.201	34.82
365.412	167.93
365.623	-79.87
365.834	26.62
366.045	110.59
366.256	63.49
366.467	30.72
366.678	-20.48
366.889	34.82
367.1	28.67
367.311	75.77
367.522	20.48
367.733	83.97
367.944	77.82
368.155	26.62
368.366	81.92
368.577	71.68
368.788	100.35
368.999	32.77
369.209	45.06
369.42	135.17
369.631	206.84
369.842	34.82
370.053	2.05
370.264	51.2
370.474	81.92
370.685	55.3
370.896	-10.24
371.107	110.59
371.317	55.3
371.528	83.97
371.739	112.64
371.95	45.06
372.16	104.45
372.371	2.05
372.582	69.63
372.792	45.06
373.003	-4.1
373.214	129.02
373.424	34.82
373.635	73.73
373.846	75.77
374.056	88.06
374.267	75.77
374.477	57.34
374.688	47.1
374.898	75.77
375.109	38.91
375.319	92.16
375.53	108.54
375.74	108.54
375.951	96.25
376.161	6.14
376.372	71.68
376.582	38.91
376.793	122.88
377.003	34.82
377.214	69.63
377.424	49.15
377.635	36.86
377.845	59.39
378.055	45.06
378.266	40.96
378.476	53.25
378.686	92.16
378.897	108.54
379.107	67.58
379.317	53.25
379.528	6.14
379.738	10.24
379.948	51.2
380.158	102.4
380.369	22.53
380.579	83.97
380.789	100.35
380.999	-2.05
381.21	49.15
381.42	118.78
381.63	10.24
381.84	100.35
382.05	108.54
382.261	4.1
382.471	47.1
382.681	43.01
382.891	100.35
383.101	73.73
383.311	-10.24
383.521	67.58
383.731	65.54
383.941	71.68
384.151	90.11
384.361	73.73
384.571	71.68
384.781	55.3
384.991	96.25
385.201	157.69
385.411	57.34
385.621	86.01
385.831	81.92
386.041	47.1
386.251	43.01
386.461	88.06
386.671	2.05
386.881	30.72
387.091	20.48
387.301	88.06
387.511	53.25
387.72	108.54
387.93	112.64
388.14	-6.14
388.35	83.97
388.56	71.68
388.769	96.25
388.979	38.91
389.189	-2.05
389.399	36.86
389.609	86.01
389.818	108.54
390.028	47.1
390.238	92.16
390.447	53.25
390.657	120.83
390.867	69.63
391.076	63.49
391.286	100.35
391.496	49.15
391.705	-26.62
391.915	118.78
392.125	75.77
392.334	38.91
392.544	100.35
392.753	116.73
392.963	30.72
393.172	124.93
393.382	90.11
393.591	112.64
393.801	12.29
394.01	182.27
394.22	151.55
394.429	100.35
394.639	165.89
394.848	174.08
395.058	102.4
395.267	88.06
395.477	86.01
395.686	57.34
395.895	92.16
396.105	190.46
396.314	112.64
396.524	137.21
396.733	141.31
396.942	79.87
397.152	223.23
397.361	124.93
397.57	63.49
397.78	145.41
397.989	94.21
398.198	176.13
398.407	59.39
398.617	120.83
398.826	108.54
399.035	116.73
399.244	124.93
399.453	69.63
399.663	163.84
399.872	137.21
400.081	43.01
400.29	167.93
400.499	198.65
400.708	141.31
400.917	118.78
401.127	151.55
401.336	77.82
401.545	194.56
401.754	88.06
401.963	145.41
402.172	79.87
402.381	100.35
402.59	141.31
402.799	124.93
403.008	194.56
403.217	81.92
403.426	102.4
403.635	133.12
403.844	190.46
404.053	67.58
404.262	174.08
404.471	227.32
404.68	196.61
404.888	174.08
405.097	223.23
405.306	231.42
405.515	190.46
405.724	196.61
405.933	165.89
406.142	204.8
406.35	206.84
406.559	210.94
406.768	206.84
406.977	212.99
407.185	260.09
407.394	241.66
407.603	149.5
407.812	256
408.02	317.44
408.229	251.9
408.438	286.72
408.646	249.85
408.855	350.2
409.064	352.25
409.272	313.34
409.481	387.07
409.69	354.3
409.898	378.87
410.107	313.34
410.315	421.88
410.524	430.07
410.733	425.98
410.941	460.79
411.15	489.46
411.358	477.18
411.567	528.38
411.775	518.14
411.984	565.24
412.192	557.05
412.401	575.48
412.609	606.2
412.818	610.29
413.026	641.01
413.234	593.91
413.443	602.1
413.651	681.97
413.86	731.12
414.068	763.89
414.276	823.28
414.485	796.66
414.693	817.14
414.901	935.92
415.11	755.7
415.318	933.87
415.526	946.16
415.734	923.63
415.943	985.07
416.151	1036.27
416.359	1017.84
416.567	1050.61
416.776	1155.05
416.984	1263.6
417.192	1208.3
417.4	1247.21
417.608	1325.04
417.817	1361.9
418.025	1304.56
418.233	1535.98
418.441	1386.47
418.649	1521.64
418.857	1638.38
419.065	1722.34
419.273	1634.28
419.481	1718.25
419.689	1837.03
419.897	1886.18
420.105	1896.42
420.313	1914.85
420.521	2017.25
420.729	1964
420.937	2076.64
421.145	2179.04
421.353	2269.15
421.561	2396.12
421.769	2541.53
421.977	2666.46
422.185	2570.2
422.393	2762.71
422.601	2830.29
422.809	2865.11
423.017	2983.89
423.224	3041.23
423.432	3254.22
423.64	3088.34
423.848	3411.92
424.056	3289.04
424.263	3602.38
424.471	3561.42
424.679	3753.93
424.887	3919.81
425.094	3962.82
425.302	4036.55
425.51	4147.14
425.718	4317.12
425.925	4427.71
426.133	4421.56
426.341	4747.19
426.548	4919.22
426.756	4804.53
426.964	5089.2
427.171	5148.59
427.379	5375.92
427.586	5525.42
427.794	5633.96
428.001	5900.2
428.209	6160.29
428.417	5959.59
428.624	6530.97
428.832	6623.13
429.039	6360.99
429.247	6277.02
429.454	7106.45
429.662	7497.61
429.869	7055.25
430.076	7657.36
430.284	7407.5
430.491	7409.55
430.699	7982.98
430.906	8157.06
431.114	8210.31
431.321	8484.73
431.528	8613.76
431.736	9107.32
431.943	9590.64
432.15	9400.18
432.358	9457.52
432.565	9895.78
432.772	9848.68
432.979	10254.18
433.187	10547.04
433.394	10749.79
433.601	11405.14
433.808	11548.5
434.016	11278.16
434.223	11827.02
434.43	12347.2
434.637	12312.39
434.844	12861.24
435.052	13276.98
435.259	13084.47
435.466	13094.71
435.673	13023.03
435.88	13926.19
436.087	14833.44
436.294	14683.94
436.501	14348.07
436.708	14767.9
436.915	15214.36
437.122	15595.28
437.329	15873.81
437.537	16281.35
437.743	16486.15
437.95	16398.09
438.157	17182.46
438.364	17749.75
438.571	17618.68
438.778	17913.58
438.985	19314.39
439.192	18392.81
439.399	19216.09
439.606	18667.24
439.813	20129.48
440.02	21212.86
440.227	20801.22
440.433	20338.38
440.64	21350.07
440.847	21141.18
441.054	21651.13
441.261	23217.82
441.467	22521.51
441.674	23049.89
441.881	23826.07
442.088	23987.86
442.294	23826.07
442.501	24084.11
442.708	24788.61
442.914	25759.35
443.121	26945.12
443.328	25710.2
443.534	28065.36
443.741	27190.88
443.948	26711.66
444.154	28708.43
444.361	28810.82
444.568	28812.87
444.774	28577.36
444.981	28943.94
445.187	29699.64
445.394	31198.76
445.6	30754.35
445.807	33791.48
446.013	32114.2
446.22	32773.64
446.426	34164.21
446.633	34477.55
446.839	35554.79
447.046	33758.72
447.252	35880.41
447.459	36195.8
447.665	36083.16
447.871	37592.51
448.078	38989.23
448.284	36918.73
448.491	38061.5
448.697	39689.63
448.903	40281.5
449.11	40107.42
449.316	39611.81
449.522	40787.35
449.728	41674.12
449.935	41964.93
450.141	41971.07
450.347	42958.19
450.553	41416.07
450.76	41938.3
450.966	42976.62
451.172	43064.69
451.378	44225.89
451.584	43206
451.791	44584.28
451.997	43834.72
452.203	44891.47
452.409	44488.03
452.615	44592.47
452.821	43156.85
453.027	42278.27
453.233	44627.29
453.44	42956.14
453.646	43677.03
453.852	43742.56
454.058	44391.77
454.264	43056.5
454.47	43771.24
454.676	42823.03
454.882	44064.1
455.088	40979.85
455.294	41061.77
455.5	41760.13
455.705	42122.62
455.911	40416.66
456.117	39722.4
456.323	39292.33
456.529	36687.31
456.735	39374.25
456.941	37967.29
457.147	37320.13
457.352	36015.58
457.558	35577.31
457.764	35792.35
457.97	35180.01
458.176	34377.2
458.381	34473.46
458.587	32458.26
458.793	32480.78
458.999	30873.13
459.204	33046.02
459.41	32130.58
459.616	30455.34
459.821	30375.47
460.027	30582.32
460.233	29529.66
460.438	27825.75
460.644	28569.16
460.85	27029.09
461.055	26121.84
461.261	26553.96
461.466	24487.56
461.672	24012.43
461.878	25276.03
462.083	24022.67
462.289	23101.09
462.494	23025.31
462.7	22116.01
462.905	21292.73
463.111	22027.95
463.316	22077.1
463.522	21913.27
463.727	21739.19
463.932	21702.32
464.138	21706.42
464.343	21542.58
464.549	21147.33
464.754	21642.93
464.959	21165.76
465.165	21137.09
465.37	20244.17
465.575	19863.25
465.781	20715.2
465.986	20524.74
466.191	19834.58
466.397	19670.74
466.602	18489.06
466.807	19310.3
467.012	19375.83
467.218	19109.6
467.423	18929.38
467.628	19037.92
467.833	19900.11
468.038	18904.8
468.244	18525.93
468.449	19048.16
468.654	18677.48
468.859	18364.14
469.064	18259.69
469.269	17725.17
469.474	17952.49
469.679	17995.5
469.885	17469.17
470.09	17590
470.295	17684.21
470.5	17053.44
470.705	17219.32
470.91	17014.52
471.115	16756.48
471.32	17102.59
471.525	17006.33
471.73	16586.5
471.935	16437
472.139	15869.71
472.344	16203.53
472.549	15957.77
472.754	15521.56
472.959	15621.91
473.164	15206.17
473.369	15130.39
473.574	15271.7
473.778	15296.28
473.983	14948.12
474.188	15183.64
474.393	14446.37
474.598	14626.59
474.802	14346.02
475.007	14278.44
475.212	14309.16
475.417	13739.82
475.621	13590.32
475.826	13807.41
476.031	13635.38
476.235	13170.49
476.44	13571.89
476.645	13258.55
476.849	13377.33
477.054	13092.66
477.259	12887.87
477.463	12728.13
477.668	12617.54
477.872	12769.09
478.077	12568.38
478.282	12363.59
478.486	12021.58
478.691	12017.48
478.895	11951.95
479.1	12021.58
479.304	11751.24
479.509	11538.26
479.713	11892.55
479.918	11589.46
480.122	11333.46
480.326	11648.85
480.531	11423.57
480.735	11511.63
480.94	11482.96
481.144	11515.73
481.348	11075.42
481.553	11210.58
481.757	11216.72
481.961	11030.36
482.166	11380.56
482.37	11278.16
482.574	11138.9
482.778	11059.03
482.983	11151.19
483.187	11175.77
483.391	11216.72
483.595	11036.5
483.8	10962.78
484.004	11186.01
484.208	11018.07
484.412	10858.33
484.616	10925.91
484.821	11046.74
485.025	10913.63
485.229	10991.45
485.433	10897.24
485.637	11075.42
485.841	10938.2
486.045	10887
486.249	11138.9
486.453	11034.46
486.657	11077.46
486.861	10981.21
487.065	10905.43
487.269	10999.64
487.473	10833.75
487.677	11038.55
487.881	11175.77
488.085	10977.11
488.289	11114.33
488.493	10870.62
488.697	11208.53
488.901	11140.95
489.105	10921.82
489.309	10930.01
489.512	10960.73
489.716	11083.61
489.92	11128.66
490.124	10919.77
490.328	11267.92
490.531	11028.31
490.735	11226.96
490.939	11231.06
491.143	11429.71
491.346	11288.4
491.55	11243.35
491.754	11159.38
491.958	11310.93
492.161	11511.63
492.365	11446.1
492.569	11349.84
492.772	11519.82
492.976	11624.27
493.18	11626.32
493.383	11724.62
493.587	11816.78
493.79	11921.23
493.994	11568.98
494.197	12281.67
494.401	12146.5
494.605	11937.61
494.808	12093.26
495.012	11992.9
495.215	12236.61
495.419	12449.6
495.622	12461.89
495.825	12609.34
496.029	12377.92
496.232	12799.8
496.436	12560.19
496.639	12861.24
496.843	12912.44
497.046	13031.23
497.249	13410.1
497.453	13266.74
497.656	13356.85
497.859	13424.44
498.063	13518.64
498.266	14083.88
498.469	13838.12
498.673	13922.09
498.876	14214.95
499.079	14264.1
499.282	14147.37
499.485	14989.08
499.689	14812.96
499.892	15011.61
500.095	14960.41
500.298	15318.81
500.501	14890.78
500.705	15636.24
500.908	15615.76
501.111	15609.62
501.314	15892.24
501.517	16142.09
501.72	16176.91
501.923	16316.17
502.126	16422.66
502.329	16764.67
502.532	16643.84
502.735	16975.61
502.938	17313.53
503.141	17430.26
503.344	17633.01
503.547	17592.05
503.75	18040.56
503.953	18220.78
504.156	18288.36
504.359	18503.4
504.562	18495.21
504.765	18917.09
504.968	19048.16
505.17	19560.15
505.373	19152.6
505.576	19527.38
505.779	19726.03
505.982	19965.65
506.185	20248.27
506.387	20115.15
506.59	20604.61
506.793	21087.93
506.996	20631.24
507.198	21327.55
507.401	21366.46
507.604	21393.08
507.807	21976.75
508.009	21640.89
508.212	22286
508.415	22472.36
508.617	22541.99
508.82	22886.05
509.022	22716.07
509.225	23285.4
509.428	23590.55
509.63	23561.88
509.833	23758.49
510.035	24579.72
510.238	24278.67
510.44	24581.77
510.643	25022.08
510.845	25296.51
511.048	25153.15
511.25	25237.12
511.453	25319.04
511.655	26480.24
511.858	25810.55
512.06	26191.47
512.262	26709.61
512.465	26500.72
512.667	27213.41
512.87	27096.67
513.072	27182.69
513.274	27745.88
513.477	28116.56
513.679	28087.89
513.881	28223.06
514.084	28915.27
514.286	28638.79
514.488	29023.81
514.69	29668.92
514.893	29738.55
515.095	29845.05
515.297	30131.76
515.499	30099
515.701	30580.27
515.904	30766.63
516.106	30977.58
516.308	31391.26
516.51	31514.14
516.712	31649.31
516.914	31933.98
517.116	32488.98
517.318	32230.93
517.52	32970.25
517.722	33054.22
517.925	33365.51
518.127	33797.63
518.329	33680.89
518.531	33312.26
518.733	34334.2
518.935	34352.63
519.136	34014.71
519.338	35010.03
519.54	34921.96
519.742	35110.38
519.944	35325.41
520.146	35526.11
520.348	36077.02
520.55	36044.25
520.752	36318.68
520.954	36664.78
521.155	36402.64
521.357	36767.18
521.559	37653.95
521.761	37567.94
521.963	37443.01
522.164	37666.24
522.366	37481.92
522.568	37918.14
522.77	38180.28
522.971	38999.47
523.173	38211
523.375	39105.96
523.576	38438.33
523.778	38927.79
523.98	39128.49
524.181	39384.49
524.383	39452.07
524.584	39959.97
524.786	39828.9
524.988	39493.03
525.189	39861.66
525.391	40328.6
525.592	40404.38
525.794	40609.17
525.995	40170.91
526.197	40564.12
526.398	40385.94
526.6	40537.49
526.801	40658.32
527.003	41076.11
527.204	41098.64
527.406	41358.73
527.607	41063.82
527.808	41487.75
528.01	40869.26
528.211	41012.62
528.412	41850.24
528.614	41311.63
528.815	41360.78
529.016	41854.34
529.218	41133.45
529.419	41549.19
529.62	41631.11
529.822	41803.14
530.023	41620.87
530.224	41819.52
530.425	41985.41
530.626	41432.46
530.828	40971.66
531.029	41686.4
531.23	41489.8
531.431	41201.04
531.632	41680.26
531.833	41557.38
532.035	41645.44
532.236	41696.64
532.437	41684.36
532.638	41110.92
532.839	41948.54
533.04	41850.24
533.241	41217.42
533.442	41651.59
533.643	41770.37
533.844	41178.51
534.045	41360.78
534.246	41074.06
534.447	41817.47
534.648	41145.74
534.849	41448.84
535.05	41299.34
535.251	40895.89
535.451	41203.08
535.652	41393.54
535.853	41282.95
536.054	41176.46
536.255	41133.45
536.456	40897.94
536.657	41452.94
536.857	41039.25
537.058	40871.31
537.259	41323.91
537.46	40856.98
537.66	40572.31
537.861	40574.36
538.062	40715.67
538.263	41227.66
538.463	40676.76
538.664	40598.93
538.865	40588.69
539.065	40848.78
539.266	40623.51
539.466	41012.62
539.667	40580.5
539.868	40568.21
540.068	40334.74
540.269	40498.58
540.469	40617.36
540.67	40482.2
540.87	40310.17
541.071	40517.01
541.271	40787.35
541.472	40760.72
541.672	40586.64
541.873	40359.32
542.073	39900.58
542.274	40713.62
542.474	40490.39
542.675	40138.14
542.875	40715.67
543.075	40150.43
543.276	39826.85
543.476	40469.91
543.676	39863.71
543.877	40336.79
544.077	39902.62
544.277	40150.43
544.478	40387.99
544.678	40330.65
544.878	40252.83
545.078	40088.99
545.279	39968.16
545.479	39873.95
545.679	40015.26
545.879	40547.73
546.079	39835.04
546.28	40105.37
546.48	39746.98
546.68	40150.43
546.88	40287.64
547.08	40238.49
547.28	39882.14
547.48	39841.18
547.68	40095.13
547.88	39665.06
548.081	40328.6
548.281	40062.36
548.481	39726.5
548.681	40555.93
548.881	39890.34
549.081	40123.8
549.28	39773.6
549.48	40072.6
549.68	39900.58
549.88	40445.33
550.08	40091.04
550.28	40521.11
550.48	39966.11
550.68	40070.56
550.88	40041.89
551.08	40056.22
551.279	40144.28
551.479	39863.71
551.679	40136.09
551.879	40041.89
552.079	39867.81
552.278	39955.87
552.478	40056.22
552.678	40037.79
552.878	40123.8
553.077	39849.38
553.277	39736.74
553.477	40725.91
553.676	39984.54
553.876	39835.04
554.076	39832.99
554.275	40048.03
554.475	39419.3
554.674	40088.99
554.874	39884.19
555.074	40119.71
555.273	40070.56
555.473	40623.51
555.672	40164.76
555.872	40025.5
556.071	40140.19
556.271	40304.03
556.47	40105.37
556.67	39855.52
556.869	40029.6
557.068	39898.53
557.268	40013.21
557.467	40318.36
557.667	40170.91
557.866	40254.87
558.065	40041.89
558.265	39763.36
558.464	39736.74
558.663	40387.99
558.863	39589.28
559.062	40199.58
559.261	40076.7
559.461	40363.42
559.66	40027.55
559.859	39984.54
560.058	39816.61
560.258	40097.18
560.457	39613.86
560.656	40383.9
560.855	39630.24
561.054	40099.23
561.253	39949.73
561.453	40039.84
561.652	40107.42
561.851	39927.2
562.05	40078.75
562.249	39501.22
562.448	40242.59
562.647	39882.14
562.846	39974.3
563.045	39896.48
563.244	39425.45
563.443	39908.77
563.642	39175.59
563.841	39525.8
564.04	39638.44
564.239	39970.21
564.438	39507.37
564.637	39755.17
564.836	39558.56
565.035	39148.97
565.234	39556.52
565.432	39185.83
565.631	39239.08
565.83	39386.53
566.029	39634.34
566.228	38907.31
566.427	39222.7
566.625	39069.1
566.824	38735.28
567.023	39206.31
567.222	38202.81
567.42	39056.81
567.619	39052.72
567.818	39103.92
568.016	38518.2
568.215	38798.77
568.414	38923.69
568.612	39148.97
568.811	38456.76
569.01	38874.54
569.208	38364.6
569.407	38313.4
569.605	38333.88
569.804	38524.34
570.002	38120.89
570.201	38389.17
570.4	38348.21
570.598	37803.46
570.797	37778.88
570.995	38215.1
571.193	37823.93
571.392	37975.48
571.59	37469.64
571.789	37598.66
571.987	37719.49
572.186	37369.29
572.384	37084.62
572.582	37213.64
572.781	37612.99
572.979	36742.61
573.177	37463.49
573.376	36949.45
573.574	36904.4
573.772	36965.84
573.971	36715.98
574.169	36713.94
574.367	36822.48
574.565	36879.82
574.763	36261.33
574.962	36220.38
575.16	36201.94
575.358	36380.12
575.556	36023.77
575.754	36855.25
575.952	35651.04
576.151	36117.98
576.349	35356.13
576.547	35991
576.745	35708.38
576.943	35833.31
577.141	35597.79
577.339	35534.31
577.537	35360.23
577.735	35380.71
577.933	35077.61
578.131	35501.54
578.329	34897.39
578.527	34713.07
578.725	34975.21
578.923	34989.55
579.121	34952.68
579.319	34575.86
579.516	34536.94
579.714	34620.91
579.912	34749.93
580.11	34700.78
580.308	34024.95
580.506	34205.17
580.704	33820.16
580.901	34172.41
581.099	34405.88
581.297	33594.88
581.495	33719.81
581.692	34029.05
581.89	33795.58
582.088	34020.86
582.285	33631.74
582.483	33510.91
582.681	33578.5
582.878	33271.3
583.076	33023.5
583.274	33574.4
583.471	33031.69
583.669	32888.33
583.866	32783.88
584.064	32982.54
584.262	32646.67
584.459	33154.57
584.657	32722.44
584.854	32978.44
585.052	32040.47
585.249	32515.6
585.447	32738.83
585.644	32017.94
585.841	32081.43
586.039	32783.88
586.236	32063
586.434	32261.65
586.631	32015.9
586.828	31962.65
587.026	31983.13
587.223	32081.43
587.42	31968.79
587.618	31776.28
587.815	31641.12
588.012	31338.02
588.21	31335.97
588.407	31917.59
588.604	31004.2
588.801	31153.7
588.999	31395.36
589.196	31170.08
589.393	31096.36
589.59	30973.48
589.787	30916.14
589.984	31096.36
590.182	30860.84
590.379	30948.9
590.576	30735.92
590.773	30524.97
590.97	30242.35
591.167	30715.44
591.364	30133.81
591.561	30641.71
591.758	29883.96
591.955	30031.41
592.152	30488.11
592.349	29883.96
592.546	30021.17
592.743	29904.44
592.94	29855.29
593.137	29867.58
593.334	29941.3
593.531	29574.72
593.727	29728.31
593.924	29517.37
594.121	29621.82
594.318	29595.2
594.515	29269.57
594.712	29544
594.908	29451.84
595.105	29615.68
595.302	29333.06
595.499	29339.2
595.696	29363.78
595.892	29195.84
596.089	29357.63
596.286	28937.8
596.482	29228.61
596.679	28929.61
596.876	28935.75
597.072	29015.62
597.269	29005.38
597.466	28571.21
597.662	28552.78
597.859	28882.5
598.055	28595.79
598.252	28474.96
598.448	28620.36
598.645	28444.24
598.841	28464.72
599.038	28646.99
599.234	28505.68
599.431	28452.43
599.627	28386.89
599.824	28360.27
600.02	28542.54
600.217	28497.49
600.413	28149.33
600.609	28280.4
600.806	28169.81
601.002	28270.16
601.198	28081.75
601.395	28053.08
601.591	28192.34
601.787	28264.02
601.984	28087.89
602.18	28290.64
602.376	27985.49
602.572	27848.28
602.769	27981.4
602.965	27475.55
603.161	28096.08
603.357	27850.33
603.553	27526.75
603.75	27795.03
603.946	27911.77
604.142	27917.91
604.338	27543.13
604.534	27979.35
604.73	27688.54
604.926	27690.59
605.122	28114.51
605.318	27782.74
605.514	27907.67
605.71	27930.2
605.906	27780.7
606.102	27985.49
606.298	27891.29
606.494	27870.81
606.69	27971.16
606.886	27979.35
607.082	27711.07
607.278	28327.5
607.474	27565.66
607.67	28276.3
607.866	27608.67
608.062	27840.09
608.257	27743.83
608.453	28026.45
608.649	28427.85
608.845	27706.97
609.041	27784.79
609.236	28116.56
609.432	27917.91
609.628	27909.72
609.824	27809.37
610.019	28046.93
610.215	27860.57
610.411	28149.33
610.606	27870.81
610.802	28175.95
610.998	28429.9
611.193	27997.78
611.389	27891.29
611.584	28128.85
611.78	27795.03
611.976	28196.43
612.171	27815.51
612.367	28091.99
612.562	28151.38
612.758	27692.63
612.953	28100.18
613.149	28259.92
613.344	27749.98
613.539	28264.02
613.735	27991.64
613.93	28051.03
614.126	27883.09
614.321	28274.26
614.517	28454.48
614.712	27989.59
614.907	27928.15
615.103	28378.7
615.298	27899.48
615.493	28276.3
615.688	28067.41
615.884	28421.71
616.079	27725.4
616.274	28040.79
616.47	28139.09
616.665	27846.23
616.86	27766.36
617.055	28096.08
617.25	27776.6
617.445	28143.19
617.641	27606.62
617.836	27817.56
618.031	27659.87
618.226	27698.78
618.421	27692.63
618.616	27573.85
618.811	27020.9
619.006	27922.01
619.201	27131.49
619.396	27391.58
619.591	26906.21
619.786	26824.29
619.981	26900.07
620.176	27268.7
620.371	27309.66
620.566	26998.37
620.761	26861.16
620.956	26908.26
621.151	26496.62
621.346	26740.33
621.541	26332.78
621.735	26666.6
621.93	26009.2
622.125	26168.94
622.32	25886.33
622.515	25953.91
622.709	25613.95
622.904	25476.73
623.099	25540.22
623.294	25767.54
623.488	25278.08
623.683	25695.86
623.878	24782.47
624.072	25237.12
624.267	24870.53
624.462	24796.81
624.656	24864.39
624.851	24835.72
625.046	24540.81
625.24	24227.47
625.435	24475.27
625.629	24325.77
625.824	23914.13
626.018	24209.04
626.213	23619.22
626.407	24000.15
626.602	23228.06
626.796	23625.37
626.991	23332.51
627.185	23174.81
627.38	23043.74
627.574	23148.19
627.768	23092.9
627.963	23123.62
628.157	22593.19
628.352	22730.41
628.546	22496.94
628.74	22832.8
628.935	22044.34
629.129	22466.22
629.323	22062.77
629.517	21710.52
629.712	21898.93
629.906	21958.32
630.1	21638.84
630.294	21786.29
630.489	21542.58
630.683	21522.1
630.877	21442.23
631.071	21059.26
631.265	21309.11
631.459	21167.81
631.653	20905.67
631.848	20686.53
632.042	20549.32
632.236	20465.35
632.43	20369.1
632.624	20618.95
632.818	20373.19
633.012	20293.32
633.206	20016.85
633.4	20076.24
633.594	19836.63
633.788	19689.17
633.982	19951.31
634.176	19810
634.369	19459.8
634.563	19363.54
634.757	19414.74
634.951	19336.92
635.145	19031.77
635.339	18874.08
635.533	18755.3
635.726	18958.05
635.92	18482.92
636.114	18622.18
636.308	18722.53
636.501	18333.42
636.695	18378.47
636.889	18355.94
637.083	18374.38
637.276	18040.56
637.47	17872.62
637.664	17616.63
637.857	17895.15
638.051	17559.28
638.244	17501.94
638.438	17370.87
638.632	17250.04
638.825	17209.08
639.019	17225.47
639.212	16822.02
639.406	17114.87
639.599	16838.4
639.793	16918.27
639.986	16457.48
640.18	16807.68
640.373	16830.21
640.567	16330.5
640.76	16535.3
640.954	16371.46
641.147	16117.51
641.34	15791.89
641.534	16060.17
641.727	16281.35
641.92	16013.07
642.114	15712.02
642.307	15499.03
642.5	15675.15
642.694	15441.68
642.887	15249.18
643.08	15132.44
643.273	15216.41
643.467	15161.11
643.66	14937.88
643.853	14997.28
644.046	14642.98
644.239	14550.82
644.432	14763.81
644.626	14571.3
644.819	14722.85
645.012	14487.33
645.205	14569.25
645.398	14528.29
645.591	14227.24
645.784	14030.63
645.977	14110.5
646.17	13899.56
646.363	13715.25
646.556	13811.5
646.749	13469.49
646.942	13631.28
647.135	13307.7
647.328	13563.7
647.521	13629.23
647.714	13166.39
647.907	13217.59
648.099	13182.77
648.292	13117.24
648.485	12998.46
648.678	12838.72
648.871	12863.29
649.064	12736.32
649.256	12920.63
649.449	12889.92
649.642	12533.57
649.835	12660.54
650.027	12519.23
650.22	12525.38
650.413	12339.01
650.605	12179.27
650.798	12220.23
650.991	12050.25
651.183	11986.76
651.376	11892.55
651.568	12105.54
651.761	11845.45
651.954	11710.29
652.146	11749.2
652.339	11947.85
652.531	11571.02
652.724	11626.32
652.916	11325.27
653.109	11464.53
653.301	11364.18
653.494	11347.79
653.686	11087.7
653.879	11487.06
654.071	11202.39
654.263	11229.01
654.456	11052.89
654.648	11126.61
654.84	10930.01
655.033	10680.16
655.225	10639.2
655.417	10686.3
655.61	10749.79
655.802	10542.94
655.994	10403.68
656.186	10659.68
656.379	10516.32
656.571	10626.91
656.763	10432.35
656.955	10202.98
657.148	10475.36
657.34	10192.74
657.532	10069.86
657.724	10153.83
657.916	9924.46
658.108	10151.78
658.3	9678.7
658.492	9916.26
658.684	9760.62
658.876	9758.57
659.068	9625.45
659.26	9561.97
659.452	9682.8
659.644	9514.86
659.836	9631.6
660.028	9584.49
660.22	9410.42
660.412	9351.03
660.604	9277.3
660.796	9234.29
660.988	9123.7
661.18	9070.45
661.372	9049.97
661.563	8996.73
661.755	9152.37
661.947	8853.37
662.139	8908.66
662.331	8947.58
662.522	8816.51
662.714	8695.68
662.906	8605.56
663.097	8652.67
663.289	8621.95
663.481	8621.95
663.673	8439.68
663.864	8368
664.056	8259.46
664.247	8296.32
664.439	8159.11
664.631	8357.76
664.822	8189.83
665.014	8142.72
665.205	8128.39
665.397	8134.53
665.588	8071.04
665.78	8005.51
665.971	8099.72
666.163	7999.37
666.354	7839.62
666.546	7864.2
666.737	7853.96
666.929	7757.71
667.12	7622.54
667.311	7800.71
667.503	7661.45
667.694	7694.22
667.885	7622.54
668.077	7546.76
668.268	7407.5
668.459	7575.44
668.651	7352.21
668.842	7366.54
669.033	7487.37
669.224	7364.5
669.416	7362.45
669.607	7436.17
669.798	7169.94
669.989	7417.74
670.18	7198.61
670.371	7112.6
670.563	7114.64
670.754	7214.99
670.945	6836.12
671.136	7034.77
671.327	7186.32
671.518	6997.91
671.709	7063.44
671.9	6983.57
672.091	6940.57
672.282	7049.11
672.473	6895.51
672.664	6786.97
672.855	6827.93
673.046	6766.49
673.237	6795.16
673.428	6834.07
673.619	6668.19
673.809	6483.87
674	6539.16
674.191	6733.72
674.382	6569.88
674.573	6666.14
674.764	6682.52
674.954	6578.08
675.145	6508.44
675.336	6606.75
675.527	6469.53
675.717	6600.6
675.908	6416.29
676.099	6383.52
676.289	6481.82
676.48	6377.37
676.671	6442.91
676.861	6416.29
677.052	6516.64
677.243	6248.35
677.433	6508.44
677.624	6490.01
677.814	6317.98
678.005	6494.11
678.195	6317.98
678.386	6156.19
678.576	6121.38
678.767	6191.01
678.957	6148
679.148	6109.09
679.338	6107.04
679.529	6340.51
679.719	6252.45
679.909	6125.47
680.1	6092.71
680.29	6244.26
680.481	6148
680.671	6141.86
680.861	6053.8
681.052	6104.99
681.242	5871.53
681.432	6068.13
681.622	6088.61
681.813	5998.5
682.003	6035.36
682.193	5900.2
682.383	5916.58
682.573	5932.97
682.764	5947.3
682.954	5937.06
683.144	6096.8
683.334	5932.97
683.524	5935.01
683.714	5781.42
683.904	5836.71
684.094	6014.88
684.284	5812.14
684.474	6029.22
684.664	5793.7
684.854	5805.99
685.044	5828.52
685.234	5828.52
685.424	5691.31
685.614	5695.4
685.804	5679.02
685.994	5789.61
686.184	5662.63
686.374	5793.7
686.564	5679.02
686.753	5613.48
686.943	5584.81
687.133	5650.35
687.323	5631.91
687.513	5662.63
687.702	5433.26
687.892	5623.72
688.082	5523.37
688.272	5586.86
688.461	5572.52
688.651	5490.6
688.841	5318.57
689.03	5453.74
689.22	5384.11
689.41	5420.97
689.599	5425.07
689.789	5439.4
689.979	5459.88
690.168	5396.4
690.358	5197.74
690.547	5244.85
690.737	5420.97
690.926	5347.25
691.116	5171.12
691.305	5337.01
691.495	5212.08
691.684	5150.64
691.874	5148.59
692.063	5091.25
692.252	5089.2
692.442	5117.87
692.631	5076.91
692.82	5089.2
693.01	5068.72
693.199	5191.6
693.388	5019.57
693.578	5040.05
693.767	5162.93
693.956	4958.13
694.146	4894.65
694.335	4880.31
694.524	4917.17
694.713	4888.5
694.902	4853.69
695.092	4945.84
695.281	4708.28
695.47	4796.34
695.659	4728.76
695.848	4792.25
696.037	4802.49
696.226	4771.77
696.415	4724.66
696.604	4765.62
696.793	4925.36
696.982	4841.4
697.171	4851.64
697.36	4818.87
697.549	4786.1
697.738	4642.75
697.927	4753.34
698.116	4788.15
698.305	4632.51
698.494	4503.48
698.683	4630.46
698.872	4632.51
699.061	4562.87
699.25	4552.63
699.438	4462.52
699.627	4601.79
699.816	4616.12
700.005	4517.82
700.193	4491.2
700.382	4564.92
700.571	4485.05
700.76	4544.44
700.948	4446.14
701.137	4472.76
701.326	4618.17
701.514	4368.32
701.703	4290.49
701.892	4407.23
702.08	4614.07
702.269	4472.76
702.457	4306.88
702.646	4321.21
702.834	4265.92
703.023	4278.21
703.212	4362.17
703.4	4310.97
703.589	4149.18
703.777	4216.77
703.965	4204.48
704.154	4198.34
704.342	4044.74
704.531	4263.87
704.719	4194.24
704.907	4356.03
705.096	4136.9
705.284	4042.69
705.472	4114.37
705.661	4130.75
705.849	4007.87
706.037	4071.36
706.226	4194.24
706.414	4200.38
706.602	3973.06
706.79	4116.42
706.979	3995.59
707.167	4061.12
707.355	4020.16
707.543	3944.39
707.731	3999.68
707.919	4155.33
708.107	3985.35
708.296	3856.33
708.484	3950.53
708.672	3811.27
708.86	3968.96
709.048	3766.21
709.236	3821.51
709.424	3860.42
709.612	3915.72
709.8	3712.97
709.988	3809.22
710.176	3893.19
710.364	3831.75
710.551	3772.36
710.739	3770.31
710.927	3731.4
711.115	3606.47
711.303	3745.73
711.491	3768.26
711.679	3723.21
711.866	3606.47
712.054	3678.15
712.242	3696.58
712.43	3807.17
712.617	3540.94
712.805	3614.66
712.993	3606.47
713.181	3569.61
713.368	3622.86
713.556	3596.23
713.744	3491.79
713.931	3715.02
714.119	3549.13
714.306	3508.17
714.494	3444.68
714.682	3344.33
714.869	3332.05
715.057	3583.95
715.244	3499.98
715.432	3438.54
715.619	3438.54
715.807	3452.88
715.994	3354.57
716.182	3246.03
716.369	3311.57
716.556	3444.68
716.744	3289.04
716.931	3282.89
717.119	3317.71
717.306	3336.14
717.493	3176.4
717.681	3342.28
717.868	3295.18
718.055	3305.42
718.242	3286.99
718.43	3297.23
718.617	3209.17
718.804	3243.98
718.991	3241.93
719.179	3131.34
719.366	3080.15
719.553	3217.36
719.74	3119.06
719.927	3063.76
720.114	3213.26
720.301	3114.96
720.488	3182.54
720.676	3143.63
720.863	3135.44
721.05	3123.15
721.237	3233.74
721.424	3149.78
721.611	3094.48
721.798	2926.55
721.985	3147.73
722.172	3049.43
722.358	3000.27
722.545	3037.14
722.732	3000.27
722.919	3002.32
723.106	2965.46
723.293	2936.79
723.48	2920.4
723.667	2961.36
723.853	2897.88
724.04	2844.63
724.227	2944.98
724.414	2836.44
724.6	2830.29
724.787	2885.59
724.974	2977.75
725.161	2869.2
725.347	2811.86
725.534	2807.77
725.72	2875.35
725.907	2914.26
726.094	2981.84
726.28	2736.09
726.467	2729.94
726.653	2846.68
726.84	2875.35
727.027	2820.05
727.213	2586.58
727.4	2799.57
727.586	2803.67
727.773	2717.65
727.959	2719.7
728.145	2734.04
728.332	2764.76
728.518	2740.18
728.705	2803.67
728.891	2738.13
729.077	2731.99
729.264	2705.37
729.45	2789.33
729.636	2779.09
729.823	2674.65
730.009	2686.94
730.195	2707.41
730.382	2695.13
730.568	2633.69
730.754	2656.22
730.94	2713.56
731.126	2648.02
731.313	2633.69
731.499	2582.49
731.685	2602.97
731.871	2510.81
732.057	2592.73
732.243	2607.06
732.429	2557.91
732.615	2492.38
732.801	2633.69
732.987	2535.39
733.173	2543.58
733.359	2537.43
733.545	2510.81
733.731	2545.63
733.917	2512.86
734.103	2482.14
734.289	2443.23
734.475	2486.23
734.661	2451.42
734.847	2416.6
735.033	2455.51
735.219	2320.35
735.404	2449.37
735.59	2328.54
735.776	2357.21
735.962	2312.16
736.148	2459.61
736.333	2414.56
736.519	2410.46
736.705	2369.5
736.89	2443.23
737.076	2230.24
737.262	2328.54
737.447	2428.89
737.633	2383.84
737.819	2316.25
738.004	2420.7
738.19	2320.35
738.375	2238.43
738.561	2363.36
738.747	2361.31
738.932	2232.29
739.118	2254.81
739.303	2232.29
739.489	2306.01
739.674	2117.6
739.859	2322.4
740.045	2187.23
740.23	2099.17
740.416	2115.55
740.601	2158.56
740.786	2156.51
740.972	2152.42
741.157	2168.8
741.342	2179.04
741.528	2115.55
741.713	2195.42
741.898	2101.22
742.084	2176.99
742.269	2107.36
742.454	2084.83
742.639	2148.32
742.824	2015.2
743.01	2140.13
743.195	2095.07
743.38	2041.82
743.565	1861.6
743.75	2000.87
743.935	2000.87
744.12	2045.92
744.305	1947.62
744.49	1949.67
744.675	1869.8
744.86	1902.56
745.045	1976.29
745.23	1929.19
745.415	1865.7
745.6	1875.94
745.785	1953.76
745.97	1898.47
746.155	1947.62
746.34	1974.24
746.525	1748.97
746.71	1959.91
746.895	1910.75
747.079	1796.07
747.264	1808.36
747.449	1923.04
747.634	1751.01
747.819	1851.36
748.003	1789.92
748.188	1787.88
748.373	1755.11
748.557	1753.06
748.742	1697.77
748.927	1724.39
749.111	1722.34
749.296	1732.58
749.481	1656.81
749.665	1687.53
749.85	1593.32
750.034	1726.44
750.219	1611.75
750.404	1667.05
750.588	1673.19
750.773	1642.47
750.957	1550.31
751.141	1591.27
751.326	1636.33
751.51	1644.52
751.695	1566.7
751.879	1533.93
752.064	1470.44
752.248	1529.83
752.432	1636.33
752.617	1554.41
752.801	1513.45
752.985	1558.5
753.17	1492.97
753.354	1406.95
753.538	1460.2
753.722	1378.28
753.907	1406.95
754.091	1429.48
754.275	1458.15
754.459	1411.05
754.643	1404.91
754.828	1357.8
755.012	1290.22
755.196	1349.61
755.38	1333.23
755.564	1409
755.748	1361.9
755.932	1366
756.116	1325.04
756.3	1320.94
756.484	1339.37
756.668	1232.88
756.852	1253.36
757.036	1124.33
757.22	1220.59
757.404	1349.61
757.588	1202.16
757.772	1290.22
757.956	1232.88
758.14	1263.6
758.323	1140.72
758.507	1214.45
758.691	1288.17
758.875	1222.64
759.059	1124.33
759.242	1107.95
759.426	1110
759.61	1202.16
759.794	1165.29
759.977	1210.35
760.161	1243.12
760.345	1134.57
760.528	1093.62
760.712	1124.33
760.895	1239.02
761.079	1062.9
761.263	1052.66
761.446	1116.14
761.63	1050.61
761.813	1073.14
761.997	1052.66
762.18	1120.24
762.364	1112.05
762.547	1036.27
762.731	1050.61
762.914	1083.38
763.098	950.26
763.281	976.88
763.464	1032.18
763.648	995.31
763.831	968.69
764.015	894.96
764.198	1083.38
764.381	927.73
764.564	985.07
764.748	989.17
764.931	985.07
765.114	1019.89
765.297	1021.94
765.481	937.97
765.664	929.78
765.847	1026.03
766.03	921.59
766.213	952.31
766.397	911.35
766.58	983.03
766.763	954.35
766.946	856.05
767.129	899.06
767.312	972.79
767.495	931.83
767.678	940.02
767.861	976.88
768.044	878.58
768.227	944.11
768.41	874.48
768.593	931.83
768.776	933.87
768.959	940.02
769.142	935.92
769.324	892.91
769.507	927.73
769.69	911.35
769.873	890.87
770.056	927.73
770.239	813.04
770.421	901.11
770.604	929.78
770.787	935.92
770.97	849.91
771.152	774.13
771.335	870.39
771.518	899.06
771.7	870.39
771.883	854
772.066	843.76
772.248	886.77
772.431	915.44
772.613	890.87
772.796	856.05
772.978	802.8
773.161	817.14
773.343	837.62
773.526	681.97
773.708	794.61
773.891	739.32
774.073	849.91
774.256	757.75
774.438	833.52
774.621	684.02
774.803	780.28
774.985	843.76
775.168	767.99
775.35	749.56
775.532	749.56
775.715	684.02
775.897	690.17
776.079	731.12
776.261	792.56
776.444	704.5
776.626	774.13
776.808	708.6
776.99	659.45
777.173	571.38
777.355	657.4
777.537	708.6
777.719	702.45
777.901	671.73
778.083	645.11
778.265	675.83
778.447	763.89
778.629	659.45
778.811	620.53
778.993	663.54
779.175	657.4
779.357	542.71
779.539	706.55
779.721	585.72
779.903	600.05
780.085	581.62
780.267	618.49
780.449	667.64
780.631	663.54
780.812	698.36
780.994	555
781.176	620.53
781.358	563.19
781.54	585.72
781.721	577.53
781.903	575.48
782.085	608.25
782.267	591.86
782.448	567.29
782.63	563.19
782.812	571.38
782.993	624.63
783.175	563.19
783.357	542.71
783.538	579.58
783.72	559.1
783.901	448.51
784.083	583.67
784.264	534.52
784.446	493.56
784.627	479.22
784.809	497.66
784.99	452.6
785.172	468.98
785.353	534.52
785.535	432.12
785.716	468.98
785.897	501.75
786.079	415.74
786.26	475.13
786.441	499.7
786.623	446.46
786.804	468.98
786.985	440.31
787.167	507.9
787.348	464.89
787.529	454.65
787.71	458.75
787.891	432.12
788.073	350.2
788.254	423.93
788.435	514.04
788.616	440.31
788.797	387.07
788.978	380.92
789.159	331.77
789.34	458.75
789.522	280.57
789.703	419.83
789.884	456.7
790.065	403.45
790.246	450.55
790.427	423.93
790.607	407.55
790.788	374.78
790.969	387.07
791.15	444.41
791.331	356.35
791.512	346.11
791.693	321.53
791.874	348.15
792.054	454.65
792.235	315.39
792.416	329.72
792.597	380.92
792.778	342.01
792.958	337.91
793.139	264.19
793.32	309.24
793.5	337.91
793.681	382.97
793.862	387.07
794.042	391.16
794.223	292.86
794.404	272.38
794.584	282.62
794.765	387.07
794.945	288.76
795.126	305.15
795.306	303.1
795.487	272.38
795.667	274.43
795.848	348.15
796.028	301.05
796.209	296.96
796.389	413.69
796.57	305.15
796.75	296.96
796.93	305.15
797.111	319.48
797.291	262.14
797.471	350.2
797.652	249.85
797.832	243.71
798.012	307.2
798.192	256
798.373	256
798.553	313.34
798.733	247.8
798.913	266.24
799.093	256
799.274	274.43
799.454	233.47
799.634	256
799.814	282.62
799.994	282.62
800.174	190.46
800.354	268.28
800.534	215.04
800.714	280.57
800.894	206.84
801.074	167.93
801.254	233.47
801.434	282.62
801.614	317.44
801.794	233.47
801.974	899.06
802.154	276.48
802.334	296.96
802.514	174.08
802.693	268.28
802.873	206.84
803.053	288.76
803.233	276.48
803.413	206.84
803.592	151.55
803.772	280.57
803.952	223.23
804.131	133.12
804.311	221.18
804.491	260.09
804.67	219.13
804.85	227.32
805.03	135.17
805.209	280.57
805.389	174.08
805.568	157.69
805.748	151.55
805.928	198.65
806.107	182.27
806.287	292.86
806.466	227.32
806.646	192.51
806.825	227.32
807.004	165.89
807.184	198.65
807.363	274.43
807.543	233.47
807.722	184.32
807.901	206.84
808.081	169.98
808.26	147.45
808.439	231.42
808.619	227.32
808.798	141.31
808.977	231.42
809.156	210.94
809.336	217.08
809.515	284.67
809.694	104.45
809.873	174.08
810.052	260.09
810.231	225.28
810.411	163.84
810.59	204.8
810.769	120.83
810.948	124.93
811.127	174.08
811.306	92.16
811.485	141.31
811.664	217.08
811.843	194.56
812.022	135.17
812.201	129.02
812.38	241.66
812.559	143.36
812.737	151.55
812.916	102.4
813.095	126.97
813.274	96.25
813.453	102.4
813.632	135.17
813.811	208.89
813.989	159.74
814.168	135.17
814.347	167.93
814.526	118.78
814.704	167.93
814.883	141.31
815.062	149.5
815.24	206.84
815.419	145.41
815.598	159.74
815.776	26.62
815.955	67.58
816.133	55.3
816.312	141.31
816.49	155.65
816.669	141.31
816.847	83.97
817.026	200.7
817.204	86.01
817.383	137.21
817.561	43.01
817.74	217.08
817.918	124.93
818.097	96.25
818.275	110.59
818.453	143.36
818.632	135.17
818.81	104.45
818.988	116.73
819.167	75.77
819.345	161.79
819.523	190.46
819.701	51.2
819.879	112.64
820.058	159.74
820.236	79.87
820.414	94.21
820.592	124.93
820.77	55.3
820.948	153.6
821.127	126.97
821.305	149.5
821.483	126.97
821.661	120.83
821.839	133.12
822.017	120.83
822.195	108.54
822.373	124.93
822.551	79.87
822.729	57.34
822.907	124.93
823.085	159.74
823.262	133.12
823.44	110.59
823.618	120.83
823.796	53.25
823.974	143.36
824.152	43.01
824.329	108.54
824.507	108.54
824.685	118.78
824.863	110.59
825.04	112.64
825.218	165.89
825.396	83.97
825.574	108.54
825.751	157.69
825.929	124.93
826.107	53.25
826.284	157.69
826.462	120.83
826.639	83.97
826.817	36.86
826.994	118.78
827.172	51.2
827.349	92.16
827.527	92.16
827.704	143.36
827.882	45.06
828.059	83.97
828.237	145.41
828.414	124.93
828.591	43.01
828.769	59.39
828.946	30.72
829.124	102.4
829.301	124.93
829.478	108.54
829.655	133.12
829.833	73.73
830.01	96.25
830.187	94.21
830.364	92.16
830.542	71.68
830.719	135.17
830.896	139.26
831.073	77.82
831.25	69.63
831.427	47.1
831.604	45.06
831.782	-34.82
831.959	102.4
832.136	94.21
832.313	100.35
832.49	57.34
832.667	116.73
832.844	67.58
833.021	133.12
833.198	75.77
833.374	118.78
833.551	161.79
833.728	165.89
833.905	83.97
834.082	-34.82
834.259	38.91
834.436	118.78
834.612	2.05
834.789	77.82
834.966	38.91
835.143	59.39
835.319	-8.19
835.496	24.58
835.673	65.54
835.85	51.2
836.026	161.79
836.203	108.54
836.38	67.58
836.556	20.48
836.733	8.19
836.909	67.58
837.086	92.16
837.262	36.86
837.439	59.39
837.616	75.77
837.792	106.49
837.968	57.34
838.145	4.1
838.321	43.01
838.498	22.53
838.674	67.58
838.851	75.77
839.027	12.29
839.203	124.93
839.38	83.97
839.556	102.4
839.732	77.82
839.909	102.4
840.085	83.97
840.261	6.14
840.437	43.01
840.614	26.62
840.79	92.16
840.966	36.86
841.142	92.16
841.318	75.77
841.494	4.1
841.671	141.31
841.847	-30.72
842.023	-6.14
842.199	32.77
842.375	98.3
842.551	2.05
842.727	69.63
842.903	63.49
843.079	12.29
843.255	51.2
843.431	-12.29
843.607	36.86
843.783	24.58
843.959	110.59
844.134	100.35
844.31	157.69
844.486	43.01
844.662	26.62
844.838	-10.24
845.013	108.54
845.189	75.77
845.365	174.08
845.541	65.54
845.716	51.2
845.892	167.93
846.068	-26.62
846.244	51.2
846.419	45.06
846.595	40.96
846.77	18.43
846.946	59.39
847.122	8.19
847.297	86.01
847.473	108.54
847.648	2.05
847.824	81.92
847.999	18.43
848.175	49.15
848.35	26.62
848.526	10.24
848.701	63.49
848.876	4.1
849.052	18.43
849.227	-10.24
849.403	59.39
849.578	86.01
849.753	-10.24
849.929	63.49
850.104	65.54
850.279	55.3
850.454	67.58
850.63	22.53
850.805	30.72
850.98	100.35
851.155	71.68
851.33	-12.29
851.505	8.19
851.681	161.79
851.856	45.06
852.031	10.24
852.206	32.77
852.381	-8.19
852.556	-6.14
852.731	14.34
852.906	61.44
853.081	96.25
853.256	28.67
853.431	69.63
853.606	-14.34
853.781	26.62
853.956	-34.82
854.131	92.16
854.305	55.3
854.48	18.43
854.655	34.82
854.83	-14.34
855.005	43.01
855.18	-14.34
855.354	32.77
855.529	-36.86
855.704	26.62
855.879	36.86
856.053	26.62
856.228	86.01
856.403	-12.29
856.577	55.3
856.752	26.62
856.926	10.24
857.101	-26.62
857.276	-30.72
857.45	4.1
857.625	67.58
857.799	69.63
857.974	59.39
858.148	-18.43
858.323	51.2
858.497	-24.58
858.672	30.72
858.846	-26.62
859.02	12.29
859.195	-30.72
859.369	34.82
859.543	-43.01
859.718	51.2
859.892	38.91
860.066	34.82
860.241	14.34
860.415	0
860.589	22.53
860.763	14.34
860.938	28.67
861.112	10.24
861.286	-8.19
861.46	38.91
861.634	51.2
861.808	16.38
861.982	-6.14
862.157	10.24
862.331	-6.14
862.505	24.58
862.679	-92.16
862.853	16.38
863.027	53.25
863.201	47.1
863.375	-6.14
863.549	71.68
863.722	-28.67
863.896	43.01
864.07	-71.68
864.244	2.05
864.418	-26.62
864.592	63.49
864.766	75.77
864.939	106.49
865.113	30.72
865.287	65.54
865.461	-55.3
865.634	22.53
865.808	30.72
865.982	8.19
866.156	24.58
866.329	4.1
866.503	-57.34
866.676	92.16
866.85	-32.77
867.024	22.53
867.197	88.06
867.371	32.77
867.544	51.2
867.718	2.05
867.891	92.16
868.065	-77.82
868.238	-4.1
868.412	83.97
868.585	45.06
868.759	4.1
868.932	28.67
869.105	45.06
869.279	55.3
869.452	-38.91
869.625	77.82
869.799	-12.29
869.972	4.1
870.145	6.14
870.319	-88.06
870.492	28.67
870.665	2.05
870.838	14.34
871.011	-102.4
871.185	-4.1
871.358	4.1
871.531	16.38
871.704	-20.48
871.877	-6.14
872.05	-36.86
872.223	83.97
872.396	10.24
872.569	26.62
872.742	-59.39
872.915	34.82
873.088	-16.38
873.261	-6.14
873.434	22.53
873.607	18.43
873.78	26.62
873.953	-30.72
874.126	-2.05
874.299	4.1
874.471	-10.24
874.644	-28.67
874.817	10.24
874.99	24.58
875.163	-24.58
875.335	12.29
875.508	-32.77
875.681	83.97
875.853	-22.53
876.026	-61.44
876.199	86.01
876.371	34.82
876.544	6.14
876.717	55.3
876.889	-63.49
877.062	30.72
877.234	30.72
877.407	22.53
877.579	28.67
877.752	59.39
877.924	67.58
878.097	38.91
878.269	-26.62
878.442	-6.14
878.614	57.34
878.786	-24.58
878.959	-38.91
879.131	-36.86
879.303	-36.86
879.476	-14.34
879.648	-36.86
879.82	18.43
879.993	-6.14
880.165	45.06
880.337	-28.67
880.509	98.3
880.681	-18.43
880.854	-16.38
881.026	-22.53
881.198	98.3
881.37	38.91
881.542	14.34
881.714	-6.14
881.886	43.01
882.058	53.25
882.23	-6.14
882.402	-67.58
882.574	-22.53
882.746	59.39
882.918	-4.1
883.09	4.1
883.262	34.82
883.434	86.01
883.606	-126.97
883.778	34.82
883.95	75.77
884.122	-2.05
884.293	18.43
884.465	26.62
884.637	12.29
884.809	-8.19
884.98	22.53
885.152	-4.1
885.324	118.78
885.496	-20.48
885.667	34.82
885.839	-45.06
886.011	151.55
886.182	34.82
886.354	67.58
886.525	94.21
886.697	51.2
886.869	-4.1
887.04	8.19
887.212	83.97
887.383	45.06
887.555	-14.34
887.726	-20.48
887.897	26.62
888.069	-6.14
888.24	-24.58
888.412	2.05
888.583	-8.19
888.754	18.43
888.926	20.48
889.097	26.62
889.268	-63.49
889.44	-14.34
889.611	-45.06
889.782	4.1
889.953	-22.53
890.125	36.86
890.296	-26.62
890.467	-51.2
890.638	-20.48
890.809	10.24
890.98	43.01
891.151	26.62
891.323	71.68
891.494	108.54
891.665	18.43
891.836	18.43
892.007	-53.25
892.178	34.82
892.349	-96.25
892.52	8.19
892.691	-34.82
892.862	55.3
893.032	-12.29
893.203	-34.82
893.374	49.15
893.545	100.35
893.716	-6.14
893.887	-28.67
894.057	2.05
894.228	55.3
894.399	-10.24
894.57	6.14
894.74	-10.24
894.911	51.2
895.082	2.05
895.253	-6.14
895.423	-30.72
895.594	51.2
895.764	-4.1
895.935	-2.05
896.106	14.34
896.276	-4.1
896.447	-18.43
896.617	-12.29
896.788	67.58
896.958	34.82
897.129	-34.82
897.299	-14.34
897.47	-20.48
897.64	102.4
897.81	43.01
897.981	18.43
898.151	-18.43
898.322	14.34
898.492	24.58
898.662	26.62
898.832	24.58
899.003	22.53
899.173	-18.43
899.343	20.48
899.513	4.1
