Data from USB4F104151__160__14-32-15-468.txt Node

Date: Thu Mar 13 14:32:15 EDT 2025
User: louis
Spectrometer: USB4F10415
Trigger mode: 4
Integration Time (sec): 2.500000E-2
Scans to average: 1
Electric dark correction enabled: true
Nonlinearity correction enabled: false
Boxcar width: 0
XAxis mode: Wavelengths
Number of Pixels in Spectrum: 3648
>>>>>Begin Spectral Data<<<<<
178.204	-94.38
178.424	-94.38
178.644	-94.38
178.864	-102.57
179.084	-159.91
179.304	12.12
179.524	59.22
179.744	-86.19
179.964	-10.41
180.184	12.12
180.404	12.12
180.624	-18.6
180.844	-55.47
181.064	12.12
181.283	-4.27
181.503	44.88
181.723	22.36
181.943	-135.34
182.163	63.32
182.383	28.5
182.602	65.36
182.822	69.46
183.042	44.88
183.262	34.64
183.482	-43.18
183.701	-45.23
183.921	34.64
184.141	-32.94
184.361	55.12
184.58	12.12
184.8	28.5
185.02	20.31
185.239	-8.36
185.459	-16.55
185.679	-47.27
185.898	-34.99
186.118	53.08
186.338	69.46
186.557	8.02
186.777	-69.8
186.997	8.02
187.216	-34.99
187.436	55.12
187.655	22.36
187.875	12.12
188.095	-34.99
188.314	85.84
188.534	30.55
188.753	38.74
188.973	114.52
189.192	73.56
189.412	28.5
189.631	28.5
189.851	-12.46
190.07	96.08
190.29	-69.8
190.509	-20.65
190.729	-2.22
190.948	22.36
191.168	79.7
191.387	48.98
191.607	-61.61
191.826	10.07
192.045	63.32
192.265	46.93
192.484	-32.94
192.704	14.17
192.923	3.93
193.142	128.85
193.362	83.8
193.581	1.88
193.8	-10.41
194.02	69.46
194.239	36.69
194.458	-51.37
194.678	-73.9
194.897	-37.03
195.116	28.5
195.335	10.07
195.555	102.23
195.774	40.79
195.993	1.88
196.212	55.12
196.432	-39.08
196.651	-12.46
196.87	28.5
197.089	77.65
197.308	34.64
197.528	71.51
197.747	-30.89
197.966	34.64
198.185	102.23
198.404	-37.03
198.623	-24.75
198.842	3.93
199.062	69.46
199.281	32.6
199.5	-16.55
199.719	42.84
199.938	-4.27
200.157	-37.03
200.376	18.26
200.595	8.02
200.814	32.6
201.033	44.88
201.252	36.69
201.471	28.5
201.69	69.46
201.909	-34.99
202.128	69.46
202.347	61.27
202.566	20.31
202.785	-39.08
203.004	-0.17
203.223	110.42
203.442	12.12
203.661	14.17
203.879	36.69
204.098	40.79
204.317	40.79
204.536	73.56
204.755	87.89
204.974	20.31
205.193	-39.08
205.411	85.84
205.63	87.89
205.849	-12.46
206.068	8.02
206.287	-32.94
206.505	87.89
206.724	-4.27
206.943	24.4
207.162	-16.55
207.381	-61.61
207.599	-28.84
207.818	12.12
208.037	12.12
208.255	-45.23
208.474	73.56
208.693	65.36
208.911	65.36
209.13	73.56
209.349	-18.6
209.567	-20.65
209.786	-37.03
210.005	36.69
210.223	69.46
210.442	14.17
210.661	-10.41
210.879	14.17
211.098	3.93
211.316	-6.31
211.535	44.88
211.753	5.97
211.972	73.56
212.191	-18.6
212.409	-28.84
212.628	-4.27
212.846	12.12
213.065	34.64
213.283	28.5
213.502	-22.7
213.72	3.93
213.938	102.23
214.157	20.31
214.375	12.12
214.594	46.93
214.812	73.56
215.031	-12.46
215.249	-4.27
215.467	65.36
215.686	-49.32
215.904	135
216.122	32.6
216.341	89.94
216.559	-10.41
216.778	65.36
216.996	36.69
217.214	55.12
217.432	18.26
217.651	-10.41
217.869	-32.94
218.087	55.12
218.306	-34.99
218.524	44.88
218.742	38.74
218.96	30.55
219.179	24.4
219.397	36.69
219.615	40.79
219.833	44.88
220.051	-24.75
220.27	3.93
220.488	30.55
220.706	71.51
220.924	30.55
221.142	5.97
221.36	-12.46
221.578	14.17
221.796	-12.46
222.015	81.75
222.233	30.55
222.451	89.94
222.669	-10.41
222.887	-12.46
223.105	-24.75
223.323	3.93
223.541	12.12
223.759	36.69
223.977	87.89
224.195	89.94
224.413	22.36
224.631	26.45
224.849	-65.71
225.067	24.4
225.285	30.55
225.503	-37.03
225.721	-28.84
225.939	36.69
226.157	22.36
226.375	69.46
226.592	-94.38
226.81	14.17
227.028	12.12
227.246	85.84
227.464	12.12
227.682	130.9
227.9	20.31
228.117	40.79
228.335	77.65
228.553	38.74
228.771	-2.22
228.989	57.17
229.206	53.08
229.424	-4.27
229.642	30.55
229.86	-28.84
230.077	10.07
230.295	3.93
230.513	61.27
230.731	57.17
230.948	32.6
231.166	12.12
231.384	-43.18
231.601	-34.99
231.819	63.32
232.037	53.08
232.254	-12.46
232.472	28.5
232.689	24.4
232.907	77.65
233.125	18.26
233.342	24.4
233.56	12.12
233.777	12.12
233.995	32.6
234.213	28.5
234.43	79.7
234.648	3.93
234.865	94.04
235.083	5.97
235.3	30.55
235.518	40.79
235.735	126.8
235.953	89.94
236.17	-10.41
236.388	91.99
236.605	16.21
236.822	110.42
237.04	14.17
237.257	-4.27
237.475	61.27
237.692	46.93
237.909	-4.27
238.127	44.88
238.344	-51.37
238.562	3.93
238.779	-37.03
238.996	-8.36
239.214	44.88
239.431	71.51
239.648	-20.65
239.865	40.79
240.083	96.08
240.3	30.55
240.517	30.55
240.735	24.4
240.952	-0.17
241.169	44.88
241.386	36.69
241.603	-61.61
241.821	-20.65
242.038	-28.84
242.255	102.23
242.472	-28.84
242.689	61.27
242.907	38.74
243.124	51.03
243.341	20.31
243.558	20.31
243.775	-34.99
243.992	-6.31
244.209	30.55
244.426	30.55
244.643	135
244.86	3.93
245.078	28.5
245.295	12.12
245.512	22.36
245.729	-12.46
245.946	46.93
246.163	75.6
246.38	16.21
246.597	-24.75
246.814	102.23
247.031	51.03
247.248	94.04
247.464	30.55
247.681	-39.08
247.898	30.55
248.115	-69.8
248.332	3.93
248.549	57.17
248.766	32.6
248.983	77.65
249.2	3.93
249.417	46.93
249.633	36.69
249.85	73.56
250.067	-8.36
250.284	-10.41
250.501	63.32
250.717	20.31
250.934	40.79
251.151	40.79
251.368	57.17
251.585	83.8
251.801	5.97
252.018	8.02
252.235	57.17
252.451	-41.13
252.668	-41.13
252.885	69.46
253.102	5.97
253.318	-32.94
253.535	-24.75
253.752	71.51
253.968	22.36
254.185	3.93
254.401	28.5
254.618	81.75
254.835	-12.46
255.051	75.6
255.268	12.12
255.484	-8.36
255.701	40.79
255.917	-4.27
256.134	-30.89
256.351	55.12
256.567	12.12
256.784	8.02
257	18.26
257.217	57.17
257.433	-8.36
257.65	5.97
257.866	55.12
258.082	61.27
258.299	1.88
258.515	-10.41
258.732	-10.41
258.948	-57.51
259.165	67.41
259.381	-4.27
259.597	46.93
259.814	61.27
260.03	30.55
260.246	94.04
260.463	20.31
260.679	79.7
260.895	-18.6
261.112	3.93
261.328	-8.36
261.544	5.97
261.761	24.4
261.977	73.56
262.193	-100.52
262.409	81.75
262.626	28.5
262.842	44.88
263.058	-22.7
263.274	20.31
263.49	32.6
263.707	32.6
263.923	16.21
264.139	3.93
264.355	-8.36
264.571	61.27
264.787	40.79
265.004	42.84
265.22	-0.17
265.436	-77.99
265.652	55.12
265.868	-43.18
266.084	61.27
266.3	8.02
266.516	5.97
266.732	57.17
266.948	83.8
267.164	81.75
267.38	57.17
267.596	30.55
267.812	85.84
268.028	69.46
268.244	16.21
268.46	81.75
268.676	14.17
268.892	36.69
269.108	-10.41
269.324	3.93
269.54	36.69
269.756	36.69
269.972	40.79
270.188	30.55
270.403	-4.27
270.619	57.17
270.835	22.36
271.051	38.74
271.267	-45.23
271.483	-32.94
271.698	30.55
271.914	12.12
272.13	44.88
272.346	20.31
272.562	-0.17
272.777	32.6
272.993	14.17
273.209	57.17
273.425	44.88
273.64	44.88
273.856	73.56
274.072	10.07
274.287	-57.51
274.503	89.94
274.719	55.12
274.934	40.79
275.15	-26.79
275.366	-22.7
275.581	-20.65
275.797	102.23
276.012	22.36
276.228	-24.75
276.444	-24.75
276.659	48.98
276.875	42.84
277.09	-20.65
277.306	8.02
277.521	42.84
277.737	14.17
277.952	42.84
278.168	3.93
278.383	30.55
278.599	18.26
278.814	61.27
279.03	87.89
279.245	79.7
279.461	3.93
279.676	22.36
279.892	55.12
280.107	-51.37
280.322	28.5
280.538	51.03
280.753	14.17
280.969	-8.36
281.184	20.31
281.399	55.12
281.615	61.27
281.83	12.12
282.045	-18.6
282.26	-43.18
282.476	32.6
282.691	44.88
282.906	81.75
283.122	16.21
283.337	-24.75
283.552	46.93
283.767	5.97
283.983	44.88
284.198	-16.55
284.413	55.12
284.628	24.4
284.843	8.02
285.058	100.18
285.274	-20.65
285.489	-28.84
285.704	55.12
285.919	-45.23
286.134	77.65
286.349	3.93
286.564	-12.46
286.779	73.56
286.995	5.97
287.21	-57.51
287.425	-10.41
287.64	-28.84
287.855	18.26
288.07	73.56
288.285	-10.41
288.5	53.08
288.715	-4.27
288.93	79.7
289.145	-4.27
289.36	46.93
289.575	55.12
289.79	32.6
290.004	-57.51
290.219	30.55
290.434	32.6
290.649	32.6
290.864	20.31
291.079	-16.55
291.294	40.79
291.509	1.88
291.724	40.79
291.938	-6.31
292.153	61.27
292.368	20.31
292.583	81.75
292.798	63.32
293.012	24.4
293.227	-37.03
293.442	3.93
293.657	42.84
293.871	81.75
294.086	14.17
294.301	57.17
294.516	-2.22
294.73	69.46
294.945	-37.03
295.16	77.65
295.374	55.12
295.589	112.47
295.804	-2.22
296.018	94.04
296.233	36.69
296.447	-4.27
296.662	-4.27
296.877	44.88
297.091	69.46
297.306	-82.09
297.52	3.93
297.735	-16.55
297.949	53.08
298.164	81.75
298.378	3.93
298.593	-32.94
298.807	3.93
299.022	28.5
299.236	106.32
299.451	-28.84
299.665	32.6
299.88	-26.79
300.094	46.93
300.309	87.89
300.523	87.89
300.737	-28.84
300.952	5.97
301.166	63.32
301.381	-16.55
301.595	57.17
301.809	-12.46
302.024	-18.6
302.238	12.12
302.452	135
302.667	53.08
302.881	44.88
303.095	-28.84
303.309	57.17
303.524	-12.46
303.738	81.75
303.952	46.93
304.166	61.27
304.381	-18.6
304.595	91.99
304.809	-16.55
305.023	1.88
305.237	48.98
305.452	5.97
305.666	81.75
305.88	69.46
306.094	28.5
306.308	12.12
306.522	57.17
306.736	5.97
306.95	-26.79
307.164	-32.94
307.379	-16.55
307.593	94.04
307.807	53.08
308.021	120.66
308.235	126.8
308.449	-24.75
308.663	32.6
308.877	116.56
309.091	28.5
309.305	46.93
309.519	-65.71
309.733	53.08
309.947	-43.18
310.161	137.04
310.374	28.5
310.588	98.13
310.802	8.02
311.016	30.55
311.23	98.13
311.444	20.31
311.658	38.74
311.872	65.36
312.085	53.08
312.299	71.51
312.513	77.65
312.727	53.08
312.941	-20.65
313.154	141.14
313.368	-45.23
313.582	3.93
313.796	24.4
314.009	-37.03
314.223	77.65
314.437	1.88
314.651	89.94
314.864	30.55
315.078	-34.99
315.292	1.88
315.505	30.55
315.719	104.28
315.933	12.12
316.146	36.69
316.36	-24.75
316.573	5.97
316.787	46.93
317.001	36.69
317.214	-69.8
317.428	112.47
317.641	14.17
317.855	12.12
318.068	8.02
318.282	3.93
318.495	96.08
318.709	24.4
318.922	59.22
319.136	139.09
319.349	34.64
319.563	46.93
319.776	32.6
319.99	-8.36
320.203	48.98
320.417	3.93
320.63	53.08
320.843	30.55
321.057	20.31
321.27	135
321.483	71.51
321.697	96.08
321.91	100.18
322.124	-0.17
322.337	28.5
322.55	-2.22
322.763	32.6
322.977	20.31
323.19	10.07
323.403	-37.03
323.617	57.17
323.83	87.89
324.043	24.4
324.256	20.31
324.469	14.17
324.683	61.27
324.896	51.03
325.109	61.27
325.322	-45.23
325.535	48.98
325.748	40.79
325.962	91.99
326.175	-18.6
326.388	16.21
326.601	-6.31
326.814	69.46
327.027	61.27
327.24	63.32
327.453	-53.42
327.666	44.88
327.879	57.17
328.092	57.17
328.305	26.45
328.518	-34.99
328.731	-39.08
328.944	5.97
329.157	102.23
329.37	36.69
329.583	73.56
329.796	104.28
330.009	65.36
330.222	28.5
330.435	79.7
330.648	83.8
330.861	40.79
331.073	48.98
331.286	120.66
331.499	81.75
331.712	-24.75
331.925	36.69
332.138	24.4
332.35	20.31
332.563	65.36
332.776	108.37
332.989	57.17
333.202	104.28
333.414	20.31
333.627	46.93
333.84	12.12
334.053	36.69
334.265	-24.75
334.478	5.97
334.691	-77.99
334.903	28.5
335.116	42.84
335.329	16.21
335.541	-4.27
335.754	48.98
335.966	10.07
336.179	8.02
336.392	10.07
336.604	5.97
336.817	87.89
337.029	96.08
337.242	20.31
337.454	12.12
337.667	28.5
337.88	77.65
338.092	-18.6
338.305	38.74
338.517	73.56
338.729	22.36
338.942	22.36
339.154	-4.27
339.367	-84.14
339.579	71.51
339.792	-30.89
340.004	89.94
340.217	3.93
340.429	55.12
340.641	-12.46
340.854	24.4
341.066	12.12
341.278	67.41
341.491	14.17
341.703	-20.65
341.915	79.7
342.128	53.08
342.34	-53.42
342.552	14.17
342.764	-8.36
342.977	69.46
343.189	53.08
343.401	63.32
343.613	-43.18
343.826	26.45
344.038	5.97
344.25	77.65
344.462	5.97
344.674	32.6
344.886	-39.08
345.099	87.89
345.311	30.55
345.523	55.12
345.735	-37.03
345.947	44.88
346.159	-8.36
346.371	-12.46
346.583	-71.85
346.795	65.36
347.007	36.69
347.219	12.12
347.431	8.02
347.643	57.17
347.855	-12.46
348.067	10.07
348.279	-43.18
348.491	20.31
348.703	65.36
348.915	20.31
349.127	20.31
349.339	77.65
349.551	85.84
349.763	12.12
349.975	40.79
350.187	30.55
350.399	77.65
350.61	-20.65
350.822	-69.8
351.034	94.04
351.246	1.88
351.458	53.08
351.669	30.55
351.881	126.8
352.093	102.23
352.305	71.51
352.517	36.69
352.728	53.08
352.94	44.88
353.152	5.97
353.363	-4.27
353.575	28.5
353.787	-12.46
353.999	40.79
354.21	120.66
354.422	-10.41
354.633	-71.85
354.845	24.4
355.057	98.13
355.268	-20.65
355.48	20.31
355.692	-22.7
355.903	28.5
356.115	-26.79
356.326	-32.94
356.538	96.08
356.749	77.65
356.961	42.84
357.172	81.75
357.384	65.36
357.595	114.52
357.807	63.32
358.018	-49.32
358.23	8.02
358.441	89.94
358.653	14.17
358.864	22.36
359.075	46.93
359.287	30.55
359.498	28.5
359.709	36.69
359.921	59.22
360.132	100.18
360.344	8.02
360.555	36.69
360.766	40.79
360.977	-51.37
361.189	98.13
361.4	24.4
361.611	24.4
361.823	63.32
362.034	51.03
362.245	24.4
362.456	-12.46
362.667	83.8
362.879	20.31
363.09	10.07
363.301	69.46
363.512	36.69
363.723	110.42
363.935	-41.13
364.146	137.04
364.357	20.31
364.568	55.12
364.779	-114.86
364.99	114.52
365.201	5.97
365.412	81.75
365.623	-37.03
365.834	79.7
366.045	63.32
366.256	147.28
366.467	5.97
366.678	20.31
366.889	1.88
367.1	-4.27
367.311	46.93
367.522	5.97
367.733	28.5
367.944	3.93
368.155	-34.99
368.366	-4.27
368.577	85.84
368.788	100.18
368.999	-26.79
369.209	69.46
369.42	112.47
369.631	151.38
369.842	48.98
370.053	-37.03
370.264	96.08
370.474	26.45
370.685	48.98
370.896	85.84
371.107	32.6
371.317	79.7
371.528	51.03
371.739	143.19
371.95	102.23
372.16	30.55
372.371	81.75
372.582	-4.27
372.792	44.88
373.003	-18.6
373.214	108.37
373.424	126.8
373.635	14.17
373.846	122.71
374.056	81.75
374.267	44.88
374.477	-0.17
374.688	-0.17
374.898	14.17
375.109	51.03
375.319	24.4
375.53	12.12
375.74	1.88
375.951	28.5
376.161	22.36
376.372	30.55
376.582	28.5
376.793	102.23
377.003	20.31
377.214	-6.31
377.424	14.17
377.635	77.65
377.845	-28.84
378.055	106.32
378.266	-4.27
378.476	63.32
378.686	-12.46
378.897	46.93
379.107	30.55
379.317	104.28
379.528	83.8
379.738	44.88
379.948	-12.46
380.158	81.75
380.369	30.55
380.579	-41.13
380.789	40.79
380.999	159.57
381.21	36.69
381.42	89.94
381.63	44.88
381.84	89.94
382.05	16.21
382.261	22.36
382.471	57.17
382.681	-8.36
382.891	79.7
383.101	182.1
383.311	12.12
383.521	-43.18
383.731	79.7
383.941	53.08
384.151	40.79
384.361	-2.22
384.571	55.12
384.781	46.93
384.991	71.51
385.201	114.52
385.411	46.93
385.621	48.98
385.831	-4.27
386.041	46.93
386.251	30.55
386.461	71.51
386.671	40.79
386.881	65.36
387.091	75.6
387.301	32.6
387.511	61.27
387.72	22.36
387.93	94.04
388.14	-2.22
388.35	42.84
388.56	61.27
388.769	36.69
388.979	77.65
389.189	-4.27
389.399	94.04
389.609	85.84
389.818	85.84
390.028	-8.36
390.238	28.5
390.447	96.08
390.657	53.08
390.867	-0.17
391.076	-4.27
391.286	55.12
391.496	85.84
391.705	120.66
391.915	61.27
392.125	55.12
392.334	14.17
392.544	124.76
392.753	38.74
392.963	112.47
393.172	38.74
393.382	-8.36
393.591	79.7
393.801	85.84
394.01	184.15
394.22	63.32
394.429	1.88
394.639	42.84
394.848	67.41
395.058	44.88
395.267	20.31
395.477	141.14
395.686	77.65
395.895	73.56
396.105	153.43
396.314	96.08
396.524	44.88
396.733	40.79
396.942	65.36
397.152	77.65
397.361	112.47
397.57	110.42
397.78	55.12
397.989	36.69
398.198	184.15
398.407	36.69
398.617	69.46
398.826	83.8
399.035	118.61
399.244	69.46
399.453	102.23
399.663	106.32
399.872	135
400.081	48.98
400.29	116.56
400.499	12.12
400.708	63.32
400.917	22.36
401.127	81.75
401.336	63.32
401.545	100.18
401.754	77.65
401.963	110.42
402.172	118.61
402.381	28.5
402.59	106.32
402.799	87.89
403.008	147.28
403.217	135
403.426	110.42
403.635	110.42
403.844	126.8
404.053	69.46
404.262	132.95
404.471	163.67
404.68	163.67
404.888	155.47
405.097	155.47
405.306	139.09
405.515	161.62
405.724	118.61
405.933	102.23
406.142	157.52
406.35	108.37
406.559	126.8
406.768	202.58
406.977	171.86
407.185	120.66
407.394	145.24
407.603	208.72
407.812	171.86
408.02	218.96
408.229	89.94
408.438	241.49
408.646	188.24
408.855	135
409.064	245.59
409.272	200.53
409.481	270.16
409.69	132.95
409.898	212.82
410.107	311.12
410.315	282.45
410.524	292.69
410.733	323.41
410.941	216.91
411.15	311.12
411.358	319.31
411.567	307.02
411.775	268.11
411.984	307.02
412.192	317.26
412.401	358.22
412.609	382.8
412.818	429.9
413.026	427.85
413.234	362.32
413.443	528.21
413.651	413.52
413.86	462.67
414.068	487.25
414.276	540.49
414.485	585.55
414.693	538.45
414.901	642.89
415.11	593.74
415.318	593.74
415.526	634.7
415.734	675.66
415.943	687.95
416.151	776.01
416.359	692.04
416.567	728.91
416.776	839.5
416.984	786.25
417.192	796.49
417.4	894.79
417.608	780.11
417.817	890.7
418.025	896.84
418.233	1054.53
418.441	1009.48
418.649	1136.45
418.857	1032.01
419.065	1144.64
419.273	1134.4
419.481	1101.64
419.689	1242.95
419.897	1314.63
420.105	1230.66
420.313	1242.95
420.521	1347.39
420.729	1482.56
420.937	1437.5
421.145	1509.18
421.353	1455.94
421.561	1556.29
421.769	1734.46
421.977	1789.75
422.185	1699.64
422.393	1898.3
422.601	1988.41
422.809	2113.33
423.017	1892.15
423.224	2070.33
423.432	2219.83
423.64	2158.39
423.848	2330.42
424.056	2266.93
424.263	2479.92
424.471	2350.9
424.679	2623.28
424.887	2641.71
425.094	2780.97
425.302	2791.21
425.51	2682.67
425.718	2987.82
425.925	2971.43
426.133	2993.96
426.341	3174.18
426.548	3438.37
426.756	3395.36
426.964	3411.75
427.171	3663.65
427.379	3718.94
427.586	3604.25
427.794	3938.07
428.001	4017.94
428.209	4228.88
428.417	4087.57
428.624	4296.47
428.832	4323.09
429.039	4394.77
429.247	4509.46
429.454	4730.64
429.662	5066.5
429.869	4757.26
430.076	5199.62
430.284	4914.95
430.491	5111.56
430.699	5510.91
430.906	5615.36
431.114	5461.76
431.321	5857.02
431.528	5820.16
431.736	6297.33
431.943	6618.86
432.15	6418.16
432.358	6559.47
432.565	6764.27
432.772	6803.18
432.979	6950.64
433.187	7151.34
433.394	7083.75
433.601	7841.5
433.808	7700.19
434.016	7689.95
434.223	8128.22
434.43	8287.96
434.637	8294.1
434.844	8707.79
435.052	8838.86
435.259	8896.21
435.466	8980.17
435.673	8859.34
435.88	9455.3
436.087	10079.93
436.294	9787.07
436.501	9805.5
436.708	9875.13
436.915	10337.98
437.122	10792.62
437.329	10747.57
437.537	11093.68
437.743	11245.23
437.95	11128.49
438.157	11701.92
438.364	12175
438.571	12068.51
438.778	12117.66
438.985	13078.16
439.192	12791.44
439.399	13055.63
439.606	12844.69
439.813	13430.41
440.02	14210.68
440.227	14026.37
440.433	13971.07
440.64	14538.36
440.847	14151.29
441.054	14579.32
441.261	15668.84
441.467	15459.95
441.674	15697.51
441.881	16248.41
442.088	16236.13
442.294	16082.53
442.501	16551.51
442.708	16737.88
442.914	17493.58
443.121	18216.51
443.328	17729.09
443.534	18970.16
443.741	18232.9
443.948	18288.19
444.154	19531.31
444.361	19316.27
444.568	19342.89
444.774	19633.71
444.981	19787.3
445.187	20196.9
445.394	21265.94
445.6	21138.96
445.807	22965.75
446.013	21839.37
446.22	22265.35
446.426	23213.56
446.633	23121.4
446.839	24384.99
447.046	23096.82
447.252	24604.13
447.459	24339.94
447.665	24329.7
447.871	25200.08
448.078	26533.31
448.284	25241.04
448.491	26002.89
448.697	26963.39
448.903	27588.02
449.11	27528.63
449.316	27055.54
449.522	27372.98
449.728	28134.82
449.935	28427.68
450.141	28063.15
450.347	29160.86
450.553	28288.42
450.76	28980.64
450.966	29341.08
451.172	29126.04
451.378	29924.75
451.584	29279.64
451.791	30287.24
451.997	29906.32
452.203	30676.35
452.409	30594.43
452.615	30440.84
452.821	28960.16
453.027	28818.85
453.233	30508.42
453.44	29189.53
453.646	29400.47
453.852	29771.15
454.058	30180.74
454.264	29076.89
454.47	29980.04
454.676	28931.48
454.882	29713.81
455.088	27422.13
455.294	27790.77
455.5	28007.85
455.705	28403.11
455.911	27211.19
456.117	26967.48
456.323	26199.49
456.529	24753.63
456.735	26242.5
456.941	25578.96
457.147	25036.25
457.352	24143.33
457.558	23959.02
457.764	23805.42
457.97	23547.37
458.176	22894.07
458.381	23078.39
458.587	21894.66
458.793	21650.95
458.999	20563.48
459.204	22173.19
459.41	21620.24
459.616	20377.12
459.821	20078.11
460.027	20012.58
460.233	19672.62
460.438	18804.28
460.644	18837.05
460.85	17921.6
461.055	17737.29
461.261	17696.33
461.466	16217.69
461.672	15916.64
461.878	17010.26
462.083	15887.97
462.289	15695.46
462.494	15451.75
462.7	14409.34
462.905	14128.77
463.111	14859.89
463.316	14861.94
463.522	14599.8
463.727	14585.46
463.932	14569.08
464.138	14339.71
464.343	14483.06
464.549	14061.18
464.754	14517.88
464.959	14425.72
465.165	14012.03
465.37	13536.9
465.575	13452.94
465.781	13657.73
465.986	13749.89
466.191	13461.13
466.397	13020.81
466.602	12353.18
466.807	12875.41
467.012	12893.84
467.218	12785.3
467.423	12818.07
467.628	12744.34
467.833	13235.85
468.038	12768.91
468.244	12369.56
468.449	12861.07
468.654	12557.97
468.859	12357.27
469.064	12459.67
469.269	11783.84
469.474	11822.75
469.679	12080.8
469.885	12025.5
470.09	12242.59
470.295	11853.47
470.5	11437.73
470.705	11681.44
470.91	11417.26
471.115	11357.86
471.32	11284.14
471.525	11392.68
471.73	11200.17
471.935	11114.16
472.139	10727.09
472.344	10577.59
472.549	10620.6
472.754	10464.95
472.959	10464.95
473.164	10153.66
473.369	10104.51
473.574	10505.91
473.778	10481.33
473.983	10120.89
474.188	10182.33
474.393	9592.51
474.598	9705.15
474.802	9598.66
475.007	9510.6
475.212	9604.8
475.417	9260.74
475.621	9260.74
475.826	9289.42
476.031	9055.95
476.235	9129.67
476.44	9055.95
476.645	9096.91
476.849	8885.97
477.054	8752.85
477.259	8736.46
477.463	8699.6
477.668	8509.14
477.872	8521.43
478.077	8443.6
478.282	8314.58
478.486	8058.59
478.691	7972.57
478.895	8169.18
479.1	8021.72
479.304	8126.17
479.509	8001.24
479.713	8048.35
479.918	7735.01
480.122	7601.89
480.326	7745.25
480.531	7640.8
480.735	7618.27
480.94	7646.94
481.144	7958.24
481.348	7528.16
481.553	7575.27
481.757	7413.48
481.961	7616.23
482.166	7624.42
482.37	7485.16
482.574	7390.95
482.778	7474.92
482.983	7575.27
483.187	7540.45
483.391	7501.54
483.595	7429.86
483.8	7460.58
484.004	7548.64
484.208	7556.83
484.412	7544.55
484.616	7542.5
484.821	7507.68
485.025	7339.75
485.229	7581.41
485.433	7483.11
485.637	7524.07
485.841	7433.96
486.045	7229.16
486.249	7499.49
486.453	7507.68
486.657	7376.61
486.861	7423.72
487.065	7343.85
487.269	7393
487.473	7436
487.677	7288.55
487.881	7282.41
488.085	7417.57
488.289	7421.67
488.493	7458.53
488.697	7458.53
488.901	7476.96
489.105	7339.75
489.309	7436
489.512	7569.12
489.716	7548.64
489.92	7483.11
490.124	7474.92
490.328	7540.45
490.531	7466.72
490.735	7483.11
490.939	7493.35
491.143	7485.16
491.346	7515.87
491.55	7599.84
491.754	7835.36
491.958	7735.01
492.161	7683.81
492.365	7720.67
492.569	7827.17
492.772	7888.6
492.976	7716.58
493.18	7900.89
493.383	8031.96
493.587	7968.48
493.79	7945.95
493.994	8023.77
494.197	7982.81
494.401	8253.14
494.605	8107.74
494.808	8085.21
495.012	8326.87
495.215	8302.29
495.419	8376.02
495.622	8175.32
495.825	8347.35
496.029	8410.84
496.232	8691.41
496.436	8648.4
496.639	8838.86
496.843	8675.02
497.046	8791.76
497.249	8957.64
497.453	8949.45
497.656	9297.61
497.859	9219.78
498.063	9066.19
498.266	9379.53
498.469	9318.09
498.673	9565.89
498.876	9666.24
499.079	9500.36
499.282	9608.9
499.485	9887.42
499.689	9680.58
499.892	9930.43
500.095	9961.15
500.298	10411.7
500.501	10194.62
500.705	10387.13
500.908	10524.34
501.111	10628.79
501.314	10757.81
501.517	10700.47
501.72	10841.78
501.923	10972.85
502.126	11296.42
502.329	11349.67
502.532	11374.25
502.735	11538.09
502.938	11849.38
503.141	11845.28
503.344	11943.58
503.547	11736.74
503.75	11951.77
503.953	12220.06
504.156	12361.37
504.359	12457.62
504.562	12504.73
504.765	12691.09
504.968	12770.96
505.17	13031.05
505.373	12938.9
505.576	13139.6
505.779	13471.37
505.982	13532.81
506.185	13704.84
506.387	13532.81
506.59	13940.35
506.793	14179.96
506.996	14071.42
507.198	14220.92
507.401	14151.29
507.604	14333.56
507.807	14808.69
508.009	14876.27
508.212	15146.61
508.415	15103.6
508.617	15386.22
508.82	15277.68
509.022	15277.68
509.225	15920.74
509.428	15912.55
509.63	15818.34
509.833	16039.52
510.035	16457.31
510.238	16303.71
510.44	16643.67
510.643	16801.36
510.845	16868.95
511.048	16950.87
511.25	17403.47
511.453	17143.38
511.655	17956.42
511.858	17522.25
512.06	17858.12
512.262	18019.91
512.465	17976.9
512.667	18341.44
512.87	18316.86
513.072	18468.41
513.274	18798.13
513.477	18863.67
513.679	19127.86
513.881	19295.79
514.084	19512.88
514.286	19471.92
514.488	19428.91
514.69	20088.35
514.893	20037.16
515.095	19967.52
515.297	20313.63
515.499	20500
515.701	20688.41
515.904	21038.61
516.106	21284.37
516.308	21179.92
516.51	21605.9
516.712	21489.17
516.914	21585.42
517.116	22185.47
517.318	21880.33
517.52	22201.86
517.722	22373.89
517.925	22515.2
518.127	23059.96
518.329	23203.32
518.531	22660.6
518.733	23133.68
518.935	23653.87
519.136	23772.65
519.338	24206.82
519.54	23852.52
519.742	24133.09
519.944	24210.92
520.146	24542.69
520.348	24282.59
520.55	24409.57
520.752	24749.53
520.954	24888.79
521.155	24964.57
521.357	25304.53
521.559	25494.99
521.761	25767.37
521.963	25529.81
522.164	25640.4
522.366	25794
522.568	26062.28
522.77	25941.45
522.971	26416.58
523.173	26330.56
523.375	26539.46
523.576	26398.15
523.778	26340.8
523.98	26881.47
524.181	27094.46
524.383	26949.05
524.584	27147.7
524.786	26947
524.988	26863.04
525.189	27114.94
525.391	27295.16
525.592	27317.68
525.794	27837.87
525.995	27751.85
526.197	27809.2
526.398	27458.99
526.6	27798.96
526.801	27758
527.003	27882.92
527.204	27788.72
527.406	28147.11
527.607	27936.17
527.808	27987.37
528.01	27721.13
528.211	28239.27
528.412	28657.06
528.614	28188.07
528.815	27956.65
529.016	28405.16
529.218	27962.79
529.419	28118.44
529.62	28573.09
529.822	28122.54
530.023	28192.17
530.224	28104.1
530.425	28183.98
530.626	28011.95
530.828	27925.93
531.029	28708.26
531.23	28011.95
531.431	27860.4
531.632	28296.61
531.833	27889.07
532.035	28030.38
532.236	28095.91
532.437	28409.25
532.638	27657.65
532.839	28052.91
533.04	28091.82
533.241	27755.95
533.442	28501.41
533.643	27862.44
533.844	28112.3
534.045	28011.95
534.246	27758
534.447	28452.26
534.648	27725.23
534.849	27717.04
535.05	27637.17
535.251	27934.12
535.451	27852.2
535.652	28016.04
535.853	27645.36
536.054	27964.84
536.255	27794.86
536.456	27585.97
536.657	27815.34
536.857	27903.4
537.058	27567.54
537.259	27729.33
537.46	27674.03
537.66	28102.06
537.861	28009.9
538.062	27487.67
538.263	27780.53
538.463	27432.37
538.664	27682.22
538.865	27553.2
539.065	27749.81
539.266	27088.31
539.466	27839.92
539.667	27139.51
539.868	27594.16
540.068	27592.11
540.269	27270.58
540.469	27645.36
540.67	27274.68
540.87	27137.46
541.071	27166.13
541.271	27452.85
541.472	27311.54
541.672	27162.04
541.873	27280.82
542.073	27127.22
542.274	27127.22
542.474	27213.24
542.675	27018.68
542.875	27555.25
543.075	27274.68
543.276	26848.7
543.476	27422.13
543.676	27073.98
543.877	27166.13
544.077	26990.01
544.277	27282.87
544.478	26983.87
544.678	27291.06
544.878	27272.63
545.078	26951.1
545.279	26789.31
545.479	26865.08
545.679	27094.46
545.879	26963.39
546.079	26854.84
546.28	27002.3
546.48	26817.98
546.68	27010.49
546.88	26942.91
547.08	26916.28
547.28	26879.42
547.48	26588.61
547.68	26840.51
547.88	26777.02
548.081	27041.21
548.281	26721.73
548.481	26891.71
548.681	27200.95
548.881	26734.01
549.081	27063.74
549.28	26740.16
549.48	27076.02
549.68	27096.5
549.88	26817.98
550.08	26799.55
550.28	26908.09
550.48	27014.59
550.68	27098.55
550.88	27039.16
551.08	27033.02
551.279	26985.91
551.479	26639.81
551.679	27166.13
551.879	26660.29
552.079	27033.02
552.278	26842.56
552.478	26815.93
552.678	26686.91
552.878	26947
553.077	26809.79
553.277	26650.05
553.477	27098.55
553.676	26885.56
553.876	27012.54
554.076	26817.98
554.275	26787.26
554.475	26656.19
554.674	26830.27
554.874	26901.95
555.074	27028.92
555.273	27153.85
555.473	27172.28
555.672	27049.4
555.872	27035.06
556.071	27266.49
556.271	27203
556.47	26938.81
556.67	26881.47
556.869	27076.02
557.068	27399.6
557.268	27018.68
557.467	26971.58
557.667	27116.98
557.866	26957.24
558.065	26990.01
558.265	27147.7
558.464	26930.62
558.663	27045.3
558.863	26742.21
559.062	27176.37
559.261	26715.58
559.461	27170.23
559.66	26602.94
559.859	26959.29
560.058	26865.08
560.258	27125.18
560.457	26871.23
560.656	27413.94
560.855	27229.62
561.054	27049.4
561.253	26828.22
561.453	27104.7
561.652	26992.06
561.851	27110.84
562.05	26908.09
562.249	26754.49
562.448	26811.84
562.647	26705.34
562.846	26924.47
563.045	26981.82
563.244	26488.26
563.443	27299.25
563.642	26744.25
563.841	26854.84
564.04	26600.9
564.239	27149.75
564.438	26254.79
564.637	26566.08
564.836	26961.34
565.035	26602.94
565.234	26701.25
565.432	26932.67
565.631	26650.05
565.83	26590.66
566.029	26686.91
566.228	26789.31
566.427	26297.8
566.625	26365.38
566.824	26041.8
567.023	26324.42
567.222	26027.46
567.42	26271.17
567.619	26181.06
567.818	25951.69
568.016	26179.01
568.215	26226.12
568.414	26004.94
568.612	26148.29
568.811	26054.09
569.01	25914.83
569.208	25783.76
569.407	26150.34
569.605	25583.05
569.804	26170.82
570.002	25910.73
570.201	26041.8
570.4	25794
570.598	25859.53
570.797	25548.24
570.995	25693.65
571.193	25083.35
571.392	25679.31
571.59	25183.7
571.789	25611.73
571.987	25187.8
572.186	25312.72
572.384	25099.73
572.582	25263.57
572.781	25062.87
572.979	24880.6
573.177	25136.6
573.376	25484.75
573.574	25079.25
573.772	25028.06
573.971	24933.85
574.169	24790.49
574.367	24352.23
574.565	24819.16
574.763	24595.93
574.962	24374.75
575.16	24477.15
575.358	24520.16
575.556	23840.23
575.754	24708.57
575.952	24294.88
576.151	24331.75
576.349	23739.88
576.547	23371.25
576.745	23971.3
576.943	23997.93
577.141	24016.36
577.339	23750.12
577.537	24042.98
577.735	23801.32
577.933	23592.43
578.131	23707.12
578.329	23664.11
578.527	23543.28
578.725	23281.14
578.923	23627.24
579.121	23293.43
579.319	23236.08
579.516	23223.79
579.714	23145.97
579.912	23252.47
580.11	22820.35
580.308	22916.6
580.506	22924.79
580.704	22509.05
580.901	22773.24
581.099	22828.54
581.297	22787.58
581.495	22525.44
581.692	22629.88
581.89	22668.8
582.088	22580.73
582.285	22445.57
582.483	22527.49
582.681	22388.22
582.878	22185.47
583.076	22152.71
583.274	22246.91
583.471	22205.95
583.669	22179.33
583.866	22169.09
584.064	22388.22
584.262	21843.46
584.459	22011.4
584.657	21984.77
584.854	22105.6
585.052	21546.51
585.249	21730.83
585.447	21751.31
585.644	21397.01
585.841	21491.21
586.039	22052.36
586.236	21278.22
586.434	21292.56
586.631	21548.56
586.828	21278.22
587.026	21339.66
587.223	21206.55
587.42	21116.44
587.618	21442.06
587.815	21034.52
588.012	20833.82
588.21	21050.9
588.407	21319.18
588.604	20964.89
588.801	20780.57
588.999	20729.37
589.196	20612.63
589.393	20606.49
589.59	20620.83
589.787	20770.33
589.984	20442.65
590.182	20483.61
590.379	20536.86
590.576	20401.69
590.773	20252.19
590.97	20022.82
591.167	20229.66
591.364	19861.03
591.561	20174.37
591.758	19832.36
591.955	20151.84
592.152	20078.11
592.349	20231.71
592.546	20250.14
592.743	20000.29
592.94	19799.59
593.137	19822.12
593.334	19906.09
593.531	19607.08
593.727	19916.33
593.924	19689
594.121	19639.85
594.318	19750.44
594.515	19611.18
594.712	19672.62
594.908	19387.95
595.105	19590.7
595.302	19252.78
595.499	19406.38
595.696	19701.29
595.892	19224.11
596.089	19533.36
596.286	19652.14
596.482	19400.24
596.679	19052.08
596.876	19527.21
597.072	19066.42
597.269	19177.01
597.466	19236.4
597.662	19207.73
597.859	18988.6
598.055	19193.39
598.252	18884.15
598.448	19211.82
598.645	19037.75
598.841	18794.04
599.038	19234.35
599.234	19062.32
599.431	18787.89
599.627	18816.57
599.824	18921.01
600.02	18765.37
600.217	18861.62
600.413	19097.14
600.609	18814.52
600.806	18882.1
601.002	19250.74
601.198	18730.55
601.395	18624.06
601.591	18771.51
601.787	18896.44
601.984	18579
602.18	18929.2
602.376	18656.82
602.572	18732.6
602.769	18869.81
602.965	18869.81
603.161	18724.41
603.357	18759.22
603.553	18480.7
603.75	18769.46
603.946	18884.15
604.142	18853.43
604.338	18650.68
604.534	18814.52
604.73	18667.06
604.926	18492.99
605.122	18693.69
605.318	18810.42
605.514	18906.68
605.71	18822.71
605.906	18884.15
606.102	18671.16
606.298	19123.76
606.494	18892.34
606.69	18763.32
606.886	18890.29
607.082	18746.94
607.278	18730.55
607.474	18507.32
607.67	19011.12
607.866	18552.38
608.062	18787.89
608.257	18722.36
608.453	18755.13
608.649	18849.33
608.845	18671.16
609.041	18814.52
609.236	18841.14
609.432	18994.74
609.628	18953.78
609.824	18818.61
610.019	18812.47
610.215	19045.94
610.411	18961.97
610.606	18972.21
610.802	19013.17
610.998	18828.85
611.193	19060.27
611.389	18687.54
611.584	18886.2
611.78	19011.12
611.976	19070.51
612.171	19045.94
612.367	19027.51
612.562	18918.96
612.758	18943.54
612.953	18916.92
613.149	19080.75
613.344	18804.28
613.539	19164.72
613.735	19054.13
613.93	19236.4
614.126	19027.51
614.321	19443.24
614.517	19029.55
614.712	19023.41
614.907	18869.81
615.103	19140.15
615.298	18824.76
615.493	19263.02
615.688	18878.01
615.884	19590.7
616.079	18980.4
616.274	19107.38
616.47	19000.88
616.665	18898.48
616.86	18900.53
617.055	19099.19
617.25	18923.06
617.445	19238.45
617.641	18746.94
617.836	18945.59
618.031	18777.65
618.226	18988.6
618.421	18863.67
618.616	18929.2
618.811	18652.73
619.006	19009.08
619.201	18687.54
619.396	18624.06
619.591	18443.84
619.786	18861.62
619.981	18378.3
620.176	18771.51
620.371	18454.08
620.566	18513.47
620.761	18331.2
620.956	18513.47
621.151	18105.92
621.346	18351.68
621.541	17956.42
621.735	18142.78
621.93	17806.92
622.125	18064.96
622.32	17788.49
622.515	17776.2
622.709	17653.32
622.904	17528.39
623.099	17481.29
623.294	17747.53
623.488	17405.52
623.683	17657.42
623.878	17241.68
624.072	17204.81
624.267	17159.76
624.462	17188.43
624.656	16838.23
624.851	16746.07
625.046	16809.56
625.24	16639.58
625.435	16619.1
625.629	16565.85
625.824	16647.77
626.018	16787.03
626.213	16088.67
626.407	16500.31
626.602	16205.41
626.796	16133.73
626.991	16170.59
627.185	16199.26
627.38	15795.81
627.574	15963.75
627.768	15822.44
627.963	15828.58
628.157	15343.21
628.352	15814.24
628.546	15568.49
628.74	15615.59
628.935	15128.17
629.129	15269.48
629.323	15128.17
629.517	15107.69
629.712	15156.85
629.906	15044.21
630.1	14890.61
630.294	14915.19
630.489	14812.79
630.683	14823.03
630.877	14675.57
631.071	14620.28
631.265	14710.39
631.459	14552.7
631.653	14415.48
631.848	14243.45
632.042	14476.92
632.236	14274.17
632.43	14024.32
632.624	14083.71
632.818	13893.25
633.012	13999.74
633.206	13966.98
633.4	13995.65
633.594	13835.91
633.788	13620.87
633.982	13536.9
634.176	13692.55
634.369	13524.61
634.563	13405.83
634.757	13231.76
634.951	13153.93
635.145	13381.26
635.339	13102.73
635.533	13205.13
635.726	12936.85
635.92	12899.98
636.114	12947.09
636.308	12924.56
636.501	12783.25
636.695	12793.49
636.889	12451.48
637.083	12508.82
637.276	12467.86
637.47	12361.37
637.664	12111.52
637.857	12181.15
638.051	12308.12
638.244	12156.57
638.438	12025.5
638.632	12060.32
638.825	11826.85
639.019	11785.89
639.212	11759.27
639.406	11638.44
639.599	11869.86
639.793	11419.3
639.986	11415.21
640.18	11341.48
640.373	11478.69
640.567	11382.44
640.76	11429.54
640.954	11128.49
641.147	11189.93
641.34	11085.48
641.534	10981.04
641.727	10895.02
641.92	10925.74
642.114	10591.92
642.307	10759.86
642.5	10555.06
642.694	10399.41
642.887	10569.4
643.08	10743.47
643.273	10483.38
643.467	10524.34
643.66	10292.92
643.853	10227.39
644.046	10079.93
644.239	10251.96
644.432	10030.78
644.626	9907.9
644.819	10026.68
645.012	9899.71
645.205	9828.03
645.398	9719.49
645.591	9694.91
645.784	9797.31
645.977	9539.27
646.17	9481.92
646.363	9475.78
646.556	9385.67
646.749	9182.92
646.942	9369.29
647.135	9293.51
647.328	9338.57
647.521	9313.99
647.714	9000.65
647.907	8967.88
648.099	9043.66
648.292	9084.62
648.485	8863.44
648.678	8902.35
648.871	8992.46
649.064	8775.38
649.256	8818.38
649.449	8842.96
649.642	8744.66
649.835	8531.67
650.027	8490.71
650.22	8400.6
650.413	8546
650.605	8330.97
650.798	8351.45
650.991	8097.5
651.183	8392.41
651.376	8265.43
651.568	8279.77
651.761	8060.63
651.954	8128.22
652.146	8009.44
652.339	7974.62
652.531	8009.44
652.724	7993.05
652.916	7597.79
653.109	7749.34
653.301	7818.97
653.494	7771.87
653.686	7687.9
653.879	7806.69
654.071	7683.81
654.263	7403.24
654.456	7431.91
654.648	7495.39
654.84	7530.21
655.033	7466.72
655.225	7460.58
655.417	7243.49
655.61	7261.93
655.802	7288.55
655.994	7280.36
656.186	7280.36
656.379	7159.53
656.571	7153.38
656.763	6868.72
656.955	7032.55
657.148	6928.11
657.34	6860.52
657.532	6860.52
657.724	6858.48
657.916	6967.02
658.108	6751.98
658.3	6874.86
658.492	6772.46
658.684	6852.33
658.876	6799.09
659.068	6592.24
659.26	6557.43
659.452	6555.38
659.644	6573.81
659.836	6461.17
660.028	6469.36
660.22	6301.43
660.412	6358.77
660.604	6272.76
660.796	6393.59
660.988	6252.28
661.18	6221.56
661.372	6194.93
661.563	6287.09
661.755	6131.45
661.947	6287.09
662.139	5988.09
662.331	5930.75
662.522	5897.98
662.714	5986.04
662.906	6029.05
663.097	5951.23
663.289	5828.35
663.481	5992.19
663.673	5859.07
663.864	5687.04
664.056	5711.61
664.247	5660.41
664.439	5625.6
664.631	5560.06
664.822	5611.26
665.014	5732.09
665.205	5678.85
665.397	5535.49
665.588	5541.63
665.78	5658.37
665.971	5443.33
666.163	5410.56
666.354	5357.32
666.546	5349.12
666.737	5357.32
666.929	5263.11
667.12	5306.12
667.311	5338.88
667.503	5259.01
667.694	5338.88
667.885	5154.57
668.077	5154.57
668.268	5066.5
668.459	5099.27
668.651	5142.28
668.842	5216.01
669.033	5082.89
669.224	5025.54
669.416	5142.28
669.607	4935.43
669.798	4984.59
669.989	4755.21
670.18	4927.24
670.371	4951.82
670.563	4765.45
670.754	4767.5
670.945	4830.99
671.136	4722.45
671.327	4712.21
671.518	4833.04
671.709	4759.31
671.9	4763.4
672.091	4749.07
672.282	4583.18
672.473	4640.53
672.664	4632.33
672.855	4572.94
673.046	4644.62
673.237	4591.38
673.428	4460.31
673.619	4607.76
673.809	4538.13
674	4488.98
674.191	4476.69
674.382	4527.89
674.573	4478.74
674.764	4525.84
674.954	4501.26
675.145	4493.07
675.336	4288.28
675.527	4345.62
675.717	4443.92
675.908	4468.5
676.099	4493.07
676.289	4417.3
676.48	4304.66
676.671	4370.19
676.861	4544.27
677.052	4362
677.243	4149.01
677.433	4284.18
677.624	4290.32
677.814	4278.04
678.005	4224.79
678.195	4185.88
678.386	4273.94
678.576	4112.15
678.767	4249.36
678.957	4118.29
679.148	4310.8
679.338	4216.6
679.529	4200.21
679.719	4312.85
679.909	4165.4
680.1	4329.24
680.29	4249.36
680.481	4165.4
680.671	4257.56
680.861	4296.47
681.052	4120.34
681.242	4251.41
681.432	4206.36
681.622	4161.3
681.813	4042.52
682.003	4028.18
682.193	4216.6
682.383	4122.39
682.573	4083.48
682.764	4011.8
682.954	4177.69
683.144	4153.11
683.334	4140.82
683.524	4011.8
683.714	4026.14
683.904	4017.94
684.094	4159.25
684.284	4003.61
684.474	4056.86
684.664	4046.62
684.854	3968.79
685.044	4050.71
685.234	3936.03
685.424	3886.87
685.614	3831.58
685.804	4038.42
685.994	4017.94
686.184	3944.22
686.374	3979.03
686.564	4089.62
686.753	3948.31
686.943	3815.2
687.133	3837.72
687.323	3821.34
687.513	3944.22
687.702	3811.1
687.892	3841.82
688.082	3764
688.272	3847.96
688.461	3723.04
688.651	3847.96
688.841	3645.21
689.03	3624.73
689.22	3843.87
689.41	3700.51
689.599	3868.44
689.789	3874.59
689.979	3710.75
690.168	3716.89
690.358	3714.84
690.547	3600.16
690.737	3657.5
690.926	3610.4
691.116	3487.52
691.305	3729.18
691.495	3614.49
691.684	3528.48
691.874	3551.01
692.063	3559.2
692.252	3559.2
692.442	3510.05
692.631	3559.2
692.82	3548.96
693.01	3493.66
693.199	3487.52
693.388	3454.75
693.578	3350.31
693.767	3391.27
693.956	3409.7
694.146	3469.09
694.335	3307.3
694.524	3444.51
694.713	3270.44
694.902	3266.34
695.092	3430.18
695.281	3305.25
695.47	3299.11
695.659	3266.34
695.848	3309.35
696.037	3256.1
696.226	3405.6
696.415	3290.92
696.604	3268.39
696.793	3215.14
696.982	3319.59
697.171	3297.06
697.36	3321.63
697.549	3202.85
697.738	3125.03
697.927	3290.92
698.116	3237.67
698.305	3311.39
698.494	3247.91
698.683	3174.18
698.872	3252
699.061	3116.84
699.25	3077.93
699.438	3053.35
699.627	3206.95
699.816	3223.33
700.005	3116.84
700.193	3036.97
700.382	3125.03
700.571	3149.61
700.76	3122.98
700.948	3047.21
701.137	3141.41
701.326	3024.68
701.514	3055.4
701.703	2948.9
701.892	3008.3
702.08	3063.59
702.269	2926.38
702.457	2846.51
702.646	2983.72
702.834	2969.38
703.023	2946.86
703.212	3010.34
703.4	2963.24
703.589	2989.86
703.777	2998.06
703.965	2928.42
704.154	2946.86
704.342	2932.52
704.531	2881.32
704.719	2879.27
704.907	2969.38
705.096	2907.94
705.284	2815.79
705.472	2875.18
705.661	2758.44
705.849	2903.85
706.037	2920.23
706.226	2785.07
706.414	2877.23
706.602	2719.53
706.79	2846.51
706.979	2889.51
707.167	2805.55
707.355	2799.4
707.543	2649.9
707.731	2651.95
707.919	2748.2
708.107	2733.87
708.296	2678.57
708.484	2674.48
708.672	2641.71
708.86	2654
709.048	2697
709.236	2559.79
709.424	2643.76
709.612	2682.67
709.8	2432.82
709.988	2639.66
710.176	2643.76
710.364	2709.29
710.551	2576.17
710.739	2574.13
710.927	2518.83
711.115	2613.04
711.303	2625.33
711.491	2553.65
711.679	2486.06
711.866	2408.24
712.054	2465.58
712.242	2592.56
712.43	2543.41
712.617	2531.12
712.805	2551.6
712.993	2561.84
713.181	2502.45
713.368	2553.65
713.556	2438.96
713.744	2441.01
713.931	2549.55
714.119	2477.87
714.306	2408.24
714.494	2453.3
714.682	2469.68
714.869	2350.9
715.057	2375.47
715.244	2369.33
715.432	2357.04
715.619	2529.07
715.807	2234.16
715.994	2406.19
716.182	2346.8
716.369	2346.8
716.556	2354.99
716.744	2484.02
716.931	2395.95
717.119	2330.42
717.306	2240.31
717.493	2371.38
717.681	2309.94
717.868	2268.98
718.055	2225.97
718.242	2334.51
718.43	2273.07
718.617	2346.8
718.804	2209.59
718.991	2264.88
719.179	2133.81
719.366	2146.1
719.553	2176.82
719.74	2285.36
719.927	2158.39
720.114	2125.62
720.301	2127.67
720.488	2185.01
720.676	2080.57
720.863	2146.1
721.05	2219.83
721.237	2144.05
721.424	2205.49
721.611	2185.01
721.798	2084.66
721.985	2060.09
722.172	2002.74
722.358	2084.66
722.545	2164.53
722.732	2060.09
722.919	2201.4
723.106	2135.86
723.293	1980.22
723.48	2055.99
723.667	2029.37
723.853	2146.1
724.04	2058.04
724.227	2053.94
724.414	1951.54
724.6	2015.03
724.787	2006.84
724.974	2049.85
725.161	1976.12
725.347	1969.98
725.534	2051.89
725.72	2043.7
725.907	2012.98
726.094	1937.21
726.28	2068.28
726.467	1953.59
726.653	1945.4
726.84	1969.98
727.027	1990.45
727.213	1931.06
727.4	1998.65
727.586	1867.58
727.773	1890.1
727.959	1926.97
728.145	1992.5
728.332	1906.49
728.518	1836.86
728.705	1826.62
728.891	1908.54
729.077	1906.49
729.264	1838.91
729.45	1838.91
729.636	1888.06
729.823	1843
730.009	1865.53
730.195	1947.45
730.382	1888.06
730.568	1840.95
730.754	1896.25
730.94	1834.81
731.126	1799.99
731.313	1863.48
731.499	1783.61
731.685	1773.37
731.871	1810.23
732.057	1793.85
732.243	1929.02
732.429	1730.36
732.615	1881.91
732.801	1840.95
732.987	1761.08
733.173	1685.31
733.359	1806.14
733.545	1814.33
733.731	1707.84
733.917	1750.84
734.103	1709.88
734.289	1709.88
734.475	1691.45
734.661	1785.66
734.847	1732.41
735.033	1793.85
735.219	1744.7
735.404	1732.41
735.59	1597.24
735.776	1734.46
735.962	1638.2
736.148	1775.42
736.333	1675.07
736.519	1636.16
736.705	1834.81
736.89	1630.01
737.076	1609.53
737.262	1601.34
737.447	1601.34
737.633	1609.53
737.819	1769.27
738.004	1554.24
738.19	1544
738.375	1789.75
738.561	1609.53
738.747	1666.88
738.932	1593.15
739.118	1621.82
739.303	1582.91
739.489	1646.4
739.674	1621.82
739.859	1519.42
740.045	1576.77
740.23	1505.09
740.416	1625.92
740.601	1535.81
740.786	1503.04
740.972	1496.89
741.157	1572.67
741.342	1527.61
741.528	1363.78
741.713	1498.94
741.898	1486.65
742.084	1474.37
742.269	1480.51
742.454	1515.33
742.639	1523.52
742.824	1490.75
743.01	1419.07
743.195	1435.46
743.38	1445.7
743.565	1453.89
743.75	1484.61
743.935	1482.56
744.12	1392.45
744.305	1400.64
744.49	1470.27
744.675	1326.91
744.86	1341.25
745.045	1351.49
745.23	1425.22
745.415	1390.4
745.6	1341.25
745.785	1380.16
745.97	1429.31
746.155	1326.91
746.34	1265.47
746.525	1306.43
746.71	1404.74
746.895	1259.33
747.079	1249.09
747.264	1341.25
747.449	1316.67
747.634	1302.34
747.819	1308.48
748.003	1302.34
748.188	1169.22
748.373	1224.51
748.557	1324.87
748.742	1173.32
748.927	1335.1
749.111	1224.51
749.296	1199.94
749.481	1191.75
749.665	1163.08
749.85	1042.25
750.034	1169.22
750.219	1101.64
750.404	1216.32
750.588	1193.8
750.773	1158.98
750.957	1244.99
751.141	1163.08
751.326	1118.02
751.51	1109.83
751.695	1003.33
751.879	1134.4
752.064	1077.06
752.248	1060.68
752.432	1038.15
752.617	1109.83
752.801	1120.07
752.985	1003.33
753.17	1109.83
753.354	1097.54
753.538	1023.81
753.722	1109.83
753.907	976.71
754.091	915.27
754.275	958.28
754.459	1013.57
754.643	1019.72
754.828	982.85
755.012	991.05
755.196	919.37
755.38	923.46
755.564	921.42
755.748	937.8
755.932	896.84
756.116	837.45
756.3	937.8
756.484	827.21
756.668	978.76
756.852	814.92
757.036	843.59
757.22	890.7
757.404	845.64
757.588	892.74
757.772	831.3
757.956	802.63
758.14	843.59
758.323	880.46
758.507	855.88
758.691	814.92
758.875	880.46
759.059	868.17
759.242	888.65
759.426	921.42
759.61	794.44
759.794	810.82
759.977	675.66
760.161	870.22
760.345	855.88
760.528	819.02
760.712	773.96
760.895	757.58
761.079	778.06
761.263	743.24
761.446	769.87
761.63	790.35
761.813	925.51
761.997	794.44
762.18	737.1
762.364	753.48
762.547	708.43
762.731	788.3
762.914	669.52
763.098	708.43
763.281	749.39
763.464	716.62
763.648	675.66
763.831	661.32
764.015	634.7
764.198	630.6
764.381	716.62
764.564	724.81
764.748	667.47
764.931	659.28
765.114	708.43
765.297	696.14
765.481	646.99
765.664	642.89
765.847	759.63
766.03	692.04
766.213	671.56
766.397	720.71
766.58	636.75
766.763	661.32
766.946	560.97
767.129	618.32
767.312	667.47
767.495	585.55
767.678	675.66
767.861	560.97
768.044	694.09
768.227	735.05
768.41	640.84
768.593	634.7
768.776	569.16
768.959	649.04
769.142	601.93
769.324	587.6
769.507	753.48
769.69	646.99
769.873	620.36
770.056	733
770.239	552.78
770.421	708.43
770.604	644.94
770.787	630.6
770.97	585.55
771.152	503.63
771.335	520.01
771.518	569.16
771.7	618.32
771.883	683.85
772.066	603.98
772.248	612.17
772.431	597.84
772.613	630.6
772.796	585.55
772.978	573.26
773.161	675.66
773.343	601.93
773.526	544.59
773.708	546.64
773.891	530.25
774.073	520.01
774.256	479.05
774.438	511.82
774.621	544.59
774.803	472.91
774.985	522.06
775.168	563.02
775.35	507.73
775.532	575.31
775.715	479.05
775.897	485.2
776.079	515.92
776.261	483.15
776.444	429.9
776.626	491.34
776.808	450.38
776.99	511.82
777.173	448.33
777.355	571.21
777.537	499.53
777.719	470.86
777.901	438.09
778.083	503.63
778.265	417.61
778.447	446.29
778.629	436.05
778.811	452.43
778.993	472.91
779.175	532.3
779.357	474.96
779.539	399.18
779.721	454.48
779.903	477.01
780.085	350.03
780.267	446.29
780.449	458.57
780.631	388.94
780.812	499.53
780.994	397.14
781.176	374.61
781.358	438.09
781.54	395.09
781.721	427.85
781.903	395.09
782.085	364.37
782.267	388.94
782.448	307.02
782.63	407.38
782.812	347.98
782.993	347.98
783.175	329.55
783.357	372.56
783.538	356.18
783.72	356.18
783.901	429.9
784.083	331.6
784.264	366.42
784.446	317.26
784.627	278.35
784.809	388.94
784.99	358.22
785.172	329.55
785.353	366.42
785.535	266.07
785.716	307.02
785.897	272.21
786.079	337.74
786.26	315.22
786.441	317.26
786.623	296.78
786.804	300.88
786.985	292.69
787.167	216.91
787.348	286.54
787.529	278.35
787.71	300.88
787.891	294.74
788.073	204.63
788.254	243.54
788.435	307.02
788.616	317.26
788.797	210.77
788.978	329.55
789.159	266.07
789.34	261.97
789.522	251.73
789.703	216.91
789.884	255.83
790.065	274.26
790.246	360.27
790.427	249.68
790.607	339.79
790.788	292.69
790.969	231.25
791.15	233.3
791.331	206.67
791.512	184.15
791.693	218.96
791.874	231.25
792.054	374.61
792.235	227.15
792.416	145.24
792.597	208.72
792.778	270.16
792.958	282.45
793.139	186.19
793.32	175.95
793.5	290.64
793.681	233.3
793.862	282.45
794.042	204.63
794.223	184.15
794.404	227.15
794.584	200.53
794.765	261.97
794.945	237.39
795.126	241.49
795.306	261.97
795.487	204.63
795.667	155.47
795.848	194.39
796.028	175.95
796.209	202.58
796.389	284.5
796.57	137.04
796.75	204.63
796.93	178
797.111	157.52
797.291	192.34
797.471	188.24
797.652	163.67
797.832	143.19
798.012	216.91
798.192	186.19
798.373	163.67
798.553	169.81
798.733	249.68
798.913	167.76
799.093	145.24
799.274	194.39
799.454	266.07
799.634	126.8
799.814	233.3
799.994	208.72
800.174	253.78
800.354	212.82
800.534	145.24
800.714	178
800.894	118.61
801.074	102.23
801.254	128.85
801.434	175.95
801.614	249.68
801.794	94.04
801.974	759.63
802.154	135
802.334	137.04
802.514	167.76
802.693	218.96
802.873	63.32
803.053	270.16
803.233	143.19
803.413	98.13
803.592	167.76
803.772	169.81
803.952	122.71
804.131	85.84
804.311	196.43
804.491	221.01
804.67	104.28
804.85	135
805.03	200.53
805.209	169.81
805.389	89.94
805.568	79.7
805.748	208.72
805.928	182.1
806.107	145.24
806.287	188.24
806.466	157.52
806.646	85.84
806.825	173.91
807.004	159.57
807.184	85.84
807.363	104.28
807.543	171.86
807.722	44.88
807.901	155.47
808.081	128.85
808.26	100.18
808.439	169.81
808.619	96.08
808.798	79.7
808.977	102.23
809.156	161.62
809.336	128.85
809.515	188.24
809.694	145.24
809.873	147.28
810.052	67.41
810.231	173.91
810.411	147.28
810.59	192.34
810.769	94.04
810.948	147.28
811.127	28.5
811.306	79.7
811.485	98.13
811.664	204.63
811.843	32.6
812.022	110.42
812.201	163.67
812.38	40.79
812.559	118.61
812.737	159.57
812.916	53.08
813.095	85.84
813.274	128.85
813.453	53.08
813.632	53.08
813.811	122.71
813.989	85.84
814.168	98.13
814.347	79.7
814.526	124.76
814.704	126.8
814.883	98.13
815.062	59.22
815.24	137.04
815.419	30.55
815.598	24.4
815.776	-4.27
815.955	94.04
816.133	65.36
816.312	65.36
816.49	48.98
816.669	104.28
816.847	42.84
817.026	79.7
817.204	145.24
817.383	106.32
817.561	57.17
817.74	124.76
817.918	102.23
818.097	81.75
818.275	118.61
818.453	96.08
818.632	46.93
818.81	73.56
818.988	65.36
819.167	120.66
819.345	96.08
819.523	141.14
819.701	79.7
819.879	67.41
820.058	81.75
820.236	67.41
820.414	51.03
820.592	57.17
820.77	110.42
820.948	94.04
821.127	12.12
821.305	116.56
821.483	42.84
821.661	89.94
821.839	22.36
822.017	98.13
822.195	122.71
822.373	87.89
822.551	28.5
822.729	110.42
822.907	186.19
823.085	96.08
823.262	94.04
823.44	36.69
823.618	122.71
823.796	118.61
823.974	-37.03
824.152	30.55
824.329	20.31
824.507	63.32
824.685	85.84
824.863	24.4
825.04	44.88
825.218	77.65
825.396	83.8
825.574	46.93
825.751	102.23
825.929	124.76
826.107	-22.7
826.284	40.79
826.462	143.19
826.639	57.17
826.817	44.88
826.994	40.79
827.172	83.8
827.349	110.42
827.527	89.94
827.704	61.27
827.882	106.32
828.059	120.66
828.237	102.23
828.414	122.71
828.591	-18.6
828.769	169.81
828.946	38.74
829.124	73.56
829.301	153.43
829.478	67.41
829.655	12.12
829.833	77.65
830.01	-20.65
830.187	87.89
830.364	-43.18
830.542	38.74
830.719	106.32
830.896	87.89
831.073	44.88
831.25	20.31
831.427	61.27
831.604	24.4
831.782	55.12
831.959	69.46
832.136	67.41
832.313	28.5
832.49	-41.13
832.667	77.65
832.844	18.26
833.021	112.47
833.198	61.27
833.374	79.7
833.551	36.69
833.728	30.55
833.905	149.33
834.082	-32.94
834.259	18.26
834.436	3.93
834.612	38.74
834.789	65.36
834.966	38.74
835.143	61.27
835.319	-16.55
835.496	87.89
835.673	87.89
835.85	20.31
836.026	-0.17
836.203	22.36
836.38	3.93
836.556	40.79
836.733	128.85
836.909	69.46
837.086	65.36
837.262	-8.36
837.439	28.5
837.616	28.5
837.792	53.08
837.968	118.61
838.145	106.32
838.321	24.4
838.498	-8.36
838.674	77.65
838.851	108.37
839.027	14.17
839.203	28.5
839.38	81.75
839.556	-18.6
839.732	55.12
839.909	28.5
840.085	102.23
840.261	-16.55
840.437	106.32
840.614	48.98
840.79	-53.42
840.966	69.46
841.142	3.93
841.318	-8.36
841.494	48.98
841.671	69.46
841.847	3.93
842.023	12.12
842.199	61.27
842.375	106.32
842.551	32.6
842.727	28.5
842.903	48.98
843.079	-0.17
843.255	87.89
843.431	28.5
843.607	40.79
843.783	16.21
843.959	28.5
844.134	44.88
844.31	36.69
844.486	-8.36
844.662	-73.9
844.838	-10.41
845.013	89.94
845.189	106.32
845.365	-0.17
845.541	-16.55
845.716	16.21
845.892	32.6
846.068	38.74
846.244	-20.65
846.419	-2.22
846.595	18.26
846.77	16.21
846.946	38.74
847.122	44.88
847.297	-34.99
847.473	38.74
847.648	-45.23
847.824	44.88
847.999	-37.03
848.175	3.93
848.35	135
848.526	96.08
848.701	16.21
848.876	22.36
849.052	55.12
849.227	5.97
849.403	-6.31
849.578	-4.27
849.753	12.12
849.929	24.4
850.104	-37.03
850.279	-37.03
850.454	12.12
850.63	46.93
850.805	65.36
850.98	-32.94
851.155	53.08
851.33	110.42
851.505	-4.27
851.681	-4.27
851.856	36.69
852.031	28.5
852.206	53.08
852.381	-61.61
852.556	-2.22
852.731	-16.55
852.906	12.12
853.081	12.12
853.256	-22.7
853.431	-51.37
853.606	-0.17
853.781	5.97
853.956	-20.65
854.131	5.97
854.305	-37.03
854.48	-34.99
854.655	-12.46
854.83	20.31
855.005	10.07
855.18	-12.46
855.354	77.65
855.529	-26.79
855.704	16.21
855.879	14.17
856.053	32.6
856.228	85.84
856.403	1.88
856.577	-10.41
856.752	-63.66
856.926	-32.94
857.101	20.31
857.276	-8.36
857.45	-20.65
857.625	-2.22
857.799	-30.89
857.974	57.17
858.148	-86.19
858.323	34.64
858.497	10.07
858.672	-10.41
858.846	-16.55
859.02	-6.31
859.195	-20.65
859.369	20.31
859.543	20.31
859.718	118.61
859.892	-34.99
860.066	-20.65
860.241	36.69
860.415	-57.51
860.589	75.6
860.763	98.13
860.938	12.12
861.112	40.79
861.286	-12.46
861.46	22.36
861.634	18.26
861.808	48.98
861.982	12.12
862.157	36.69
862.331	-84.14
862.505	-24.75
862.679	-65.71
862.853	10.07
863.027	-53.42
863.201	65.36
863.375	-2.22
863.549	-6.31
863.722	3.93
863.896	28.5
864.07	-73.9
864.244	46.93
864.418	100.18
864.592	77.65
864.766	1.88
864.939	-8.36
865.113	-41.13
865.287	16.21
865.461	-41.13
865.634	-26.79
865.808	-10.41
865.982	8.02
866.156	26.45
866.329	-12.46
866.503	-0.17
866.676	-28.84
866.85	-8.36
867.024	-10.41
867.197	8.02
867.371	5.97
867.544	-45.23
867.718	-24.75
867.891	69.46
868.065	36.69
868.238	40.79
868.412	8.02
868.585	-10.41
868.759	12.12
868.932	16.21
869.105	-14.51
869.279	-47.27
869.452	-86.19
869.625	8.02
869.799	-16.55
869.972	-37.03
870.145	3.93
870.319	-4.27
870.492	18.26
870.665	-16.55
870.838	-16.55
871.011	-51.37
871.185	61.27
871.358	-28.84
871.531	3.93
871.704	20.31
871.877	-10.41
872.05	-49.32
872.223	26.45
872.396	53.08
872.569	53.08
872.742	-55.47
872.915	48.98
873.088	12.12
873.261	-20.65
873.434	28.5
873.607	81.75
873.78	14.17
873.953	-34.99
874.126	22.36
874.299	14.17
874.471	38.74
874.644	-2.22
874.817	32.6
874.99	57.17
875.163	20.31
875.335	36.69
875.508	-12.46
875.681	91.99
875.853	-104.62
876.026	14.17
876.199	18.26
876.371	-6.31
876.544	3.93
876.717	30.55
876.889	3.93
877.062	-10.41
877.234	-61.61
877.407	102.23
877.579	-12.46
877.752	1.88
877.924	96.08
878.097	22.36
878.269	-61.61
878.442	-20.65
878.614	-28.84
878.786	3.93
878.959	-51.37
879.131	20.31
879.303	-61.61
879.476	5.97
879.648	-20.65
879.82	-8.36
879.993	-22.7
880.165	36.69
880.337	-0.17
880.509	-69.8
880.681	53.08
880.854	-34.99
881.026	12.12
881.198	57.17
881.37	-69.8
881.542	57.17
881.714	-16.55
881.886	40.79
882.058	5.97
882.23	-16.55
882.402	-53.42
882.574	5.97
882.746	-26.79
882.918	48.98
883.09	16.21
883.262	8.02
883.434	-61.61
883.606	-8.36
883.778	24.4
883.95	69.46
884.122	-12.46
884.293	-12.46
884.465	-45.23
884.637	30.55
884.809	-45.23
884.98	34.64
885.152	14.17
885.324	5.97
885.496	-0.17
885.667	-34.99
885.839	-4.27
886.011	143.19
886.182	28.5
886.354	38.74
886.525	24.4
886.697	20.31
886.869	-67.75
887.04	30.55
887.212	53.08
887.383	118.61
887.555	118.61
887.726	5.97
887.897	-26.79
888.069	16.21
888.24	8.02
888.412	-4.27
888.583	16.21
888.754	77.65
888.926	-18.6
889.097	-69.8
889.268	-26.79
889.44	-59.56
889.611	-8.36
889.782	-32.94
889.953	28.5
890.125	-8.36
890.296	-20.65
890.467	46.93
890.638	5.97
890.809	20.31
890.98	-34.99
891.151	20.31
891.323	1.88
891.494	-12.46
891.665	-28.84
891.836	3.93
892.007	53.08
892.178	-41.13
892.349	22.36
892.52	22.36
892.691	-0.17
892.862	-41.13
893.032	-12.46
893.203	-26.79
893.374	12.12
893.545	5.97
893.716	-55.47
893.887	14.17
894.057	18.26
894.228	36.69
894.399	-67.75
894.57	14.17
894.74	-18.6
894.911	16.21
895.082	71.51
895.253	-39.08
895.423	-24.75
895.594	32.6
895.764	-4.27
895.935	-73.9
896.106	-77.99
896.276	-45.23
896.447	-20.65
896.617	89.94
896.788	26.45
896.958	16.21
897.129	-53.42
897.299	-26.79
897.47	94.04
897.64	28.5
897.81	-41.13
897.981	-24.75
898.151	-4.27
898.322	-45.23
898.492	22.36
898.662	-53.42
898.832	-69.8
899.003	3.93
899.173	46.93
899.343	-53.42
899.513	-12.46
