Data from USB4F104151__119__14-31-14-536.txt Node

Date: Thu Mar 13 14:31:14 EDT 2025
User: louis
Spectrometer: USB4F10415
Trigger mode: 4
Integration Time (sec): 2.500000E-2
Scans to average: 1
Electric dark correction enabled: true
Nonlinearity correction enabled: false
Boxcar width: 0
XAxis mode: Wavelengths
Number of Pixels in Spectrum: 3648
>>>>>Begin Spectral Data<<<<<
178.204	-134.48
178.424	-134.48
178.644	-134.48
178.864	-214.35
179.084	-97.62
179.304	-38.23
179.524	-42.32
179.744	-9.56
179.964	2.73
180.184	19.11
180.404	-38.23
180.624	35.5
180.844	29.35
181.064	27.31
181.283	10.92
181.503	-21.85
181.723	25.26
181.943	25.26
182.163	33.45
182.383	-38.23
182.602	53.93
182.822	2.73
183.042	58.03
183.262	-11.61
183.482	33.45
183.701	41.64
183.921	88.75
184.141	55.98
184.361	66.22
184.58	-56.66
184.8	29.35
185.02	-11.61
185.239	41.64
185.459	4.78
185.679	82.6
185.898	23.21
186.118	94.89
186.338	-21.85
186.557	31.4
186.777	-23.89
186.997	70.31
187.216	45.74
187.436	49.83
187.655	43.69
187.875	41.64
188.095	35.5
188.314	60.07
188.534	135.85
188.753	60.07
188.973	-7.51
189.192	98.99
189.412	62.12
189.631	21.16
189.851	45.74
190.07	21.16
190.29	4.78
190.509	37.55
190.729	-7.51
190.948	-40.28
191.168	131.75
191.387	41.64
191.607	41.64
191.826	0.68
192.045	12.97
192.265	66.22
192.484	17.07
192.704	109.22
192.923	-42.32
193.142	90.79
193.362	58.03
193.581	49.83
193.8	29.35
194.02	70.31
194.239	-32.08
194.458	-5.46
194.678	-13.65
194.897	2.73
195.116	17.07
195.335	29.35
195.555	33.45
195.774	-23.89
195.993	74.41
196.212	-1.37
196.432	82.6
196.651	39.59
196.87	-34.13
197.089	115.37
197.308	103.08
197.528	8.87
197.747	17.07
197.966	19.11
198.185	53.93
198.404	8.87
198.623	101.03
198.842	25.26
199.062	90.79
199.281	80.55
199.5	12.97
199.719	49.83
199.938	-5.46
200.157	82.6
200.376	70.31
200.595	45.74
200.814	47.79
201.033	58.03
201.252	37.55
201.471	45.74
201.69	123.56
201.909	-11.61
202.128	66.22
202.347	-36.18
202.566	-3.41
202.785	-13.65
203.004	29.35
203.223	170.66
203.442	21.16
203.661	37.55
203.879	82.6
204.098	98.99
204.317	-27.99
204.536	58.03
204.755	8.87
204.974	-52.56
205.193	17.07
205.411	58.03
205.63	45.74
205.849	-48.47
206.068	60.07
206.287	-23.89
206.505	49.83
206.724	98.99
206.943	-44.37
207.162	62.12
207.381	45.74
207.599	27.31
207.818	2.73
208.037	33.45
208.255	55.98
208.474	12.97
208.693	19.11
208.911	12.97
209.13	-5.46
209.349	23.21
209.567	12.97
209.786	17.07
210.005	23.21
210.223	-1.37
210.442	17.07
210.661	45.74
210.879	49.83
211.098	-7.51
211.316	94.89
211.535	35.5
211.753	96.94
211.972	12.97
212.191	62.12
212.409	74.41
212.628	2.73
212.846	-5.46
213.065	111.27
213.283	74.41
213.502	39.59
213.72	27.31
213.938	12.97
214.157	17.07
214.375	31.4
214.594	92.84
214.812	51.88
215.031	-19.8
215.249	35.5
215.467	45.74
215.686	-11.61
215.904	25.26
216.122	17.07
216.341	41.64
216.559	-23.89
216.778	131.75
216.996	8.87
217.214	25.26
217.432	47.79
217.651	-32.08
217.869	-64.85
218.087	8.87
218.306	8.87
218.524	41.64
218.742	-38.23
218.96	66.22
219.179	21.16
219.397	66.22
219.615	90.79
219.833	21.16
220.051	4.78
220.27	8.87
220.488	82.6
220.706	-30.04
220.924	25.26
221.142	10.92
221.36	-23.89
221.578	-3.41
221.796	49.83
222.015	0.68
222.233	-23.89
222.451	10.92
222.669	-40.28
222.887	49.83
223.105	19.11
223.323	-23.89
223.541	41.64
223.759	-25.94
223.977	78.51
224.195	66.22
224.413	-19.8
224.631	25.26
224.849	19.11
225.067	98.99
225.285	-13.65
225.503	4.78
225.721	12.97
225.939	103.08
226.157	49.83
226.375	191.14
226.592	33.45
226.81	41.64
227.028	4.78
227.246	88.75
227.464	-7.51
227.682	58.03
227.9	55.98
228.117	41.64
228.335	-5.46
228.553	25.26
228.771	25.26
228.989	-15.7
229.206	49.83
229.424	84.65
229.642	74.41
229.86	23.21
230.077	82.6
230.295	47.79
230.513	-38.23
230.731	-15.7
230.948	84.65
231.166	115.37
231.384	58.03
231.601	25.26
231.819	68.27
232.037	-64.85
232.254	84.65
232.472	21.16
232.689	-32.08
232.907	8.87
233.125	29.35
233.342	21.16
233.56	-27.99
233.777	-3.41
233.995	33.45
234.213	41.64
234.43	103.08
234.648	33.45
234.865	12.97
235.083	8.87
235.3	0.68
235.518	80.55
235.735	78.51
235.953	41.64
236.17	-21.85
236.388	-40.28
236.605	45.74
236.822	115.37
237.04	45.74
237.257	66.22
237.475	8.87
237.692	43.69
237.909	43.69
238.127	4.78
238.344	74.41
238.562	70.31
238.779	-60.76
238.996	37.55
239.214	31.4
239.431	33.45
239.648	21.16
239.865	68.27
240.083	12.97
240.3	0.68
240.517	10.92
240.735	29.35
240.952	2.73
241.169	-17.75
241.386	27.31
241.603	31.4
241.821	-15.7
242.038	78.51
242.255	-19.8
242.472	-58.71
242.689	35.5
242.907	90.79
243.124	121.51
243.341	60.07
243.558	-1.37
243.775	17.07
243.992	-5.46
244.209	19.11
244.426	101.03
244.643	35.5
244.86	41.64
245.078	2.73
245.295	127.66
245.512	19.11
245.729	60.07
245.946	17.07
246.163	25.26
246.38	82.6
246.597	78.51
246.814	49.83
247.031	15.02
247.248	51.88
247.464	-7.51
247.681	33.45
247.898	51.88
248.115	29.35
248.332	0.68
248.549	90.79
248.766	35.5
248.983	39.59
249.2	-25.94
249.417	2.73
249.633	-21.85
249.85	47.79
250.067	53.93
250.284	25.26
250.501	33.45
250.717	47.79
250.934	-7.51
251.151	19.11
251.368	-46.42
251.585	43.69
251.801	-34.13
252.018	121.51
252.235	76.46
252.451	43.69
252.668	-7.51
252.885	66.22
253.102	17.07
253.318	-7.51
253.535	-30.04
253.752	-19.8
253.968	25.26
254.185	-32.08
254.401	41.64
254.618	45.74
254.835	31.4
255.051	141.99
255.268	39.59
255.484	98.99
255.701	62.12
255.917	41.64
256.134	-36.18
256.351	43.69
256.567	10.92
256.784	25.26
257	2.73
257.217	70.31
257.433	62.12
257.65	35.5
257.866	55.98
258.082	-62.8
258.299	-32.08
258.515	12.97
258.732	35.5
258.948	49.83
259.165	21.16
259.381	21.16
259.597	49.83
259.814	23.21
260.03	-68.95
260.246	70.31
260.463	-7.51
260.679	29.35
260.895	55.98
261.112	62.12
261.328	-7.51
261.544	21.16
261.761	74.41
261.977	98.99
262.193	8.87
262.409	66.22
262.626	80.55
262.842	17.07
263.058	10.92
263.274	74.41
263.49	41.64
263.707	90.79
263.923	35.5
264.139	10.92
264.355	41.64
264.571	35.5
264.787	35.5
265.004	101.03
265.22	96.94
265.436	-7.51
265.652	74.41
265.868	74.41
266.084	-5.46
266.3	29.35
266.516	-52.56
266.732	51.88
266.948	49.83
267.164	-7.51
267.38	-32.08
267.596	2.73
267.812	152.23
268.028	62.12
268.244	12.97
268.46	58.03
268.676	29.35
268.892	90.79
269.108	0.68
269.324	45.74
269.54	60.07
269.756	117.42
269.972	47.79
270.188	51.88
270.403	-17.75
270.619	62.12
270.835	72.36
271.051	10.92
271.267	35.5
271.483	45.74
271.698	78.51
271.914	35.5
272.13	2.73
272.346	-7.51
272.562	-21.85
272.777	23.21
272.993	12.97
273.209	62.12
273.425	66.22
273.64	21.16
273.856	37.55
274.072	29.35
274.287	43.69
274.503	4.78
274.719	2.73
274.934	53.93
275.15	43.69
275.366	41.64
275.581	17.07
275.797	45.74
276.012	0.68
276.228	17.07
276.444	-17.75
276.659	82.6
276.875	-46.42
277.09	-5.46
277.306	25.26
277.521	-27.99
277.737	66.22
277.952	94.89
278.168	51.88
278.383	66.22
278.599	8.87
278.814	103.08
279.03	90.79
279.245	62.12
279.461	58.03
279.676	37.55
279.892	-15.7
280.107	2.73
280.322	-3.41
280.538	17.07
280.753	15.02
280.969	84.65
281.184	58.03
281.399	82.6
281.615	80.55
281.83	41.64
282.045	12.97
282.26	33.45
282.476	4.78
282.691	62.12
282.906	12.97
283.122	55.98
283.337	33.45
283.552	64.17
283.767	17.07
283.983	94.89
284.198	-21.85
284.413	107.18
284.628	41.64
284.843	41.64
285.058	76.46
285.274	58.03
285.489	37.55
285.704	43.69
285.919	-48.47
286.134	51.88
286.349	19.11
286.564	66.22
286.779	94.89
286.995	27.31
287.21	-7.51
287.425	43.69
287.64	-79.19
287.855	21.16
288.07	-32.08
288.285	82.6
288.5	10.92
288.715	29.35
288.93	62.12
289.145	62.12
289.36	29.35
289.575	21.16
289.79	17.07
290.004	-15.7
290.219	144.04
290.434	64.17
290.649	0.68
290.864	2.73
291.079	4.78
291.294	78.51
291.509	49.83
291.724	25.26
291.938	29.35
292.153	19.11
292.368	43.69
292.583	17.07
292.798	76.46
293.012	19.11
293.227	51.88
293.442	21.16
293.657	45.74
293.871	109.22
294.086	12.97
294.301	94.89
294.516	70.31
294.73	27.31
294.945	49.83
295.16	33.45
295.374	-7.51
295.589	111.27
295.804	-19.8
296.018	137.9
296.233	12.97
296.447	154.28
296.662	49.83
296.877	76.46
297.091	103.08
297.306	41.64
297.52	25.26
297.735	12.97
297.949	12.97
298.164	92.84
298.378	2.73
298.593	4.78
298.807	10.92
299.022	80.55
299.236	90.79
299.451	41.64
299.665	-13.65
299.88	37.55
300.094	33.45
300.309	49.83
300.523	-19.8
300.737	27.31
300.952	37.55
301.166	33.45
301.381	68.27
301.595	70.31
301.809	45.74
302.024	45.74
302.238	-15.7
302.452	12.97
302.667	25.26
302.881	115.37
303.095	8.87
303.309	53.93
303.524	-1.37
303.738	25.26
303.952	29.35
304.166	21.16
304.381	6.83
304.595	82.6
304.809	12.97
305.023	62.12
305.237	-23.89
305.452	25.26
305.666	51.88
305.88	90.79
306.094	76.46
306.308	82.6
306.522	21.16
306.736	84.65
306.95	66.22
307.164	58.03
307.379	12.97
307.593	109.22
307.807	47.79
308.021	139.94
308.235	90.79
308.449	-36.18
308.663	74.41
308.877	121.51
309.091	49.83
309.305	33.45
309.519	-15.7
309.733	146.09
309.947	-81.24
310.161	55.98
310.374	49.83
310.588	29.35
310.802	10.92
311.016	53.93
311.23	8.87
311.444	-7.51
311.658	45.74
311.872	90.79
312.085	4.78
312.299	115.37
312.513	123.56
312.727	101.03
312.941	-1.37
313.154	35.5
313.368	-23.89
313.582	45.74
313.796	113.32
314.009	0.68
314.223	58.03
314.437	86.7
314.651	17.07
314.864	17.07
315.078	17.07
315.292	25.26
315.505	29.35
315.719	49.83
315.933	148.14
316.146	2.73
316.36	15.02
316.573	51.88
316.787	4.78
317.001	66.22
317.214	33.45
317.428	123.56
317.641	25.26
317.855	-56.66
318.068	82.6
318.282	27.31
318.495	84.65
318.709	66.22
318.922	-3.41
319.136	137.9
319.349	53.93
319.563	43.69
319.776	58.03
319.99	-40.28
320.203	70.31
320.417	17.07
320.63	66.22
320.843	98.99
321.057	92.84
321.27	45.74
321.483	45.74
321.697	125.61
321.91	92.84
322.124	33.45
322.337	21.16
322.55	68.27
322.763	17.07
322.977	19.11
323.19	-21.85
323.403	107.18
323.617	53.93
323.83	60.07
324.043	-21.85
324.256	53.93
324.469	58.03
324.683	33.45
324.896	115.37
325.109	33.45
325.322	-23.89
325.535	88.75
325.748	12.97
325.962	12.97
326.175	39.59
326.388	103.08
326.601	25.26
326.814	-5.46
327.027	17.07
327.24	82.6
327.453	-5.46
327.666	107.18
327.879	82.6
328.092	41.64
328.305	29.35
328.518	60.07
328.731	43.69
328.944	74.41
329.157	17.07
329.37	45.74
329.583	74.41
329.796	137.9
330.009	-79.19
330.222	103.08
330.435	74.41
330.648	51.88
330.861	31.4
331.073	80.55
331.286	21.16
331.499	74.41
331.712	49.83
331.925	-13.65
332.138	17.07
332.35	105.13
332.563	27.31
332.776	101.03
332.989	-7.51
333.202	-23.89
333.414	53.93
333.627	88.75
333.84	119.46
334.053	76.46
334.265	-32.08
334.478	17.07
334.691	33.45
334.903	101.03
335.116	17.07
335.329	33.45
335.541	90.79
335.754	94.89
335.966	58.03
336.179	68.27
336.392	8.87
336.604	115.37
336.817	-13.65
337.029	41.64
337.242	27.31
337.454	53.93
337.667	41.64
337.88	70.31
338.092	88.75
338.305	17.07
338.517	127.66
338.729	62.12
338.942	49.83
339.154	-5.46
339.367	23.21
339.579	82.6
339.792	-7.51
340.004	68.27
340.217	-32.08
340.429	-23.89
340.641	49.83
340.854	58.03
341.066	-32.08
341.278	31.4
341.491	49.83
341.703	76.46
341.915	8.87
342.128	58.03
342.34	111.27
342.552	-25.94
342.764	17.07
342.977	6.83
343.189	41.64
343.401	55.98
343.613	8.87
343.826	74.41
344.038	15.02
344.25	58.03
344.462	0.68
344.674	-5.46
344.886	29.35
345.099	-5.46
345.311	2.73
345.523	-3.41
345.735	-30.04
345.947	-5.46
346.159	123.56
346.371	-44.37
346.583	33.45
346.795	80.55
347.007	19.11
347.219	84.65
347.431	-62.8
347.643	76.46
347.855	-23.89
348.067	82.6
348.279	29.35
348.491	62.12
348.703	53.93
348.915	74.41
349.127	84.65
349.339	35.5
349.551	17.07
349.763	78.51
349.975	0.68
350.187	76.46
350.399	103.08
350.61	92.84
350.822	-32.08
351.034	25.26
351.246	51.88
351.458	76.46
351.669	33.45
351.881	-7.51
352.093	98.99
352.305	53.93
352.517	8.87
352.728	68.27
352.94	37.55
353.152	33.45
353.363	17.07
353.575	33.45
353.787	152.23
353.999	66.22
354.21	139.94
354.422	25.26
354.633	70.31
354.845	49.83
355.057	68.27
355.268	78.51
355.48	2.73
355.692	6.83
355.903	41.64
356.115	-3.41
356.326	-3.41
356.538	84.65
356.749	47.79
356.961	135.85
357.172	53.93
357.384	49.83
357.595	125.61
357.807	27.31
358.018	64.17
358.23	53.93
358.441	125.61
358.653	125.61
358.864	45.74
359.075	133.8
359.287	35.5
359.498	92.84
359.709	58.03
359.921	131.75
360.132	86.7
360.344	84.65
360.555	-5.46
360.766	96.94
360.977	19.11
361.189	152.23
361.4	60.07
361.611	103.08
361.823	107.18
362.034	-3.41
362.245	-34.13
362.456	-3.41
362.667	-9.56
362.879	58.03
363.09	25.26
363.301	35.5
363.512	55.98
363.723	94.89
363.935	25.26
364.146	101.03
364.357	17.07
364.568	78.51
364.779	35.5
364.99	98.99
365.201	82.6
365.412	84.65
365.623	8.87
365.834	82.6
366.045	35.5
366.256	60.07
366.467	33.45
366.678	55.98
366.889	8.87
367.1	-3.41
367.311	107.18
367.522	25.26
367.733	74.41
367.944	49.83
368.155	60.07
368.366	33.45
368.577	58.03
368.788	86.7
368.999	92.84
369.209	27.31
369.42	156.33
369.631	133.8
369.842	58.03
370.053	68.27
370.264	117.42
370.474	-7.51
370.685	27.31
370.896	10.92
371.107	107.18
371.317	33.45
371.528	10.92
371.739	156.33
371.95	64.17
372.16	29.35
372.371	29.35
372.582	78.51
372.792	123.56
373.003	96.94
373.214	12.97
373.424	64.17
373.635	-7.51
373.846	197.29
374.056	25.26
374.267	90.79
374.477	19.11
374.688	60.07
374.898	55.98
375.109	35.5
375.319	135.85
375.53	150.18
375.74	127.66
375.951	45.74
376.161	62.12
376.372	90.79
376.582	94.89
376.793	141.99
377.003	21.16
377.214	25.26
377.424	107.18
377.635	78.51
377.845	19.11
378.055	53.93
378.266	-1.37
378.476	58.03
378.686	58.03
378.897	82.6
379.107	70.31
379.317	33.45
379.528	25.26
379.738	72.36
379.948	41.64
380.158	103.08
380.369	76.46
380.579	152.23
380.789	33.45
380.999	49.83
381.21	58.03
381.42	68.27
381.63	12.97
381.84	60.07
382.05	70.31
382.261	162.47
382.471	58.03
382.681	84.65
382.891	49.83
383.101	107.18
383.311	47.79
383.521	43.69
383.731	139.94
383.941	17.07
384.151	109.22
384.361	94.89
384.571	45.74
384.781	133.8
384.991	41.64
385.201	115.37
385.411	33.45
385.621	88.75
385.831	0.68
386.041	-7.51
386.251	37.55
386.461	141.99
386.671	35.5
386.881	68.27
387.091	60.07
387.301	84.65
387.511	70.31
387.72	64.17
387.93	51.88
388.14	25.26
388.35	98.99
388.56	90.79
388.769	49.83
388.979	25.26
389.189	51.88
389.399	70.31
389.609	41.64
389.818	133.8
390.028	70.31
390.238	101.03
390.447	119.46
390.657	80.55
390.867	90.79
391.076	33.45
391.286	131.75
391.496	109.22
391.705	148.14
391.915	123.56
392.125	94.89
392.334	105.13
392.544	164.52
392.753	78.51
392.963	139.94
393.172	105.13
393.382	82.6
393.591	148.14
393.801	33.45
394.01	189.1
394.22	141.99
394.429	94.89
394.639	135.85
394.848	94.89
395.058	127.66
395.267	53.93
395.477	125.61
395.686	68.27
395.895	197.29
396.105	148.14
396.314	53.93
396.524	119.46
396.733	125.61
396.942	90.79
397.152	166.57
397.361	174.76
397.57	131.75
397.78	129.7
397.989	109.22
398.198	160.42
398.407	107.18
398.617	119.46
398.826	76.46
399.035	139.94
399.244	107.18
399.453	135.85
399.663	152.23
399.872	123.56
400.081	94.89
400.29	205.48
400.499	119.46
400.708	172.71
400.917	115.37
401.127	172.71
401.336	92.84
401.545	66.22
401.754	217.77
401.963	125.61
402.172	82.6
402.381	123.56
402.59	117.42
402.799	141.99
403.008	168.62
403.217	164.52
403.426	197.29
403.635	103.08
403.844	148.14
404.053	160.42
404.262	160.42
404.471	221.86
404.68	123.56
404.888	88.75
405.097	182.95
405.306	185
405.515	242.34
405.724	215.72
405.933	215.72
406.142	197.29
406.35	248.49
406.559	254.63
406.768	299.69
406.977	279.21
407.185	252.58
407.394	262.82
407.603	215.72
407.812	330.41
408.02	336.55
408.229	305.83
408.438	279.21
408.646	289.45
408.855	346.79
409.064	455.33
409.272	311.97
409.481	393.89
409.69	318.12
409.898	324.26
410.107	410.28
410.315	397.99
410.524	387.75
410.733	459.43
410.941	500.39
411.15	606.88
411.358	504.48
411.567	477.86
411.775	434.85
411.984	537.25
412.192	584.35
412.401	570.02
412.609	641.7
412.818	639.65
413.026	606.88
413.234	758.43
413.443	787.1
413.651	696.99
413.86	762.53
414.068	846.49
414.276	852.64
414.485	783.01
414.693	916.12
414.901	946.84
415.11	975.52
415.318	996
415.526	987.8
415.734	1020.57
415.943	1110.68
416.151	1188.5
416.359	1141.4
416.567	1258.14
416.776	1155.74
416.984	1247.9
417.192	1393.3
417.4	1354.39
417.608	1309.33
417.817	1499.8
418.025	1532.56
418.233	1596.05
418.441	1497.75
418.649	1667.73
418.857	1784.46
419.065	1772.18
419.273	1720.98
419.481	1829.52
419.689	1927.82
419.897	1944.2
420.105	2114.19
420.313	2171.53
420.521	2316.94
420.729	2245.26
420.937	2286.22
421.145	2482.82
421.353	2495.11
421.561	2540.16
421.769	2726.53
421.977	2880.13
422.185	2771.58
422.393	2876.03
422.601	3082.88
422.809	3076.73
423.017	3207.8
423.224	3119.74
423.432	3424.89
423.64	3486.33
423.848	3584.63
424.056	3517.04
424.263	3857.01
424.471	4006.51
424.679	4082.28
424.887	4229.74
425.094	4262.51
425.302	4420.2
425.51	4491.88
425.718	4737.63
425.925	4790.88
426.133	4815.46
426.341	5046.88
426.548	5335.64
426.756	5505.62
426.964	5382.74
427.171	5726.8
427.379	5732.95
427.586	6054.48
427.794	6220.36
428.001	6507.08
428.209	6724.16
428.417	6589
428.624	7144
428.832	7053.89
429.039	7094.85
429.247	6931.01
429.454	7655.99
429.662	8036.91
429.869	7580.21
430.076	8292.91
430.284	8032.82
430.491	8317.48
430.699	8817.19
430.906	8772.13
431.114	9034.27
431.321	9294.36
431.528	9486.87
431.736	9986.58
431.943	10363.4
432.15	10166.8
432.358	10150.42
432.565	10682.89
432.772	10852.87
432.979	11403.77
433.187	11512.31
433.394	11395.58
433.601	12345.84
433.808	12304.88
434.016	12380.65
434.223	13038.05
434.43	13916.63
434.637	13468.13
434.844	14119.38
435.052	14397.9
435.259	14520.78
435.466	14447.05
435.673	14174.67
435.88	15430.08
436.087	16036.28
436.294	16187.83
436.501	15706.56
436.708	15835.58
436.915	16499.12
437.122	17088.93
437.329	17402.27
437.537	17766.81
437.743	18074.01
437.95	18137.49
438.157	18848.14
438.364	19712.38
438.571	19499.39
438.778	19538.3
438.985	21365.09
439.192	20298.1
439.399	21156.2
439.606	20445.55
439.813	22118.75
440.02	22997.32
440.227	22679.89
440.433	22460.76
440.64	23257.42
440.847	22982.99
441.054	23638.34
441.261	25106.73
441.467	24822.06
441.674	25450.79
441.881	26421.53
442.088	26372.38
442.294	26183.96
442.501	26409.24
442.708	27298.06
442.914	27900.16
443.121	29341.93
443.328	28571.89
443.534	30370.01
443.741	29708.52
443.948	29257.96
444.154	31240.4
444.361	31275.21
444.568	31432.91
444.774	31682.76
444.981	31807.69
445.187	32446.65
445.394	34185.38
445.6	33624.23
445.807	36698.23
446.013	35287.18
446.22	35694.73
446.426	37859.43
446.633	37419.12
446.839	38785.11
447.046	37079.16
447.252	39166.04
447.459	39002.2
447.665	38846.55
447.871	40572.99
448.078	42604.58
448.284	40196.17
448.491	41549.87
448.697	42915.87
448.903	43710.48
449.11	43890.7
449.316	43135
449.522	44374.02
449.728	44986.36
449.935	45342.71
450.141	45461.49
450.347	46811.1
450.553	45199.35
450.76	45901.81
450.966	47003.61
451.172	46602.21
451.378	47984.59
451.584	46804.96
451.791	48117.71
451.997	47953.87
452.203	48304.07
452.409	48488.39
452.615	48281.55
452.821	46219.24
453.027	46407.65
453.233	48508.87
453.44	46798.82
453.646	47052.76
453.852	46991.33
454.058	47888.34
454.264	46295.02
454.47	47665.11
454.676	46419.94
454.882	48170.96
455.088	43855.89
455.294	44603.39
455.5	45307.9
455.705	45610.99
455.911	44464.13
456.117	42903.58
456.323	42602.53
456.529	40476.74
456.735	42029.1
456.941	41228.34
457.147	40398.91
457.352	39157.85
457.558	38901.85
457.764	38809.69
457.97	38287.46
458.176	37292.15
458.381	37298.29
458.587	35616.91
458.793	35270.8
458.999	33724.58
459.204	35965.06
459.41	35033.24
459.616	33108.15
459.821	32643.26
460.027	32817.33
460.233	31770.82
460.438	30519.51
460.644	30922.96
460.85	29370.6
461.055	28639.48
461.261	28887.28
461.466	26556.69
461.672	25596.2
461.878	27580.68
462.083	25807.14
462.289	25463.08
462.494	24914.22
462.7	24154.43
462.905	23408.97
463.111	23806.27
463.316	24299.83
463.522	23617.86
463.727	23920.96
463.932	23812.42
464.138	23241.03
464.343	23554.37
464.549	22675.79
464.754	23552.32
464.959	23277.9
465.165	23034.19
465.37	21961.05
465.575	21598.56
465.781	22563.15
465.986	22587.73
466.191	21582.18
466.397	21277.03
466.602	20060.54
466.807	21000.55
467.012	21156.2
467.218	20896.11
467.423	20726.13
467.628	20943.21
467.833	21803.36
468.038	20937.07
468.244	20124.02
468.449	20951.4
468.654	20064.63
468.859	20040.06
469.064	19997.05
469.269	18999.69
469.474	19485.06
469.679	19927.42
469.885	19165.57
470.09	19499.39
470.295	19263.88
470.5	18907.53
470.705	18915.72
470.91	18534.8
471.115	18444.69
471.32	18878.86
471.525	18469.26
471.73	17955.22
471.935	17967.51
472.139	17320.35
472.344	17607.07
472.549	17170.85
472.754	17332.64
472.959	17031.59
473.164	16533.93
473.369	16333.23
473.574	17150.37
473.778	16671.15
473.983	16302.51
474.188	16490.93
474.393	15915.45
474.598	15811
474.802	15714.75
475.007	15622.59
475.212	15819.19
475.417	15010.25
475.621	14961.09
475.826	14991.81
476.031	14717.39
476.235	14436.81
476.44	14660.04
476.645	14586.32
476.849	14541.26
477.054	14131.67
477.259	14113.24
477.463	14320.08
477.668	13601.24
477.872	13865.43
478.077	13775.32
478.282	13314.53
478.486	13179.36
478.691	13154.79
478.895	13267.42
479.1	12927.46
479.304	13193.7
479.509	12741.1
479.713	12751.34
479.918	12698.09
480.122	12372.46
480.326	12644.84
480.531	12702.18
480.735	12554.73
480.94	12548.59
481.144	12698.09
481.348	12225.01
481.553	12235.25
481.757	12200.43
481.961	12308.97
482.166	12444.14
482.37	12050.93
482.574	12028.4
482.778	12077.55
482.983	12179.95
483.187	12362.22
483.391	12206.58
483.595	11895.29
483.8	12071.41
484.004	12116.47
484.208	12280.3
484.412	12263.92
484.616	11987.44
484.821	12198.38
485.025	11821.56
485.229	12198.38
485.433	11979.25
485.637	12028.4
485.841	11921.91
486.045	11895.29
486.249	12079.6
486.453	11919.86
486.657	12122.61
486.861	12245.49
487.065	11690.49
487.269	11979.25
487.473	12034.55
487.677	12138.99
487.881	12288.5
488.085	11907.57
488.289	12184.05
488.493	12052.98
488.697	12278.26
488.901	12073.46
489.105	12063.22
489.309	12134.9
489.512	12214.77
489.716	12186.1
489.92	12337.65
490.124	12018.16
490.328	12288.5
490.531	12214.77
490.735	12317.17
490.939	12560.87
491.143	12399.09
491.346	12216.82
491.55	12362.22
491.754	12397.04
491.958	12460.52
492.161	12587.5
492.365	12589.55
492.569	12485.1
492.772	12640.75
492.976	12866.02
493.18	12720.62
493.383	12919.27
493.587	12851.69
493.79	12997.09
493.994	12898.79
494.197	12927.46
494.401	13361.63
494.605	13081.06
494.808	13298.14
495.012	13431.26
495.215	13322.72
495.419	13640.15
495.622	13468.13
495.825	13662.68
496.029	13646.3
496.232	14109.14
496.436	13976.02
496.639	14420.43
496.843	13926.87
497.046	14414.29
497.249	14666.19
497.453	14498.25
497.656	14770.63
497.859	14959.05
498.063	14909.9
498.266	15249.86
498.469	15284.67
498.673	15360.45
498.876	15444.41
499.079	15911.35
499.282	15774.14
499.485	16001.46
499.689	16241.07
499.892	16523.69
500.095	16110
500.298	16748.97
500.501	16736.68
500.705	17265.06
500.908	17201.57
501.111	17400.23
501.314	17205.67
501.517	17752.48
501.72	17830.3
501.923	17785.24
502.126	18272.66
502.329	18631.05
502.532	18563.47
502.735	18766.22
502.938	19050.89
503.141	19052.94
503.344	19337.6
503.547	19104.14
503.75	20070.78
503.953	20267.38
504.156	20001.15
504.359	20044.15
504.562	20515.19
504.765	21004.65
504.968	21123.43
505.17	21160.3
505.373	21401.96
505.576	21371.24
505.779	21848.41
505.982	21938.52
506.185	22462.8
506.387	22585.68
506.59	22430.04
506.793	23013.71
506.996	23003.47
507.198	23701.82
507.401	23349.57
507.604	23699.78
507.807	24428.85
508.009	24574.26
508.212	24383.8
508.415	24865.07
508.617	25016.62
508.82	25286.95
509.022	24951.09
509.225	25667.87
509.428	26065.18
509.63	26120.48
509.833	26169.63
510.035	26870.03
510.238	26724.63
510.44	26933.52
510.643	27257.1
510.845	27433.22
511.048	27646.21
511.25	28168.44
511.453	28090.62
511.655	29110.51
511.858	28690.68
512.06	28973.3
512.262	29532.39
512.465	29446.38
512.667	29837.54
512.87	30472.41
513.072	30007.52
513.274	30705.88
513.477	30867.67
513.679	30994.64
513.881	31258.83
514.084	31639.75
514.286	31774.92
514.488	31858.88
514.69	32731.32
514.893	32415.93
515.095	32895.16
515.297	33317.04
515.499	33448.11
515.701	33738.92
515.904	33697.96
516.106	34365.6
516.308	34521.24
516.51	34734.23
516.712	34799.77
516.914	35360.91
517.116	35633.29
517.318	36098.18
517.52	35838.09
517.722	36184.19
517.925	36782.2
518.127	36911.22
518.329	37191.8
518.531	36679.8
518.733	37843.05
518.935	37695.6
519.136	38156.39
519.338	38473.82
519.54	38531.17
519.742	38910.04
519.944	39411.79
520.146	39553.1
520.348	39397.46
520.55	39680.08
520.752	39532.62
520.954	40595.52
521.155	39825.48
521.357	40800.32
521.559	41007.16
521.761	41750.57
521.963	41015.35
522.164	41375.8
522.366	41463.86
522.568	42278.95
522.77	41730.09
522.971	42723.36
523.173	42272.81
523.375	42281
523.576	42426.4
523.778	42702.88
523.98	43628.56
524.181	43374.61
524.383	43155.48
524.584	43804.69
524.786	43890.7
524.988	43560.98
525.189	44357.64
525.391	44148.75
525.592	44126.22
525.794	44263.43
525.995	44621.83
526.197	44476.42
526.398	44367.88
526.6	44926.97
526.801	45207.54
527.003	44865.53
527.204	44910.59
527.406	45086.71
527.607	45488.12
527.808	45543.41
528.01	45152.25
528.211	45086.71
528.412	46036.97
528.614	45641.71
528.815	45359.09
529.016	46356.46
529.218	45666.29
529.419	45832.18
529.62	45740.02
529.822	45692.91
530.023	45740.02
530.224	45600.75
530.425	45529.08
530.626	45731.82
530.828	45115.39
531.029	46104.56
531.23	45297.66
531.431	45672.43
531.632	45701.11
531.833	45420.53
532.035	45922.29
532.236	45606.9
532.437	45846.51
532.638	45371.38
532.839	45938.67
533.04	46082.03
533.241	45176.83
533.442	46147.56
533.643	45524.98
533.844	45520.88
534.045	45637.62
534.246	44965.88
534.447	45719.54
534.648	44988.41
534.849	45592.56
535.05	45115.39
535.251	45565.94
535.451	45123.58
535.652	45766.64
535.853	44980.22
536.054	45101.05
536.255	45823.98
536.456	45117.43
536.657	45535.22
536.857	45361.14
537.058	45002.75
537.259	45324.28
537.46	45479.92
537.66	45223.93
537.861	45559.8
538.062	45029.37
538.263	44627.97
538.463	44976.12
538.664	45078.52
538.865	45346.81
539.065	45344.76
539.266	44578.82
539.466	45211.64
539.667	44642.31
539.868	45326.33
540.068	44642.31
540.269	44427.27
540.469	45023.23
540.67	44677.12
540.87	44957.69
541.071	44382.21
541.271	44810.24
541.472	44636.16
541.672	44539.91
541.873	44623.87
542.073	44222.47
542.274	45338.61
542.474	44587.01
542.675	44453.89
542.875	44898.3
543.075	44423.17
543.276	43884.56
543.476	44734.46
543.676	44335.11
543.877	44468.23
544.077	44453.89
544.277	43980.81
544.478	44750.85
544.678	44806.14
544.878	44177.42
545.078	44759.04
545.279	44249.1
545.479	44091.4
545.679	44501
545.879	44326.92
546.079	44363.78
546.28	44142.6
546.48	43941.9
546.68	44337.16
546.88	44234.76
547.08	44077.07
547.28	43935.76
547.48	43655.18
547.68	44124.17
547.88	44027.91
548.081	44404.74
548.281	44306.44
548.481	43913.23
548.681	44486.66
548.881	44333.06
549.081	44152.84
549.28	44077.07
549.48	44515.33
549.68	44224.52
549.88	44539.91
550.08	43962.38
550.28	44175.37
550.48	44064.78
550.68	44240.9
550.88	44070.92
551.08	44154.89
551.279	44210.18
551.479	43814.93
551.679	44523.52
551.879	44197.9
552.079	44722.18
552.278	44062.73
552.478	44414.98
552.678	44587.01
552.878	44773.38
553.077	43972.62
553.277	43776.01
553.477	44980.22
553.676	44068.87
553.876	44361.73
554.076	43880.46
554.275	44144.65
554.475	43939.85
554.674	44365.83
554.874	44494.85
555.074	43968.52
555.273	44341.25
555.473	44519.43
555.672	44081.16
555.872	44048.39
556.071	44374.02
556.271	44466.18
556.47	44134.41
556.67	43661.33
556.869	44075.02
557.068	44615.68
557.268	44146.7
557.467	44136.46
557.667	44281.86
557.866	44349.45
558.065	44292.1
558.265	44355.59
558.464	44275.72
558.663	44388.36
558.863	44005.39
559.062	44591.11
559.261	44032.01
559.461	44771.33
559.66	43886.61
559.859	44267.53
560.058	43841.55
560.258	44128.27
560.457	43714.58
560.656	44056.59
560.855	44531.72
561.054	44132.36
561.253	43800.59
561.453	43962.38
561.652	44148.75
561.851	44242.95
562.05	43864.08
562.249	43560.98
562.448	44263.43
562.647	44128.27
562.846	43788.3
563.045	43862.03
563.244	43728.91
563.443	44204.04
563.642	43671.57
563.841	43845.65
564.04	43423.76
564.239	44255.24
564.438	43571.22
564.637	43552.79
564.836	43563.03
565.035	43350.04
565.234	43409.43
565.432	43194.39
565.631	43384.85
565.83	43401.24
566.029	43304.98
566.228	42973.21
566.427	43221.02
566.625	42850.33
566.824	42674.21
567.023	43266.07
567.222	42721.31
567.42	43253.78
567.619	42692.64
567.818	42606.62
568.016	42530.85
568.215	43114.52
568.414	42842.14
568.612	42846.24
568.811	42651.68
569.01	42324
569.208	42342.44
569.407	42348.58
569.605	42448.93
569.804	42653.73
570.002	42244.13
570.201	42385.44
570.4	42113.06
570.598	41736.24
570.797	41658.42
570.995	41650.22
571.193	41691.18
571.392	42063.91
571.59	41474.1
571.789	41343.03
571.987	41459.76
572.186	41566.26
572.384	41224.25
572.582	41244.73
572.781	41426.99
572.979	40925.24
573.177	40896.57
573.376	40785.98
573.574	40699.97
573.772	40726.59
573.971	40841.28
574.169	40177.73
574.367	40372.29
574.565	40357.95
574.763	39876.68
574.962	40230.98
575.16	39745.61
575.358	39874.63
575.556	39546.96
575.754	40028.23
575.952	39712.84
576.151	39934.03
576.349	39409.75
576.547	39653.45
576.745	39303.25
576.943	39602.25
577.141	39114.84
577.339	39647.31
577.537	39139.41
577.735	39063.64
577.933	38924.38
578.131	38897.75
578.329	38907.99
578.527	38465.63
578.725	38705.24
578.923	38951
579.121	38342.75
579.319	38344.8
579.516	38443.1
579.714	38205.54
579.912	38207.59
580.11	38312.03
580.308	37896.3
580.506	37871.72
580.704	37302.39
580.901	38025.32
581.099	37851.24
581.297	37308.53
581.495	37441.65
581.692	37785.71
581.89	37245.04
582.088	37390.45
582.285	36960.37
582.483	37476.46
582.681	37015.67
582.878	36972.66
583.076	36661.37
583.274	36907.13
583.471	36268.16
583.669	36679.8
583.866	36264.07
584.064	36819.06
584.262	36274.31
584.459	36409.47
584.657	36188.29
584.854	36235.39
585.052	35575.95
585.249	35897.48
585.447	35813.51
585.644	35530.89
585.841	35881.1
586.039	36008.07
586.236	35322
586.434	35297.42
586.631	35264.66
586.828	35166.35
587.026	35491.98
587.223	35201.17
587.42	34773.14
587.618	34863.25
587.815	34539.68
588.012	34592.92
588.21	34816.15
588.407	34760.86
588.604	34781.34
588.801	34498.72
588.999	34359.45
589.196	34668.7
589.393	34570.4
589.59	34384.03
589.787	33892.52
589.984	33831.08
590.182	33917.09
590.379	34162.85
590.576	33769.64
590.773	33845.41
590.97	33583.27
591.167	33689.77
591.364	33632.43
591.561	33388.72
591.758	33431.72
591.955	33200.3
592.152	33421.48
592.349	33312.94
592.546	33151.15
592.743	33429.68
592.94	32870.58
593.137	32942.26
593.334	33028.27
593.531	32321.73
593.727	32846.01
593.924	32809.14
594.121	32170.18
594.318	32985.27
594.515	32102.59
594.712	32731.32
594.908	32516.28
595.105	32381.12
595.302	32014.53
595.499	32223.42
595.696	31998.15
595.892	32102.59
596.089	32327.87
596.286	32114.88
596.482	32069.83
596.679	31805.64
596.876	32121.02
597.072	31707.33
597.269	31905.99
597.466	31559.88
597.662	31320.27
597.859	31748.29
598.055	31875.27
598.252	31185.1
598.448	31500.49
598.645	31275.21
598.841	31389.9
599.038	31277.26
599.234	31246.54
599.431	30896.34
599.627	31000.79
599.824	31459.53
600.02	31054.03
600.217	31158.48
600.413	31367.37
600.609	30961.87
600.806	30705.88
601.002	31236.3
601.198	30882
601.395	30722.26
601.591	30658.77
601.787	30982.35
601.984	30662.87
602.18	31213.77
602.376	30664.92
602.572	30523.61
602.769	30789.84
602.965	30496.99
603.161	30595.29
603.357	30583
603.553	30736.6
603.75	30462.17
603.946	30546.14
604.142	30818.52
604.338	30208.22
604.534	30496.99
604.73	29849.83
604.926	30556.38
605.122	30476.51
605.318	30077.15
605.514	29933.79
605.71	30488.79
605.906	30388.44
606.102	30353.63
606.298	30361.82
606.494	30677.21
606.69	29980.9
606.886	30466.27
607.082	30015.71
607.278	30284
607.474	29749.48
607.67	30474.46
607.866	29909.22
608.062	30867.67
608.257	29946.08
608.453	30331.1
608.649	30525.66
608.845	30064.86
609.041	30372.06
609.236	30443.74
609.432	30052.58
609.628	30163.17
609.824	30390.49
610.019	30083.3
610.215	30273.76
610.411	30593.24
610.606	30150.88
610.802	30177.5
610.998	30079.2
611.193	30490.84
611.389	29970.66
611.584	30433.5
611.78	29962.47
611.976	30437.59
612.171	30417.11
612.367	29974.75
612.562	30206.17
612.758	29849.83
612.953	30009.57
613.149	30071.01
613.344	30068.96
613.539	30456.03
613.735	30187.74
613.93	30357.72
614.126	30071.01
614.321	30478.55
614.517	30312.67
614.712	30357.72
614.907	30152.93
615.103	30511.32
615.298	30015.71
615.493	30703.83
615.688	29733.09
615.884	30394.59
616.079	29804.77
616.274	30179.55
616.47	29984.99
616.665	30009.57
616.86	29708.52
617.055	29788.39
617.25	30001.38
617.445	30253.28
617.641	29624.55
617.836	29999.33
618.031	29716.71
618.226	29911.27
618.421	29516.01
618.616	29901.03
618.811	29374.7
619.006	29663.46
619.201	29358.31
619.396	29436.14
619.591	29030.64
619.786	29364.46
619.981	28584.18
620.176	29257.96
620.371	28573.94
620.566	29026.54
620.761	29092.08
620.956	28733.68
621.151	28608.76
621.346	28709.11
621.541	28418.3
621.735	28535.03
621.93	28061.95
622.125	28096.77
622.32	27523.33
622.515	28094.72
622.709	27326.73
622.904	27865.35
623.099	27443.46
623.294	27515.14
623.488	27443.46
623.683	27595.01
623.878	26736.91
624.072	27060.49
624.267	27228.43
624.462	26798.35
624.656	26577.17
624.851	26329.37
625.046	26263.83
625.24	26120.48
625.435	26194.2
625.629	25938.21
625.824	25825.57
626.018	25954.59
626.213	25106.73
626.407	25260.33
626.602	24920.37
626.796	25110.83
626.991	25053.48
627.185	25059.63
627.38	24809.78
627.574	24670.51
627.768	24787.25
627.963	24295.74
628.157	24314.17
628.352	24516.92
628.546	23908.67
628.74	24379.7
628.935	23929.15
629.129	23978.3
629.323	23415.11
629.517	23554.37
629.712	23597.38
629.906	23497.03
630.1	23019.85
630.294	23277.9
630.489	23222.6
630.683	23325
630.877	22806.86
631.071	22763.86
631.265	22569.3
631.459	22270.29
631.653	22171.99
631.848	22501.72
632.042	22458.71
632.236	22403.41
632.43	21746.01
632.624	22063.45
632.818	21752.16
633.012	21375.33
633.206	21514.59
633.4	21498.21
633.594	21225.83
633.788	21250.41
633.982	21410.15
634.176	21260.65
634.369	21004.65
634.563	20775.28
634.757	20509.04
634.951	20812.14
635.145	20556.14
635.339	20601.2
635.533	20377.97
635.726	20334.96
635.92	19861.88
636.114	20074.87
636.308	19892.6
636.501	19779.96
636.695	19808.64
636.889	19560.83
637.083	19368.32
637.276	19300.74
637.47	19061.13
637.664	19282.31
637.857	19184.01
638.051	19097.99
638.244	18872.71
638.438	18833.8
638.632	18698.64
638.825	18325.91
639.019	18600.33
639.212	18368.91
639.406	18399.63
639.599	18006.42
639.793	18196.88
639.986	18026.9
640.18	18076.05
640.373	17705.37
640.567	17537.44
640.76	17721.76
640.954	17392.03
641.147	17369.51
641.34	17086.89
641.534	16943.53
641.727	16927.14
641.92	17101.22
642.114	16886.18
642.307	16961.96
642.5	16695.72
642.694	16314.8
642.887	16431.54
643.08	16495.02
643.273	16517.55
643.467	16411.06
643.66	16155.06
643.853	16216.5
644.046	15899.06
644.239	15819.19
644.432	15655.36
644.626	15645.12
644.819	15681.98
645.012	15602.11
645.205	15589.82
645.398	15534.53
645.591	15509.95
645.784	15239.62
645.977	15083.97
646.17	15075.78
646.363	15053.25
646.556	14922.18
646.749	14713.29
646.942	14670.28
647.135	14561.74
647.328	14358.99
647.521	14352.85
647.714	14139.86
647.907	14414.29
648.099	14248.4
648.292	14289.36
648.485	14074.32
648.678	13920.73
648.871	13701.59
649.064	13517.28
649.256	13840.86
649.449	13660.63
649.642	13482.46
649.835	13545.95
650.027	13347.29
650.22	13359.58
650.413	13441.5
650.605	13222.37
650.798	13216.22
650.991	13093.35
651.183	12874.21
651.376	12859.88
651.568	12935.65
651.761	12900.84
651.954	12857.83
652.146	12810.73
652.339	12661.23
652.531	12567.02
652.724	12569.07
652.916	12341.74
653.109	12577.26
653.301	12356.08
653.494	12202.48
653.686	11995.64
653.879	12304.88
654.071	11893.24
654.263	12222.96
654.456	11854.33
654.648	11911.67
654.84	11676.15
655.033	11741.69
655.225	11424.25
655.417	11653.62
655.61	11706.87
655.802	11577.85
655.994	11332.09
656.186	11649.53
656.379	11262.46
656.571	11260.41
656.763	11215.36
656.955	11084.29
657.148	11059.71
657.34	11069.95
657.532	10973.7
657.724	11061.76
657.916	10922.5
658.108	10949.12
658.3	10889.73
658.492	10914.31
658.684	10603.02
658.876	10783.24
659.068	10447.37
659.26	10416.65
659.452	10578.44
659.644	10371.6
659.836	10265.1
660.028	10328.59
660.22	10185.23
660.412	9976.34
660.604	10005.01
660.796	9990.67
660.988	9847.32
661.18	9781.78
661.372	9822.74
661.563	9892.37
661.755	9921.04
661.947	9781.78
662.139	9611.8
662.331	9493.02
662.522	9644.57
662.714	9445.91
662.906	9425.43
663.097	9454.11
663.289	9327.13
663.481	9273.89
663.673	9310.75
663.864	9173.53
664.056	9040.42
664.247	8905.25
664.439	8886.82
664.631	9054.75
664.822	8995.36
665.014	8905.25
665.205	8868.39
665.397	8774.18
665.588	8718.89
665.78	8550.95
665.971	8651.3
666.163	8841.76
666.354	8659.49
666.546	8405.55
666.737	8319.53
666.929	8577.58
667.12	8563.24
667.311	8348.2
667.503	8378.92
667.694	8282.67
667.885	8372.78
668.077	8346.16
668.268	8213.04
668.459	8233.52
668.651	8057.39
668.842	8303.15
669.033	7899.7
669.224	7815.73
669.416	7887.41
669.607	8084.02
669.798	8043.06
669.989	7897.65
670.18	7918.13
670.371	7897.65
670.563	7670.33
670.754	7864.88
670.945	7477.82
671.136	7569.98
671.327	7754.29
671.518	7666.23
671.709	7516.73
671.9	7524.92
672.091	7606.84
672.282	7465.53
672.473	7529.02
672.664	7664.18
672.855	7348.79
673.046	7221.82
673.237	7399.99
673.428	7471.67
673.619	7307.84
673.809	7299.64
674	7256.64
674.191	7211.58
674.382	7197.24
674.573	7150.14
674.764	7031.36
674.954	7258.68
675.145	6951.49
675.336	6937.15
675.527	7139.9
675.717	6990.4
675.908	7021.12
676.099	7041.6
676.289	6883.91
676.48	6881.86
676.671	6783.56
676.861	6867.52
677.052	6775.36
677.243	6826.56
677.433	6783.56
677.624	6974.02
677.814	6900.29
678.005	6740.55
678.195	6851.14
678.386	6791.75
678.576	6627.91
678.767	6693.44
678.957	6642.25
679.148	6746.69
679.338	6603.33
679.529	6666.82
679.719	6572.61
679.909	6726.21
680.1	6439.5
680.29	6683.2
680.481	6474.31
680.671	6550.09
680.861	6480.46
681.052	6572.61
681.242	6462.02
681.432	6531.65
681.622	6599.24
681.813	6431.3
682.003	6410.82
682.193	6300.23
682.383	6292.04
682.573	6423.11
682.764	6390.35
682.954	6199.88
683.144	6382.15
683.334	6408.78
683.524	6158.92
683.714	6285.9
683.904	6578.76
684.094	6308.43
684.284	6185.55
684.474	6206.03
684.664	6136.4
684.854	6068.81
685.044	6201.93
685.234	6087.25
685.424	6246.99
685.614	6062.67
685.804	6062.67
685.994	6070.86
686.184	6040.14
686.374	6234.7
686.564	6034
686.753	6062.67
686.943	5947.98
687.133	5804.63
687.323	5931.6
687.513	6103.63
687.702	5808.72
687.892	5841.49
688.082	5878.35
688.272	5923.41
688.461	5790.29
688.651	5786.19
688.841	5648.98
689.03	5728.85
689.22	5726.8
689.41	5683.8
689.599	5767.76
689.789	5753.43
689.979	5732.95
690.168	5583.45
690.358	5571.16
690.547	5726.8
690.737	5603.93
690.926	5626.45
691.116	5538.39
691.305	5562.97
691.495	5603.93
691.684	5386.84
691.874	5425.75
692.063	5347.93
692.252	5366.36
692.442	5392.98
692.631	5444.18
692.82	5288.54
693.01	5415.51
693.199	5382.74
693.388	5278.3
693.578	5194.33
693.767	5229.15
693.956	5145.18
694.146	5255.77
694.335	5206.62
694.524	5075.55
694.713	5126.75
694.902	5202.52
695.092	5194.33
695.281	5214.81
695.47	5186.14
695.659	5141.08
695.848	5147.23
696.037	5220.95
696.226	5036.64
696.415	5065.31
696.604	5024.35
696.793	5065.31
696.982	4973.15
697.171	5005.92
697.36	4926.05
697.549	5005.92
697.738	5005.92
697.927	4932.19
698.116	4868.7
698.305	4848.22
698.494	5089.88
698.683	4776.55
698.872	4807.27
699.061	4760.16
699.25	4754.02
699.438	4858.46
699.627	4801.12
699.816	4698.72
700.005	4547.17
700.193	4762.21
700.382	4790.88
700.571	4616.8
700.76	4588.13
700.948	4774.5
701.137	4645.48
701.326	4706.91
701.514	4571.75
701.703	4571.75
701.892	4547.17
702.08	4606.56
702.269	4557.41
702.457	4571.75
702.646	4610.66
702.834	4573.8
703.023	4455.01
703.212	4586.08
703.4	4502.12
703.589	4418.15
703.777	4481.64
703.965	4375.14
704.154	4346.47
704.342	4276.84
704.531	4424.3
704.719	4280.94
704.907	4383.34
705.096	4282.99
705.284	4295.27
705.472	4293.23
705.661	4366.95
705.849	4239.98
706.037	4168.3
706.226	4205.16
706.414	4211.31
706.602	4188.78
706.79	4205.16
706.979	4084.33
707.167	4166.25
707.355	4133.48
707.543	4110.96
707.731	4196.97
707.919	4119.15
708.107	4008.56
708.296	4223.59
708.484	4022.89
708.672	4053.61
708.86	4022.89
709.048	4123.24
709.236	3953.26
709.424	3850.86
709.612	4078.19
709.8	3977.84
709.988	3934.83
710.176	3859.06
710.364	4031.09
710.551	3918.45
710.739	3742.32
710.927	3848.82
711.115	3852.91
711.303	3852.91
711.491	3928.69
711.679	3953.26
711.866	3904.11
712.054	3801.71
712.242	3844.72
712.43	3838.58
712.617	3809.9
712.805	3631.73
712.993	3725.94
713.181	3598.96
713.368	3703.41
713.556	3721.84
713.744	3609.2
713.931	3854.96
714.119	3605.11
714.306	3773.04
714.494	3650.16
714.682	3623.54
714.869	3564.15
715.057	3678.83
715.244	3560.05
715.432	3617.4
715.619	3586.68
715.807	3684.98
715.994	3619.44
716.182	3394.17
716.369	3596.92
716.556	3662.45
716.744	3549.81
716.931	3512.95
717.119	3506.81
717.306	3523.19
717.493	3322.49
717.681	3498.61
717.868	3371.64
718.055	3342.97
718.242	3488.37
718.43	3443.32
718.617	3433.08
718.804	3416.69
718.991	3379.83
719.179	3504.76
719.366	3418.74
719.553	3418.74
719.74	3334.78
719.927	3244.67
720.114	3228.28
720.301	3222.14
720.488	3240.57
720.676	3261.05
720.863	3408.5
721.05	3293.82
721.237	3330.68
721.424	3150.46
721.611	3175.03
721.798	3228.28
721.985	3269.24
722.172	3203.71
722.358	3166.84
722.545	3107.45
722.732	3129.98
722.919	3199.61
723.106	3117.69
723.293	3168.89
723.48	3015.29
723.667	3074.68
723.853	3109.5
724.04	3166.84
724.227	3101.31
724.414	2998.91
724.6	3089.02
724.787	3060.35
724.974	3146.36
725.161	2929.28
725.347	3015.29
725.534	2960
725.72	2968.19
725.907	2929.28
726.094	2966.14
726.28	2921.09
726.467	2976.38
726.653	2953.85
726.84	3117.69
727.027	3082.88
727.213	2804.35
727.4	2884.22
727.586	2796.16
727.773	2931.33
727.959	2916.99
728.145	2896.51
728.332	2859.65
728.518	2957.95
728.705	2853.5
728.891	2884.22
729.077	2802.3
729.264	2839.17
729.45	2722.43
729.636	2839.17
729.823	2763.39
730.009	2785.92
730.195	2738.82
730.382	2820.74
730.568	2812.54
730.754	2818.69
730.94	2785.92
731.126	2761.34
731.313	2798.21
731.499	2734.72
731.685	2685.57
731.871	2728.58
732.057	2574.98
732.243	2679.43
732.429	2691.71
732.615	2716.29
732.801	2704
732.987	2728.58
733.173	2683.52
733.359	2671.23
733.545	2697.86
733.731	2648.71
733.917	2716.29
734.103	2697.86
734.289	2609.79
734.475	2585.22
734.661	2652.8
734.847	2554.5
735.033	2609.79
735.219	2564.74
735.404	2663.04
735.59	2579.08
735.776	2392.71
735.962	2560.64
736.148	2679.43
736.333	2574.98
736.519	2435.72
736.705	2402.95
736.89	2493.06
737.076	2634.37
737.262	2589.32
737.447	2427.53
737.633	2439.81
737.819	2396.81
738.004	2466.44
738.19	2499.2
738.375	2386.57
738.561	2495.11
738.747	2398.85
738.932	2359.94
739.118	2474.63
739.303	2400.9
739.489	2507.4
739.674	2445.96
739.859	2355.85
740.045	2380.42
740.23	2384.52
740.416	2247.3
740.601	2333.32
740.786	2292.36
740.972	2339.46
741.157	2335.37
741.342	2187.91
741.528	2259.59
741.713	2228.87
741.898	2357.89
742.084	2300.55
742.269	2155.15
742.454	2321.03
742.639	2284.17
742.824	2206.34
743.01	2265.74
743.195	2224.78
743.38	2192.01
743.565	2134.67
743.75	2210.44
743.935	2198.15
744.12	2208.39
744.305	2052.75
744.49	2105.99
744.675	2146.95
744.86	2052.75
745.045	2079.37
745.23	2005.64
745.415	2108.04
745.6	2052.75
745.785	2081.42
745.97	2114.19
746.155	2019.98
746.34	2056.84
746.525	1893.01
746.71	1985.16
746.895	1925.77
747.079	1899.15
747.264	1901.2
747.449	1970.83
747.634	1940.11
747.819	1870.48
748.003	1870.48
748.188	1870.48
748.373	1884.81
748.557	1897.1
748.742	1897.1
748.927	1972.88
749.111	1872.53
749.296	1884.81
749.481	1886.86
749.665	1843.85
749.85	1729.17
750.034	1850
750.219	1680.02
750.404	1800.85
750.588	1749.65
750.773	1712.78
750.957	1772.18
751.141	1706.64
751.326	1778.32
751.51	1729.17
751.695	1682.06
751.879	1692.3
752.064	1688.21
752.248	1499.8
752.432	1565.33
752.617	1598.1
752.801	1712.78
752.985	1598.1
753.17	1604.24
753.354	1614.48
753.538	1544.85
753.722	1426.07
753.907	1581.71
754.091	1419.92
754.275	1585.81
754.459	1532.56
754.643	1370.77
754.828	1626.77
755.012	1600.15
755.196	1360.53
755.38	1413.78
755.564	1452.69
755.748	1421.97
755.932	1409.69
756.116	1493.65
756.3	1454.74
756.484	1428.12
756.668	1401.49
756.852	1241.75
757.036	1426.07
757.22	1323.67
757.404	1368.73
757.588	1325.72
757.772	1405.59
757.956	1372.82
758.14	1346.2
758.323	1153.69
758.507	1376.92
758.691	1264.28
758.875	1319.57
759.059	1376.92
759.242	1196.7
759.426	1233.56
759.61	1206.94
759.794	1163.93
759.977	1233.56
760.161	1295
760.345	1270.42
760.528	1278.62
760.712	1196.7
760.895	1239.7
761.079	1204.89
761.263	1075.87
761.446	1198.74
761.63	1151.64
761.813	1200.79
761.997	1186.46
762.18	1100.44
762.364	1241.75
762.547	1084.06
762.731	1002.14
762.914	1174.17
763.098	1159.83
763.281	1082.01
763.464	1153.69
763.648	1092.25
763.831	1061.53
764.015	950.94
764.198	1100.44
764.381	1120.92
764.564	1098.39
764.748	1100.44
764.931	996
765.114	1092.25
765.297	1069.72
765.481	1106.59
765.664	1098.39
765.847	1102.49
766.03	1147.55
766.213	1086.11
766.397	1118.87
766.58	934.56
766.763	1034.91
766.946	934.56
767.129	1100.44
767.312	967.32
767.495	948.89
767.678	993.95
767.861	1061.53
768.044	969.37
768.227	946.84
768.41	897.69
768.593	1143.45
768.776	1024.67
768.959	996
769.142	950.94
769.324	1004.19
769.507	1020.57
769.69	959.13
769.873	1000.09
770.056	975.52
770.239	952.99
770.421	991.9
770.604	832.16
770.787	889.5
770.97	881.31
771.152	942.75
771.335	926.36
771.518	1024.67
771.7	967.32
771.883	977.56
772.066	830.11
772.248	832.16
772.431	920.22
772.613	930.46
772.796	844.45
772.978	926.36
773.161	942.75
773.343	819.87
773.526	862.88
773.708	797.34
773.891	813.73
774.073	862.88
774.256	901.79
774.438	846.49
774.621	750.24
774.803	834.21
774.985	758.43
775.168	834.21
775.35	799.39
775.532	780.96
775.715	746.14
775.897	832.16
776.079	713.38
776.261	785.05
776.444	770.72
776.626	756.38
776.808	756.38
776.99	750.24
777.173	758.43
777.355	783.01
777.537	656.03
777.719	729.76
777.901	664.22
778.083	780.96
778.265	748.19
778.447	699.04
778.629	692.9
778.811	645.79
778.993	660.13
779.175	762.53
779.357	617.12
779.539	619.17
779.721	692.9
779.903	647.84
780.085	754.34
780.267	639.65
780.449	699.04
780.631	658.08
780.812	623.27
780.994	596.64
781.176	586.4
781.358	674.46
781.54	529.06
781.721	557.73
781.903	565.92
782.085	615.07
782.267	705.18
782.448	510.63
782.63	549.54
782.812	547.49
782.993	533.15
783.175	508.58
783.357	508.58
783.538	539.3
783.72	545.44
783.901	520.87
784.083	553.63
784.264	602.79
784.446	481.96
784.627	455.33
784.809	524.96
784.99	516.77
785.172	574.11
785.353	504.48
785.535	426.66
785.716	488.1
785.897	549.54
786.079	467.62
786.26	465.57
786.441	510.63
786.623	430.76
786.804	527.01
786.985	471.72
787.167	420.52
787.348	369.32
787.529	465.57
787.71	492.2
787.891	506.53
788.073	422.56
788.254	381.6
788.435	549.54
788.616	436.9
788.797	459.43
788.978	467.62
789.159	324.26
789.34	445.09
789.522	426.66
789.703	434.85
789.884	393.89
790.065	488.1
790.246	441
790.427	336.55
790.607	414.37
790.788	348.84
790.969	410.28
791.15	420.52
791.331	445.09
791.512	410.28
791.693	387.75
791.874	330.41
792.054	422.56
792.235	348.84
792.416	406.18
792.597	354.98
792.778	438.95
792.958	371.36
793.139	426.66
793.32	377.51
793.5	377.51
793.681	445.09
793.862	393.89
794.042	334.5
794.223	418.47
794.404	291.49
794.584	258.73
794.765	336.55
794.945	344.74
795.126	393.89
795.306	410.28
795.487	367.27
795.667	330.41
795.848	311.97
796.028	340.65
796.209	248.49
796.389	322.21
796.57	336.55
796.75	377.51
796.93	271.01
797.111	305.83
797.291	377.51
797.471	404.13
797.652	256.68
797.832	299.69
798.012	363.17
798.192	324.26
798.373	283.3
798.553	281.25
798.733	373.41
798.913	191.14
799.093	320.17
799.274	344.74
799.454	324.26
799.634	350.89
799.814	205.48
799.994	281.25
800.174	316.07
800.354	238.25
800.534	275.11
800.714	348.84
800.894	287.4
801.074	209.58
801.254	213.67
801.434	311.97
801.614	277.16
801.794	281.25
801.974	811.68
802.154	230.06
802.334	242.34
802.514	160.42
802.693	307.88
802.873	201.38
803.053	354.98
803.233	217.77
803.413	295.59
803.592	273.06
803.772	223.91
803.952	225.96
804.131	215.72
804.311	242.34
804.491	176.81
804.67	152.23
804.85	215.72
805.03	309.93
805.209	264.87
805.389	213.67
805.568	215.72
805.748	246.44
805.928	240.29
806.107	340.65
806.287	225.96
806.466	228.01
806.646	148.14
806.825	213.67
807.004	180.9
807.184	238.25
807.363	197.29
807.543	254.63
807.722	115.37
807.901	197.29
808.081	205.48
808.26	158.38
808.439	168.62
808.619	195.24
808.798	189.1
808.977	246.44
809.156	156.33
809.336	150.18
809.515	172.71
809.694	160.42
809.873	164.52
810.052	258.73
810.231	248.49
810.411	156.33
810.59	262.82
810.769	271.01
810.948	205.48
811.127	166.57
811.306	139.94
811.485	176.81
811.664	221.86
811.843	199.34
812.022	182.95
812.201	166.57
812.38	166.57
812.559	148.14
812.737	172.71
812.916	96.94
813.095	141.99
813.274	182.95
813.453	199.34
813.632	125.61
813.811	246.44
813.989	185
814.168	213.67
814.347	121.51
814.526	160.42
814.704	162.47
814.883	123.56
815.062	148.14
815.24	135.85
815.419	60.07
815.598	182.95
815.776	101.03
815.955	197.29
816.133	148.14
816.312	78.51
816.49	115.37
816.669	225.96
816.847	172.71
817.026	150.18
817.204	103.08
817.383	180.9
817.561	111.27
817.74	199.34
817.918	156.33
818.097	150.18
818.275	139.94
818.453	205.48
818.632	217.77
818.81	123.56
818.988	148.14
819.167	101.03
819.345	172.71
819.523	150.18
819.701	234.15
819.879	152.23
820.058	144.04
820.236	117.42
820.414	62.12
820.592	148.14
820.77	131.75
820.948	35.5
821.127	139.94
821.305	107.18
821.483	84.65
821.661	172.71
821.839	129.7
822.017	76.46
822.195	131.75
822.373	150.18
822.551	164.52
822.729	101.03
822.907	121.51
823.085	115.37
823.262	105.13
823.44	152.23
823.618	103.08
823.796	29.35
823.974	33.45
824.152	74.41
824.329	123.56
824.507	127.66
824.685	187.05
824.863	109.22
825.04	103.08
825.218	131.75
825.396	166.57
825.574	162.47
825.751	113.32
825.929	78.51
826.107	103.08
826.284	55.98
826.462	176.81
826.639	109.22
826.817	51.88
826.994	103.08
827.172	152.23
827.349	203.43
827.527	141.99
827.704	144.04
827.882	141.99
828.059	101.03
828.237	107.18
828.414	109.22
828.591	84.65
828.769	141.99
828.946	51.88
829.124	74.41
829.301	111.27
829.478	84.65
829.655	45.74
829.833	80.55
830.01	53.93
830.187	78.51
830.364	144.04
830.542	68.27
830.719	62.12
830.896	76.46
831.073	80.55
831.25	66.22
831.427	125.61
831.604	101.03
831.782	98.99
831.959	84.65
832.136	8.87
832.313	107.18
832.49	98.99
832.667	90.79
832.844	-5.46
833.021	123.56
833.198	123.56
833.374	86.7
833.551	90.79
833.728	74.41
833.905	72.36
834.082	12.97
834.259	107.18
834.436	29.35
834.612	55.98
834.789	119.46
834.966	92.84
835.143	113.32
835.319	58.03
835.496	133.8
835.673	82.6
835.85	92.84
836.026	109.22
836.203	78.51
836.38	4.78
836.556	33.45
836.733	25.26
836.909	98.99
837.086	21.16
837.262	51.88
837.439	94.89
837.616	64.17
837.792	78.51
837.968	158.38
838.145	64.17
838.321	96.94
838.498	60.07
838.674	123.56
838.851	68.27
839.027	109.22
839.203	158.38
839.38	76.46
839.556	90.79
839.732	33.45
839.909	51.88
840.085	80.55
840.261	51.88
840.437	105.13
840.614	33.45
840.79	19.11
840.966	8.87
841.142	35.5
841.318	-30.04
841.494	139.94
841.671	29.35
841.847	23.21
842.023	17.07
842.199	70.31
842.375	43.69
842.551	-23.89
842.727	4.78
842.903	98.99
843.079	25.26
843.255	158.38
843.431	37.55
843.607	45.74
843.783	6.83
843.959	76.46
844.134	-32.08
844.31	230.06
844.486	98.99
844.662	-34.13
844.838	17.07
845.013	58.03
845.189	49.83
845.365	-13.65
845.541	-19.8
845.716	66.22
845.892	92.84
846.068	4.78
846.244	41.64
846.419	10.92
846.595	127.66
846.77	58.03
846.946	41.64
847.122	86.7
847.297	10.92
847.473	103.08
847.648	0.68
847.824	-5.46
847.999	-13.65
848.175	41.64
848.35	64.17
848.526	105.13
848.701	25.26
848.876	78.51
849.052	144.04
849.227	41.64
849.403	58.03
849.578	62.12
849.753	101.03
849.929	101.03
850.104	4.78
850.279	66.22
850.454	84.65
850.63	43.69
850.805	98.99
850.98	49.83
851.155	-7.51
851.33	17.07
851.505	33.45
851.681	80.55
851.856	15.02
852.031	51.88
852.206	113.32
852.381	64.17
852.556	76.46
852.731	62.12
852.906	-3.41
853.081	51.88
853.256	90.79
853.431	8.87
853.606	43.69
853.781	27.31
853.956	-5.46
854.131	-3.41
854.305	-15.7
854.48	37.55
854.655	-13.65
854.83	107.18
855.005	33.45
855.18	80.55
855.354	90.79
855.529	150.18
855.704	0.68
855.879	45.74
856.053	-15.7
856.228	68.27
856.403	25.26
856.577	58.03
856.752	-3.41
856.926	60.07
857.101	-9.56
857.276	25.26
857.45	0.68
857.625	76.46
857.799	66.22
857.974	41.64
858.148	-46.42
858.323	33.45
858.497	35.5
858.672	-40.28
858.846	35.5
859.02	51.88
859.195	31.4
859.369	-1.37
859.543	49.83
859.718	45.74
859.892	68.27
860.066	66.22
860.241	-25.94
860.415	-21.85
860.589	-7.51
860.763	53.93
860.938	-7.51
861.112	-5.46
861.286	-21.85
861.46	35.5
861.634	-23.89
861.808	43.69
861.982	15.02
862.157	90.79
862.331	-13.65
862.505	4.78
862.679	-48.47
862.853	19.11
863.027	12.97
863.201	144.04
863.375	8.87
863.549	70.31
863.722	-32.08
863.896	53.93
864.07	-36.18
864.244	33.45
864.418	0.68
864.592	-27.99
864.766	-21.85
864.939	53.93
865.113	66.22
865.287	119.46
865.461	-56.66
865.634	17.07
865.808	-7.51
865.982	58.03
866.156	25.26
866.329	15.02
866.503	23.21
866.676	17.07
866.85	39.59
867.024	39.59
867.197	6.83
867.371	82.6
867.544	70.31
867.718	0.68
867.891	60.07
868.065	10.92
868.238	-5.46
868.412	90.79
868.585	-42.32
868.759	35.5
868.932	19.11
869.105	-101.72
869.279	53.93
869.452	-77.14
869.625	29.35
869.799	4.78
869.972	-60.76
870.145	115.37
870.319	35.5
870.492	-5.46
870.665	66.22
870.838	-15.7
871.011	-27.99
871.185	8.87
871.358	-19.8
871.531	8.87
871.704	10.92
871.877	-15.7
872.05	33.45
872.223	-21.85
872.396	35.5
872.569	19.11
872.742	17.07
872.915	86.7
873.088	-60.76
873.261	35.5
873.434	33.45
873.607	-48.47
873.78	47.79
873.953	-77.14
874.126	29.35
874.299	39.59
874.471	-7.51
874.644	33.45
874.817	39.59
874.99	45.74
875.163	21.16
875.335	53.93
875.508	-48.47
875.681	74.41
875.853	-11.61
876.026	2.73
876.199	-1.37
876.371	8.87
876.544	19.11
876.717	19.11
876.889	4.78
877.062	-11.61
877.234	-81.24
877.407	-52.56
877.579	-15.7
877.752	17.07
877.924	125.61
878.097	45.74
878.269	17.07
878.442	-21.85
878.614	-21.85
878.786	68.27
878.959	25.26
879.131	2.73
879.303	41.64
879.476	111.27
879.648	45.74
879.82	6.83
879.993	33.45
880.165	-48.47
880.337	-19.8
880.509	62.12
880.681	10.92
880.854	-7.51
881.026	12.97
881.198	105.13
881.37	47.79
881.542	-44.37
881.714	-32.08
881.886	15.02
882.058	-30.04
882.23	-11.61
882.402	-15.7
882.574	4.78
882.746	62.12
882.918	82.6
883.09	45.74
883.262	-34.13
883.434	-40.28
883.606	-38.23
883.778	-36.18
883.95	27.31
884.122	-103.76
884.293	29.35
884.465	-21.85
884.637	-3.41
884.809	-85.33
884.98	27.31
885.152	0.68
885.324	25.26
885.496	25.26
885.667	19.11
885.839	-13.65
886.011	-36.18
886.182	21.16
886.354	88.75
886.525	45.74
886.697	-56.66
886.869	55.98
887.04	-5.46
887.212	43.69
887.383	43.69
887.555	43.69
887.726	-48.47
887.897	17.07
888.069	8.87
888.24	-15.7
888.412	-48.47
888.583	-30.04
888.754	-17.75
888.926	-21.85
889.097	-52.56
889.268	27.31
889.44	21.16
889.611	25.26
889.782	-30.04
889.953	-11.61
890.125	-7.51
890.296	-19.8
890.467	-36.18
890.638	-27.99
890.809	8.87
890.98	-46.42
891.151	33.45
891.323	168.62
891.494	82.6
891.665	60.07
891.836	-38.23
892.007	8.87
892.178	19.11
892.349	35.5
892.52	45.74
892.691	76.46
892.862	12.97
893.032	43.69
893.203	17.07
893.374	-21.85
893.545	29.35
893.716	23.21
893.887	68.27
894.057	-68.95
894.228	35.5
894.399	43.69
894.57	47.79
894.74	88.75
894.911	111.27
895.082	8.87
895.253	6.83
895.423	-77.14
895.594	17.07
895.764	-30.04
895.935	-32.08
896.106	10.92
896.276	-52.56
896.447	-64.85
896.617	43.69
896.788	-32.08
896.958	-30.04
897.129	137.9
897.299	10.92
897.47	43.69
897.64	27.31
897.81	-21.85
897.981	-7.51
898.151	-89.43
898.322	-21.85
898.492	-3.41
898.662	-9.56
898.832	-48.47
899.003	8.87
899.173	51.88
899.343	-15.7
899.513	-19.8
