Data from USB4F104151__0__14-28-18-273.txt Node

Date: Thu Mar 13 14:28:18 EDT 2025
User: louis
Spectrometer: USB4F10415
Trigger mode: 4
Integration Time (sec): 2.500000E-2
Scans to average: 1
Electric dark correction enabled: true
Nonlinearity correction enabled: false
Boxcar width: 0
XAxis mode: Wavelengths
Number of Pixels in Spectrum: 3648
>>>>>Begin Spectral Data<<<<<
178.204	-96.94
178.424	-96.94
178.644	-96.94
178.864	-166.57
179.084	-119.46
179.304	-37.55
179.524	-10.92
179.744	-2.73
179.964	58.71
180.184	-6.83
180.404	3.41
180.624	17.75
180.844	-43.69
181.064	-29.35
181.283	-15.02
181.503	-0.68
181.723	66.9
181.943	-80.55
182.163	50.52
182.383	-4.78
182.602	5.46
182.822	-6.83
183.042	-6.83
183.262	-35.5
183.482	83.28
183.701	11.61
183.921	27.99
184.141	-19.11
184.361	23.89
184.58	56.66
184.8	-8.87
185.02	-12.97
185.239	-6.83
185.459	75.09
185.679	58.71
185.898	-15.02
186.118	118.1
186.338	36.18
186.557	30.04
186.777	-101.03
186.997	11.61
187.216	93.52
187.436	71
187.655	-31.4
187.875	64.85
188.095	-4.78
188.314	3.41
188.534	46.42
188.753	25.94
188.973	44.37
189.192	75.09
189.412	-6.83
189.631	17.75
189.851	34.13
190.07	58.71
190.29	-17.07
190.509	-27.31
190.729	21.85
190.948	140.63
191.168	128.34
191.387	38.23
191.607	-23.21
191.826	25.94
192.045	19.8
192.265	-17.07
192.484	-12.97
192.704	75.09
192.923	-2.73
193.142	91.48
193.362	48.47
193.581	71
193.8	17.75
194.02	17.75
194.239	3.41
194.458	44.37
194.678	11.61
194.897	17.75
195.116	-6.83
195.335	-68.27
195.555	44.37
195.774	-55.98
195.993	36.18
196.212	-15.02
196.432	9.56
196.651	56.66
196.87	-10.92
197.089	60.76
197.308	48.47
197.528	17.75
197.747	-10.92
197.966	73.04
198.185	85.33
198.404	13.65
198.623	46.42
198.842	21.85
199.062	60.76
199.281	40.28
199.5	71
199.719	58.71
199.938	21.85
200.157	71
200.376	50.52
200.595	23.89
200.814	-39.59
201.033	60.76
201.252	1.37
201.471	36.18
201.69	75.09
201.909	42.32
202.128	-6.83
202.347	-0.68
202.566	21.85
202.785	-47.79
203.004	-27.31
203.223	134.48
203.442	56.66
203.661	21.85
203.879	109.91
204.098	66.9
204.317	42.32
204.536	-0.68
204.755	21.85
204.974	9.56
205.193	58.71
205.411	107.86
205.63	77.14
205.849	75.09
206.068	75.09
206.287	50.52
206.505	27.99
206.724	128.34
206.943	11.61
207.162	-39.59
207.381	17.75
207.599	73.04
207.818	17.75
208.037	25.94
208.255	-39.59
208.474	36.18
208.693	15.7
208.911	-23.21
209.13	91.48
209.349	58.71
209.567	58.71
209.786	87.38
210.005	-2.73
210.223	-4.78
210.442	36.18
210.661	101.72
210.879	25.94
211.098	9.56
211.316	32.08
211.535	75.09
211.753	66.9
211.972	9.56
212.191	-37.55
212.409	-39.59
212.628	44.37
212.846	-111.27
213.065	44.37
213.283	124.24
213.502	25.94
213.72	56.66
213.938	15.7
214.157	17.75
214.375	62.8
214.594	-2.73
214.812	42.32
215.031	3.41
215.249	36.18
215.467	-23.21
215.686	44.37
215.904	64.85
216.122	42.32
216.341	42.32
216.559	62.8
216.778	107.86
216.996	17.75
217.214	50.52
217.432	52.56
217.651	54.61
217.869	-60.07
218.087	75.09
218.306	13.65
218.524	-2.73
218.742	9.56
218.96	83.28
219.179	-39.59
219.397	34.13
219.615	81.24
219.833	34.13
220.051	38.23
220.27	71
220.488	36.18
220.706	52.56
220.924	50.52
221.142	-39.59
221.36	7.51
221.578	58.71
221.796	36.18
222.015	-53.93
222.233	1.37
222.451	85.33
222.669	30.04
222.887	54.61
223.105	62.8
223.323	52.56
223.541	13.65
223.759	-6.83
223.977	68.95
224.195	97.62
224.413	27.99
224.631	52.56
224.849	58.71
225.067	148.82
225.285	-29.35
225.503	25.94
225.721	30.04
225.939	-39.59
226.157	107.86
226.375	109.91
226.592	5.46
226.81	-0.68
227.028	87.38
227.246	136.53
227.464	7.51
227.682	50.52
227.9	50.52
228.117	107.86
228.335	9.56
228.553	3.41
228.771	97.62
228.989	95.57
229.206	56.66
229.424	68.95
229.642	62.8
229.86	-12.97
230.077	38.23
230.295	40.28
230.513	7.51
230.731	66.9
230.948	62.8
231.166	66.9
231.384	87.38
231.601	11.61
231.819	11.61
232.037	3.41
232.254	5.46
232.472	91.48
232.689	9.56
232.907	50.52
233.125	126.29
233.342	38.23
233.56	-37.55
233.777	71
233.995	54.61
234.213	99.67
234.43	79.19
234.648	85.33
234.865	3.41
235.083	79.19
235.3	-6.83
235.518	101.72
235.735	66.9
235.953	5.46
236.17	32.08
236.388	48.47
236.605	66.9
236.822	38.23
237.04	-6.83
237.257	107.86
237.475	-12.97
237.692	21.85
237.909	83.28
238.127	17.75
238.344	42.32
238.562	75.09
238.779	9.56
238.996	-45.74
239.214	71
239.431	9.56
239.648	-4.78
239.865	-12.97
240.083	-19.11
240.3	50.52
240.517	-2.73
240.735	-4.78
240.952	56.66
241.169	95.57
241.386	23.89
241.603	27.99
241.821	13.65
242.038	19.8
242.255	-29.35
242.472	19.8
242.689	46.42
242.907	114
243.124	9.56
243.341	-12.97
243.558	-68.27
243.775	44.37
243.992	19.8
244.209	15.7
244.426	111.96
244.643	25.94
244.86	36.18
245.078	34.13
245.295	-45.74
245.512	-62.12
245.729	40.28
245.946	71
246.163	21.85
246.38	19.8
246.597	52.56
246.814	71
247.031	46.42
247.248	42.32
247.464	46.42
247.681	48.47
247.898	42.32
248.115	58.71
248.332	-15.02
248.549	30.04
248.766	50.52
248.983	66.9
249.2	52.56
249.417	71
249.633	50.52
249.85	21.85
250.067	9.56
250.284	46.42
250.501	83.28
250.717	85.33
250.934	21.85
251.151	11.61
251.368	60.76
251.585	85.33
251.801	75.09
252.018	9.56
252.235	87.38
252.451	27.99
252.668	-4.78
252.885	91.48
253.102	-29.35
253.318	34.13
253.535	9.56
253.752	-31.4
253.968	1.37
254.185	27.99
254.401	85.33
254.618	27.99
254.835	1.37
255.051	124.24
255.268	13.65
255.484	73.04
255.701	25.94
255.917	-6.83
256.134	21.85
256.351	79.19
256.567	27.99
256.784	-47.79
257	-47.79
257.217	52.56
257.433	30.04
257.65	62.8
257.866	52.56
258.082	-41.64
258.299	-6.83
258.515	60.76
258.732	-29.35
258.948	58.71
259.165	3.41
259.381	-12.97
259.597	19.8
259.814	34.13
260.03	128.34
260.246	75.09
260.463	87.38
260.679	99.67
260.895	68.95
261.112	58.71
261.328	93.52
261.544	17.75
261.761	126.29
261.977	17.75
262.193	9.56
262.409	3.41
262.626	99.67
262.842	-17.07
263.058	42.32
263.274	17.75
263.49	27.99
263.707	25.94
263.923	17.75
264.139	-45.74
264.355	68.95
264.571	58.71
264.787	9.56
265.004	58.71
265.22	95.57
265.436	3.41
265.652	17.75
265.868	81.24
266.084	25.94
266.3	-27.31
266.516	5.46
266.732	60.76
266.948	46.42
267.164	71
267.38	54.61
267.596	17.75
267.812	101.72
268.028	64.85
268.244	-31.4
268.46	52.56
268.676	44.37
268.892	40.28
269.108	-29.35
269.324	9.56
269.54	-31.4
269.756	136.53
269.972	5.46
270.188	1.37
270.403	85.33
270.619	-10.92
270.835	99.67
271.051	89.43
271.267	-4.78
271.483	36.18
271.698	-15.02
271.914	13.65
272.13	52.56
272.346	25.94
272.562	23.89
272.777	30.04
272.993	5.46
273.209	34.13
273.425	36.18
273.64	50.52
273.856	95.57
274.072	1.37
274.287	17.75
274.503	40.28
274.719	75.09
274.934	-27.31
275.15	-0.68
275.366	34.13
275.581	25.94
275.797	17.75
276.012	38.23
276.228	5.46
276.444	-15.02
276.659	68.95
276.875	-21.16
277.09	62.8
277.306	56.66
277.521	36.18
277.737	27.99
277.952	73.04
278.168	-15.02
278.383	-37.55
278.599	-8.87
278.814	68.95
279.03	5.46
279.245	71
279.461	36.18
279.676	44.37
279.892	1.37
280.107	27.99
280.322	13.65
280.538	66.9
280.753	-37.55
280.969	66.9
281.184	-10.92
281.399	116.05
281.615	21.85
281.83	52.56
282.045	13.65
282.26	50.52
282.476	107.86
282.691	58.71
282.906	44.37
283.122	66.9
283.337	-12.97
283.552	48.47
283.767	-31.4
283.983	148.82
284.198	1.37
284.413	97.62
284.628	-15.02
284.843	42.32
285.058	85.33
285.274	15.7
285.489	42.32
285.704	114
285.919	9.56
286.134	75.09
286.349	30.04
286.564	58.71
286.779	79.19
286.995	52.56
287.21	-15.02
287.425	79.19
287.64	34.13
287.855	52.56
288.07	17.75
288.285	126.29
288.5	-6.83
288.715	34.13
288.93	-25.26
289.145	-15.02
289.36	62.8
289.575	17.75
289.79	13.65
290.004	-10.92
290.219	75.09
290.434	52.56
290.649	36.18
290.864	-2.73
291.079	58.71
291.294	56.66
291.509	46.42
291.724	58.71
291.938	-10.92
292.153	-6.83
292.368	34.13
292.583	-27.31
292.798	83.28
293.012	91.48
293.227	40.28
293.442	52.56
293.657	83.28
293.871	32.08
294.086	52.56
294.301	148.82
294.516	-8.87
294.73	30.04
294.945	21.85
295.16	38.23
295.374	42.32
295.589	62.8
295.804	27.99
296.018	87.38
296.233	87.38
296.447	34.13
296.662	42.32
296.877	71
297.091	77.14
297.306	19.8
297.52	99.67
297.735	36.18
297.949	75.09
298.164	95.57
298.378	50.52
298.593	5.46
298.807	58.71
299.022	13.65
299.236	105.81
299.451	52.56
299.665	66.9
299.88	77.14
300.094	54.61
300.309	-23.21
300.523	-2.73
300.737	66.9
300.952	15.7
301.166	54.61
301.381	17.75
301.595	36.18
301.809	-43.69
302.024	42.32
302.238	83.28
302.452	-15.02
302.667	27.99
302.881	181.59
303.095	9.56
303.309	64.85
303.524	21.85
303.738	-47.79
303.952	1.37
304.166	30.04
304.381	5.46
304.595	87.38
304.809	-15.02
305.023	97.62
305.237	13.65
305.452	68.95
305.666	11.61
305.88	83.28
306.094	68.95
306.308	27.99
306.522	5.46
306.736	64.85
306.95	34.13
307.164	27.99
307.379	42.32
307.593	109.91
307.807	48.47
308.021	124.24
308.235	54.61
308.449	-17.07
308.663	66.9
308.877	132.44
309.091	46.42
309.305	21.85
309.519	-49.83
309.733	93.52
309.947	54.61
310.161	36.18
310.374	60.76
310.588	85.33
310.802	60.76
311.016	40.28
311.23	17.75
311.444	21.85
311.658	83.28
311.872	97.62
312.085	87.38
312.299	99.67
312.513	95.57
312.727	54.61
312.941	21.85
313.154	19.8
313.368	34.13
313.582	93.52
313.796	23.89
314.009	58.71
314.223	44.37
314.437	93.52
314.651	46.42
314.864	34.13
315.078	85.33
315.292	-21.16
315.505	46.42
315.719	5.46
315.933	9.56
316.146	1.37
316.36	17.75
316.573	62.8
316.787	87.38
317.001	9.56
317.214	34.13
317.428	42.32
317.641	1.37
317.855	44.37
318.068	17.75
318.282	79.19
318.495	157.01
318.709	5.46
318.922	-8.87
319.136	77.14
319.349	114
319.563	58.71
319.776	54.61
319.99	-2.73
320.203	107.86
320.417	81.24
320.63	21.85
320.843	36.18
321.057	56.66
321.27	107.86
321.483	95.57
321.697	116.05
321.91	-15.02
322.124	38.23
322.337	-12.97
322.55	-21.16
322.763	44.37
322.977	46.42
323.19	58.71
323.403	40.28
323.617	44.37
323.83	111.96
324.043	-27.31
324.256	40.28
324.469	-21.16
324.683	77.14
324.896	34.13
325.109	75.09
325.322	19.8
325.535	87.38
325.748	19.8
325.962	32.08
326.175	9.56
326.388	50.52
326.601	60.76
326.814	50.52
327.027	85.33
327.24	34.13
327.453	-72.36
327.666	42.32
327.879	66.9
328.092	-27.31
328.305	101.72
328.518	19.8
328.731	15.7
328.944	85.33
329.157	54.61
329.37	44.37
329.583	124.24
329.796	38.23
330.009	25.94
330.222	109.91
330.435	-23.21
330.648	58.71
330.861	148.82
331.073	140.63
331.286	27.99
331.499	25.94
331.712	15.7
331.925	73.04
332.138	50.52
332.35	128.34
332.563	-15.02
332.776	13.65
332.989	5.46
333.202	62.8
333.414	1.37
333.627	58.71
333.84	52.56
334.053	1.37
334.265	21.85
334.478	5.46
334.691	34.13
334.903	9.56
335.116	27.99
335.329	9.56
335.541	-6.83
335.754	71
335.966	116.05
336.179	66.9
336.392	-62.12
336.604	-29.35
336.817	-8.87
337.029	34.13
337.242	68.95
337.454	-33.45
337.667	50.52
337.88	124.24
338.092	52.56
338.305	52.56
338.517	1.37
338.729	91.48
338.942	103.76
339.154	19.8
339.367	17.75
339.579	130.39
339.792	30.04
340.004	111.96
340.217	34.13
340.429	9.56
340.641	17.75
340.854	52.56
341.066	54.61
341.278	101.72
341.491	152.92
341.703	91.48
341.915	-27.31
342.128	83.28
342.34	46.42
342.552	5.46
342.764	54.61
342.977	68.95
343.189	107.86
343.401	38.23
343.613	101.72
343.826	30.04
344.038	91.48
344.25	148.82
344.462	52.56
344.674	87.38
344.886	52.56
345.099	60.76
345.311	17.75
345.523	50.52
345.735	-86.7
345.947	89.43
346.159	27.99
346.371	42.32
346.583	58.71
346.795	62.8
347.007	1.37
347.219	58.71
347.431	25.94
347.643	-6.83
347.855	-12.97
348.067	116.05
348.279	9.56
348.491	42.32
348.703	101.72
348.915	109.91
349.127	58.71
349.339	3.41
349.551	9.56
349.763	136.53
349.975	-2.73
350.187	17.75
350.399	15.7
350.61	77.14
350.822	30.04
351.034	99.67
351.246	66.9
351.458	152.92
351.669	38.23
351.881	56.66
352.093	21.85
352.305	44.37
352.517	27.99
352.728	21.85
352.94	-15.02
353.152	120.15
353.363	9.56
353.575	107.86
353.787	87.38
353.999	34.13
354.21	79.19
354.422	7.51
354.633	36.18
354.845	81.24
355.057	101.72
355.268	25.94
355.48	-10.92
355.692	38.23
355.903	101.72
356.115	36.18
356.326	1.37
356.538	128.34
356.749	-15.02
356.961	107.86
357.172	-37.55
357.384	13.65
357.595	118.1
357.807	52.56
358.018	56.66
358.23	3.41
358.441	165.2
358.653	126.29
358.864	19.8
359.075	-29.35
359.287	109.91
359.498	99.67
359.709	60.76
359.921	38.23
360.132	42.32
360.344	34.13
360.555	44.37
360.766	42.32
360.977	50.52
361.189	46.42
361.4	34.13
361.611	75.09
361.823	36.18
362.034	83.28
362.245	-12.97
362.456	1.37
362.667	58.71
362.879	83.28
363.09	34.13
363.301	13.65
363.512	154.96
363.723	-23.21
363.935	23.89
364.146	144.72
364.357	48.47
364.568	85.33
364.779	-27.31
364.99	42.32
365.201	21.85
365.412	50.52
365.623	56.66
365.834	42.32
366.045	25.94
366.256	83.28
366.467	66.9
366.678	30.04
366.889	85.33
367.1	66.9
367.311	68.95
367.522	38.23
367.733	85.33
367.944	97.62
368.155	3.41
368.366	60.76
368.577	109.91
368.788	66.9
368.999	19.8
369.209	36.18
369.42	148.82
369.631	95.57
369.842	75.09
370.053	-15.02
370.264	126.29
370.474	25.94
370.685	99.67
370.896	-29.35
371.107	99.67
371.317	93.52
371.528	-15.02
371.739	103.76
371.95	64.85
372.16	36.18
372.371	-76.46
372.582	154.96
372.792	91.48
373.003	148.82
373.214	64.85
373.424	107.86
373.635	42.32
373.846	64.85
374.056	27.99
374.267	107.86
374.477	40.28
374.688	21.85
374.898	30.04
375.109	-4.78
375.319	-4.78
375.53	124.24
375.74	62.8
375.951	50.52
376.161	95.57
376.372	99.67
376.582	25.94
376.793	66.9
377.003	25.94
377.214	87.38
377.424	5.46
377.635	46.42
377.845	52.56
378.055	144.72
378.266	42.32
378.476	52.56
378.686	81.24
378.897	95.57
379.107	50.52
379.317	79.19
379.528	-21.16
379.738	1.37
379.948	11.61
380.158	87.38
380.369	109.91
380.579	107.86
380.789	54.61
380.999	42.32
381.21	13.65
381.42	99.67
381.63	50.52
381.84	105.81
382.05	75.09
382.261	1.37
382.471	60.76
382.681	-12.97
382.891	23.89
383.101	50.52
383.311	54.61
383.521	9.56
383.731	91.48
383.941	87.38
384.151	34.13
384.361	-31.4
384.571	66.9
384.781	93.52
384.991	75.09
385.201	40.28
385.411	75.09
385.621	54.61
385.831	50.52
386.041	-27.31
386.251	75.09
386.461	79.19
386.671	134.48
386.881	13.65
387.091	38.23
387.301	81.24
387.511	21.85
387.72	95.57
387.93	103.76
388.14	54.61
388.35	-17.07
388.56	95.57
388.769	189.78
388.979	83.28
389.189	64.85
389.399	71
389.609	124.24
389.818	167.25
390.028	54.61
390.238	19.8
390.447	54.61
390.657	109.91
390.867	25.94
391.076	58.71
391.286	68.95
391.496	120.15
391.705	3.41
391.915	71
392.125	71
392.334	66.9
392.544	134.48
392.753	128.34
392.963	42.32
393.172	120.15
393.382	30.04
393.591	95.57
393.801	93.52
394.01	148.82
394.22	44.37
394.429	75.09
394.639	71
394.848	150.87
395.058	144.72
395.267	93.52
395.477	122.2
395.686	93.52
395.895	93.52
396.105	230.74
396.314	77.14
396.524	93.52
396.733	159.06
396.942	161.11
397.152	71
397.361	202.07
397.57	134.48
397.78	87.38
397.989	128.34
398.198	210.26
398.407	77.14
398.617	118.1
398.826	122.2
399.035	114
399.244	161.11
399.453	19.8
399.663	157.01
399.872	116.05
400.081	130.39
400.29	159.06
400.499	140.63
400.708	159.06
400.917	128.34
401.127	132.44
401.336	157.01
401.545	179.54
401.754	195.92
401.963	171.35
402.172	128.34
402.381	83.28
402.59	169.3
402.799	89.43
403.008	167.25
403.217	152.92
403.426	93.52
403.635	116.05
403.844	148.82
404.053	95.57
404.262	71
404.471	157.01
404.68	132.44
404.888	200.02
405.097	189.78
405.306	185.68
405.515	181.59
405.724	185.68
405.933	212.31
406.142	218.45
406.35	165.2
406.559	189.78
406.768	200.02
406.977	263.51
407.185	304.46
407.394	263.51
407.603	255.31
407.812	304.46
408.02	263.51
408.229	275.79
408.438	312.66
408.646	320.85
408.855	271.7
409.064	308.56
409.272	269.65
409.481	308.56
409.69	347.47
409.898	390.48
410.107	394.58
410.315	345.42
410.524	341.33
410.733	415.06
410.941	468.3
411.15	447.82
411.358	484.69
411.567	531.79
411.775	470.35
411.984	574.8
412.192	576.84
412.401	546.13
412.609	658.76
412.818	601.42
413.026	578.89
413.234	597.32
413.443	642.38
413.651	695.63
413.86	689.48
414.068	757.07
414.276	724.3
414.485	681.29
414.693	841.03
414.901	853.32
415.11	828.74
415.318	779.59
415.526	904.52
415.734	886.09
415.943	955.72
416.151	1056.07
416.359	1027.4
416.567	1084.74
416.776	1135.94
416.984	1269.06
417.192	1228.1
417.4	1207.62
417.608	1312.07
417.817	1254.72
418.025	1371.46
418.233	1451.33
418.441	1400.13
418.649	1434.94
418.857	1582.4
419.065	1647.93
419.273	1576.25
419.481	1690.94
419.689	1770.81
419.897	1811.77
420.105	1869.11
420.313	1944.89
420.521	1908.02
420.729	2039.09
420.937	2069.81
421.145	2164.02
421.353	2229.56
421.561	2395.44
421.769	2436.4
421.977	2604.33
422.185	2571.57
422.393	2622.77
422.601	2755.88
422.809	2862.38
423.017	2845.99
423.224	2901.29
423.432	3069.22
423.64	3081.51
423.848	3360.03
424.056	3282.21
424.263	3573.02
424.471	3667.23
424.679	3470.62
424.887	3771.68
425.094	3970.33
425.302	3843.35
425.51	3974.42
425.718	4191.51
425.925	4195.61
426.133	4312.34
426.341	4637.97
426.548	4717.84
426.756	4738.32
426.964	4908.3
427.171	5170.44
427.379	5123.34
427.586	5352.71
427.794	5596.42
428.001	5844.22
428.209	5997.82
428.417	5786.88
428.624	6360.31
428.832	6354.16
429.039	6202.61
429.247	6300.92
429.454	6763.76
429.662	7359.72
429.869	6831.34
430.076	7431.4
430.284	7259.37
430.491	7390.44
430.699	7869.66
430.906	7759.07
431.114	8090.84
431.321	8183
431.528	8332.5
431.736	8613.07
431.943	9288.9
432.15	9186.51
432.358	9172.17
432.565	9684.16
432.772	9667.78
432.979	10185.91
433.187	10577.08
433.394	10202.3
433.601	11173.03
433.808	10970.29
434.016	11093.16
434.223	11551.91
434.43	12207.26
434.637	11865.25
434.844	12651.67
435.052	12758.16
435.259	12782.74
435.466	12924.05
435.673	12741.78
435.88	13663.36
436.087	14333.05
436.294	14240.89
436.501	14103.68
436.708	14218.36
436.915	14785.65
437.122	15529.06
437.329	15129.71
437.537	15983.71
437.743	15969.38
437.95	15989.86
438.157	16843.86
438.364	17187.92
438.571	17269.84
438.778	17396.81
438.985	19121.2
439.192	18248.77
439.399	18885.69
439.606	18381.88
439.813	19635.24
440.02	20681.75
440.227	20282.4
440.433	19840.04
440.64	20747.29
440.847	20640.79
441.054	20911.13
441.261	22422.53
441.467	21832.71
441.674	22825.98
441.881	23340.02
442.088	23301.11
442.294	23241.71
442.501	23878.63
442.708	24136.68
442.914	25078.74
443.121	26338.24
443.328	25238.48
443.534	27550.64
443.741	26565.57
443.948	25846.73
444.154	27837.36
444.361	27935.66
444.568	27906.99
444.774	27810.73
444.981	28136.36
445.187	29307.8
445.394	30495.62
445.6	29901.71
445.807	32787.3
446.013	31202.17
446.22	31869.81
446.426	33168.22
446.633	33297.24
446.839	34466.63
447.046	33043.29
447.252	35140.41
447.459	34892.61
447.665	35121.98
447.871	36268.84
448.078	37667.61
448.284	36240.17
448.491	37333.79
448.697	38503.18
448.903	39305.98
449.11	39365.37
449.316	38662.92
449.522	39473.92
449.728	40712.94
449.935	40682.22
450.141	40626.92
450.347	41505.5
450.553	40352.49
450.76	40985.32
450.966	42244.82
451.172	42179.28
451.378	42961.61
451.584	42052.31
451.791	42900.17
451.997	42928.84
452.203	43442.88
452.409	43358.91
452.615	43012.81
452.821	41605.85
453.027	41251.55
453.233	43348.67
453.44	41919.19
453.646	42117.84
453.852	42500.81
454.058	43152.07
454.264	42228.43
454.47	42480.33
454.676	41351.9
454.882	42769.1
455.088	39074.56
455.294	39901.94
455.5	40809.19
455.705	40801
455.911	39189.25
456.117	38499.08
456.323	38058.77
456.529	36053.81
456.735	37759.77
456.941	36340.52
457.147	36084.53
457.352	34988.86
457.558	34304.84
457.764	34642.76
457.97	33848.14
458.176	33469.27
458.381	33172.32
458.587	31654.77
458.793	31628.15
458.999	30176.14
459.204	31914.86
459.41	30942.08
459.616	29217.69
459.821	29234.07
460.027	28992.41
460.233	28523.43
460.438	27245.49
460.644	27607.98
460.85	26168.26
461.055	25668.56
461.261	25545.68
461.466	23757.8
461.672	23024.63
461.878	24505.31
462.083	23069.69
462.289	22813.69
462.494	22592.51
462.7	21486.61
462.905	20849.69
463.111	21517.32
463.316	21427.21
463.522	21093.4
463.727	21314.58
463.932	21023.76
464.138	20861.97
464.343	21042.2
464.549	20587.55
464.754	21079.06
464.959	20661.27
465.165	20593.69
465.37	19774.5
465.575	19416.11
465.781	20243.49
465.986	20112.42
466.191	19287.09
466.397	18943.03
466.602	17982.53
466.807	18637.88
467.012	18736.18
467.218	18613.31
467.423	18330.69
467.628	18537.53
467.833	19129.39
468.038	18547.77
468.244	17929.28
468.449	18846.77
468.654	18054.21
468.859	17679.43
469.064	17835.08
469.269	17062.99
469.474	17079.38
469.679	17835.08
469.885	16888.92
470.09	17267.79
470.295	17026.13
470.5	16657.5
470.705	16921.68
470.91	16444.51
471.115	16514.14
471.32	16684.12
471.525	16393.31
471.73	16159.84
471.935	15860.84
472.139	15369.32
472.344	15563.88
472.549	15475.82
472.754	15371.37
472.959	15053.94
473.164	14898.29
473.369	14421.11
473.574	14959.73
473.778	14931.06
473.983	14761.08
474.188	14527.61
474.393	13902.98
474.598	13902.98
474.802	14009.47
475.007	13743.24
475.212	13827.2
475.417	13358.22
475.621	13384.84
475.826	13378.7
476.031	12997.77
476.235	12848.27
476.44	13169.8
476.645	12620.95
476.849	12833.94
477.054	12625.04
477.259	12424.34
477.463	12596.37
477.668	11971.74
477.872	12500.12
478.077	12084.38
478.282	11678.88
478.486	11838.62
478.691	11650.21
478.895	11758.75
479.1	11574.44
479.304	11488.42
479.509	11242.67
479.713	11650.21
479.918	11205.8
480.122	11064.49
480.326	11089.07
480.531	11138.22
480.735	11084.97
480.94	10751.15
481.144	11281.58
481.348	10792.11
481.553	10949.81
481.757	10652.85
481.961	10738.87
482.166	10898.61
482.37	10693.81
482.574	10669.23
482.778	10589.36
482.983	10835.12
483.187	10648.75
483.391	10808.5
483.595	10634.42
483.8	10603.7
484.004	10667.19
484.208	10896.56
484.412	10642.61
484.616	10718.39
484.821	10736.82
485.025	10333.37
485.229	10716.34
485.433	10566.84
485.637	10235.07
485.841	10153.15
486.045	10491.06
486.249	10339.51
486.453	10507.44
486.657	10708.15
486.861	10466.49
487.065	10370.23
487.269	10466.49
487.473	10138.81
487.677	10745.01
487.881	10482.87
488.085	10513.59
488.289	10628.28
488.493	10470.58
488.697	10646.71
488.901	10554.55
489.105	10495.16
489.309	10456.25
489.512	10605.75
489.716	10722.48
489.92	10671.28
490.124	10591.41
490.328	10738.87
490.531	10769.58
490.735	10841.26
490.939	10826.93
491.143	10761.39
491.346	10847.41
491.55	10937.52
491.754	11076.78
491.958	11070.64
492.161	11039.92
492.365	11013.29
492.569	10810.54
492.772	10880.18
492.976	10955.95
493.18	10966.19
493.383	11222.19
493.587	11332.78
493.79	11330.73
493.994	11158.7
494.197	11312.3
494.401	11390.12
494.605	11322.54
494.808	11357.35
495.012	11590.82
495.215	11771.04
495.419	11797.67
495.622	11756.71
495.825	11943.07
496.029	11994.27
496.232	12254.36
496.436	12049.57
496.639	12453.02
496.843	12350.62
497.046	12534.93
497.249	12610.71
497.453	12856.47
497.656	12715.16
497.859	12686.48
498.063	12969.1
498.266	13276.3
498.469	13116.56
498.673	13515.91
498.876	13227.15
499.079	13702.28
499.282	13677.7
499.485	13956.22
499.689	13706.37
499.892	14111.87
500.095	14144.64
500.298	14523.51
500.501	14355.58
500.705	14754.93
500.908	14691.45
501.111	14955.63
501.314	15193.2
501.517	15090.8
501.72	15608.94
501.923	15529.06
502.126	15756.39
502.329	16131.17
502.532	16163.93
502.735	16096.35
502.938	16243.81
503.141	16718.93
503.344	16561.24
503.547	16743.51
503.75	16884.82
503.953	17210.45
504.156	17224.78
504.359	17597.51
504.562	17448.01
504.765	18033.73
504.968	18123.84
505.17	18381.88
505.373	18584.63
505.576	18431.04
505.779	18625.59
505.982	18572.35
506.185	19051.57
506.387	19076.15
506.59	19567.66
506.793	19563.56
506.996	19600.43
507.198	20210.72
507.401	20180
507.604	20425.76
507.807	21040.15
508.009	20735
508.212	21105.68
508.415	21257.23
508.617	21472.27
508.82	21904.39
509.022	21595.15
509.225	22328.32
509.428	22248.45
509.63	22596.6
509.833	22506.49
510.035	23385.07
510.238	22901.75
510.44	23290.87
510.643	23720.94
510.845	23702.51
511.048	23495.66
511.25	24130.53
511.453	24189.92
511.655	25146.33
511.858	24663
512.06	24859.61
512.262	25289.68
512.465	25039.83
512.667	25697.23
512.87	25850.83
513.072	25865.16
513.274	26581.95
513.477	26751.93
513.679	26778.56
513.881	27327.41
514.084	27329.46
514.286	27607.98
514.488	27636.66
514.69	28316.58
514.893	28253.09
515.095	28261.29
515.297	28617.63
515.499	28574.63
515.701	28939.16
515.904	29508.5
516.106	29649.81
516.308	29686.67
516.51	30233.48
516.712	30126.99
516.914	30446.47
517.116	31112.06
517.318	30845.82
517.52	31142.78
517.722	31329.14
517.925	31742.83
518.127	32150.38
518.329	32193.39
518.531	32174.95
518.733	32586.6
518.935	32863.07
519.136	32602.98
519.338	33514.33
519.54	33772.37
519.742	33649.49
519.944	33858.38
520.146	34554.69
520.348	34515.78
520.55	34517.83
520.752	34673.48
520.954	35003.2
521.155	34931.52
521.357	35347.26
521.559	35689.27
521.761	35875.63
521.963	35969.84
522.164	36293.42
522.366	36203.31
522.568	36420.39
522.77	36426.54
522.971	37264.16
523.173	36913.95
523.375	37237.53
523.576	36842.28
523.778	37116.7
523.98	37221.15
524.181	37403.42
524.383	37808.92
524.584	37788.44
524.786	37876.5
524.988	37817.11
525.189	38298.38
525.391	38292.24
525.592	38490.89
525.794	38501.13
525.995	38288.14
526.197	38818.57
526.398	38845.19
526.6	38978.31
526.801	38716.17
527.003	38816.52
527.204	38685.45
527.406	39346.94
527.607	39166.72
527.808	39744.25
528.01	38873.86
528.211	39029.51
528.412	39752.44
528.614	39269.12
528.815	39396.09
529.016	40073.97
529.218	39111.42
529.419	39705.34
529.62	39453.44
529.822	39385.85
530.023	39465.72
530.224	39500.54
530.425	39688.95
530.626	38955.78
530.828	39058.18
531.029	39899.89
531.23	39473.92
531.431	39246.59
531.632	39346.94
531.833	39740.15
532.035	39369.47
532.236	39369.47
532.437	39539.45
532.638	38896.39
532.839	39596.79
533.04	39465.72
533.241	39449.34
533.442	39711.48
533.643	39138.05
533.844	39185.15
534.045	38884.1
534.246	38992.64
534.447	39416.57
534.648	38845.19
534.849	39197.44
535.05	39062.27
535.251	38904.58
535.451	38845.19
535.652	39230.21
535.853	38830.85
536.054	38994.69
536.255	38916.87
536.456	38755.08
536.657	39459.58
536.857	38755.08
537.058	38482.7
537.259	38650.63
537.46	38753.03
537.66	38531.85
537.861	38673.16
538.062	38908.68
538.263	38822.66
538.463	38462.22
538.664	38626.06
538.865	38546.19
539.065	38798.09
539.266	38071.06
539.466	38558.47
539.667	38329.1
539.868	38736.65
540.068	38157.07
540.269	38435.59
540.469	38607.62
540.67	38136.59
540.87	38198.03
541.071	38091.54
541.271	38140.69
541.472	38069.01
541.672	37729.05
541.873	37843.73
542.073	37542.68
542.274	38234.89
542.474	38077.2
542.675	38026
542.875	38191.89
543.075	37804.82
543.276	37860.12
543.476	37833.49
543.676	37542.68
543.877	38064.91
544.077	37817.11
544.277	37860.12
544.478	37808.92
544.678	38128.4
544.878	37747.48
545.078	38066.96
545.279	37524.25
545.479	37583.64
545.679	37780.24
545.879	37790.48
546.079	37868.31
546.28	37667.61
546.48	37405.47
546.68	37958.42
546.88	37384.99
547.08	37813.01
547.28	37546.78
547.48	37419.8
547.68	37790.48
547.88	37649.17
548.081	37520.15
548.281	37565.21
548.481	37591.83
548.681	37886.74
548.881	37643.03
549.081	37567.26
549.28	37544.73
549.48	37722.9
549.68	37520.15
549.88	38046.48
550.08	37759.77
550.28	37679.89
550.48	37524.25
550.68	37907.22
550.88	37507.86
551.08	37714.71
551.279	37546.78
551.479	37489.43
551.679	37739.29
551.879	37585.69
552.079	37688.09
552.278	37630.74
552.478	37647.13
552.678	37503.77
552.878	37972.75
553.077	37690.13
553.277	37937.94
553.477	37964.56
553.676	37088.03
553.876	37610.26
554.076	37649.17
554.275	37286.68
554.475	37374.75
554.674	37677.85
554.874	37333.79
555.074	37552.92
555.273	37694.23
555.473	38071.06
555.672	37511.96
555.872	37948.18
556.071	37571.35
556.271	37976.85
556.47	37378.84
556.67	37436.19
556.869	37573.4
557.068	37921.55
557.268	37370.65
557.467	37493.53
557.667	37409.56
557.866	37800.72
558.065	37679.89
558.265	37690.13
558.464	37589.78
558.663	37542.68
558.863	37180.19
559.062	38159.12
559.261	37210.91
559.461	37980.95
559.66	37122.85
559.859	37591.83
560.058	37208.86
560.258	37845.78
560.457	37264.16
560.656	37423.9
560.855	37393.18
561.054	37550.87
561.253	37028.64
561.453	37813.01
561.652	37876.5
561.851	37651.22
562.05	37223.2
562.249	37387.03
562.448	37892.88
562.647	37423.9
562.846	37032.74
563.045	37389.08
563.244	36739.88
563.443	37751.57
563.642	37028.64
563.841	37225.25
564.04	37313.31
564.239	37505.82
564.438	36842.28
564.637	37427.99
564.836	37178.14
565.035	36455.21
565.234	37122.85
565.432	37026.59
565.631	36823.84
565.83	37042.98
566.029	36641.57
566.228	36901.67
566.427	36629.29
566.625	36377.39
566.824	36584.23
567.023	36735.78
567.222	36369.19
567.42	37020.45
567.619	36825.89
567.818	36338.47
568.016	36234.03
568.215	36580.14
568.414	36168.49
568.612	36789.03
568.811	36031.28
569.01	36223.79
569.208	35758.9
569.407	36410.15
569.605	35679.03
569.804	36283.18
570.002	35889.97
570.201	36201.26
570.4	35965.74
570.598	35781.43
570.797	35674.93
570.995	35806
571.193	35199.8
571.392	35476.28
571.59	35373.88
571.789	35273.53
571.987	35134.27
572.186	34900.8
572.384	34847.55
572.582	35248.96
572.781	35009.34
572.979	34534.21
573.177	34597.7
573.376	34872.13
573.574	34364.23
573.772	34978.62
573.971	34267.98
574.169	34519.88
574.367	34468.68
574.565	34397
574.763	34083.66
574.962	34270.03
575.16	33747.79
575.358	34366.28
575.556	33745.75
575.754	34530.12
575.952	33483.61
576.151	33661.78
576.349	33221.47
576.547	33399.64
576.745	33411.93
576.943	33497.94
577.141	33076.06
577.339	33641.3
577.537	33356.63
577.735	33543
577.933	32672.61
578.131	33151.84
578.329	32734.05
578.527	32543.59
578.725	33061.72
578.923	32754.53
579.121	32451.43
579.319	32537.44
579.516	32488.29
579.714	32414.57
579.912	32177
580.11	32568.16
580.308	32263.02
580.506	32234.35
580.704	31372.15
580.901	31753.07
581.099	32308.07
581.297	31685.49
581.495	31581.04
581.692	31953.77
581.89	31742.83
582.088	31841.14
582.285	31404.92
582.483	31755.12
582.681	31662.96
582.878	31355.77
583.076	31230.84
583.274	31026.04
583.471	31142.78
583.669	31241.08
583.866	30641.03
584.064	30989.18
584.262	30501.76
584.459	30892.93
584.657	30845.82
584.854	30806.91
585.052	30503.81
585.249	30585.73
585.447	30290.82
585.644	30083.98
585.841	30460.8
586.039	30385.03
586.236	30004.11
586.434	29567.89
586.631	30124.94
586.828	29645.71
587.026	29932.43
587.223	29830.03
587.42	29922.19
587.618	29502.36
587.815	29287.32
588.012	29561.75
588.21	29272.98
588.407	29735.82
588.604	29250.45
588.801	29023.13
588.999	29326.23
589.196	29201.3
589.393	29033.37
589.59	29086.62
589.787	29217.69
589.984	28822.43
590.182	28724.13
590.379	28887.96
590.576	28507.04
590.773	28693.41
590.97	28332.96
591.167	28621.73
591.364	28265.38
591.561	28375.97
591.758	28160.94
591.955	28187.56
592.152	28734.37
592.349	28038.06
592.546	28144.55
592.743	28306.34
592.94	27415.47
593.137	27792.3
593.334	27825.07
593.531	27554.74
593.727	27628.46
593.924	27575.22
594.121	27509.68
594.318	27632.56
594.515	27597.74
594.712	27745.2
594.908	27661.23
595.105	27345.84
595.302	26889.15
595.499	27374.52
595.696	27378.61
595.892	27110.33
596.089	27323.32
596.286	27472.82
596.482	27065.27
596.679	27270.07
596.876	27409.33
597.072	26696.64
597.269	26909.63
597.466	26717.12
597.662	26776.51
597.859	26915.77
598.055	26751.93
598.252	26561.47
598.448	26852.28
598.645	26723.26
598.841	26723.26
599.038	26891.19
599.234	26758.08
599.431	26667.97
599.627	26291.14
599.824	26831.8
600.02	26346.44
600.217	26577.86
600.413	26803.13
600.609	26319.81
600.806	26020.81
601.002	26661.82
601.198	26241.99
601.395	26037.19
601.591	26158.02
601.787	26534.85
601.984	26252.23
602.18	26495.94
602.376	26198.98
602.572	26291.14
602.769	26256.32
602.965	26348.48
603.161	26502.08
603.357	26172.36
603.553	26307.52
603.75	26254.28
603.946	26270.66
604.142	26330.05
604.338	26129.35
604.534	26575.81
604.73	26076.1
604.926	26018.76
605.122	26495.94
605.318	26307.52
605.514	26094.54
605.71	26223.56
605.906	26446.79
606.102	26188.74
606.298	26606.53
606.494	26317.76
606.69	26270.66
606.886	26637.25
607.082	26246.08
607.278	26436.55
607.474	26674.11
607.67	26741.69
607.866	26033.1
608.062	26684.35
608.257	26606.53
608.453	26686.4
608.649	26813.37
608.845	26323.91
609.041	26575.81
609.236	26420.16
609.432	26719.17
609.628	26534.85
609.824	26631.1
610.019	26760.12
610.215	26342.34
610.411	26618.82
610.606	26545.09
610.802	26829.76
610.998	26698.69
611.193	26915.77
611.389	27081.66
611.584	26534.85
611.78	26717.12
611.976	26678.21
612.171	26680.25
612.367	27288.5
612.562	26600.38
612.758	26553.28
612.953	26629.05
613.149	27026.36
613.344	26762.17
613.539	27151.29
613.735	27024.31
613.93	27587.5
614.126	26919.87
614.321	27370.42
614.517	27167.67
614.712	27335.6
614.907	27022.26
615.103	27143.1
615.298	26823.61
615.493	27433.91
615.688	26985.4
615.884	27356.08
616.079	26753.98
616.274	27202.49
616.47	26792.89
616.665	27222.97
616.86	27061.18
617.055	27040.7
617.25	26860.48
617.445	27126.71
617.641	26923.96
617.836	27280.31
618.031	26831.8
618.226	27005.88
618.421	26815.42
618.616	27175.86
618.811	26610.62
619.006	26860.48
619.201	26393.54
619.396	26862.52
619.591	26041.29
619.786	26649.53
619.981	26209.22
620.176	26579.9
620.371	26121.16
620.566	26037.19
620.761	26231.75
620.956	26158.02
621.151	25531.34
621.346	25740.24
621.541	25301.97
621.735	26069.96
621.93	25361.36
622.125	25627.6
622.32	25263.06
622.515	25449.42
622.709	25027.54
622.904	25015.26
623.099	25021.4
623.294	25244.63
623.488	24871.9
623.683	24572.89
623.878	24552.41
624.072	24536.03
624.267	24415.2
624.462	24355.81
624.656	24128.49
624.851	24310.75
625.046	24046.57
625.24	23913.45
625.435	23460.85
625.629	23385.07
625.824	23258.1
626.018	23374.83
626.213	22731.77
626.407	23227.38
626.602	22948.86
626.796	22871.03
626.991	22993.91
627.185	22520.83
627.38	22868.98
627.574	22447.1
627.768	22471.68
627.963	22246.4
628.157	21838.86
628.352	22375.42
628.546	22006.79
628.74	22051.84
628.935	22008.84
629.129	21740.55
629.323	21445.65
629.517	21543.95
629.712	21441.55
629.906	21296.14
630.1	20700.19
630.294	21093.4
630.489	20972.57
630.683	20974.61
630.877	20831.26
631.071	20595.74
631.265	20651.03
631.459	20415.52
631.653	20237.34
631.848	20251.68
632.042	20098.08
632.236	20153.38
632.43	20130.85
632.624	19973.16
632.818	19893.29
633.012	19514.41
633.206	19371.05
633.4	19625
633.594	19248.18
633.788	19264.56
633.982	19246.13
634.176	19457.07
634.369	19100.72
634.563	18916.4
634.757	18947.12
634.951	18973.75
635.145	18775.09
635.339	18676.79
635.533	18396.22
635.726	18580.54
635.92	18287.68
636.114	18129.98
636.308	17970.24
636.501	18191.42
636.695	17949.76
636.889	17564.75
637.083	17761.35
637.276	17599.56
637.47	17562.7
637.664	17593.42
637.857	17257.55
638.051	17364.04
638.244	16962.64
638.438	16976.98
638.632	16770.13
638.825	16704.6
639.019	16686.17
639.212	16677.97
639.406	16612.44
639.599	16421.98
639.793	16450.65
639.986	16170.08
640.18	16372.83
640.373	16184.41
640.567	16120.93
640.76	15977.57
640.954	15613.03
641.147	15789.16
641.34	15400.04
641.534	15672.42
641.727	15479.91
641.92	15559.78
642.114	15234.16
642.307	15340.65
642.5	15185.01
642.694	14941.3
642.887	14994.54
643.08	15168.62
643.273	14886
643.467	14636.15
643.66	14511.22
643.853	14419.07
644.046	14388.35
644.239	14529.66
644.432	14126.21
644.626	14034.05
644.819	14015.62
645.012	13978.75
645.205	14109.82
645.398	13812.87
645.591	13888.64
645.784	13653.12
645.977	13245.58
646.17	13362.31
646.363	13356.17
646.556	13239.44
646.749	13233.29
646.942	13337.74
647.135	12969.1
647.328	13110.41
647.521	12909.71
647.714	12823.7
647.907	12774.55
648.099	12840.08
648.292	12866.7
648.485	12706.96
648.678	12543.13
648.871	12356.76
649.064	12412.06
649.256	12448.92
649.449	12344.47
649.642	12293.27
649.835	12176.54
650.027	11916.45
650.22	11996.32
650.413	12006.56
650.605	11789.47
650.798	11832.48
650.991	11617.44
651.183	11572.39
651.376	11625.64
651.568	11367.59
651.761	11472.04
651.954	11467.94
652.146	11394.22
652.339	11412.65
652.531	11236.52
652.724	11203.75
652.916	11123.88
653.109	10955.95
653.301	11019.44
653.494	10958
653.686	10714.29
653.879	11080.88
654.071	10824.88
654.263	10611.89
654.456	10517.68
654.648	10702
654.84	10491.06
655.033	10564.79
655.225	10433.72
655.417	10239.16
655.61	10101.95
655.802	10302.65
655.994	10265.78
656.186	10374.33
656.379	10161.34
656.571	9989.31
656.763	9999.55
656.955	10048.7
657.148	9979.07
657.34	9827.52
657.532	9725.12
657.724	9536.71
657.916	9819.33
658.108	9481.41
658.3	9385.16
658.492	9581.76
658.684	9227.46
658.876	9204.94
659.068	9520.32
659.26	9405.64
659.452	9229.51
659.644	9268.42
659.836	8944.84
660.028	9049.29
660.22	8750.29
660.412	8867.02
660.604	8848.59
660.796	8856.78
660.988	8803.53
661.18	8709.33
661.372	8631.51
661.563	8645.84
661.755	8395.99
661.947	8608.98
662.139	8594.64
662.331	8420.56
662.522	8377.56
662.714	8484.05
662.906	8152.28
663.097	8291.54
663.289	8332.5
663.481	8381.65
663.673	8119.51
663.864	8137.95
664.056	7869.66
664.247	7890.14
664.439	7884
664.631	8185.05
664.822	7861.47
665.014	7931.1
665.205	7750.88
665.397	7814.37
665.588	7761.12
665.78	7636.19
665.971	7541.99
666.163	7691.49
666.354	7468.26
666.546	7556.32
666.737	7337.19
666.929	7261.41
667.12	7492.84
667.311	7337.19
667.503	7095.53
667.694	7197.93
667.885	7171.3
668.077	7193.83
668.268	7163.11
668.459	7273.7
668.651	7103.72
668.842	6929.64
669.033	6898.92
669.224	6837.48
669.416	7021.8
669.607	6835.44
669.798	6737.13
669.989	6853.87
670.18	6835.44
670.371	6737.13
670.563	6620.4
670.754	6876.4
670.945	6751.47
671.136	6661.36
671.327	6591.73
671.518	6415.6
671.709	6581.49
671.9	6700.27
672.091	6481.14
672.282	6354.16
672.473	6415.6
672.664	6522.1
672.855	6509.81
673.046	6237.43
673.237	6356.21
673.428	6317.3
673.619	6128.89
673.809	6157.56
674	6114.55
674.191	6276.34
674.382	6016.25
674.573	6089.98
674.764	6182.14
674.954	6089.98
675.145	6034.68
675.336	5922.04
675.527	6145.27
675.717	5879.04
675.908	6040.83
676.099	5926.14
676.289	5782.78
676.48	5950.71
676.671	5817.6
676.861	5973.24
677.052	5686.53
677.243	5680.38
677.433	5944.57
677.624	5780.73
677.814	5629.18
678.005	5772.54
678.195	5858.56
678.386	5569.79
678.576	5539.07
678.767	5557.5
678.957	5661.95
679.148	5600.51
679.338	5598.46
679.529	5588.22
679.719	5524.74
679.909	5580.03
680.1	5494.02
680.29	5397.76
680.481	5555.46
680.671	5539.07
680.861	5565.7
681.052	5524.74
681.242	5467.39
681.432	5510.4
681.622	5580.03
681.813	5281.03
682.003	5465.35
682.193	5350.66
682.383	5324.04
682.573	5324.04
682.764	5154.05
682.954	5457.15
683.144	5393.67
683.334	5264.65
683.524	5209.35
683.714	5301.51
683.904	5303.56
684.094	5268.74
684.284	5391.62
684.474	5270.79
684.664	5178.63
684.854	5219.59
685.044	5233.93
685.234	5301.51
685.424	5242.12
685.614	5211.4
685.804	5133.57
685.994	5182.73
686.184	5131.53
686.374	5055.75
686.564	5113.1
686.753	5072.14
686.943	5043.46
687.133	5088.52
687.323	4936.97
687.513	5082.38
687.702	4943.11
687.892	4949.26
688.082	5029.13
688.272	4910.35
688.461	5008.65
688.651	4846.86
688.841	4855.05
689.03	4885.77
689.22	4867.34
689.41	4883.72
689.599	4756.75
689.789	4742.41
689.979	4760.84
690.168	4773.13
690.358	4654.35
690.547	4611.34
690.737	4777.23
690.926	4871.44
691.116	4594.96
691.305	4773.13
691.495	4721.93
691.684	4711.69
691.874	4558.1
692.063	4785.42
692.252	4715.79
692.442	4650.25
692.631	4615.44
692.82	4556.05
693.01	4566.29
693.199	4719.89
693.388	4570.38
693.578	4554
693.767	4619.53
693.956	4470.03
694.146	4588.82
694.335	4584.72
694.524	4506.9
694.713	4525.33
694.902	4343.06
695.092	4535.57
695.281	4416.79
695.47	4480.27
695.659	4453.65
695.848	4455.7
696.037	4449.55
696.226	4353.3
696.415	4343.06
696.604	4465.94
696.793	4238.61
696.982	4255
697.171	4320.53
697.36	4351.25
697.549	4322.58
697.738	4275.48
697.927	4201.75
698.116	4308.24
698.305	4306.2
698.494	4306.2
698.683	4205.85
698.872	4279.57
699.061	4255
699.25	4205.85
699.438	4228.37
699.627	4275.48
699.816	4279.57
700.005	4259.09
700.193	4244.76
700.382	4369.68
700.571	4201.75
700.76	4224.28
700.948	4318.48
701.137	4097.3
701.326	4105.49
701.514	4216.09
701.703	4238.61
701.892	4113.69
702.08	4216.09
702.269	4060.44
702.457	4121.88
702.646	4107.54
702.834	3986.71
703.023	4023.58
703.212	4064.54
703.4	4066.58
703.589	3964.18
703.777	3974.42
703.965	4093.21
704.154	3943.71
704.342	3904.79
704.531	3960.09
704.719	3898.65
704.907	3974.42
705.096	3906.84
705.284	3978.52
705.472	3906.84
705.661	3882.27
705.849	3847.45
706.037	3915.03
706.226	4021.53
706.414	3743
706.602	3831.07
706.79	3826.97
706.979	3745.05
707.167	3777.82
707.355	3622.17
707.543	3839.26
707.731	3872.03
707.919	3872.03
708.107	3693.85
708.296	3769.63
708.484	3738.91
708.672	3695.9
708.86	3548.45
709.048	3605.79
709.236	3712.28
709.424	3560.74
709.612	3632.41
709.8	3550.5
709.988	3570.97
710.176	3683.61
710.364	3636.51
710.551	3593.5
710.739	3581.21
710.927	3487.01
711.115	3591.45
711.303	3648.8
711.491	3540.26
711.679	3532.06
711.866	3460.38
712.054	3540.26
712.242	3464.48
712.43	3507.49
712.617	3456.29
712.805	3400.99
712.993	3403.04
713.181	3362.08
713.368	3468.58
713.556	3349.79
713.744	3206.44
713.931	3388.71
714.119	3396.9
714.306	3394.85
714.494	3312.93
714.682	3349.79
714.869	3355.94
715.057	3366.18
715.244	3181.86
715.432	3271.97
715.619	3224.87
715.807	3280.16
715.994	3196.2
716.182	3231.01
716.369	3181.86
716.556	3214.63
716.744	3104.04
716.931	3185.96
717.119	3149.09
717.306	3095.85
717.493	3106.09
717.681	3118.37
717.868	3089.7
718.055	3165.48
718.242	3050.79
718.43	3009.83
718.617	3116.33
718.804	2960.68
718.991	2993.45
719.179	3013.93
719.366	3052.84
719.553	2944.3
719.74	2936.1
719.927	2837.8
720.114	2958.63
720.301	2895.15
720.488	2913.58
720.676	2866.47
720.863	3024.17
721.05	2960.68
721.237	2819.37
721.424	2913.58
721.611	2897.19
721.798	2856.23
721.985	2938.15
722.172	2827.56
722.358	2780.46
722.545	2831.66
722.732	2788.65
722.919	2886.95
723.106	2714.92
723.293	2837.8
723.48	2835.75
723.667	2821.42
723.853	2811.18
724.04	2802.99
724.227	2731.31
724.414	2733.36
724.6	2751.79
724.787	2655.53
724.974	2704.68
725.161	2712.88
725.347	2528.56
725.534	2802.99
725.72	2690.35
725.907	2737.45
726.094	2561.33
726.28	2614.57
726.467	2655.53
726.653	2630.96
726.84	2528.56
727.027	2708.78
727.213	2575.66
727.4	2616.62
727.586	2526.51
727.773	2444.59
727.959	2575.66
728.145	2417.97
728.332	2520.37
728.518	2526.51
728.705	2610.48
728.891	2319.67
729.077	2479.41
729.264	2405.68
729.45	2471.22
729.636	2532.65
729.823	2524.46
730.009	2428.21
730.195	2395.44
730.382	2409.78
730.568	2413.87
730.754	2346.29
730.94	2485.55
731.126	2417.97
731.313	2467.12
731.499	2311.47
731.685	2458.93
731.871	2409.78
732.057	2372.91
732.243	2299.19
732.429	2329.91
732.615	2467.12
732.801	2438.45
732.987	2383.15
733.173	2352.43
733.359	2243.89
733.545	2213.17
733.731	2235.7
733.917	2188.6
734.103	2262.32
734.289	2241.84
734.475	2209.08
734.661	2370.87
734.847	2170.16
735.033	2278.71
735.219	2286.9
735.404	2262.32
735.59	2247.99
735.776	2147.64
735.962	2131.25
736.148	2247.99
736.333	2108.73
736.519	2207.03
736.705	2149.68
736.89	2188.6
737.076	2125.11
737.262	2114.87
737.447	2035
737.633	2213.17
737.819	2180.4
738.004	2139.44
738.19	2053.43
738.375	2049.33
738.561	2030.9
738.747	2047.29
738.932	2112.82
739.118	2098.49
739.303	2008.37
739.489	2094.39
739.674	1981.75
739.859	2039.09
740.045	1963.32
740.23	2037.05
740.416	1922.36
740.601	2024.76
740.786	1914.17
740.972	1877.3
741.157	1994.04
741.342	1901.88
741.528	1951.03
741.713	1934.65
741.898	1817.91
742.084	1912.12
742.269	1873.21
742.454	1889.59
742.639	1951.03
742.824	1828.15
743.01	1787.19
743.195	1889.59
743.38	1824.06
743.565	1830.2
743.75	1787.19
743.935	1791.29
744.12	1787.19
744.305	1744.19
744.49	1762.62
744.675	1735.99
744.86	1721.66
745.045	1725.75
745.23	1772.86
745.415	1807.67
745.6	1733.95
745.785	1738.04
745.97	1680.7
746.155	1740.09
746.34	1647.93
746.525	1705.28
746.71	1742.14
746.895	1647.93
747.079	1711.42
747.264	1584.45
747.449	1756.47
747.634	1709.37
747.819	1686.84
748.003	1537.34
748.188	1559.87
748.373	1586.49
748.557	1510.72
748.742	1602.88
748.927	1557.82
749.111	1496.38
749.296	1561.92
749.481	1527.1
749.665	1516.86
749.85	1508.67
750.034	1475.9
750.219	1445.18
750.404	1453.38
750.588	1459.52
750.773	1502.53
750.957	1469.76
751.141	1350.98
751.326	1402.18
751.51	1418.56
751.695	1406.27
751.879	1377.6
752.064	1508.67
752.248	1387.84
752.432	1385.79
752.617	1383.74
752.801	1369.41
752.985	1264.96
753.17	1346.88
753.354	1246.53
753.538	1238.34
753.722	1359.17
753.907	1254.72
754.091	1301.83
754.275	1213.76
754.459	1289.54
754.643	1191.24
754.828	1318.21
755.012	1281.35
755.196	1260.87
755.38	1230.15
755.564	1123.65
755.748	1213.76
755.932	1244.48
756.116	1142.08
756.3	1224
756.484	1031.49
756.668	1137.99
756.852	1148.23
757.036	1267.01
757.22	1070.4
757.404	1125.7
757.588	1103.17
757.772	1123.65
757.956	1076.55
758.14	1113.41
758.323	1125.7
758.507	990.53
758.691	1017.16
758.875	1025.35
759.059	1074.5
759.242	1045.83
759.426	1086.79
759.61	1043.78
759.794	1033.54
759.977	1115.46
760.161	1084.74
760.345	1029.45
760.528	1000.77
760.712	1027.4
760.895	1006.92
761.079	1045.83
761.263	945.48
761.446	1021.25
761.63	922.95
761.813	1043.78
761.997	931.14
762.18	927.05
762.364	904.52
762.547	943.43
762.731	900.42
762.914	986.44
763.098	935.24
763.281	916.81
763.464	910.66
763.648	836.94
763.831	861.51
764.015	863.56
764.198	935.24
764.381	959.81
764.564	990.53
764.748	875.85
764.931	951.62
765.114	804.17
765.297	902.47
765.481	820.55
765.664	896.33
765.847	918.86
766.03	910.66
766.213	863.56
766.397	830.79
766.58	877.9
766.763	896.33
766.946	861.51
767.129	759.11
767.312	834.89
767.495	877.9
767.678	902.47
767.861	886.09
768.044	826.7
768.227	800.07
768.41	918.86
768.593	775.5
768.776	795.98
768.959	767.31
769.142	863.56
769.324	863.56
769.507	798.03
769.69	787.79
769.873	808.27
770.056	853.32
770.239	861.51
770.421	918.86
770.604	836.94
770.787	765.26
770.97	783.69
771.152	838.98
771.335	755.02
771.518	808.27
771.7	861.51
771.883	773.45
772.066	699.72
772.248	724.3
772.431	836.94
772.613	783.69
772.796	724.3
772.978	812.36
773.161	783.69
773.343	755.02
773.526	771.4
773.708	699.72
773.891	697.67
774.073	757.07
774.256	732.49
774.438	763.21
774.621	699.72
774.803	722.25
774.985	562.51
775.168	771.4
775.35	677.19
775.532	724.3
775.715	669
775.897	738.63
776.079	681.29
776.261	675.15
776.444	664.91
776.626	660.81
776.808	759.11
776.99	609.61
777.173	570.7
777.355	673.1
777.537	642.38
777.719	660.81
777.901	593.23
778.083	666.96
778.265	632.14
778.447	681.29
778.629	539.98
778.811	623.95
778.993	623.95
779.175	570.7
779.357	640.33
779.539	558.41
779.721	671.05
779.903	542.03
780.085	599.37
780.267	558.41
780.449	619.85
780.631	617.8
780.812	595.28
780.994	564.56
781.176	585.04
781.358	550.22
781.54	494.93
781.721	589.13
781.903	613.71
782.085	453.97
782.267	519.5
782.448	525.65
782.63	560.46
782.812	542.03
782.993	683.34
783.175	484.69
783.357	404.82
783.538	566.6
783.72	499.02
783.901	501.07
784.083	445.77
784.264	441.68
784.446	460.11
784.627	474.45
784.809	441.68
784.99	486.73
785.172	517.45
785.353	470.35
785.535	423.25
785.716	402.77
785.897	431.44
786.079	443.73
786.26	470.35
786.441	451.92
786.623	443.73
786.804	427.34
786.985	384.34
787.167	410.96
787.348	478.54
787.529	402.77
787.71	496.97
787.891	378.19
788.073	384.34
788.254	384.34
788.435	359.76
788.616	396.62
788.797	398.67
788.978	394.58
789.159	447.82
789.34	372.05
789.522	353.62
789.703	374.1
789.884	458.06
790.065	408.91
790.246	488.78
790.427	279.89
790.607	337.23
790.788	423.25
790.969	298.32
791.15	398.67
791.331	230.74
791.512	351.57
791.693	304.46
791.874	402.77
792.054	365.9
792.235	419.15
792.416	302.42
792.597	259.41
792.778	290.13
792.958	304.46
793.139	320.85
793.32	353.62
793.5	308.56
793.681	423.25
793.862	310.61
794.042	312.66
794.223	365.9
794.404	290.13
794.584	361.81
794.765	273.75
794.945	277.84
795.126	273.75
795.306	247.12
795.487	314.7
795.667	294.22
795.848	347.47
796.028	234.83
796.209	306.51
796.389	226.64
796.57	214.35
796.75	306.51
796.93	339.28
797.111	232.79
797.291	257.36
797.471	308.56
797.652	300.37
797.832	204.11
798.012	281.94
798.192	292.18
798.373	238.93
798.553	253.27
798.733	275.79
798.913	120.15
799.093	230.74
799.274	179.54
799.454	345.42
799.634	271.7
799.814	281.94
799.994	298.32
800.174	292.18
800.354	316.75
800.534	208.21
800.714	222.55
800.894	167.25
801.074	271.7
801.254	281.94
801.434	324.94
801.614	261.46
801.794	232.79
801.974	830.79
802.154	165.2
802.334	197.97
802.514	103.76
802.693	263.51
802.873	206.16
803.053	271.7
803.233	189.78
803.413	193.87
803.592	267.6
803.772	214.35
803.952	286.03
804.131	195.92
804.311	220.5
804.491	230.74
804.67	232.79
804.85	107.86
805.03	146.77
805.209	290.13
805.389	220.5
805.568	206.16
805.748	269.65
805.928	173.39
806.107	132.44
806.287	245.07
806.466	193.87
806.646	185.68
806.825	232.79
807.004	191.83
807.184	202.07
807.363	187.73
807.543	71
807.722	200.02
807.901	279.89
808.081	175.44
808.26	99.67
808.439	140.63
808.619	234.83
808.798	206.16
808.977	204.11
809.156	146.77
809.336	177.49
809.515	173.39
809.694	111.96
809.873	111.96
810.052	148.82
810.231	181.59
810.411	189.78
810.59	154.96
810.769	173.39
810.948	183.63
811.127	91.48
811.306	214.35
811.485	167.25
811.664	173.39
811.843	128.34
812.022	144.72
812.201	140.63
812.38	109.91
812.559	144.72
812.737	124.24
812.916	130.39
813.095	171.35
813.274	187.73
813.453	183.63
813.632	107.86
813.811	189.78
813.989	34.13
814.168	148.82
814.347	81.24
814.526	234.83
814.704	161.11
814.883	169.3
815.062	173.39
815.24	220.5
815.419	136.53
815.598	150.87
815.776	64.85
815.955	157.01
816.133	1.37
816.312	116.05
816.49	87.38
816.669	175.44
816.847	120.15
817.026	183.63
817.204	126.29
817.383	157.01
817.561	103.76
817.74	138.58
817.918	109.91
818.097	116.05
818.275	83.28
818.453	181.59
818.632	118.1
818.81	107.86
818.988	122.2
819.167	75.09
819.345	101.72
819.523	107.86
819.701	116.05
819.879	181.59
820.058	60.76
820.236	167.25
820.414	99.67
820.592	171.35
820.77	79.19
820.948	66.9
821.127	91.48
821.305	77.14
821.483	116.05
821.661	132.44
821.839	83.28
822.017	58.71
822.195	85.33
822.373	85.33
822.551	109.91
822.729	157.01
822.907	66.9
823.085	85.33
823.262	185.68
823.44	165.2
823.618	103.76
823.796	111.96
823.974	46.42
824.152	128.34
824.329	77.14
824.507	107.86
824.685	81.24
824.863	58.71
825.04	128.34
825.218	95.57
825.396	52.56
825.574	66.9
825.751	68.95
825.929	116.05
826.107	34.13
826.284	46.42
826.462	124.24
826.639	71
826.817	30.04
826.994	128.34
827.172	46.42
827.349	107.86
827.527	40.28
827.704	75.09
827.882	120.15
828.059	62.8
828.237	107.86
828.414	62.8
828.591	17.75
828.769	62.8
828.946	138.58
829.124	75.09
829.301	163.15
829.478	97.62
829.655	23.89
829.833	34.13
830.01	36.18
830.187	77.14
830.364	34.13
830.542	85.33
830.719	91.48
830.896	111.96
831.073	38.23
831.25	79.19
831.427	71
831.604	42.32
831.782	-12.97
831.959	5.46
832.136	101.72
832.313	83.28
832.49	52.56
832.667	99.67
832.844	83.28
833.021	58.71
833.198	83.28
833.374	68.95
833.551	27.99
833.728	103.76
833.905	56.66
834.082	-64.17
834.259	157.01
834.436	56.66
834.612	68.95
834.789	105.81
834.966	50.52
835.143	93.52
835.319	44.37
835.496	116.05
835.673	75.09
835.85	50.52
836.026	91.48
836.203	118.1
836.38	81.24
836.556	58.71
836.733	44.37
836.909	189.78
837.086	34.13
837.262	-15.02
837.439	17.75
837.616	21.85
837.792	-6.83
837.968	99.67
838.145	-0.68
838.321	-6.83
838.498	42.32
838.674	161.11
838.851	60.76
839.027	107.86
839.203	118.1
839.38	60.76
839.556	-21.16
839.732	95.57
839.909	1.37
840.085	77.14
840.261	25.94
840.437	27.99
840.614	19.8
840.79	97.62
840.966	109.91
841.142	81.24
841.318	-21.16
841.494	30.04
841.671	68.95
841.847	68.95
842.023	75.09
842.199	101.72
842.375	44.37
842.551	21.85
842.727	5.46
842.903	83.28
843.079	9.56
843.255	54.61
843.431	44.37
843.607	85.33
843.783	-12.97
843.959	56.66
844.134	9.56
844.31	85.33
844.486	38.23
844.662	17.75
844.838	44.37
845.013	36.18
845.189	30.04
845.365	85.33
845.541	54.61
845.716	32.08
845.892	79.19
846.068	52.56
846.244	68.95
846.419	109.91
846.595	30.04
846.77	44.37
846.946	75.09
847.122	107.86
847.297	11.61
847.473	91.48
847.648	34.13
847.824	17.75
847.999	9.56
848.175	1.37
848.35	44.37
848.526	83.28
848.701	93.52
848.876	83.28
849.052	25.94
849.227	3.41
849.403	17.75
849.578	68.95
849.753	62.8
849.929	21.85
850.104	-29.35
850.279	71
850.454	97.62
850.63	-19.11
850.805	77.14
850.98	50.52
851.155	42.32
851.33	58.71
851.505	40.28
851.681	81.24
851.856	-33.45
852.031	79.19
852.206	89.43
852.381	25.94
852.556	17.75
852.731	66.9
852.906	58.71
853.081	23.89
853.256	138.58
853.431	58.71
853.606	-15.02
853.781	-12.97
853.956	-62.12
854.131	60.76
854.305	-8.87
854.48	42.32
854.655	21.85
854.83	-4.78
855.005	62.8
855.18	17.75
855.354	75.09
855.529	25.94
855.704	27.99
855.879	71
856.053	25.94
856.228	-15.02
856.403	-19.11
856.577	13.65
856.752	17.75
856.926	17.75
857.101	62.8
857.276	-55.98
857.45	5.46
857.625	30.04
857.799	52.56
857.974	32.08
858.148	-29.35
858.323	-23.21
858.497	13.65
858.672	-15.02
858.846	-103.08
859.02	75.09
859.195	1.37
859.369	93.52
859.543	-15.02
859.718	34.13
859.892	-15.02
860.066	25.94
860.241	-12.97
860.415	9.56
860.589	21.85
860.763	13.65
860.938	11.61
861.112	50.52
861.286	25.94
861.46	38.23
861.634	60.76
861.808	-10.92
861.982	-4.78
862.157	-53.93
862.331	81.24
862.505	-23.21
862.679	-6.83
862.853	42.32
863.027	-4.78
863.201	134.48
863.375	44.37
863.549	-8.87
863.722	36.18
863.896	169.3
864.07	3.41
864.244	-6.83
864.418	-21.16
864.592	97.62
864.766	36.18
864.939	52.56
865.113	13.65
865.287	93.52
865.461	30.04
865.634	15.7
865.808	44.37
865.982	-21.16
866.156	-53.93
866.329	19.8
866.503	44.37
866.676	85.33
866.85	-0.68
867.024	-10.92
867.197	21.85
867.371	27.99
867.544	27.99
867.718	-2.73
867.891	93.52
868.065	101.72
868.238	50.52
868.412	77.14
868.585	1.37
868.759	17.75
868.932	9.56
869.105	17.75
869.279	21.85
869.452	27.99
869.625	68.95
869.799	-15.02
869.972	62.8
870.145	-47.79
870.319	48.47
870.492	-31.4
870.665	38.23
870.838	-27.31
871.011	-53.93
871.185	-45.74
871.358	-31.4
871.531	-27.31
871.704	42.32
871.877	9.56
872.05	58.71
872.223	-55.98
872.396	-35.5
872.569	44.37
872.742	-29.35
872.915	-4.78
873.088	30.04
873.261	-25.26
873.434	58.71
873.607	11.61
873.78	19.8
873.953	34.13
874.126	-64.17
874.299	40.28
874.471	97.62
874.644	83.28
874.817	-35.5
874.99	66.9
875.163	-8.87
875.335	120.15
875.508	9.56
875.681	54.61
875.853	-47.79
876.026	38.23
876.199	68.95
876.371	9.56
876.544	42.32
876.717	36.18
876.889	-33.45
877.062	15.7
877.234	-45.74
877.407	-0.68
877.579	-45.74
877.752	-29.35
877.924	54.61
878.097	-12.97
878.269	58.71
878.442	1.37
878.614	1.37
878.786	62.8
878.959	42.32
879.131	3.41
879.303	-2.73
879.476	9.56
879.648	-0.68
879.82	9.56
879.993	50.52
880.165	-21.16
880.337	-64.17
880.509	9.56
880.681	-21.16
880.854	34.13
881.026	27.99
881.198	99.67
881.37	-23.21
881.542	17.75
881.714	-10.92
881.886	-88.75
882.058	-72.36
882.23	101.72
882.402	-10.92
882.574	38.23
882.746	-74.41
882.918	97.62
883.09	-39.59
883.262	83.28
883.434	-23.21
883.606	3.41
883.778	-78.51
883.95	-2.73
884.122	-23.21
884.293	1.37
884.465	-21.16
884.637	30.04
884.809	-45.74
884.98	19.8
885.152	-6.83
885.324	62.8
885.496	-12.97
885.667	-23.21
885.839	-47.79
886.011	66.9
886.182	52.56
886.354	-0.68
886.525	46.42
886.697	11.61
886.869	-27.31
887.04	-19.11
887.212	58.71
887.383	107.86
887.555	25.94
887.726	21.85
887.897	27.99
888.069	-70.31
888.24	44.37
888.412	50.52
888.583	13.65
888.754	-37.55
888.926	-39.59
889.097	-2.73
889.268	-72.36
889.44	-33.45
889.611	-21.16
889.782	-49.83
889.953	-27.31
890.125	50.52
890.296	13.65
890.467	-6.83
890.638	-10.92
890.809	1.37
890.98	-119.46
891.151	21.85
891.323	77.14
891.494	-53.93
891.665	-53.93
891.836	-43.69
892.007	-47.79
892.178	-23.21
892.349	17.75
892.52	42.32
892.691	-47.79
892.862	-62.12
893.032	-15.02
893.203	1.37
893.374	-68.27
893.545	91.48
893.716	-2.73
893.887	-31.4
894.057	21.85
894.228	-17.07
894.399	5.46
894.57	58.71
894.74	9.56
894.911	46.42
895.082	9.56
895.253	-84.65
895.423	-6.83
895.594	19.8
895.764	21.85
895.935	-31.4
896.106	-29.35
896.276	11.61
896.447	40.28
896.617	-70.31
896.788	66.9
896.958	-10.92
897.129	-15.02
897.299	-19.11
897.47	25.94
897.64	68.95
897.81	5.46
897.981	50.52
898.151	-21.16
898.322	9.56
898.492	50.52
898.662	21.85
898.832	30.04
899.003	38.23
899.173	27.99
899.343	25.94
899.513	-53.93
