Data from USB4F104151__169__14-32-23-066.txt Node

Date: Thu Mar 13 14:32:23 EDT 2025
User: louis
Spectrometer: USB4F10415
Trigger mode: 4
Integration Time (sec): 2.500000E-2
Scans to average: 1
Electric dark correction enabled: true
Nonlinearity correction enabled: false
Boxcar width: 0
XAxis mode: Wavelengths
Number of Pixels in Spectrum: 3648
>>>>>Begin Spectral Data<<<<<
178.204	-133.97
178.424	-133.97
178.644	-133.97
178.864	-162.64
179.084	-119.64
179.304	21.67
179.524	-31.57
179.744	46.25
179.964	79.02
180.184	-50
180.404	1.19
180.624	-56.15
180.844	5.29
181.064	9.39
181.283	-35.67
181.503	-4.95
181.723	15.53
181.943	-62.29
182.163	156.84
182.383	-2.9
182.602	23.72
182.822	95.4
183.042	81.07
183.262	56.49
183.482	38.06
183.701	40.11
183.921	-76.63
184.141	-11.09
184.361	68.78
184.58	21.67
184.8	72.87
185.02	-62.29
185.239	66.73
185.459	25.77
185.679	-13.14
185.898	-66.39
186.118	52.39
186.338	64.68
186.557	19.63
186.777	25.77
186.997	72.87
187.216	81.07
187.436	130.22
187.655	87.21
187.875	38.06
188.095	13.48
188.314	97.45
188.534	54.44
188.753	87.21
188.973	29.87
189.192	85.16
189.412	72.87
189.631	93.35
189.851	33.96
190.07	74.92
190.29	87.21
190.509	33.96
190.729	1.19
190.948	48.3
191.168	169.13
191.387	111.78
191.607	79.02
191.826	70.83
192.045	3.24
192.265	9.39
192.484	-27.48
192.704	23.72
192.923	-2.9
193.142	87.21
193.362	79.02
193.581	107.69
193.8	29.87
194.02	79.02
194.239	64.68
194.458	62.63
194.678	54.44
194.897	56.49
195.116	40.11
195.335	13.48
195.555	111.78
195.774	38.06
195.993	46.25
196.212	42.15
196.432	31.91
196.651	42.15
196.87	-0.85
197.089	23.72
197.308	23.72
197.528	50.35
197.747	27.82
197.966	83.11
198.185	-9.05
198.404	-9.05
198.623	33.96
198.842	54.44
199.062	-2.9
199.281	64.68
199.5	-11.09
199.719	46.25
199.938	64.68
200.157	91.31
200.376	79.02
200.595	1.19
200.814	72.87
201.033	-35.67
201.252	111.78
201.471	56.49
201.69	17.58
201.909	40.11
202.128	42.15
202.347	83.11
202.566	48.3
202.785	42.15
203.004	60.59
203.223	171.18
203.442	38.06
203.661	62.63
203.879	-23.38
204.098	54.44
204.317	-39.76
204.536	68.78
204.755	46.25
204.974	-27.48
205.193	70.83
205.411	70.83
205.63	56.49
205.849	5.29
206.068	31.91
206.287	-21.33
206.505	46.25
206.724	-0.85
206.943	111.78
207.162	42.15
207.381	91.31
207.599	38.06
207.818	66.73
208.037	46.25
208.255	70.83
208.474	95.4
208.693	40.11
208.911	29.87
209.13	23.72
209.349	54.44
209.567	-9.05
209.786	27.82
210.005	113.83
210.223	5.29
210.442	52.39
210.661	40.11
210.879	29.87
211.098	19.63
211.316	36.01
211.535	91.31
211.753	70.83
211.972	46.25
212.191	27.82
212.409	31.91
212.628	54.44
212.846	54.44
213.065	46.25
213.283	36.01
213.502	-27.48
213.72	29.87
213.938	-17.24
214.157	46.25
214.375	17.58
214.594	70.83
214.812	93.35
215.031	-7
215.249	-35.67
215.467	70.83
215.686	25.77
215.904	62.63
216.122	-13.14
216.341	130.22
216.559	124.07
216.778	60.59
216.996	70.83
217.214	7.34
217.432	31.91
217.651	44.2
217.869	-11.09
218.087	56.49
218.306	-7
218.524	25.77
218.742	50.35
218.96	29.87
219.179	13.48
219.397	-2.9
219.615	124.07
219.833	62.63
220.051	13.48
220.27	76.97
220.488	-7
220.706	95.4
220.924	48.3
221.142	36.01
221.36	97.45
221.578	87.21
221.796	-35.67
222.015	46.25
222.233	95.4
222.451	117.93
222.669	44.2
222.887	-2.9
223.105	21.67
223.323	21.67
223.541	15.53
223.759	54.44
223.977	-93.01
224.195	62.63
224.413	7.34
224.631	46.25
224.849	70.83
225.067	97.45
225.285	-17.24
225.503	23.72
225.721	-2.9
225.939	23.72
226.157	-0.85
226.375	111.78
226.592	29.87
226.81	5.29
227.028	124.07
227.246	79.02
227.464	169.13
227.682	87.21
227.9	62.63
228.117	79.02
228.335	-31.57
228.553	42.15
228.771	13.48
228.989	83.11
229.206	56.49
229.424	5.29
229.642	33.96
229.86	-11.09
230.077	27.82
230.295	-9.05
230.513	113.83
230.731	79.02
230.948	162.98
231.166	15.53
231.384	-0.85
231.601	46.25
231.819	130.22
232.037	48.3
232.254	38.06
232.472	42.15
232.689	-39.76
232.907	29.87
233.125	70.83
233.342	9.39
233.56	38.06
233.777	21.67
233.995	48.3
234.213	105.64
234.43	19.63
234.648	76.97
234.865	56.49
235.083	111.78
235.3	-0.85
235.518	58.54
235.735	111.78
235.953	158.89
236.17	13.48
236.388	113.83
236.605	29.87
236.822	87.21
237.04	72.87
237.257	13.48
237.475	-11.09
237.692	-2.9
237.909	33.96
238.127	15.53
238.344	91.31
238.562	-9.05
238.779	11.43
238.996	-4.95
239.214	-35.67
239.431	95.4
239.648	76.97
239.865	70.83
240.083	13.48
240.3	-9.05
240.517	50.35
240.735	13.48
240.952	48.3
241.169	64.68
241.386	23.72
241.603	40.11
241.821	25.77
242.038	50.35
242.255	31.91
242.472	48.3
242.689	58.54
242.907	19.63
243.124	38.06
243.341	79.02
243.558	99.5
243.775	-11.09
243.992	-13.14
244.209	-19.29
244.426	70.83
244.643	113.83
244.86	79.02
245.078	81.07
245.295	68.78
245.512	64.68
245.729	50.35
245.946	91.31
246.163	48.3
246.38	72.87
246.597	79.02
246.814	62.63
247.031	33.96
247.248	79.02
247.464	48.3
247.681	7.34
247.898	97.45
248.115	19.63
248.332	29.87
248.549	83.11
248.766	115.88
248.983	3.24
249.2	42.15
249.417	-19.29
249.633	36.01
249.85	42.15
250.067	-17.24
250.284	64.68
250.501	21.67
250.717	101.55
250.934	17.58
251.151	66.73
251.368	-37.72
251.585	113.83
251.801	66.73
252.018	1.19
252.235	29.87
252.451	11.43
252.668	-31.57
252.885	46.25
253.102	50.35
253.318	-21.33
253.535	72.87
253.752	54.44
253.968	54.44
254.185	-2.9
254.401	58.54
254.618	46.25
254.835	1.19
255.051	103.59
255.268	38.06
255.484	76.97
255.701	23.72
255.917	25.77
256.134	7.34
256.351	21.67
256.567	40.11
256.784	21.67
257	68.78
257.217	46.25
257.433	25.77
257.65	74.92
257.866	23.72
258.082	-9.05
258.299	-9.05
258.515	58.54
258.732	13.48
258.948	-25.43
259.165	105.64
259.381	-33.62
259.597	-15.19
259.814	79.02
260.03	42.15
260.246	40.11
260.463	21.67
260.679	122.02
260.895	7.34
261.112	70.83
261.328	9.39
261.544	17.58
261.761	111.78
261.977	56.49
262.193	29.87
262.409	-2.9
262.626	48.3
262.842	91.31
263.058	13.48
263.274	60.59
263.49	46.25
263.707	42.15
263.923	11.43
264.139	-68.44
264.355	44.2
264.571	160.94
264.787	54.44
265.004	19.63
265.22	38.06
265.436	36.01
265.652	-7
265.868	83.11
266.084	29.87
266.3	79.02
266.516	13.48
266.732	87.21
266.948	40.11
267.164	-58.2
267.38	33.96
267.596	40.11
267.812	99.5
268.028	25.77
268.244	-9.05
268.46	58.54
268.676	81.07
268.892	130.22
269.108	21.67
269.324	13.48
269.54	-13.14
269.756	146.6
269.972	31.91
270.188	46.25
270.403	70.83
270.619	5.29
270.835	68.78
271.051	-0.85
271.267	1.19
271.483	29.87
271.698	62.63
271.914	79.02
272.13	58.54
272.346	-35.67
272.562	38.06
272.777	54.44
272.993	-0.85
273.209	-52.05
273.425	33.96
273.64	-7
273.856	70.83
274.072	42.15
274.287	13.48
274.503	31.91
274.719	38.06
274.934	17.58
275.15	46.25
275.366	1.19
275.581	54.44
275.797	95.4
276.012	40.11
276.228	70.83
276.444	54.44
276.659	58.54
276.875	74.92
277.09	38.06
277.306	31.91
277.521	17.58
277.737	58.54
277.952	81.07
278.168	74.92
278.383	46.25
278.599	87.21
278.814	54.44
279.03	97.45
279.245	95.4
279.461	56.49
279.676	76.97
279.892	38.06
280.107	15.53
280.322	-15.19
280.538	31.91
280.753	42.15
280.969	74.92
281.184	-25.43
281.399	74.92
281.615	70.83
281.83	79.02
282.045	-58.2
282.26	13.48
282.476	60.59
282.691	85.16
282.906	54.44
283.122	74.92
283.337	-4.95
283.552	87.21
283.767	72.87
283.983	119.98
284.198	-50
284.413	64.68
284.628	9.39
284.843	62.63
285.058	70.83
285.274	46.25
285.489	50.35
285.704	64.68
285.919	40.11
286.134	76.97
286.349	31.91
286.564	13.48
286.779	113.83
286.995	54.44
287.21	13.48
287.425	113.83
287.64	23.72
287.855	7.34
288.07	-23.38
288.285	33.96
288.5	58.54
288.715	31.91
288.93	81.07
289.145	105.64
289.36	95.4
289.575	105.64
289.79	40.11
290.004	105.64
290.219	83.11
290.434	70.83
290.649	-27.48
290.864	9.39
291.079	-76.63
291.294	5.29
291.509	46.25
291.724	58.54
291.938	19.63
292.153	23.72
292.368	62.63
292.583	83.11
292.798	107.69
293.012	79.02
293.227	23.72
293.442	23.72
293.657	85.16
293.871	23.72
294.086	23.72
294.301	60.59
294.516	-17.24
294.73	40.11
294.945	-41.81
295.16	29.87
295.374	89.26
295.589	81.07
295.804	70.83
296.018	83.11
296.233	31.91
296.447	40.11
296.662	-2.9
296.877	89.26
297.091	101.55
297.306	40.11
297.52	91.31
297.735	-2.9
297.949	15.53
298.164	95.4
298.378	107.69
298.593	50.35
298.807	-7
299.022	13.48
299.236	62.63
299.451	-7
299.665	21.67
299.88	74.92
300.094	40.11
300.309	50.35
300.523	40.11
300.737	25.77
300.952	72.87
301.166	11.43
301.381	-39.76
301.595	21.67
301.809	72.87
302.024	29.87
302.238	25.77
302.452	48.3
302.667	42.15
302.881	70.83
303.095	111.78
303.309	68.78
303.524	21.67
303.738	-0.85
303.952	21.67
304.166	64.68
304.381	38.06
304.595	113.83
304.809	89.26
305.023	54.44
305.237	46.25
305.452	-11.09
305.666	23.72
305.88	48.3
306.094	11.43
306.308	146.6
306.522	29.87
306.736	54.44
306.95	54.44
307.164	101.55
307.379	33.96
307.593	74.92
307.807	62.63
308.021	21.67
308.235	44.2
308.449	-17.24
308.663	-0.85
308.877	111.78
309.091	111.78
309.305	-11.09
309.519	5.29
309.733	46.25
309.947	-52.05
310.161	107.69
310.374	38.06
310.588	122.02
310.802	-7
311.016	42.15
311.23	29.87
311.444	5.29
311.658	21.67
311.872	46.25
312.085	62.63
312.299	119.98
312.513	89.26
312.727	48.3
312.941	27.82
313.154	9.39
313.368	23.72
313.582	31.91
313.796	11.43
314.009	105.64
314.223	46.25
314.437	38.06
314.651	93.35
314.864	33.96
315.078	38.06
315.292	87.21
315.505	-33.62
315.719	83.11
315.933	15.53
316.146	33.96
316.36	23.72
316.573	97.45
316.787	-2.9
317.001	95.4
317.214	-27.48
317.428	79.02
317.641	13.48
317.855	-52.05
318.068	42.15
318.282	15.53
318.495	91.31
318.709	46.25
318.922	48.3
319.136	74.92
319.349	38.06
319.563	29.87
319.776	62.63
319.99	-15.19
320.203	85.16
320.417	70.83
320.63	25.77
320.843	54.44
321.057	128.17
321.27	21.67
321.483	29.87
321.697	95.4
321.91	48.3
322.124	83.11
322.337	1.19
322.55	9.39
322.763	1.19
322.977	31.91
323.19	-19.29
323.403	70.83
323.617	74.92
323.83	76.97
324.043	111.78
324.256	-35.67
324.469	-9.05
324.683	70.83
324.896	-2.9
325.109	46.25
325.322	58.54
325.535	62.63
325.748	1.19
325.962	42.15
326.175	33.96
326.388	89.26
326.601	44.2
326.814	-17.24
327.027	27.82
327.24	113.83
327.453	-11.09
327.666	70.83
327.879	95.4
328.092	62.63
328.305	48.3
328.518	-7
328.731	13.48
328.944	72.87
329.157	5.29
329.37	48.3
329.583	167.08
329.796	62.63
330.009	-35.67
330.222	38.06
330.435	81.07
330.648	5.29
330.861	1.19
331.073	1.19
331.286	91.31
331.499	54.44
331.712	-17.24
331.925	29.87
332.138	109.74
332.35	56.49
332.563	13.48
332.776	50.35
332.989	23.72
333.202	72.87
333.414	38.06
333.627	36.01
333.84	46.25
334.053	64.68
334.265	-31.57
334.478	33.96
334.691	87.21
334.903	-17.24
335.116	64.68
335.329	25.77
335.541	29.87
335.754	21.67
335.966	21.67
336.179	66.73
336.392	7.34
336.604	13.48
336.817	13.48
337.029	64.68
337.242	60.59
337.454	132.26
337.667	97.45
337.88	64.68
338.092	62.63
338.305	87.21
338.517	74.92
338.729	17.58
338.942	3.24
339.154	23.72
339.367	-56.15
339.579	-25.43
339.792	-7
340.004	21.67
340.217	66.73
340.429	19.63
340.641	7.34
340.854	13.48
341.066	21.67
341.278	83.11
341.491	103.59
341.703	15.53
341.915	7.34
342.128	72.87
342.34	33.96
342.552	21.67
342.764	29.87
342.977	97.45
343.189	9.39
343.401	29.87
343.613	31.91
343.826	54.44
344.038	31.91
344.25	56.49
344.462	-19.29
344.674	70.83
344.886	-2.9
345.099	54.44
345.311	126.12
345.523	46.25
345.735	62.63
345.947	79.02
346.159	1.19
346.371	105.64
346.583	62.63
346.795	95.4
347.007	31.91
347.219	79.02
347.431	54.44
347.643	70.83
347.855	76.97
348.067	87.21
348.279	38.06
348.491	33.96
348.703	74.92
348.915	21.67
349.127	64.68
349.339	7.34
349.551	33.96
349.763	38.06
349.975	140.46
350.187	42.15
350.399	187.56
350.61	62.63
350.822	40.11
351.034	62.63
351.246	42.15
351.458	-45.91
351.669	87.21
351.881	144.55
352.093	64.68
352.305	33.96
352.517	130.22
352.728	107.69
352.94	91.31
353.152	62.63
353.363	70.83
353.575	85.16
353.787	9.39
353.999	46.25
354.21	66.73
354.422	46.25
354.633	79.02
354.845	48.3
355.057	36.01
355.268	29.87
355.48	91.31
355.692	115.88
355.903	25.77
356.115	109.74
356.326	-25.43
356.538	126.12
356.749	29.87
356.961	171.18
357.172	38.06
357.384	38.06
357.595	97.45
357.807	7.34
358.018	23.72
358.23	38.06
358.441	107.69
358.653	31.91
358.864	44.2
359.075	50.35
359.287	58.54
359.498	50.35
359.709	72.87
359.921	21.67
360.132	25.77
360.344	7.34
360.555	42.15
360.766	119.98
360.977	56.49
361.189	48.3
361.4	122.02
361.611	136.36
361.823	144.55
362.034	33.96
362.245	-21.33
362.456	38.06
362.667	128.17
362.879	72.87
363.09	103.59
363.301	74.92
363.512	15.53
363.723	70.83
363.935	50.35
364.146	89.26
364.357	60.59
364.568	62.63
364.779	13.48
364.99	79.02
365.201	-25.43
365.412	89.26
365.623	33.96
365.834	111.78
366.045	99.5
366.256	111.78
366.467	25.77
366.678	95.4
366.889	33.96
367.1	15.53
367.311	95.4
367.522	-27.48
367.733	5.29
367.944	87.21
368.155	-4.95
368.366	54.44
368.577	111.78
368.788	48.3
368.999	70.83
369.209	13.48
369.42	126.12
369.631	103.59
369.842	17.58
370.053	62.63
370.264	66.73
370.474	-35.67
370.685	62.63
370.896	58.54
371.107	58.54
371.317	33.96
371.528	29.87
371.739	95.4
371.95	-27.48
372.16	95.4
372.371	3.24
372.582	93.35
372.792	119.98
373.003	93.35
373.214	46.25
373.424	79.02
373.635	89.26
373.846	99.5
374.056	-9.05
374.267	68.78
374.477	62.63
374.688	62.63
374.898	87.21
375.109	40.11
375.319	95.4
375.53	130.22
375.74	83.11
375.951	15.53
376.161	56.49
376.372	103.59
376.582	5.29
376.793	19.63
377.003	95.4
377.214	60.59
377.424	62.63
377.635	36.01
377.845	70.83
378.055	128.17
378.266	68.78
378.476	66.73
378.686	56.49
378.897	72.87
379.107	146.6
379.317	83.11
379.528	52.39
379.738	66.73
379.948	119.98
380.158	124.07
380.369	91.31
380.579	87.21
380.789	48.3
380.999	93.35
381.21	111.78
381.42	54.44
381.63	-11.09
381.84	122.02
382.05	44.2
382.261	46.25
382.471	81.07
382.681	29.87
382.891	60.59
383.101	70.83
383.311	11.43
383.521	103.59
383.731	33.96
383.941	7.34
384.151	31.91
384.361	52.39
384.571	44.2
384.781	13.48
384.991	64.68
385.201	144.55
385.411	152.74
385.621	76.97
385.831	101.55
386.041	81.07
386.251	60.59
386.461	107.69
386.671	50.35
386.881	38.06
387.091	38.06
387.301	70.83
387.511	76.97
387.72	91.31
387.93	134.31
388.14	33.96
388.35	113.83
388.56	79.02
388.769	111.78
388.979	25.77
389.189	38.06
389.399	124.07
389.609	107.69
389.818	81.07
390.028	97.45
390.238	9.39
390.447	29.87
390.657	117.93
390.867	79.02
391.076	64.68
391.286	50.35
391.496	89.26
391.705	79.02
391.915	160.94
392.125	38.06
392.334	87.21
392.544	119.98
392.753	111.78
392.963	97.45
393.172	9.39
393.382	23.72
393.591	64.68
393.801	103.59
394.01	83.11
394.22	54.44
394.429	66.73
394.639	1.19
394.848	40.11
395.058	81.07
395.267	95.4
395.477	107.69
395.686	81.07
395.895	97.45
396.105	156.84
396.314	103.59
396.524	103.59
396.733	72.87
396.942	124.07
397.152	87.21
397.361	136.36
397.57	93.35
397.78	99.5
397.989	130.22
398.198	97.45
398.407	81.07
398.617	95.4
398.826	97.45
399.035	87.21
399.244	124.07
399.453	87.21
399.663	140.46
399.872	70.83
400.081	81.07
400.29	70.83
400.499	103.59
400.708	140.46
400.917	70.83
401.127	83.11
401.336	103.59
401.545	197.8
401.754	119.98
401.963	152.74
402.172	132.26
402.381	50.35
402.59	103.59
402.799	136.36
403.008	122.02
403.217	236.71
403.426	68.78
403.635	95.4
403.844	144.55
404.053	171.18
404.262	160.94
404.471	156.84
404.68	107.69
404.888	128.17
405.097	146.6
405.306	246.95
405.515	179.37
405.724	189.61
405.933	214.18
406.142	306.34
406.35	226.47
406.559	128.17
406.768	177.32
406.977	214.18
407.185	183.46
407.394	177.32
407.603	220.33
407.812	193.7
408.02	179.37
408.229	210.09
408.438	249
408.646	185.51
408.855	218.28
409.064	335.01
409.272	224.42
409.481	234.66
409.69	238.76
409.898	201.9
410.107	269.48
410.315	300.2
410.524	242.85
410.733	353.45
410.941	373.92
411.15	380.07
411.358	400.55
411.567	423.08
411.775	390.31
411.984	443.56
412.192	464.04
412.401	328.87
412.609	545.95
412.818	513.19
413.026	529.57
413.234	519.33
413.443	537.76
413.651	386.21
413.86	476.32
414.068	605.35
414.276	615.59
414.485	599.2
414.693	603.3
414.901	795.81
415.11	646.3
415.318	701.6
415.526	668.83
415.734	693.41
415.943	709.79
416.151	767.13
416.359	746.66
416.567	763.04
416.776	863.39
416.984	916.64
417.192	840.86
417.4	857.25
417.608	857.25
417.817	996.51
418.025	953.5
418.233	1111.19
418.441	1074.33
418.649	1078.43
418.857	1133.72
419.065	1311.89
419.273	1135.77
419.481	1217.69
419.689	1303.7
419.897	1356.95
420.105	1350.81
420.313	1451.16
420.521	1524.88
420.729	1512.6
420.937	1471.64
421.145	1627.28
421.353	1766.54
421.561	1840.27
421.769	1815.69
421.977	1922.19
422.185	1938.57
422.393	1905.81
422.601	1916.05
422.809	2049.16
423.017	2073.74
423.224	2372.74
423.432	2335.88
423.64	2282.63
423.848	2546.82
424.056	2397.32
424.263	2634.88
424.471	2620.55
424.679	2835.58
424.887	2849.92
425.094	2847.87
425.302	2884.73
425.51	2978.94
425.718	3064.96
425.925	3038.33
426.133	3193.98
426.341	3406.97
426.548	3579
426.756	3486.84
426.964	3603.57
427.171	3824.75
427.379	3986.54
427.586	4105.32
427.794	4125.8
428.001	4220.01
428.209	4351.08
428.417	4451.43
428.624	4609.12
428.832	4609.12
429.039	4682.85
429.247	4625.51
429.454	5110.88
429.662	5520.47
429.869	5088.35
430.076	5532.76
430.284	5250.14
430.491	5663.83
430.699	5973.07
430.906	5690.45
431.114	6034.51
431.321	6136.91
431.528	6212.68
431.736	6542.41
431.943	6964.29
432.15	6767.68
432.358	6788.16
432.565	7156.8
432.772	7148.61
432.979	7459.9
433.187	7574.58
433.394	7590.97
433.601	8137.77
433.808	8213.55
434.016	8125.49
434.223	8541.22
434.43	8967.2
434.637	8653.86
434.844	9339.93
435.052	9563.16
435.259	9452.57
435.466	9589.78
435.673	9565.21
435.88	10146.83
436.087	10564.62
436.294	10613.77
436.501	10511.37
436.708	10609.67
436.915	10718.22
437.122	11330.56
437.329	11295.74
437.537	11553.79
437.743	11981.81
437.95	11783.16
438.157	12401.65
438.364	12729.32
438.571	12870.63
438.778	12938.21
438.985	14021.59
439.192	13333.47
439.399	13892.57
439.606	13448.16
439.813	14474.19
440.02	15420.35
440.227	14797.77
440.433	14805.96
440.64	15463.36
440.847	15211.46
441.054	15750.07
441.261	16407.47
441.467	16266.16
441.674	16720.81
441.881	17265.57
442.088	17169.32
442.294	17249.19
442.501	17619.87
442.708	17666.97
442.914	18654.09
443.121	19307.4
443.328	18756.49
443.534	20206.45
443.741	19604.35
443.948	19293.06
444.154	20689.77
444.361	20378.48
444.568	20411.25
444.774	20775.79
444.981	21236.58
445.187	21404.52
445.394	22307.67
445.6	22295.38
445.807	24118.07
446.013	23106.38
446.22	23452.48
446.426	24726.32
446.633	24568.63
446.839	25582.37
447.046	24486.71
447.252	26139.42
447.459	25928.48
447.665	25719.59
447.871	26667.8
448.078	28021.5
448.284	26669.84
448.491	27396.87
448.697	28619.51
448.903	28893.94
449.11	29166.32
449.316	28646.13
449.522	28986.1
449.728	29764.32
449.935	30431.96
450.141	30173.92
450.347	30644.95
450.553	29575.91
450.76	30198.49
450.966	31034.07
451.172	30593.75
451.378	31695.56
451.584	30882.52
451.791	31746.76
451.997	31582.92
452.203	31802.05
452.409	32320.19
452.615	32056
452.821	30733.01
453.027	30198.49
453.233	31810.25
453.44	30581.46
453.646	30952.15
453.852	31361.74
454.058	31709.89
454.264	30366.43
454.47	31204.05
454.676	30270.17
454.882	31730.37
455.088	28881.65
455.294	29182.7
455.5	29518.57
455.705	29758.18
455.911	28705.52
456.117	28238.59
456.323	27521.8
456.529	26766.1
456.735	27751.17
456.941	26581.78
457.147	26211.1
457.352	25574.18
457.558	25301.8
457.764	25275.18
457.97	24814.38
458.176	24347.45
458.381	23894.85
458.587	23120.71
458.793	22852.43
458.999	21660.51
459.204	23386.95
459.41	22987.6
459.616	21441.38
459.821	21136.23
460.027	21179.24
460.233	20747.12
460.438	19518.34
460.644	19784.57
460.85	18811.79
461.055	18684.81
461.261	18813.84
461.466	17349.54
461.672	16710.57
461.878	17759.13
462.083	16767.91
462.289	16413.62
462.494	16329.65
462.7	15518.65
462.905	15369.15
463.111	15510.46
463.316	15637.44
463.522	15348.67
463.727	15285.19
463.932	15393.73
464.138	14949.32
464.343	15119.3
464.549	14932.93
464.754	15530.94
464.959	15021
465.165	15033.29
465.37	14367.7
465.575	14062.55
465.781	14580.68
465.986	14459.85
466.191	14117.84
466.397	13855.7
466.602	12981.22
466.807	13439.97
467.012	13452.25
467.218	13482.97
467.423	13448.16
467.628	13384.67
467.833	14136.27
468.038	13356
468.244	12903.4
468.449	13728.73
468.654	13251.55
468.859	12956.64
469.064	12850.15
469.269	12370.93
469.474	12487.66
469.679	12917.73
469.885	12528.62
470.09	12514.28
470.295	12321.77
470.5	12135.41
470.705	12211.18
470.91	12102.64
471.115	12049.39
471.32	12008.44
471.525	12123.12
471.73	11727.86
471.935	11572.22
472.139	11400.19
472.344	11037.7
472.549	11334.65
472.754	11326.46
472.959	11068.42
473.164	10712.07
473.369	10415.12
473.574	10871.81
473.778	10912.77
473.983	10771.46
474.188	10742.79
474.393	10138.64
474.598	10458.12
474.802	10132.5
475.007	10054.67
475.212	10216.46
475.417	9829.4
475.621	9864.21
475.826	9575.45
476.031	9632.79
476.235	9274.4
476.44	9530.39
476.645	9380.89
476.849	9335.84
477.054	9176.09
477.259	9206.81
477.463	9430.04
477.668	8993.83
477.872	9053.22
478.077	8879.14
478.282	8600.62
478.486	8639.53
478.691	8561.7
478.895	8660.01
479.1	8455.21
479.304	8436.78
479.509	8168.49
479.713	8457.26
479.918	8225.84
480.122	8145.97
480.326	8217.65
480.531	8166.45
480.735	8045.62
480.94	8148.01
481.144	8283.18
481.348	7865.39
481.553	7986.22
481.757	7840.82
481.961	7846.96
482.166	8100.91
482.37	7967.79
482.574	7869.49
482.778	7775.28
482.983	8059.95
483.187	7914.55
483.391	7808.05
483.595	7754.8
483.8	7863.35
484.004	7910.45
484.208	7828.53
484.412	7861.3
484.616	7865.39
484.821	7791.67
485.025	7582.77
485.229	7902.26
485.433	7648.31
485.637	7889.97
485.841	7652.41
486.045	7939.12
486.249	8018.99
486.453	7840.82
486.657	7840.82
486.861	7779.38
487.065	7824.44
487.269	7975.98
487.473	7715.89
487.677	7795.76
487.881	8168.49
488.085	7947.31
488.289	7967.79
488.493	7908.4
488.697	7844.91
488.901	7846.96
489.105	7879.73
489.309	7916.59
489.512	7855.15
489.716	7730.23
489.92	7797.81
490.124	8010.8
490.328	8059.95
490.531	7967.79
490.735	7912.5
490.939	7975.98
491.143	8113.2
491.346	7916.59
491.55	8107.05
491.754	8107.05
491.958	8176.69
492.161	8041.52
492.365	8238.12
492.569	8133.68
492.772	8100.91
492.976	8195.12
493.18	8088.62
493.383	8326.19
493.587	8238.12
493.79	8465.45
493.994	8260.65
494.197	8537.13
494.401	8608.81
494.605	8565.8
494.808	8643.62
495.012	8764.45
495.215	8834.08
495.419	8811.56
495.622	8723.49
495.825	9022.5
496.029	8909.86
496.232	9235.49
496.436	8901.67
496.639	9247.77
496.843	9323.55
497.046	9245.73
497.249	9550.87
497.453	9409.56
497.656	9622.55
497.859	9636.89
498.063	9620.5
498.266	9876.5
498.469	9778.2
498.673	9999.38
498.876	9978.9
499.079	10114.06
499.282	10214.41
499.485	10380.3
499.689	10335.24
499.892	10474.51
500.095	10441.74
500.298	10841.09
500.501	10933.25
500.705	11193.34
500.908	11056.13
501.111	11000.83
501.314	11322.37
501.517	11367.42
501.72	11441.15
501.923	11449.34
502.126	11777.01
502.329	11779.06
502.532	12022.77
502.735	12047.35
502.938	12334.06
503.141	12389.36
503.344	12616.68
503.547	12522.48
503.75	12665.83
503.953	12850.15
504.156	12946.41
504.359	13042.66
504.562	13167.59
504.765	13431.77
504.968	13378.53
505.17	13700.06
505.373	13734.87
505.576	13677.53
505.779	14062.55
505.982	14197.71
506.185	14408.65
506.387	14480.33
506.59	14580.68
506.793	14617.55
506.996	14656.46
507.198	15133.64
507.401	15109.06
507.604	15182.79
507.807	15502.27
508.009	15690.68
508.212	15602.62
508.415	15762.36
508.617	16167.86
508.82	16128.95
509.022	16217.01
509.225	16513.97
509.428	16528.3
509.63	16823.21
509.833	16849.83
510.035	17425.31
510.238	17267.62
510.44	17099.69
510.643	17658.78
510.845	17798.04
511.048	17650.59
511.25	18066.33
511.453	17941.4
511.655	18684.81
511.858	18506.64
512.06	18736.01
512.262	18963.34
512.465	18862.99
512.667	19194.76
512.87	19250.05
513.072	19522.43
513.274	19565.44
513.477	19643.26
513.679	20061.05
513.881	20271.99
514.084	20527.99
514.286	20536.18
514.488	20720.49
514.69	21226.34
514.893	21291.88
515.095	21162.86
515.297	21527.39
515.499	21525.35
515.701	22039.39
515.904	21838.69
516.106	22127.45
516.308	22438.74
516.51	22420.31
516.712	22877.01
516.914	22854.48
517.116	23180.1
517.318	23151.43
517.52	23331.65
517.722	23235.4
517.925	23966.52
518.127	23939.9
518.329	24122.17
518.531	23905.09
518.733	24646.45
518.935	24746.8
519.136	24746.8
519.338	25072.43
519.54	24984.37
519.742	25637.67
519.944	25246.51
520.146	25770.79
520.348	25811.74
520.55	25942.81
520.752	25983.77
520.954	26346.26
521.155	26190.62
521.357	26796.82
521.559	26770.19
521.761	26942.22
521.963	26762
522.164	27073.29
522.366	27104.01
522.568	27509.51
522.77	27413.26
522.971	27650.82
523.173	27407.11
523.375	27890.43
523.576	27908.86
523.778	27894.53
523.98	28105.47
524.181	28257.02
524.383	28365.56
524.584	28433.14
524.786	28383.99
524.988	28377.85
525.189	28553.97
525.391	29096.69
525.592	29088.49
525.794	28775.16
525.995	29061.87
526.197	28711.67
526.398	28709.62
526.6	29010.67
526.801	29453.03
527.003	29426.41
527.204	29184.75
527.406	29397.74
527.607	29483.75
527.808	29807.33
528.01	29055.73
528.211	29348.59
528.412	29694.69
528.614	29614.82
528.815	29569.77
529.016	30032.61
529.218	29493.99
529.419	29369.07
529.62	29477.61
529.822	29571.82
530.023	29518.57
530.224	29305.58
530.425	29448.94
530.626	29455.08
530.828	29147.89
531.029	29870.82
531.23	29405.93
531.431	29711.08
531.632	29344.49
531.833	29692.65
532.035	29698.79
532.236	29670.12
532.437	29532.9
532.638	29444.84
532.839	29823.72
533.04	29555.43
533.241	29022.96
533.442	29842.15
533.643	29129.45
533.844	29231.85
534.045	29577.96
534.246	28728.05
534.447	29151.98
534.648	29086.45
534.849	29022.96
535.05	28820.21
535.251	29238
535.451	29154.03
535.652	29387.5
535.853	28644.09
536.054	29238
536.255	29045.49
536.456	28508.92
536.657	29211.37
536.857	29090.54
537.058	28592.89
537.259	29053.68
537.46	28828.4
537.66	28740.34
537.861	28781.3
538.062	28537.59
538.263	28670.71
538.463	28723.96
538.664	28439.29
538.865	28361.47
539.065	28650.23
539.266	28615.41
539.466	28914.42
539.667	28246.78
539.868	29096.69
540.068	28379.9
540.269	28334.84
540.469	28472.06
540.67	28465.91
540.87	28461.82
541.071	28672.76
541.271	28773.11
541.472	28558.07
541.672	28244.73
541.873	28607.22
542.073	27837.19
542.274	28496.63
542.474	28068.61
542.675	28175.1
542.875	28349.18
543.075	28168.96
543.276	27966.21
543.476	28455.67
543.676	28101.37
543.877	28369.66
544.077	28070.65
544.277	28078.85
544.478	27843.33
544.678	28304.12
544.878	28072.7
545.078	28017.41
545.279	28044.03
545.479	27964.16
545.679	27712.26
545.879	27876.1
546.079	27939.58
546.28	28037.89
546.48	28072.7
546.68	28281.6
546.88	28171
547.08	27976.45
547.28	27970.3
547.48	27724.55
547.68	28021.5
547.88	28154.62
548.081	28193.53
548.281	28056.32
548.481	28023.55
548.681	28039.93
548.881	28093.18
549.081	27632.39
549.28	27884.29
549.48	28392.19
549.68	28009.22
549.88	28130.05
550.08	27804.42
550.28	28214.01
550.48	28168.96
550.68	28146.43
550.88	28015.36
551.08	28058.37
551.279	28123.9
551.479	27652.87
551.679	28099.33
551.879	28072.7
552.079	28058.37
552.278	27982.59
552.478	28500.73
552.678	28087.04
552.878	28115.71
553.077	28105.47
553.277	27972.35
553.477	28320.51
553.676	28232.44
553.876	28326.65
554.076	27867.91
554.275	28310.27
554.475	27792.13
554.674	28166.91
554.874	28568.31
555.074	28232.44
555.273	28302.07
555.473	28586.74
555.672	28211.96
555.872	28523.26
556.071	28447.48
556.271	28533.5
556.47	28558.07
556.67	28236.54
556.869	28365.56
557.068	28218.11
557.268	28283.64
557.467	28558.07
557.667	28252.92
557.866	28084.99
558.065	28314.36
558.265	28529.4
558.464	28046.08
558.663	28869.36
558.863	28005.12
559.062	28613.37
559.261	28220.16
559.461	28582.65
559.66	27974.4
559.859	27935.49
560.058	28003.07
560.258	28263.16
560.457	28080.89
560.656	28762.87
560.855	28279.55
561.054	28527.35
561.253	28130.05
561.453	28562.17
561.652	28535.54
561.851	28635.89
562.05	28017.41
562.249	28211.96
562.448	28574.45
562.647	28379.9
562.846	28185.34
563.045	28216.06
563.244	27958.02
563.443	28386.04
563.642	27958.02
563.841	28379.9
564.04	27921.15
564.239	28254.97
564.438	27988.74
564.637	28111.61
564.836	28015.36
565.035	27716.36
565.234	28005.12
565.432	27753.22
565.631	27853.57
565.83	28154.62
566.029	28134.14
566.228	28062.46
566.427	27849.47
566.625	27493.13
566.824	27319.05
567.023	27837.19
567.222	27396.87
567.42	28046.08
567.619	27431.69
567.818	27505.41
568.016	27439.88
568.215	27400.97
568.414	27415.3
568.612	27804.42
568.811	27364.11
569.01	27276.04
569.208	27009.81
569.407	27480.84
569.605	27122.44
569.804	27018
570.002	27142.92
570.201	27065.1
570.4	26655.51
570.598	26942.22
570.797	26624.79
570.995	26454.81
571.193	26286.87
571.392	26981.13
571.59	26403.61
571.789	26250.01
571.987	26571.54
572.186	26419.99
572.384	26161.95
572.582	26413.85
572.781	26514.2
572.979	26168.09
573.177	25994.01
573.376	26321.69
573.574	25707.3
573.772	26100.51
573.971	25488.17
574.169	25508.65
574.367	25885.47
574.565	26000.16
574.763	25240.36
574.962	25627.43
575.16	25291.56
575.358	25404.2
575.556	25041.71
575.754	25420.58
575.952	24894.25
576.151	25230.12
576.349	25056.04
576.547	24828.72
576.745	25140.01
576.943	25123.63
577.141	24988.46
577.339	24789.81
577.537	24652.59
577.735	24576.82
577.933	24376.12
578.131	24687.41
578.329	24533.81
578.527	24388.41
578.725	24148.79
578.923	24044.35
579.121	24406.84
579.319	23997.24
579.516	24240.95
579.714	24240.95
579.912	24009.53
580.11	23630.66
580.308	23962.43
580.506	23700.29
580.704	23493.44
580.901	23950.14
581.099	23839.55
581.297	23327.56
581.495	23405.38
581.692	23688
581.89	23155.53
582.088	23178.06
582.285	23110.47
582.483	23446.34
582.681	23176.01
582.878	23092.04
583.076	23067.47
583.274	23106.38
583.471	22559.57
583.669	22651.73
583.866	22795.09
584.064	22893.39
584.262	22807.37
584.459	23030.6
584.657	22442.84
584.854	22635.35
585.052	22283.09
585.249	22584.15
585.447	22682.45
585.644	22176.6
585.841	22176.6
586.039	22588.24
586.236	22113.11
586.434	21986.14
586.631	22047.58
586.828	22002.52
587.026	22066.01
587.223	21848.93
587.42	22006.62
587.618	22129.5
587.815	21781.34
588.012	21654.37
588.21	21853.02
588.407	21945.18
588.604	21713.76
588.801	21488.48
588.999	21637.98
589.196	21353.32
589.393	21404.52
589.59	21373.8
589.787	21050.22
589.984	21269.35
590.182	21095.27
590.379	21355.36
590.576	21068.65
590.773	21349.22
590.97	20980.59
591.167	21402.47
591.364	20906.86
591.561	20859.76
591.758	20833.13
591.955	20681.58
592.152	20786.03
592.349	20542.32
592.546	20566.9
592.743	20689.77
592.94	20913
593.137	20544.37
593.334	20845.42
593.531	20489.07
593.727	20810.61
593.924	20697.97
594.121	20253.56
594.318	20560.75
594.515	20548.47
594.712	20622.19
594.908	20337.52
595.105	20450.16
595.302	20302.71
595.499	20411.25
595.696	20249.46
595.892	20247.41
596.089	20530.03
596.286	20122.49
596.482	20306.8
596.679	20165.49
596.876	20255.61
597.072	20083.58
597.269	20360.05
597.466	19917.69
597.662	19938.17
597.859	20112.25
598.055	20296.56
598.252	20108.15
598.448	20026.23
598.645	19960.7
598.841	20067.19
599.038	19911.55
599.234	19958.65
599.431	19891.07
599.627	19954.55
599.824	20136.82
600.02	19618.69
600.217	20056.95
600.413	19809.15
600.609	19667.84
600.806	19979.13
601.002	20075.38
601.198	19698.56
601.395	19536.77
601.591	19862.4
601.787	19882.88
601.984	19952.51
602.18	20220.79
602.376	19741.57
602.572	19923.83
602.769	19921.79
602.965	19657.6
603.161	19942.27
603.357	19628.93
603.553	19872.64
603.75	19934.07
603.946	20001.66
604.142	19911.55
604.338	19387.27
604.534	20054.9
604.73	19733.37
604.926	19905.4
605.122	19958.65
605.318	19825.53
605.514	20022.14
605.71	19919.74
605.906	19749.76
606.102	19821.44
606.298	20296.56
606.494	19532.67
606.69	20140.92
606.886	19989.37
607.082	19633.02
607.278	19936.12
607.474	19782.52
607.67	20034.42
607.866	19837.82
608.062	20030.33
608.257	19958.65
608.453	20177.78
608.649	20161.4
608.845	20011.9
609.041	20108.15
609.236	19993.47
609.432	20190.07
609.628	20202.36
609.824	20040.57
610.019	20087.67
610.215	20202.36
610.411	20118.39
610.606	20263.8
610.802	20345.72
610.998	20372.34
611.193	20374.39
611.389	20151.16
611.584	20370.29
611.78	19780.48
611.976	20589.42
612.171	20403.06
612.367	20530.03
612.562	20405.11
612.758	20118.39
612.953	20048.76
613.149	20403.06
613.344	20296.56
613.539	20392.82
613.735	19968.89
613.93	20593.52
614.126	20388.72
614.321	20351.86
614.517	20665.2
614.712	20222.84
614.907	20220.79
615.103	20544.37
615.298	20140.92
615.493	20587.38
615.688	20130.68
615.884	20614
616.079	20145.02
616.274	20296.56
616.47	20253.56
616.665	20489.07
616.86	20167.54
617.055	20290.42
617.25	20403.06
617.445	20667.25
617.641	20034.42
617.836	20188.02
618.031	19874.68
618.226	20163.45
618.421	20104.06
618.616	20288.37
618.811	20075.38
619.006	20104.06
619.201	19809.15
619.396	19960.7
619.591	19850.11
619.786	20122.49
619.981	19553.15
620.176	19770.24
620.371	19544.96
620.566	19755.9
620.761	19667.84
620.956	19753.85
621.151	19456.9
621.346	19315.59
621.541	18910.09
621.735	19575.68
621.93	18854.79
622.125	19151.75
622.32	18975.63
622.515	18867.08
622.709	18979.72
622.904	18817.93
623.099	18566.03
623.294	18545.55
623.488	18463.63
623.683	18387.86
623.878	18471.82
624.072	18424.72
624.267	18312.08
624.462	18160.53
624.656	18011.03
624.851	18097.05
625.046	17929.11
625.24	17892.25
625.435	17607.58
625.629	17540
625.824	17482.66
626.018	17687.45
626.213	17093.54
626.407	17535.9
626.602	17206.18
626.796	17468.32
626.991	17415.07
627.185	17159.08
627.38	16843.69
627.574	16819.11
627.768	16618.41
627.963	16483.25
628.157	16575.41
628.352	16796.59
628.546	16501.68
628.74	16440.24
628.935	16221.11
629.129	16139.19
629.323	15819.71
629.517	16016.31
629.712	15700.92
629.906	15682.49
630.1	15666.11
630.294	15596.48
630.489	15541.18
630.683	15860.66
630.877	15256.51
631.071	15291.33
631.265	15655.87
631.459	15227.84
631.653	15389.63
631.848	15164.36
632.042	14939.08
632.236	14912.46
632.43	14877.64
632.624	14953.41
632.818	14703.56
633.012	14619.6
633.206	14728.14
633.4	14717.9
633.594	14541.77
633.788	14533.58
633.982	14273.49
634.176	14439.37
634.369	14160.85
634.563	14392.27
634.757	13982.68
634.951	14146.51
635.145	13904.85
635.339	14046.16
635.533	13937.62
635.726	13968.34
635.92	13695.96
636.114	13530.08
636.308	13462.49
636.501	13751.26
636.695	13366.24
636.889	13292.51
637.083	13325.28
637.276	13032.42
637.47	13003.75
637.664	13202.4
637.857	12938.21
638.051	12936.17
638.244	12776.42
638.438	12639.21
638.632	12553.2
638.825	12573.67
639.019	12475.37
639.212	12418.03
639.406	12354.54
639.599	12426.22
639.793	12338.16
639.986	12198.9
640.18	12211.18
640.373	12057.59
640.567	12065.78
640.76	11779.06
640.954	11916.28
641.147	11850.74
641.34	11445.24
641.534	11723.77
641.727	11572.22
641.92	11365.37
642.114	11441.15
642.307	11523.07
642.5	11082.75
642.694	11355.13
642.887	11361.28
643.08	11293.69
643.273	11103.23
643.467	10920.96
643.66	11017.22
643.853	10939.4
644.046	10570.76
644.239	10671.11
644.432	10851.33
644.626	10550.28
644.819	10427.4
645.012	10531.85
645.205	10458.12
645.398	10249.23
645.591	10146.83
645.784	10470.41
645.977	10155.02
646.17	10173.46
646.363	10247.18
646.556	9952.27
646.749	9952.27
646.942	10163.22
647.135	9829.4
647.328	9884.69
647.521	9702.42
647.714	9692.18
647.907	9610.26
648.099	9632.79
648.292	9548.82
648.485	9604.12
648.678	9352.22
648.871	9524.25
649.064	9401.37
649.256	9397.28
649.449	9227.29
649.642	9098.27
649.835	9032.74
650.027	8942.63
650.22	8924.19
650.413	8993.83
650.605	8873
650.798	8901.67
650.991	8721.45
651.183	8969.25
651.376	8578.09
651.568	8698.92
651.761	8434.73
651.954	8737.83
652.146	8578.09
652.339	8455.21
652.531	8311.85
652.724	8516.65
652.916	8082.48
653.109	8240.17
653.301	8111.15
653.494	8088.62
653.686	8148.01
653.879	8172.59
654.071	8115.25
654.263	8135.73
654.456	8074.29
654.648	7984.18
654.84	7842.87
655.033	7857.2
655.225	7904.31
655.417	7828.53
655.61	7965.75
655.802	7769.14
655.994	7533.62
656.186	7689.27
656.379	7793.72
656.571	7617.59
656.763	7443.51
656.955	7461.94
657.148	7547.96
657.34	7343.16
657.532	7320.63
657.724	7365.69
657.916	7208
658.108	7177.28
658.3	7232.57
658.492	7226.43
658.684	7105.6
658.876	7162.94
659.068	7042.11
659.26	6935.62
659.452	6929.47
659.644	6878.27
659.836	6829.12
660.028	6853.7
660.22	6732.87
660.412	6739.01
660.604	6706.24
660.796	6681.67
660.988	6677.57
661.18	6515.78
661.372	6634.57
661.563	6726.72
661.755	6544.45
661.947	6542.41
662.139	6458.44
662.331	6405.19
662.522	6329.42
662.714	6335.56
662.906	6323.27
663.097	6218.83
663.289	6245.45
663.481	6198.35
663.673	6124.62
663.864	6020.17
664.056	6171.72
664.247	5946.45
664.439	6165.58
664.631	6018.13
664.822	5975.12
665.014	5887.06
665.205	5846.1
665.397	5905.49
665.588	5971.02
665.78	5823.57
665.971	5626.96
666.163	5903.44
666.354	5762.13
666.546	5700.69
666.737	5602.39
666.929	5649.49
667.12	5698.64
667.311	5645.4
667.503	5569.62
667.694	5706.84
667.885	5491.8
668.077	5549.14
668.268	5624.92
668.459	5391.45
668.651	5250.14
668.842	5514.33
669.033	5416.02
669.224	5266.52
669.416	5379.16
669.607	5276.76
669.798	5383.26
669.989	5356.63
670.18	5383.26
670.371	5168.22
670.563	5160.03
670.754	5166.17
670.945	5160.03
671.136	5035.1
671.327	5035.1
671.518	5143.64
671.709	5094.49
671.9	5002.33
672.091	4988
672.282	4985.95
672.473	5045.34
672.664	5022.81
672.855	4818.02
673.046	4834.4
673.237	5061.73
673.428	4897.89
673.619	5047.39
673.809	4938.85
674	4856.93
674.191	4787.3
674.382	4740.19
674.573	4746.34
674.764	4781.15
674.954	4791.39
675.145	4633.7
675.336	4760.67
675.527	4740.19
675.717	4686.95
675.908	4486.25
676.099	4678.76
676.289	4725.86
676.48	4545.64
676.671	4654.18
676.861	4633.7
677.052	4564.07
677.243	4555.88
677.433	4527.21
677.624	4736.1
677.814	4523.11
678.005	4732
678.195	4707.43
678.386	4484.2
678.576	4451.43
678.767	4531.3
678.957	4478.05
679.148	4512.87
679.338	4441.19
679.529	4494.44
679.719	4465.77
679.909	4478.05
680.1	4484.2
680.29	4326.5
680.481	4418.66
680.671	4494.44
680.861	4478.05
681.052	4449.38
681.242	4322.41
681.432	4486.25
681.622	4463.72
681.813	4244.59
682.003	4293.74
682.193	4306.02
682.383	4428.9
682.573	4324.46
682.764	4435.05
682.954	4297.83
683.144	4310.12
683.334	4183.15
683.524	4140.14
683.714	4488.29
683.904	4281.45
684.094	4275.31
684.284	4355.18
684.474	4332.65
684.664	4193.39
684.854	4283.5
685.044	4125.8
685.234	4215.91
685.424	4195.43
685.614	4113.52
685.804	4097.13
685.994	4293.74
686.184	4224.11
686.374	4062.32
686.564	4068.46
686.753	4068.46
686.943	4035.69
687.133	4158.57
687.323	4043.88
687.513	4113.52
687.702	4283.5
687.892	4047.98
688.082	4021.36
688.272	4074.6
688.461	3986.54
688.651	4076.65
688.841	3861.62
689.03	3933.29
689.22	3964.01
689.41	3992.69
689.599	3916.91
689.789	3832.94
689.979	3931.25
690.168	3853.42
690.358	3781.74
690.547	3851.38
690.737	3875.95
690.926	3808.37
691.116	3740.79
691.305	3933.29
691.495	3781.74
691.684	3755.12
691.874	3830.9
692.063	3771.51
692.252	3740.79
692.442	3783.79
692.631	3669.11
692.82	3675.25
693.01	3703.92
693.199	3603.57
693.388	3685.49
693.578	3566.71
693.767	3611.76
693.956	3527.8
694.146	3693.68
694.335	3591.28
694.524	3669.11
694.713	3648.63
694.902	3497.08
695.092	3638.39
695.281	3445.88
695.47	3576.95
695.659	3456.12
695.848	3439.73
696.037	3456.12
696.226	3564.66
696.415	3484.79
696.604	3480.69
696.793	3564.66
696.982	3523.7
697.171	3452.02
697.36	3519.6
697.549	3366.01
697.738	3333.24
697.927	3290.23
698.116	3425.4
698.305	3347.58
698.494	3277.94
698.683	3417.21
698.872	3370.1
699.061	3208.31
699.25	3273.85
699.438	3290.23
699.627	3259.51
699.816	3329.14
700.005	3335.29
700.193	3253.37
700.382	3288.18
700.571	3148.92
700.76	3193.98
700.948	3257.46
701.137	3171.45
701.326	3169.4
701.514	3228.79
701.703	3282.04
701.892	3236.99
702.08	3177.59
702.269	3191.93
702.457	3118.2
702.646	3062.91
702.834	3052.67
703.023	3073.15
703.212	3118.2
703.4	3046.52
703.589	3202.17
703.777	3146.87
703.965	3003.52
704.154	3093.63
704.342	3048.57
704.531	3138.68
704.719	3005.56
704.907	3058.81
705.096	2933.89
705.284	2921.6
705.472	3040.38
705.661	2860.16
705.849	3019.9
706.037	3079.29
706.226	3011.71
706.414	2946.17
706.602	2849.92
706.79	2888.83
706.979	2929.79
707.167	2849.92
707.355	2839.68
707.543	2897.02
707.731	2806.91
707.919	2821.25
708.107	2724.99
708.296	2780.29
708.484	2741.38
708.672	2731.14
708.86	2714.75
709.048	2831.49
709.236	2692.23
709.424	2778.24
709.612	2759.81
709.8	2763.9
709.988	2632.83
710.176	2757.76
710.364	2704.51
710.551	2632.83
710.739	2720.9
710.927	2569.35
711.115	2602.11
711.303	2659.46
711.491	2643.07
711.679	2575.49
711.866	2620.55
712.054	2684.03
712.242	2569.35
712.43	2667.65
712.617	2561.16
712.805	2727.04
712.993	2684.03
713.181	2622.59
713.368	2526.34
713.556	2532.48
713.744	2520.2
713.931	2526.34
714.119	2507.91
714.306	2493.57
714.494	2446.47
714.682	2608.26
714.869	2546.82
715.057	2425.99
715.244	2385.03
715.432	2495.62
715.619	2354.31
715.807	2479.24
715.994	2462.85
716.182	2487.43
716.369	2374.79
716.556	2487.43
716.744	2256.01
716.931	2339.97
717.119	2450.57
717.306	2358.41
717.493	2444.42
717.681	2356.36
717.868	2315.4
718.055	2376.84
718.242	2389.13
718.43	2323.59
718.617	2374.79
718.804	2454.66
718.991	2274.44
719.179	2356.36
719.366	2331.78
719.553	2325.64
719.74	2221.19
719.927	2299.02
720.114	2149.51
720.301	2153.61
720.488	2210.95
720.676	2319.5
720.863	2323.59
721.05	2319.5
721.237	2241.67
721.424	2260.1
721.611	2210.95
721.798	2323.59
721.985	2104.46
722.172	2131.08
722.358	2112.65
722.545	2210.95
722.732	2221.19
722.919	2194.57
723.106	2139.27
723.293	2133.13
723.48	2129.03
723.667	2118.79
723.853	2032.78
724.04	2022.54
724.227	2102.41
724.414	2163.85
724.6	2178.19
724.787	2030.73
724.974	2012.3
725.161	2077.83
725.347	1965.2
725.534	2063.5
725.72	2047.12
725.907	2094.22
726.094	2159.75
726.28	2055.31
726.467	2045.07
726.653	2059.4
726.84	2049.16
727.027	2178.19
727.213	1993.87
727.4	1985.68
727.586	1963.15
727.773	1987.72
727.959	1934.48
728.145	1987.72
728.332	1907.85
728.518	1971.34
728.705	1969.29
728.891	1780.88
729.077	1916.05
729.264	1774.74
729.45	1932.43
729.636	1983.63
729.823	1963.15
730.009	1877.13
730.195	1916.05
730.382	2049.16
730.568	1827.98
730.754	1787.02
730.94	1877.13
731.126	2002.06
731.313	1881.23
731.499	1870.99
731.685	1901.71
731.871	1901.71
732.057	1856.65
732.243	1819.79
732.429	1901.71
732.615	1832.08
732.801	1877.13
732.987	1852.56
733.173	1852.56
733.359	1780.88
733.545	1746.06
733.731	1766.54
733.917	1840.27
734.103	1846.41
734.289	1911.95
734.475	1735.82
734.661	1766.54
734.847	1670.29
735.033	1764.5
735.219	1741.97
735.404	1707.15
735.59	1678.48
735.776	1799.31
735.962	1741.97
736.148	1721.49
736.333	1686.67
736.519	1713.3
736.705	1725.58
736.89	1692.82
737.076	1721.49
737.262	1721.49
737.447	1594.51
737.633	1676.43
737.819	1711.25
738.004	1750.16
738.19	1565.84
738.375	1676.43
738.561	1834.13
738.747	1635.47
738.932	1684.62
739.118	1692.82
739.303	1596.56
739.489	1629.33
739.674	1571.99
739.859	1608.85
740.045	1627.28
740.23	1600.66
740.416	1584.27
740.601	1588.37
740.786	1475.73
740.972	1512.6
741.157	1578.13
741.342	1471.64
741.528	1537.17
741.713	1649.81
741.898	1528.98
742.084	1533.08
742.269	1512.6
742.454	1520.79
742.639	1399.96
742.824	1549.46
743.01	1459.35
743.195	1531.03
743.38	1385.62
743.565	1522.84
743.75	1418.39
743.935	1473.68
744.12	1438.87
744.305	1373.33
744.49	1385.62
744.675	1520.79
744.86	1479.83
745.045	1350.81
745.23	1426.58
745.415	1440.92
745.6	1455.25
745.785	1369.24
745.97	1440.92
746.155	1471.64
746.34	1389.72
746.525	1356.95
746.71	1342.61
746.895	1258.65
747.079	1324.18
747.264	1332.37
747.449	1393.81
747.634	1268.89
747.819	1389.72
748.003	1338.52
748.188	1236.12
748.373	1320.09
748.557	1221.78
748.742	1180.82
748.927	1283.22
749.111	1234.07
749.296	1225.88
749.481	1160.34
749.665	1266.84
749.85	1164.44
750.034	1324.18
750.219	1254.55
750.404	1197.21
750.588	1213.59
750.773	1092.76
750.957	1211.54
751.141	1184.92
751.326	1158.3
751.51	1088.67
751.695	1168.54
751.879	1016.99
752.064	1160.34
752.248	1137.82
752.432	1176.73
752.617	1098.91
752.801	1090.71
752.985	973.98
753.17	1082.52
753.354	1111.19
753.538	1000.6
753.722	1074.33
753.907	1006.75
754.091	1014.94
754.275	1117.34
754.459	965.79
754.643	1057.95
754.828	947.36
755.012	1029.27
755.196	1012.89
755.38	1021.08
755.564	910.49
755.748	883.87
755.932	935.07
756.116	918.68
756.3	961.69
756.484	910.49
756.668	924.83
756.852	959.64
757.036	902.3
757.22	881.82
757.404	939.16
757.588	914.59
757.772	877.73
757.956	851.1
758.14	892.06
758.323	826.53
758.507	971.93
758.691	902.3
758.875	834.72
759.059	873.63
759.242	795.81
759.426	959.64
759.61	857.25
759.794	926.88
759.977	939.16
760.161	865.44
760.345	881.82
760.528	851.1
760.712	779.42
760.895	851.1
761.079	797.85
761.263	820.38
761.446	771.23
761.63	744.61
761.813	812.19
761.997	781.47
762.18	781.47
762.364	769.18
762.547	650.4
762.731	709.79
762.914	791.71
763.098	816.29
763.281	789.66
763.464	758.94
763.648	763.04
763.831	754.85
764.015	726.18
764.198	767.13
764.381	732.32
764.564	771.23
764.748	771.23
764.931	662.69
765.114	685.22
765.297	812.19
765.481	681.12
765.664	730.27
765.847	687.26
766.03	636.06
766.213	685.22
766.397	703.65
766.58	717.98
766.763	734.37
766.946	619.68
767.129	742.56
767.312	629.92
767.495	652.45
767.678	660.64
767.861	652.45
768.044	685.22
768.227	607.39
768.41	662.69
768.593	679.07
768.776	652.45
768.959	703.65
769.142	701.6
769.324	660.64
769.507	652.45
769.69	609.44
769.873	578.72
770.056	695.46
770.239	654.5
770.421	650.4
770.604	629.92
770.787	621.73
770.97	724.13
771.152	554.15
771.335	578.72
771.518	603.3
771.7	642.21
771.883	685.22
772.066	601.25
772.248	660.64
772.431	548
772.613	652.45
772.796	570.53
772.978	554.15
773.161	670.88
773.343	586.91
773.526	550.05
773.708	539.81
773.891	525.47
774.073	554.15
774.256	558.24
774.438	644.26
774.621	545.95
774.803	603.3
774.985	631.97
775.168	566.43
775.35	545.95
775.532	507.04
775.715	507.04
775.897	570.53
776.079	509.09
776.261	486.56
776.444	558.24
776.626	531.62
776.808	486.56
776.99	492.71
777.173	382.12
777.355	476.32
777.537	459.94
777.719	488.61
777.901	498.85
778.083	457.89
778.265	496.8
778.447	525.47
778.629	455.84
778.811	406.69
778.993	517.28
779.175	488.61
779.357	451.75
779.539	466.08
779.721	476.32
779.903	513.19
780.085	429.22
780.267	492.71
780.449	398.5
780.631	496.8
780.812	529.57
780.994	414.88
781.176	423.08
781.358	402.6
781.54	464.04
781.721	466.08
781.903	507.04
782.085	451.75
782.267	451.75
782.448	408.74
782.63	406.69
782.812	396.45
782.993	445.6
783.175	464.04
783.357	390.31
783.538	392.36
783.72	343.21
783.901	375.97
784.083	341.16
784.264	287.91
784.446	341.16
784.627	335.01
784.809	439.46
784.99	406.69
785.172	332.97
785.353	382.12
785.535	312.49
785.716	343.21
785.897	314.53
786.079	390.31
786.26	390.31
786.441	271.53
786.623	269.48
786.804	369.83
786.985	388.26
787.167	302.25
787.348	335.01
787.529	375.97
787.71	343.21
787.891	308.39
788.073	218.28
788.254	283.81
788.435	324.77
788.616	197.8
788.797	244.9
788.978	156.84
789.159	246.95
789.34	320.68
789.522	322.73
789.703	255.14
789.884	271.53
790.065	203.94
790.246	320.68
790.427	287.91
790.607	261.29
790.788	226.47
790.969	244.9
791.15	359.59
791.331	335.01
791.512	263.33
791.693	275.62
791.874	226.47
792.054	283.81
792.235	259.24
792.416	179.37
792.597	324.77
792.778	240.81
792.958	316.58
793.139	210.09
793.32	312.49
793.5	220.33
793.681	267.43
793.862	201.9
794.042	261.29
794.223	234.66
794.404	222.38
794.584	212.14
794.765	259.24
794.945	242.85
795.126	300.2
795.306	246.95
795.487	203.94
795.667	203.94
795.848	283.81
796.028	236.71
796.209	208.04
796.389	218.28
796.57	255.14
796.75	173.22
796.93	240.81
797.111	267.43
797.291	195.75
797.471	144.55
797.652	79.02
797.832	253.09
798.012	271.53
798.192	218.28
798.373	203.94
798.553	171.18
798.733	296.1
798.913	126.12
799.093	119.98
799.274	171.18
799.454	240.81
799.634	208.04
799.814	169.13
799.994	238.76
800.174	277.67
800.354	160.94
800.534	142.5
800.714	263.33
800.894	136.36
801.074	119.98
801.254	173.22
801.434	230.57
801.614	189.61
801.794	177.32
801.974	879.77
802.154	144.55
802.334	167.08
802.514	152.74
802.693	144.55
802.873	212.14
803.053	234.66
803.233	173.22
803.413	150.7
803.592	146.6
803.772	165.03
803.952	142.5
804.131	113.83
804.311	224.42
804.491	103.59
804.67	148.65
804.85	177.32
805.03	179.37
805.209	193.7
805.389	146.6
805.568	154.79
805.748	109.74
805.928	177.32
806.107	222.38
806.287	195.75
806.466	167.08
806.646	173.22
806.825	173.22
807.004	136.36
807.184	179.37
807.363	218.28
807.543	171.18
807.722	185.51
807.901	156.84
808.081	156.84
808.26	87.21
808.439	203.94
808.619	103.59
808.798	169.13
808.977	189.61
809.156	140.46
809.336	107.69
809.515	158.89
809.694	74.92
809.873	162.98
810.052	140.46
810.231	210.09
810.411	132.26
810.59	177.32
810.769	95.4
810.948	177.32
811.127	119.98
811.306	87.21
811.485	152.74
811.664	138.41
811.843	136.36
812.022	113.83
812.201	85.16
812.38	175.27
812.559	154.79
812.737	162.98
812.916	103.59
813.095	40.11
813.274	150.7
813.453	113.83
813.632	154.79
813.811	109.74
813.989	136.36
814.168	195.75
814.347	142.5
814.526	56.49
814.704	187.56
814.883	165.03
815.062	126.12
815.24	144.55
815.419	144.55
815.598	79.02
815.776	46.25
815.955	142.5
816.133	29.87
816.312	119.98
816.49	64.68
816.669	107.69
816.847	89.26
817.026	103.59
817.204	97.45
817.383	105.64
817.561	21.67
817.74	126.12
817.918	142.5
818.097	101.55
818.275	25.77
818.453	107.69
818.632	158.89
818.81	158.89
818.988	40.11
819.167	17.58
819.345	56.49
819.523	93.35
819.701	50.35
819.879	48.3
820.058	109.74
820.236	31.91
820.414	74.92
820.592	54.44
820.77	105.64
820.948	128.17
821.127	-2.9
821.305	25.77
821.483	136.36
821.661	113.83
821.839	40.11
822.017	146.6
822.195	40.11
822.373	183.46
822.551	101.55
822.729	142.5
822.907	62.63
823.085	76.97
823.262	25.77
823.44	105.64
823.618	95.4
823.796	99.5
823.974	15.53
824.152	126.12
824.329	89.26
824.507	9.39
824.685	113.83
824.863	64.68
825.04	122.02
825.218	119.98
825.396	119.98
825.574	62.63
825.751	119.98
825.929	158.89
826.107	29.87
826.284	132.26
826.462	128.17
826.639	62.63
826.817	11.43
826.994	107.69
827.172	46.25
827.349	83.11
827.527	113.83
827.704	25.77
827.882	89.26
828.059	89.26
828.237	76.97
828.414	144.55
828.591	23.72
828.769	119.98
828.946	64.68
829.124	46.25
829.301	111.78
829.478	64.68
829.655	48.3
829.833	79.02
830.01	17.58
830.187	15.53
830.364	99.5
830.542	128.17
830.719	99.5
830.896	142.5
831.073	107.69
831.25	87.21
831.427	72.87
831.604	76.97
831.782	17.58
831.959	66.73
832.136	-2.9
832.313	79.02
832.49	70.83
832.667	60.59
832.844	103.59
833.021	89.26
833.198	48.3
833.374	79.02
833.551	95.4
833.728	83.11
833.905	1.19
834.082	56.49
834.259	74.92
834.436	103.59
834.612	19.63
834.789	79.02
834.966	87.21
835.143	130.22
835.319	62.63
835.496	58.54
835.673	33.96
835.85	136.36
836.026	48.3
836.203	25.77
836.38	50.35
836.556	21.67
836.733	76.97
836.909	72.87
837.086	56.49
837.262	62.63
837.439	111.78
837.616	21.67
837.792	85.16
837.968	31.91
838.145	-11.09
838.321	38.06
838.498	111.78
838.674	138.41
838.851	70.83
839.027	21.67
839.203	54.44
839.38	40.11
839.556	5.29
839.732	70.83
839.909	66.73
840.085	85.16
840.261	-11.09
840.437	-0.85
840.614	-50
840.79	119.98
840.966	64.68
841.142	21.67
841.318	38.06
841.494	117.93
841.671	97.45
841.847	38.06
842.023	99.5
842.199	79.02
842.375	119.98
842.551	-27.48
842.727	-19.29
842.903	58.54
843.079	56.49
843.255	72.87
843.431	99.5
843.607	46.25
843.783	-39.76
843.959	130.22
844.134	70.83
844.31	119.98
844.486	54.44
844.662	23.72
844.838	85.16
845.013	60.59
845.189	46.25
845.365	60.59
845.541	33.96
845.716	-19.29
845.892	64.68
846.068	40.11
846.244	62.63
846.419	64.68
846.595	64.68
846.77	5.29
846.946	50.35
847.122	46.25
847.297	-11.09
847.473	64.68
847.648	36.01
847.824	111.78
847.999	5.29
848.175	25.77
848.35	-0.85
848.526	113.83
848.701	48.3
848.876	79.02
849.052	-2.9
849.227	5.29
849.403	76.97
849.578	-11.09
849.753	58.54
849.929	66.73
850.104	-2.9
850.279	21.67
850.454	79.02
850.63	119.98
850.805	101.55
850.98	148.65
851.155	56.49
851.33	72.87
851.505	-64.34
851.681	72.87
851.856	-41.81
852.031	-11.09
852.206	15.53
852.381	-11.09
852.556	62.63
852.731	29.87
852.906	62.63
853.081	119.98
853.256	124.07
853.431	38.06
853.606	3.24
853.781	31.91
853.956	-76.63
854.131	38.06
854.305	25.77
854.48	29.87
854.655	56.49
854.83	-23.38
855.005	48.3
855.18	50.35
855.354	99.5
855.529	54.44
855.704	5.29
855.879	29.87
856.053	38.06
856.228	54.44
856.403	23.72
856.577	95.4
856.752	68.78
856.926	50.35
857.101	79.02
857.276	19.63
857.45	-9.05
857.625	31.91
857.799	91.31
857.974	64.68
858.148	1.19
858.323	113.83
858.497	7.34
858.672	52.39
858.846	101.55
859.02	40.11
859.195	-7
859.369	-19.29
859.543	29.87
859.718	56.49
859.892	-2.9
860.066	5.29
860.241	126.12
860.415	-7
860.589	-2.9
860.763	7.34
860.938	-13.14
861.112	13.48
861.286	31.91
861.46	48.3
861.634	-19.29
861.808	107.69
861.982	31.91
862.157	-9.05
862.331	-0.85
862.505	-60.24
862.679	87.21
862.853	-25.43
863.027	40.11
863.201	89.26
863.375	36.01
863.549	-19.29
863.722	5.29
863.896	72.87
864.07	36.01
864.244	64.68
864.418	-7
864.592	70.83
864.766	-15.19
864.939	95.4
865.113	31.91
865.287	21.67
865.461	-43.86
865.634	79.02
865.808	-43.86
865.982	60.59
866.156	29.87
866.329	13.48
866.503	46.25
866.676	40.11
866.85	25.77
867.024	15.53
867.197	60.59
867.371	7.34
867.544	13.48
867.718	70.83
867.891	46.25
868.065	38.06
868.238	56.49
868.412	70.83
868.585	9.39
868.759	-33.62
868.932	-21.33
869.105	-29.52
869.279	-60.24
869.452	-19.29
869.625	13.48
869.799	-4.95
869.972	-52.05
870.145	-58.2
870.319	25.77
870.492	-52.05
870.665	-29.52
870.838	70.83
871.011	-60.24
871.185	64.68
871.358	-19.29
871.531	52.39
871.704	54.44
871.877	-7
872.05	-52.05
872.223	50.35
872.396	13.48
872.569	42.15
872.742	-45.91
872.915	33.96
873.088	1.19
873.261	5.29
873.434	21.67
873.607	72.87
873.78	62.63
873.953	25.77
874.126	58.54
874.299	97.45
874.471	-2.9
874.644	36.01
874.817	-47.96
874.99	70.83
875.163	54.44
875.335	38.06
875.508	29.87
875.681	70.83
875.853	-13.14
876.026	36.01
876.199	91.31
876.371	70.83
876.544	95.4
876.717	-19.29
876.889	115.88
877.062	-2.9
877.234	5.29
877.407	17.58
877.579	105.64
877.752	54.44
877.924	79.02
878.097	13.48
878.269	50.35
878.442	-21.33
878.614	29.87
878.786	-23.38
878.959	9.39
879.131	-2.9
879.303	5.29
879.476	-15.19
879.648	58.54
879.82	-11.09
879.993	-52.05
880.165	-15.19
880.337	23.72
880.509	23.72
880.681	-33.62
880.854	9.39
881.026	29.87
881.198	81.07
881.37	5.29
881.542	15.53
881.714	27.82
881.886	-66.39
882.058	38.06
882.23	-2.9
882.402	42.15
882.574	40.11
882.746	-19.29
882.918	58.54
883.09	119.98
883.262	21.67
883.434	66.73
883.606	-68.44
883.778	15.53
883.95	89.26
884.122	-19.29
884.293	38.06
884.465	31.91
884.637	68.78
884.809	7.34
884.98	70.83
885.152	83.11
885.324	48.3
885.496	17.58
885.667	15.53
885.839	17.58
886.011	64.68
886.182	15.53
886.354	79.02
886.525	-43.86
886.697	23.72
886.869	-15.19
887.04	1.19
887.212	13.48
887.383	48.3
887.555	29.87
887.726	48.3
887.897	-11.09
888.069	62.63
888.24	-11.09
888.412	-27.48
888.583	38.06
888.754	54.44
888.926	-66.39
889.097	-43.86
889.268	-47.96
889.44	-17.24
889.611	-23.38
889.782	-60.24
889.953	-4.95
890.125	95.4
890.296	-25.43
890.467	-19.29
890.638	29.87
890.809	70.83
890.98	-7
891.151	17.58
891.323	58.54
891.494	93.35
891.665	79.02
891.836	33.96
892.007	54.44
892.178	42.15
892.349	-9.05
892.52	48.3
892.691	60.59
892.862	-80.72
893.032	-66.39
893.203	-7
893.374	13.48
893.545	33.96
893.716	-17.24
893.887	29.87
894.057	25.77
894.228	11.43
894.399	-7
894.57	56.49
894.74	-0.85
894.911	54.44
895.082	72.87
895.253	-27.48
895.423	25.77
895.594	-35.67
895.764	25.77
895.935	13.48
896.106	-4.95
896.276	7.34
896.447	46.25
896.617	-52.05
896.788	-19.29
896.958	-11.09
897.129	7.34
897.299	27.82
897.47	-2.9
897.64	-74.58
897.81	58.54
897.981	-17.24
898.151	-78.68
898.322	25.77
898.492	-27.48
898.662	-50
898.832	38.06
899.003	48.3
899.173	25.77
899.343	5.29
899.513	21.67
