Data from USB4F104151__70__14-30-23-600.txt Node

Date: Thu Mar 13 14:30:23 EDT 2025
User: louis
Spectrometer: USB4F10415
Trigger mode: 4
Integration Time (sec): 2.500000E-2
Scans to average: 1
Electric dark correction enabled: true
Nonlinearity correction enabled: false
Boxcar width: 0
XAxis mode: Wavelengths
Number of Pixels in Spectrum: 3648
>>>>>Begin Spectral Data<<<<<
178.204	-136.7
178.424	-136.7
178.644	-136.7
178.864	-148.99
179.084	-173.57
179.304	-50.69
179.524	-22.02
179.744	2.56
179.964	68.09
180.184	-69.12
180.404	29.18
180.624	49.66
180.844	-50.69
181.064	0.51
181.283	29.18
181.503	-15.87
181.723	29.18
181.943	4.61
182.163	80.38
182.383	31.23
182.602	64
182.822	107.01
183.042	53.76
183.262	74.24
183.482	78.33
183.701	-15.87
183.921	-17.92
184.141	45.57
184.361	72.19
184.58	29.18
184.8	61.95
185.02	41.47
185.239	31.23
185.459	4.61
185.679	123.39
185.898	27.14
186.118	8.7
186.338	37.38
186.557	92.67
186.777	8.7
186.997	29.18
187.216	92.67
187.436	98.81
187.655	39.42
187.875	-19.97
188.095	33.28
188.314	94.72
188.534	111.1
188.753	94.72
188.973	137.73
189.192	29.18
189.412	41.47
189.631	70.14
189.851	68.09
190.07	119.29
190.29	-22.02
190.509	4.61
190.729	41.47
190.948	117.25
191.168	190.97
191.387	88.57
191.607	16.9
191.826	113.15
192.045	96.77
192.265	37.38
192.484	74.24
192.704	55.81
192.923	4.61
193.142	88.57
193.362	74.24
193.581	61.95
193.8	98.81
194.02	16.9
194.239	53.76
194.458	25.09
194.678	-11.78
194.897	47.62
195.116	135.68
195.335	-11.78
195.555	98.81
195.774	20.99
195.993	64
196.212	29.18
196.432	-3.58
196.651	12.8
196.87	80.38
197.089	102.91
197.308	45.57
197.528	45.57
197.747	49.66
197.966	94.72
198.185	70.14
198.404	4.61
198.623	96.77
198.842	45.57
199.062	23.04
199.281	86.53
199.5	86.53
199.719	96.77
199.938	-3.58
200.157	45.57
200.376	59.9
200.595	16.9
200.814	29.18
201.033	-26.11
201.252	64
201.471	55.81
201.69	119.29
201.909	86.53
202.128	43.52
202.347	127.49
202.566	45.57
202.785	4.61
203.004	74.24
203.223	96.77
203.442	33.28
203.661	43.52
203.879	37.38
204.098	74.24
204.317	82.43
204.536	76.29
204.755	31.23
204.974	43.52
205.193	31.23
205.411	115.2
205.63	29.18
205.849	29.18
206.068	16.9
206.287	113.15
206.505	82.43
206.724	25.09
206.943	39.42
207.162	61.95
207.381	45.57
207.599	-17.92
207.818	100.86
208.037	-17.92
208.255	0.51
208.474	12.8
208.693	61.95
208.911	80.38
209.13	119.29
209.349	111.1
209.567	25.09
209.786	25.09
210.005	61.95
210.223	0.51
210.442	4.61
210.661	53.76
210.879	41.47
211.098	16.9
211.316	94.72
211.535	102.91
211.753	12.8
211.972	94.72
212.191	6.66
212.409	37.38
212.628	94.72
212.846	14.85
213.065	133.63
213.283	45.57
213.502	29.18
213.72	25.09
213.938	4.61
214.157	35.33
214.375	55.81
214.594	12.8
214.812	29.18
215.031	41.47
215.249	102.91
215.467	47.62
215.686	4.61
215.904	68.09
216.122	-36.35
216.341	55.81
216.559	-17.92
216.778	55.81
216.996	78.33
217.214	66.05
217.432	27.14
217.651	27.14
217.869	37.38
218.087	45.57
218.306	-36.35
218.524	45.57
218.742	-3.58
218.96	-17.92
219.179	49.66
219.397	8.7
219.615	127.49
219.833	53.76
220.051	31.23
220.27	2.56
220.488	39.42
220.706	41.47
220.924	-7.68
221.142	4.61
221.36	18.94
221.578	94.72
221.796	18.94
222.015	27.14
222.233	70.14
222.451	123.39
222.669	31.23
222.887	137.73
223.105	-1.54
223.323	20.99
223.541	53.76
223.759	33.28
223.977	61.95
224.195	137.73
224.413	119.29
224.631	31.23
224.849	61.95
225.067	55.81
225.285	72.19
225.503	53.76
225.721	-54.78
225.939	0.51
226.157	29.18
226.375	96.77
226.592	-15.87
226.81	37.38
227.028	113.15
227.246	78.33
227.464	31.23
227.682	41.47
227.9	80.38
228.117	66.05
228.335	55.81
228.553	49.66
228.771	37.38
228.989	86.53
229.206	61.95
229.424	37.38
229.642	14.85
229.86	102.91
230.077	90.62
230.295	86.53
230.513	-1.54
230.731	74.24
230.948	176.64
231.166	70.14
231.384	70.14
231.601	27.14
231.819	76.29
232.037	57.86
232.254	37.38
232.472	35.33
232.689	37.38
232.907	20.99
233.125	78.33
233.342	94.72
233.56	20.99
233.777	-3.58
233.995	-3.58
234.213	68.09
234.43	4.61
234.648	76.29
234.865	-7.68
235.083	37.38
235.3	-42.5
235.518	45.57
235.735	76.29
235.953	94.72
236.17	88.57
236.388	64
236.605	115.2
236.822	156.16
237.04	55.81
237.257	100.86
237.475	-9.73
237.692	137.73
237.909	45.57
238.127	-11.78
238.344	90.62
238.562	-34.3
238.779	-15.87
238.996	47.62
239.214	-1.54
239.431	23.04
239.648	-3.58
239.865	86.53
240.083	6.66
240.3	-28.16
240.517	-19.97
240.735	49.66
240.952	94.72
241.169	113.15
241.386	72.19
241.603	20.99
241.821	74.24
242.038	102.91
242.255	88.57
242.472	0.51
242.689	37.38
242.907	113.15
243.124	23.04
243.341	59.9
243.558	45.57
243.775	31.23
243.992	39.42
244.209	49.66
244.426	102.91
244.643	98.81
244.86	-9.73
245.078	45.57
245.295	37.38
245.512	8.7
245.729	16.9
245.946	29.18
246.163	47.62
246.38	14.85
246.597	70.14
246.814	78.33
247.031	41.47
247.248	107.01
247.464	14.85
247.681	96.77
247.898	123.39
248.115	4.61
248.332	25.09
248.549	80.38
248.766	27.14
248.983	92.67
249.2	70.14
249.417	20.99
249.633	31.23
249.85	64
250.067	64
250.284	107.01
250.501	66.05
250.717	61.95
250.934	59.9
251.151	119.29
251.368	39.42
251.585	6.66
251.801	68.09
252.018	-34.3
252.235	31.23
252.451	33.28
252.668	104.96
252.885	129.53
253.102	23.04
253.318	-28.16
253.535	-44.54
253.752	70.14
253.968	25.09
254.185	-28.16
254.401	53.76
254.618	45.57
254.835	29.18
255.051	121.34
255.268	88.57
255.484	12.8
255.701	102.91
255.917	66.05
256.134	-24.06
256.351	33.28
256.567	96.77
256.784	20.99
257	53.76
257.217	111.1
257.433	55.81
257.65	111.1
257.866	107.01
258.082	27.14
258.299	20.99
258.515	57.86
258.732	111.1
258.948	61.95
259.165	10.75
259.381	29.18
259.597	20.99
259.814	20.99
260.03	20.99
260.246	20.99
260.463	94.72
260.679	43.52
260.895	20.99
261.112	64
261.328	20.99
261.544	-22.02
261.761	147.97
261.977	47.62
262.193	41.47
262.409	33.28
262.626	-1.54
262.842	96.77
263.058	78.33
263.274	88.57
263.49	74.24
263.707	45.57
263.923	37.38
264.139	-32.26
264.355	109.05
264.571	94.72
264.787	98.81
265.004	119.29
265.22	45.57
265.436	4.61
265.652	57.86
265.868	113.15
266.084	43.52
266.3	49.66
266.516	37.38
266.732	102.91
266.948	74.24
267.164	39.42
267.38	41.47
267.596	16.9
267.812	90.62
268.028	70.14
268.244	-28.16
268.46	51.71
268.676	-48.64
268.892	86.53
269.108	20.99
269.324	10.75
269.54	86.53
269.756	45.57
269.972	137.73
270.188	41.47
270.403	39.42
270.619	31.23
270.835	31.23
271.051	14.85
271.267	-11.78
271.483	86.53
271.698	76.29
271.914	33.28
272.13	29.18
272.346	74.24
272.562	37.38
272.777	57.86
272.993	64
273.209	45.57
273.425	72.19
273.64	45.57
273.856	37.38
274.072	-15.87
274.287	-11.78
274.503	107.01
274.719	4.61
274.934	45.57
275.15	8.7
275.366	-19.97
275.581	-9.73
275.797	16.9
276.012	14.85
276.228	23.04
276.444	29.18
276.659	86.53
276.875	4.61
277.09	6.66
277.306	-17.92
277.521	137.73
277.737	16.9
277.952	66.05
278.168	27.14
278.383	78.33
278.599	47.62
278.814	70.14
279.03	94.72
279.245	78.33
279.461	64
279.676	100.86
279.892	-11.78
280.107	61.95
280.322	-1.54
280.538	64
280.753	53.76
280.969	49.66
281.184	51.71
281.399	49.66
281.615	64
281.83	61.95
282.045	41.47
282.26	45.57
282.476	70.14
282.691	119.29
282.906	31.23
283.122	94.72
283.337	53.76
283.552	6.66
283.767	107.01
283.983	117.25
284.198	16.9
284.413	94.72
284.628	43.52
284.843	111.1
285.058	43.52
285.274	39.42
285.489	29.18
285.704	33.28
285.919	59.9
286.134	78.33
286.349	123.39
286.564	-22.02
286.779	41.47
286.995	31.23
287.21	-19.97
287.425	135.68
287.64	70.14
287.855	45.57
288.07	-28.16
288.285	61.95
288.5	121.34
288.715	45.57
288.93	-5.63
289.145	-48.64
289.36	47.62
289.575	-30.21
289.79	55.81
290.004	20.99
290.219	84.48
290.434	-15.87
290.649	4.61
290.864	102.91
291.079	29.18
291.294	57.86
291.509	135.68
291.724	23.04
291.938	111.1
292.153	88.57
292.368	4.61
292.583	59.9
292.798	107.01
293.012	68.09
293.227	0.51
293.442	2.56
293.657	31.23
293.871	100.86
294.086	78.33
294.301	121.34
294.516	72.19
294.73	57.86
294.945	66.05
295.16	53.76
295.374	78.33
295.589	20.99
295.804	37.38
296.018	53.76
296.233	113.15
296.447	55.81
296.662	8.7
296.877	70.14
297.091	45.57
297.306	80.38
297.52	25.09
297.735	25.09
297.949	100.86
298.164	70.14
298.378	29.18
298.593	37.38
298.807	47.62
299.022	57.86
299.236	76.29
299.451	64
299.665	4.61
299.88	88.57
300.094	45.57
300.309	29.18
300.523	53.76
300.737	64
300.952	98.81
301.166	135.68
301.381	23.04
301.595	-48.64
301.809	61.95
302.024	25.09
302.238	-1.54
302.452	43.52
302.667	90.62
302.881	74.24
303.095	49.66
303.309	94.72
303.524	61.95
303.738	29.18
303.952	33.28
304.166	29.18
304.381	14.85
304.595	82.43
304.809	0.51
305.023	-17.92
305.237	70.14
305.452	70.14
305.666	0.51
305.88	107.01
306.094	70.14
306.308	98.81
306.522	88.57
306.736	98.81
306.95	16.9
307.164	82.43
307.379	37.38
307.593	123.39
307.807	64
308.021	61.95
308.235	53.76
308.449	-60.93
308.663	23.04
308.877	90.62
309.091	86.53
309.305	102.91
309.519	18.94
309.733	78.33
309.947	33.28
310.161	72.19
310.374	39.42
310.588	37.38
310.802	37.38
311.016	-3.58
311.23	53.76
311.444	29.18
311.658	78.33
311.872	20.99
312.085	70.14
312.299	131.58
312.513	37.38
312.727	147.97
312.941	-1.54
313.154	59.9
313.368	8.7
313.582	55.81
313.796	66.05
314.009	20.99
314.223	49.66
314.437	86.53
314.651	45.57
314.864	27.14
315.078	53.76
315.292	25.09
315.505	70.14
315.719	45.57
315.933	98.81
316.146	37.38
316.36	0.51
316.573	84.48
316.787	29.18
317.001	70.14
317.214	-1.54
317.428	-7.68
317.641	31.23
317.855	33.28
318.068	33.28
318.282	33.28
318.495	78.33
318.709	90.62
318.922	0.51
319.136	82.43
319.349	61.95
319.563	8.7
319.776	45.57
319.99	-3.58
320.203	111.1
320.417	-15.87
320.63	72.19
320.843	135.68
321.057	-1.54
321.27	78.33
321.483	139.77
321.697	119.29
321.91	27.14
322.124	137.73
322.337	70.14
322.55	-3.58
322.763	59.9
322.977	23.04
323.19	-73.21
323.403	31.23
323.617	-3.58
323.83	86.53
324.043	49.66
324.256	162.3
324.469	0.51
324.683	152.06
324.896	90.62
325.109	102.91
325.322	29.18
325.535	127.49
325.748	72.19
325.962	14.85
326.175	18.94
326.388	102.91
326.601	94.72
326.814	57.86
327.027	47.62
327.24	96.77
327.453	0.51
327.666	111.1
327.879	45.57
328.092	53.76
328.305	74.24
328.518	55.81
328.731	23.04
328.944	66.05
329.157	61.95
329.37	86.53
329.583	107.01
329.796	88.57
330.009	51.71
330.222	123.39
330.435	61.95
330.648	-34.3
330.861	37.38
331.073	98.81
331.286	72.19
331.499	96.77
331.712	47.62
331.925	94.72
332.138	119.29
332.35	74.24
332.563	57.86
332.776	113.15
332.989	20.99
333.202	123.39
333.414	94.72
333.627	41.47
333.84	94.72
334.053	90.62
334.265	-28.16
334.478	-3.58
334.691	25.09
334.903	70.14
335.116	-24.06
335.329	39.42
335.541	61.95
335.754	127.49
335.966	-34.3
336.179	45.57
336.392	45.57
336.604	39.42
336.817	70.14
337.029	135.68
337.242	49.66
337.454	135.68
337.667	61.95
337.88	119.29
338.092	121.34
338.305	137.73
338.517	70.14
338.729	16.9
338.942	31.23
339.154	-1.54
339.367	29.18
339.579	78.33
339.792	78.33
340.004	119.29
340.217	14.85
340.429	129.53
340.641	-24.06
340.854	31.23
341.066	2.56
341.278	156.16
341.491	80.38
341.703	102.91
341.915	4.61
342.128	45.57
342.34	64
342.552	12.8
342.764	8.7
342.977	61.95
343.189	57.86
343.401	90.62
343.613	-1.54
343.826	31.23
344.038	37.38
344.25	45.57
344.462	37.38
344.674	78.33
344.886	74.24
345.099	53.76
345.311	29.18
345.523	113.15
345.735	72.19
345.947	102.91
346.159	35.33
346.371	49.66
346.583	45.57
346.795	143.87
347.007	45.57
347.219	72.19
347.431	98.81
347.643	70.14
347.855	111.1
348.067	162.3
348.279	86.53
348.491	113.15
348.703	16.9
348.915	25.09
349.127	47.62
349.339	92.67
349.551	145.92
349.763	78.33
349.975	59.9
350.187	115.2
350.399	61.95
350.61	109.05
350.822	-36.35
351.034	78.33
351.246	41.47
351.458	96.77
351.669	57.86
351.881	111.1
352.093	70.14
352.305	66.05
352.517	61.95
352.728	72.19
352.94	100.86
353.152	25.09
353.363	84.48
353.575	88.57
353.787	100.86
353.999	86.53
354.21	139.77
354.422	25.09
354.633	139.77
354.845	12.8
355.057	29.18
355.268	33.28
355.48	51.71
355.692	45.57
355.903	61.95
356.115	59.9
356.326	4.61
356.538	64
356.749	80.38
356.961	127.49
357.172	139.77
357.384	-1.54
357.595	129.53
357.807	14.85
358.018	-28.16
358.23	92.67
358.441	166.4
358.653	111.1
358.864	102.91
359.075	70.14
359.287	76.29
359.498	135.68
359.709	64
359.921	61.95
360.132	57.86
360.344	86.53
360.555	43.52
360.766	72.19
360.977	49.66
361.189	82.43
361.4	64
361.611	135.68
361.823	70.14
362.034	113.15
362.245	53.76
362.456	76.29
362.667	78.33
362.879	88.57
363.09	74.24
363.301	14.85
363.512	57.86
363.723	-5.63
363.935	96.77
364.146	61.95
364.357	-50.69
364.568	78.33
364.779	16.9
364.99	96.77
365.201	4.61
365.412	74.24
365.623	23.04
365.834	41.47
366.045	119.29
366.256	47.62
366.467	31.23
366.678	53.76
366.889	102.91
367.1	133.63
367.311	125.44
367.522	107.01
367.733	88.57
367.944	80.38
368.155	66.05
368.366	119.29
368.577	119.29
368.788	53.76
368.999	45.57
369.209	31.23
369.42	94.72
369.631	127.49
369.842	45.57
370.053	47.62
370.264	64
370.474	2.56
370.685	64
370.896	113.15
371.107	121.34
371.317	49.66
371.528	102.91
371.739	55.81
371.95	104.96
372.16	14.85
372.371	107.01
372.582	6.66
372.792	121.34
373.003	70.14
373.214	4.61
373.424	55.81
373.635	61.95
373.846	129.53
374.056	55.81
374.267	45.57
374.477	41.47
374.688	6.66
374.898	31.23
375.109	47.62
375.319	55.81
375.53	90.62
375.74	80.38
375.951	47.62
376.161	129.53
376.372	53.76
376.582	35.33
376.793	127.49
377.003	66.05
377.214	119.29
377.424	137.73
377.635	37.38
377.845	-5.63
378.055	131.58
378.266	-32.26
378.476	121.34
378.686	41.47
378.897	121.34
379.107	115.2
379.317	76.29
379.528	23.04
379.738	74.24
379.948	2.56
380.158	111.1
380.369	111.1
380.579	70.14
380.789	37.38
380.999	102.91
381.21	64
381.42	72.19
381.63	64
381.84	96.77
382.05	113.15
382.261	88.57
382.471	70.14
382.681	12.8
382.891	72.19
383.101	104.96
383.311	45.57
383.521	49.66
383.731	78.33
383.941	82.43
384.151	98.81
384.361	115.2
384.571	92.67
384.781	61.95
384.991	143.87
385.201	166.4
385.411	96.77
385.621	70.14
385.831	98.81
386.041	119.29
386.251	66.05
386.461	102.91
386.671	39.42
386.881	107.01
387.091	104.96
387.301	86.53
387.511	53.76
387.72	96.77
387.93	121.34
388.14	94.72
388.35	68.09
388.56	104.96
388.769	113.15
388.979	31.23
389.189	80.38
389.399	84.48
389.609	49.66
389.818	45.57
390.028	72.19
390.238	102.91
390.447	76.29
390.657	121.34
390.867	70.14
391.076	107.01
391.286	12.8
391.496	113.15
391.705	119.29
391.915	117.25
392.125	156.16
392.334	88.57
392.544	154.11
392.753	61.95
392.963	74.24
393.172	145.92
393.382	29.18
393.591	117.25
393.801	55.81
394.01	135.68
394.22	152.06
394.429	41.47
394.639	78.33
394.848	129.53
395.058	102.91
395.267	72.19
395.477	55.81
395.686	102.91
395.895	162.3
396.105	201.21
396.314	84.48
396.524	211.45
396.733	166.4
396.942	139.77
397.152	127.49
397.361	160.25
397.57	152.06
397.78	100.86
397.989	145.92
398.198	176.64
398.407	98.81
398.617	53.76
398.826	184.83
399.035	72.19
399.244	184.83
399.453	135.68
399.663	129.53
399.872	168.45
400.081	143.87
400.29	211.45
400.499	111.1
400.708	145.92
400.917	127.49
401.127	78.33
401.336	61.95
401.545	217.6
401.754	98.81
401.963	170.49
402.172	86.53
402.381	137.73
402.59	164.35
402.799	119.29
403.008	152.06
403.217	137.73
403.426	154.11
403.635	145.92
403.844	158.21
404.053	154.11
404.262	156.16
404.471	201.21
404.68	152.06
404.888	164.35
405.097	152.06
405.306	168.45
405.515	211.45
405.724	201.21
405.933	244.22
406.142	225.79
406.35	315.9
406.559	172.54
406.768	211.45
406.977	305.66
407.185	258.56
407.394	193.02
407.603	266.75
407.812	258.56
408.02	356.86
408.229	201.21
408.438	303.61
408.646	242.17
408.855	332.28
409.064	276.99
409.272	291.32
409.481	328.19
409.69	313.85
409.898	330.23
410.107	320
410.315	373.24
410.524	401.91
410.733	467.45
410.941	381.43
411.15	369.15
411.358	481.78
411.567	578.04
411.775	442.87
411.984	500.22
412.192	520.7
412.401	520.7
412.609	674.29
412.818	631.29
413.026	561.66
413.234	588.28
413.443	530.94
413.651	561.66
413.86	596.47
414.068	756.21
414.276	784.88
414.485	725.49
414.693	739.83
414.901	797.17
415.11	887.28
415.318	836.08
415.526	774.64
415.734	899.57
415.943	836.08
416.151	938.48
416.359	926.19
416.567	1077.74
416.776	1022.45
416.984	1102.32
417.192	1141.23
417.4	1059.31
417.608	1145.33
417.817	1276.4
418.025	1380.84
418.233	1389.03
418.441	1286.64
418.649	1393.13
418.857	1399.27
419.065	1473
419.273	1520.1
419.481	1438.19
419.689	1718.76
419.897	1712.61
420.105	1757.67
420.313	1800.68
420.521	1954.27
420.729	1896.93
420.937	1917.41
421.145	2052.58
421.353	2105.82
421.561	2236.89
421.769	2257.37
421.977	2458.07
422.185	2308.57
422.393	2511.32
422.601	2742.74
422.809	2486.75
423.017	2552.28
423.224	2750.93
423.432	2957.78
423.64	2818.52
423.848	3146.19
424.056	3054.03
424.263	3387.85
424.471	3117.52
424.679	3369.42
424.887	3396.04
425.094	3576.27
425.302	3602.89
425.51	3862.98
425.718	3764.68
425.925	3879.36
426.133	4086.21
426.341	4291.01
426.548	4481.47
426.756	4477.37
426.964	4454.84
427.171	4821.43
427.379	4829.62
427.586	4964.79
427.794	5194.16
428.001	5407.15
428.209	5677.48
428.417	5511.6
428.624	5888.42
428.832	5876.13
429.039	5906.85
429.247	5853.61
429.454	6431.13
429.662	6973.85
429.869	6398.37
430.076	6683.03
430.284	6601.12
430.491	6947.22
430.699	7453.07
430.906	7248.27
431.114	7496.08
431.321	7534.99
431.528	7745.93
431.736	8065.41
431.943	8757.63
432.15	8278.4
432.358	8450.43
432.565	9148.79
432.772	8964.47
432.979	9429.36
433.187	9705.84
433.394	9648.49
433.601	10154.34
433.808	10428.77
434.016	10373.47
434.223	10654.05
434.43	11305.3
434.637	10979.67
434.844	11741.52
435.052	11919.69
435.259	11911.5
435.466	11764.04
435.673	12015.94
435.88	12583.23
436.087	13146.42
436.294	13310.26
436.501	12947.77
436.708	13500.72
436.915	13664.56
437.122	14197.03
437.329	14186.79
437.537	14825.76
437.743	15165.72
437.95	14752.03
438.157	15417.62
438.364	16103.69
438.571	15778.06
438.778	15974.67
438.985	17729.78
439.192	16974.08
439.399	17518.84
439.606	16857.34
439.813	18161.9
440.02	19079.39
440.227	18675.94
440.433	18503.91
440.64	19144.92
440.847	18952.41
441.054	19304.67
441.261	20814.02
441.467	20164.81
441.674	20947.14
441.881	21809.33
442.088	21639.35
442.294	21270.72
442.501	21946.55
442.708	22370.47
442.914	23105.7
443.121	24150.16
443.328	23697.56
443.534	25186.43
443.741	24463.5
443.948	23951.51
444.154	26042.48
444.361	25690.23
444.568	25866.36
444.774	26040.43
444.981	26282.09
445.187	27070.56
445.394	27986
445.6	27981.91
445.807	30543.92
446.013	29321.28
446.22	29552.7
446.426	30484.53
446.633	31045.67
446.839	32344.08
447.046	30957.61
447.252	32460.82
447.459	32538.64
447.665	32585.74
447.871	33910.78
448.078	35241.96
448.284	33318.92
448.491	34574.32
448.697	36020.19
448.903	36274.13
449.11	36523.99
449.316	35932.12
449.522	36544.47
449.728	37621.7
449.935	37513.16
450.141	37603.27
450.347	38549.43
450.553	37398.47
450.76	37887.93
450.966	38758.32
451.172	38891.44
451.378	39405.48
451.584	38774.7
451.791	39870.37
451.997	39554.98
452.203	40447.89
452.409	40292.25
452.615	40042.4
452.821	38723.51
453.027	37756.86
453.233	40331.16
453.44	38649.78
453.646	38522.8
453.852	39067.56
454.058	39770.02
454.264	38467.51
454.47	39286.7
454.676	38162.36
454.882	39534.5
455.088	36485.08
455.294	36896.72
455.5	37267.4
455.705	37410.76
455.911	35954.65
456.117	35436.52
456.323	34791.41
456.529	32925.71
456.735	34625.52
456.941	33835
457.147	33058.82
457.352	32014.36
457.558	31615.01
457.764	31850.52
457.97	31483.94
458.176	30083.12
458.381	30124.08
458.587	28678.22
458.793	28878.92
458.999	27525.21
459.204	29546.56
459.41	28524.62
459.616	26843.24
459.821	26484.84
460.027	26433.64
460.233	26081.39
460.438	25051.27
460.644	24891.52
460.85	23693.46
461.055	23584.92
461.261	23197.85
461.466	21618.87
461.672	20754.63
461.878	22331.56
462.083	20883.65
462.289	20416.71
462.494	20191.44
462.7	19632.34
462.905	18921.7
463.111	19630.29
463.316	19640.53
463.522	19423.45
463.727	19296.47
463.932	19257.56
464.138	18798.82
464.343	18876.64
464.549	18448.61
464.754	18790.63
464.959	18878.69
465.165	18692.32
465.37	18153.71
465.575	17443.06
465.781	18030.83
465.986	18086.12
466.191	17522.93
466.397	17033.47
466.602	16388.36
466.807	16822.53
467.012	17037.56
467.218	16668.93
467.423	16486.66
467.628	16517.38
467.833	17301.75
468.038	16609.54
468.244	16273.67
468.449	16910.59
468.654	16404.74
468.859	16148.75
469.064	15859.98
469.269	15462.68
469.474	15413.52
469.679	16083.21
469.885	15382.81
470.09	15589.65
470.295	15413.52
470.5	15202.58
470.705	15139.1
470.91	14745.89
471.115	14602.53
471.32	14950.68
471.525	14985.5
471.73	14516.51
471.935	14276.9
472.139	13885.74
472.344	14035.24
472.549	14229.8
472.754	13869.36
472.959	13594.93
473.164	13193.53
473.369	12931.39
473.574	13510.96
473.778	13463.86
473.983	13189.43
474.188	12947.77
474.393	12427.59
474.598	12458.31
474.802	12579.14
475.007	12493.12
475.212	12269.89
475.417	12114.25
475.621	12069.19
475.826	11956.55
476.031	11743.56
476.235	11559.25
476.44	11589.97
476.645	11397.46
476.849	11542.86
477.054	11561.3
477.259	11186.52
477.463	11090.26
477.668	10834.27
477.872	10953.05
478.077	10856.79
478.282	10580.32
478.486	10588.51
478.691	10373.47
478.895	10484.06
479.1	10500.45
479.304	10549.6
479.509	10049.89
479.713	10238.31
479.918	10113.38
480.122	9941.35
480.326	9793.9
480.531	9947.5
480.735	9800.04
480.94	9634.16
481.144	10125.67
481.348	9671.02
481.553	9918.82
481.757	9396.59
481.961	9750.89
482.166	9879.91
482.37	9634.16
482.574	9476.46
482.778	9654.64
482.983	9709.93
483.187	9638.25
483.391	9623.92
483.595	9435.5
483.8	9589.1
484.004	9572.72
484.208	9650.54
484.412	9625.97
484.616	9343.35
484.821	9531.76
485.025	9474.42
485.229	9433.46
485.433	9343.35
485.637	9507.18
485.841	9345.39
486.045	9574.77
486.249	9507.18
486.453	9326.96
486.657	9345.39
486.861	9460.08
487.065	9163.12
487.269	9304.43
487.473	9056.63
487.677	9435.5
487.881	9517.42
488.085	9392.5
488.289	9603.44
488.493	9286
488.697	9449.84
488.901	9417.07
489.105	9261.43
489.309	9433.46
489.512	9527.66
489.716	9437.55
489.92	9539.95
490.124	9240.95
490.328	9718.12
490.531	9453.94
490.735	9408.88
490.939	9441.65
491.143	9455.98
491.346	9412.98
491.55	9789.8
491.754	9654.64
491.958	9718.12
492.161	9695.6
492.365	9726.32
492.569	9773.42
492.772	9865.58
492.976	9793.9
493.18	9867.63
493.383	9777.51
493.587	9910.63
493.79	9974.12
493.994	9826.67
494.197	10047.85
494.401	10117.48
494.605	10135.91
494.808	10211.68
495.012	10338.66
495.215	10441.06
495.419	10400.1
495.622	10424.67
495.825	10588.51
496.029	10656.09
496.232	10565.98
496.436	10760.54
496.639	10758.49
496.843	10854.75
497.046	10955.1
497.249	11145.56
497.453	11319.64
497.656	11254.1
497.859	11467.09
498.063	11252.05
498.266	11598.16
498.469	11575.63
498.673	11637.07
498.876	11751.76
499.079	12099.91
499.282	11858.25
499.485	12284.23
499.689	12157.25
499.892	12335.43
500.095	12529.98
500.298	12804.41
500.501	12341.57
500.705	12681.53
500.908	12681.53
501.111	13101.37
501.314	13056.31
501.517	13408.56
501.72	13398.32
501.923	13697.33
502.126	13691.18
502.329	13926.7
502.532	14020.91
502.735	14022.95
502.938	14326.05
503.141	14405.92
503.344	14717.22
503.547	14735.65
503.75	14911.77
503.953	14981.4
504.156	15030.55
504.359	15325.46
504.562	15325.46
504.765	15683.86
504.968	15651.09
505.17	16146.7
505.373	16003.34
505.576	16279.82
505.779	16474.37
505.982	16326.92
506.185	16670.98
506.387	16947.45
506.59	16797.95
506.793	17338.62
506.996	17232.12
507.198	17797.36
507.401	17576.18
507.604	17774.83
507.807	18178.28
508.009	18387.18
508.212	18374.89
508.415	18456.81
508.617	18751.71
508.82	18991.33
509.022	18733.28
509.225	19464.41
509.428	19366.1
509.63	19790.03
509.833	19736.79
510.035	19994.83
510.238	20429
510.44	20535.49
510.643	20543.69
510.845	20887.75
511.048	20633.8
511.25	21094.59
511.453	21213.37
511.655	22032.56
511.858	21743.8
512.06	21917.87
512.262	21989.55
512.465	21964.98
512.667	22548.65
512.87	22661.29
513.072	22921.38
513.274	23466.14
513.477	23263.39
513.679	23670.93
513.881	23662.74
514.084	23636.12
514.286	24068.24
514.488	24139.92
514.69	24885.38
514.893	24686.73
515.095	25088.13
515.297	25223.3
515.499	25331.84
515.701	25739.38
515.904	26060.91
516.106	26065.01
516.308	26318.96
516.51	26228.85
516.712	26810.47
516.914	26916.97
517.116	27482.2
517.318	27426.91
517.52	27580.51
517.722	27584.6
517.925	28055.64
518.127	28018.77
518.329	28242
518.531	28190.8
518.733	28872.78
518.935	28823.62
519.136	28837.96
519.338	29638.72
519.54	29501.5
519.742	29825.08
519.944	30087.22
520.146	30631.98
520.348	30308.4
520.55	30502.96
520.752	30689.32
520.954	31119.4
521.155	30736.43
521.357	30883.88
521.559	31553.57
521.761	31748.12
521.963	31942.68
522.164	31932.44
522.366	32053.27
522.568	31961.11
522.77	32067.61
522.971	32995.34
523.173	32307.22
523.375	32653.33
523.576	32788.49
523.778	32565.26
523.98	32905.23
524.181	33490.94
524.383	32903.18
524.584	33497.09
524.786	33382.4
524.988	33056.78
525.189	33466.37
525.391	33613.82
525.592	33703.93
525.794	34078.71
525.995	33980.41
526.197	33931.26
526.398	33849.34
526.6	34320.37
526.801	34512.88
527.003	34232.31
527.204	34387.96
527.406	34531.31
527.607	34490.35
527.808	34412.53
528.01	34195.45
528.211	34222.07
528.412	34895.85
528.614	34635.76
528.815	34447.35
529.016	34828.27
529.218	34320.37
529.419	34082.81
529.62	34265.08
529.822	34236.41
530.023	34467.83
530.224	34322.42
530.425	34269.17
530.626	34064.38
530.828	34007.03
531.029	34549.74
531.23	34082.81
531.431	33929.21
531.632	34152.44
531.833	34416.63
532.035	34023.42
532.236	33904.63
532.437	34246.65
532.638	33832.96
532.839	34344.95
533.04	34211.83
533.241	33603.58
533.442	34297.84
533.643	33730.56
533.844	33501.18
534.045	33875.96
534.246	33372.16
534.447	33878.01
534.648	33423.36
534.849	34088.95
535.05	32858.12
535.251	33574.91
535.451	33308.68
535.652	33769.47
535.853	33359.87
536.054	33452.03
536.255	33824.76
536.456	33380.35
536.657	33316.87
536.857	33099.78
537.058	33069.06
537.259	33302.53
537.46	32815.12
537.66	32696.33
537.861	33089.54
538.062	32657.42
538.263	32841.74
538.463	32843.79
538.664	32735.24
538.865	32778.25
539.065	32866.31
539.266	32372.75
539.466	33036.3
539.667	32342.03
539.868	32745.48
540.068	32440.34
540.269	32251.92
540.469	32653.33
540.67	32321.55
540.87	32538.64
541.071	32497.68
541.271	32198.68
541.472	32321.55
541.672	32309.27
541.873	32094.23
542.073	31655.96
542.274	32471.06
542.474	32378.9
542.675	31897.63
542.875	32280.6
543.075	32393.23
543.276	31731.74
543.476	32026.65
543.676	31836.19
543.877	31739.93
544.077	31774.75
544.277	31819.8
544.478	32200.72
544.678	32225.3
544.878	31608.86
545.078	31918.1
545.279	31768.6
545.479	31838.23
545.679	32231.44
545.879	31305.76
546.079	31842.33
546.28	31649.82
546.48	31518.75
546.68	31789.08
546.88	31643.68
547.08	31793.18
547.28	31928.34
547.48	31215.65
547.68	31770.65
547.88	31197.22
548.081	32067.61
548.281	31395.87
548.481	31516.7
548.681	32389.14
548.881	31649.82
549.081	31997.98
549.28	31518.75
549.48	32124.95
549.68	31973.4
549.88	32475.15
550.08	31866.91
550.28	31971.35
550.48	32010.26
550.68	32219.16
550.88	31780.89
551.08	31963.16
551.279	32178.2
551.479	31832.09
551.679	32002.07
551.879	32038.94
552.079	32114.71
552.278	31795.23
552.478	31707.16
552.678	32096.28
552.878	32022.55
553.077	32124.95
553.277	31852.57
553.477	32499.73
553.676	32184.34
553.876	32258.07
554.076	32122.9
554.275	32485.39
554.475	31807.51
554.674	32292.88
554.874	32284.69
555.074	32059.41
555.273	32442.38
555.473	32540.69
555.672	32026.65
555.872	32389.14
556.071	32458.77
556.271	32276.5
556.47	32489.49
556.67	32069.65
556.869	32622.61
557.068	32514.06
557.268	32348.18
557.467	32462.86
557.667	32434.19
557.866	32690.19
558.065	32028.7
558.265	32434.19
558.464	32077.85
558.663	32872.46
558.863	32227.35
559.062	33118.21
559.261	32331.79
559.461	32542.74
559.66	32081.94
559.859	32430.1
560.058	32170.01
560.258	32411.67
560.457	32417.81
560.656	32858.12
560.855	32440.34
561.054	32718.86
561.253	32331.79
561.453	33159.17
561.652	32761.87
561.851	32849.93
562.05	32694.29
562.249	32587.79
562.448	32811.02
562.647	32722.96
562.846	32251.92
563.045	32432.15
563.244	32221.2
563.443	32405.52
563.642	32395.28
563.841	32419.86
564.04	32536.59
564.239	32413.71
564.438	32393.23
564.637	32327.7
564.836	32495.63
565.035	31827.99
565.234	32133.14
565.432	31795.23
565.631	32069.65
565.83	32354.32
566.029	31762.46
566.228	32040.98
566.427	32315.41
566.625	31668.25
566.824	31778.84
567.023	31772.7
567.222	31619.1
567.42	31492.13
567.619	31836.19
567.818	31817.75
568.016	31402.02
568.215	32030.74
568.414	31494.18
568.612	31735.84
568.811	31205.41
569.01	31195.17
569.208	30816.3
569.407	31293.47
569.605	30953.51
569.804	30806.06
570.002	30941.22
570.201	31254.56
570.4	30570.54
570.598	30797.87
570.797	30543.92
570.995	30662.7
571.193	30091.32
571.392	30257.2
571.59	30195.76
571.789	30552.11
571.987	30259.25
572.186	30146.61
572.384	30009.4
572.582	30316.59
572.781	30492.72
572.979	29675.58
573.177	29876.28
573.376	29767.74
573.574	29640.76
573.772	29769.79
573.971	29378.62
574.169	29001.8
574.367	29192.26
574.565	29540.41
574.763	29241.41
574.962	29067.33
575.16	29071.43
575.358	29032.52
575.556	28330.06
575.754	29169.73
575.952	28237.91
576.151	28680.27
576.349	28258.38
576.547	28309.58
576.745	28393.55
576.943	28354.64
577.141	28088.4
577.339	28217.43
577.537	28373.07
577.735	27914.33
577.933	27666.52
578.131	27752.54
578.329	27805.78
578.527	27621.47
578.725	27687
578.923	27621.47
579.121	27293.79
579.319	27273.31
579.516	27344.99
579.714	27394.14
579.912	27054.18
580.11	27058.28
580.308	27142.24
580.506	26894.44
580.704	26337.39
580.901	26966.12
581.099	26867.81
581.297	26097.78
581.495	26429.55
581.692	26628.2
581.89	26316.91
582.088	26404.97
582.285	26095.73
582.483	26323.05
582.681	26032.24
582.878	25684.09
583.076	25821.3
583.274	25925.75
583.471	25366.65
583.669	25995.38
583.866	25505.91
584.064	25661.56
584.262	25288.83
584.459	25731.19
584.657	25297.02
584.854	25761.91
585.052	25131.14
585.249	25354.37
585.447	25168
585.644	25202.82
585.841	25311.36
586.039	25032.83
586.236	24893.57
586.434	25055.36
586.631	24920.2
586.828	24768.65
587.026	24909.96
587.223	24604.81
587.42	24639.62
587.618	24758.41
587.815	24371.34
588.012	24461.45
588.21	24469.64
588.407	24727.69
588.604	24469.64
588.801	24193.17
588.999	24459.4
589.196	24277.13
589.393	24336.52
589.59	24090.77
589.787	23924.88
589.984	23718.04
590.182	23957.65
590.379	23607.45
590.576	23701.65
590.773	23998.61
590.97	23847.06
591.167	24000.66
591.364	23654.55
591.561	23781.53
591.758	23441.56
591.955	23718.04
592.152	23693.46
592.349	23273.63
592.546	23384.22
592.743	23556.25
592.94	23226.53
593.137	23302.3
593.334	23459.99
593.531	22917.28
593.727	23218.33
593.924	23589.02
594.121	23187.61
594.318	23310.49
594.515	22923.43
594.712	23398.55
594.908	23152.8
595.105	23128.22
595.302	22866.08
595.499	23244.96
595.696	23031.97
595.892	22943.91
596.089	23150.75
596.286	23111.84
596.482	23077.02
596.679	23226.53
596.876	23433.37
597.072	22945.95
597.269	23113.89
597.466	23048.35
597.662	22945.95
597.859	23040.16
598.055	22923.43
598.252	22827.17
598.448	22775.97
598.645	22737.06
598.841	22882.47
599.038	23193.76
599.234	22861.99
599.431	22927.52
599.627	23115.94
599.824	23236.77
600.02	22642.85
600.217	22991.01
600.413	22872.23
600.609	22972.58
600.806	23072.93
601.002	23363.74
601.198	23093.41
601.395	23206.05
601.591	23064.74
601.787	23451.8
601.984	23169.18
602.18	23224.48
602.376	23087.26
602.572	23498.91
602.769	23138.46
602.965	23306.4
603.161	23369.88
603.357	23240.86
603.553	23468.19
603.75	23492.76
603.946	23177.37
604.142	23711.89
604.338	22921.38
604.534	23347.36
604.73	23369.88
604.926	23410.84
605.122	23472.28
605.318	23552.15
605.514	23517.34
605.71	23668.89
605.906	23722.13
606.102	24125.58
606.298	24117.39
606.494	23513.24
606.69	23654.55
606.886	24250.51
607.082	23599.26
607.278	24361.1
607.474	23871.64
607.67	24354.96
607.866	23955.6
608.062	24236.17
608.257	24129.68
608.453	24279.18
608.649	24215.69
608.845	23922.83
609.041	24498.31
609.236	24314
609.432	24436.88
609.628	24502.41
609.824	24520.84
610.019	24400.01
610.215	24488.07
610.411	24715.4
610.606	24897.67
610.802	24674.44
610.998	24803.46
611.193	24694.92
611.389	24676.49
611.584	24621.19
611.78	24803.46
611.976	24762.5
612.171	24651.91
612.367	25102.46
612.562	24998.02
612.758	24637.58
612.953	24971.39
613.149	25018.5
613.344	24967.3
613.539	25358.46
613.735	25127.04
613.93	25239.68
614.126	24795.27
614.321	25178.24
614.517	25241.73
614.712	25266.3
614.907	24907.91
615.103	25280.64
615.298	25510.01
615.493	25440.38
615.688	24926.34
615.884	25571.45
616.079	24592.52
616.274	25376.89
616.47	24998.02
616.665	25176.19
616.86	25374.84
617.055	25092.23
617.25	25481.34
617.445	25565.31
617.641	24770.69
617.836	24948.87
618.031	25047.17
618.226	25024.64
618.421	25084.03
618.616	25505.91
618.811	24776.84
619.006	25526.39
619.201	24535.18
619.396	25147.52
619.591	24596.62
619.786	24819.85
619.981	24582.28
620.176	24801.41
620.371	24361.1
620.566	24637.58
620.761	24479.88
620.956	24580.23
621.151	24438.92
621.346	24160.4
621.541	23830.68
621.735	24195.21
621.93	23947.41
622.125	23857.3
622.32	23599.26
622.515	24111.25
622.709	23787.67
622.904	23412.89
623.099	23216.29
623.294	23619.74
623.488	22993.06
623.683	23183.52
623.878	22788.26
624.072	23136.41
624.267	23077.02
624.462	22843.56
624.656	22673.57
624.851	22481.06
625.046	22440.11
625.24	22323.37
625.435	22171.82
625.629	22360.23
625.824	21926.07
626.018	22104.24
626.213	21555.38
626.407	21776.56
626.602	21723.32
626.796	21602.49
626.991	21362.87
627.185	21379.26
627.38	21149.89
627.574	20932.8
627.768	20920.51
627.963	20947.14
628.157	20777.15
628.352	20902.08
628.546	20191.44
628.74	20615.37
628.935	20603.08
629.129	20322.51
629.323	20187.34
629.517	20162.76
629.712	20093.13
629.906	20234.44
630.1	19742.93
630.294	20007.12
630.489	19960.02
630.683	19661.01
630.877	19687.64
631.071	19388.63
631.265	19521.75
631.459	19103.96
631.653	19265.75
631.848	19132.64
632.042	19009.76
632.236	19509.46
632.43	18929.89
632.624	18745.57
632.818	18542.82
633.012	18419.94
633.206	18211.05
633.4	18448.61
633.594	18043.12
633.788	18305.26
633.982	18202.86
634.176	18143.47
634.369	18047.21
634.563	17772.78
634.757	17975.53
634.951	17735.92
635.145	17557.75
635.339	17602.8
635.533	17383.67
635.726	17481.97
635.92	17084.67
636.114	17144.06
636.308	17094.91
636.501	17000.7
636.695	17051.9
636.889	16789.76
637.083	16570.63
637.276	16720.13
637.47	16611.59
637.664	16513.28
637.857	16533.76
638.051	16355.59
638.244	16036.11
638.438	16167.18
638.632	15685.9
638.825	15810.83
639.019	15784.21
639.212	15823.12
639.406	15470.87
639.599	15417.62
639.793	15399.19
639.986	15132.95
640.18	15208.73
640.373	15063.32
640.567	14706.98
640.76	14962.97
640.954	14850.33
641.147	14524.71
641.34	14512.42
641.534	14819.61
641.727	14520.61
641.92	14532.9
642.114	14315.81
642.307	14156.07
642.5	14135.59
642.694	13803.82
642.887	13873.45
643.08	13869.36
643.273	13877.55
643.467	13871.4
643.66	13678.9
643.853	13625.65
644.046	13386.04
644.239	13568.3
644.432	13297.97
644.626	13177.14
644.819	13132.09
645.012	13009.21
645.205	12996.92
645.398	12917.05
645.591	12755.26
645.784	12620.1
645.977	12669.25
646.17	12710.21
646.363	12366.15
646.556	12273.99
646.749	12269.89
646.942	12529.98
647.135	12038.47
647.328	12218.69
647.521	11901.26
647.714	11944.27
647.907	11747.66
648.099	11911.5
648.292	11843.92
648.485	11682.13
648.678	11874.63
648.871	11467.09
649.064	11522.38
649.256	11751.76
649.449	11360.59
649.642	11161.94
649.835	11039.06
650.027	11055.45
650.22	11051.35
650.413	10940.76
650.605	10936.67
650.798	10869.08
650.991	10797.4
651.183	10703.2
651.376	10631.52
651.568	10672.48
651.761	10768.73
651.954	10678.62
652.146	10539.36
652.339	10600.8
652.531	10518.88
652.724	10416.48
652.916	10051.94
653.109	10271.08
653.301	10205.54
653.494	10062.18
653.686	10039.65
653.879	10195.3
654.071	9875.82
654.263	9750.89
654.456	9851.24
654.648	9941.35
654.84	9570.67
655.033	9638.25
655.225	9650.54
655.417	9585.01
655.61	9658.73
655.802	9558.38
655.994	9367.92
656.186	9431.41
656.379	9443.7
656.571	9316.72
656.763	9156.98
656.955	9218.42
657.148	9378.16
657.34	9124.21
657.532	8919.42
657.724	8857.98
657.916	8948.09
658.108	8978.81
658.3	8919.42
658.492	8671.61
658.684	8636.8
658.876	8769.91
659.068	8702.33
659.26	8493.44
659.452	8558.97
659.644	8556.93
659.836	8206.72
660.028	8475.01
660.22	8327.55
660.412	8360.32
660.604	8130.95
660.796	8253.83
660.988	8124.8
661.18	8069.51
661.372	7965.06
661.563	7973.25
661.755	7952.77
661.947	7877
662.139	7868.81
662.331	7631.24
662.522	7668.11
662.714	7836.04
662.906	7655.82
663.097	7815.56
663.289	7524.75
663.481	7313.81
663.673	7491.98
663.864	7512.46
664.056	7395.73
664.247	7410.06
664.439	7125.4
664.631	7272.85
664.822	7332.24
665.014	7315.86
665.205	7319.95
665.397	7213.46
665.588	7176.59
665.78	7096.72
665.971	7049.62
666.163	6984.09
666.354	6853.02
666.546	6889.88
666.737	6967.7
666.929	7051.67
667.12	6861.21
667.311	6762.9
667.503	6646.17
667.694	6721.95
667.885	6709.66
668.077	6562.2
668.268	6549.92
668.459	6609.31
668.651	6648.22
668.842	6496.67
669.033	6379.93
669.224	6617.5
669.416	6363.55
669.607	6384.03
669.798	6414.75
669.989	6545.82
670.18	6361.5
670.371	6220.19
670.563	6209.95
670.754	6396.32
670.945	6255.01
671.136	6189.47
671.327	6160.8
671.518	6166.95
671.709	6054.31
671.9	6287.78
672.091	5996.96
672.282	5964.2
672.473	6050.21
672.664	5831.08
672.855	5935.53
673.046	6066.6
673.237	5953.96
673.428	6058.4
673.619	5806.5
673.809	5806.5
674	5929.38
674.191	5894.57
674.382	5644.71
674.573	5853.61
674.764	5700.01
674.954	5824.94
675.145	5775.78
675.336	5759.4
675.527	5618.09
675.717	5700.01
675.908	5697.96
676.099	5411.25
676.289	5679.53
676.48	5687.72
676.671	5640.62
676.861	5493.16
677.052	5595.56
677.243	5550.51
677.433	5611.95
677.624	5636.52
677.814	5575.08
678.005	5456.3
678.195	5482.92
678.386	5476.78
678.576	5521.84
678.767	5472.68
678.957	5595.56
679.148	5534.12
679.338	5595.56
679.529	5585.32
679.719	5325.23
679.909	5450.16
680.1	5439.92
680.29	5411.25
680.481	5503.4
680.671	5542.32
680.861	5288.37
681.052	5517.74
681.242	5460.4
681.432	5595.56
681.622	5345.71
681.813	5380.53
682.003	5579.18
682.193	5345.71
682.383	5583.27
682.573	5319.09
682.764	5786.02
682.954	5444.01
683.144	5398.96
683.334	5456.3
683.524	5454.25
683.714	5378.48
683.904	5441.96
684.094	5448.11
684.284	5444.01
684.474	5366.19
684.664	5298.61
684.854	5337.52
685.044	5374.38
685.234	5183.92
685.424	5292.46
685.614	5200.3
685.804	5243.31
685.994	5208.5
686.184	5228.98
686.374	5200.3
686.564	5329.33
686.753	5276.08
686.943	5341.61
687.133	5173.68
687.323	5349.81
687.513	5292.46
687.702	5253.55
687.892	5124.53
688.082	5222.83
688.272	5362.09
688.461	5114.29
688.651	5257.65
688.841	5001.65
689.03	5226.93
689.22	5083.57
689.41	5183.92
689.599	5173.68
689.789	5054.9
689.979	5069.23
690.168	5030.32
690.358	5126.58
690.547	4946.36
690.737	5003.7
690.926	5071.28
691.116	4975.03
691.305	4897.21
691.495	5013.94
691.684	4975.03
691.874	4952.5
692.063	5112.24
692.252	4962.74
692.442	4866.49
692.631	4829.62
692.82	5028.28
693.01	4690.36
693.199	4915.64
693.388	4682.17
693.578	4913.59
693.767	4891.06
693.956	4766.14
694.146	4780.47
694.335	4735.42
694.524	4741.56
694.713	4819.38
694.902	4649.4
695.092	4690.36
695.281	4774.33
695.47	4798.9
695.659	4753.85
695.848	4780.47
696.037	4753.85
696.226	4626.87
696.415	4598.2
696.604	4776.38
696.793	4602.3
696.982	4604.35
697.171	4772.28
697.36	4506.04
697.549	4542.91
697.738	4684.22
697.927	4501.95
698.116	4567.48
698.305	4719.03
698.494	4542.91
698.683	4608.44
698.872	4637.11
699.061	4592.06
699.25	4522.43
699.438	4665.78
699.627	4448.7
699.816	4432.32
700.005	4344.25
700.193	4284.86
700.382	4372.93
700.571	4350.4
700.76	4436.41
700.948	4532.67
701.137	4291.01
701.326	4395.45
701.514	4420.03
701.703	4553.15
701.892	4334.01
702.08	4485.56
702.269	4288.96
702.457	4276.67
702.646	4176.32
702.834	4395.45
703.023	4231.62
703.212	4239.81
703.4	4245.95
703.589	4278.72
703.777	4141.5
703.965	4182.46
704.154	4231.62
704.342	4108.74
704.531	4192.7
704.719	4145.6
704.907	4219.33
705.096	4055.49
705.284	4170.18
705.472	4129.22
705.661	4207.04
705.849	4075.97
706.037	4071.87
706.226	4176.32
706.414	4135.36
706.602	4051.39
706.79	4057.54
706.979	3971.52
707.167	3918.28
707.355	4069.83
707.543	3889.6
707.731	3957.19
707.919	3992
708.107	3897.8
708.296	3963.33
708.484	3871.17
708.672	3914.18
708.86	3862.98
709.048	3846.6
709.236	3846.6
709.424	3801.54
709.612	3805.64
709.8	3760.58
709.988	3725.77
710.176	3807.69
710.364	3850.69
710.551	3848.65
710.739	3852.74
710.927	3756.49
711.115	3746.25
711.303	3637.7
711.491	3703.24
711.679	3785.16
711.866	3674.57
712.054	3801.54
712.242	3559.88
712.43	3793.35
712.617	3518.92
712.805	3748.29
712.993	3658.18
713.181	3557.83
713.368	3592.65
713.556	3527.11
713.744	3422.67
713.931	3697.1
714.119	3570.12
714.306	3551.69
714.494	3449.29
714.682	3473.87
714.869	3412.43
715.057	3518.92
715.244	3381.71
715.432	3496.39
715.619	3580.36
715.807	3463.63
715.994	3488.2
716.182	3287.5
716.369	3475.91
716.556	3441.1
716.744	3185.1
716.931	3219.92
717.119	3416.52
717.306	3422.67
717.493	3305.93
717.681	3488.2
717.868	3236.3
718.055	3226.06
718.242	3250.64
718.43	3246.54
718.617	3273.17
718.804	3269.07
718.991	3432.91
719.179	3269.07
719.366	3199.44
719.553	3174.86
719.74	3162.58
719.927	3166.67
720.114	3140.05
720.301	3207.63
720.488	3183.06
720.676	3142.1
720.863	3103.18
721.05	3056.08
721.237	3103.18
721.424	3080.66
721.611	3056.08
721.798	2980.31
721.985	3068.37
722.172	3031.51
722.358	3031.51
722.545	3043.79
722.732	3041.75
722.919	2949.59
723.106	2998.74
723.293	2869.72
723.48	2949.59
723.667	2849.24
723.853	2986.45
724.04	2900.44
724.227	2922.96
724.414	2951.63
724.6	2814.42
724.787	2900.44
724.974	2855.38
725.161	2931.16
725.347	2843.09
725.534	2779.61
725.72	2847.19
725.907	2939.35
726.094	2970.07
726.28	2818.52
726.467	2806.23
726.653	2798.04
726.84	2781.65
727.027	2863.57
727.213	2685.4
727.4	2767.32
727.586	2761.17
727.773	2707.93
727.959	2666.97
728.145	2703.83
728.332	2724.31
728.518	2695.64
728.705	2769.37
728.891	2709.97
729.077	2685.4
729.264	2742.74
729.45	2755.03
729.636	2752.98
729.823	2634.2
730.009	2781.65
730.195	2650.58
730.382	2654.68
730.568	2623.96
730.754	2580.95
730.94	2669.02
731.126	2701.78
731.313	2628.06
731.499	2632.15
731.685	2636.25
731.871	2630.1
732.057	2658.78
732.243	2693.59
732.429	2548.19
732.615	2679.26
732.801	2529.75
732.987	2554.33
733.173	2539.99
733.359	2589.14
733.545	2503.13
733.731	2421.21
733.917	2587.1
734.103	2501.08
734.289	2613.72
734.475	2490.84
734.661	2609.62
734.847	2462.17
735.033	2517.47
735.219	2419.16
735.404	2433.5
735.59	2449.88
735.776	2355.68
735.962	2417.12
736.148	2593.24
736.333	2410.97
736.519	2499.03
736.705	2427.35
736.89	2372.06
737.076	2380.25
737.262	2310.62
737.447	2445.79
737.633	2382.3
737.819	2456.03
738.004	2351.58
738.19	2288.09
738.375	2275.81
738.561	2341.34
738.747	2286.05
738.932	2318.81
739.118	2284
739.303	2243.04
739.489	2234.85
739.674	2120.16
739.859	2286.05
740.045	2281.95
740.23	2165.21
740.416	2208.22
740.601	2150.88
740.786	2216.41
740.972	2052.58
741.157	2136.54
741.342	2175.45
741.528	2134.5
741.713	2210.27
741.898	2107.87
742.084	2140.64
742.269	2079.2
742.454	2146.78
742.639	2240.99
742.824	2128.35
743.01	2128.35
743.195	2193.89
743.38	2036.19
743.565	2015.71
743.75	2007.52
743.935	2118.11
744.12	2101.73
744.305	1962.47
744.49	1937.89
744.675	1923.55
744.86	1978.85
745.045	1937.89
745.23	1954.27
745.415	1888.74
745.6	1974.75
745.785	1835.49
745.97	1929.7
746.155	1970.66
746.34	1843.68
746.525	1886.69
746.71	1874.4
746.895	1761.77
747.079	1884.64
747.264	1759.72
747.449	1905.12
747.634	1896.93
747.819	1862.12
748.003	1833.44
748.188	1741.29
748.373	1810.92
748.557	1858.02
748.742	1731.05
748.927	1741.29
749.111	1706.47
749.296	1743.33
749.481	1665.51
749.665	1628.65
749.85	1626.6
750.034	1694.18
750.219	1780.2
750.404	1659.37
750.588	1667.56
750.773	1647.08
750.957	1595.88
751.141	1561.06
751.326	1452.52
751.51	1487.34
751.695	1505.77
751.879	1460.71
752.064	1620.46
752.248	1470.95
752.432	1561.06
752.617	1470.95
752.801	1577.45
752.985	1505.77
753.17	1464.81
753.354	1452.52
753.538	1487.34
753.722	1470.95
753.907	1456.62
754.091	1448.43
754.275	1319.4
754.459	1380.84
754.643	1319.4
754.828	1397.23
755.012	1311.21
755.196	1450.47
755.38	1327.6
755.564	1282.54
755.748	1255.92
755.932	1391.08
756.116	1360.36
756.3	1262.06
756.484	1253.87
756.668	1323.5
756.852	1333.74
757.036	1397.23
757.22	1292.78
757.404	1253.87
757.588	1366.51
757.772	1276.4
757.956	1290.73
758.14	1233.39
758.323	1159.66
758.507	1231.34
758.691	1133.04
758.875	1305.07
759.059	1208.81
759.242	1147.37
759.426	1151.47
759.61	1214.96
759.794	1028.59
759.977	1208.81
760.161	1282.54
760.345	1219.05
760.528	1223.15
760.712	1171.95
760.895	1178.09
761.079	1104.37
761.263	1087.98
761.446	1065.46
761.63	1141.23
761.813	1069.55
761.997	1071.6
762.18	1139.18
762.364	991.73
762.547	1069.55
762.731	1077.74
762.914	1083.89
763.098	979.44
763.281	1042.93
763.464	1044.98
763.648	971.25
763.831	1130.99
764.015	1004.02
764.198	1004.02
764.381	1028.59
764.564	983.54
764.748	1008.11
764.931	1030.64
765.114	1051.12
765.297	1032.69
765.481	995.82
765.664	922.1
765.847	1006.06
766.03	963.06
766.213	1012.21
766.397	981.49
766.58	991.73
766.763	956.91
766.946	1059.31
767.129	961.01
767.312	930.29
767.495	842.23
767.678	958.96
767.861	905.71
768.044	1004.02
768.227	901.62
768.41	930.29
768.593	918
768.776	901.62
768.959	915.95
769.142	973.3
769.324	936.43
769.507	842.23
769.69	979.44
769.873	893.43
770.056	930.29
770.239	881.14
770.421	940.53
770.604	858.61
770.787	899.57
770.97	897.52
771.152	817.65
771.335	774.64
771.518	807.41
771.7	909.81
771.883	848.37
772.066	840.18
772.248	817.65
772.431	813.56
772.613	784.88
772.796	782.84
772.978	700.92
773.161	768.5
773.343	776.69
773.526	801.27
773.708	748.02
773.891	733.68
774.073	733.68
774.256	731.64
774.438	815.6
774.621	737.78
774.803	815.6
774.985	766.45
775.168	709.11
775.35	662.01
775.532	727.54
775.715	713.21
775.897	713.21
776.079	770.55
776.261	752.12
776.444	694.77
776.626	639.48
776.808	702.97
776.99	727.54
777.173	745.97
777.355	653.81
777.537	713.21
777.719	662.01
777.901	635.38
778.083	594.42
778.265	578.04
778.447	651.77
778.629	653.81
778.811	686.58
778.993	729.59
779.175	684.53
779.357	594.42
779.539	553.46
779.721	713.21
779.903	612.85
780.085	623.09
780.267	612.85
780.449	651.77
780.631	565.75
780.812	647.67
780.994	545.27
781.176	565.75
781.358	610.81
781.54	604.66
781.721	643.57
781.903	610.81
782.085	571.9
782.267	575.99
782.448	516.6
782.63	520.7
782.812	629.24
782.993	506.36
783.175	561.66
783.357	532.98
783.538	553.46
783.72	506.36
783.901	545.27
784.083	547.32
784.264	539.13
784.446	520.7
784.627	473.59
784.809	467.45
784.99	496.12
785.172	455.16
785.353	492.02
785.535	444.92
785.716	463.35
785.897	410.11
786.079	463.35
786.26	489.98
786.441	483.83
786.623	358.91
786.804	449.02
786.985	496.12
787.167	516.6
787.348	465.4
787.529	369.15
787.71	489.98
787.891	469.5
788.073	512.5
788.254	524.79
788.435	481.78
788.616	438.78
788.797	328.19
788.978	352.76
789.159	412.15
789.34	416.25
789.522	324.09
789.703	422.39
789.884	371.19
790.065	367.1
790.246	489.98
790.427	442.87
790.607	420.35
790.788	481.78
790.969	348.67
791.15	348.67
791.331	303.61
791.512	313.85
791.693	342.52
791.874	365.05
792.054	440.83
792.235	403.96
792.416	371.19
792.597	397.82
792.778	324.09
792.958	422.39
793.139	356.86
793.32	397.82
793.5	326.14
793.681	375.29
793.862	291.32
794.042	348.67
794.223	258.56
794.404	350.71
794.584	285.18
794.765	385.53
794.945	334.33
795.126	328.19
795.306	299.52
795.487	391.67
795.667	340.47
795.848	303.61
796.028	340.47
796.209	270.84
796.389	371.19
796.57	334.33
796.75	236.03
796.93	348.67
797.111	309.76
797.291	242.17
797.471	334.33
797.652	266.75
797.832	274.94
798.012	330.23
798.192	305.66
798.373	197.12
798.553	293.37
798.733	309.76
798.913	260.6
799.093	285.18
799.274	246.27
799.454	227.84
799.634	283.13
799.814	311.8
799.994	244.22
800.174	295.42
800.354	260.6
800.534	201.21
800.714	309.76
800.894	270.84
801.074	250.36
801.254	303.61
801.434	258.56
801.614	283.13
801.794	262.65
801.974	831.99
802.154	250.36
802.334	233.98
802.514	168.45
802.693	209.4
802.873	244.22
803.053	315.9
803.233	279.04
803.413	252.41
803.592	238.08
803.772	195.07
803.952	227.84
804.131	184.83
804.311	332.28
804.491	283.13
804.67	160.25
804.85	252.41
805.03	305.66
805.209	238.08
805.389	254.46
805.568	227.84
805.748	209.4
805.928	197.12
806.107	233.98
806.287	209.4
806.466	203.26
806.646	244.22
806.825	211.45
807.004	205.31
807.184	227.84
807.363	211.45
807.543	168.45
807.722	229.88
807.901	242.17
808.081	197.12
808.26	168.45
808.439	213.5
808.619	166.4
808.798	168.45
808.977	242.17
809.156	221.69
809.336	186.88
809.515	154.11
809.694	225.79
809.873	193.02
810.052	211.45
810.231	203.26
810.411	209.4
810.59	227.84
810.769	221.69
810.948	274.94
811.127	193.02
811.306	150.01
811.485	190.97
811.664	236.03
811.843	260.6
812.022	203.26
812.201	180.73
812.38	168.45
812.559	172.54
812.737	150.01
812.916	182.78
813.095	168.45
813.274	127.49
813.453	145.92
813.632	147.97
813.811	168.45
813.989	160.25
814.168	150.01
814.347	96.77
814.526	176.64
814.704	176.64
814.883	174.59
815.062	88.57
815.24	184.83
815.419	94.72
815.598	135.68
815.776	98.81
815.955	164.35
816.133	139.77
816.312	225.79
816.49	127.49
816.669	119.29
816.847	111.1
817.026	162.3
817.204	152.06
817.383	160.25
817.561	143.87
817.74	143.87
817.918	176.64
818.097	168.45
818.275	78.33
818.453	74.24
818.632	94.72
818.81	115.2
818.988	64
819.167	135.68
819.345	176.64
819.523	111.1
819.701	141.82
819.879	168.45
820.058	131.58
820.236	180.73
820.414	152.06
820.592	47.62
820.77	156.16
820.948	86.53
821.127	92.67
821.305	213.5
821.483	176.64
821.661	145.92
821.839	80.38
822.017	141.82
822.195	172.54
822.373	143.87
822.551	152.06
822.729	176.64
822.907	180.73
823.085	86.53
823.262	156.16
823.44	129.53
823.618	129.53
823.796	190.97
823.974	135.68
824.152	119.29
824.329	154.11
824.507	143.87
824.685	129.53
824.863	127.49
825.04	135.68
825.218	164.35
825.396	47.62
825.574	107.01
825.751	160.25
825.929	82.43
826.107	168.45
826.284	154.11
826.462	68.09
826.639	6.66
826.817	64
826.994	145.92
827.172	137.73
827.349	184.83
827.527	109.05
827.704	123.39
827.882	143.87
828.059	141.82
828.237	143.87
828.414	137.73
828.591	72.19
828.769	121.34
828.946	107.01
829.124	147.97
829.301	82.43
829.478	49.66
829.655	33.28
829.833	127.49
830.01	70.14
830.187	100.86
830.364	45.57
830.542	135.68
830.719	176.64
830.896	100.86
831.073	98.81
831.25	125.44
831.427	176.64
831.604	111.1
831.782	98.81
831.959	107.01
832.136	16.9
832.313	94.72
832.49	61.95
832.667	104.96
832.844	168.45
833.021	145.92
833.198	152.06
833.374	115.2
833.551	102.91
833.728	123.39
833.905	78.33
834.082	53.76
834.259	27.14
834.436	139.77
834.612	70.14
834.789	152.06
834.966	76.29
835.143	25.09
835.319	8.7
835.496	143.87
835.673	135.68
835.85	102.91
836.026	147.97
836.203	115.2
836.38	111.1
836.556	23.04
836.733	45.57
836.909	143.87
837.086	98.81
837.262	127.49
837.439	55.81
837.616	33.28
837.792	-19.97
837.968	121.34
838.145	55.81
838.321	20.99
838.498	190.97
838.674	135.68
838.851	57.86
839.027	64
839.203	92.67
839.38	64
839.556	-9.73
839.732	45.57
839.909	8.7
840.085	111.1
840.261	49.66
840.437	143.87
840.614	154.11
840.79	129.53
840.966	53.76
841.142	57.86
841.318	25.09
841.494	82.43
841.671	98.81
841.847	141.82
842.023	20.99
842.199	92.67
842.375	115.2
842.551	8.7
842.727	33.28
842.903	147.97
843.079	-7.68
843.255	178.69
843.431	-11.78
843.607	78.33
843.783	-22.02
843.959	178.69
844.134	61.95
844.31	119.29
844.486	55.81
844.662	45.57
844.838	80.38
845.013	119.29
845.189	45.57
845.365	131.58
845.541	29.18
845.716	70.14
845.892	111.1
846.068	4.61
846.244	-17.92
846.419	195.07
846.595	-1.54
846.77	94.72
846.946	72.19
847.122	119.29
847.297	70.14
847.473	160.25
847.648	25.09
847.824	70.14
847.999	23.04
848.175	0.51
848.35	57.86
848.526	94.72
848.701	31.23
848.876	174.59
849.052	70.14
849.227	20.99
849.403	78.33
849.578	90.62
849.753	70.14
849.929	98.81
850.104	8.7
850.279	47.62
850.454	47.62
850.63	47.62
850.805	117.25
850.98	80.38
851.155	25.09
851.33	72.19
851.505	12.8
851.681	70.14
851.856	14.85
852.031	6.66
852.206	70.14
852.381	14.85
852.556	78.33
852.731	74.24
852.906	20.99
853.081	135.68
853.256	49.66
853.431	115.2
853.606	29.18
853.781	14.85
853.956	-36.35
854.131	117.25
854.305	47.62
854.48	47.62
854.655	14.85
854.83	-22.02
855.005	90.62
855.18	51.71
855.354	102.91
855.529	53.76
855.704	23.04
855.879	14.85
856.053	10.75
856.228	135.68
856.403	-1.54
856.577	80.38
856.752	-22.02
856.926	39.42
857.101	37.38
857.276	33.28
857.45	90.62
857.625	115.2
857.799	37.38
857.974	70.14
858.148	39.42
858.323	104.96
858.497	61.95
858.672	82.43
858.846	16.9
859.02	107.01
859.195	-7.68
859.369	31.23
859.543	98.81
859.718	66.05
859.892	39.42
860.066	53.76
860.241	6.66
860.415	78.33
860.589	31.23
860.763	-11.78
860.938	-1.54
861.112	49.66
861.286	12.8
861.46	70.14
861.634	-1.54
861.808	74.24
861.982	-52.74
862.157	53.76
862.331	8.7
862.505	57.86
862.679	-3.58
862.853	53.76
863.027	29.18
863.201	102.91
863.375	76.29
863.549	4.61
863.722	90.62
863.896	102.91
864.07	6.66
864.244	45.57
864.418	64
864.592	55.81
864.766	4.61
864.939	8.7
865.113	41.47
865.287	113.15
865.461	-9.73
865.634	-1.54
865.808	74.24
865.982	80.38
866.156	-34.3
866.329	-26.11
866.503	29.18
866.676	23.04
866.85	-15.87
867.024	45.57
867.197	78.33
867.371	90.62
867.544	-52.74
867.718	16.9
867.891	135.68
868.065	-40.45
868.238	37.38
868.412	0.51
868.585	-42.5
868.759	104.96
868.932	8.7
869.105	8.7
869.279	68.09
869.452	-19.97
869.625	12.8
869.799	14.85
869.972	37.38
870.145	64
870.319	53.76
870.492	-1.54
870.665	-3.58
870.838	88.57
871.011	-40.45
871.185	41.47
871.358	-54.78
871.531	-32.26
871.704	35.33
871.877	82.43
872.05	-48.64
872.223	8.7
872.396	72.19
872.569	64
872.742	51.71
872.915	70.14
873.088	12.8
873.261	12.8
873.434	39.42
873.607	33.28
873.78	78.33
873.953	16.9
874.126	45.57
874.299	55.81
874.471	-7.68
874.644	41.47
874.817	51.71
874.99	76.29
875.163	6.66
875.335	4.61
875.508	8.7
875.681	86.53
875.853	12.8
876.026	96.77
876.199	96.77
876.371	55.81
876.544	94.72
876.717	45.57
876.889	12.8
877.062	-3.58
877.234	8.7
877.407	43.52
877.579	-3.58
877.752	55.81
877.924	-50.69
878.097	37.38
878.269	111.1
878.442	33.28
878.614	45.57
878.786	6.66
878.959	-3.58
879.131	16.9
879.303	-7.68
879.476	20.99
879.648	72.19
879.82	-34.3
879.993	-42.5
880.165	4.61
880.337	-17.92
880.509	-22.02
880.681	4.61
880.854	-40.45
881.026	61.95
881.198	37.38
881.37	0.51
881.542	-13.82
881.714	-73.21
881.886	-28.16
882.058	-17.92
882.23	53.76
882.402	8.7
882.574	98.81
882.746	4.61
882.918	37.38
883.09	61.95
883.262	74.24
883.434	37.38
883.606	6.66
883.778	-48.64
883.95	78.33
884.122	8.7
884.293	37.38
884.465	70.14
884.637	74.24
884.809	59.9
884.98	113.15
885.152	-9.73
885.324	98.81
885.496	23.04
885.667	31.23
885.839	-42.5
886.011	123.39
886.182	12.8
886.354	70.14
886.525	94.72
886.697	80.38
886.869	20.99
887.04	31.23
887.212	78.33
887.383	176.64
887.555	84.48
887.726	14.85
887.897	47.62
888.069	39.42
888.24	-11.78
888.412	45.57
888.583	51.71
888.754	29.18
888.926	-69.12
889.097	70.14
889.268	70.14
889.44	53.76
889.611	-46.59
889.782	47.62
889.953	-67.07
890.125	98.81
890.296	23.04
890.467	96.77
890.638	14.85
890.809	33.28
890.98	49.66
891.151	39.42
891.323	76.29
891.494	49.66
891.665	70.14
891.836	-15.87
892.007	14.85
892.178	41.47
892.349	53.76
892.52	-9.73
892.691	57.86
892.862	45.57
893.032	-44.54
893.203	59.9
893.374	2.56
893.545	45.57
893.716	-11.78
893.887	78.33
894.057	27.14
894.228	37.38
894.399	-19.97
894.57	41.47
894.74	29.18
894.911	12.8
895.082	57.86
895.253	74.24
895.423	29.18
895.594	55.81
895.764	-9.73
895.935	-19.97
896.106	41.47
896.276	10.75
896.447	127.49
896.617	12.8
896.788	-97.79
896.958	41.47
897.129	20.99
897.299	88.57
897.47	119.29
897.64	53.76
897.81	76.29
897.981	41.47
898.151	-40.45
898.322	88.57
898.492	-44.54
898.662	49.66
898.832	16.9
899.003	86.53
899.173	78.33
899.343	-7.68
899.513	33.28
