Data from USB4F104151__308__14-35-03-045.txt Node

Date: Thu Mar 13 14:35:03 EDT 2025
User: louis
Spectrometer: USB4F10415
Trigger mode: 4
Integration Time (sec): 2.500000E-2
Scans to average: 1
Electric dark correction enabled: true
Nonlinearity correction enabled: false
Boxcar width: 0
XAxis mode: Wavelengths
Number of Pixels in Spectrum: 3648
>>>>>Begin Spectral Data<<<<<
178.204	-112.98
178.424	-112.98
178.644	-112.98
178.864	-145.75
179.084	-137.56
179.304	18.09
179.524	-22.87
179.744	26.28
179.964	18.09
180.184	-55.64
180.404	83.63
180.624	-4.44
180.844	26.28
181.064	-69.97
181.283	34.47
181.503	-80.21
181.723	26.28
181.943	-2.39
182.163	-6.49
182.383	-35.16
182.602	59.05
182.822	69.29
183.042	-31.06
183.262	34.47
183.482	13.99
183.701	-2.39
183.921	13.99
184.141	28.33
184.361	83.63
184.58	26.28
184.8	46.76
185.02	18.09
185.239	18.09
185.459	-14.68
185.679	71.34
185.898	-6.49
186.118	108.2
186.338	52.91
186.557	34.47
186.777	-0.34
186.997	34.47
187.216	9.9
187.436	95.91
187.655	100.01
187.875	26.28
188.095	18.09
188.314	30.38
188.534	112.3
188.753	42.67
188.973	11.95
189.192	67.24
189.412	69.29
189.631	118.44
189.851	75.43
190.07	110.25
190.29	-20.82
190.509	42.67
190.729	159.4
190.948	46.76
191.168	173.74
191.387	20.14
191.607	30.38
191.826	-39.25
192.045	34.47
192.265	11.95
192.484	63.15
192.704	52.91
192.923	-4.44
193.142	165.54
193.362	1.71
193.581	91.82
193.8	36.52
194.02	67.24
194.239	5.8
194.458	50.86
194.678	65.19
194.897	71.34
195.116	36.52
195.335	91.82
195.555	20.14
195.774	75.43
195.993	59.05
196.212	-37.2
196.432	-20.82
196.651	-16.73
196.87	85.67
197.089	100.01
197.308	-35.16
197.528	95.91
197.747	50.86
197.966	-14.68
198.185	83.63
198.404	120.49
198.623	30.38
198.842	40.62
199.062	126.63
199.281	71.34
199.5	-14.68
199.719	100.01
199.938	22.19
200.157	36.52
200.376	50.86
200.595	63.15
200.814	-22.87
201.033	54.95
201.252	57
201.471	54.95
201.69	100.01
201.909	28.33
202.128	59.05
202.347	36.52
202.566	34.47
202.785	61.1
203.004	9.9
203.223	67.24
203.442	-2.39
203.661	9.9
203.879	-4.44
204.098	118.44
204.317	-22.87
204.536	22.19
204.755	44.71
204.974	126.63
205.193	65.19
205.411	38.57
205.63	95.91
205.849	-6.49
206.068	-29.01
206.287	24.23
206.505	91.82
206.724	110.25
206.943	1.71
207.162	-39.25
207.381	26.28
207.599	30.38
207.818	42.67
208.037	42.67
208.255	-18.77
208.474	42.67
208.693	32.43
208.911	38.57
209.13	34.47
209.349	28.33
209.567	52.91
209.786	59.05
210.005	67.24
210.223	36.52
210.442	34.47
210.661	13.99
210.879	-20.82
211.098	87.72
211.316	-6.49
211.535	52.91
211.753	100.01
211.972	-14.68
212.191	46.76
212.409	30.38
212.628	50.86
212.846	77.48
213.065	44.71
213.283	9.9
213.502	59.05
213.72	50.86
213.938	7.85
214.157	104.11
214.375	77.48
214.594	42.67
214.812	67.24
215.031	61.1
215.249	108.2
215.467	108.2
215.686	48.81
215.904	75.43
216.122	116.39
216.341	161.45
216.559	-8.53
216.778	79.53
216.996	48.81
217.214	-4.44
217.432	-43.35
217.651	1.71
217.869	-14.68
218.087	63.15
218.306	20.14
218.524	5.8
218.742	9.9
218.96	85.67
219.179	59.05
219.397	75.43
219.615	171.69
219.833	57
220.051	34.47
220.27	83.63
220.488	-10.58
220.706	91.82
220.924	54.95
221.142	52.91
221.36	134.82
221.578	46.76
221.796	48.81
222.015	50.86
222.233	73.39
222.451	38.57
222.669	11.95
222.887	32.43
223.105	11.95
223.323	34.47
223.541	20.14
223.759	-0.34
223.977	1.71
224.195	85.67
224.413	38.57
224.631	46.76
224.849	40.62
225.067	75.43
225.285	30.38
225.503	59.05
225.721	26.28
225.939	28.33
226.157	-55.64
226.375	116.39
226.592	48.81
226.81	26.28
227.028	108.2
227.246	100.01
227.464	54.95
227.682	50.86
227.9	79.53
228.117	67.24
228.335	30.38
228.553	3.75
228.771	126.63
228.989	63.15
229.206	1.71
229.424	87.72
229.642	32.43
229.86	30.38
230.077	83.63
230.295	130.73
230.513	83.63
230.731	-4.44
230.948	26.28
231.166	59.05
231.384	28.33
231.601	61.1
231.819	120.49
232.037	52.91
232.254	-24.92
232.472	75.43
232.689	46.76
232.907	79.53
233.125	34.47
233.342	1.71
233.56	9.9
233.777	-76.12
233.995	-55.64
234.213	110.25
234.43	30.38
234.648	40.62
234.865	83.63
235.083	85.67
235.3	46.76
235.518	114.34
235.735	73.39
235.953	95.91
236.17	-18.77
236.388	42.67
236.605	-22.87
236.822	50.86
237.04	50.86
237.257	34.47
237.475	-65.88
237.692	104.11
237.909	34.47
238.127	-41.3
238.344	75.43
238.562	3.75
238.779	-59.73
238.996	85.67
239.214	11.95
239.431	95.91
239.648	116.39
239.865	112.3
240.083	40.62
240.3	61.1
240.517	11.95
240.735	83.63
240.952	75.43
241.169	87.72
241.386	32.43
241.603	-10.58
241.821	13.99
242.038	100.01
242.255	120.49
242.472	-96.6
242.689	52.91
242.907	116.39
243.124	52.91
243.341	20.14
243.558	22.19
243.775	18.09
243.992	36.52
244.209	63.15
244.426	173.74
244.643	30.38
244.86	77.48
245.078	75.43
245.295	44.71
245.512	44.71
245.729	42.67
245.946	50.86
246.163	16.04
246.38	59.05
246.597	44.71
246.814	46.76
247.031	26.28
247.248	59.05
247.464	108.2
247.681	1.71
247.898	1.71
248.115	130.73
248.332	36.52
248.549	128.68
248.766	59.05
248.983	106.15
249.2	34.47
249.417	28.33
249.633	67.24
249.85	-22.87
250.067	136.87
250.284	69.29
250.501	-8.53
250.717	50.86
250.934	-26.96
251.151	-31.06
251.368	85.67
251.585	112.3
251.801	50.86
252.018	26.28
252.235	59.05
252.451	42.67
252.668	16.04
252.885	28.33
253.102	20.14
253.318	54.95
253.535	-29.01
253.752	18.09
253.968	-22.87
254.185	57
254.401	16.04
254.618	79.53
254.835	-35.16
255.051	67.24
255.268	30.38
255.484	46.76
255.701	1.71
255.917	83.63
256.134	26.28
256.351	124.58
256.567	9.9
256.784	63.15
257	-39.25
257.217	28.33
257.433	11.95
257.65	52.91
257.866	50.86
258.082	34.47
258.299	22.19
258.515	104.11
258.732	59.05
258.948	13.99
259.165	32.43
259.381	52.91
259.597	128.68
259.814	22.19
260.03	85.67
260.246	44.71
260.463	81.58
260.679	100.01
260.895	18.09
261.112	79.53
261.328	34.47
261.544	24.23
261.761	173.74
261.977	-51.54
262.193	44.71
262.409	132.78
262.626	52.91
262.842	42.67
263.058	26.28
263.274	13.99
263.49	93.87
263.707	114.34
263.923	9.9
264.139	9.9
264.355	75.43
264.571	50.86
264.787	104.11
265.004	161.45
265.22	1.71
265.436	30.38
265.652	-6.49
265.868	50.86
266.084	75.43
266.3	5.8
266.516	-63.83
266.732	67.24
266.948	77.48
267.164	61.1
267.38	44.71
267.596	38.57
267.812	85.67
268.028	112.3
268.244	16.04
268.46	63.15
268.676	-6.49
268.892	42.67
269.108	-26.96
269.324	61.1
269.54	52.91
269.756	48.81
269.972	-29.01
270.188	50.86
270.403	20.14
270.619	-4.44
270.835	-6.49
271.051	44.71
271.267	28.33
271.483	48.81
271.698	18.09
271.914	11.95
272.13	3.75
272.346	71.34
272.562	30.38
272.777	77.48
272.993	91.82
273.209	44.71
273.425	11.95
273.64	7.85
273.856	52.91
274.072	44.71
274.287	-39.25
274.503	67.24
274.719	61.1
274.934	-2.39
275.15	3.75
275.366	54.95
275.581	50.86
275.797	34.47
276.012	42.67
276.228	75.43
276.444	63.15
276.659	50.86
276.875	-2.39
277.09	118.44
277.306	32.43
277.521	44.71
277.737	50.86
277.952	173.74
278.168	50.86
278.383	13.99
278.599	87.72
278.814	61.1
279.03	-29.01
279.245	83.63
279.461	3.75
279.676	100.01
279.892	-61.78
280.107	46.76
280.322	48.81
280.538	69.29
280.753	65.19
280.969	-37.2
281.184	13.99
281.399	100.01
281.615	100.01
281.83	71.34
282.045	69.29
282.26	34.47
282.476	61.1
282.691	83.63
282.906	77.48
283.122	61.1
283.337	9.9
283.552	9.9
283.767	59.05
283.983	140.97
284.198	22.19
284.413	91.82
284.628	9.9
284.843	-2.39
285.058	91.82
285.274	-18.77
285.489	-2.39
285.704	22.19
285.919	26.28
286.134	97.96
286.349	22.19
286.564	59.05
286.779	194.22
286.995	50.86
287.21	-39.25
287.425	-12.63
287.64	85.67
287.855	95.91
288.07	-22.87
288.285	38.57
288.5	104.11
288.715	93.87
288.93	30.38
289.145	-43.35
289.36	-4.44
289.575	36.52
289.79	85.67
290.004	24.23
290.219	48.81
290.434	38.57
290.649	116.39
290.864	67.24
291.079	36.52
291.294	-4.44
291.509	44.71
291.724	67.24
291.938	9.9
292.153	79.53
292.368	11.95
292.583	85.67
292.798	67.24
293.012	42.67
293.227	3.75
293.442	65.19
293.657	71.34
293.871	73.39
294.086	52.91
294.301	153.26
294.516	67.24
294.73	97.96
294.945	63.15
295.16	1.71
295.374	71.34
295.589	57
295.804	63.15
296.018	9.9
296.233	136.87
296.447	79.53
296.662	22.19
296.877	95.91
297.091	83.63
297.306	73.39
297.52	-35.16
297.735	18.09
297.949	50.86
298.164	3.75
298.378	-22.87
298.593	11.95
298.807	-0.34
299.022	124.58
299.236	124.58
299.451	-47.44
299.665	1.71
299.88	-6.49
300.094	50.86
300.309	38.57
300.523	124.58
300.737	28.33
300.952	118.44
301.166	48.81
301.381	52.91
301.595	34.47
301.809	95.91
302.024	50.86
302.238	-12.63
302.452	18.09
302.667	24.23
302.881	118.44
303.095	104.11
303.309	124.58
303.524	50.86
303.738	57
303.952	22.19
304.166	110.25
304.381	-16.73
304.595	42.67
304.809	54.95
305.023	83.63
305.237	87.72
305.452	50.86
305.666	67.24
305.88	30.38
306.094	36.52
306.308	32.43
306.522	136.87
306.736	18.09
306.95	71.34
307.164	18.09
307.379	26.28
307.593	87.72
307.807	132.78
308.021	83.63
308.235	71.34
308.449	-4.44
308.663	16.04
308.877	124.58
309.091	3.75
309.305	132.78
309.519	28.33
309.733	59.05
309.947	-4.44
310.161	108.2
310.374	-0.34
310.588	106.15
310.802	-35.16
311.016	52.91
311.23	91.82
311.444	28.33
311.658	81.58
311.872	-6.49
312.085	95.91
312.299	42.67
312.513	87.72
312.727	54.95
312.941	-22.87
313.154	26.28
313.368	42.67
313.582	81.58
313.796	61.1
314.009	42.67
314.223	85.67
314.437	54.95
314.651	5.8
314.864	9.9
315.078	13.99
315.292	-61.78
315.505	97.96
315.719	61.1
315.933	59.05
316.146	69.29
316.36	93.87
316.573	-6.49
316.787	44.71
317.001	48.81
317.214	28.33
317.428	95.91
317.641	-24.92
317.855	50.86
318.068	22.19
318.282	26.28
318.495	112.3
318.709	44.71
318.922	28.33
319.136	54.95
319.349	3.75
319.563	52.91
319.776	67.24
319.99	50.86
320.203	79.53
320.417	30.38
320.63	36.52
320.843	138.92
321.057	128.68
321.27	9.9
321.483	20.14
321.697	69.29
321.91	54.95
322.124	83.63
322.337	50.86
322.55	44.71
322.763	50.86
322.977	57
323.19	52.91
323.403	59.05
323.617	75.43
323.83	9.9
324.043	34.47
324.256	69.29
324.469	75.43
324.683	44.71
324.896	67.24
325.109	26.28
325.322	-49.49
325.535	54.95
325.748	5.8
325.962	46.76
326.175	50.86
326.388	38.57
326.601	59.05
326.814	52.91
327.027	95.91
327.24	91.82
327.453	3.75
327.666	77.48
327.879	59.05
328.092	67.24
328.305	97.96
328.518	126.63
328.731	36.52
328.944	87.72
329.157	102.06
329.37	52.91
329.583	118.44
329.796	91.82
330.009	18.09
330.222	100.01
330.435	75.43
330.648	116.39
330.861	28.33
331.073	95.91
331.286	108.2
331.499	61.1
331.712	18.09
331.925	36.52
332.138	42.67
332.35	1.71
332.563	-16.73
332.776	38.57
332.989	20.14
333.202	87.72
333.414	1.71
333.627	59.05
333.84	-22.87
334.053	71.34
334.265	32.43
334.478	100.01
334.691	-22.87
334.903	50.86
335.116	30.38
335.329	112.3
335.541	38.57
335.754	42.67
335.966	75.43
336.179	-26.96
336.392	-14.68
336.604	38.57
336.817	165.54
337.029	124.58
337.242	63.15
337.454	30.38
337.667	-24.92
337.88	85.67
338.092	91.82
338.305	36.52
338.517	-61.78
338.729	110.25
338.942	75.43
339.154	-41.3
339.367	5.8
339.579	50.86
339.792	95.91
340.004	69.29
340.217	32.43
340.429	85.67
340.641	11.95
340.854	61.1
341.066	42.67
341.278	108.2
341.491	83.63
341.703	30.38
341.915	-47.44
342.128	46.76
342.34	91.82
342.552	26.28
342.764	40.62
342.977	71.34
343.189	30.38
343.401	-2.39
343.613	38.57
343.826	71.34
344.038	-12.63
344.25	151.21
344.462	5.8
344.674	83.63
344.886	42.67
345.099	59.05
345.311	77.48
345.523	59.05
345.735	9.9
345.947	93.87
346.159	75.43
346.371	61.1
346.583	40.62
346.795	147.11
347.007	61.1
347.219	100.01
347.431	30.38
347.643	93.87
347.855	30.38
348.067	75.43
348.279	-78.16
348.491	46.76
348.703	126.63
348.915	140.97
349.127	5.8
349.339	28.33
349.551	-41.3
349.763	75.43
349.975	34.47
350.187	42.67
350.399	77.48
350.61	20.14
350.822	42.67
351.034	63.15
351.246	26.28
351.458	36.52
351.669	85.67
351.881	110.25
352.093	38.57
352.305	161.45
352.517	-16.73
352.728	116.39
352.94	11.95
353.152	79.53
353.363	3.75
353.575	42.67
353.787	69.29
353.999	108.2
354.21	108.2
354.422	18.09
354.633	38.57
354.845	67.24
355.057	102.06
355.268	108.2
355.48	102.06
355.692	-4.44
355.903	52.91
356.115	26.28
356.326	-31.06
356.538	87.72
356.749	36.52
356.961	79.53
357.172	20.14
357.384	85.67
357.595	132.78
357.807	9.9
358.018	52.91
358.23	69.29
358.441	91.82
358.653	108.2
358.864	59.05
359.075	-2.39
359.287	102.06
359.498	44.71
359.709	108.2
359.921	34.47
360.132	102.06
360.344	91.82
360.555	26.28
360.766	114.34
360.977	18.09
361.189	87.72
361.4	-31.06
361.611	44.71
361.823	120.49
362.034	71.34
362.245	75.43
362.456	20.14
362.667	116.39
362.879	22.19
363.09	20.14
363.301	18.09
363.512	69.29
363.723	54.95
363.935	52.91
364.146	52.91
364.357	77.48
364.568	36.52
364.779	-47.44
364.99	106.15
365.201	112.3
365.412	93.87
365.623	26.28
365.834	126.63
366.045	67.24
366.256	110.25
366.467	83.63
366.678	110.25
366.889	161.45
367.1	157.35
367.311	3.75
367.522	75.43
367.733	67.24
367.944	83.63
368.155	89.77
368.366	132.78
368.577	108.2
368.788	136.87
368.999	85.67
369.209	124.58
369.42	128.68
369.631	206.5
369.842	102.06
370.053	34.47
370.264	5.8
370.474	50.86
370.685	59.05
370.896	85.67
371.107	102.06
371.317	18.09
371.528	34.47
371.739	83.63
371.95	95.91
372.16	75.43
372.371	20.14
372.582	3.75
372.792	42.67
373.003	26.28
373.214	69.29
373.424	67.24
373.635	-4.44
373.846	140.97
374.056	59.05
374.267	106.15
374.477	50.86
374.688	48.81
374.898	61.1
375.109	100.01
375.319	9.9
375.53	16.04
375.74	159.4
375.951	100.01
376.161	9.9
376.372	91.82
376.582	77.48
376.793	91.82
377.003	79.53
377.214	100.01
377.424	83.63
377.635	100.01
377.845	67.24
378.055	155.3
378.266	61.1
378.476	100.01
378.686	112.3
378.897	100.01
379.107	149.16
379.317	59.05
379.528	69.29
379.738	116.39
379.948	-4.44
380.158	97.96
380.369	108.2
380.579	149.16
380.789	75.43
380.999	132.78
381.21	122.54
381.42	89.77
381.63	46.76
381.84	65.19
382.05	126.63
382.261	95.91
382.471	126.63
382.681	79.53
382.891	104.11
383.101	114.34
383.311	9.9
383.521	108.2
383.731	134.82
383.941	38.57
384.151	124.58
384.361	134.82
384.571	20.14
384.781	34.47
384.991	159.4
385.201	108.2
385.411	34.47
385.621	91.82
385.831	134.82
386.041	73.39
386.251	69.29
386.461	192.17
386.671	95.91
386.881	-4.44
387.091	36.52
387.301	95.91
387.511	52.91
387.72	75.43
387.93	134.82
388.14	46.76
388.35	36.52
388.56	122.54
388.769	91.82
388.979	83.63
389.189	65.19
389.399	91.82
389.609	52.91
389.818	83.63
390.028	63.15
390.238	26.28
390.447	34.47
390.657	134.82
390.867	5.8
391.076	134.82
391.286	95.91
391.496	73.39
391.705	75.43
391.915	100.01
392.125	108.2
392.334	106.15
392.544	140.97
392.753	110.25
392.963	48.81
393.172	124.58
393.382	140.97
393.591	112.3
393.801	159.4
394.01	132.78
394.22	83.63
394.429	91.82
394.639	54.95
394.848	79.53
395.058	71.34
395.267	54.95
395.477	128.68
395.686	149.16
395.895	186.02
396.105	132.78
396.314	118.44
396.524	116.39
396.733	87.72
396.942	143.02
397.152	155.3
397.361	93.87
397.57	149.16
397.78	110.25
397.989	26.28
398.198	159.4
398.407	108.2
398.617	112.3
398.826	36.52
399.035	157.35
399.244	186.02
399.453	118.44
399.663	140.97
399.872	198.31
400.081	118.44
400.29	175.78
400.499	147.11
400.708	116.39
400.917	173.74
401.127	231.08
401.336	112.3
401.545	136.87
401.754	134.82
401.963	218.79
402.172	167.59
402.381	222.89
402.59	145.06
402.799	165.54
403.008	167.59
403.217	239.27
403.426	192.17
403.635	143.02
403.844	108.2
404.053	181.93
404.262	93.87
404.471	378.53
404.68	157.35
404.888	259.75
405.097	218.79
405.306	226.98
405.515	192.17
405.724	173.74
405.933	130.73
406.142	169.64
406.35	247.46
406.559	165.54
406.768	229.03
406.977	333.48
407.185	288.42
407.394	317.09
407.603	220.84
407.812	292.52
408.02	272.04
408.229	292.52
408.438	300.71
408.646	292.52
408.855	276.13
409.064	396.96
409.272	347.81
409.481	315.05
409.69	323.24
409.898	313
410.107	427.68
410.315	411.3
410.524	396.96
410.733	448.16
410.941	468.64
411.15	501.41
411.358	468.64
411.567	521.89
411.775	511.65
411.984	425.64
412.192	566.95
412.401	585.38
412.609	595.62
412.818	655.01
413.026	689.82
413.234	577.19
413.443	609.95
413.651	591.52
413.86	612
414.068	700.06
414.276	763.55
414.485	775.84
414.693	853.66
414.901	861.85
415.11	1021.6
415.318	974.49
415.526	956.06
415.734	984.73
415.943	954.01
416.151	1027.74
416.359	997.02
416.567	1054.36
416.776	1205.91
416.984	1210.01
417.192	1214.1
417.4	1296.02
417.608	1189.53
417.817	1265.3
418.025	1412.76
418.233	1494.68
418.441	1427.09
418.649	1490.58
418.857	1595.03
419.065	1722
419.273	1623.7
419.481	1771.15
419.689	1836.69
419.897	1861.26
420.105	1844.88
420.313	1949.32
420.521	2027.15
420.729	2025.1
420.937	2059.92
421.145	2238.09
421.353	2213.51
421.561	2371.21
421.769	2338.44
421.977	2614.91
422.185	2506.37
422.393	2815.62
422.601	2799.23
422.809	2778.75
423.017	2903.68
423.224	2977.41
423.432	3178.11
423.64	3016.32
423.848	3556.98
424.056	3264.12
424.263	3655.28
424.471	3573.36
424.679	3671.67
424.887	3860.08
425.094	3864.18
425.302	3991.15
425.51	4040.3
425.718	4109.93
425.925	4236.91
426.133	4449.89
426.341	4765.28
426.548	4916.83
426.756	4681.32
426.964	4884.06
427.171	5144.16
427.379	5256.79
427.586	5275.23
427.794	5582.42
428.001	5830.23
428.209	6123.09
428.417	5967.44
428.624	6407.75
428.832	6463.05
429.039	6403.66
429.247	6323.79
429.454	6956.61
429.662	7220.8
429.869	7036.48
430.076	7358.01
430.284	7190.08
430.491	7575.1
430.699	7972.4
430.906	7972.4
431.114	8087.09
431.321	8177.2
431.528	8545.83
431.736	8982.05
431.943	9514.52
432.15	9197.09
432.358	9299.48
432.565	9887.25
432.772	9922.07
432.979	10139.15
433.187	10249.74
433.394	10528.27
433.601	11218.43
433.808	11177.47
434.016	11302.4
434.223	11634.17
434.43	12332.53
434.637	12183.02
434.844	12852.71
435.052	13008.36
435.259	12766.7
435.466	13037.03
435.673	13077.99
435.88	13673.95
436.087	14489.04
436.294	14337.49
436.501	14126.55
436.708	14501.33
436.915	14849.48
437.122	15670.72
437.329	15613.37
437.537	15953.34
437.743	16010.68
437.95	15998.39
438.157	17143.21
438.364	17276.32
438.571	17538.46
438.778	17667.49
438.985	18744.72
439.192	18441.62
439.399	19090.82
439.606	18335.12
439.813	19703.17
440.02	20876.65
440.227	20297.08
440.433	20323.7
440.64	20825.45
440.847	20784.49
441.054	21237.09
441.261	22644.05
441.467	22371.67
441.674	22861.13
441.881	23622.98
442.088	23864.64
442.294	23205.19
442.501	23698.75
442.708	24501.56
442.914	25163.05
443.121	26668.31
443.328	25748.77
443.534	27510.02
443.741	26746.13
443.948	26324.25
444.154	28353.79
444.361	28282.11
444.568	28251.39
444.774	28333.31
444.981	29013.23
445.187	29570.28
445.394	30749.91
445.6	30307.55
445.807	32963.76
446.013	31339.72
446.22	31741.13
446.426	33539.24
446.633	33959.08
446.839	35044.5
447.046	33141.94
447.252	35314.83
447.459	35599.5
447.665	35196.05
447.871	37000.31
448.078	38390.88
448.284	36582.52
448.491	37772.39
448.697	38861.91
448.903	39636.05
449.11	39840.84
449.316	38677.6
449.522	39998.54
449.728	40903.74
449.935	41489.46
450.141	40995.9
450.347	41974.83
450.553	40918.07
450.76	41323.57
450.966	42572.83
451.172	42189.86
451.378	43400.21
451.584	42499.11
451.791	43605.01
451.997	43217.94
452.203	44153.86
452.409	44141.58
452.615	43482.13
452.821	42196.01
453.027	41866.28
453.233	44155.91
453.44	42058.79
453.646	42611.74
453.852	42650.66
454.058	43770.89
454.264	41868.33
454.47	43232.28
454.676	41688.11
454.882	43398.16
455.088	40004.68
455.294	40399.94
455.5	40787
455.705	41006.14
455.911	39717.96
456.117	39009.37
456.323	38818.91
456.529	36410.5
456.735	38157.41
456.941	37117.04
457.147	36658.3
457.352	35347.6
457.558	34786.46
457.764	35093.65
457.97	34469.02
458.176	33625.26
458.381	33639.59
458.587	31980.74
458.793	31528.14
458.999	30262.49
459.204	32351.42
459.41	31630.54
459.616	29459.69
459.821	29562.09
460.027	29308.14
460.233	28689.65
460.438	27473.16
460.644	27456.78
460.85	26268.95
461.055	25660.71
461.261	25959.71
461.466	23815.49
461.672	23131.47
461.878	25040.17
462.083	22988.11
462.289	22848.85
462.494	22547.79
462.7	21638.5
462.905	20872.56
463.111	21511.52
463.316	21900.64
463.522	21060.97
463.727	20907.37
463.932	21138.79
464.138	20792.69
464.343	20942.19
464.549	20514.16
464.754	20890.99
464.959	20759.92
465.165	20589.94
465.37	19778.94
465.575	19168.65
465.781	19965.31
465.986	19895.68
466.191	19484.03
466.397	18869.64
466.602	18089.37
466.807	18777.48
467.012	18802.06
467.218	18498.96
467.423	18427.28
467.628	18425.23
467.833	19211.65
468.038	18132.37
468.244	17769.88
468.449	18328.98
468.654	17800.6
468.859	17626.53
469.064	18046.36
469.269	17143.21
469.474	17405.35
469.679	17522.08
469.885	17204.64
470.09	17149.35
470.295	16956.84
470.5	16420.27
470.705	16842.15
470.91	16113.08
471.115	16340.4
471.32	16393.65
471.525	16674.22
471.73	16080.31
471.935	15910.33
472.139	15238.59
472.344	15603.13
472.549	15263.17
472.754	15205.83
472.959	14726.6
473.164	14634.44
473.369	14460.37
473.574	14855.62
473.778	14734.79
473.983	14650.83
474.188	14208.47
474.393	13780.44
474.598	14274
474.802	13913.56
475.007	13706.71
475.212	13661.66
475.417	13194.72
475.621	13264.35
475.826	13340.13
476.031	12932.58
476.235	12865
476.44	13112.8
476.645	12797.42
476.849	12758.5
477.054	12565.99
477.259	12004.85
477.463	12451.31
477.668	12152.31
477.872	12219.89
478.077	12183.02
478.282	11836.92
478.486	11650.55
478.691	11535.87
478.895	11535.87
479.1	11275.77
479.304	11533.82
479.509	11316.73
479.713	11216.38
479.918	10997.25
480.122	10974.72
480.326	11099.65
480.531	11085.31
480.735	11023.87
480.94	10712.58
481.144	11341.31
481.348	10624.52
481.553	11005.44
481.757	10591.75
481.961	10700.3
482.166	10968.58
482.37	10872.32
482.574	10608.14
482.778	10591.75
482.983	10728.97
483.187	10853.89
483.391	10849.8
483.595	10700.3
483.8	10407.44
484.004	10515.98
484.208	10771.97
484.412	10432.01
484.616	10479.11
484.821	10575.37
485.025	10450.44
485.229	10569.23
485.433	10610.18
485.637	10515.98
485.841	10346
486.045	10415.63
486.249	10749.45
486.453	10544.65
486.657	10413.58
486.861	10548.75
487.065	10438.16
487.269	10450.44
487.473	10302.99
487.677	10509.83
487.881	10757.64
488.085	10538.51
488.289	10589.71
488.493	10368.52
488.697	10571.27
488.901	10481.16
489.105	10491.4
489.309	10528.27
489.512	10751.49
489.716	10634.76
489.92	10661.38
490.124	10204.69
490.328	10642.95
490.531	10573.32
490.735	10720.78
490.939	10663.43
491.143	10565.13
491.346	10663.43
491.55	10798.6
491.754	10925.57
491.958	10968.58
492.161	10796.55
492.365	10751.49
492.569	10886.66
492.772	10814.98
492.976	10984.96
493.18	10913.28
493.383	11234.82
493.587	11415.04
493.79	11343.36
493.994	11175.42
494.197	11187.71
494.401	11451.9
494.605	11167.23
494.808	11388.41
495.012	11546.11
495.215	11529.72
495.419	11623.93
495.622	11800.05
495.825	11941.36
496.029	11750.9
496.232	12131.83
496.436	12283.38
496.639	12424.69
496.843	12199.41
497.046	12393.97
497.249	12629.48
497.453	12621.29
497.656	12723.69
497.859	12695.02
498.063	13108.71
498.266	13063.65
498.469	13209.06
498.673	13243.87
498.876	13317.6
499.079	13440.48
499.282	13297.12
499.485	14026.2
499.689	13878.74
499.892	14204.37
500.095	14024.15
500.298	14216.66
500.501	14398.93
500.705	14423.5
500.908	14656.97
501.111	14986.69
501.314	15201.73
501.517	15316.42
501.72	15242.69
501.923	15279.55
502.126	15728.06
502.329	15850.94
502.532	15984.05
502.735	16006.58
502.938	16174.52
503.141	16379.31
503.344	16836.01
503.547	16537.01
503.75	16766.38
503.953	16971.18
504.156	17182.12
504.359	17225.12
504.562	17341.86
504.765	17737.12
504.968	17853.85
505.17	18177.43
505.373	17962.39
505.576	18265.49
505.779	18838.92
505.982	18654.61
506.185	19166.6
506.387	19060.1
506.59	19402.11
506.793	19703.17
506.996	19649.92
507.198	19940.73
507.401	20256.12
507.604	20139.38
507.807	20391.28
508.009	20714.86
508.212	20751.73
508.415	21103.98
508.617	21527.91
508.82	21267.81
509.022	21468.52
509.225	21896.54
509.428	22119.77
509.63	22115.67
509.833	22234.46
510.035	22996.3
510.238	23012.68
510.44	22879.57
510.643	23469.38
510.845	23833.92
511.048	23373.13
511.25	23969.08
511.453	24149.31
511.655	24720.69
511.858	24429.88
512.06	24661.3
512.262	25050.41
512.465	25169.19
512.667	25300.26
512.87	25838.88
513.072	25802.02
513.274	26002.72
513.477	26301.72
513.679	26860.82
513.881	26995.98
514.084	27143.44
514.286	27311.37
514.488	27469.06
514.69	27786.5
514.893	28105.98
515.095	28222.72
515.297	28427.51
515.499	28697.84
515.701	28947.7
515.904	29132.01
516.106	29611.24
516.308	29605.09
516.51	29945.06
516.712	30192.86
516.914	30180.57
517.116	30489.82
517.318	30631.13
517.52	30665.94
517.722	30713.05
517.925	31659.21
518.127	31896.77
518.329	32042.18
518.531	31868.1
518.733	32236.73
518.935	32838.84
519.136	32582.84
519.338	32982.2
519.54	32818.36
519.742	33658.03
519.944	33623.21
520.146	33879.21
520.348	34174.11
520.55	33895.59
520.752	34178.21
520.954	34682.01
521.155	34770.07
521.357	35075.22
521.559	35357.84
521.761	35605.64
521.963	35488.91
522.164	35789.96
522.366	35615.88
522.568	36220.03
522.77	36342.91
522.971	36680.83
523.173	36756.6
523.375	36719.74
523.576	36859
523.778	36672.64
523.98	37147.76
524.181	37315.7
524.383	37198.96
524.584	37545.07
524.786	37811.31
524.988	37297.27
525.189	38083.69
525.391	38616.16
525.592	38368.35
525.794	38304.87
525.995	38157.41
526.197	38022.25
526.398	38321.25
526.6	38671.45
526.801	38288.48
527.003	38700.12
527.204	38745.18
527.406	39013.46
527.607	38929.5
527.808	38644.83
528.01	38147.17
528.211	38667.36
528.412	39855.18
528.614	39027.8
528.815	39126.1
529.016	39427.15
529.218	38663.26
529.419	39199.83
529.62	38992.98
529.822	39019.61
530.023	39064.66
530.224	38909.02
530.425	39234.64
530.626	38532.19
530.828	38956.12
531.029	39625.81
531.23	38808.67
531.431	38966.36
531.632	38777.95
531.833	39056.47
532.035	38949.98
532.236	39015.51
532.437	38880.35
532.638	38327.39
532.839	39087.19
533.04	38874.2
533.241	38392.93
533.442	38943.83
533.643	38741.08
533.844	38495.33
534.045	38749.28
534.246	38327.39
534.447	38548.57
534.648	38376.55
534.849	38466.66
535.05	38132.84
535.251	38233.19
535.451	37819.5
535.652	38448.22
535.853	38450.27
536.054	38366.31
536.255	38151.27
536.456	38171.75
536.657	38050.92
536.857	38091.88
537.058	38046.82
537.259	38161.51
537.46	37934.18
537.66	37745.77
537.861	38151.27
538.062	37522.54
538.263	37649.52
538.463	37295.22
538.664	37330.03
538.865	37817.45
539.065	37954.66
539.266	37352.56
539.466	38063.21
539.667	37231.73
539.868	37856.36
540.068	37321.84
540.269	37125.24
540.469	37528.69
540.67	37479.53
540.87	37317.75
541.071	37076.08
541.271	37239.92
541.472	37241.97
541.672	36897.91
541.873	36484.22
542.073	36588.67
542.274	37272.69
542.474	37121.14
542.675	36725.88
542.875	37147.76
543.075	36717.69
543.276	36629.63
543.476	37506.16
543.676	36785.27
543.877	36789.37
544.077	37039.22
544.277	36920.44
544.478	36844.66
544.678	36562.04
544.878	36674.68
545.078	36686.97
545.279	36519.04
545.479	36463.74
545.679	36926.58
545.879	36887.67
546.079	36914.3
546.28	36795.51
546.48	36490.37
546.68	36758.65
546.88	37035.13
547.08	36971.64
547.28	36783.23
547.48	36445.31
547.68	36664.44
547.88	36428.93
548.081	36707.45
548.281	36557.95
548.481	36502.65
548.681	36895.86
548.881	36732.03
549.081	36625.53
549.28	36717.69
549.48	36840.57
549.68	36555.9
549.88	36912.25
550.08	36617.34
550.28	36766.84
550.48	36650.11
550.68	36994.17
550.88	36572.28
551.08	36527.23
551.279	36666.49
551.479	36586.62
551.679	36949.11
551.879	36560
552.079	36836.47
552.278	36424.83
552.478	36947.06
552.678	36686.97
552.878	37536.88
553.077	37065.85
553.277	36422.78
553.477	37422.19
553.676	36760.7
553.876	37076.08
554.076	36793.47
554.275	36607.1
554.475	36936.82
554.674	37266.55
554.874	37000.31
555.074	36596.86
555.273	36879.48
555.473	36996.21
555.672	36951.16
555.872	36988.02
556.071	37207.15
556.271	37194.87
556.47	37375.09
556.67	36875.38
556.869	36996.21
557.068	37143.67
557.268	36631.68
557.467	37231.73
557.667	37145.72
557.866	37145.72
558.065	37297.27
558.265	36881.53
558.464	36772.99
558.663	37356.66
558.863	36926.58
559.062	37362.8
559.261	36940.92
559.461	37299.31
559.66	36932.73
559.859	37018.74
560.058	37078.13
560.258	37184.63
560.457	36914.3
560.656	37600.36
560.855	37184.63
561.054	37110.9
561.253	36992.12
561.453	36965.49
561.652	37411.95
561.851	37350.51
562.05	37305.46
562.249	36977.78
562.448	37395.57
562.647	37354.61
562.846	36916.34
563.045	37338.22
563.244	36873.34
563.443	37420.14
563.642	36156.55
563.841	36707.45
564.04	36654.2
564.239	37166.2
564.438	36605.05
564.637	36996.21
564.836	36607.1
565.035	36484.22
565.234	36367.49
565.432	36410.5
565.631	36390.02
565.83	36736.12
566.029	36693.11
566.228	36709.5
566.427	36308.1
566.625	36015.24
566.824	35978.37
567.023	36232.32
567.222	35452.05
567.42	36131.97
567.619	35978.37
567.818	35685.51
568.016	36074.63
568.215	36250.75
568.414	35417.23
568.612	35984.52
568.811	35916.93
569.01	35830.92
569.208	35216.53
569.407	35640.46
569.605	35085.46
569.804	35437.71
570.002	35140.75
570.201	35218.58
570.4	35021.97
570.598	34901.14
570.797	34962.58
570.995	35036.31
571.193	34745.5
571.392	34833.56
571.59	34593.95
571.789	34639
571.987	34518.17
572.186	34641.05
572.384	34006.18
572.582	34528.41
572.781	34167.97
572.979	33920.17
573.177	34071.71
573.376	33995.94
573.574	33985.7
573.772	33807.53
573.971	33467.56
574.169	33572.01
574.367	33324.21
574.565	33741.99
574.763	33160.37
574.962	33217.71
575.16	32894.13
575.358	33094.83
575.556	32668.86
575.754	33109.17
575.952	32498.87
576.151	33049.78
576.349	32631.99
576.547	32160.96
576.745	32263.36
576.943	32410.81
577.141	32457.92
577.339	32502.97
577.537	32138.43
577.735	31931.59
577.933	31521.99
578.131	32173.25
578.329	31558.86
578.527	31593.67
578.725	31904.96
578.923	31831.24
579.121	31327.44
579.319	31341.77
579.516	31487.18
579.714	31532.23
579.912	31016.15
580.11	30891.22
580.308	31069.39
580.506	30983.38
580.704	30528.73
580.901	31020.24
581.099	30866.64
581.297	30549.21
581.495	30446.81
581.692	30598.36
581.89	30416.09
582.088	30440.67
582.285	30211.29
582.483	30239.97
582.681	30455
582.878	29865.19
583.076	29691.11
583.274	29918.43
583.471	29676.77
583.669	29883.62
583.866	29764.84
584.064	29981.92
584.262	29224.17
584.459	29791.46
584.657	29123.82
584.854	29392.11
585.052	28880.11
585.249	29338.86
585.447	29381.87
585.644	29101.29
585.841	28968.18
586.039	29242.6
586.236	28919.03
586.434	29074.67
586.631	28757.24
586.828	28675.32
587.026	28691.7
587.223	28937.46
587.42	28380.41
587.618	28736.76
587.815	28273.92
588.012	28196.09
588.21	28245.24
588.407	28251.39
588.604	28140.8
588.801	27979.01
588.999	28005.63
589.196	27952.38
589.393	27743.49
589.59	27747.59
589.787	27505.93
589.984	27761.92
590.182	27589.89
590.379	27827.46
590.576	27499.78
590.773	27409.67
590.97	27651.33
591.167	27514.12
591.364	27026.7
591.561	27340.04
591.758	26950.93
591.955	27139.34
592.152	27399.43
592.349	26983.69
592.546	27489.54
592.743	27002.13
592.94	26658.07
593.137	27145.48
593.334	27047.18
593.531	26756.37
593.727	26942.74
593.924	26869.01
594.121	26467.61
594.318	26580.25
594.515	26363.16
594.712	26694.93
594.908	26420.5
595.105	26676.5
595.302	26254.62
595.499	26604.82
595.696	26524.95
595.892	26338.58
596.089	26647.83
596.286	26152.22
596.482	26447.13
596.679	26271
596.876	26412.31
597.072	26254.62
597.269	26178.84
597.466	26326.3
597.662	25949.47
597.859	26150.17
598.055	26281.24
598.252	25863.46
598.448	26254.62
598.645	25752.87
598.841	25857.31
599.038	26150.17
599.234	25855.26
599.431	26027.29
599.627	25900.32
599.824	26113.31
600.02	25613.6
600.217	25830.69
600.413	25982.24
600.609	25718.05
600.806	25931.04
601.002	26045.73
601.198	25779.49
601.395	25904.42
601.591	25959.71
601.787	25947.42
601.984	25478.44
602.18	26316.06
602.376	25951.52
602.572	25672.99
602.769	26107.16
602.965	25832.74
603.161	25802.02
603.357	25836.83
603.553	26010.91
603.75	25945.37
603.946	25953.57
604.142	26277.15
604.338	25806.11
604.534	26189.08
604.73	26125.6
604.926	25869.6
605.122	26029.34
605.318	25978.14
605.514	25984.29
605.71	26015.01
605.906	26258.71
606.102	25896.22
606.298	26004.77
606.494	26504.47
606.69	26332.44
606.886	26375.45
607.082	26137.88
607.278	26033.44
607.474	25695.52
607.67	26402.07
607.866	25988.38
608.062	26379.54
608.257	26113.31
608.453	26215.71
608.649	26570.01
608.845	26205.47
609.041	26172.7
609.236	26514.71
609.432	26101.02
609.628	26508.57
609.824	26236.19
610.019	26191.13
610.215	26451.22
610.411	26531.09
610.606	26463.51
610.802	26916.11
610.998	26510.61
611.193	26344.73
611.389	26522.9
611.584	26320.15
611.78	26449.18
611.976	26752.27
612.171	26826
612.367	26746.13
612.562	26643.73
612.758	26205.47
612.953	26463.51
613.149	26729.75
613.344	26596.63
613.539	26916.11
613.735	26795.28
613.93	26754.32
614.126	26486.04
614.321	26879.25
614.517	26727.7
614.712	26838.29
614.907	26606.87
615.103	26809.62
615.298	26522.9
615.493	27006.22
615.688	26314.01
615.884	27098.38
616.079	26533.14
616.274	26764.56
616.47	26756.37
616.665	26727.7
616.86	26496.28
617.055	26803.47
617.25	26414.36
617.445	27335.95
617.641	26006.81
617.836	26664.21
618.031	26180.89
618.226	26774.8
618.421	26492.18
618.616	26334.49
618.811	26068.25
619.006	26760.47
619.201	25947.42
619.396	26053.92
619.591	25957.66
619.786	26338.58
619.981	25791.78
620.176	26068.25
620.371	25611.56
620.566	26033.44
620.761	25771.3
620.956	26084.64
621.151	25515.3
621.346	25550.12
621.541	25156.91
621.735	25752.87
621.93	25050.41
622.125	25298.22
622.32	24862
622.515	25136.43
622.709	24620.34
622.904	24511.8
623.099	24556.85
623.294	24696.11
623.488	24198.46
623.683	24438.07
623.878	23872.83
624.072	23924.03
624.267	23946.56
624.462	24087.87
624.656	23627.07
624.851	23878.97
625.046	23364.93
625.24	23178.57
625.435	23270.73
625.629	23305.54
625.824	23016.78
626.018	22986.06
626.213	22590.8
626.407	22924.62
626.602	22566.23
626.796	22846.8
626.991	22783.31
627.185	22324.57
627.38	22353.24
627.574	22267.22
627.768	21857.63
627.963	22087
628.157	21761.37
628.352	22201.69
628.546	21716.32
628.74	21984.6
628.935	21402.98
629.129	21540.19
629.323	20956.52
629.517	21454.18
629.712	21058.92
629.906	21112.17
630.1	20645.23
630.294	20915.56
630.489	20596.08
630.683	20841.84
630.877	20600.18
631.071	20462.96
631.265	20581.74
631.459	20149.62
631.653	19916.15
631.848	19735.93
632.042	19561.86
632.236	19934.59
632.43	19686.78
632.624	19936.63
632.818	19537.28
633.012	19189.13
633.206	19359.11
633.4	19332.48
633.594	18953.61
633.788	19162.5
633.982	18988.42
634.176	18699.66
634.369	18793.87
634.563	18830.73
634.757	18705.81
634.951	18621.84
635.145	18320.79
635.339	18367.89
635.533	18163.09
635.726	18249.11
635.92	17859.99
636.114	18146.71
636.308	18111.89
636.501	17833.37
636.695	17548.7
636.889	17550.75
637.083	17747.36
637.276	17286.56
637.47	17180.07
637.664	17491.36
637.857	17061.29
638.051	17067.43
638.244	17040.81
638.438	16870.83
638.632	16666.03
638.825	16557.49
639.019	16330.16
639.212	16358.83
639.406	16457.14
639.599	16348.59
639.793	16483.76
639.986	16092.6
640.18	16053.69
640.373	16135.6
640.567	15617.47
640.76	15762.87
640.954	15654.33
641.147	15361.47
641.34	15500.73
641.534	15289.79
641.727	15125.96
641.92	15496.64
642.114	15093.19
642.307	15148.48
642.5	14706.12
642.694	14775.75
642.887	14761.42
643.08	14751.18
643.273	14560.72
643.467	14403.02
643.66	14345.68
643.853	14558.67
644.046	14032.34
644.239	13975
644.432	14255.57
644.626	13856.22
644.819	13776.34
645.012	13657.56
645.205	13520.35
645.398	13579.74
645.591	13610.46
645.784	13608.41
645.977	13370.85
646.17	13493.72
646.363	13231.58
646.556	13268.45
646.749	13084.13
646.942	13141.47
647.135	12838.37
647.328	12893.67
647.521	12889.57
647.714	12606.95
647.907	12547.56
648.099	12654.06
648.292	12436.97
648.485	12387.82
648.678	12510.7
648.871	12273.14
649.064	12088.82
649.256	12318.19
649.449	12008.95
649.642	12066.29
649.835	11716.09
650.027	11896.31
650.22	11933.17
650.413	11687.42
650.605	11650.55
650.798	11709.94
650.991	11476.48
651.183	11640.31
651.376	11445.76
651.568	11431.42
651.761	11339.26
651.954	11150.85
652.146	11128.32
652.339	11146.75
652.531	11015.68
652.724	10839.56
652.916	11163.14
653.109	10808.84
653.301	10987.01
653.494	11111.94
653.686	10536.46
653.879	10765.83
654.071	10503.69
654.263	10675.72
654.456	10673.67
654.648	10622.47
654.84	10302.99
655.033	10393.1
655.225	10169.87
655.417	10204.69
655.61	10171.92
655.802	10194.45
655.994	10020.37
656.186	10184.21
656.379	9983.51
656.571	9897.49
656.763	9760.28
656.955	9936.4
657.148	9688.6
657.34	9637.4
657.532	9567.77
657.724	9514.52
657.916	9655.83
658.108	9432.6
658.3	9322.01
658.492	9475.61
658.684	9309.72
658.876	9203.23
659.068	9072.16
659.26	9147.94
659.452	9156.13
659.644	8951.33
659.836	8924.71
660.028	9020.96
660.22	8840.74
660.412	8764.96
660.604	8726.05
660.796	8836.64
660.988	8676.9
661.18	8613.42
661.372	8443.43
661.563	8562.22
661.755	8631.85
661.947	8652.33
662.139	8457.77
662.331	8326.7
662.522	8236.59
662.714	8144.43
662.906	8152.62
663.097	8037.94
663.289	8066.61
663.481	8119.85
663.673	8156.72
663.864	8003.12
664.056	7831.09
664.247	7638.58
664.439	8013.36
664.631	7919.15
664.822	7816.76
665.014	7571
665.205	7878.19
665.397	7743.03
665.588	7394.87
665.78	7583.29
665.971	7636.53
666.163	7411.26
666.354	7480.89
666.546	7616.05
666.737	7216.7
666.929	7370.3
667.12	7333.43
667.311	7317.05
667.503	7339.58
667.694	7243.32
667.885	7087.68
668.077	7228.99
668.268	6989.38
668.459	6846.02
668.651	7013.95
668.842	6907.46
669.033	7005.76
669.224	6964.8
669.416	7087.68
669.607	6956.61
669.798	6825.54
669.989	7032.38
670.18	6940.22
670.371	6692.42
670.563	6665.8
670.754	6628.93
670.945	6559.3
671.136	6614.6
671.327	6690.37
671.518	6563.4
671.709	6516.3
671.9	6428.23
672.091	6557.25
672.282	6583.88
672.473	6364.75
672.664	6461
672.855	6307.4
673.046	6411.85
673.237	6403.66
673.428	6475.34
673.619	6366.79
673.809	6192.72
674	6262.35
674.191	6202.96
674.382	6350.41
674.573	6178.38
674.764	6307.4
674.954	6317.64
675.145	6276.68
675.336	6133.33
675.527	6174.28
675.717	6123.09
675.908	6131.28
676.099	6141.52
676.289	6088.27
676.48	6061.65
676.671	5881.42
676.861	5895.76
677.052	5891.66
677.243	5877.33
677.433	5819.99
677.624	6014.54
677.814	5932.62
678.005	5865.04
678.195	5834.32
678.386	5684.82
678.576	5717.59
678.767	5869.14
678.957	5809.75
679.148	5789.27
679.338	5787.22
679.529	5797.46
679.719	5711.44
679.909	5899.86
680.1	5600.85
680.29	5934.67
680.481	5752.4
680.671	5760.59
680.861	5713.49
681.052	5592.66
681.242	5721.68
681.432	5613.14
681.622	5592.66
681.813	5559.89
682.003	5547.61
682.193	5666.39
682.383	5539.41
682.573	5639.76
682.764	5711.44
682.954	5602.9
683.144	5572.18
683.334	5621.33
683.524	5607
683.714	5678.68
683.904	5498.45
684.094	5654.1
684.284	5641.81
684.474	5502.55
684.664	5492.31
684.854	5504.6
685.044	5518.93
685.234	5377.62
685.424	5445.21
685.614	5459.54
685.804	5451.35
685.994	5516.89
686.184	5443.16
686.374	5273.18
686.564	5377.62
686.753	5342.81
686.943	5262.94
687.133	5377.62
687.323	5258.84
687.513	5443.16
687.702	5277.27
687.892	5170.78
688.082	5303.9
688.272	5230.17
688.461	5187.16
688.651	5267.03
688.841	5248.6
689.03	5074.53
689.22	5107.29
689.41	5244.51
689.599	4961.89
689.789	5043.81
689.979	5033.57
690.168	5031.52
690.358	5158.49
690.547	5138.01
690.737	5099.1
690.926	5049.95
691.116	4957.79
691.305	5006.94
691.495	4984.41
691.684	4855.39
691.874	4877.92
692.063	4925.02
692.252	4908.64
692.442	4910.69
692.631	4828.77
692.82	4892.26
693.01	4892.26
693.199	4904.54
693.388	4630.12
693.578	4877.92
693.767	4785.76
693.956	4875.87
694.146	4798.05
694.335	4695.65
694.524	4738.66
694.713	4841.06
694.902	4609.64
695.092	4757.09
695.281	4720.23
695.47	4568.68
695.659	4703.84
695.848	4482.66
696.037	4583.01
696.226	4863.58
696.415	4718.18
696.604	4503.14
696.793	4488.81
696.982	4533.86
697.171	4580.96
697.36	4755.04
697.549	4570.72
697.738	4558.44
697.927	4466.28
698.116	4642.4
698.305	4525.67
698.494	4486.76
698.683	4501.09
698.872	4492.9
699.061	4517.48
699.25	4451.94
699.438	4404.84
699.627	4472.42
699.816	4453.99
700.005	4474.47
700.193	4355.69
700.382	4482.66
700.571	4509.29
700.76	4269.67
700.948	4351.59
701.137	4460.13
701.326	4398.7
701.514	4224.62
701.703	4288.11
701.892	4394.6
702.08	4327.02
702.269	4316.78
702.457	4318.82
702.646	4195.95
702.834	4173.42
703.023	4091.5
703.212	4140.65
703.4	4320.87
703.589	4165.23
703.777	4247.15
703.965	4224.62
704.154	4116.08
704.342	4202.09
704.531	4144.75
704.719	4124.27
704.907	4320.87
705.096	4099.69
705.284	4032.11
705.472	4056.68
705.661	4146.8
705.849	4089.45
706.037	3944.05
706.226	4034.16
706.414	4085.36
706.602	3898.99
706.79	4058.73
706.979	3982.96
707.167	4009.58
707.355	3878.51
707.543	3933.81
707.731	4157.04
707.919	3935.85
708.107	3993.2
708.296	3812.98
708.484	3810.93
708.672	3874.42
708.86	3847.79
709.048	3970.67
709.236	4042.35
709.424	3917.42
709.612	3970.67
709.8	3835.5
709.988	3827.31
710.176	3942
710.364	3759.73
710.551	3643
710.739	3698.29
710.927	3782.26
711.115	3651.19
711.303	3794.54
711.491	3704.43
711.679	3720.82
711.866	3665.52
712.054	3593.84
712.242	3511.93
712.43	3778.16
712.617	3583.6
712.805	3559.03
712.993	3706.48
713.181	3544.69
713.368	3577.46
713.556	3577.46
713.744	3534.45
713.931	3638.9
714.119	3638.9
714.306	3501.69
714.494	3622.52
714.682	3520.12
714.869	3307.13
715.057	3438.2
715.244	3552.88
715.432	3538.55
715.619	3399.29
715.807	3597.94
715.994	3552.88
716.182	3499.64
716.369	3491.45
716.556	3507.83
716.744	3352.18
716.931	3397.24
717.119	3378.81
717.306	3536.5
717.493	3343.99
717.681	3323.51
717.868	3311.22
718.055	3270.26
718.242	3360.38
718.43	3358.33
718.617	3237.5
718.804	3311.22
718.991	3313.27
719.179	3217.02
719.366	3198.59
719.553	3352.18
719.74	3229.31
719.927	3303.03
720.114	3133.05
720.301	3153.53
720.488	3171.96
720.676	3151.48
720.863	3253.88
721.05	3206.78
721.237	3157.63
721.424	3163.77
721.611	3165.82
721.798	3106.43
721.985	3090.04
722.172	3135.1
722.358	3149.43
722.545	3198.59
722.732	3036.8
722.919	3208.83
723.106	3071.61
723.293	3110.52
723.48	3116.67
723.667	2999.93
723.853	3008.12
724.04	3081.85
724.227	3018.36
724.414	3049.08
724.6	2854.53
724.787	2993.79
724.974	3012.22
725.161	3004.03
725.347	3001.98
725.534	3032.7
725.72	3008.12
725.907	3040.89
726.094	3001.98
726.28	2922.11
726.467	2958.97
726.653	2901.63
726.84	3083.9
727.027	2999.93
727.213	2842.24
727.4	2905.73
727.586	2909.82
727.773	2993.79
727.959	2836.1
728.145	2860.67
728.332	2838.14
728.518	2786.94
728.705	2905.73
728.891	2754.18
729.077	2813.57
729.264	2883.2
729.45	2868.86
729.636	2913.92
729.823	2901.63
730.009	2819.71
730.195	2770.56
730.382	2684.55
730.568	2756.22
730.754	2815.62
730.94	2819.71
731.126	2739.84
731.313	2864.77
731.499	2780.8
731.685	2674.31
731.871	2653.83
732.057	2799.23
732.243	2748.03
732.429	2690.69
732.615	2721.41
732.801	2727.55
732.987	2614.91
733.173	2674.31
733.359	2784.9
733.545	2631.3
733.731	2616.96
733.917	2723.46
734.103	2692.74
734.289	2762.37
734.475	2573.96
734.661	2635.39
734.847	2674.31
735.033	2655.87
735.219	2737.79
735.404	2702.98
735.59	2690.69
735.776	2553.48
735.962	2655.87
736.148	2549.38
736.333	2590.34
736.519	2633.35
736.705	2522.76
736.89	2635.39
737.076	2573.96
737.262	2526.85
737.447	2543.24
737.633	2489.99
737.819	2565.76
738.004	2473.6
738.19	2434.69
738.375	2496.13
738.561	2551.43
738.747	2401.93
738.932	2358.92
739.118	2463.37
739.303	2426.5
739.489	2606.72
739.674	2436.74
739.859	2377.35
740.045	2487.94
740.23	2444.93
740.416	2281.1
740.601	2449.03
740.786	2346.63
740.972	2336.39
741.157	2287.24
741.342	2344.58
741.528	2342.53
741.713	2420.36
741.898	2293.38
742.084	2279.05
742.269	2246.28
742.454	2330.25
742.639	2379.4
742.824	2293.38
743.01	2258.57
743.195	2315.91
743.38	2131.59
743.565	2328.2
743.75	2182.79
743.935	2217.61
744.12	2233.99
744.305	2076.3
744.49	2109.07
744.675	2107.02
744.86	2164.36
745.045	2027.15
745.23	2233.99
745.415	2045.58
745.6	2133.64
745.785	2035.34
745.97	2172.55
746.155	2127.5
746.34	2074.25
746.525	2057.87
746.71	2111.11
746.895	2018.96
747.079	2021
747.264	1969.8
747.449	2021
747.634	2033.29
747.819	2090.63
748.003	1887.89
748.188	1951.37
748.373	2008.72
748.557	1959.56
748.742	1918.61
748.927	1910.41
749.111	1814.16
749.296	1947.28
749.481	1867.41
749.665	1742.48
749.85	1881.74
750.034	1738.38
750.219	1818.25
750.404	1738.38
750.588	1824.4
750.773	1748.62
750.957	1705.62
751.141	1750.67
751.326	1746.58
751.51	1586.83
751.695	1803.92
751.879	1652.37
752.064	1691.28
752.248	1683.09
752.432	1676.95
752.617	1668.75
752.801	1681.04
752.985	1746.58
753.17	1631.89
753.354	1621.65
753.538	1595.03
753.722	1556.11
753.907	1560.21
754.091	1531.54
754.275	1574.55
754.459	1560.21
754.643	1435.28
754.828	1558.16
755.012	1525.4
755.196	1488.53
755.38	1533.59
755.564	1361.56
755.748	1412.76
755.932	1566.35
756.116	1427.09
756.3	1453.72
756.484	1345.17
756.668	1447.57
756.852	1412.76
757.036	1484.44
757.22	1369.75
757.404	1328.79
757.588	1242.78
757.772	1238.68
757.956	1379.99
758.14	1369.75
758.323	1377.94
758.507	1275.54
758.691	1263.26
758.875	1420.95
759.059	1369.75
759.242	1287.83
759.426	1271.45
759.61	1341.08
759.794	1226.39
759.977	1257.11
760.161	1369.75
760.345	1277.59
760.528	1291.93
760.712	1238.68
760.895	1253.02
761.079	1134.23
761.263	1203.86
761.446	1197.72
761.63	1130.14
761.813	1275.54
761.997	1113.75
762.18	1164.95
762.364	1222.3
762.547	1093.27
762.731	1263.26
762.914	1148.57
763.098	1140.38
763.281	1097.37
763.464	1158.81
763.648	1156.76
763.831	1189.53
764.015	1175.19
764.198	1154.71
764.381	1101.47
764.564	1171.1
764.748	1107.61
764.931	1074.84
765.114	1068.7
765.297	1156.76
765.481	1058.46
765.664	1123.99
765.847	978.59
766.03	1078.94
766.213	1080.99
766.397	999.07
766.58	1093.27
766.763	1066.65
766.946	1074.84
767.129	1093.27
767.312	974.49
767.495	1021.6
767.678	1050.27
767.861	1013.4
768.044	1056.41
768.227	943.77
768.41	943.77
768.593	937.63
768.776	1015.45
768.959	1013.4
769.142	970.4
769.324	972.44
769.507	913.05
769.69	976.54
769.873	970.4
770.056	925.34
770.239	921.24
770.421	978.59
770.604	962.2
770.787	992.92
770.97	919.2
771.152	882.33
771.335	911
771.518	939.68
771.7	1011.36
771.883	1003.16
772.066	865.95
772.248	970.4
772.431	923.29
772.613	929.44
772.796	865.95
772.978	806.56
773.161	915.1
773.343	865.95
773.526	855.71
773.708	829.09
773.891	839.33
774.073	837.28
774.256	855.71
774.438	845.47
774.621	765.6
774.803	851.61
774.985	743.07
775.168	792.22
775.35	806.56
775.532	763.55
775.715	939.68
775.897	765.6
776.079	673.44
776.261	792.22
776.444	796.32
776.626	802.46
776.808	806.56
776.99	763.55
777.173	714.4
777.355	730.78
777.537	820.89
777.719	734.88
777.901	765.6
778.083	667.3
778.265	714.4
778.447	796.32
778.629	698.02
778.811	644.77
778.993	706.21
779.175	747.17
779.357	652.96
779.539	616.1
779.721	673.44
779.903	673.44
780.085	693.92
780.267	698.02
780.449	677.54
780.631	734.88
780.812	640.67
780.994	640.67
781.176	636.58
781.358	552.61
781.54	661.15
781.721	566.95
781.903	663.2
782.085	575.14
782.267	718.5
782.448	669.34
782.63	616.1
782.812	681.63
782.993	591.52
783.175	650.91
783.357	544.42
783.538	536.23
783.72	554.66
783.901	648.86
784.083	544.42
784.264	548.51
784.446	599.71
784.627	534.18
784.809	581.28
784.99	505.51
785.172	497.32
785.353	489.12
785.535	612
785.716	548.51
785.897	509.6
786.079	530.08
786.26	476.84
786.441	534.18
786.623	419.49
786.804	503.46
786.985	468.64
787.167	491.17
787.348	577.19
787.529	468.64
787.71	583.33
787.891	446.12
788.073	476.84
788.254	419.49
788.435	519.84
788.616	417.44
788.797	478.88
788.978	446.12
789.159	356.01
789.34	513.7
789.522	478.88
789.703	364.2
789.884	548.51
790.065	413.35
790.246	489.12
790.427	429.73
790.607	431.78
790.788	446.12
790.969	374.44
791.15	431.78
791.331	390.82
791.512	396.96
791.693	364.2
791.874	304.81
792.054	427.68
792.235	415.4
792.416	366.25
792.597	429.73
792.778	417.44
792.958	399.01
793.139	364.2
793.32	427.68
793.5	321.19
793.681	429.73
793.862	407.2
794.042	343.72
794.223	261.8
794.404	323.24
794.584	313
794.765	347.81
794.945	296.61
795.126	362.15
795.306	372.39
795.487	255.65
795.667	294.57
795.848	317.09
796.028	417.44
796.209	313
796.389	353.96
796.57	292.52
796.75	253.61
796.93	267.94
797.111	290.47
797.291	325.29
797.471	313
797.652	274.09
797.832	319.14
798.012	341.67
798.192	325.29
798.373	276.13
798.553	294.57
798.733	329.38
798.913	216.74
799.093	245.41
799.274	278.18
799.454	370.34
799.634	310.95
799.814	255.65
799.994	265.89
800.174	362.15
800.354	214.7
800.534	272.04
800.714	257.7
800.894	249.51
801.074	196.26
801.254	310.95
801.434	235.18
801.614	239.27
801.794	206.5
801.974	1050.27
802.154	276.13
802.334	247.46
802.514	222.89
802.693	214.7
802.873	237.22
803.053	290.47
803.233	249.51
803.413	272.04
803.592	292.52
803.772	216.74
803.952	218.79
804.131	167.59
804.311	272.04
804.491	263.85
804.67	233.13
804.85	173.74
805.03	231.08
805.209	231.08
805.389	220.84
805.568	157.35
805.748	208.55
805.928	233.13
806.107	272.04
806.287	333.48
806.466	288.42
806.646	208.55
806.825	245.41
807.004	196.26
807.184	183.98
807.363	167.59
807.543	190.12
807.722	157.35
807.901	251.56
808.081	216.74
808.26	153.26
808.439	222.89
808.619	190.12
808.798	181.93
808.977	292.52
809.156	169.64
809.336	206.5
809.515	245.41
809.694	194.22
809.873	188.07
810.052	239.27
810.231	200.36
810.411	231.08
810.59	276.13
810.769	163.5
810.948	272.04
811.127	149.16
811.306	200.36
811.485	157.35
811.664	206.5
811.843	159.4
812.022	200.36
812.201	216.74
812.38	255.65
812.559	190.12
812.737	167.59
812.916	231.08
813.095	159.4
813.274	181.93
813.453	243.37
813.632	200.36
813.811	255.65
813.989	163.5
814.168	145.06
814.347	149.16
814.526	190.12
814.704	214.7
814.883	210.6
815.062	157.35
815.24	243.37
815.419	140.97
815.598	100.01
815.776	206.5
815.955	149.16
816.133	104.11
816.312	165.54
816.49	120.49
816.669	112.3
816.847	83.63
817.026	124.58
817.204	173.74
817.383	206.5
817.561	151.21
817.74	161.45
817.918	192.17
818.097	153.26
818.275	87.72
818.453	208.55
818.632	167.59
818.81	95.91
818.988	179.88
819.167	116.39
819.345	143.02
819.523	128.68
819.701	116.39
819.879	167.59
820.058	149.16
820.236	120.49
820.414	222.89
820.592	181.93
820.77	157.35
820.948	67.24
821.127	116.39
821.305	116.39
821.483	167.59
821.661	136.87
821.839	233.13
822.017	110.25
822.195	140.97
822.373	151.21
822.551	132.78
822.729	186.02
822.907	59.05
823.085	192.17
823.262	145.06
823.44	79.53
823.618	120.49
823.796	126.63
823.974	149.16
824.152	85.67
824.329	106.15
824.507	116.39
824.685	110.25
824.863	177.83
825.04	136.87
825.218	143.02
825.396	114.34
825.574	124.58
825.751	13.99
825.929	100.01
826.107	102.06
826.284	118.44
826.462	118.44
826.639	18.09
826.817	3.75
826.994	200.36
827.172	75.43
827.349	171.69
827.527	153.26
827.704	79.53
827.882	134.82
828.059	79.53
828.237	59.05
828.414	181.93
828.591	50.86
828.769	59.05
828.946	81.58
829.124	151.21
829.301	67.24
829.478	61.1
829.655	161.45
829.833	122.54
830.01	69.29
830.187	69.29
830.364	147.11
830.542	108.2
830.719	206.5
830.896	87.72
831.073	-43.35
831.25	120.49
831.427	93.87
831.604	79.53
831.782	100.01
831.959	93.87
832.136	34.47
832.313	124.58
832.49	91.82
832.667	100.01
832.844	18.09
833.021	167.59
833.198	149.16
833.374	130.73
833.551	65.19
833.728	71.34
833.905	116.39
834.082	79.53
834.259	65.19
834.436	128.68
834.612	57
834.789	71.34
834.966	54.95
835.143	132.78
835.319	52.91
835.496	36.52
835.673	79.53
835.85	200.36
836.026	79.53
836.203	143.02
836.38	91.82
836.556	52.91
836.733	61.1
836.909	130.73
837.086	50.86
837.262	50.86
837.439	75.43
837.616	67.24
837.792	42.67
837.968	143.02
838.145	44.71
838.321	28.33
838.498	79.53
838.674	52.91
838.851	120.49
839.027	83.63
839.203	46.76
839.38	134.82
839.556	93.87
839.732	202.41
839.909	91.82
840.085	65.19
840.261	48.81
840.437	63.15
840.614	69.29
840.79	52.91
840.966	100.01
841.142	124.58
841.318	71.34
841.494	46.76
841.671	110.25
841.847	100.01
842.023	36.52
842.199	87.72
842.375	26.28
842.551	69.29
842.727	81.58
842.903	61.1
843.079	59.05
843.255	128.68
843.431	-10.58
843.607	44.71
843.783	-53.59
843.959	118.44
844.134	85.67
844.31	120.49
844.486	18.09
844.662	57
844.838	79.53
845.013	24.23
845.189	54.95
845.365	1.71
845.541	116.39
845.716	20.14
845.892	30.38
846.068	65.19
846.244	9.9
846.419	120.49
846.595	46.76
846.77	36.52
846.946	108.2
847.122	36.52
847.297	69.29
847.473	128.68
847.648	38.57
847.824	102.06
847.999	16.04
848.175	9.9
848.35	63.15
848.526	108.2
848.701	136.87
848.876	-6.49
849.052	100.01
849.227	26.28
849.403	13.99
849.578	75.43
849.753	59.05
849.929	46.76
850.104	50.86
850.279	83.63
850.454	104.11
850.63	69.29
850.805	59.05
850.98	50.86
851.155	50.86
851.33	59.05
851.505	18.09
851.681	116.39
851.856	-2.39
852.031	108.2
852.206	9.9
852.381	5.8
852.556	44.71
852.731	106.15
852.906	50.86
853.081	34.47
853.256	102.06
853.431	20.14
853.606	36.52
853.781	42.67
853.956	-0.34
854.131	11.95
854.305	50.86
854.48	48.81
854.655	26.28
854.83	38.57
855.005	59.05
855.18	75.43
855.354	20.14
855.529	48.81
855.704	54.95
855.879	18.09
856.053	42.67
856.228	65.19
856.403	1.71
856.577	79.53
856.752	5.8
856.926	61.1
857.101	77.48
857.276	3.75
857.45	42.67
857.625	44.71
857.799	26.28
857.974	69.29
858.148	-65.88
858.323	112.3
858.497	-31.06
858.672	-67.92
858.846	59.05
859.02	100.01
859.195	102.06
859.369	57
859.543	40.62
859.718	36.52
859.892	1.71
860.066	81.58
860.241	-6.49
860.415	38.57
860.589	7.85
860.763	52.91
860.938	38.57
861.112	50.86
861.286	50.86
861.46	-4.44
861.634	42.67
861.808	42.67
861.982	26.28
862.157	1.71
862.331	3.75
862.505	91.82
862.679	-29.01
862.853	-6.49
863.027	50.86
863.201	83.63
863.375	54.95
863.549	69.29
863.722	3.75
863.896	-29.01
864.07	61.1
864.244	-2.39
864.418	40.62
864.592	50.86
864.766	16.04
864.939	44.71
865.113	7.85
865.287	120.49
865.461	-31.06
865.634	38.57
865.808	67.24
865.982	77.48
866.156	-76.12
866.329	50.86
866.503	71.34
866.676	18.09
866.85	44.71
867.024	20.14
867.197	20.14
867.371	104.11
867.544	18.09
867.718	-26.96
867.891	59.05
868.065	-6.49
868.238	59.05
868.412	42.67
868.585	69.29
868.759	30.38
868.932	-18.77
869.105	-53.59
869.279	46.76
869.452	36.52
869.625	26.28
869.799	95.91
869.972	-14.68
870.145	11.95
870.319	46.76
870.492	50.86
870.665	-2.39
870.838	-6.49
871.011	11.95
871.185	-53.59
871.358	50.86
871.531	9.9
871.704	18.09
871.877	36.52
872.05	34.47
872.223	-26.96
872.396	95.91
872.569	-10.58
872.742	-14.68
872.915	26.28
873.088	59.05
873.261	75.43
873.434	26.28
873.607	75.43
873.78	46.76
873.953	-45.4
874.126	-6.49
874.299	18.09
874.471	40.62
874.644	5.8
874.817	75.43
874.99	108.2
875.163	-67.92
875.335	73.39
875.508	46.76
875.681	85.67
875.853	36.52
876.026	-47.44
876.199	48.81
876.371	48.81
876.544	-0.34
876.717	59.05
876.889	9.9
877.062	59.05
877.234	59.05
877.407	79.53
877.579	-22.87
877.752	11.95
877.924	91.82
878.097	-2.39
878.269	102.06
878.442	5.8
878.614	26.28
878.786	50.86
878.959	61.1
879.131	-14.68
879.303	-20.82
879.476	26.28
879.648	83.63
879.82	30.38
879.993	13.99
880.165	26.28
880.337	-14.68
880.509	83.63
880.681	-22.87
880.854	-6.49
881.026	-2.39
881.198	100.01
881.37	36.52
881.542	63.15
881.714	18.09
881.886	32.43
882.058	-8.53
882.23	1.71
882.402	34.47
882.574	50.86
882.746	-4.44
882.918	-31.06
883.09	46.76
883.262	50.86
883.434	3.75
883.606	-4.44
883.778	-22.87
883.95	67.24
884.122	-104.79
884.293	108.2
884.465	-37.2
884.637	-12.63
884.809	28.33
884.98	-26.96
885.152	-2.39
885.324	44.71
885.496	38.57
885.667	75.43
885.839	1.71
886.011	165.54
886.182	-6.49
886.354	75.43
886.525	1.71
886.697	83.63
886.869	-69.97
887.04	30.38
887.212	-0.34
887.383	42.67
887.555	54.95
887.726	87.72
887.897	-12.63
888.069	16.04
888.24	52.91
888.412	28.33
888.583	50.86
888.754	-45.4
888.926	-10.58
889.097	69.29
889.268	-47.44
889.44	-4.44
889.611	34.47
889.782	69.29
889.953	-37.2
890.125	79.53
890.296	-22.87
890.467	-16.73
890.638	-26.96
890.809	30.38
890.98	1.71
891.151	18.09
891.323	143.02
891.494	75.43
891.665	61.1
891.836	-26.96
892.007	67.24
892.178	16.04
892.349	-0.34
892.52	-14.68
892.691	67.24
892.862	-22.87
893.032	-33.11
893.203	30.38
893.374	13.99
893.545	59.05
893.716	52.91
893.887	28.33
894.057	-14.68
894.228	-14.68
894.399	-31.06
894.57	75.43
894.74	-10.58
894.911	73.39
895.082	-2.39
895.253	13.99
895.423	40.62
895.594	69.29
895.764	9.9
895.935	1.71
896.106	13.99
896.276	34.47
896.447	26.28
896.617	20.14
896.788	38.57
896.958	-6.49
897.129	3.75
897.299	-26.96
897.47	61.1
897.64	20.14
897.81	32.43
897.981	48.81
898.151	3.75
898.322	46.76
898.492	-6.49
898.662	-29.01
898.832	-41.3
899.003	-22.87
899.173	34.47
899.343	-6.49
899.513	-43.35
