Data from USB4F104151__30__14-29-03-374.txt Node

Date: Thu Mar 13 14:29:03 EDT 2025
User: louis
Spectrometer: USB4F10415
Trigger mode: 4
Integration Time (sec): 2.500000E-2
Scans to average: 1
Electric dark correction enabled: true
Nonlinearity correction enabled: false
Boxcar width: 0
XAxis mode: Wavelengths
Number of Pixels in Spectrum: 3648
>>>>>Begin Spectral Data<<<<<
178.204	-161.11
178.424	-161.11
178.644	-161.11
178.864	-154.96
179.084	-91.48
179.304	-13.65
179.524	31.4
179.744	-13.65
179.964	-21.85
180.184	19.11
180.404	6.83
180.624	45.74
180.844	-5.46
181.064	-50.52
181.283	-19.8
181.503	51.88
181.723	-30.04
181.943	-17.75
182.163	84.65
182.383	-54.61
182.602	-3.41
182.822	115.37
183.042	51.88
183.262	64.17
183.482	21.16
183.701	29.35
183.921	70.31
184.141	19.11
184.361	35.5
184.58	21.16
184.8	105.13
185.02	45.74
185.239	49.83
185.459	21.16
185.679	35.5
185.898	-34.13
186.118	55.98
186.338	86.7
186.557	51.88
186.777	37.55
186.997	27.31
187.216	76.46
187.436	84.65
187.655	35.5
187.875	51.88
188.095	-1.37
188.314	51.88
188.534	127.66
188.753	21.16
188.973	53.93
189.192	41.64
189.412	88.75
189.631	103.08
189.851	43.69
190.07	101.03
190.29	-60.76
190.509	84.65
190.729	-3.41
190.948	82.6
191.168	117.42
191.387	27.31
191.607	39.59
191.826	-9.56
192.045	82.6
192.265	76.46
192.484	-1.37
192.704	66.22
192.923	-71
193.142	88.75
193.362	12.97
193.581	70.31
193.8	39.59
194.02	64.17
194.239	-71
194.458	45.74
194.678	72.36
194.897	15.02
195.116	39.59
195.335	68.27
195.555	60.07
195.774	31.4
195.993	109.22
196.212	-34.13
196.432	121.51
196.651	90.79
196.87	29.35
197.089	92.84
197.308	101.03
197.528	53.93
197.747	35.5
197.966	19.11
198.185	109.22
198.404	19.11
198.623	82.6
198.842	37.55
199.062	139.94
199.281	60.07
199.5	47.79
199.719	51.88
199.938	68.27
200.157	31.4
200.376	117.42
200.595	117.42
200.814	51.88
201.033	8.87
201.252	66.22
201.471	29.35
201.69	-21.85
201.909	37.55
202.128	29.35
202.347	60.07
202.566	15.02
202.785	-11.61
203.004	-21.85
203.223	168.62
203.442	92.84
203.661	39.59
203.879	31.4
204.098	113.32
204.317	72.36
204.536	92.84
204.755	10.92
204.974	76.46
205.193	45.74
205.411	60.07
205.63	-19.8
205.849	17.07
206.068	10.92
206.287	15.02
206.505	31.4
206.724	19.11
206.943	31.4
207.162	39.59
207.381	45.74
207.599	62.12
207.818	31.4
208.037	47.79
208.255	62.12
208.474	37.55
208.693	80.55
208.911	4.78
209.13	64.17
209.349	23.21
209.567	62.12
209.786	105.13
210.005	21.16
210.223	55.98
210.442	2.73
210.661	62.12
210.879	27.31
211.098	-9.56
211.316	101.03
211.535	60.07
211.753	4.78
211.972	51.88
212.191	72.36
212.409	4.78
212.628	60.07
212.846	21.16
213.065	10.92
213.283	70.31
213.502	-15.7
213.72	51.88
213.938	43.69
214.157	45.74
214.375	41.64
214.594	19.11
214.812	60.07
215.031	92.84
215.249	62.12
215.467	35.5
215.686	125.61
215.904	27.31
216.122	10.92
216.341	60.07
216.559	35.5
216.778	80.55
216.996	135.85
217.214	37.55
217.432	60.07
217.651	12.97
217.869	-5.46
218.087	35.5
218.306	21.16
218.524	35.5
218.742	-73.04
218.96	10.92
219.179	-9.56
219.397	86.7
219.615	78.51
219.833	35.5
220.051	23.21
220.27	45.74
220.488	60.07
220.706	45.74
220.924	92.84
221.142	45.74
221.36	78.51
221.578	101.03
221.796	-17.75
222.015	58.03
222.233	-9.56
222.451	117.42
222.669	-38.23
222.887	78.51
223.105	35.5
223.323	60.07
223.541	101.03
223.759	86.7
223.977	-46.42
224.195	105.13
224.413	68.27
224.631	66.22
224.849	113.32
225.067	119.46
225.285	-58.71
225.503	47.79
225.721	15.02
225.939	82.6
226.157	92.84
226.375	101.03
226.592	-25.94
226.81	62.12
227.028	90.79
227.246	78.51
227.464	107.18
227.682	98.99
227.9	64.17
228.117	78.51
228.335	84.65
228.553	4.78
228.771	37.55
228.989	23.21
229.206	35.5
229.424	47.79
229.642	12.97
229.86	-11.61
230.077	47.79
230.295	45.74
230.513	90.79
230.731	74.41
230.948	92.84
231.166	101.03
231.384	-44.37
231.601	39.59
231.819	35.5
232.037	4.78
232.254	10.92
232.472	103.08
232.689	-60.76
232.907	111.27
233.125	47.79
233.342	-3.41
233.56	10.92
233.777	33.45
233.995	12.97
234.213	47.79
234.43	39.59
234.648	49.83
234.865	37.55
235.083	111.27
235.3	19.11
235.518	47.79
235.735	129.7
235.953	23.21
236.17	27.31
236.388	86.7
236.605	51.88
236.822	62.12
237.04	53.93
237.257	39.59
237.475	76.46
237.692	117.42
237.909	60.07
238.127	-34.13
238.344	43.69
238.562	29.35
238.779	-13.65
238.996	-40.28
239.214	86.7
239.431	90.79
239.648	133.8
239.865	105.13
240.083	96.94
240.3	-5.46
240.517	51.88
240.735	60.07
240.952	78.51
241.169	80.55
241.386	8.87
241.603	55.98
241.821	45.74
242.038	76.46
242.255	45.74
242.472	23.21
242.689	-7.51
242.907	25.26
243.124	15.02
243.341	25.26
243.558	23.21
243.775	-11.61
243.992	-3.41
244.209	27.31
244.426	125.61
244.643	121.51
244.86	37.55
245.078	125.61
245.295	45.74
245.512	27.31
245.729	27.31
245.946	27.31
246.163	86.7
246.38	19.11
246.597	31.4
246.814	27.31
247.031	78.51
247.248	84.65
247.464	141.99
247.681	-5.46
247.898	96.94
248.115	111.27
248.332	39.59
248.549	29.35
248.766	66.22
248.983	150.18
249.2	31.4
249.417	88.75
249.633	76.46
249.85	-52.56
250.067	19.11
250.284	90.79
250.501	27.31
250.717	51.88
250.934	35.5
251.151	4.78
251.368	-19.8
251.585	55.98
251.801	51.88
252.018	41.64
252.235	43.69
252.451	27.31
252.668	31.4
252.885	78.51
253.102	27.31
253.318	49.83
253.535	80.55
253.752	-30.04
253.968	137.9
254.185	117.42
254.401	-19.8
254.618	90.79
254.835	88.75
255.051	45.74
255.268	86.7
255.484	37.55
255.701	-1.37
255.917	60.07
256.134	-79.19
256.351	92.84
256.567	2.73
256.784	39.59
257	-87.38
257.217	76.46
257.433	74.41
257.65	27.31
257.866	174.76
258.082	-21.85
258.299	-9.56
258.515	64.17
258.732	68.27
258.948	43.69
259.165	98.99
259.381	62.12
259.597	12.97
259.814	27.31
260.03	17.07
260.246	94.89
260.463	10.92
260.679	68.27
260.895	80.55
261.112	45.74
261.328	101.03
261.544	144.04
261.761	121.51
261.977	43.69
262.193	58.03
262.409	10.92
262.626	107.18
262.842	84.65
263.058	21.16
263.274	70.31
263.49	10.92
263.707	58.03
263.923	125.61
264.139	27.31
264.355	51.88
264.571	94.89
264.787	23.21
265.004	146.09
265.22	-52.56
265.436	55.98
265.652	78.51
265.868	51.88
266.084	23.21
266.3	47.79
266.516	74.41
266.732	-13.65
266.948	123.56
267.164	76.46
267.38	2.73
267.596	182.95
267.812	78.51
268.028	84.65
268.244	49.83
268.46	6.83
268.676	29.35
268.892	62.12
269.108	31.4
269.324	-27.99
269.54	6.83
269.756	125.61
269.972	-15.7
270.188	37.55
270.403	-1.37
270.619	68.27
270.835	35.5
271.051	21.16
271.267	0.68
271.483	53.93
271.698	92.84
271.914	68.27
272.13	53.93
272.346	-21.85
272.562	35.5
272.777	88.75
272.993	68.27
273.209	37.55
273.425	-5.46
273.64	53.93
273.856	64.17
274.072	70.31
274.287	19.11
274.503	45.74
274.719	94.89
274.934	-21.85
275.15	33.45
275.366	53.93
275.581	101.03
275.797	72.36
276.012	12.97
276.228	94.89
276.444	43.69
276.659	133.8
276.875	27.31
277.09	-15.7
277.306	10.92
277.521	86.7
277.737	25.26
277.952	51.88
278.168	84.65
278.383	-38.23
278.599	125.61
278.814	76.46
279.03	27.31
279.245	158.38
279.461	62.12
279.676	51.88
279.892	-11.61
280.107	53.93
280.322	-21.85
280.538	37.55
280.753	43.69
280.969	29.35
281.184	84.65
281.399	84.65
281.615	43.69
281.83	86.7
282.045	49.83
282.26	47.79
282.476	55.98
282.691	119.46
282.906	86.7
283.122	64.17
283.337	35.5
283.552	58.03
283.767	86.7
283.983	60.07
284.198	88.75
284.413	66.22
284.628	-62.8
284.843	62.12
285.058	-13.65
285.274	80.55
285.489	39.59
285.704	64.17
285.919	62.12
286.134	55.98
286.349	31.4
286.564	29.35
286.779	51.88
286.995	-46.42
287.21	12.97
287.425	55.98
287.64	10.92
287.855	64.17
288.07	-17.75
288.285	109.22
288.5	10.92
288.715	109.22
288.93	55.98
289.145	21.16
289.36	37.55
289.575	31.4
289.79	101.03
290.004	-3.41
290.219	49.83
290.434	49.83
290.649	68.27
290.864	27.31
291.079	21.16
291.294	47.79
291.509	37.55
291.724	70.31
291.938	60.07
292.153	43.69
292.368	74.41
292.583	94.89
292.798	53.93
293.012	125.61
293.227	125.61
293.442	84.65
293.657	51.88
293.871	66.22
294.086	23.21
294.301	98.99
294.516	66.22
294.73	62.12
294.945	-50.52
295.16	94.89
295.374	-62.8
295.589	23.21
295.804	117.42
296.018	76.46
296.233	88.75
296.447	101.03
296.662	-58.71
296.877	121.51
297.091	74.41
297.306	92.84
297.52	51.88
297.735	72.36
297.949	51.88
298.164	109.22
298.378	60.07
298.593	12.97
298.807	25.26
299.022	68.27
299.236	101.03
299.451	53.93
299.665	6.83
299.88	53.93
300.094	62.12
300.309	49.83
300.523	6.83
300.737	53.93
300.952	62.12
301.166	39.59
301.381	66.22
301.595	43.69
301.809	-21.85
302.024	21.16
302.238	29.35
302.452	62.12
302.667	49.83
302.881	76.46
303.095	70.31
303.309	10.92
303.524	-3.41
303.738	78.51
303.952	80.55
304.166	35.5
304.381	-9.56
304.595	96.94
304.809	-66.9
305.023	103.08
305.237	37.55
305.452	43.69
305.666	62.12
305.88	119.46
306.094	10.92
306.308	51.88
306.522	76.46
306.736	144.04
306.95	78.51
307.164	92.84
307.379	60.07
307.593	76.46
307.807	39.59
308.021	70.31
308.235	17.07
308.449	107.18
308.663	62.12
308.877	174.76
309.091	78.51
309.305	23.21
309.519	6.83
309.733	12.97
309.947	51.88
310.161	119.46
310.374	-11.61
310.588	84.65
310.802	53.93
311.016	10.92
311.23	27.31
311.444	25.26
311.658	43.69
311.872	51.88
312.085	80.55
312.299	101.03
312.513	107.18
312.727	12.97
312.941	68.27
313.154	101.03
313.368	60.07
313.582	23.21
313.796	101.03
314.009	21.16
314.223	82.6
314.437	111.27
314.651	45.74
314.864	27.31
315.078	70.31
315.292	-50.52
315.505	2.73
315.719	92.84
315.933	43.69
316.146	53.93
316.36	12.97
316.573	115.37
316.787	27.31
317.001	51.88
317.214	60.07
317.428	53.93
317.641	55.98
317.855	72.36
318.068	58.03
318.282	78.51
318.495	80.55
318.709	129.7
318.922	21.16
319.136	55.98
319.349	154.28
319.563	90.79
319.776	68.27
319.99	-9.56
320.203	35.5
320.417	51.88
320.63	51.88
320.843	101.03
321.057	72.36
321.27	86.7
321.483	60.07
321.697	72.36
321.91	115.37
322.124	35.5
322.337	51.88
322.55	55.98
322.763	35.5
322.977	45.74
323.19	101.03
323.403	23.21
323.617	19.11
323.83	53.93
324.043	37.55
324.256	90.79
324.469	12.97
324.683	45.74
324.896	23.21
325.109	76.46
325.322	-1.37
325.535	117.42
325.748	70.31
325.962	12.97
326.175	39.59
326.388	-1.37
326.601	51.88
326.814	4.78
327.027	88.75
327.24	117.42
327.453	-7.51
327.666	41.64
327.879	84.65
328.092	70.31
328.305	39.59
328.518	51.88
328.731	62.12
328.944	68.27
329.157	98.99
329.37	88.75
329.583	133.8
329.796	144.04
330.009	43.69
330.222	68.27
330.435	115.37
330.648	92.84
330.861	2.73
331.073	-5.46
331.286	111.27
331.499	109.22
331.712	66.22
331.925	53.93
332.138	109.22
332.35	101.03
332.563	15.02
332.776	86.7
332.989	39.59
333.202	88.75
333.414	55.98
333.627	68.27
333.84	76.46
334.053	53.93
334.265	4.78
334.478	70.31
334.691	-11.61
334.903	10.92
335.116	15.02
335.329	41.64
335.541	35.5
335.754	78.51
335.966	53.93
336.179	92.84
336.392	72.36
336.604	15.02
336.817	55.98
337.029	29.35
337.242	2.73
337.454	84.65
337.667	47.79
337.88	154.28
338.092	62.12
338.305	76.46
338.517	43.69
338.729	64.17
338.942	133.8
339.154	12.97
339.367	51.88
339.579	68.27
339.792	45.74
340.004	35.5
340.217	133.8
340.429	84.65
340.641	10.92
340.854	60.07
341.066	35.5
341.278	35.5
341.491	170.66
341.703	37.55
341.915	109.22
342.128	92.84
342.34	2.73
342.552	66.22
342.764	45.74
342.977	10.92
343.189	133.8
343.401	168.62
343.613	31.4
343.826	133.8
344.038	10.92
344.25	109.22
344.462	62.12
344.674	53.93
344.886	41.64
345.099	119.46
345.311	82.6
345.523	-19.8
345.735	45.74
345.947	101.03
346.159	35.5
346.371	47.79
346.583	29.35
346.795	53.93
347.007	109.22
347.219	105.13
347.431	29.35
347.643	19.11
347.855	21.16
348.067	49.83
348.279	2.73
348.491	23.21
348.703	-1.37
348.915	15.02
349.127	27.31
349.339	-5.46
349.551	27.31
349.763	141.99
349.975	-19.8
350.187	109.22
350.399	137.9
350.61	103.08
350.822	-17.75
351.034	68.27
351.246	76.46
351.458	43.69
351.669	72.36
351.881	-1.37
352.093	53.93
352.305	72.36
352.517	51.88
352.728	68.27
352.94	86.7
353.152	72.36
353.363	10.92
353.575	19.11
353.787	158.38
353.999	43.69
354.21	10.92
354.422	-30.04
354.633	15.02
354.845	27.31
355.057	74.41
355.268	53.93
355.48	90.79
355.692	33.45
355.903	133.8
356.115	76.46
356.326	-11.61
356.538	103.08
356.749	109.22
356.961	96.94
357.172	29.35
357.384	55.98
357.595	84.65
357.807	51.88
358.018	113.32
358.23	29.35
358.441	21.16
358.653	51.88
358.864	72.36
359.075	51.88
359.287	60.07
359.498	141.99
359.709	66.22
359.921	51.88
360.132	88.75
360.344	41.64
360.555	68.27
360.766	23.21
360.977	31.4
361.189	37.55
361.4	37.55
361.611	174.76
361.823	96.94
362.034	101.03
362.245	-21.85
362.456	23.21
362.667	62.12
362.879	60.07
363.09	90.79
363.301	146.09
363.512	86.7
363.723	31.4
363.935	21.16
364.146	43.69
364.357	101.03
364.568	135.85
364.779	103.08
364.99	51.88
365.201	70.31
365.412	66.22
365.623	51.88
365.834	96.94
366.045	39.59
366.256	68.27
366.467	131.75
366.678	19.11
366.889	41.64
367.1	39.59
367.311	109.22
367.522	68.27
367.733	103.08
367.944	135.85
368.155	-1.37
368.366	70.31
368.577	47.79
368.788	78.51
368.999	27.31
369.209	68.27
369.42	125.61
369.631	199.34
369.842	64.17
370.053	60.07
370.264	119.46
370.474	4.78
370.685	88.75
370.896	25.26
371.107	209.58
371.317	113.32
371.528	4.78
371.739	74.41
371.95	92.84
372.16	35.5
372.371	29.35
372.582	135.85
372.792	74.41
373.003	37.55
373.214	109.22
373.424	96.94
373.635	41.64
373.846	27.31
374.056	68.27
374.267	88.75
374.477	58.03
374.688	74.41
374.898	53.93
375.109	39.59
375.319	109.22
375.53	68.27
375.74	70.31
375.951	117.42
376.161	35.5
376.372	103.08
376.582	51.88
376.793	109.22
377.003	111.27
377.214	27.31
377.424	45.74
377.635	84.65
377.845	101.03
378.055	141.99
378.266	78.51
378.476	23.21
378.686	70.31
378.897	70.31
379.107	88.75
379.317	125.61
379.528	39.59
379.738	15.02
379.948	84.65
380.158	113.32
380.369	-9.56
380.579	96.94
380.789	2.73
380.999	37.55
381.21	60.07
381.42	109.22
381.63	119.46
381.84	141.99
382.05	166.57
382.261	96.94
382.471	176.81
382.681	76.46
382.891	111.27
383.101	101.03
383.311	88.75
383.521	129.7
383.731	84.65
383.941	111.27
384.151	62.12
384.361	60.07
384.571	43.69
384.781	129.7
384.991	121.51
385.201	185
385.411	94.89
385.621	133.8
385.831	94.89
386.041	109.22
386.251	62.12
386.461	158.38
386.671	41.64
386.881	55.98
387.091	101.03
387.301	166.57
387.511	94.89
387.72	117.42
387.93	168.62
388.14	51.88
388.35	60.07
388.56	146.09
388.769	117.42
388.979	35.5
389.189	92.84
389.399	88.75
389.609	121.51
389.818	135.85
390.028	103.08
390.238	84.65
390.447	51.88
390.657	101.03
390.867	133.8
391.076	51.88
391.286	96.94
391.496	117.42
391.705	88.75
391.915	94.89
392.125	51.88
392.334	68.27
392.544	96.94
392.753	125.61
392.963	74.41
393.172	137.9
393.382	64.17
393.591	197.29
393.801	68.27
394.01	146.09
394.22	84.65
394.429	66.22
394.639	60.07
394.848	86.7
395.058	101.03
395.267	109.22
395.477	156.33
395.686	103.08
395.895	168.62
396.105	174.76
396.314	80.55
396.524	133.8
396.733	125.61
396.942	158.38
397.152	135.85
397.361	195.24
397.57	160.42
397.78	150.18
397.989	39.59
398.198	125.61
398.407	88.75
398.617	182.95
398.826	123.56
399.035	60.07
399.244	182.95
399.453	139.94
399.663	80.55
399.872	125.61
400.081	117.42
400.29	137.9
400.499	68.27
400.708	219.82
400.917	96.94
401.127	92.84
401.336	185
401.545	182.95
401.754	150.18
401.963	215.72
402.172	84.65
402.381	168.62
402.59	195.24
402.799	187.05
403.008	160.42
403.217	141.99
403.426	174.76
403.635	152.23
403.844	150.18
404.053	182.95
404.262	78.51
404.471	240.29
404.68	211.62
404.888	217.77
405.097	107.18
405.306	205.48
405.515	230.06
405.724	215.72
405.933	232.1
406.142	240.29
406.35	258.73
406.559	238.25
406.768	215.72
406.977	232.1
407.185	266.92
407.394	342.69
407.603	273.06
407.812	330.41
408.02	318.12
408.229	240.29
408.438	242.34
408.646	236.2
408.855	316.07
409.064	324.26
409.272	393.89
409.481	397.99
409.69	418.47
409.898	393.89
410.107	297.64
410.315	391.84
410.524	348.84
410.733	395.94
410.941	451.24
411.15	424.61
411.358	447.14
411.567	512.67
411.775	477.86
411.984	547.49
412.192	537.25
412.401	504.48
412.609	678.56
412.818	649.89
413.026	600.74
413.234	592.55
413.443	742.05
413.651	664.22
413.86	674.46
414.068	783.01
414.276	752.29
414.485	733.86
414.693	780.96
414.901	881.31
415.11	875.17
415.318	864.93
415.526	873.12
415.734	965.28
415.943	977.56
416.151	1030.81
416.359	975.52
416.567	1079.96
416.776	1135.26
416.984	1286.81
417.192	1251.99
417.4	1235.61
417.608	1225.37
417.817	1327.77
418.025	1405.59
418.233	1438.36
418.441	1383.06
418.649	1440.4
418.857	1505.94
419.065	1624.72
419.273	1544.85
419.481	1831.57
419.689	1757.84
419.897	1878.67
420.105	1798.8
420.313	2034.32
420.521	1974.92
420.729	2044.56
420.937	2126.47
421.145	2142.86
421.353	2345.61
421.561	2423.43
421.769	2474.63
421.977	2542.21
422.185	2544.26
422.393	2759.3
422.601	2714.24
422.809	2771.58
423.017	2787.97
423.224	2876.03
423.432	2957.95
423.64	3156.6
423.848	3314.3
424.056	3250.81
424.263	3463.8
424.471	3533.43
424.679	3529.33
424.887	3814
425.094	3836.53
425.302	3967.6
425.51	4139.63
425.718	4070
425.925	4260.46
426.133	4272.75
426.341	4551.27
426.548	4725.35
426.756	4835.94
426.964	4848.22
427.171	5026.4
427.379	5358.17
427.586	5491.29
427.794	5519.96
428.001	5814.87
428.209	6058.57
428.417	5974.61
428.624	6576.71
428.832	6296.14
429.039	6255.18
429.247	6316.62
429.454	6937.15
429.662	7467.58
429.869	6820.42
430.076	7252.54
430.284	7066.17
430.491	7576.12
430.699	8141.36
430.906	7842.35
431.114	7952.95
431.321	8165.93
431.528	8639.01
431.736	8935.97
431.943	9466.39
432.15	9333.28
432.358	9368.09
432.565	9812.5
432.772	9828.88
432.979	10134.03
433.187	10357.26
433.394	10412.56
433.601	11225.6
433.808	11319.81
434.016	11072
434.223	11489.79
434.43	12200.43
434.637	11708.92
434.844	12974.56
435.052	13052.39
435.259	12794.34
435.466	13203.94
435.673	12929.51
435.88	13638.11
436.087	14447.05
436.294	14174.67
436.501	14197.2
436.708	14496.21
436.915	14891.46
437.122	15342.02
437.329	15428.03
437.537	15985.08
437.743	16067
437.95	15884.73
438.157	16941.48
438.364	17349.03
438.571	17533.34
438.778	17471.9
438.985	19161.48
439.192	18401.68
439.399	18989.45
439.606	18858.38
439.813	19411.33
440.02	20578.67
440.227	20392.31
440.433	20246.9
440.64	20959.59
440.847	20908.4
441.054	21397.86
441.261	22759.76
441.467	22227.29
441.674	22686.03
441.881	23542.08
442.088	23685.44
442.294	23216.46
442.501	23943.49
442.708	24314.17
442.914	25119.02
443.121	26677.52
443.328	25508.13
443.534	27519.24
443.741	26468.63
443.948	26171.68
444.154	28563.7
444.361	28125.44
444.568	28197.12
444.774	28383.48
444.981	28690.68
445.187	29251.82
445.394	30822.61
445.6	30056.67
445.807	33108.15
446.013	31561.93
446.22	32245.95
446.426	33226.93
446.633	33837.22
446.839	34975.89
447.046	33407.15
447.252	35209.36
447.459	35215.51
447.665	35451.02
447.871	36884.6
448.078	38269.03
448.284	36307.07
448.491	37445.74
448.697	38703.2
448.903	39952.46
449.11	39706.7
449.316	39223.38
449.522	39389.27
449.728	40642.62
449.935	41091.13
450.141	41091.13
450.347	41920.55
450.553	40517.7
450.76	41109.56
450.966	42729.5
451.172	42027.05
451.378	43434
451.584	42311.72
451.791	43354.13
451.997	43184.15
452.203	43857.93
452.409	44232.71
452.615	43733.01
452.821	42070.06
453.027	41695.28
453.233	44070.92
453.44	42352.68
453.646	42766.37
453.852	42876.96
454.058	44017.67
454.264	41789.48
454.47	43499.54
454.676	41910.32
454.882	43573.27
455.088	39467.09
455.294	40726.59
455.5	41021.5
455.705	41377.84
455.911	40028.23
456.117	39000.15
456.323	38525.02
456.529	36919.42
456.735	38271.07
456.941	37087.35
457.147	36583.55
457.352	35870.86
457.558	35016.85
457.764	35446.93
457.97	34619.55
458.176	33841.32
458.381	33777.83
458.587	32071.87
458.793	32237.76
458.999	30726.36
459.204	32393.4
459.41	31908.04
459.616	29622.5
459.821	29792.48
460.027	29450.47
460.233	28975.34
460.438	27767.04
460.644	27754.76
460.85	26374.42
461.055	26497.3
461.261	25860.38
461.466	24600.88
461.672	23800.13
461.878	25133.36
462.083	23707.97
462.289	23183.69
462.494	22997.32
462.7	21801.31
462.905	21244.26
463.111	22004.06
463.316	21682.53
463.522	21518.69
463.727	21459.3
463.932	21451.11
464.138	21119.34
464.343	21272.93
464.549	20623.73
464.754	21420.39
464.959	21238.12
465.165	20914.54
465.37	20224.37
465.575	19411.33
465.781	20169.08
465.986	20390.26
466.191	19575.17
466.397	19401.09
466.602	18456.98
466.807	19153.29
467.012	19097.99
467.218	18989.45
467.423	18600.33
467.628	18819.47
467.833	19573.12
468.038	19063.18
468.244	18338.19
468.449	19196.29
468.654	18579.86
468.859	18407.83
469.064	18305.43
469.269	17281.44
469.474	17473.95
469.679	17904.03
469.885	17369.51
470.09	17549.73
470.295	17691.04
470.5	17240.48
470.705	17220
470.91	16828.84
471.115	16820.65
471.32	16791.98
471.525	16820.65
471.73	16312.75
471.935	16210.36
472.139	15962.55
472.344	15925.69
472.549	15925.69
472.754	15782.33
472.959	15268.29
473.164	14782.92
473.369	15104.45
473.574	15473.09
473.778	15382.98
473.983	15116.74
474.188	14940.61
474.393	14094.8
474.598	14344.66
474.802	14248.4
475.007	14082.52
475.212	14242.26
475.417	13652.44
475.621	13863.38
475.826	13926.87
476.031	13326.82
476.235	13191.65
476.44	13388.25
476.645	13074.92
476.849	13177.31
477.054	12870.12
477.259	12777.96
477.463	12753.38
477.668	12388.85
477.872	12726.76
478.077	12157.43
478.282	12003.83
478.486	11954.68
478.691	12141.04
478.895	11889.14
479.1	11872.76
479.304	11893.24
479.509	11608.57
479.713	11602.43
479.918	11493.88
480.122	11223.55
480.326	11448.83
480.531	11497.98
480.735	11291.13
480.94	11254.27
481.144	11540.99
481.348	11241.98
481.553	11237.89
481.757	10865.16
481.961	11178.5
482.166	11119.1
482.37	11223.55
482.574	10875.4
482.778	10773
482.983	11168.26
483.187	11006.47
483.391	10971.65
483.595	10707.46
483.8	10611.21
484.004	10922.5
484.208	10988.03
484.412	10834.44
484.616	10916.36
484.821	10856.97
485.025	10699.27
485.229	10856.97
485.433	10859.01
485.637	10873.35
485.841	10603.02
486.045	10664.46
486.249	10850.82
486.453	10820.1
486.657	10695.18
486.861	11082.24
487.065	10652.17
487.269	10779.14
487.473	10467.85
487.677	10899.97
487.881	11160.06
488.085	11018.75
488.289	10926.6
488.493	10947.08
488.697	10766.85
488.901	11002.37
489.105	10856.97
489.309	10930.69
489.512	11020.8
489.716	11072
489.92	11014.66
490.124	11053.57
490.328	10957.32
490.531	11002.37
490.735	11176.45
490.939	11264.51
491.143	11143.68
491.346	11020.8
491.55	11295.23
491.754	11276.8
491.958	11180.54
492.161	11405.82
492.365	11209.22
492.569	11266.56
492.772	11278.85
492.976	11422.2
493.18	11266.56
493.383	11459.07
493.587	11571.71
493.79	11700.73
493.994	11508.22
494.197	11545.08
494.401	11938.29
494.605	11639.29
494.808	11850.23
495.012	11891.19
495.215	11936.24
495.419	12145.14
495.622	12048.88
495.825	12095.99
496.029	12204.53
496.232	12536.3
496.436	12401.13
496.639	12886.5
496.843	12749.29
497.046	12966.37
497.249	12958.18
497.453	13289.95
497.656	13248.99
497.859	13402.59
498.063	13578.72
498.266	13683.16
498.469	13572.57
498.673	13666.78
498.876	13939.16
499.079	14068.18
499.282	14076.37
499.485	14367.18
499.689	14254.55
499.892	14485.97
500.095	14793.16
500.298	14926.28
500.501	14860.74
500.705	15454.65
500.908	15473.09
501.111	15745.47
501.314	15716.79
501.517	15868.34
501.72	15921.59
501.923	16116.15
502.126	16386.48
502.329	16658.86
502.532	16634.28
502.735	16769.45
502.938	16976.3
503.141	17027.49
503.344	17199.52
503.547	17484.19
503.75	17500.58
503.953	17832.35
504.156	18045.34
504.359	18123.16
504.562	18348.43
504.765	18733.45
504.968	18895.24
505.17	19009.93
505.373	19163.53
505.576	19233.16
505.779	19399.04
505.982	19630.46
506.185	20183.41
506.387	20203.89
506.59	20269.43
506.793	20681.07
506.996	20332.92
507.198	21119.34
507.401	21145.96
507.604	21287.27
507.807	21866.84
508.009	21786.97
508.212	21760.35
508.415	22194.52
508.617	22309.21
508.82	22360.41
509.022	22540.63
509.225	23089.48
509.428	23220.55
509.63	23279.94
509.833	23558.47
510.035	23961.92
510.238	24111.42
510.44	24219.96
510.643	24801.58
510.845	24719.67
511.048	24690.99
511.25	25086.25
511.453	25377.06
511.655	26534.17
511.858	26050.85
512.06	26093.85
512.262	26536.21
512.465	26597.65
512.667	26814.74
512.87	26898.7
513.072	27306.25
513.274	27953.41
513.477	27912.45
513.679	28033.28
513.881	28408.06
514.084	28647.67
514.286	28727.54
514.488	29196.53
514.69	29675.75
514.893	29487.34
515.095	29743.33
515.297	29993.18
515.499	30320.86
515.701	30687.45
515.904	31238.35
516.106	31344.84
516.308	31566.02
516.51	31873.22
516.712	31895.75
516.914	32184.51
517.116	32751.8
517.318	32772.28
517.52	32649.4
517.722	33038.51
517.925	33198.26
518.127	33794.21
518.329	34263.2
518.531	33560.75
518.733	34336.93
518.935	34965.65
519.136	34912.41
519.338	35260.56
519.54	35111.06
519.742	36073.6
519.944	35614.86
520.146	36327.55
520.348	36290.69
520.55	36579.45
520.752	36843.64
520.954	37232.75
521.155	37001.33
521.357	37460.08
521.559	37634.16
521.761	38424.67
521.963	38076.52
522.164	38445.15
522.366	38637.66
522.568	38578.27
522.77	38832.22
522.971	39235.67
523.173	38791.26
523.375	39112.79
523.576	39282.77
523.778	39589.97
523.98	39845.96
524.181	40210.5
524.383	39747.66
524.584	40450.11
524.786	40540.22
524.988	40407.11
525.189	40669.25
525.391	40659.01
525.592	41125.94
525.794	40609.85
525.995	40939.58
526.197	40988.73
526.398	40742.97
526.6	41766.96
526.801	41674.8
527.003	41488.43
527.204	41934.89
527.406	41631.79
527.607	41648.18
527.808	41424.95
528.01	41406.51
528.211	41656.37
528.412	42303.53
528.614	42025
528.815	41754.67
529.016	42356.77
529.218	42135.59
529.419	42197.03
529.62	42330.15
529.822	42145.83
530.023	41846.83
530.224	41967.66
530.425	41941.03
530.626	41773.1
530.828	41736.24
531.029	42369.06
531.23	41793.58
531.431	41762.86
531.632	41893.93
531.833	42072.1
532.035	41668.65
532.236	41627.7
532.437	41887.79
532.638	41852.97
532.839	41877.55
533.04	41951.27
533.241	41136.18
533.442	42133.54
533.643	41859.12
533.844	41672.75
534.045	41834.54
534.246	41478.19
534.447	41740.33
534.648	41687.09
534.849	41287.73
535.05	40996.92
535.251	41474.1
535.451	41340.98
535.652	41091.13
535.853	41498.67
536.054	40874.04
536.255	41173.05
536.456	40685.63
536.657	40980.54
536.857	40622.14
537.058	40413.25
537.259	41343.03
537.46	40677.44
537.66	40405.06
537.861	40749.12
538.062	40380.48
538.263	40366.15
538.463	40140.87
538.664	40706.11
538.865	40155.21
539.065	40480.83
539.266	40245.32
539.466	40618.05
539.667	40093.77
539.868	40501.31
540.068	40398.91
540.269	40046.66
540.469	40271.94
540.67	39915.59
540.87	39544.91
541.071	39903.31
541.271	40118.34
541.472	40097.86
541.672	39581.77
541.873	39448.66
542.073	39592.01
542.274	39882.83
542.474	39725.13
542.675	39288.92
542.875	40013.9
543.075	39794.76
543.276	38838.36
543.476	39714.89
543.676	39612.49
543.877	39653.45
544.077	39671.89
544.277	39270.48
544.478	38918.23
544.678	39731.28
544.878	39501.9
545.078	39383.12
545.279	38893.66
545.479	39288.92
545.679	39303.25
545.879	38793.31
546.079	38953.05
546.28	39112.79
546.48	39182.42
546.68	39221.33
546.88	39229.52
547.08	39354.45
547.28	39366.74
547.48	39133.27
547.68	39542.86
547.88	39194.71
548.081	39110.74
548.281	39182.42
548.481	39258.2
548.681	39596.11
548.881	38991.96
549.081	39231.57
549.28	39219.28
549.48	39344.21
549.68	39313.49
549.88	40128.58
550.08	39172.18
550.28	39430.22
550.48	39411.79
550.68	39307.35
550.88	39106.65
551.08	39483.47
551.279	39379.03
551.479	39250
551.679	39833.67
551.879	39198.8
552.079	39659.6
552.278	39102.55
552.478	39567.44
552.678	39516.24
552.878	39589.97
553.077	39688.27
553.277	39223.38
553.477	39895.11
553.676	39778.38
553.876	39372.88
554.076	39424.08
554.275	39620.69
554.475	39325.78
554.674	39663.69
554.874	39817.29
555.074	39784.52
555.273	40099.91
555.473	40005.7
555.672	39903.31
555.872	39604.3
556.071	39725.13
556.271	40192.07
556.47	39888.97
556.67	39645.26
556.869	39786.57
557.068	39876.68
557.268	39837.77
557.467	39845.96
557.667	39569.49
557.866	39813.2
558.065	40048.71
558.265	39852.11
558.464	39516.24
558.663	39983.18
558.863	39628.88
559.062	40151.11
559.261	39882.83
559.461	39987.27
559.66	39274.58
559.859	39942.22
560.058	39702.6
560.258	39958.6
560.457	39512.14
560.656	40048.71
560.855	39682.13
561.054	40224.84
561.253	39651.41
561.453	39747.66
561.652	40032.33
561.851	40106.05
562.05	39686.22
562.249	39772.24
562.448	39579.73
562.647	40243.27
562.846	39655.5
563.045	39835.72
563.244	39354.45
563.443	40212.55
563.642	39444.56
563.841	39407.7
564.04	39432.27
564.239	39610.45
564.438	39100.5
564.637	39723.08
564.836	39733.32
565.035	39020.63
565.234	39473.23
565.432	39440.46
565.631	39186.52
565.83	39338.07
566.029	39207
566.228	38793.31
566.427	38877.27
566.625	38666.33
566.824	38262.88
567.023	39198.8
567.222	38148.2
567.42	39102.55
567.619	38778.97
567.818	38373.47
568.016	38551.65
568.215	38953.05
568.414	38355.04
568.612	38789.21
568.811	38608.99
569.01	38543.45
569.208	37937.26
569.407	38148.2
569.605	37832.81
569.804	38252.64
570.002	37959.78
570.201	38230.12
570.4	37427.31
570.598	37695.6
570.797	36989.05
570.995	37697.64
571.193	37095.54
571.392	37740.65
571.59	37220.47
571.789	37187.7
571.987	37109.88
572.186	37476.46
572.384	36997.24
572.582	37302.39
572.781	36794.49
572.979	36374.66
573.177	36749.43
573.376	36810.87
573.574	36503.68
573.772	36503.68
573.971	36264.07
574.169	36145.28
574.367	35829.9
574.565	36292.74
574.763	35975.3
574.962	35797.13
575.16	35606.67
575.358	36001.93
575.556	35457.17
575.754	36110.47
575.952	35227.79
576.151	35430.54
576.349	35092.63
576.547	34828.44
576.745	35010.71
576.943	35006.61
577.141	34801.82
577.339	34672.79
577.537	34580.63
577.735	34601.11
577.933	34095.27
578.131	34447.52
578.329	34087.07
578.527	34039.97
578.725	34109.6
578.923	34504.86
579.121	33810.6
579.319	33642.67
579.516	33913
579.714	33480.88
579.912	33585.32
580.11	33609.9
580.308	33790.12
580.506	33341.61
580.704	32796.85
580.901	33562.79
581.099	33196.21
581.297	32960.69
581.495	32854.2
581.692	33161.39
581.89	32884.92
582.088	32596.15
582.285	32436.41
582.483	32321.73
582.681	32538.81
582.878	32403.64
583.076	32102.59
583.274	32712.89
583.471	31668.42
583.669	32102.59
583.866	31959.23
584.064	31951.04
584.262	31701.19
584.459	31865.03
584.657	31883.46
584.854	31838.4
585.052	31404.24
585.249	31652.04
585.447	31721.67
585.644	31224.01
585.841	31541.45
586.039	31383.76
586.236	31148.24
586.434	31119.57
586.631	30841.04
586.828	31092.94
587.026	30722.26
587.223	30677.21
587.42	30525.66
587.618	30906.58
587.815	30828.76
588.012	30525.66
588.21	30312.67
588.407	30415.07
588.604	30062.82
588.801	29677.8
588.999	30073.06
589.196	30439.64
589.393	29851.88
589.59	30109.92
589.787	29645.03
589.984	29401.32
590.182	29513.96
590.379	29806.82
590.576	29499.62
590.773	29931.75
590.97	29348.07
591.167	29507.82
591.364	29307.12
591.561	29157.61
591.758	29485.29
591.955	28958.96
592.152	29325.55
592.349	29047.02
592.546	29325.55
592.743	29411.56
592.94	28563.7
593.137	29061.36
593.334	29141.23
593.531	28596.47
593.727	28924.15
593.924	28889.33
594.121	28285.18
594.318	28915.95
594.515	28381.43
594.712	28745.97
594.908	28723.44
595.105	28326.14
595.302	28297.47
595.499	28674.29
595.696	28500.22
595.892	28041.47
596.089	28520.7
596.286	28440.82
596.482	28596.47
596.679	28242.17
596.876	28373.24
597.072	28125.44
597.269	28506.36
597.466	28225.79
597.662	27848.96
597.859	28020.99
598.055	28319.99
598.252	27965.7
598.448	28174.59
598.645	27920.64
598.841	27908.35
599.038	28217.6
599.234	27904.26
599.431	27752.71
599.627	27740.42
599.824	27859.2
600.02	27486.47
600.217	27977.98
600.413	27777.28
600.609	27777.28
600.806	27810.05
601.002	28014.85
601.198	27840.77
601.395	27726.08
601.591	27603.21
601.787	27717.89
601.984	27621.64
602.18	28387.58
602.376	27392.26
602.572	27887.87
602.769	27785.47
602.965	27552.01
603.161	27668.74
603.357	27240.71
603.553	27736.32
603.75	27533.57
603.946	27595.01
604.142	27439.37
604.338	27189.52
604.534	27410.7
604.73	27117.84
604.926	27369.74
605.122	27502.85
605.318	27373.83
605.514	27328.78
605.71	27236.62
605.906	27541.77
606.102	27339.02
606.298	27072.78
606.494	27410.7
606.69	27611.4
606.886	27603.21
607.082	27283.72
607.278	27816.19
607.474	27345.16
607.67	27414.79
607.866	27218.19
608.062	27435.27
608.257	27578.63
608.453	27085.07
608.649	27357.45
608.845	27222.28
609.041	27554.05
609.236	27482.38
609.432	27726.08
609.628	27736.32
609.824	27611.4
610.019	27310.35
610.215	27177.23
610.411	27474.18
610.606	27115.79
610.802	27689.22
610.998	27592.97
611.193	27189.52
611.389	27461.9
611.584	27631.88
611.78	27357.45
611.976	27537.67
612.171	27701.51
612.367	27576.58
612.562	27681.03
612.758	27232.52
612.953	27304.2
613.149	27644.16
613.344	27332.87
613.539	27744.52
613.735	27980.03
613.93	27615.49
614.126	27504.9
614.321	27810.05
614.517	27498.76
614.712	27705.6
614.907	27480.33
615.103	27502.85
615.298	27543.81
615.493	27855.11
615.688	27285.77
615.884	27719.94
616.079	27087.12
616.274	27832.58
616.47	27402.5
616.665	27404.55
616.86	27480.33
617.055	27445.51
617.25	27050.25
617.445	27083.02
617.641	26931.47
617.836	27113.74
618.031	26861.84
618.226	27224.33
618.421	26798.35
618.616	27382.02
618.811	26632.47
619.006	27212.04
619.201	26439.96
619.396	26634.52
619.591	26585.36
619.786	26337.56
619.981	26353.94
620.176	26499.35
620.371	26323.22
620.566	26048.8
620.761	25975.07
620.956	26046.75
621.151	25788.71
621.346	25909.54
621.541	25565.48
621.735	25549.09
621.93	25469.22
622.125	25332.01
622.32	24975.66
622.515	25471.27
622.709	25166.12
622.904	24957.23
623.099	24998.19
623.294	24867.12
623.488	24662.32
623.683	24934.7
623.878	24283.45
624.072	24291.64
624.267	24140.09
624.462	24088.89
624.656	23753.02
624.851	23886.14
625.046	23808.32
625.24	24074.56
625.435	23265.61
625.629	23214.41
625.824	23198.02
626.018	23374.15
626.213	22966.6
626.407	22907.21
626.602	22614.35
626.796	22937.93
626.991	22522.19
627.185	22348.12
627.38	22292.82
627.574	22454.61
627.768	22227.29
627.963	22081.88
628.157	21639.52
628.352	21901.66
628.546	21664.1
628.74	21846.37
628.935	21334.37
629.129	21571.94
629.323	21170.54
629.517	21240.17
629.712	20988.27
629.906	21170.54
630.1	20615.54
630.294	21133.67
630.489	20621.68
630.683	20724.08
630.877	20169.08
631.071	20242.81
631.265	20498.8
631.459	20298.1
631.653	20167.03
631.848	20236.66
632.042	19851.64
632.236	20044.15
632.43	19736.96
632.624	19689.85
632.818	19540.35
633.012	19124.61
633.206	19179.91
633.4	19237.25
633.594	18944.39
633.788	19132.81
633.982	19177.86
634.176	18573.71
634.369	18844.04
634.563	18712.97
634.757	18526.61
634.951	18641.29
635.145	18708.88
635.339	18385.3
635.533	18114.97
635.726	18155.93
635.92	17897.88
636.114	18094.49
636.308	17678.75
636.501	17944.98
636.695	17678.75
636.889	17353.12
637.083	17172.9
637.276	17209.76
637.47	17320.35
637.664	16976.3
637.857	17154.47
638.051	17054.12
638.244	16888.23
638.438	16699.82
638.632	16658.86
638.825	16609.71
639.019	16718.25
639.212	16296.37
639.406	16261.55
639.599	16183.73
639.793	16155.06
639.986	15651.26
640.18	15864.25
640.373	15763.9
640.567	15673.79
640.76	15710.65
640.954	15423.94
641.147	15456.7
641.34	15450.56
641.534	15217.09
641.727	15194.56
641.92	15069.64
642.114	15098.31
642.307	14866.89
642.5	15116.74
642.694	14272.98
642.887	14592.46
643.08	14690.76
643.273	14416.33
643.467	14260.69
643.66	14315.98
643.853	14309.84
644.046	13928.92
644.239	14141.91
644.432	14082.52
644.626	13687.26
644.819	13922.77
645.012	13677.02
645.205	13826.52
645.398	13890.01
645.591	13562.33
645.784	13404.64
645.977	13076.96
646.17	13402.59
646.363	13359.58
646.556	13199.84
646.749	13060.58
646.942	12937.7
647.135	12872.17
647.328	12947.94
647.521	12767.72
647.714	12548.59
647.907	12528.11
648.099	12642.79
648.292	12536.3
648.485	12491.24
648.678	12192.24
648.871	12268.02
649.064	12231.15
649.256	12257.78
649.449	12214.77
649.642	12036.59
649.835	11874.81
650.027	11809.27
650.22	11809.27
650.413	11860.47
650.605	11547.13
650.798	11672.06
650.991	11571.71
651.183	11514.36
651.376	11401.72
651.568	11448.83
651.761	11119.1
651.954	11293.18
652.146	11041.28
652.339	11235.84
652.531	11094.53
652.724	10996.23
652.916	11080.19
653.109	10873.35
653.301	10922.5
653.494	10865.16
653.686	10689.03
653.879	10609.16
654.071	10664.46
654.263	10545.67
654.456	10269.2
654.648	10654.22
654.84	10324.49
655.033	10349.07
655.225	10328.59
655.417	10265.1
655.61	10091.02
655.802	10062.35
655.994	9908.76
656.186	10164.75
656.379	10058.26
656.571	9951.76
656.763	9667.1
656.955	9706.01
657.148	9921.04
657.34	9814.55
657.532	9542.17
657.724	9636.38
657.916	9437.72
658.108	9488.92
658.3	9300.51
658.492	9566.74
658.684	9421.34
658.876	9327.13
659.068	9228.83
659.26	9220.64
659.452	9136.67
659.644	9081.38
659.836	8940.07
660.028	9021.98
660.22	8714.79
660.412	8852
660.604	8841.76
660.796	8821.28
660.988	8710.69
661.18	8653.35
661.372	8448.55
661.563	8573.48
661.755	8579.62
661.947	8559.14
662.139	8350.25
662.331	8383.02
662.522	8245.8
662.714	8342.06
662.906	8116.78
663.097	8266.28
663.289	8190.51
663.481	7858.74
663.673	7860.79
663.864	8210.99
664.056	7981.62
664.247	7842.35
664.439	7580.22
664.631	8014.38
664.822	7721.52
665.014	7821.88
665.205	7563.83
665.397	7598.65
665.588	7516.73
665.78	7563.83
665.971	7434.81
666.163	7342.65
666.354	7535.16
666.546	7508.54
666.737	7457.34
666.929	7254.59
667.12	7297.6
667.311	7227.96
667.503	7070.27
667.694	7037.5
667.885	7182.91
668.077	7117.37
668.268	7117.37
668.459	7170.62
668.651	7094.85
668.842	6974.02
669.033	6924.86
669.224	6869.57
669.416	6961.73
669.607	6761.03
669.798	6711.88
669.989	6746.69
670.18	6679.11
670.371	6715.97
670.563	6572.61
670.754	6804.03
670.945	6574.66
671.136	6677.06
671.327	6646.34
671.518	6568.52
671.709	6523.46
671.9	6564.42
672.091	6523.46
672.282	6363.72
672.473	6353.48
672.664	6531.65
672.855	6400.59
673.046	6369.87
673.237	6367.82
673.428	6277.71
673.619	6304.33
673.809	6181.45
674	6275.66
674.191	6394.44
674.382	6038.09
674.573	6011.47
674.764	6046.29
674.954	6179.4
675.145	6052.43
675.336	5982.8
675.527	6152.78
675.717	6097.49
675.908	5925.46
676.099	6066.77
676.289	5917.26
676.48	5931.6
676.671	5878.35
676.861	5978.7
677.052	5843.54
677.243	5698.13
677.433	5851.73
677.624	5988.94
677.814	5724.76
678.005	5778
678.195	5788.24
678.386	5706.32
678.576	5691.99
678.767	5601.88
678.957	5868.11
679.148	5806.67
679.338	5648.98
679.529	5845.59
679.719	5610.07
679.909	5782.1
680.1	5714.52
680.29	5755.47
680.481	5597.78
680.671	5616.21
680.861	5620.31
681.052	5548.63
681.242	5552.73
681.432	5548.63
681.622	5481.05
681.813	5368.41
682.003	5444.18
682.193	5493.33
682.383	5524.05
682.573	5526.1
682.764	5294.68
682.954	5474.9
683.144	5423.7
683.334	5577.3
683.524	5354.07
683.714	5550.68
683.904	5315.16
684.094	5390.94
684.284	5407.32
684.474	5438.04
684.664	5409.37
684.854	5304.92
685.044	5304.92
685.234	5120.6
685.424	5263.96
685.614	5116.51
685.804	5280.35
685.994	5091.93
686.184	5169.76
686.374	5132.89
686.564	5229.15
686.753	5141.08
686.943	5194.33
687.133	5218.91
687.323	5075.55
687.513	5136.99
687.702	5067.36
687.892	5081.69
688.082	5018.21
688.272	5020.25
688.461	4967.01
688.651	5065.31
688.841	4917.86
689.03	4895.33
689.22	4915.81
689.41	4891.23
689.599	5046.88
689.789	4928.1
689.979	4799.07
690.168	4919.9
690.358	5001.82
690.547	4713.06
690.737	4862.56
690.926	4756.07
691.116	4739.68
691.305	4835.94
691.495	4883.04
691.684	4635.24
691.874	4749.92
692.063	4684.39
692.252	4688.48
692.442	4819.55
692.631	4500.07
692.82	4668
693.01	4491.88
693.199	4549.22
693.388	4657.76
693.578	4498.02
693.767	4565.6
693.956	4727.39
694.146	4590.18
694.335	4553.32
694.524	4536.93
694.713	4541.03
694.902	4538.98
695.092	4534.89
695.281	4541.03
695.47	4463.21
695.659	4246.12
695.848	4442.73
696.037	4461.16
696.226	4530.79
696.415	4467.3
696.604	4350.57
696.793	4424.3
696.982	4414.06
697.171	4385.38
697.36	4489.83
697.549	4278.89
697.738	4379.24
697.927	4266.6
698.116	4282.99
698.305	4274.79
698.494	4334.18
698.683	4156.01
698.872	4342.38
699.061	4414.06
699.25	4291.18
699.438	4094.57
699.627	4479.59
699.816	4319.85
700.005	4305.51
700.193	4313.7
700.382	4266.6
700.571	4184.68
700.76	4237.93
700.948	4199.02
701.137	4117.1
701.326	4084.33
701.514	4211.31
701.703	4160.11
701.892	4147.82
702.08	4188.78
702.269	4104.81
702.457	4018.8
702.646	4100.72
702.834	4076.14
703.023	3988.08
703.212	4201.07
703.4	4035.18
703.589	3945.07
703.777	3959.41
703.965	3983.98
704.154	3994.22
704.342	3840.62
704.531	3943.02
704.719	3889.78
704.907	3938.93
705.096	4100.72
705.284	3893.87
705.472	3914.35
705.661	3881.58
705.849	3943.02
706.037	3967.6
706.226	3904.11
706.414	4037.23
706.602	3877.49
706.79	3887.73
706.979	3803.76
707.167	3943.02
707.355	3652.21
707.543	3848.82
707.731	3871.34
707.919	3797.62
708.107	3644.02
708.296	3807.86
708.484	3611.25
708.672	3648.11
708.86	3838.58
709.048	3730.03
709.236	3730.03
709.424	3689.07
709.612	3693.17
709.8	3541.62
709.988	3615.35
710.176	3603.06
710.364	3570.29
710.551	3572.34
710.739	3502.71
710.927	3607.16
711.115	3558
711.303	3635.83
711.491	3584.63
711.679	3451.51
711.866	3598.96
712.054	3574.39
712.242	3598.96
712.43	3551.86
712.617	3398.26
712.805	3381.88
712.993	3525.24
713.181	3428.98
713.368	3381.88
713.556	3396.21
713.744	3365.5
713.931	3443.32
714.119	3361.4
714.306	3447.41
714.494	3306.1
714.682	3353.21
714.869	3295.86
715.057	3379.83
715.244	3353.21
715.432	3447.41
715.619	3242.62
715.807	3392.12
715.994	3265.14
716.182	3205.75
716.369	3316.34
716.556	3271.29
716.744	3168.89
716.931	3234.43
717.119	3408.5
717.306	3140.22
717.493	3230.33
717.681	3324.54
717.868	3058.3
718.055	3129.98
718.242	3168.89
718.43	3197.56
718.617	3168.89
718.804	3148.41
718.991	3197.56
719.179	3041.92
719.366	2992.76
719.553	3027.58
719.74	3019.39
719.927	3011.2
720.114	3072.64
720.301	2943.61
720.488	2951.81
720.676	2968.19
720.863	2970.24
721.05	3119.74
721.237	2957.95
721.424	2947.71
721.611	2816.64
721.798	2837.12
721.985	2937.47
722.172	2996.86
722.358	2927.23
722.545	2853.5
722.732	2919.04
722.919	3089.02
723.106	2998.91
723.293	2878.08
723.48	2978.43
723.667	2855.55
723.853	2759.3
724.04	2869.89
724.227	2828.93
724.414	2755.2
724.6	2755.2
724.787	2853.5
724.974	2828.93
725.161	2681.47
725.347	2726.53
725.534	2759.3
725.72	2777.73
725.907	2671.23
726.094	2878.08
726.28	2771.58
726.467	2726.53
726.653	2601.6
726.84	2722.43
727.027	2873.98
727.213	2689.67
727.4	2742.91
727.586	2632.32
727.773	2718.34
727.959	2656.9
728.145	2656.9
728.332	2609.79
728.518	2572.93
728.705	2624.13
728.891	2503.3
729.077	2689.67
729.264	2699.91
729.45	2560.64
729.636	2640.51
729.823	2626.18
730.009	2597.51
730.195	2505.35
730.382	2527.88
730.568	2574.98
730.754	2632.32
730.94	2607.75
731.126	2550.4
731.313	2540.16
731.499	2624.13
731.685	2562.69
731.871	2566.79
732.057	2538.12
732.243	2546.31
732.429	2460.29
732.615	2517.64
732.801	2470.53
732.987	2321.03
733.173	2435.72
733.359	2499.2
733.545	2456.2
733.731	2427.53
733.917	2501.25
734.103	2515.59
734.289	2402.95
734.475	2574.98
734.661	2515.59
734.847	2353.8
735.033	2468.48
735.219	2538.12
735.404	2417.29
735.59	2318.98
735.776	2345.61
735.962	2288.26
736.148	2439.81
736.333	2407.05
736.519	2376.33
736.705	2226.82
736.89	2263.69
737.076	2339.46
737.262	2235.02
737.447	2353.8
737.633	2200.2
737.819	2321.03
738.004	2261.64
738.19	2230.92
738.375	2280.07
738.561	2321.03
738.747	2298.5
738.932	2204.3
739.118	2382.47
739.303	2189.96
739.489	2189.96
739.674	2161.29
739.859	2206.34
740.045	2200.2
740.23	2169.48
740.416	2132.62
740.601	2189.96
740.786	2097.8
740.972	2181.77
741.157	2140.81
741.342	2069.13
741.528	2009.74
741.713	2083.47
741.898	2007.69
742.084	2085.51
742.269	2132.62
742.454	2052.75
742.639	2185.87
742.824	2058.89
743.01	2017.93
743.195	2058.89
743.38	2060.94
743.565	2132.62
743.75	1995.4
743.935	2044.56
744.12	1952.4
744.305	1886.86
744.49	1901.2
744.675	1981.07
744.86	1823.37
745.045	1956.49
745.23	1946.25
745.415	1952.4
745.6	1895.05
745.785	1970.83
745.97	1862.29
746.155	1866.38
746.34	1890.96
746.525	1831.57
746.71	1759.89
746.895	1794.7
747.079	1766.03
747.264	1737.36
747.449	1811.09
747.634	1759.89
747.819	1829.52
748.003	1729.17
748.188	1706.64
748.373	1680.02
748.557	1706.64
748.742	1706.64
748.927	1725.07
749.111	1659.54
749.296	1698.45
749.481	1727.12
749.665	1661.59
749.85	1673.87
750.034	1708.69
750.219	1673.87
750.404	1522.32
750.588	1440.4
750.773	1583.76
750.957	1553.04
751.141	1542.8
751.326	1618.58
751.51	1536.66
751.695	1501.84
751.879	1567.38
752.064	1618.58
752.248	1469.08
752.432	1548.95
752.617	1452.69
752.801	1538.71
752.985	1434.26
753.17	1387.16
753.354	1450.64
753.538	1419.92
753.722	1450.64
753.907	1495.7
754.091	1338.01
754.275	1430.16
754.459	1421.97
754.643	1376.92
754.828	1469.08
755.012	1364.63
755.196	1329.81
755.38	1362.58
755.564	1354.39
755.748	1323.67
755.932	1239.7
756.116	1381.01
756.3	1280.66
756.484	1206.94
756.668	1182.36
756.852	1223.32
757.036	1231.51
757.22	1319.57
757.404	1159.83
757.588	1235.61
757.772	1196.7
757.956	1258.14
758.14	1260.18
758.323	1141.4
758.507	1120.92
758.691	1133.21
758.875	1229.46
759.059	1211.03
759.242	1192.6
759.426	1186.46
759.61	1125.02
759.794	1192.6
759.977	1092.25
760.161	1233.56
760.345	1241.75
760.528	1129.11
760.712	1137.31
760.895	1108.63
761.079	1102.49
761.263	1077.91
761.446	1135.26
761.63	1206.94
761.813	1157.78
761.997	977.56
762.18	1079.96
762.364	996
762.547	1018.52
762.731	1018.52
762.914	1024.67
763.098	998.04
763.281	1100.44
763.464	934.56
763.648	1086.11
763.831	944.8
764.015	1002.14
764.198	1012.38
764.381	993.95
764.564	1092.25
764.748	1047.19
764.931	963.23
765.114	930.46
765.297	957.08
765.481	897.69
765.664	985.76
765.847	957.08
766.03	1102.49
766.213	973.47
766.397	889.5
766.58	971.42
766.763	989.85
766.946	869.02
767.129	940.7
767.312	928.41
767.495	897.69
767.678	797.34
767.861	936.6
768.044	936.6
768.227	862.88
768.41	938.65
768.593	1002.14
768.776	987.8
768.959	881.31
769.142	952.99
769.324	930.46
769.507	909.98
769.69	903.84
769.873	914.08
770.056	1012.38
770.239	881.31
770.421	893.6
770.604	975.52
770.787	854.69
770.97	854.69
771.152	871.07
771.335	860.83
771.518	817.82
771.7	887.45
771.883	844.45
772.066	791.2
772.248	860.83
772.431	907.93
772.613	856.73
772.796	797.34
772.978	864.93
773.161	871.07
773.343	750.24
773.526	854.69
773.708	803.49
773.891	772.77
774.073	848.54
774.256	713.38
774.438	842.4
774.621	791.2
774.803	780.96
774.985	789.15
775.168	780.96
775.35	717.47
775.532	762.53
775.715	699.04
775.897	725.66
776.079	672.42
776.261	645.79
776.444	764.57
776.626	701.09
776.808	696.99
776.99	742.05
777.173	623.27
777.355	666.27
777.537	723.62
777.719	742.05
777.901	627.36
778.083	725.66
778.265	647.84
778.447	627.36
778.629	668.32
778.811	735.9
778.993	742.05
779.175	715.42
779.357	658.08
779.539	649.89
779.721	615.07
779.903	613.03
780.085	696.99
780.267	660.13
780.449	658.08
780.631	658.08
780.812	682.66
780.994	608.93
781.176	629.41
781.358	719.52
781.54	543.39
781.721	643.74
781.903	608.93
782.085	610.98
782.267	613.03
782.448	477.86
782.63	613.03
782.812	594.59
782.993	543.39
783.175	578.21
783.357	586.4
783.538	584.35
783.72	490.15
783.901	420.52
784.083	498.34
784.264	518.82
784.446	555.68
784.627	490.15
784.809	418.47
784.99	498.34
785.172	547.49
785.353	510.63
785.535	479.91
785.716	510.63
785.897	420.52
786.079	473.76
786.26	457.38
786.441	510.63
786.623	420.52
786.804	389.8
786.985	404.13
787.167	447.14
787.348	428.71
787.529	445.09
787.71	490.15
787.891	477.86
788.073	459.43
788.254	463.52
788.435	490.15
788.616	461.48
788.797	416.42
788.978	512.67
789.159	428.71
789.34	338.6
789.522	467.62
789.703	416.42
789.884	477.86
790.065	445.09
790.246	320.17
790.427	414.37
790.607	432.8
790.788	357.03
790.969	406.18
791.15	363.17
791.331	381.6
791.512	387.75
791.693	359.08
791.874	346.79
792.054	451.24
792.235	365.22
792.416	324.26
792.597	369.32
792.778	354.98
792.958	408.23
793.139	305.83
793.32	428.71
793.5	363.17
793.681	342.69
793.862	367.27
794.042	363.17
794.223	299.69
794.404	279.21
794.584	242.34
794.765	301.73
794.945	305.83
795.126	395.94
795.306	375.46
795.487	314.02
795.667	357.03
795.848	324.26
796.028	297.64
796.209	285.35
796.389	441
796.57	277.16
796.75	328.36
796.93	322.21
797.111	250.53
797.291	268.97
797.471	359.08
797.652	285.35
797.832	266.92
798.012	314.02
798.192	223.91
798.373	236.2
798.553	168.62
798.733	301.73
798.913	215.72
799.093	256.68
799.274	281.25
799.454	289.45
799.634	324.26
799.814	301.73
799.994	240.29
800.174	354.98
800.354	268.97
800.534	264.87
800.714	334.5
800.894	193.19
801.074	238.25
801.254	232.1
801.434	256.68
801.614	240.29
801.794	207.53
801.974	909.98
802.154	252.58
802.334	273.06
802.514	203.43
802.693	238.25
802.873	207.53
803.053	240.29
803.233	236.2
803.413	234.15
803.592	209.58
803.772	248.49
803.952	211.62
804.131	236.2
804.311	234.15
804.491	324.26
804.67	219.82
804.85	195.24
805.03	213.67
805.209	252.58
805.389	152.23
805.568	182.95
805.748	264.87
805.928	264.87
806.107	305.83
806.287	285.35
806.466	275.11
806.646	191.14
806.825	217.77
807.004	154.28
807.184	187.05
807.363	203.43
807.543	301.73
807.722	168.62
807.901	307.88
808.081	260.77
808.26	109.22
808.439	209.58
808.619	199.34
808.798	141.99
808.977	219.82
809.156	248.49
809.336	174.76
809.515	176.81
809.694	174.76
809.873	217.77
810.052	234.15
810.231	158.38
810.411	158.38
810.59	223.91
810.769	166.57
810.948	207.53
811.127	86.7
811.306	135.85
811.485	199.34
811.664	258.73
811.843	144.04
812.022	170.66
812.201	154.28
812.38	170.66
812.559	144.04
812.737	305.83
812.916	146.09
813.095	166.57
813.274	150.18
813.453	158.38
813.632	209.58
813.811	182.95
813.989	105.13
814.168	205.48
814.347	176.81
814.526	154.28
814.704	185
814.883	166.57
815.062	146.09
815.24	199.34
815.419	96.94
815.598	213.67
815.776	144.04
815.955	187.05
816.133	111.27
816.312	182.95
816.49	139.94
816.669	191.14
816.847	201.38
817.026	248.49
817.204	119.46
817.383	141.99
817.561	92.84
817.74	166.57
817.918	166.57
818.097	101.03
818.275	146.09
818.453	191.14
818.632	139.94
818.81	70.31
818.988	119.46
819.167	152.23
819.345	117.42
819.523	199.34
819.701	191.14
819.879	191.14
820.058	119.46
820.236	148.14
820.414	158.38
820.592	146.09
820.77	176.81
820.948	55.98
821.127	109.22
821.305	133.8
821.483	39.59
821.661	172.71
821.839	158.38
822.017	86.7
822.195	152.23
822.373	150.18
822.551	51.88
822.729	62.12
822.907	129.7
823.085	199.34
823.262	168.62
823.44	72.36
823.618	152.23
823.796	70.31
823.974	127.66
824.152	121.51
824.329	62.12
824.507	66.22
824.685	109.22
824.863	21.16
825.04	144.04
825.218	94.89
825.396	164.52
825.574	113.32
825.751	55.98
825.929	80.55
826.107	86.7
826.284	125.61
826.462	51.88
826.639	53.93
826.817	107.18
826.994	240.29
827.172	2.73
827.349	109.22
827.527	101.03
827.704	141.99
827.882	127.66
828.059	109.22
828.237	137.9
828.414	191.14
828.591	31.4
828.769	37.55
828.946	-48.47
829.124	119.46
829.301	146.09
829.478	55.98
829.655	109.22
829.833	182.95
830.01	2.73
830.187	109.22
830.364	76.46
830.542	111.27
830.719	125.61
830.896	135.85
831.073	117.42
831.25	84.65
831.427	129.7
831.604	82.6
831.782	45.74
831.959	144.04
832.136	98.99
832.313	27.31
832.49	2.73
832.667	53.93
832.844	98.99
833.021	127.66
833.198	84.65
833.374	121.51
833.551	76.46
833.728	111.27
833.905	47.79
834.082	10.92
834.259	103.08
834.436	119.46
834.612	35.5
834.789	109.22
834.966	53.93
835.143	101.03
835.319	107.18
835.496	144.04
835.673	109.22
835.85	45.74
836.026	135.85
836.203	131.75
836.38	117.42
836.556	10.92
836.733	66.22
836.909	137.9
837.086	76.46
837.262	86.7
837.439	103.08
837.616	211.62
837.792	156.33
837.968	113.32
838.145	49.83
838.321	64.17
838.498	37.55
838.674	101.03
838.851	72.36
839.027	2.73
839.203	135.85
839.38	35.5
839.556	53.93
839.732	60.07
839.909	86.7
840.085	94.89
840.261	27.31
840.437	37.55
840.614	33.45
840.79	146.09
840.966	19.11
841.142	41.64
841.318	27.31
841.494	103.08
841.671	125.61
841.847	78.51
842.023	90.79
842.199	117.42
842.375	37.55
842.551	41.64
842.727	35.5
842.903	39.59
843.079	45.74
843.255	109.22
843.431	68.27
843.607	158.38
843.783	23.21
843.959	78.51
844.134	12.97
844.31	45.74
844.486	78.51
844.662	78.51
844.838	55.98
845.013	103.08
845.189	27.31
845.365	135.85
845.541	31.4
845.716	94.89
845.892	158.38
846.068	68.27
846.244	88.75
846.419	74.41
846.595	10.92
846.77	47.79
846.946	141.99
847.122	37.55
847.297	35.5
847.473	88.75
847.648	-34.13
847.824	146.09
847.999	-50.52
848.175	51.88
848.35	94.89
848.526	162.47
848.701	39.59
848.876	76.46
849.052	76.46
849.227	103.08
849.403	25.26
849.578	74.41
849.753	88.75
849.929	78.51
850.104	-13.65
850.279	96.94
850.454	72.36
850.63	84.65
850.805	76.46
850.98	2.73
851.155	43.69
851.33	23.21
851.505	70.31
851.681	55.98
851.856	-21.85
852.031	158.38
852.206	19.11
852.381	55.98
852.556	23.21
852.731	62.12
852.906	94.89
853.081	23.21
853.256	101.03
853.431	105.13
853.606	-19.8
853.781	-15.7
853.956	27.31
854.131	23.21
854.305	19.11
854.48	10.92
854.655	19.11
854.83	19.11
855.005	68.27
855.18	15.02
855.354	33.45
855.529	55.98
855.704	82.6
855.879	25.26
856.053	47.79
856.228	86.7
856.403	15.02
856.577	117.42
856.752	-50.52
856.926	12.97
857.101	62.12
857.276	35.5
857.45	60.07
857.625	47.79
857.799	4.78
857.974	101.03
858.148	51.88
858.323	19.11
858.497	25.26
858.672	-9.56
858.846	84.65
859.02	45.74
859.195	21.16
859.369	-1.37
859.543	19.11
859.718	43.69
859.892	109.22
860.066	68.27
860.241	25.26
860.415	27.31
860.589	55.98
860.763	12.97
860.938	25.26
861.112	35.5
861.286	78.51
861.46	49.83
861.634	-30.04
861.808	76.46
861.982	23.21
862.157	-54.61
862.331	-13.65
862.505	86.7
862.679	43.69
862.853	103.08
863.027	-11.61
863.201	68.27
863.375	60.07
863.549	68.27
863.722	-17.75
863.896	72.36
864.07	-38.23
864.244	10.92
864.418	23.21
864.592	84.65
864.766	47.79
864.939	-21.85
865.113	-25.94
865.287	2.73
865.461	-27.99
865.634	10.92
865.808	-38.23
865.982	62.12
866.156	27.31
866.329	43.69
866.503	8.87
866.676	113.32
866.85	2.73
867.024	-38.23
867.197	19.11
867.371	82.6
867.544	29.35
867.718	49.83
867.891	115.37
868.065	60.07
868.238	27.31
868.412	92.84
868.585	31.4
868.759	-9.56
868.932	35.5
869.105	-60.76
869.279	72.36
869.452	-32.08
869.625	4.78
869.799	78.51
869.972	-75.09
870.145	31.4
870.319	62.12
870.492	33.45
870.665	43.69
870.838	12.97
871.011	-42.32
871.185	62.12
871.358	-38.23
871.531	2.73
871.704	-5.46
871.877	27.31
872.05	-27.99
872.223	51.88
872.396	51.88
872.569	29.35
872.742	2.73
872.915	60.07
873.088	12.97
873.261	66.22
873.434	35.5
873.607	92.84
873.78	60.07
873.953	49.83
874.126	-27.99
874.299	19.11
874.471	25.26
874.644	86.7
874.817	33.45
874.99	162.47
875.163	-46.42
875.335	55.98
875.508	-13.65
875.681	80.55
875.853	-42.32
876.026	-30.04
876.199	23.21
876.371	15.02
876.544	76.46
876.717	12.97
876.889	-25.94
877.062	78.51
877.234	-36.18
877.407	41.64
877.579	39.59
877.752	-34.13
877.924	103.08
878.097	19.11
878.269	27.31
878.442	-75.09
878.614	68.27
878.786	21.16
878.959	88.75
879.131	6.83
879.303	-71
879.476	-3.41
879.648	39.59
879.82	-21.85
879.993	21.16
880.165	-15.7
880.337	-17.75
880.509	19.11
880.681	-17.75
880.854	10.92
881.026	105.13
881.198	31.4
881.37	60.07
881.542	47.79
881.714	43.69
881.886	27.31
882.058	-87.38
882.23	80.55
882.402	51.88
882.574	6.83
882.746	23.21
882.918	117.42
883.09	15.02
883.262	-34.13
883.434	39.59
883.606	-38.23
883.778	10.92
883.95	70.31
884.122	-27.99
884.293	76.46
884.465	-1.37
884.637	68.27
884.809	10.92
884.98	29.35
885.152	105.13
885.324	84.65
885.496	51.88
885.667	68.27
885.839	47.79
886.011	53.93
886.182	35.5
886.354	43.69
886.525	27.31
886.697	58.03
886.869	-21.85
887.04	43.69
887.212	80.55
887.383	66.22
887.555	-17.75
887.726	6.83
887.897	19.11
888.069	84.65
888.24	23.21
888.412	-3.41
888.583	2.73
888.754	19.11
888.926	-13.65
889.097	15.02
889.268	-44.37
889.44	-27.99
889.611	80.55
889.782	-30.04
889.953	21.16
890.125	-30.04
890.296	-44.37
890.467	15.02
890.638	-54.61
890.809	29.35
890.98	2.73
891.151	19.11
891.323	31.4
891.494	76.46
891.665	-44.37
891.836	12.97
892.007	-46.42
892.178	90.79
892.349	-75.09
892.52	19.11
892.691	72.36
892.862	-7.51
893.032	-66.9
893.203	-5.46
893.374	-21.85
893.545	51.88
893.716	-30.04
893.887	23.21
894.057	-40.28
894.228	80.55
894.399	-3.41
894.57	-3.41
894.74	6.83
894.911	29.35
895.082	-36.18
895.253	-13.65
895.423	-25.94
895.594	29.35
895.764	10.92
895.935	10.92
896.106	68.27
896.276	51.88
896.447	-3.41
896.617	31.4
896.788	19.11
896.958	-3.41
897.129	41.64
897.299	10.92
897.47	109.22
897.64	117.42
897.81	2.73
897.981	86.7
898.151	-11.61
898.322	62.12
898.492	45.74
898.662	27.31
898.832	15.02
899.003	19.11
899.173	-5.46
899.343	-44.37
899.513	-13.65
