Data from USB4F104151__257__14-34-19-483.txt Node

Date: Thu Mar 13 14:34:19 EDT 2025
User: louis
Spectrometer: USB4F10415
Trigger mode: 4
Integration Time (sec): 2.500000E-2
Scans to average: 1
Electric dark correction enabled: true
Nonlinearity correction enabled: false
Boxcar width: 0
XAxis mode: Wavelengths
Number of Pixels in Spectrum: 3648
>>>>>Begin Spectral Data<<<<<
178.204	-219.47
178.424	-219.47
178.644	-219.47
178.864	-158.03
179.084	-158.03
179.304	-14.68
179.524	-57.68
179.744	-14.68
179.964	77.48
180.184	46.76
180.404	-6.49
180.624	-8.53
180.844	-14.68
181.064	-33.11
181.283	-6.49
181.503	-22.87
181.723	54.95
181.943	-39.25
182.163	69.29
182.383	59.05
182.602	54.95
182.822	-0.34
183.042	95.91
183.262	-59.73
183.482	-29.01
183.701	-18.77
183.921	9.9
184.141	11.95
184.361	50.86
184.58	24.23
184.8	59.05
185.02	-6.49
185.239	18.09
185.459	22.19
185.679	79.53
185.898	-51.54
186.118	81.58
186.338	42.67
186.557	108.2
186.777	9.9
186.997	50.86
187.216	-31.06
187.436	28.33
187.655	57
187.875	16.04
188.095	-10.58
188.314	57
188.534	54.95
188.753	44.71
188.973	5.8
189.192	106.15
189.412	32.43
189.631	1.71
189.851	18.09
190.07	73.39
190.29	-29.01
190.509	-31.06
190.729	-35.16
190.948	89.77
191.168	186.02
191.387	87.72
191.607	5.8
191.826	5.8
192.045	95.91
192.265	24.23
192.484	-49.49
192.704	79.53
192.923	32.43
193.142	104.11
193.362	32.43
193.581	-2.39
193.8	52.91
194.02	50.86
194.239	28.33
194.458	22.19
194.678	54.95
194.897	112.3
195.116	63.15
195.335	16.04
195.555	67.24
195.774	77.48
195.993	-10.58
196.212	-6.49
196.432	26.28
196.651	11.95
196.87	-35.16
197.089	42.67
197.308	57
197.528	36.52
197.747	-39.25
197.966	67.24
198.185	104.11
198.404	50.86
198.623	-4.44
198.842	5.8
199.062	120.49
199.281	118.44
199.5	-0.34
199.719	63.15
199.938	9.9
200.157	5.8
200.376	87.72
200.595	48.81
200.814	40.62
201.033	20.14
201.252	79.53
201.471	7.85
201.69	38.57
201.909	-8.53
202.128	5.8
202.347	85.67
202.566	30.38
202.785	26.28
203.004	-0.34
203.223	57
203.442	50.86
203.661	-8.53
203.879	67.24
204.098	24.23
204.317	28.33
204.536	79.53
204.755	7.85
204.974	87.72
205.193	40.62
205.411	71.34
205.63	-10.58
205.849	-63.83
206.068	-10.58
206.287	48.81
206.505	118.44
206.724	16.04
206.943	46.76
207.162	28.33
207.381	9.9
207.599	-22.87
207.818	77.48
208.037	5.8
208.255	3.75
208.474	34.47
208.693	106.15
208.911	-12.63
209.13	-4.44
209.349	75.43
209.567	95.91
209.786	93.87
210.005	85.67
210.223	38.57
210.442	30.38
210.661	52.91
210.879	81.58
211.098	-8.53
211.316	36.52
211.535	46.76
211.753	114.34
211.972	65.19
212.191	26.28
212.409	59.05
212.628	5.8
212.846	67.24
213.065	18.09
213.283	73.39
213.502	-2.39
213.72	30.38
213.938	40.62
214.157	18.09
214.375	42.67
214.594	-0.34
214.812	38.57
215.031	30.38
215.249	22.19
215.467	100.01
215.686	46.76
215.904	-0.34
216.122	61.1
216.341	69.29
216.559	22.19
216.778	32.43
216.996	54.95
217.214	-67.92
217.432	13.99
217.651	40.62
217.869	48.81
218.087	26.28
218.306	-0.34
218.524	108.2
218.742	-16.73
218.96	63.15
219.179	9.9
219.397	-26.96
219.615	104.11
219.833	-2.39
220.051	1.71
220.27	91.82
220.488	54.95
220.706	32.43
220.924	13.99
221.142	73.39
221.36	44.71
221.578	16.04
221.796	73.39
222.015	104.11
222.233	34.47
222.451	5.8
222.669	36.52
222.887	30.38
223.105	5.8
223.323	46.76
223.541	-18.77
223.759	-14.68
223.977	54.95
224.195	1.71
224.413	40.62
224.631	59.05
224.849	38.57
225.067	79.53
225.285	-8.53
225.503	28.33
225.721	-8.53
225.939	-33.11
226.157	67.24
226.375	136.87
226.592	-18.77
226.81	63.15
227.028	63.15
227.246	87.72
227.464	5.8
227.682	30.38
227.9	24.23
228.117	-2.39
228.335	79.53
228.553	48.81
228.771	22.19
228.989	57
229.206	13.99
229.424	48.81
229.642	11.95
229.86	16.04
230.077	112.3
230.295	13.99
230.513	22.19
230.731	67.24
230.948	106.15
231.166	112.3
231.384	42.67
231.601	16.04
231.819	130.73
232.037	1.71
232.254	-14.68
232.472	-2.39
232.689	-35.16
232.907	79.53
233.125	46.76
233.342	-26.96
233.56	34.47
233.777	26.28
233.995	46.76
234.213	5.8
234.43	36.52
234.648	83.63
234.865	20.14
235.083	81.58
235.3	42.67
235.518	46.76
235.735	120.49
235.953	48.81
236.17	120.49
236.388	140.97
236.605	63.15
236.822	36.52
237.04	46.76
237.257	59.05
237.475	-12.63
237.692	65.19
237.909	87.72
238.127	59.05
238.344	-0.34
238.562	79.53
238.779	67.24
238.996	-24.92
239.214	18.09
239.431	40.62
239.648	20.14
239.865	120.49
240.083	120.49
240.3	-43.35
240.517	-31.06
240.735	71.34
240.952	-10.58
241.169	118.44
241.386	46.76
241.603	-10.58
241.821	5.8
242.038	52.91
242.255	13.99
242.472	-8.53
242.689	65.19
242.907	69.29
243.124	9.9
243.341	18.09
243.558	-6.49
243.775	11.95
243.992	71.34
244.209	97.96
244.426	95.91
244.643	65.19
244.86	63.15
245.078	5.8
245.295	104.11
245.512	-20.82
245.729	-2.39
245.946	7.85
246.163	-35.16
246.38	57
246.597	63.15
246.814	67.24
247.031	54.95
247.248	63.15
247.464	42.67
247.681	-2.39
247.898	18.09
248.115	40.62
248.332	18.09
248.549	38.57
248.766	149.16
248.983	28.33
249.2	73.39
249.417	24.23
249.633	40.62
249.85	87.72
250.067	-59.73
250.284	7.85
250.501	18.09
250.717	63.15
250.934	-51.54
251.151	24.23
251.368	73.39
251.585	42.67
251.801	-22.87
252.018	63.15
252.235	52.91
252.451	54.95
252.668	5.8
252.885	89.77
253.102	54.95
253.318	13.99
253.535	-16.73
253.752	5.8
253.968	20.14
254.185	9.9
254.401	7.85
254.618	91.82
254.835	-76.12
255.051	28.33
255.268	30.38
255.484	46.76
255.701	13.99
255.917	79.53
256.134	-47.44
256.351	54.95
256.567	-12.63
256.784	16.04
257	-14.68
257.217	71.34
257.433	28.33
257.65	30.38
257.866	104.11
258.082	34.47
258.299	-2.39
258.515	32.43
258.732	73.39
258.948	-2.39
259.165	79.53
259.381	22.19
259.597	73.39
259.814	38.57
260.03	63.15
260.246	83.63
260.463	65.19
260.679	57
260.895	57
261.112	95.91
261.328	-10.58
261.544	34.47
261.761	112.3
261.977	11.95
262.193	-92.5
262.409	91.82
262.626	-22.87
262.842	-26.96
263.058	-16.73
263.274	3.75
263.49	69.29
263.707	65.19
263.923	114.34
264.139	-41.3
264.355	26.28
264.571	79.53
264.787	54.95
265.004	13.99
265.22	-61.78
265.436	22.19
265.652	122.54
265.868	34.47
266.084	-24.92
266.3	22.19
266.516	73.39
266.732	93.87
266.948	57
267.164	95.91
267.38	46.76
267.596	-31.06
267.812	46.76
268.028	-2.39
268.244	100.01
268.46	-43.35
268.676	9.9
268.892	57
269.108	59.05
269.324	22.19
269.54	22.19
269.756	63.15
269.972	-41.3
270.188	-2.39
270.403	24.23
270.619	73.39
270.835	106.15
271.051	89.77
271.267	-33.11
271.483	-26.96
271.698	20.14
271.914	32.43
272.13	40.62
272.346	-47.44
272.562	42.67
272.777	-16.73
272.993	-16.73
273.209	13.99
273.425	20.14
273.64	-33.11
273.856	5.8
274.072	67.24
274.287	-18.77
274.503	-37.2
274.719	36.52
274.934	36.52
275.15	-39.25
275.366	71.34
275.581	-26.96
275.797	50.86
276.012	57
276.228	-2.39
276.444	36.52
276.659	57
276.875	30.38
277.09	89.77
277.306	52.91
277.521	128.68
277.737	73.39
277.952	42.67
278.168	46.76
278.383	-16.73
278.599	48.81
278.814	-4.44
279.03	73.39
279.245	93.87
279.461	59.05
279.676	46.76
279.892	-51.54
280.107	85.67
280.322	1.71
280.538	34.47
280.753	-6.49
280.969	13.99
281.184	61.1
281.399	57
281.615	-51.54
281.83	46.76
282.045	-37.2
282.26	18.09
282.476	24.23
282.691	89.77
282.906	48.81
283.122	13.99
283.337	-55.64
283.552	179.88
283.767	13.99
283.983	-2.39
284.198	16.04
284.413	13.99
284.628	-35.16
284.843	54.95
285.058	38.57
285.274	-6.49
285.489	-18.77
285.704	73.39
285.919	59.05
286.134	65.19
286.349	38.57
286.564	75.43
286.779	32.43
286.995	24.23
287.21	-6.49
287.425	61.1
287.64	48.81
287.855	106.15
288.07	-16.73
288.285	59.05
288.5	54.95
288.715	18.09
288.93	-8.53
289.145	22.19
289.36	24.23
289.575	40.62
289.79	9.9
290.004	13.99
290.219	54.95
290.434	91.82
290.649	7.85
290.864	22.19
291.079	34.47
291.294	38.57
291.509	63.15
291.724	30.38
291.938	32.43
292.153	83.63
292.368	-16.73
292.583	-4.44
292.798	89.77
293.012	7.85
293.227	-10.58
293.442	61.1
293.657	116.39
293.871	57
294.086	-22.87
294.301	124.58
294.516	36.52
294.73	7.85
294.945	38.57
295.16	50.86
295.374	54.95
295.589	83.63
295.804	52.91
296.018	136.87
296.233	-4.44
296.447	122.54
296.662	38.57
296.877	30.38
297.091	75.43
297.306	30.38
297.52	5.8
297.735	38.57
297.949	26.28
298.164	38.57
298.378	52.91
298.593	87.72
298.807	22.19
299.022	44.71
299.236	116.39
299.451	73.39
299.665	5.8
299.88	-43.35
300.094	30.38
300.309	3.75
300.523	-37.2
300.737	16.04
300.952	7.85
301.166	50.86
301.381	28.33
301.595	-20.82
301.809	95.91
302.024	46.76
302.238	9.9
302.452	18.09
302.667	-2.39
302.881	87.72
303.095	-24.92
303.309	1.71
303.524	-31.06
303.738	36.52
303.952	36.52
304.166	1.71
304.381	9.9
304.595	75.43
304.809	-31.06
305.023	79.53
305.237	38.57
305.452	-49.49
305.666	38.57
305.88	32.43
306.094	67.24
306.308	73.39
306.522	63.15
306.736	79.53
306.95	48.81
307.164	38.57
307.379	-8.53
307.593	59.05
307.807	46.76
308.021	46.76
308.235	9.9
308.449	-47.44
308.663	30.38
308.877	87.72
309.091	-2.39
309.305	63.15
309.519	-29.01
309.733	73.39
309.947	-39.25
310.161	93.87
310.374	81.58
310.588	59.05
310.802	22.19
311.016	71.34
311.23	54.95
311.444	-43.35
311.658	32.43
311.872	54.95
312.085	104.11
312.299	69.29
312.513	11.95
312.727	-2.39
312.941	20.14
313.154	48.81
313.368	73.39
313.582	38.57
313.796	24.23
314.009	18.09
314.223	52.91
314.437	63.15
314.651	79.53
314.864	13.99
315.078	46.76
315.292	48.81
315.505	32.43
315.719	28.33
315.933	87.72
316.146	79.53
316.36	-49.49
316.573	81.58
316.787	61.1
317.001	81.58
317.214	34.47
317.428	-8.53
317.641	-14.68
317.855	48.81
318.068	-24.92
318.282	-29.01
318.495	54.95
318.709	89.77
318.922	34.47
319.136	63.15
319.349	65.19
319.563	-2.39
319.776	20.14
319.99	50.86
320.203	83.63
320.417	46.76
320.63	81.58
320.843	52.91
321.057	65.19
321.27	-24.92
321.483	13.99
321.697	50.86
321.91	40.62
322.124	54.95
322.337	114.34
322.55	34.47
322.763	-35.16
322.977	-92.5
323.19	40.62
323.403	75.43
323.617	32.43
323.83	75.43
324.043	57
324.256	22.19
324.469	3.75
324.683	63.15
324.896	-67.92
325.109	9.9
325.322	-10.58
325.535	104.11
325.748	71.34
325.962	63.15
326.175	40.62
326.388	59.05
326.601	22.19
326.814	63.15
327.027	7.85
327.24	153.26
327.453	-16.73
327.666	57
327.879	-12.63
328.092	54.95
328.305	-26.96
328.518	-51.54
328.731	65.19
328.944	-0.34
329.157	7.85
329.37	46.76
329.583	120.49
329.796	110.25
330.009	38.57
330.222	79.53
330.435	30.38
330.648	42.67
330.861	69.29
331.073	18.09
331.286	46.76
331.499	22.19
331.712	7.85
331.925	-10.58
332.138	81.58
332.35	38.57
332.563	-57.68
332.776	83.63
332.989	-41.3
333.202	24.23
333.414	54.95
333.627	-43.35
333.84	38.57
334.053	106.15
334.265	40.62
334.478	46.76
334.691	32.43
334.903	22.19
335.116	11.95
335.329	65.19
335.541	54.95
335.754	79.53
335.966	-6.49
336.179	24.23
336.392	71.34
336.604	44.71
336.817	79.53
337.029	128.68
337.242	83.63
337.454	13.99
337.667	-16.73
337.88	95.91
338.092	71.34
338.305	42.67
338.517	-2.39
338.729	120.49
338.942	100.01
339.154	1.71
339.367	7.85
339.579	83.63
339.792	11.95
340.004	97.96
340.217	-8.53
340.429	120.49
340.641	20.14
340.854	5.8
341.066	-2.39
341.278	83.63
341.491	30.38
341.703	63.15
341.915	-14.68
342.128	50.86
342.34	9.9
342.552	24.23
342.764	38.57
342.977	112.3
343.189	46.76
343.401	13.99
343.613	3.75
343.826	67.24
344.038	32.43
344.25	30.38
344.462	46.76
344.674	79.53
344.886	7.85
345.099	-2.39
345.311	-61.78
345.523	5.8
345.735	36.52
345.947	59.05
346.159	32.43
346.371	28.33
346.583	-26.96
346.795	106.15
347.007	1.71
347.219	38.57
347.431	-24.92
347.643	65.19
347.855	-41.3
348.067	122.54
348.279	-24.92
348.491	97.96
348.703	91.82
348.915	-26.96
349.127	-10.58
349.339	30.38
349.551	36.52
349.763	89.77
349.975	46.76
350.187	57
350.399	75.43
350.61	-24.92
350.822	-8.53
351.034	87.72
351.246	110.25
351.458	24.23
351.669	26.28
351.881	73.39
352.093	81.58
352.305	46.76
352.517	79.53
352.728	50.86
352.94	30.38
353.152	71.34
353.363	9.9
353.575	40.62
353.787	120.49
353.999	46.76
354.21	54.95
354.422	9.9
354.633	95.91
354.845	5.8
355.057	97.96
355.268	46.76
355.48	30.38
355.692	22.19
355.903	48.81
356.115	1.71
356.326	-10.58
356.538	52.91
356.749	-10.58
356.961	42.67
357.172	75.43
357.384	30.38
357.595	108.2
357.807	100.01
358.018	11.95
358.23	50.86
358.441	112.3
358.653	104.11
358.864	5.8
359.075	22.19
359.287	26.28
359.498	48.81
359.709	54.95
359.921	30.38
360.132	48.81
360.344	134.82
360.555	7.85
360.766	83.63
360.977	87.72
361.189	44.71
361.4	1.71
361.611	79.53
361.823	126.63
362.034	38.57
362.245	-6.49
362.456	-10.58
362.667	16.04
362.879	22.19
363.09	22.19
363.301	97.96
363.512	87.72
363.723	104.11
363.935	63.15
364.146	89.77
364.357	40.62
364.568	13.99
364.779	5.8
364.99	106.15
365.201	-35.16
365.412	24.23
365.623	-2.39
365.834	116.39
366.045	71.34
366.256	75.43
366.467	54.95
366.678	7.85
366.889	42.67
367.1	46.76
367.311	24.23
367.522	-2.39
367.733	73.39
367.944	50.86
368.155	48.81
368.366	112.3
368.577	87.72
368.788	122.54
368.999	-20.82
369.209	-29.01
369.42	126.63
369.631	61.1
369.842	-18.77
370.053	18.09
370.264	67.24
370.474	11.95
370.685	-10.58
370.896	30.38
371.107	65.19
371.317	120.49
371.528	52.91
371.739	65.19
371.95	40.62
372.16	40.62
372.371	5.8
372.582	122.54
372.792	50.86
373.003	116.39
373.214	1.71
373.424	106.15
373.635	13.99
373.846	102.06
374.056	46.76
374.267	106.15
374.477	79.53
374.688	30.38
374.898	63.15
375.109	50.86
375.319	116.39
375.53	89.77
375.74	83.63
375.951	67.24
376.161	75.43
376.372	71.34
376.582	81.58
376.793	75.43
377.003	-35.16
377.214	28.33
377.424	67.24
377.635	28.33
377.845	26.28
378.055	165.54
378.266	95.91
378.476	5.8
378.686	87.72
378.897	71.34
379.107	73.39
379.317	116.39
379.528	-37.2
379.738	120.49
379.948	59.05
380.158	71.34
380.369	-0.34
380.579	46.76
380.789	34.47
380.999	22.19
381.21	-6.49
381.42	134.82
381.63	22.19
381.84	75.43
382.05	104.11
382.261	38.57
382.471	42.67
382.681	30.38
382.891	89.77
383.101	83.63
383.311	-41.3
383.521	7.85
383.731	153.26
383.941	85.67
384.151	54.95
384.361	7.85
384.571	46.76
384.781	89.77
384.991	120.49
385.201	120.49
385.411	79.53
385.621	132.78
385.831	81.58
386.041	38.57
386.251	38.57
386.461	75.43
386.671	40.62
386.881	63.15
387.091	69.29
387.301	57
387.511	87.72
387.72	34.47
387.93	130.73
388.14	5.8
388.35	75.43
388.56	112.3
388.769	97.96
388.979	71.34
389.189	91.82
389.399	136.87
389.609	95.91
389.818	138.92
390.028	75.43
390.238	59.05
390.447	63.15
390.657	44.71
390.867	24.23
391.076	48.81
391.286	16.04
391.496	-0.34
391.705	26.28
391.915	38.57
392.125	63.15
392.334	38.57
392.544	100.01
392.753	32.43
392.963	75.43
393.172	138.92
393.382	116.39
393.591	132.78
393.801	57
394.01	169.64
394.22	106.15
394.429	5.8
394.639	71.34
394.848	65.19
395.058	112.3
395.267	65.19
395.477	153.26
395.686	112.3
395.895	134.82
396.105	171.69
396.314	186.02
396.524	104.11
396.733	89.77
396.942	126.63
397.152	110.25
397.361	112.3
397.57	100.01
397.78	52.91
397.989	85.67
398.198	196.26
398.407	65.19
398.617	124.58
398.826	87.72
399.035	48.81
399.244	38.57
399.453	48.81
399.663	83.63
399.872	161.45
400.081	153.26
400.29	175.78
400.499	140.97
400.708	128.68
400.917	149.16
401.127	186.02
401.336	140.97
401.545	149.16
401.754	136.87
401.963	155.3
402.172	91.82
402.381	116.39
402.59	97.96
402.799	126.63
403.008	179.88
403.217	116.39
403.426	104.11
403.635	81.58
403.844	145.06
404.053	104.11
404.262	73.39
404.471	153.26
404.68	102.06
404.888	177.83
405.097	194.22
405.306	120.49
405.515	186.02
405.724	202.41
405.933	169.64
406.142	222.89
406.35	220.84
406.559	292.52
406.768	235.18
406.977	245.41
407.185	196.26
407.394	190.12
407.603	155.3
407.812	212.65
408.02	284.33
408.229	302.76
408.438	300.71
408.646	247.46
408.855	218.79
409.064	278.18
409.272	331.43
409.481	374.44
409.69	302.76
409.898	331.43
410.107	319.14
410.315	423.59
410.524	419.49
410.733	415.4
410.941	372.39
411.15	454.31
411.358	407.2
411.567	532.13
411.775	487.08
411.984	464.55
412.192	544.42
412.401	530.08
412.609	507.55
412.818	528.03
413.026	517.79
413.234	571.04
413.443	630.43
413.651	624.29
413.86	595.62
414.068	732.83
414.276	775.84
414.485	767.65
414.693	695.97
414.901	886.43
415.11	902.81
415.318	845.47
415.526	870.05
415.734	876.19
415.943	876.19
416.151	1017.5
416.359	941.72
416.567	1029.79
416.776	1031.83
416.984	1078.94
417.192	1193.62
417.4	1085.08
417.608	1230.49
417.817	1250.97
418.025	1343.13
418.233	1357.46
418.441	1363.61
418.649	1359.51
418.857	1455.76
419.065	1562.26
419.273	1525.4
419.481	1660.56
419.689	1676.95
419.897	1678.99
420.105	1758.86
420.313	1853.07
420.521	2027.15
420.729	2006.67
420.937	1943.18
421.145	2068.11
421.353	2162.31
421.561	2336.39
421.769	2389.64
421.977	2369.16
422.185	2393.73
422.393	2621.06
422.601	2623.11
422.809	2711.17
423.017	2676.35
423.224	2842.24
423.432	2850.43
423.64	2840.19
423.848	3079.8
424.056	3282.55
424.263	3276.41
424.471	3323.51
424.679	3323.51
424.887	3739.25
425.094	3706.48
425.302	3751.54
425.51	3847.79
425.718	4081.26
425.925	4152.94
426.133	4177.51
426.341	4466.28
426.548	4642.4
426.756	4576.87
426.964	4640.36
427.171	5052
427.379	5113.44
427.586	5195.36
427.794	5371.48
428.001	5512.79
428.209	5764.69
428.417	5750.35
428.624	6061.65
428.832	5957.2
429.039	6053.45
429.247	6092.37
429.454	6710.85
429.662	7022.14
429.869	6393.42
430.076	6932.03
430.284	6823.49
430.491	7132.73
430.699	7779.89
430.906	7542.33
431.114	7652.92
431.321	7962.16
431.528	8101.42
431.736	8644.13
431.943	8861.22
432.15	8717.86
432.358	8965.67
432.565	9319.96
432.772	9348.64
432.979	9713.17
433.187	10018.32
433.394	9883.16
433.601	10679.82
433.808	10501.64
434.016	10649.1
434.223	10991.11
434.43	11826.68
434.637	11451.9
434.844	12131.83
435.052	12279.28
435.259	12301.81
435.466	12371.44
435.673	12244.46
435.88	12908.01
436.087	13704.67
436.294	13759.96
436.501	13712.86
436.708	13786.58
436.915	14288.34
437.122	14542.28
437.329	14669.26
437.537	15123.91
437.743	15463.87
437.95	15371.71
438.157	16000.44
438.364	16774.57
438.571	16434.61
438.778	16731.56
438.985	17943.96
439.192	17585.57
439.399	18044.31
439.606	17446.3
439.813	18714
440.02	19715.45
440.227	19471.75
440.433	19113.35
440.64	19821.95
440.847	19527.04
441.054	20010.36
441.261	21501.28
441.467	21226.85
441.674	21577.06
441.881	22187.35
442.088	22369.62
442.294	22117.72
442.501	22375.77
442.708	23295.3
442.914	24108.35
443.121	24937.77
443.328	24433.97
443.534	25863.46
443.741	25478.44
443.948	25259.31
444.154	26873.1
444.361	26629.4
444.568	26744.08
444.774	26520.85
444.981	26823.95
445.187	27800.83
445.394	28941.55
445.6	28769.52
445.807	31341.77
446.013	29867.23
446.22	30379.23
446.426	31698.12
446.633	32171.2
446.839	33010.87
447.046	31894.72
447.252	33465.52
447.459	33940.64
447.665	33682.6
447.871	34913.43
448.078	36308.1
448.284	34778.26
448.491	35841.16
448.697	36766.84
448.903	37442.67
449.11	37528.69
449.316	37428.34
449.522	37813.35
449.728	38618.21
449.935	38978.65
450.141	38851.67
450.347	39889.99
450.553	38685.79
450.76	39156.82
450.966	40133.7
451.172	40012.87
451.378	41083.96
451.584	40315.97
451.791	41364.53
451.997	41069.62
452.203	41411.63
452.409	41964.59
452.615	41819.18
452.821	40019.02
453.027	39543.89
453.233	41593.9
453.44	39734.35
453.646	40358.98
453.852	40625.21
454.058	41288.76
454.264	39818.32
454.47	40744
454.676	39736.4
454.882	41434.16
455.088	37692.52
455.294	38372.45
455.5	38937.69
455.705	38900.83
455.911	37618.8
456.117	37162.1
456.323	36637.82
456.529	34481.31
456.735	36166.79
456.941	35255.44
457.147	34622.62
457.352	33524.91
457.558	33131.7
457.764	33313.97
457.97	32648.38
458.176	31769.8
458.381	31524.04
458.587	30336.22
458.793	30090.46
458.999	28658.93
459.204	30690.52
459.41	30264.54
459.616	27671.81
459.821	27872.51
460.027	27841.79
460.233	27364.62
460.438	26252.57
460.644	26174.75
460.85	24716.59
461.055	24569.14
461.261	24499.51
461.466	22506.84
461.672	22117.72
461.878	23469.38
462.083	21960.03
462.289	21261.67
462.494	21171.56
462.7	20465.01
462.905	19668.35
463.111	20299.12
463.316	20397.43
463.522	20090.23
463.727	20141.43
463.932	19776.89
464.138	19578.24
464.343	19694.97
464.549	19150.21
464.754	20043.13
464.959	19584.38
465.165	19166.6
465.37	18525.58
465.575	17958.3
465.781	18969.99
465.986	18945.42
466.191	18249.11
466.397	17943.96
466.602	16942.5
466.807	17442.21
467.012	17706.4
467.218	17276.32
467.423	17096.1
467.628	17360.29
467.833	18025.88
468.038	17321.38
468.244	16864.68
468.449	17610.14
468.654	16989.61
468.859	16840.11
469.064	16842.15
469.269	16065.97
469.474	15998.39
469.679	16395.7
469.885	16088.5
470.09	16199.09
470.295	15945.14
470.5	15590.84
470.705	15877.56
470.91	15410.62
471.115	15355.33
471.32	15650.24
471.525	15414.72
471.73	15113.67
471.935	14939.59
472.139	14396.88
472.344	14554.57
472.549	14437.84
472.754	14056.92
472.959	14085.59
473.164	13905.37
473.369	13530.59
473.574	14134.74
473.778	13731.29
473.983	13852.12
474.188	13843.93
474.393	13200.87
474.598	13215.2
474.802	12953.06
475.007	13043.17
475.212	13137.38
475.417	12379.63
475.621	12416.49
475.826	12477.93
476.031	12400.11
476.235	12023.28
476.44	12402.16
476.645	12072.43
476.849	11972.08
477.054	11707.9
477.259	11728.38
477.463	11521.53
477.668	11345.41
477.872	11630.07
478.077	11083.27
478.282	11023.87
478.486	11179.52
478.691	10954.24
478.895	10927.62
479.1	10765.83
479.304	10774.02
479.509	10393.1
479.713	10571.27
479.918	10440.2
480.122	10339.85
480.326	10395.15
480.531	10548.75
480.735	10231.31
480.94	10288.65
481.144	10632.71
481.348	10049.04
481.553	10139.15
481.757	9928.21
481.961	10225.17
482.166	10225.17
482.37	10126.86
482.574	9813.52
482.778	9995.79
482.983	10065.43
483.187	9975.31
483.391	10020.37
483.595	9989.65
483.8	9821.72
484.004	9950.74
484.208	10008.08
484.412	9920.02
484.616	9809.43
484.821	10020.37
485.025	9893.4
485.229	9934.36
485.433	9844.24
485.637	9944.59
485.841	9870.87
486.045	9834
486.249	9893.4
486.453	9784.85
486.657	9834
486.861	9807.38
487.065	9580.06
487.269	9844.24
487.473	9719.32
487.677	9766.42
487.881	9965.07
488.085	9555.48
488.289	9756.18
488.493	9766.42
488.697	9836.05
488.901	9909.78
489.105	9678.36
489.309	9846.29
489.512	9799.19
489.716	9934.36
489.92	9870.87
490.124	9946.64
490.328	10001.94
490.531	10010.13
490.735	9993.75
490.939	10104.34
491.143	10032.66
491.346	10071.57
491.55	10067.47
491.754	10061.33
491.958	10169.87
492.161	10184.21
492.365	10010.13
492.569	10147.34
492.772	10257.93
492.976	10110.48
493.18	10423.82
493.383	10468.87
493.587	10143.25
493.79	10683.91
493.994	10190.35
494.197	10485.26
494.401	10638.86
494.605	10731.01
494.808	10601.99
495.012	10860.04
495.215	10976.77
495.419	10966.53
495.622	10790.41
495.825	10802.69
496.029	10968.58
496.232	11300.35
496.436	11116.03
496.639	11417.08
496.843	11572.73
497.046	11523.58
497.249	11814.39
497.453	11707.9
497.656	11990.52
497.859	11980.28
498.063	11867.64
498.266	12238.32
498.469	12103.15
498.673	12301.81
498.876	12606.95
499.079	12457.45
499.282	12353.01
499.485	13049.32
499.689	13006.31
499.892	13043.17
500.095	13030.88
500.298	13350.37
500.501	13092.32
500.705	13399.52
500.908	13784.54
501.111	14104.02
501.314	14026.2
501.517	13977.05
501.72	13956.57
501.923	14208.47
502.126	14706.12
502.329	14511.57
502.532	14730.7
502.735	14704.07
502.938	15058.37
503.141	15023.56
503.344	15318.46
503.547	15472.06
503.75	15746.49
503.953	15963.58
504.156	15979.96
504.359	15906.23
504.562	16141.75
504.765	16651.69
504.968	16747.95
505.17	16688.56
505.373	16946.6
505.576	17274.28
505.779	17300.9
505.982	17268.13
506.185	17692.06
506.387	17651.1
506.59	17741.21
506.793	18363.79
506.996	18308.5
507.198	18832.78
507.401	18478.48
507.604	18615.69
507.807	19299.72
508.009	19340.68
508.212	19324.29
508.415	19410.31
508.617	19754.37
508.82	19854.72
509.022	20206.97
509.225	20172.15
509.428	20501.87
509.63	20559.22
509.833	20759.92
510.035	21529.95
510.238	21071.21
510.44	21511.52
510.643	21730.66
510.845	21712.22
511.048	22125.91
511.25	22066.52
511.453	22283.61
511.655	23289.16
511.858	22533.46
512.06	23115.08
512.262	23297.35
512.465	23356.74
512.667	23797.06
512.87	23696.71
513.072	23803.2
513.274	24413.49
513.477	24388.92
513.679	24614.2
513.881	24905.01
514.084	25259.31
514.286	25126.19
514.488	25003.31
514.69	25918.75
514.893	25959.71
515.095	25679.14
515.297	26502.42
515.499	26748.18
515.701	26670.36
515.904	27043.09
516.106	27258.12
516.308	27524.36
516.51	27776.26
516.712	27903.23
516.914	28603.64
517.116	28611.83
517.318	28450.04
517.52	28722.42
517.722	28839.15
517.925	29385.96
518.127	29529.32
518.329	29644.01
518.531	29490.41
518.733	29992.16
518.935	30518.49
519.136	30231.77
519.338	30756.05
519.54	30661.85
519.742	31171.79
519.944	31044.82
520.146	31530.19
520.348	31448.27
520.55	31866.05
520.752	31898.82
520.954	32457.92
521.155	31857.86
521.357	32828.6
521.559	32769.21
521.761	33207.47
521.963	33154.22
522.164	33385.65
522.366	33293.49
522.568	33721.51
522.77	33615.02
522.971	34204.83
523.173	33795.24
523.375	34241.7
523.576	34446.49
523.778	34120.87
523.98	34735.26
524.181	34665.63
524.383	34868.37
524.584	34972.82
524.786	35105.94
524.988	34944.15
525.189	35380.37
525.391	35132.56
525.592	35595.4
525.794	35818.63
525.995	35339.41
526.197	35427.47
526.398	35677.32
526.6	35587.21
526.801	36000.9
527.003	36062.34
527.204	35884.17
527.406	36179.07
527.607	35990.66
527.808	35771.53
528.01	35941.51
528.211	36002.95
528.412	36662.4
528.614	36254.85
528.815	36310.14
529.016	36324.48
529.218	36441.21
529.419	36424.83
529.62	36367.49
529.822	36715.64
530.023	36129.92
530.224	36476.03
530.425	36361.34
530.626	35896.45
530.828	35900.55
531.029	36746.36
531.23	36217.99
531.431	36068.48
531.632	36336.77
531.833	36183.17
532.035	36256.9
532.236	36383.87
532.437	36383.87
532.638	35955.85
532.839	36387.97
533.04	36447.36
533.241	36113.54
533.442	36328.58
533.643	35986.57
533.844	36035.72
534.045	35921.03
534.246	35241.1
534.447	35863.69
534.648	35605.64
534.849	35810.44
535.05	36115.59
535.251	35738.76
535.451	35505.29
535.652	35396.75
535.853	35411.09
536.054	35617.93
536.255	35765.38
536.456	35331.22
536.657	35644.55
536.857	35062.93
537.058	35218.58
537.259	35337.36
537.46	35452.05
537.66	35284.11
537.861	34876.57
538.062	34895
538.263	35011.73
538.463	35003.54
538.664	35009.68
538.865	34858.13
539.065	35255.44
539.266	34487.45
539.466	35054.74
539.667	34219.17
539.868	35040.4
540.068	34745.5
540.269	34974.87
540.469	34714.78
540.67	34540.7
540.87	34618.52
541.071	34274.46
541.271	34452.64
541.472	34262.18
541.672	34575.52
541.873	34440.35
542.073	34041
542.274	34858.13
542.474	34561.18
542.675	33967.27
542.875	34733.21
543.075	34559.13
543.276	33981.6
543.476	34534.56
543.676	34204.83
543.877	34624.67
544.077	34114.72
544.277	34231.46
544.478	33932.45
544.678	34485.4
544.878	34454.68
545.078	34131.11
545.279	33985.7
545.479	34006.18
545.679	34145.44
545.879	34071.71
546.079	34059.43
546.28	34088.1
546.48	33834.15
546.68	34469.02
546.88	34073.76
547.08	34145.44
547.28	34071.71
547.48	33668.26
547.68	34051.24
547.88	33682.6
548.081	33825.96
548.281	34131.11
548.481	33858.73
548.681	34149.54
548.881	33954.98
549.081	33887.4
549.28	34284.7
549.48	34041
549.68	33932.45
549.88	34495.64
550.08	33893.54
550.28	33961.12
550.48	34041
550.68	34129.06
550.88	34192.54
551.08	33981.6
551.279	34172.07
551.479	33830.05
551.679	33944.74
551.879	34247.84
552.079	34684.06
552.278	33930.4
552.478	34258.08
552.678	34671.77
552.878	34245.79
553.077	33971.36
553.277	34141.35
553.477	34475.16
553.676	34067.62
553.876	34356.38
554.076	34221.22
554.275	34127.01
554.475	34137.25
554.674	34290.85
554.874	34653.34
555.074	34051.24
555.273	34471.07
555.473	34477.21
555.672	34335.9
555.872	34335.9
556.071	34698.39
556.271	34702.49
556.47	34538.65
556.67	34008.23
556.869	34268.32
557.068	34729.11
557.268	34438.3
557.467	34651.29
557.667	34313.38
557.866	34720.92
558.065	34489.5
558.265	34487.45
558.464	34354.33
558.663	34673.82
558.863	34483.36
559.062	34940.05
559.261	34237.6
559.461	34860.18
559.66	34266.27
559.859	34696.35
560.058	33979.56
560.258	34374.81
560.457	34385.05
560.656	34704.54
560.855	34661.53
561.054	34315.42
561.253	34450.59
561.453	34692.25
561.652	34733.21
561.851	34536.6
562.05	34450.59
562.249	34034.85
562.448	35093.65
562.647	34372.77
562.846	34647.19
563.045	34716.82
563.244	34020.52
563.443	34755.74
563.642	33985.7
563.841	34131.11
564.04	34131.11
564.239	34423.97
564.438	33782.95
564.637	34438.3
564.836	34340
565.035	34161.83
565.234	34075.81
565.432	33971.36
565.631	34247.84
565.83	34372.77
566.029	33653.93
566.228	33596.59
566.427	33862.82
566.625	33754.28
566.824	33410.22
567.023	34114.72
567.222	33291.44
567.42	33404.08
567.619	33944.74
567.818	33316.01
568.016	33453.23
568.215	33565.87
568.414	33285.29
568.612	33678.5
568.811	32982.2
569.01	33434.8
569.208	32875.7
569.407	33156.27
569.605	32914.61
569.804	33117.36
570.002	32896.18
570.201	32877.75
570.4	32844.98
570.598	32718.01
570.797	32396.48
570.995	32363.71
571.193	31982.79
571.392	32638.14
571.59	32337.09
571.789	32234.69
571.987	32222.4
572.186	32117.95
572.384	31900.87
572.582	31995.07
572.781	31747.27
572.979	31476.94
573.177	31706.31
573.376	31933.64
573.574	31485.13
573.772	31749.32
573.971	31089.87
574.169	31552.71
574.367	30921.94
574.565	31610.06
574.763	31190.22
574.962	31034.58
575.16	30704.85
575.358	30737.62
575.556	30510.3
575.754	30743.77
575.952	30395.61
576.151	30622.94
576.349	30266.59
576.547	30475.48
576.745	30239.97
576.943	30266.59
577.141	30129.37
577.339	30414.04
577.537	29961.44
577.735	29797.6
577.933	29756.64
578.131	29779.17
578.329	29463.79
578.527	29525.22
578.725	29566.18
578.923	29443.31
579.121	29267.18
579.319	29523.18
579.516	29232.36
579.714	29275.37
579.912	29312.24
580.11	29060.34
580.308	29029.62
580.506	28730.61
580.704	28353.79
580.901	28908.79
581.099	28941.55
581.297	28347.64
581.495	28538.1
581.692	28425.46
581.89	28200.19
582.088	28646.65
582.285	27809.03
582.483	28148.99
582.681	28089.6
582.878	28314.87
583.076	27735.3
583.274	28144.89
583.471	27487.5
583.669	27759.88
583.866	27368.71
584.064	27663.62
584.262	27112.72
584.459	27702.53
584.657	27677.96
584.854	27557.13
585.052	27002.13
585.249	27438.34
585.447	27477.26
585.644	27014.41
585.841	26973.46
586.039	27563.27
586.236	26596.63
586.434	26709.27
586.631	26742.03
586.828	27004.17
587.026	26445.08
587.223	26926.35
587.42	26264.86
587.618	26527
587.815	26262.81
588.012	26311.96
588.21	26051.87
588.407	26244.38
588.604	25920.8
588.801	25711.91
588.999	25986.33
589.196	26213.66
589.393	26201.37
589.59	25976.09
589.787	25689.38
589.984	25824.54
590.182	25562.4
590.379	25771.3
590.576	25537.83
590.773	25480.49
590.97	25550.12
591.167	25722.15
591.364	25296.17
591.561	25517.35
591.758	25136.43
591.955	25175.34
592.152	25333.03
592.349	25330.98
592.546	25431.33
592.743	25204.01
592.94	25023.79
593.137	24845.62
593.334	25027.88
593.531	24907.05
593.727	24853.81
593.924	25259.31
594.121	24778.03
594.318	25044.27
594.515	24366.39
594.712	25056.56
594.908	24462.65
595.105	24646.96
595.302	24503.6
595.499	24878.38
595.696	24286.52
595.892	24263.99
596.089	24098.11
596.286	24397.11
596.482	24579.38
596.679	24610.1
596.876	24626.48
597.072	24368.44
597.269	24495.41
597.466	24343.86
597.662	24405.3
597.859	24456.5
598.055	24743.22
598.252	24071.48
598.448	24517.94
598.645	24022.33
598.841	24145.21
599.038	24263.99
599.234	24386.87
599.431	24069.44
599.627	24288.57
599.824	24378.68
600.02	24370.49
600.217	24362.29
600.413	24026.43
600.609	23983.42
600.806	24024.38
601.002	24112.44
601.198	24044.86
601.395	24397.11
601.591	24190.27
601.787	24511.8
601.984	24100.15
602.18	24595.76
602.376	24237.37
602.572	24237.37
602.769	24323.38
602.965	24130.87
603.161	24216.89
603.357	24208.7
603.553	24270.14
603.75	24474.93
603.946	24268.09
604.142	24343.86
604.338	24278.33
604.534	24421.69
604.73	24225.08
604.926	24177.98
605.122	24370.49
605.318	24210.75
605.514	24429.88
605.71	24569.14
605.906	24460.6
606.102	24173.88
606.298	24573.24
606.494	24237.37
606.69	24673.59
606.886	24710.45
607.082	24374.58
607.278	24907.05
607.474	24429.88
607.67	24372.53
607.866	24366.39
608.062	24718.64
608.257	24649.01
608.453	24851.76
608.649	24683.83
608.845	24900.91
609.041	24859.95
609.236	24765.74
609.432	24464.69
609.628	25257.26
609.824	25199.91
610.019	24763.7
610.215	24644.91
610.411	25204.01
610.606	25298.22
610.802	25079.08
610.998	24900.91
611.193	25214.25
611.389	24931.63
611.584	25236.78
611.78	25023.79
611.976	25177.39
612.171	25330.98
612.367	25265.45
612.562	25320.74
612.758	24964.4
612.953	24954.16
613.149	25148.71
613.344	25031.98
613.539	25500.97
613.735	25302.31
613.93	25627.94
614.126	25244.97
614.321	25417
614.517	25244.97
614.712	25017.64
614.907	25455.91
615.103	25685.28
615.298	25425.19
615.493	25670.95
615.688	24915.25
615.884	25783.59
616.079	25287.98
616.274	25685.28
616.47	25216.3
616.665	25656.61
616.86	25417
617.055	25226.54
617.25	25304.36
617.445	25392.42
617.641	24802.61
617.836	25300.26
618.031	25042.22
618.226	25122.09
618.421	25154.86
618.616	25199.91
618.811	25124.14
619.006	25435.43
619.201	24544.56
619.396	25167.15
619.591	24669.49
619.786	24925.49
619.981	24569.14
620.176	24728.88
620.371	24751.41
620.566	24798.51
620.761	24247.61
620.956	24345.91
621.151	24139.07
621.346	24139.07
621.541	23878.97
621.735	23862.59
621.93	23881.02
622.125	23678.27
622.32	23487.81
622.515	23717.18
622.709	23434.57
622.904	23893.31
623.099	23500.1
623.294	23362.89
623.488	23151.95
623.683	23139.66
623.878	22947.15
624.072	23027.02
624.267	22609.23
624.462	22834.51
624.656	22834.51
624.851	22754.64
625.046	22504.79
625.24	22486.36
625.435	22306.13
625.629	22148.44
625.824	22228.31
626.018	22021.47
626.213	21839.2
626.407	21953.88
626.602	21699.94
626.796	21847.39
626.991	21693.79
627.185	21159.27
627.38	21411.17
627.574	21220.71
627.768	21353.83
627.963	20903.28
628.157	20712.81
628.352	21056.87
628.546	20510.07
628.74	20581.74
628.935	20753.77
629.129	20723.05
629.323	20082.04
629.517	20288.89
629.712	20295.03
629.906	19998.07
630.1	19953.02
630.294	19881.34
630.489	19733.89
630.683	20118.9
630.877	19393.92
631.071	19613.06
631.265	19711.36
631.459	19365.25
631.653	19084.68
631.848	19250.56
632.042	19166.6
632.236	19019.14
632.43	19092.87
632.624	18787.72
632.818	18750.86
633.012	18650.51
633.206	18423.19
633.4	18488.72
633.594	18115.99
633.788	18283.92
633.982	18441.62
634.176	18054.55
634.369	17886.62
634.563	17806.75
634.757	17833.37
634.951	17761.69
635.145	17843.61
635.339	17585.57
635.533	17534.37
635.726	17319.33
635.92	17264.04
636.114	17175.97
636.308	17094.05
636.501	17143.21
636.695	17141.16
636.889	16881.07
637.083	16711.08
637.276	16608.69
637.47	16612.78
637.664	16569.77
637.857	16487.86
638.051	16295.35
638.244	16356.79
638.438	16233.91
638.632	16156.08
638.825	16082.36
639.019	15910.33
639.212	15824.31
639.406	15764.92
639.599	15562.17
639.793	15664.57
639.986	15267.27
640.18	15324.61
640.373	15418.82
640.567	15128
640.76	15316.42
640.954	14968.26
641.147	14802.38
641.34	14751.18
641.534	14874.06
641.727	14785.99
641.92	14691.79
642.114	14538.19
642.307	14480.85
642.5	14413.26
642.694	14310.86
642.887	14302.67
643.08	14347.73
643.273	14271.95
643.467	13888.98
643.66	13991.38
643.853	13659.61
644.046	13561.31
644.239	13655.51
644.432	13653.47
644.626	13604.32
644.819	13317.6
645.012	13317.6
645.205	13325.79
645.398	13137.38
645.591	13145.57
645.784	13082.08
645.977	12826.09
646.17	12965.35
646.363	12830.18
646.556	12781.03
646.749	12772.84
646.942	12613.1
647.135	12363.25
647.328	12418.54
647.521	12242.42
647.714	12260.85
647.907	12248.56
648.099	12072.43
648.292	12166.64
648.485	12191.22
648.678	11789.81
648.871	11933.17
649.064	11818.49
649.256	11673.08
649.449	11654.65
649.642	11548.15
649.835	11331.07
650.027	11548.15
650.22	11142.66
650.413	11206.14
650.605	11195.9
650.798	11384.32
650.991	11003.39
651.183	11113.99
651.376	11062.79
651.568	11197.95
651.761	10960.39
651.954	10956.29
652.146	10991.11
652.339	10763.78
652.531	10626.57
652.724	10694.15
652.916	10505.74
653.109	10571.27
653.301	10632.71
653.494	10327.57
653.686	10253.84
653.879	10493.45
654.071	10233.36
654.263	10016.27
654.456	10044.95
654.648	10118.67
654.84	10098.19
655.033	9936.4
655.225	9887.25
655.417	9895.44
655.61	9659.93
655.802	9786.9
655.994	9782.81
656.186	9762.33
656.379	9565.72
656.571	9610.78
656.763	9512.47
656.955	9414.17
657.148	9297.44
657.34	9211.42
657.532	9180.7
657.724	9055.78
657.916	8971.81
658.108	9115.17
658.3	9049.63
658.492	9041.44
658.684	8689.19
658.876	9049.63
659.068	8904.23
659.26	8810.02
659.452	8812.07
659.644	8859.17
659.836	8584.74
660.028	8568.36
660.22	8328.75
660.412	8582.7
660.604	8478.25
660.796	8435.24
660.988	8377.9
661.18	8355.37
661.372	8459.82
661.563	8502.82
661.755	8134.19
661.947	8132.14
662.139	8271.4
662.331	8091.18
662.522	7935.54
662.714	7962.16
662.906	7824.95
663.097	7800.37
663.289	7681.59
663.481	7697.97
663.673	7732.79
663.864	7595.57
664.056	7689.78
664.247	7591.48
664.439	7583.29
664.631	7554.62
664.822	7560.76
665.014	7484.98
665.205	7407.16
665.397	7370.3
665.588	7421.5
665.78	7388.73
665.971	7222.84
666.163	7190.08
666.354	7190.08
666.546	7054.91
666.737	7161.41
666.929	7038.53
667.12	7001.66
667.311	6979.14
667.503	6911.55
667.694	6858.31
667.885	6807.11
668.077	6749.76
668.268	6927.94
668.459	6671.94
668.651	6630.98
668.842	6628.93
669.033	6594.12
669.224	6624.84
669.416	6755.91
669.607	6690.37
669.798	6618.69
669.989	6559.3
670.18	6454.86
670.371	6420.04
670.563	6325.83
670.754	6393.42
670.945	6499.91
671.136	6368.84
671.327	6153.8
671.518	6291.02
671.709	6184.52
671.9	6381.13
672.091	6225.48
672.282	6102.61
672.473	6108.75
672.664	6149.71
672.855	6217.29
673.046	6135.37
673.237	6127.18
673.428	6071.89
673.619	5994.06
673.809	6043.21
674	5957.2
674.191	6008.4
674.382	5977.68
674.573	5791.31
674.764	5791.31
674.954	5895.76
675.145	5641.81
675.336	5832.27
675.527	5924.43
675.717	5781.07
675.908	5699.16
676.099	5844.56
676.289	5930.58
676.48	5684.82
676.671	5740.12
676.861	5770.83
677.052	5658.2
677.243	5670.48
677.433	5697.11
677.624	5668.44
677.814	5611.09
678.005	5525.08
678.195	5568.09
678.386	5641.81
678.576	5670.48
678.767	5572.18
678.957	5541.46
679.148	5633.62
679.338	5475.93
679.529	5465.69
679.719	5576.28
679.909	5611.09
680.1	5453.4
680.29	5650
680.481	5412.44
680.671	5477.98
680.861	5471.83
681.052	5406.3
681.242	5277.27
681.432	5484.12
681.622	5447.26
681.813	5346.91
682.003	5346.91
682.193	5246.55
682.383	5318.23
682.573	5256.79
682.764	5275.23
682.954	5281.37
683.144	5355.1
683.334	5275.23
683.524	5346.91
683.714	5307.99
683.904	5232.22
684.094	5211.74
684.284	5174.88
684.474	5271.13
684.664	5234.27
684.854	5211.74
685.044	5240.41
685.234	5006.94
685.424	5150.3
685.614	5090.91
685.804	5181.02
685.994	5125.72
686.184	5150.3
686.374	5029.47
686.564	5092.96
686.753	5166.68
686.943	5045.85
687.133	4994.65
687.323	5054.05
687.513	5113.44
687.702	5217.88
687.892	4839.01
688.082	5092.96
688.272	4941.41
688.461	4830.82
688.651	5107.29
688.841	4965.98
689.03	4884.06
689.22	4841.06
689.41	4929.12
689.599	4787.81
689.789	4879.97
689.979	4699.75
690.168	4787.81
690.358	4752.99
690.547	4824.67
690.737	4796
690.926	4824.67
691.116	4611.68
691.305	4879.97
691.495	4742.75
691.684	4703.84
691.874	4781.67
692.063	4638.31
692.252	4619.88
692.442	4716.13
692.631	4611.68
692.82	4798.05
693.01	4585.06
693.199	4578.92
693.388	4568.68
693.578	4595.3
693.767	4607.59
693.956	4580.96
694.146	4456.04
694.335	4470.37
694.524	4556.39
694.713	4404.84
694.902	4453.99
695.092	4458.09
695.281	4298.35
695.47	4478.57
695.659	4347.5
695.848	4339.3
696.037	4406.89
696.226	4269.67
696.415	4290.15
696.604	4482.66
696.793	4286.06
696.982	4300.39
697.171	4302.44
697.36	4281.96
697.549	4234.86
697.738	4273.77
697.927	4238.95
698.116	4267.63
698.305	4365.93
698.494	4404.84
698.683	4370.02
698.872	4220.52
699.061	4298.35
699.25	4187.75
699.438	4204.14
699.627	4195.95
699.816	4306.54
700.005	4247.15
700.193	4159.08
700.382	4222.57
700.571	4169.32
700.76	4079.21
700.948	4236.91
701.137	4130.41
701.326	4068.97
701.514	4058.73
701.703	4175.47
701.892	3948.14
702.08	4056.68
702.269	4195.95
702.457	3968.62
702.646	4007.53
702.834	3907.18
703.023	3880.56
703.212	4052.59
703.4	3894.9
703.589	4005.49
703.777	3868.27
703.965	3849.84
704.154	4054.64
704.342	3892.85
704.531	3886.7
704.719	3804.78
704.907	3823.22
705.096	3866.22
705.284	3880.56
705.472	3862.13
705.661	3855.98
705.849	3929.71
706.037	3751.54
706.226	3853.94
706.414	3729.01
706.602	3688.05
706.79	3763.83
706.979	3761.78
707.167	3720.82
707.355	3714.67
707.543	3731.06
707.731	3915.37
707.919	3767.92
708.107	3765.87
708.296	3683.95
708.484	3724.91
708.672	3843.7
708.86	3669.62
709.048	3544.69
709.236	3567.22
709.424	3520.12
709.612	3647.09
709.8	3548.79
709.988	3640.95
710.176	3626.61
710.364	3618.42
710.551	3585.65
710.739	3389.05
710.927	3548.79
711.115	3581.56
711.303	3561.08
711.491	3544.69
711.679	3343.99
711.866	3460.73
712.054	3493.49
712.242	3513.97
712.43	3481.21
712.617	3427.96
712.805	3491.45
712.993	3454.58
713.181	3268.22
713.368	3274.36
713.556	3407.48
713.744	3292.79
713.931	3485.3
714.119	3288.7
714.306	3374.71
714.494	3196.54
714.682	3391.09
714.869	3253.88
715.057	3257.98
715.244	3274.36
715.432	3307.13
715.619	3249.79
715.807	3208.83
715.994	3202.68
716.182	3110.52
716.369	3284.6
716.556	3262.07
716.744	3284.6
716.931	3143.29
717.119	3186.3
717.306	3145.34
717.493	3077.76
717.681	3085.95
717.868	3204.73
718.055	3208.83
718.242	3073.66
718.43	3128.95
718.617	3131
718.804	3165.82
718.991	3063.42
719.179	3032.7
719.366	3044.99
719.553	3206.78
719.74	2995.84
719.927	3059.32
720.114	2948.73
720.301	2932.35
720.488	2924.16
720.676	2999.93
720.863	3014.27
721.05	3012.22
721.237	3040.89
721.424	2879.1
721.611	3085.95
721.798	2807.42
721.985	2938.49
722.172	2979.45
722.358	2815.62
722.545	2907.77
722.732	2866.81
722.919	3088
723.106	2979.45
723.293	2889.34
723.48	2782.85
723.667	2817.66
723.853	2879.1
724.04	2856.58
724.227	2870.91
724.414	2809.47
724.6	2889.34
724.787	2918.01
724.974	2958.97
725.161	2834.05
725.347	2764.42
725.534	2774.66
725.72	2930.3
725.907	2803.33
726.094	2727.55
726.28	2680.45
726.467	2799.23
726.653	2692.74
726.84	2727.55
727.027	2907.77
727.213	2770.56
727.4	2657.92
727.586	2641.54
727.773	2633.35
727.959	2643.59
728.145	2657.92
728.332	2645.63
728.518	2639.49
728.705	2694.79
728.891	2586.24
729.077	2537.09
729.264	2672.26
729.45	2610.82
729.636	2631.3
729.823	2592.39
730.009	2651.78
730.195	2659.97
730.382	2545.28
730.568	2721.41
730.754	2520.71
730.94	2684.55
731.126	2561.67
731.313	2627.2
731.499	2664.07
731.685	2561.67
731.871	2541.19
732.057	2604.67
732.243	2637.44
732.429	2573.96
732.615	2582.15
732.801	2561.67
732.987	2492.04
733.173	2614.91
733.359	2389.64
733.545	2539.14
733.731	2363.01
733.917	2514.56
734.103	2510.47
734.289	2588.29
734.475	2377.35
734.661	2528.9
734.847	2463.37
735.033	2533
735.219	2397.83
735.404	2401.93
735.59	2391.69
735.776	2342.53
735.962	2444.93
736.148	2422.41
736.333	2328.2
736.519	2412.17
736.705	2393.73
736.89	2397.83
737.076	2432.65
737.262	2365.06
737.447	2336.39
737.633	2406.02
737.819	2295.43
738.004	2336.39
738.19	2279.05
738.375	2311.82
738.561	2283.14
738.747	2174.6
738.932	2254.47
739.118	2377.35
739.303	2307.72
739.489	2326.15
739.674	2205.32
739.859	2186.89
740.045	2277
740.23	2332.3
740.416	2168.46
740.601	2240.14
740.786	2135.69
740.972	2209.42
741.157	2061.96
741.342	2090.63
741.528	2258.57
741.713	2211.46
741.898	2129.55
742.084	2111.11
742.269	2102.92
742.454	2064.01
742.639	2066.06
742.824	2184.84
743.01	2160.27
743.195	2066.06
743.38	2125.45
743.565	1965.71
743.75	2088.59
743.935	2064.01
744.12	2147.98
744.305	1949.32
744.49	2039.44
744.675	1920.65
744.86	2059.92
745.045	2004.62
745.23	1783.44
745.415	1996.43
745.6	2072.2
745.785	2016.91
745.97	2021
746.155	1916.56
746.34	1986.19
746.525	1879.69
746.71	2055.82
746.895	1834.64
747.079	1906.32
747.264	1752.72
747.449	1932.94
747.634	1783.44
747.819	1762.96
748.003	1750.67
748.188	1789.58
748.373	1799.82
748.557	1758.86
748.742	1681.04
748.927	1797.78
749.111	1818.25
749.296	1717.9
749.481	1736.34
749.665	1797.78
749.85	1547.92
750.034	1662.61
750.219	1607.31
750.404	1732.24
750.588	1691.28
750.773	1590.93
750.957	1709.71
751.141	1586.83
751.326	1625.75
751.51	1482.39
751.695	1521.3
751.879	1558.16
752.064	1533.59
752.248	1515.16
752.432	1570.45
752.617	1506.96
752.801	1595.03
752.985	1504.92
753.17	1537.68
753.354	1373.85
753.538	1474.2
753.722	1439.38
753.907	1382.04
754.091	1361.56
754.275	1439.38
754.459	1552.02
754.643	1359.51
754.828	1457.81
755.012	1455.76
755.196	1490.58
755.38	1341.08
755.564	1406.61
755.748	1367.7
755.932	1386.13
756.116	1339.03
756.3	1359.51
756.484	1269.4
756.668	1349.27
756.852	1201.82
757.036	1234.58
757.22	1318.55
757.404	1275.54
757.588	1195.67
757.772	1238.68
757.956	1336.98
758.14	1353.37
758.323	1224.34
758.507	1234.58
758.691	1220.25
758.875	1210.01
759.059	1173.14
759.242	1218.2
759.426	1195.67
759.61	1146.52
759.794	1152.67
759.977	1201.82
760.161	1226.39
760.345	1255.06
760.528	1263.26
760.712	1210.01
760.895	1187.48
761.079	1095.32
761.263	1015.45
761.446	1169.05
761.63	1109.66
761.813	1171.1
761.997	1105.56
762.18	1027.74
762.364	1113.75
762.547	1060.51
762.731	1113.75
762.914	1144.47
763.098	1066.65
763.281	990.88
763.464	1013.4
763.648	1007.26
763.831	1046.17
764.015	1011.36
764.198	1080.99
764.381	1023.64
764.564	1070.75
764.748	1037.98
764.931	1009.31
765.114	964.25
765.297	1025.69
765.481	931.48
765.664	925.34
765.847	1040.03
766.03	974.49
766.213	988.83
766.397	870.05
766.58	974.49
766.763	992.92
766.946	994.97
767.129	972.44
767.312	884.38
767.495	1058.46
767.678	880.29
767.861	954.01
768.044	1015.45
768.227	919.2
768.41	898.72
768.593	1021.6
768.776	997.02
768.959	933.53
769.142	888.48
769.324	956.06
769.507	921.24
769.69	868
769.873	882.33
770.056	925.34
770.239	992.92
770.421	925.34
770.604	841.37
770.787	906.91
770.97	771.74
771.152	865.95
771.335	874.14
771.518	849.57
771.7	818.85
771.883	917.15
772.066	894.62
772.248	837.28
772.431	843.42
772.613	822.94
772.796	786.08
772.978	812.7
773.161	919.2
773.343	853.66
773.526	804.51
773.708	736.93
773.891	716.45
774.073	804.51
774.256	743.07
774.438	894.62
774.621	784.03
774.803	784.03
774.985	786.08
775.168	771.74
775.35	814.75
775.532	734.88
775.715	677.54
775.897	728.74
776.079	732.83
776.261	743.07
776.444	720.54
776.626	716.45
776.808	652.96
776.99	652.96
777.173	702.11
777.355	659.1
777.537	571.04
777.719	706.21
777.901	622.24
778.083	695.97
778.265	620.19
778.447	655.01
778.629	687.78
778.811	689.82
778.993	671.39
779.175	685.73
779.357	702.11
779.539	595.62
779.721	655.01
779.903	579.23
780.085	587.43
780.267	564.9
780.449	558.75
780.631	603.81
780.812	693.92
780.994	556.71
781.176	548.51
781.358	599.71
781.54	552.61
781.721	644.77
781.903	550.56
782.085	472.74
782.267	634.53
782.448	550.56
782.63	521.89
782.812	603.81
782.993	573.09
783.175	556.71
783.357	534.18
783.538	472.74
783.72	532.13
783.901	480.93
784.083	497.32
784.264	558.75
784.446	474.79
784.627	536.23
784.809	513.7
784.99	495.27
785.172	478.88
785.353	491.17
785.535	458.4
785.716	476.84
785.897	482.98
786.079	431.78
786.26	415.4
786.441	411.3
786.623	419.49
786.804	499.36
786.985	478.88
787.167	390.82
787.348	468.64
787.529	399.01
787.71	485.03
787.891	433.83
788.073	417.44
788.254	374.44
788.435	489.12
788.616	452.26
788.797	343.72
788.978	489.12
789.159	423.59
789.34	403.11
789.522	415.4
789.703	394.92
789.884	415.4
790.065	390.82
790.246	401.06
790.427	456.36
790.607	417.44
790.788	497.32
790.969	302.76
791.15	358.05
791.331	374.44
791.512	360.1
791.693	407.2
791.874	345.77
792.054	487.08
792.235	407.2
792.416	345.77
792.597	333.48
792.778	327.33
792.958	358.05
793.139	396.96
793.32	382.63
793.5	415.4
793.681	353.96
793.862	384.68
794.042	276.13
794.223	267.94
794.404	368.29
794.584	349.86
794.765	255.65
794.945	313
795.126	427.68
795.306	313
795.487	276.13
795.667	310.95
795.848	382.63
796.028	255.65
796.209	341.67
796.389	263.85
796.57	286.37
796.75	255.65
796.93	315.05
797.111	204.46
797.291	302.76
797.471	341.67
797.652	317.09
797.832	276.13
798.012	278.18
798.192	290.47
798.373	251.56
798.553	255.65
798.733	249.51
798.913	186.02
799.093	247.46
799.274	276.13
799.454	304.81
799.634	300.71
799.814	179.88
799.994	194.22
800.174	284.33
800.354	251.56
800.534	204.46
800.714	259.75
800.894	222.89
801.074	194.22
801.254	171.69
801.434	241.32
801.614	255.65
801.794	140.97
801.974	1005.21
802.154	194.22
802.334	302.76
802.514	163.5
802.693	181.93
802.873	231.08
803.053	321.19
803.233	190.12
803.413	222.89
803.592	216.74
803.772	214.7
803.952	226.98
804.131	128.68
804.311	163.5
804.491	274.09
804.67	194.22
804.85	198.31
805.03	300.71
805.209	210.6
805.389	192.17
805.568	169.64
805.748	237.22
805.928	181.93
806.107	226.98
806.287	245.41
806.466	177.83
806.646	206.5
806.825	190.12
807.004	202.41
807.184	214.7
807.363	194.22
807.543	183.98
807.722	194.22
807.901	251.56
808.081	173.74
808.26	155.3
808.439	237.22
808.619	161.45
808.798	136.87
808.977	163.5
809.156	235.18
809.336	198.31
809.515	179.88
809.694	122.54
809.873	198.31
810.052	218.79
810.231	261.8
810.411	173.74
810.59	153.26
810.769	138.92
810.948	165.54
811.127	161.45
811.306	147.11
811.485	140.97
811.664	210.6
811.843	153.26
812.022	171.69
812.201	147.11
812.38	241.32
812.559	67.24
812.737	188.07
812.916	120.49
813.095	143.02
813.274	128.68
813.453	198.31
813.632	202.41
813.811	212.65
813.989	122.54
814.168	153.26
814.347	177.83
814.526	167.59
814.704	140.97
814.883	173.74
815.062	145.06
815.24	149.16
815.419	87.72
815.598	218.79
815.776	54.95
815.955	155.3
816.133	116.39
816.312	159.4
816.49	149.16
816.669	79.53
816.847	138.92
817.026	132.78
817.204	136.87
817.383	138.92
817.561	106.15
817.74	102.06
817.918	153.26
818.097	145.06
818.275	179.88
818.453	104.11
818.632	157.35
818.81	95.91
818.988	1.71
819.167	65.19
819.345	181.93
819.523	134.82
819.701	104.11
819.879	171.69
820.058	104.11
820.236	177.83
820.414	159.4
820.592	97.96
820.77	210.6
820.948	59.05
821.127	87.72
821.305	132.78
821.483	110.25
821.661	165.54
821.839	116.39
822.017	116.39
822.195	75.43
822.373	204.46
822.551	155.3
822.729	130.73
822.907	79.53
823.085	89.77
823.262	132.78
823.44	63.15
823.618	85.67
823.796	100.01
823.974	95.91
824.152	79.53
824.329	40.62
824.507	32.43
824.685	75.43
824.863	116.39
825.04	46.76
825.218	108.2
825.396	95.91
825.574	157.35
825.751	169.64
825.929	67.24
826.107	91.82
826.284	106.15
826.462	91.82
826.639	71.34
826.817	75.43
826.994	40.62
827.172	36.52
827.349	140.97
827.527	71.34
827.704	140.97
827.882	61.1
828.059	104.11
828.237	140.97
828.414	108.2
828.591	89.77
828.769	26.28
828.946	40.62
829.124	186.02
829.301	130.73
829.478	26.28
829.655	54.95
829.833	71.34
830.01	-59.73
830.187	118.44
830.364	48.81
830.542	95.91
830.719	128.68
830.896	38.57
831.073	79.53
831.25	138.92
831.427	122.54
831.604	13.99
831.782	54.95
831.959	65.19
832.136	40.62
832.313	83.63
832.49	57
832.667	161.45
832.844	-59.73
833.021	89.77
833.198	128.68
833.374	93.87
833.551	61.1
833.728	67.24
833.905	130.73
834.082	-4.44
834.259	46.76
834.436	124.58
834.612	147.11
834.789	120.49
834.966	42.67
835.143	63.15
835.319	106.15
835.496	147.11
835.673	32.43
835.85	95.91
836.026	73.39
836.203	18.09
836.38	73.39
836.556	65.19
836.733	67.24
836.909	136.87
837.086	40.62
837.262	-14.68
837.439	75.43
837.616	28.33
837.792	67.24
837.968	134.82
838.145	-6.49
838.321	34.47
838.498	50.86
838.674	30.38
838.851	63.15
839.027	30.38
839.203	79.53
839.38	122.54
839.556	79.53
839.732	89.77
839.909	18.09
840.085	122.54
840.261	5.8
840.437	-2.39
840.614	-18.77
840.79	140.97
840.966	46.76
841.142	63.15
841.318	38.57
841.494	1.71
841.671	140.97
841.847	5.8
842.023	7.85
842.199	32.43
842.375	83.63
842.551	13.99
842.727	-14.68
842.903	5.8
843.079	9.9
843.255	69.29
843.431	104.11
843.607	134.82
843.783	-0.34
843.959	50.86
844.134	40.62
844.31	79.53
844.486	-24.92
844.662	42.67
844.838	54.95
845.013	38.57
845.189	132.78
845.365	34.47
845.541	59.05
845.716	34.47
845.892	48.81
846.068	87.72
846.244	44.71
846.419	63.15
846.595	-31.06
846.77	-0.34
846.946	26.28
847.122	81.58
847.297	63.15
847.473	30.38
847.648	-20.82
847.824	57
847.999	24.23
848.175	18.09
848.35	46.76
848.526	120.49
848.701	34.47
848.876	30.38
849.052	97.96
849.227	97.96
849.403	50.86
849.578	81.58
849.753	44.71
849.929	32.43
850.104	24.23
850.279	38.57
850.454	63.15
850.63	79.53
850.805	-6.49
850.98	95.91
851.155	1.71
851.33	54.95
851.505	-59.73
851.681	16.04
851.856	24.23
852.031	42.67
852.206	65.19
852.381	59.05
852.556	38.57
852.731	75.43
852.906	118.44
853.081	46.76
853.256	-24.92
853.431	67.24
853.606	-49.49
853.781	54.95
853.956	9.9
854.131	75.43
854.305	28.33
854.48	-10.58
854.655	1.71
854.83	40.62
855.005	59.05
855.18	81.58
855.354	-63.83
855.529	46.76
855.704	5.8
855.879	83.63
856.053	-39.25
856.228	13.99
856.403	-29.01
856.577	5.8
856.752	81.58
856.926	-4.44
857.101	95.91
857.276	54.95
857.45	16.04
857.625	9.9
857.799	-8.53
857.974	5.8
858.148	-37.2
858.323	5.8
858.497	-16.73
858.672	24.23
858.846	9.9
859.02	54.95
859.195	108.2
859.369	42.67
859.543	-31.06
859.718	106.15
859.892	-10.58
860.066	18.09
860.241	87.72
860.415	22.19
860.589	-2.39
860.763	26.28
860.938	46.76
861.112	22.19
861.286	5.8
861.46	34.47
861.634	48.81
861.808	-51.54
861.982	44.71
862.157	32.43
862.331	18.09
862.505	40.62
862.679	-2.39
862.853	63.15
863.027	-0.34
863.201	57
863.375	-31.06
863.549	30.38
863.722	40.62
863.896	36.52
864.07	34.47
864.244	-35.16
864.418	26.28
864.592	65.19
864.766	-8.53
864.939	-16.73
865.113	13.99
865.287	30.38
865.461	-18.77
865.634	-10.58
865.808	-18.77
865.982	18.09
866.156	28.33
866.329	1.71
866.503	-18.77
866.676	67.24
866.85	32.43
867.024	40.62
867.197	38.57
867.371	54.95
867.544	59.05
867.718	-57.68
867.891	54.95
868.065	-74.07
868.238	13.99
868.412	32.43
868.585	1.71
868.759	1.71
868.932	-0.34
869.105	3.75
869.279	-37.2
869.452	-43.35
869.625	-24.92
869.799	-47.44
869.972	-0.34
870.145	1.71
870.319	81.58
870.492	3.75
870.665	-0.34
870.838	-59.73
871.011	-37.2
871.185	-10.58
871.358	38.57
871.531	34.47
871.704	-10.58
871.877	63.15
872.05	-18.77
872.223	-51.54
872.396	108.2
872.569	36.52
872.742	20.14
872.915	26.28
873.088	-2.39
873.261	-67.92
873.434	-18.77
873.607	26.28
873.78	100.01
873.953	22.19
874.126	-18.77
874.299	44.71
874.471	-26.96
874.644	-76.12
874.817	40.62
874.99	89.77
875.163	-47.44
875.335	-22.87
875.508	40.62
875.681	-2.39
875.853	54.95
876.026	30.38
876.199	34.47
876.371	67.24
876.544	20.14
876.717	-4.44
876.889	-47.44
877.062	-20.82
877.234	5.8
877.407	24.23
877.579	38.57
877.752	65.19
877.924	38.57
878.097	57
878.269	-2.39
878.442	79.53
878.614	67.24
878.786	26.28
878.959	-49.49
879.131	-18.77
879.303	-24.92
879.476	1.71
879.648	75.43
879.82	-43.35
879.993	-59.73
880.165	-22.87
880.337	22.19
880.509	-10.58
880.681	-76.12
880.854	34.47
881.026	26.28
881.198	46.76
881.37	-0.34
881.542	-18.77
881.714	-12.63
881.886	-24.92
882.058	48.81
882.23	48.81
882.402	13.99
882.574	13.99
882.746	24.23
882.918	54.95
883.09	-8.53
883.262	13.99
883.434	7.85
883.606	24.23
883.778	57
883.95	128.68
884.122	5.8
884.293	40.62
884.465	5.8
884.637	7.85
884.809	-6.49
884.98	30.38
885.152	-4.44
885.324	63.15
885.496	-49.49
885.667	-24.92
885.839	32.43
886.011	40.62
886.182	-2.39
886.354	116.39
886.525	16.04
886.697	-8.53
886.869	24.23
887.04	26.28
887.212	7.85
887.383	40.62
887.555	1.71
887.726	-74.07
887.897	-43.35
888.069	-8.53
888.24	22.19
888.412	-10.58
888.583	97.96
888.754	32.43
888.926	57
889.097	54.95
889.268	22.19
889.44	18.09
889.611	-51.54
889.782	-2.39
889.953	-45.4
890.125	22.19
890.296	-43.35
890.467	22.19
890.638	54.95
890.809	-31.06
890.98	-35.16
891.151	5.8
891.323	44.71
891.494	13.99
891.665	-0.34
891.836	-6.49
892.007	34.47
892.178	50.86
892.349	-12.63
892.52	-2.39
892.691	-59.73
892.862	65.19
893.032	-24.92
893.203	-20.82
893.374	24.23
893.545	40.62
893.716	-35.16
893.887	13.99
894.057	-39.25
894.228	48.81
894.399	-39.25
894.57	91.82
894.74	13.99
894.911	1.71
895.082	7.85
895.253	-22.87
895.423	-37.2
895.594	34.47
895.764	38.57
895.935	7.85
896.106	38.57
896.276	13.99
896.447	22.19
896.617	22.19
896.788	-18.77
896.958	-2.39
897.129	-16.73
897.299	-4.44
897.47	9.9
897.64	50.86
897.81	-57.68
897.981	-33.11
898.151	-96.6
898.322	-0.34
898.492	-0.34
898.662	-2.39
898.832	-22.87
899.003	-4.44
899.173	-6.49
899.343	-43.35
899.513	-43.35
