Data from USB4F104151__146__14-31-54-574.txt Node

Date: Thu Mar 13 14:31:54 EDT 2025
User: louis
Spectrometer: USB4F10415
Trigger mode: 4
Integration Time (sec): 2.500000E-2
Scans to average: 1
Electric dark correction enabled: true
Nonlinearity correction enabled: false
Boxcar width: 0
XAxis mode: Wavelengths
Number of Pixels in Spectrum: 3648
>>>>>Begin Spectral Data<<<<<
178.204	-153.6
178.424	-153.6
178.644	-153.6
178.864	-139.26
179.084	-98.3
179.304	43.01
179.524	-4.1
179.744	-57.34
179.964	98.3
180.184	8.19
180.404	-61.44
180.624	2.05
180.844	10.24
181.064	-65.53
181.283	24.58
181.503	-53.25
181.723	55.3
181.943	-96.25
182.163	53.25
182.383	24.58
182.602	106.49
182.822	81.92
183.042	24.58
183.262	-8.19
183.482	0
183.701	-16.38
183.921	90.11
184.141	-24.58
184.361	43.01
184.58	-43.01
184.8	-40.96
185.02	4.1
185.239	49.15
185.459	32.77
185.679	16.38
185.898	-53.25
186.118	55.3
186.338	90.11
186.557	73.73
186.777	34.82
186.997	-2.05
187.216	-57.34
187.436	73.73
187.655	34.82
187.875	75.77
188.095	-8.19
188.314	96.25
188.534	102.4
188.753	45.06
188.973	-16.38
189.192	83.97
189.412	55.3
189.631	90.11
189.851	26.62
190.07	192.51
190.29	-32.77
190.509	-28.67
190.729	61.44
190.948	92.16
191.168	133.12
191.387	65.54
191.607	-16.38
191.826	-24.58
192.045	36.86
192.265	-8.19
192.484	43.01
192.704	20.48
192.923	-55.3
193.142	75.77
193.362	49.15
193.581	116.73
193.8	57.34
194.02	20.48
194.239	18.43
194.458	59.39
194.678	16.38
194.897	73.73
195.116	2.05
195.335	86.01
195.555	20.48
195.774	38.91
195.993	73.73
196.212	81.92
196.432	28.67
196.651	-32.77
196.87	65.54
197.089	124.93
197.308	18.43
197.528	57.34
197.747	32.77
197.966	65.54
198.185	106.49
198.404	79.87
198.623	-16.38
198.842	71.68
199.062	106.49
199.281	12.29
199.5	67.58
199.719	75.77
199.938	81.92
200.157	61.44
200.376	77.82
200.595	73.73
200.814	-30.72
201.033	34.82
201.252	133.12
201.471	122.88
201.69	73.73
201.909	55.3
202.128	40.96
202.347	-24.58
202.566	45.06
202.785	-49.15
203.004	-6.14
203.223	124.93
203.442	40.96
203.661	24.58
203.879	59.39
204.098	26.62
204.317	32.77
204.536	77.82
204.755	40.96
204.974	75.77
205.193	40.96
205.411	118.78
205.63	-40.96
205.849	86.01
206.068	67.58
206.287	12.29
206.505	43.01
206.724	-8.19
206.943	81.92
207.162	8.19
207.381	-8.19
207.599	20.48
207.818	61.44
208.037	8.19
208.255	86.01
208.474	73.73
208.693	81.92
208.911	67.58
209.13	67.58
209.349	16.38
209.567	26.62
209.786	26.62
210.005	34.82
210.223	94.21
210.442	24.58
210.661	116.73
210.879	20.48
211.098	2.05
211.316	47.1
211.535	81.92
211.753	-8.19
211.972	108.54
212.191	-67.58
212.409	53.25
212.628	61.44
212.846	-28.67
213.065	67.58
213.283	75.77
213.502	34.82
213.72	-4.1
213.938	-12.29
214.157	-38.91
214.375	45.06
214.594	20.48
214.812	40.96
215.031	110.59
215.249	57.34
215.467	73.73
215.686	86.01
215.904	59.39
216.122	-26.62
216.341	36.86
216.559	98.3
216.778	49.15
216.996	47.1
217.214	-26.62
217.432	77.82
217.651	18.43
217.869	-53.25
218.087	18.43
218.306	0
218.524	137.21
218.742	57.34
218.96	73.73
219.179	-8.19
219.397	34.82
219.615	116.73
219.833	118.78
220.051	24.58
220.27	-18.43
220.488	81.92
220.706	20.48
220.924	-16.38
221.142	24.58
221.36	36.86
221.578	96.25
221.796	16.38
222.015	104.45
222.233	45.06
222.451	98.3
222.669	-24.58
222.887	40.96
223.105	16.38
223.323	51.2
223.541	8.19
223.759	67.58
223.977	139.26
224.195	86.01
224.413	81.92
224.631	32.77
224.849	16.38
225.067	73.73
225.285	8.19
225.503	14.34
225.721	40.96
225.939	16.38
226.157	63.49
226.375	155.65
226.592	34.82
226.81	61.44
227.028	143.36
227.246	133.12
227.464	-16.38
227.682	106.49
227.9	18.43
228.117	81.92
228.335	34.82
228.553	40.96
228.771	57.34
228.989	49.15
229.206	8.19
229.424	-24.58
229.642	-24.58
229.86	2.05
230.077	16.38
230.295	-14.34
230.513	63.49
230.731	28.67
230.948	32.77
231.166	65.54
231.384	24.58
231.601	0
231.819	71.68
232.037	118.78
232.254	0
232.472	67.58
232.689	-16.38
232.907	59.39
233.125	4.1
233.342	57.34
233.56	18.43
233.777	86.01
233.995	24.58
234.213	-38.91
234.43	98.3
234.648	16.38
234.865	12.29
235.083	67.58
235.3	49.15
235.518	59.39
235.735	188.41
235.953	100.35
236.17	8.19
236.388	30.72
236.605	40.96
236.822	106.49
237.04	8.19
237.257	16.38
237.475	51.2
237.692	59.39
237.909	-18.43
238.127	57.34
238.344	73.73
238.562	-6.14
238.779	53.25
238.996	-8.19
239.214	90.11
239.431	90.11
239.648	38.91
239.865	73.73
240.083	57.34
240.3	49.15
240.517	-40.96
240.735	12.29
240.952	90.11
241.169	30.72
241.386	67.58
241.603	-32.77
241.821	51.2
242.038	79.87
242.255	57.34
242.472	2.05
242.689	40.96
242.907	45.06
243.124	98.3
243.341	6.14
243.558	-12.29
243.775	-24.58
243.992	-12.29
244.209	40.96
244.426	96.25
244.643	32.77
244.86	51.2
245.078	51.2
245.295	36.86
245.512	10.24
245.729	36.86
245.946	-6.14
246.163	-12.29
246.38	45.06
246.597	94.21
246.814	-8.19
247.031	32.77
247.248	0
247.464	8.19
247.681	-12.29
247.898	12.29
248.115	92.16
248.332	-16.38
248.549	94.21
248.766	114.69
248.983	116.73
249.2	38.91
249.417	63.49
249.633	12.29
249.85	43.01
250.067	24.58
250.284	75.77
250.501	14.34
250.717	98.3
250.934	4.1
251.151	55.3
251.368	0
251.585	92.16
251.801	36.86
252.018	43.01
252.235	18.43
252.451	18.43
252.668	24.58
252.885	59.39
253.102	0
253.318	40.96
253.535	-32.77
253.752	90.11
253.968	40.96
254.185	36.86
254.401	-22.53
254.618	55.3
254.835	24.58
255.051	124.93
255.268	49.15
255.484	16.38
255.701	-30.72
255.917	90.11
256.134	-12.29
256.351	18.43
256.567	26.62
256.784	69.63
257	-14.34
257.217	73.73
257.433	24.58
257.65	126.97
257.866	-8.19
258.082	6.14
258.299	2.05
258.515	61.44
258.732	18.43
258.948	-6.14
259.165	65.54
259.381	8.19
259.597	47.1
259.814	59.39
260.03	73.73
260.246	34.82
260.463	98.3
260.679	30.72
260.895	77.82
261.112	131.07
261.328	43.01
261.544	16.38
261.761	118.78
261.977	24.58
262.193	26.62
262.409	81.92
262.626	10.24
262.842	-43.01
263.058	24.58
263.274	73.73
263.49	77.82
263.707	81.92
263.923	12.29
264.139	4.1
264.355	0
264.571	59.39
264.787	-51.2
265.004	16.38
265.22	47.1
265.436	98.3
265.652	10.24
265.868	10.24
266.084	-53.25
266.3	102.4
266.516	2.05
266.732	126.97
266.948	81.92
267.164	49.15
267.38	53.25
267.596	49.15
267.812	14.34
268.028	30.72
268.244	18.43
268.46	114.69
268.676	69.63
268.892	81.92
269.108	16.38
269.324	-12.29
269.54	18.43
269.756	49.15
269.972	12.29
270.188	65.54
270.403	0
270.619	45.06
270.835	45.06
271.051	40.96
271.267	20.48
271.483	90.11
271.698	49.15
271.914	55.3
272.13	53.25
272.346	75.77
272.562	49.15
272.777	114.69
272.993	-38.91
273.209	2.05
273.425	4.1
273.64	88.06
273.856	77.82
274.072	26.62
274.287	34.82
274.503	14.34
274.719	32.77
274.934	0
275.15	10.24
275.366	2.05
275.581	8.19
275.797	75.77
276.012	75.77
276.228	-45.06
276.444	0
276.659	63.49
276.875	73.73
277.09	-2.05
277.306	75.77
277.521	34.82
277.737	32.77
277.952	116.73
278.168	32.77
278.383	16.38
278.599	116.73
278.814	36.86
279.03	36.86
279.245	57.34
279.461	32.77
279.676	16.38
279.892	28.67
280.107	45.06
280.322	10.24
280.538	53.25
280.753	118.78
280.969	122.88
281.184	61.44
281.399	61.44
281.615	90.11
281.83	104.45
282.045	6.14
282.26	20.48
282.476	51.2
282.691	77.82
282.906	45.06
283.122	26.62
283.337	2.05
283.552	100.35
283.767	-6.14
283.983	34.82
284.198	26.62
284.413	57.34
284.628	2.05
284.843	65.54
285.058	57.34
285.274	57.34
285.489	2.05
285.704	112.64
285.919	94.21
286.134	81.92
286.349	8.19
286.564	-16.38
286.779	114.69
286.995	49.15
287.21	36.86
287.425	51.2
287.64	-12.29
287.855	32.77
288.07	-94.21
288.285	120.83
288.5	57.34
288.715	116.73
288.93	71.68
289.145	-14.34
289.36	53.25
289.575	2.05
289.79	98.3
290.004	-26.62
290.219	69.63
290.434	34.82
290.649	-2.05
290.864	32.77
291.079	6.14
291.294	114.69
291.509	49.15
291.724	40.96
291.938	106.49
292.153	59.39
292.368	30.72
292.583	49.15
292.798	92.16
293.012	57.34
293.227	4.1
293.442	40.96
293.657	106.49
293.871	106.49
294.086	73.73
294.301	135.17
294.516	-6.14
294.73	131.07
294.945	83.97
295.16	24.58
295.374	18.43
295.589	75.77
295.804	-24.58
296.018	81.92
296.233	28.67
296.447	92.16
296.662	4.1
296.877	81.92
297.091	36.86
297.306	100.35
297.52	-14.34
297.735	88.06
297.949	32.77
298.164	94.21
298.378	-2.05
298.593	20.48
298.807	57.34
299.022	73.73
299.236	57.34
299.451	34.82
299.665	-16.38
299.88	34.82
300.094	-4.1
300.309	6.14
300.523	77.82
300.737	8.19
300.952	75.77
301.166	86.01
301.381	-38.91
301.595	-16.38
301.809	73.73
302.024	40.96
302.238	61.44
302.452	67.58
302.667	77.82
302.881	102.4
303.095	57.34
303.309	67.58
303.524	28.67
303.738	34.82
303.952	0
304.166	83.97
304.381	-30.72
304.595	88.06
304.809	38.91
305.023	45.06
305.237	-20.48
305.452	53.25
305.666	88.06
305.88	65.54
306.094	67.58
306.308	36.86
306.522	106.49
306.736	81.92
306.95	51.2
307.164	57.34
307.379	49.15
307.593	32.77
307.807	90.11
308.021	51.2
308.235	61.44
308.449	-16.38
308.663	47.1
308.877	174.08
309.091	24.58
309.305	94.21
309.519	8.19
309.733	75.77
309.947	-12.29
310.161	26.62
310.374	73.73
310.588	38.91
310.802	51.2
311.016	43.01
311.23	67.58
311.444	86.01
311.658	63.49
311.872	133.12
312.085	40.96
312.299	51.2
312.513	75.77
312.727	118.78
312.941	4.1
313.154	49.15
313.368	118.78
313.582	18.43
313.796	10.24
314.009	75.77
314.223	92.16
314.437	-16.38
314.651	40.96
314.864	-12.29
315.078	36.86
315.292	47.1
315.505	24.58
315.719	59.39
315.933	114.69
316.146	34.82
316.36	49.15
316.573	43.01
316.787	69.63
317.001	32.77
317.214	22.53
317.428	124.93
317.641	65.54
317.855	51.2
318.068	90.11
318.282	114.69
318.495	98.3
318.709	81.92
318.922	75.77
319.136	38.91
319.349	75.77
319.563	4.1
319.776	0
319.99	38.91
320.203	-12.29
320.417	81.92
320.63	38.91
320.843	53.25
321.057	51.2
321.27	65.54
321.483	75.77
321.697	118.78
321.91	61.44
322.124	73.73
322.337	63.49
322.55	34.82
322.763	40.96
322.977	-6.14
323.19	26.62
323.403	-8.19
323.617	102.4
323.83	79.87
324.043	69.63
324.256	61.44
324.469	2.05
324.683	8.19
324.896	77.82
325.109	77.82
325.322	38.91
325.535	43.01
325.748	65.54
325.962	16.38
326.175	32.77
326.388	18.43
326.601	159.74
326.814	2.05
327.027	0
327.24	40.96
327.453	51.2
327.666	110.59
327.879	61.44
328.092	131.07
328.305	2.05
328.518	77.82
328.731	53.25
328.944	49.15
329.157	43.01
329.37	16.38
329.583	147.45
329.796	73.73
330.009	40.96
330.222	71.68
330.435	-40.96
330.648	10.24
330.861	28.67
331.073	73.73
331.286	77.82
331.499	118.78
331.712	-10.24
331.925	43.01
332.138	98.3
332.35	86.01
332.563	-57.34
332.776	90.11
332.989	65.54
333.202	10.24
333.414	-4.1
333.627	88.06
333.84	67.58
334.053	65.54
334.265	100.35
334.478	153.6
334.691	67.58
334.903	59.39
335.116	28.67
335.329	20.48
335.541	53.25
335.754	94.21
335.966	-16.38
336.179	90.11
336.392	69.63
336.604	10.24
336.817	65.54
337.029	43.01
337.242	51.2
337.454	100.35
337.667	92.16
337.88	-2.05
338.092	53.25
338.305	40.96
338.517	65.54
338.729	61.44
338.942	145.41
339.154	22.53
339.367	0
339.579	65.54
339.792	8.19
340.004	94.21
340.217	40.96
340.429	65.54
340.641	-14.34
340.854	-12.29
341.066	43.01
341.278	14.34
341.491	49.15
341.703	32.77
341.915	8.19
342.128	135.17
342.34	63.49
342.552	63.49
342.764	59.39
342.977	124.93
343.189	69.63
343.401	65.54
343.613	36.86
343.826	49.15
344.038	10.24
344.25	165.89
344.462	0
344.674	73.73
344.886	24.58
345.099	106.49
345.311	20.48
345.523	32.77
345.735	67.58
345.947	16.38
346.159	124.93
346.371	12.29
346.583	61.44
346.795	126.97
347.007	0
347.219	57.34
347.431	104.45
347.643	81.92
347.855	-24.58
348.067	122.88
348.279	55.3
348.491	16.38
348.703	53.25
348.915	94.21
349.127	18.43
349.339	24.58
349.551	49.15
349.763	98.3
349.975	73.73
350.187	49.15
350.399	28.67
350.61	57.34
350.822	49.15
351.034	26.62
351.246	104.45
351.458	126.97
351.669	45.06
351.881	112.64
352.093	-14.34
352.305	100.35
352.517	67.58
352.728	83.97
352.94	90.11
353.152	51.2
353.363	139.26
353.575	83.97
353.787	106.49
353.999	34.82
354.21	86.01
354.422	49.15
354.633	59.39
354.845	83.97
355.057	34.82
355.268	18.43
355.48	90.11
355.692	43.01
355.903	49.15
356.115	26.62
356.326	61.44
356.538	59.39
356.749	86.01
356.961	108.54
357.172	57.34
357.384	0
357.595	147.45
357.807	40.96
358.018	10.24
358.23	61.44
358.441	102.4
358.653	24.58
358.864	-12.29
359.075	24.58
359.287	32.77
359.498	73.73
359.709	106.49
359.921	57.34
360.132	75.77
360.344	34.82
360.555	0
360.766	67.58
360.977	-8.19
361.189	81.92
361.4	32.77
361.611	147.45
361.823	40.96
362.034	126.97
362.245	-16.38
362.456	90.11
362.667	38.91
362.879	65.54
363.09	94.21
363.301	28.67
363.512	135.17
363.723	57.34
363.935	47.1
364.146	65.54
364.357	0
364.568	106.49
364.779	36.86
364.99	108.54
365.201	75.77
365.412	30.72
365.623	10.24
365.834	135.17
366.045	92.16
366.256	73.73
366.467	14.34
366.678	102.4
366.889	86.01
367.1	28.67
367.311	94.21
367.522	0
367.733	32.77
367.944	122.88
368.155	90.11
368.366	94.21
368.577	159.74
368.788	116.73
368.999	16.38
369.209	92.16
369.42	155.65
369.631	157.69
369.842	28.67
370.053	86.01
370.264	86.01
370.474	65.54
370.685	63.49
370.896	159.74
371.107	139.26
371.317	75.77
371.528	94.21
371.739	106.49
371.95	176.13
372.16	8.19
372.371	36.86
372.582	141.31
372.792	151.55
373.003	108.54
373.214	159.74
373.424	61.44
373.635	0
373.846	116.73
374.056	45.06
374.267	61.44
374.477	86.01
374.688	83.97
374.898	90.11
375.109	102.4
375.319	49.15
375.53	88.06
375.74	122.88
375.951	106.49
376.161	90.11
376.372	108.54
376.582	18.43
376.793	16.38
377.003	-14.34
377.214	-6.14
377.424	24.58
377.635	73.73
377.845	57.34
378.055	116.73
378.266	34.82
378.476	0
378.686	92.16
378.897	32.77
379.107	79.87
379.317	147.45
379.528	81.92
379.738	10.24
379.948	8.19
380.158	143.36
380.369	69.63
380.579	141.31
380.789	18.43
380.999	79.87
381.21	55.3
381.42	65.54
381.63	40.96
381.84	98.3
382.05	34.82
382.261	65.54
382.471	32.77
382.681	94.21
382.891	126.97
383.101	92.16
383.311	57.34
383.521	94.21
383.731	112.64
383.941	149.5
384.151	55.3
384.361	16.38
384.571	133.12
384.781	106.49
384.991	106.49
385.201	126.97
385.411	18.43
385.621	94.21
385.831	57.34
386.041	108.54
386.251	22.53
386.461	159.74
386.671	61.44
386.881	118.78
387.091	16.38
387.301	51.2
387.511	26.62
387.72	83.97
387.93	131.07
388.14	90.11
388.35	102.4
388.56	102.4
388.769	65.54
388.979	126.97
389.189	100.35
389.399	96.25
389.609	98.3
389.818	129.02
390.028	116.73
390.238	124.93
390.447	30.72
390.657	116.73
390.867	20.48
391.076	83.97
391.286	55.3
391.496	40.96
391.705	100.35
391.915	163.84
392.125	172.03
392.334	26.62
392.544	49.15
392.753	147.45
392.963	108.54
393.172	159.74
393.382	65.54
393.591	108.54
393.801	100.35
394.01	182.27
394.22	155.65
394.429	114.69
394.639	124.93
394.848	122.88
395.058	137.21
395.267	75.77
395.477	116.73
395.686	147.45
395.895	122.88
396.105	157.69
396.314	131.07
396.524	155.65
396.733	163.84
396.942	231.42
397.152	106.49
397.361	106.49
397.57	192.51
397.78	149.5
397.989	165.89
398.198	212.99
398.407	186.37
398.617	163.84
398.826	59.39
399.035	145.41
399.244	188.41
399.453	163.84
399.663	198.65
399.872	196.61
400.081	184.32
400.29	198.65
400.499	147.45
400.708	221.18
400.917	176.13
401.127	122.88
401.336	143.36
401.545	286.72
401.754	190.46
401.963	231.42
402.172	118.78
402.381	104.45
402.59	174.08
402.799	212.99
403.008	188.41
403.217	188.41
403.426	116.73
403.635	120.83
403.844	165.89
404.053	192.51
404.262	210.94
404.471	319.48
404.68	294.91
404.888	286.72
405.097	212.99
405.306	256
405.515	294.91
405.724	274.43
405.933	262.14
406.142	200.7
406.35	249.85
406.559	370.68
406.768	372.73
406.977	319.48
407.185	360.44
407.394	354.3
407.603	350.2
407.812	286.72
408.02	360.44
408.229	352.25
408.438	417.79
408.646	452.6
408.855	393.21
409.064	425.98
409.272	389.11
409.481	417.79
409.69	397.31
409.898	458.75
410.107	530.42
410.315	430.07
410.524	497.66
410.733	573.43
410.941	542.71
411.15	569.34
411.358	645.11
411.567	602.1
411.775	657.4
411.984	647.16
412.192	761.84
412.401	720.88
412.609	722.93
412.818	849.91
413.026	772.08
413.234	843.76
413.443	878.58
413.651	862.19
413.86	905.2
414.068	978.93
414.276	1011.7
414.485	1038.32
414.693	1124.33
414.901	1093.62
415.11	1044.46
415.318	1163.25
415.526	1239.02
415.734	1196.01
415.943	1222.64
416.151	1392.62
416.359	1370.09
416.567	1421.29
416.776	1396.71
416.984	1492.97
417.192	1617.9
417.4	1617.9
417.608	1585.13
417.817	1771.49
418.025	1802.21
418.233	1886.18
418.441	1859.56
418.649	1990.63
418.857	2033.63
419.065	2142.18
419.273	2070.5
419.481	2303.96
419.689	2330.59
419.897	2435.03
420.105	2432.99
420.313	2625.5
420.521	2676.7
420.729	2695.13
420.937	2852.82
421.145	3000.27
421.353	2983.89
421.561	3127.25
421.769	3194.83
421.977	3411.92
422.185	3440.59
422.393	3575.75
422.601	3901.38
422.809	3702.73
423.017	3751.88
423.224	3860.42
423.432	4057.03
423.64	4120.51
423.848	4489.15
424.056	4351.93
424.263	4630.46
424.471	4802.49
424.679	4755.38
424.887	5156.79
425.094	5050.29
425.302	5267.38
425.51	5480.36
425.718	5601.19
425.925	5828.52
426.133	5947.3
426.341	6143.91
426.548	6299.55
426.756	6496.16
426.964	6492.06
427.171	6846.36
427.379	6897.56
427.586	7344.02
427.794	7530.38
428.001	7643.02
428.209	8003.46
428.417	8058.76
428.624	8390.53
428.832	8365.95
429.039	8376.19
429.247	8384.38
429.454	9340.79
429.662	9723.76
429.869	9234.29
430.076	9906.02
430.284	9416.56
430.491	10209.12
430.699	10465.12
430.906	10563.42
431.114	10686.3
431.321	11169.62
431.528	11525.97
431.736	12162.89
431.943	12779.32
432.15	12361.54
432.358	12478.27
432.565	12910.4
432.772	13006.65
432.979	13618.99
433.187	13934.38
433.394	13907.76
433.601	14722.85
433.808	15144.73
434.016	14708.51
434.223	15595.28
434.43	16486.15
434.637	16058.12
434.844	17020.67
435.052	17348.34
435.259	17047.29
435.466	17514.23
435.673	17577.72
435.88	18335.46
436.087	19480.28
436.294	19332.83
436.501	19005.15
436.708	19263.19
436.915	19822.29
437.122	20997.82
437.329	20831.94
437.537	21642.93
437.743	21991.09
437.95	21591.73
438.157	23135.9
438.364	23398.04
438.571	23527.06
438.778	23432.86
438.985	25644.66
439.192	24401.55
439.399	25472.64
439.606	25030.27
439.813	26748.52
440.02	27739.74
440.227	27420.25
440.433	27326.05
440.64	28323.41
440.847	27973.21
441.054	28653.13
441.261	30832.17
441.467	30142
441.674	31186.47
441.881	31872.54
442.088	31708.7
442.294	31405.6
442.501	32351.76
442.708	32902.67
442.914	34223.61
443.121	35610.08
443.328	34510.32
443.534	37205.45
443.741	35950.04
443.948	35390.95
444.154	38061.5
444.361	38020.54
444.568	38270.39
444.774	37936.57
444.981	38432.18
445.187	39138.73
445.394	41438.6
445.6	40717.71
445.807	44621.14
446.013	42407.29
446.22	43251.05
446.426	44995.92
446.633	45139.28
446.839	46996.79
447.046	44963.15
447.252	47512.87
447.459	47568.17
447.665	47193.39
447.871	49417.49
448.078	50908.41
448.284	48602.39
448.491	50173.19
448.697	51778.79
448.903	52583.65
449.11	53224.66
449.316	52350.18
449.522	52907.22
449.728	54195.4
449.935	54598.85
450.141	54817.98
450.347	55846.06
450.553	53914.83
450.76	54662.33
450.966	56503.46
451.172	56245.41
451.378	57347.22
451.584	56087.72
451.791	57210.01
451.997	56612
452.203	57937.04
452.409	58463.36
452.615	57678.99
452.821	55719.09
453.027	55506.1
453.233	57765.01
453.44	55585.97
453.646	56216.74
453.852	56521.89
454.058	57580.69
454.264	55714.99
454.47	56773.79
454.676	55495.86
454.882	57107.61
455.088	52792.54
455.294	53437.65
455.5	53916.87
455.705	54326.47
455.911	52212.96
456.117	51346.67
456.323	51514.61
456.529	48500
456.735	50496.77
456.941	49065.24
457.147	48237.86
457.352	46669.11
457.558	46314.81
457.764	46363.96
457.97	45798.73
458.176	44694.87
458.381	44168.54
458.587	42374.52
458.793	42685.81
458.999	40363.42
459.204	43224.43
459.41	41956.74
459.616	39359.91
459.821	39292.33
460.027	39151.02
460.233	38286.78
460.438	36611.54
460.644	37004.75
460.85	35560.93
461.055	34770.41
461.261	34518.51
461.466	32210.45
461.672	31079.97
461.878	33299.97
462.083	31034.92
462.289	30817.83
462.494	30277.17
462.7	28726.86
462.905	28120.66
463.111	29165.12
463.316	29410.88
463.522	28708.43
463.727	29124.16
463.932	28806.73
464.138	28026.45
464.343	28503.63
464.549	27694.68
464.754	28790.34
464.959	28368.46
465.165	28159.57
465.37	26580.59
465.575	26336.88
465.781	27096.67
465.986	27573.85
466.191	26488.43
466.397	26160.75
466.602	24743.56
466.807	25845.37
467.012	26060.4
467.218	25577.08
467.423	25089.67
467.628	25099.9
467.833	26351.21
468.038	25308.8
468.244	24905.35
468.449	25255.55
468.654	24694.41
468.859	24546.95
469.064	24532.62
469.269	23484.06
469.474	23527.06
469.679	23957.14
469.885	23516.83
470.09	23811.73
470.295	23842.45
470.5	23127.71
470.705	23355.04
470.91	22785.7
471.115	22580.9
471.32	23377.56
471.525	22888.1
471.73	22013.62
471.935	21939.89
472.139	21391.03
472.344	21472.95
472.549	21249.72
472.754	21329.59
472.959	20672.2
473.164	20229.84
473.369	20172.49
473.574	20692.68
473.778	20547.27
473.983	20178.64
474.188	20481.74
474.393	19193.56
474.598	19420.89
474.802	19224.28
475.007	19007.2
475.212	19478.23
475.417	18663.14
475.621	18560.74
475.826	18546.4
476.031	18239.21
476.235	18001.65
476.44	17989.36
476.645	17499.89
476.849	17960.69
477.054	17534.71
477.259	17303.29
477.463	17522.42
477.668	16748.29
477.872	17098.49
478.077	16770.82
478.282	16449.28
478.486	16359.17
478.691	15959.82
478.895	16228.1
479.1	16127.75
479.304	16240.39
479.509	15480.6
479.713	15957.77
479.918	15572.75
480.122	15447.83
480.326	15664.91
480.531	15531.79
480.735	15521.56
480.94	15288.09
481.144	15965.96
481.348	14888.73
481.553	15208.22
481.757	14982.94
481.961	14933.79
482.166	15531.79
482.37	15234.84
482.574	14622.5
482.778	15009.56
482.983	15533.84
483.187	14948.12
483.391	15146.78
483.595	15116.06
483.8	14984.99
484.004	15077.15
484.208	15134.49
484.412	14960.41
484.616	15038.23
484.821	15163.16
485.025	14786.33
485.229	14995.23
485.433	14657.31
485.637	15093.53
485.841	14812.96
486.045	14964.51
486.249	14962.46
486.453	14659.36
486.657	14831.39
486.861	15177.5
487.065	14442.28
487.269	15073.05
487.473	14880.54
487.677	14987.04
487.881	15167.26
488.085	15085.34
488.289	15023.9
488.493	14794.53
488.697	15054.62
488.901	14913.31
489.105	14909.21
489.309	15001.37
489.512	15163.16
489.716	15025.95
489.92	15152.92
490.124	15189.78
490.328	15314.71
490.531	15343.38
490.735	15300.37
490.939	15603.47
491.143	15404.82
491.346	15386.39
491.55	15370.01
491.754	15341.33
491.958	15621.91
492.161	15458.07
492.365	15607.57
492.569	15470.36
492.772	15845.13
492.976	15992.59
493.18	15904.53
493.383	16041.74
493.587	15935.24
493.79	16322.31
493.994	16101.13
494.197	16140.04
494.401	16348.93
494.605	16543.49
494.808	16793.34
495.012	16752.38
495.215	16930.56
495.419	17082.11
495.622	16901.89
495.825	17057.53
496.029	17014.52
496.232	17501.94
496.436	17641.2
496.639	17917.68
496.843	17891.06
497.046	18310.89
497.249	18345.7
497.453	18202.35
497.656	18556.64
497.859	18677.47
498.063	18542.31
498.266	18829.02
498.469	18908.9
498.673	19384.02
498.876	19726.03
499.079	19801.81
499.282	19758.8
499.485	20330.19
499.689	20170.44
499.892	20516.55
500.095	20502.22
500.298	21329.59
500.501	21143.23
500.705	21542.58
500.908	21831.35
501.111	21943.99
501.314	22058.67
501.517	22302.38
501.72	22421.16
501.923	22492.84
502.126	23226.01
502.329	23297.69
502.532	23070.37
502.735	23559.83
502.938	23989.91
503.141	24043.15
503.344	24655.5
503.547	24426.12
503.75	25169.54
503.953	25032.32
504.156	25314.94
504.359	25513.59
504.562	25783.93
504.765	25986.68
504.968	26805.86
505.17	26816.1
505.373	26836.58
505.576	27188.83
505.779	27713.11
505.982	27500.12
506.185	28470.86
506.387	28577.36
506.59	28479.05
506.793	28894.79
506.996	29171.27
507.198	29941.3
507.401	29546.05
507.604	30082.61
507.807	30305.84
508.009	30412.34
508.212	30803.5
508.415	31415.84
508.617	31809.05
508.82	31587.87
509.022	31442.46
509.225	32552.46
509.428	32681.49
509.63	32818.7
509.833	33011.21
510.035	33515.01
510.238	33709.57
510.44	34035.19
510.643	34633.2
510.845	34780.65
511.048	34792.94
511.25	35331.56
511.453	35417.57
511.655	36423.12
511.858	36488.66
512.06	36670.93
512.262	36945.36
512.465	37211.59
512.667	37596.61
512.87	37868.99
513.072	37891.52
513.274	38636.98
513.477	38923.69
513.679	39290.28
513.881	39429.54
514.084	39814.56
514.286	39839.14
514.488	40160.67
514.69	41082.25
514.893	41182.6
515.095	41450.89
515.297	41614.72
515.499	42042.75
515.701	42390.91
515.904	42739.06
516.106	42927.47
516.308	43349.35
516.51	43881.83
516.712	43564.39
516.914	44221.79
517.116	44864.85
517.318	45008.21
517.52	45421.9
517.722	45280.59
517.925	45937.99
518.127	46220.61
518.329	46667.06
518.531	46394.68
518.733	47351.09
518.935	47727.91
519.136	47605.03
519.338	48391.45
519.54	48592.15
519.742	48733.46
519.944	48878.87
520.146	49892.61
520.348	49259.79
520.55	49491.21
520.752	49841.42
520.954	50611.45
521.155	50230.53
521.357	51039.48
521.559	51467.5
521.761	51838.18
521.963	51631.34
522.164	51543.28
522.366	51655.92
522.568	52409.57
522.77	52376.8
522.971	53538
523.173	52679.9
523.375	53325.01
523.576	53089.49
523.778	53267.67
523.98	53920.97
524.181	53925.07
524.383	53927.11
524.584	54338.75
524.786	54555.84
524.988	54596.8
525.189	54826.17
525.391	55164.09
525.592	55178.42
525.794	55508.14
525.995	55327.92
526.197	55760.05
526.398	55637.17
526.6	56153.26
526.801	55987.37
527.003	56415.4
527.204	55839.92
527.406	56743.07
527.607	56339.62
527.808	56732.83
528.01	55796.91
528.211	56675.49
528.412	57441.43
528.614	56724.64
528.815	56536.23
529.016	57320.6
529.218	56851.61
529.419	57076.89
529.62	56898.72
529.822	56972.44
530.023	56997.02
530.224	56911
530.425	56947.87
530.626	56538.27
530.828	56790.17
531.029	57216.15
531.23	56835.23
531.431	57183.38
531.632	57173.14
531.833	57216.15
532.035	56868
532.236	56771.74
532.437	57420.95
532.638	56683.68
532.839	57554.07
533.04	57105.56
533.241	56751.26
533.442	57711.76
533.643	57261.21
533.844	56816.8
534.045	57234.58
534.246	56423.59
534.447	57664.66
534.648	56929.44
534.849	57216.15
535.05	56552.61
535.251	56816.8
535.451	56399.01
535.652	56878.24
535.853	57123.99
536.054	56904.86
536.255	57341.08
536.456	56468.64
536.657	57496.72
536.857	56525.99
537.058	56482.98
537.259	56878.24
537.46	56906.91
537.66	56435.87
537.861	56800.41
538.062	56548.51
538.263	56485.03
538.463	56169.64
538.664	56347.81
538.865	56448.16
539.065	56667.3
539.266	56026.28
539.466	57126.04
539.667	55950.51
539.868	56421.54
540.068	56353.96
540.269	56011.95
540.469	56243.37
540.67	56120.49
540.87	56276.13
541.071	56118.44
541.271	56265.89
541.472	56267.94
541.672	56095.91
541.873	55868.59
542.073	55438.51
542.274	56118.44
542.474	55874.73
542.675	55870.64
542.875	56276.13
543.075	55938.22
543.276	55061.69
543.476	56558.75
543.676	55301.3
543.877	56282.28
544.077	55927.98
544.277	55794.86
544.478	55956.65
544.678	56011.95
544.878	55833.77
545.078	55997.61
545.279	55176.37
545.479	55747.76
545.679	55608.5
545.879	55518.38
546.079	55717.04
546.28	55626.93
546.48	55481.52
546.68	55899.31
546.88	55758
547.08	55547.06
547.28	55502
547.48	55436.47
547.68	55571.63
547.88	55252.15
548.081	55825.58
548.281	55289.01
548.481	54914.23
548.681	55979.18
548.881	55268.53
549.081	55792.81
549.28	55346.36
549.48	55758
549.68	55348.4
549.88	56259.75
550.08	55563.44
550.28	55841.96
550.48	55350.45
550.68	55692.46
550.88	55149.75
551.08	55530.67
551.279	55760.05
551.479	55325.88
551.679	55536.82
551.879	55471.28
552.079	55671.98
552.278	55809.2
552.478	55979.18
552.678	55495.86
552.878	56376.48
553.077	55676.08
553.277	55225.53
553.477	56497.31
553.676	55768.24
553.876	55927.98
554.076	55649.45
554.275	55561.39
554.475	55071.93
554.674	55801
554.874	55604.4
555.074	55764.14
555.273	55973.03
555.473	55325.88
555.672	55276.72
555.872	55717.04
556.071	55778.48
556.271	55766.19
556.47	55686.32
556.67	55268.53
556.869	55973.03
557.068	55923.88
557.268	55506.1
557.467	55250.1
557.667	55479.47
557.866	55149.75
558.065	55448.75
558.265	55399.6
558.464	55159.99
558.663	55620.78
558.863	55444.66
559.062	56003.75
559.261	55297.2
559.461	55956.65
559.66	55405.75
559.859	55530.67
560.058	55452.85
560.258	55608.5
560.457	54424.77
560.656	55651.5
560.855	55260.34
561.054	55700.65
561.253	55080.12
561.453	55590.06
561.652	55258.29
561.851	55596.21
562.05	55233.72
562.249	54719.68
562.448	55454.9
562.647	55121.08
562.846	55127.22
563.045	54957.24
563.244	54459.58
563.443	55575.73
563.642	54521.02
563.841	54897.85
564.04	54820.03
564.239	55139.51
564.438	54482.11
564.637	54805.69
564.836	54940.86
565.035	54095.05
565.234	54809.79
565.432	54209.73
565.631	54551.74
565.83	54457.54
566.029	54416.58
566.228	54271.17
566.427	54228.16
566.625	54140.1
566.824	54039.75
567.023	54099.14
567.222	53437.65
567.42	54525.12
567.619	54121.67
567.818	53607.63
568.016	53392.59
568.215	53970.12
568.414	53327.06
568.612	54113.48
568.811	53341.39
569.01	53968.07
569.208	52913.37
569.407	53556.43
569.605	53165.27
569.804	53818.57
570.002	53079.25
570.201	52950.23
570.4	52876.51
570.598	52589.79
570.797	52622.56
570.995	52597.98
571.193	52778.2
571.392	52980.95
571.59	52415.71
571.789	52417.76
571.987	52081.89
572.186	52047.08
572.384	51860.71
572.582	52012.26
572.781	52534.49
572.979	51574
573.177	51954.92
573.376	52212.96
573.574	51625.2
573.772	51918.06
573.971	51127.54
574.169	51205.36
574.367	50812.15
574.565	51836.14
574.763	50975.99
574.962	51143.92
575.16	50476.29
575.358	51000.57
575.556	50386.18
575.754	51260.66
575.952	50126.08
576.151	50785.53
576.349	50191.62
576.547	49952.01
576.745	50423.04
576.943	49894.66
577.141	49960.2
577.339	50498.81
577.537	49687.82
577.735	49648.91
577.933	48973.08
578.131	49669.39
578.329	49220.88
578.527	48600.35
578.725	49308.94
578.923	49173.78
579.121	49171.73
579.319	48852.25
579.516	48928.02
579.714	48622.87
579.912	48434.46
580.11	48354.59
580.308	48483.61
580.506	48315.68
580.704	47838.5
580.901	48205.09
581.099	48274.72
581.297	47648.04
581.495	47672.62
581.692	48336.16
581.89	47553.83
582.088	47805.73
582.285	47273.26
582.483	47707.43
582.681	47189.3
582.878	46951.73
583.076	47125.81
583.274	46910.77
583.471	46593.34
583.669	46384.44
583.866	46617.91
584.064	47195.44
584.262	45751.62
584.459	46714.17
584.657	45843.78
584.854	46089.54
585.052	45868.36
585.249	46243.13
585.447	46017.86
585.644	45477.19
585.841	45346.12
586.039	46150.98
586.236	45159.76
586.434	45198.67
586.631	45157.71
586.828	45495.63
587.026	44866.9
587.223	45184.33
587.42	44983.63
587.618	44868.95
587.815	44670.29
588.012	44592.47
588.21	44578.14
588.407	44977.49
588.604	44035.42
588.801	44023.14
588.999	44189.02
589.196	44277.08
589.393	43984.22
589.59	43984.22
589.787	43791.72
589.984	43767.14
590.182	43353.45
590.379	43568.49
590.576	43421.03
590.773	43306.35
590.97	43357.55
591.167	43029.87
591.364	43070.83
591.561	43218.28
591.758	42630.52
591.955	42259.84
592.152	43062.64
592.349	42405.24
592.546	42571.13
592.743	42567.03
592.94	41868.67
593.137	42456.44
593.334	42540.41
593.531	41645.44
593.727	41823.62
593.924	41645.44
594.121	41577.86
594.318	41938.3
594.515	41500.04
594.712	41536.9
594.908	41414.02
595.105	42003.84
595.302	41043.34
595.499	41227.66
595.696	41522.57
595.892	41172.36
596.089	41528.71
596.286	40809.87
596.482	41151.88
596.679	40940.94
596.876	41067.92
597.072	40549.78
597.269	40521.11
597.466	40547.73
597.662	40193.43
597.859	40785.3
598.055	40002.97
598.252	40129.95
598.448	40209.82
598.645	39943.58
598.841	39714.21
599.038	40211.87
599.234	40072.6
599.431	39894.43
599.627	39519.65
599.824	39663.01
600.02	39720.35
600.217	39820.7
600.413	39611.81
600.609	39132.59
600.806	39318.95
601.002	39484.84
601.198	39280.04
601.395	39036.33
601.591	39142.83
601.787	39019.95
601.984	38966.7
602.18	39384.49
602.376	39128.49
602.572	39026.09
602.769	39091.63
602.965	39091.63
603.161	39034.28
603.357	38532.53
603.553	38649.27
603.75	38725.04
603.946	38237.62
604.142	38462.9
604.338	38430.13
604.534	38493.62
604.73	38329.78
604.926	38161.85
605.122	38956.46
605.318	38417.85
605.514	38075.83
605.71	38344.12
605.906	37987.77
606.102	37963.2
606.298	38221.24
606.494	38540.72
606.69	38237.62
606.886	38376.89
607.082	37768.64
607.278	37918.14
607.474	37467.59
607.67	38073.79
607.866	37516.74
608.062	38182.33
608.257	37934.53
608.453	37983.68
608.649	37944.76
608.845	37291.46
609.041	37852.61
609.236	37854.65
609.432	37643.71
609.628	37686.72
609.824	37881.28
610.019	37643.71
610.215	37623.23
610.411	37813.69
610.606	37252.55
610.802	37475.78
610.998	37727.68
611.193	37785.02
611.389	37660.1
611.584	37309.89
611.78	37324.23
611.976	37701.06
612.171	37334.47
612.367	37201.35
612.562	37055.95
612.758	37131.72
612.953	37039.56
613.149	37434.82
613.344	36738.51
613.539	37633.47
613.735	37354.95
613.93	37180.87
614.126	36883.92
614.321	37369.29
614.517	37520.84
614.712	37096.91
614.907	36894.16
615.103	37379.53
615.298	37107.15
615.493	37201.35
615.688	36638.16
615.884	37330.37
616.079	36797.9
616.274	37023.18
616.47	36926.92
616.665	36996.56
616.86	36273.62
617.055	36722.13
617.25	36670.93
617.445	37006.8
617.641	36353.49
617.836	36625.87
618.031	36214.23
618.226	36728.27
618.421	36034.01
618.616	36398.55
618.811	36111.83
619.006	36515.28
619.201	35204.58
619.396	36019.67
619.591	35399.14
619.786	36101.59
619.981	35114.47
620.176	35665.38
620.371	35253.73
620.566	35298.79
620.761	35075.56
620.956	34917.87
621.151	34625.01
621.346	35034.6
621.541	34199.03
621.735	34686.45
621.93	33949.18
622.125	34098.68
622.32	33879.55
622.515	33703.42
622.709	33508.86
622.904	33867.26
623.099	33306.12
623.294	33756.67
623.488	33039.88
623.683	32966.15
623.878	32861.71
624.072	32763.4
624.267	32851.47
624.462	32562.7
624.656	32359.95
624.851	32323.09
625.046	32032.28
625.24	32235.03
625.435	31446.56
625.629	31485.47
625.824	31196.71
626.018	31381.03
626.213	30582.32
626.407	31018.53
626.602	30348.85
626.796	30672.43
626.991	30479.92
627.185	30545.45
627.38	30060.09
627.574	30053.94
627.768	29953.59
627.963	29666.88
628.157	29158.98
628.352	29689.4
628.546	29390.4
628.74	29453.89
628.935	28894.79
629.129	28878.41
629.323	28501.58
629.517	28370.51
629.712	28413.52
629.906	28634.7
630.1	27727.45
630.294	27969.11
630.489	27889.24
630.683	27827.8
630.877	27655.77
631.071	27223.65
631.265	27528.8
631.459	27149.92
631.653	27160.16
631.848	26793.58
632.042	26687.08
632.236	26797.67
632.43	26529.39
632.624	26807.91
632.818	26244.72
633.012	26111.6
633.206	25747.06
633.4	26054.26
633.594	25534.07
633.788	25636.47
633.982	25675.38
634.176	25720.44
634.369	25149.06
634.563	25093.76
634.757	25085.57
634.951	24733.32
635.145	24831.62
635.339	24985.22
635.533	24403.6
635.726	24487.56
635.92	24313.49
636.114	24211.09
636.308	23910.04
636.501	23901.84
636.695	23846.55
636.889	23570.07
637.083	23289.5
637.276	23596.7
637.47	23287.45
637.664	23213.73
637.857	23285.4
638.051	23152.29
638.244	23008.93
638.438	22517.42
638.632	22582.95
638.825	22412.97
639.019	22636.2
639.212	22437.55
639.406	22412.97
639.599	21929.65
639.793	21790.39
639.986	21612.21
640.18	21720.76
640.373	21644.98
640.567	21415.61
640.76	21204.67
640.954	21016.26
641.147	21063.36
641.34	20762.31
641.534	20944.58
641.727	20768.45
641.92	20803.27
642.114	20491.98
642.307	20561.61
642.5	20332.23
642.694	20084.43
642.887	20012.75
643.08	20094.67
643.273	20100.81
643.467	19963.6
643.66	19650.26
643.853	19238.62
644.046	19146.46
644.239	19285.72
644.432	19179.23
644.626	19017.44
644.819	18857.7
645.012	18984.67
645.205	18984.67
645.398	19033.82
645.591	18726.63
645.784	18757.35
645.977	18448.1
646.17	18570.98
646.363	18239.21
646.556	17905.39
646.749	18093.8
646.942	18249.45
647.135	17979.12
647.328	17846
647.521	17616.63
647.714	17424.12
647.907	17712.88
648.099	17282.81
648.292	17329.91
648.485	17360.63
648.678	16883.45
648.871	16867.07
649.064	16744.19
649.256	17039.1
649.449	16742.14
649.642	16783.1
649.835	16383.75
650.027	16709.38
650.22	16195.34
650.413	16166.67
650.605	16322.31
650.798	16144.14
650.991	15925.01
651.183	16006.92
651.376	15712.02
651.568	15935.24
651.761	15617.81
651.954	15800.08
652.146	15564.56
652.339	15441.68
652.531	15468.31
652.724	15224.6
652.916	14704.42
653.109	15042.33
653.301	15181.59
653.494	15056.67
653.686	14716.7
653.879	15030.04
654.071	14671.65
654.263	14577.44
654.456	14688.03
654.648	14679.84
654.84	14358.31
655.033	14061.35
655.225	14489.38
655.417	14022.44
655.61	14219.05
655.802	14087.98
655.994	14016.3
656.186	14034.73
656.379	13936.43
656.571	13934.38
656.763	13682.48
656.955	13451.06
657.148	13668.14
657.34	13602.61
657.532	13545.27
657.724	13430.58
657.916	13479.73
658.108	13141.82
658.3	13109.05
658.492	13104.95
658.684	12971.83
658.876	12848.96
659.068	12879.68
659.26	12928.83
659.452	12814.14
659.644	12762.94
659.836	12484.42
660.028	12826.43
660.22	12416.83
660.412	12617.54
660.604	12461.89
660.796	12535.62
660.988	12248.9
661.18	12177.22
661.372	12027.72
661.563	11956.04
661.755	12099.4
661.947	11886.41
662.139	12035.91
662.331	11648.85
662.522	11587.41
662.714	11611.98
662.906	11597.65
663.097	11558.74
663.289	11374.42
663.481	11259.73
663.673	11300.69
663.864	11315.03
664.056	11468.62
664.247	11077.46
664.439	10911.58
664.631	11081.56
664.822	10887
665.014	10921.82
665.205	10880.86
665.397	10827.61
665.588	10870.62
665.78	10805.08
665.971	10733.4
666.163	10626.91
666.354	10497.89
666.546	10512.22
666.737	10397.54
666.929	10399.59
667.12	10368.87
667.311	10223.46
667.503	10143.59
667.694	10096.49
667.885	10084.2
668.077	10293.09
668.268	10112.87
668.459	10000.23
668.651	9969.51
668.842	9807.72
669.033	9822.06
669.224	9813.87
669.416	9695.08
669.607	9836.39
669.798	9596.78
669.989	9564.01
670.18	9590.64
670.371	9400.18
670.563	9576.3
670.754	9525.1
670.945	9389.94
671.136	9316.21
671.327	9363.31
671.518	9314.16
671.709	9193.33
671.9	9058.17
672.091	9045.88
672.282	9074.55
672.473	8920.95
672.664	9078.65
672.855	8798.07
673.046	8888.18
673.237	8888.18
673.428	8798.07
673.619	8699.77
673.809	8816.51
674	8714.11
674.191	8712.06
674.382	8699.77
674.573	8804.22
674.764	8601.47
674.954	8724.35
675.145	8384.38
675.336	8445.82
675.527	8546.17
675.717	8497.02
675.908	8470.4
676.099	8241.03
676.289	8486.78
676.48	8300.42
676.671	8218.5
676.861	8345.47
677.052	8183.68
677.243	8277.89
677.433	8255.36
677.624	8169.35
677.814	8030.09
678.005	8245.12
678.195	8161.16
678.386	8224.64
678.576	7786.38
678.767	7767.95
678.957	7919.5
679.148	8044.42
679.338	8085.38
679.529	7643.02
679.719	7724.94
679.909	7968.65
680.1	7673.74
680.29	7698.31
680.481	7663.5
680.671	7737.23
680.861	7724.94
681.052	7776.14
681.242	7579.53
681.432	7751.56
681.622	7686.03
681.813	7647.12
682.003	7434.13
682.193	7544.72
682.383	7477.13
682.573	7530.38
682.764	7411.6
682.954	7446.41
683.144	7501.71
683.334	7505.81
683.524	7389.07
683.714	7315.34
683.904	7262.1
684.094	7376.78
684.284	7143.32
684.474	7348.11
684.664	7434.13
684.854	7212.95
685.044	7184.27
685.234	7040.92
685.424	7137.17
685.614	7090.07
685.804	7161.75
685.994	7145.36
686.184	7096.21
686.374	6954.9
686.564	6924.18
686.753	6979.48
686.943	6719.39
687.133	6827.93
687.323	6905.75
687.513	6854.55
687.702	6760.34
687.892	6610.84
688.082	6870.94
688.272	6725.53
688.461	6766.49
688.651	6631.32
688.841	6631.32
689.03	6569.88
689.22	6602.65
689.41	6604.7
689.599	6610.84
689.789	6317.98
689.979	6592.41
690.168	6506.4
690.358	6500.25
690.547	6373.28
690.737	6406.05
690.926	6479.77
691.116	6451.1
691.305	6301.6
691.495	6127.52
691.684	6137.76
691.874	6231.97
692.063	6260.64
692.252	6070.18
692.442	6141.86
692.631	6086.56
692.82	6209.44
693.01	5851.05
693.199	6014.88
693.388	5885.86
693.578	5932.97
693.767	5791.66
693.956	5959.59
694.146	5949.35
694.335	5912.49
694.524	5982.12
694.713	6053.8
694.902	5822.38
695.092	5824.42
695.281	5801.9
695.47	5812.14
695.659	5687.21
695.848	5593
696.037	5726.12
696.226	5762.98
696.415	5664.68
696.604	5644.2
696.793	5513.13
696.982	5574.57
697.171	5515.18
697.36	5515.18
697.549	5668.78
697.738	5427.12
697.927	5568.43
698.116	5474.22
698.305	5300.14
698.494	5498.8
698.683	5455.79
698.872	5406.64
699.061	5267.38
699.25	5259.18
699.438	5291.95
699.627	5347.25
699.816	5195.7
700.005	5246.9
700.193	5162.93
700.382	5193.65
700.571	5152.69
700.76	5195.7
700.948	5111.73
701.137	4980.66
701.326	5101.49
701.514	4988.85
701.703	5015.48
701.892	4984.76
702.08	5097.39
702.269	5099.44
702.457	5003.19
702.646	4978.61
702.834	4982.71
703.023	4906.93
703.212	4911.03
703.4	4925.36
703.589	4792.25
703.777	4911.03
703.965	4788.15
704.154	4882.36
704.342	4786.1
704.531	4804.53
704.719	4786.1
704.907	4804.53
705.096	4722.62
705.284	4605.88
705.472	4667.32
705.661	4605.88
705.849	4804.53
706.037	4630.46
706.226	4466.62
706.414	4679.61
706.602	4415.42
706.79	4829.11
706.979	4468.67
707.167	4440
707.355	4497.34
707.543	4620.22
707.731	4575.16
707.919	4437.95
708.107	4456.38
708.296	4376.51
708.484	4333.5
708.672	4339.65
708.86	4325.31
709.048	4243.39
709.236	4290.49
709.424	4323.26
709.612	4284.35
709.8	4145.09
709.988	4116.42
710.176	4239.3
710.364	4181.95
710.551	4140.99
710.739	4140.99
710.927	4005.83
711.115	4087.75
711.303	4167.62
711.491	3944.39
711.679	4065.22
711.866	4155.33
712.054	3878.85
712.242	3977.16
712.43	4091.84
712.617	4014.02
712.805	3907.52
712.993	3887.04
713.181	3827.65
713.368	3882.95
713.556	3852.23
713.744	3737.54
713.931	3942.34
714.119	3807.17
714.306	3762.12
714.494	3833.8
714.682	3659.72
714.869	3817.41
715.057	3618.76
715.244	3698.63
715.432	3706.82
715.619	3715.02
715.807	3731.4
715.994	3655.62
716.182	3674.06
716.369	3739.59
716.556	3641.29
716.744	3620.81
716.931	3573.71
717.119	3608.52
717.306	3614.66
717.493	3491.79
717.681	3497.93
717.868	3534.79
718.055	3616.71
718.242	3475.4
718.43	3506.12
718.617	3473.36
718.804	3524.55
718.991	3471.31
719.179	3493.83
719.366	3452.88
719.553	3432.4
719.74	3366.86
719.927	3528.65
720.114	3243.98
720.301	3424.2
720.488	3391.44
720.676	3293.13
720.863	3338.19
721.05	3286.99
721.237	3237.84
721.424	3309.52
721.611	3313.61
721.798	3180.5
721.985	3227.6
722.172	3129.3
722.358	3205.07
722.545	3215.31
722.732	3153.87
722.919	3151.82
723.106	3131.34
723.293	3104.72
723.48	3035.09
723.667	3121.1
723.853	3082.19
724.04	3084.24
724.227	3096.53
724.414	3022.8
724.6	2899.92
724.787	3082.19
724.974	2990.03
725.161	2901.97
725.347	2953.17
725.534	2987.99
725.72	3028.95
725.907	2959.31
726.094	2893.78
726.28	2973.65
726.467	2928.6
726.653	2727.89
726.84	2916.31
727.027	2867.16
727.213	2879.44
727.4	2787.29
727.586	2822.1
727.773	2811.86
727.959	2914.26
728.145	2797.53
728.332	2793.43
728.518	2770.9
728.705	2697.17
728.891	2764.76
729.077	2629.59
729.264	2721.75
729.45	2760.66
729.636	2787.29
729.823	2678.74
730.009	2658.26
730.195	2756.57
730.382	2666.46
730.568	2791.38
730.754	2813.91
730.94	2674.65
731.126	2750.42
731.313	2752.47
731.499	2658.26
731.685	2645.98
731.871	2531.29
732.057	2648.02
732.243	2555.86
732.429	2654.17
732.615	2535.39
732.801	2695.13
732.987	2639.83
733.173	2602.97
733.359	2461.66
733.545	2557.91
733.731	2525.15
733.917	2631.64
734.103	2531.29
734.289	2467.8
734.475	2453.47
734.661	2486.23
734.847	2465.75
735.033	2465.75
735.219	2459.61
735.404	2527.19
735.59	2387.93
735.776	2490.33
735.962	2412.51
736.148	2379.74
736.333	2422.75
736.519	2346.97
736.705	2490.33
736.89	2318.3
737.076	2467.8
737.262	2263.01
737.447	2291.68
737.633	2244.57
737.819	2258.91
738.004	2142.18
738.19	2246.62
738.375	2353.12
738.561	2287.58
738.747	2334.68
738.932	2342.88
739.118	2322.4
739.303	2306.01
739.489	2146.27
739.674	2189.28
739.859	2205.66
740.045	2179.04
740.23	2236.38
740.416	2078.69
740.601	2170.85
740.786	2152.42
740.972	2113.5
741.157	2160.61
741.342	2074.59
741.528	2093.02
741.713	2097.12
741.898	2152.42
742.084	2023.39
742.269	2062.3
742.454	2060.26
742.639	2058.21
742.824	2105.31
743.01	2056.16
743.195	2105.31
743.38	2054.11
743.565	2041.82
743.75	2060.26
743.935	2058.21
744.12	2043.87
744.305	1935.33
744.49	2035.68
744.675	1968.1
744.86	1933.28
745.045	2009.06
745.23	1914.85
745.415	1869.8
745.6	1898.47
745.785	1802.21
745.97	1923.04
746.155	1875.94
746.34	1961.95
746.525	1837.03
746.71	1869.8
746.895	1875.94
747.079	1798.12
747.264	1712.1
747.449	1896.42
747.634	1794.02
747.819	1724.39
748.003	1703.91
748.188	1654.76
748.373	1613.8
748.557	1687.53
748.742	1654.76
748.927	1712.1
749.111	1654.76
749.296	1615.85
749.481	1650.66
749.665	1505.26
749.85	1640.42
750.034	1679.33
750.219	1621.99
750.404	1662.95
750.588	1597.42
750.773	1521.64
750.957	1607.66
751.141	1554.41
751.326	1585.13
751.51	1466.35
751.695	1480.68
751.879	1519.59
752.064	1599.46
752.248	1642.47
752.432	1591.27
752.617	1505.26
752.801	1472.49
752.985	1460.2
753.17	1482.73
753.354	1468.39
753.538	1376.23
753.722	1378.28
753.907	1411.05
754.091	1376.23
754.275	1409
754.459	1322.99
754.643	1286.12
754.828	1322.99
755.012	1327.08
755.196	1339.37
755.38	1329.13
755.564	1380.33
755.748	1279.98
755.932	1316.84
756.116	1308.65
756.3	1388.52
756.484	1228.78
756.668	1247.21
756.852	1277.93
757.036	1339.37
757.22	1302.51
757.404	1173.49
757.588	1267.69
757.772	1220.59
757.956	1175.53
758.14	1261.55
758.323	1220.59
758.507	1224.69
758.691	1171.44
758.875	1122.29
759.059	1208.3
759.242	1114.1
759.426	1073.14
759.61	1200.11
759.794	1126.38
759.977	1099.76
760.161	1187.82
760.345	1196.01
760.528	1101.81
760.712	1220.59
760.895	1140.72
761.079	1122.29
761.263	1075.18
761.446	1075.18
761.63	1089.52
761.813	1050.61
761.997	1023.98
762.18	950.26
762.364	1175.53
762.547	1007.6
762.731	1081.33
762.914	1099.76
763.098	1036.27
763.281	1040.37
763.464	991.22
763.648	983.02
763.831	1075.18
764.015	1028.08
764.198	983.02
764.381	1013.74
764.564	1032.18
764.748	968.69
764.931	944.11
765.114	1036.27
765.297	1042.42
765.481	933.87
765.664	1050.61
765.847	1028.08
766.03	985.07
766.213	925.68
766.397	1003.5
766.58	925.68
766.763	1085.42
766.946	970.74
767.129	1036.27
767.312	972.79
767.495	946.16
767.678	1034.22
767.861	1007.6
768.044	911.35
768.227	989.17
768.41	987.12
768.593	946.16
768.776	878.58
768.959	921.59
769.142	960.5
769.324	978.93
769.507	901.11
769.69	892.91
769.873	819.19
770.056	911.35
770.239	880.63
770.421	970.74
770.604	909.3
770.787	841.72
770.97	864.24
771.152	774.13
771.335	897.01
771.518	851.96
771.7	886.77
771.883	903.15
772.066	933.87
772.248	767.99
772.431	892.91
772.613	901.11
772.796	806.9
772.978	786.42
773.161	851.96
773.343	733.17
773.526	733.17
773.708	831.48
773.891	829.43
774.073	862.19
774.256	833.52
774.438	894.96
774.621	745.46
774.803	770.04
774.985	802.8
775.168	753.65
775.35	694.26
775.532	808.95
775.715	743.41
775.897	767.99
776.079	712.69
776.261	778.23
776.444	720.88
776.626	679.93
776.808	718.84
776.99	614.39
777.173	692.21
777.355	698.36
777.537	698.36
777.719	655.35
777.901	632.82
778.083	712.69
778.265	694.26
778.447	692.21
778.629	624.63
778.811	636.92
778.993	655.35
779.175	698.36
779.357	684.02
779.539	575.48
779.721	663.54
779.903	733.17
780.085	704.5
780.267	647.16
780.449	630.77
780.631	755.7
780.812	606.2
780.994	622.58
781.176	571.38
781.358	561.14
781.54	581.62
781.721	608.25
781.903	655.35
782.085	552.95
782.267	706.55
782.448	524.28
782.63	561.14
782.812	483.32
782.993	600.05
783.175	550.9
783.357	614.39
783.538	616.44
783.72	550.9
783.901	595.96
784.083	481.27
784.264	524.28
784.446	524.28
784.627	485.37
784.809	532.47
784.99	450.55
785.172	540.66
785.353	487.42
785.535	526.33
785.716	403.45
785.897	561.14
786.079	411.64
786.26	446.46
786.441	477.18
786.623	428.03
786.804	452.6
786.985	516.09
787.167	481.27
787.348	479.22
787.529	417.79
787.71	536.57
787.891	491.51
788.073	468.98
788.254	378.87
788.435	448.51
788.616	450.55
788.797	389.11
788.978	364.54
789.159	403.45
789.34	475.13
789.522	434.17
789.703	376.83
789.884	471.03
790.065	311.29
790.246	409.59
790.427	409.59
790.607	483.32
790.788	401.4
790.969	360.44
791.15	395.26
791.331	393.21
791.512	348.15
791.693	370.68
791.874	393.21
792.054	385.02
792.235	385.02
792.416	452.6
792.597	356.35
792.778	344.06
792.958	364.54
793.139	344.06
793.32	311.29
793.5	346.11
793.681	352.25
793.862	292.86
794.042	395.26
794.223	280.57
794.404	329.72
794.584	286.72
794.765	364.54
794.945	360.44
795.126	385.02
795.306	321.53
795.487	290.81
795.667	329.72
795.848	282.62
796.028	395.26
796.209	258.04
796.389	303.1
796.57	319.48
796.75	274.43
796.93	335.87
797.111	198.65
797.291	294.91
797.471	264.19
797.652	270.33
797.832	286.72
798.012	258.04
798.192	262.14
798.373	223.23
798.553	262.14
798.733	237.56
798.913	196.61
799.093	260.09
799.274	245.76
799.454	262.14
799.634	270.33
799.814	256
799.994	208.89
800.174	270.33
800.354	233.47
800.534	313.34
800.714	342.01
800.894	229.37
801.074	208.89
801.254	206.84
801.434	245.76
801.614	194.56
801.794	268.28
801.974	974.83
802.154	258.04
802.334	262.14
802.514	161.79
802.693	258.04
802.873	215.04
803.053	309.24
803.233	354.3
803.413	262.14
803.592	231.42
803.772	198.65
803.952	196.61
804.131	157.69
804.311	223.23
804.491	204.8
804.67	227.32
804.85	294.91
805.03	262.14
805.209	303.1
805.389	92.16
805.568	139.26
805.748	184.32
805.928	212.99
806.107	256
806.287	262.14
806.466	229.37
806.646	151.55
806.825	258.04
807.004	247.8
807.184	143.36
807.363	221.18
807.543	155.65
807.722	182.27
807.901	215.04
808.081	241.66
808.26	157.69
808.439	157.69
808.619	159.74
808.798	165.89
808.977	272.38
809.156	231.42
809.336	247.8
809.515	288.76
809.694	165.89
809.873	176.13
810.052	274.43
810.231	256
810.411	206.84
810.59	188.41
810.769	155.65
810.948	215.04
811.127	108.54
811.306	108.54
811.485	90.11
811.664	237.56
811.843	180.22
812.022	239.61
812.201	126.97
812.38	217.08
812.559	206.84
812.737	172.03
812.916	167.93
813.095	126.97
813.274	135.17
813.453	133.12
813.632	245.76
813.811	225.28
813.989	174.08
814.168	196.61
814.347	198.65
814.526	83.97
814.704	182.27
814.883	188.41
815.062	153.6
815.24	141.31
815.419	133.12
815.598	192.51
815.776	155.65
815.955	157.69
816.133	57.34
816.312	137.21
816.49	112.64
816.669	139.26
816.847	178.17
817.026	208.89
817.204	129.02
817.383	176.13
817.561	143.36
817.74	149.5
817.918	120.83
818.097	147.45
818.275	126.97
818.453	163.84
818.632	131.07
818.81	172.03
818.988	106.49
819.167	151.55
819.345	120.83
819.523	106.49
819.701	122.88
819.879	155.65
820.058	12.29
820.236	180.22
820.414	159.74
820.592	59.39
820.77	182.27
820.948	147.45
821.127	106.49
821.305	73.73
821.483	32.77
821.661	114.69
821.839	163.84
822.017	0
822.195	116.73
822.373	81.92
822.551	59.39
822.729	180.22
822.907	83.97
823.085	167.93
823.262	67.58
823.44	172.03
823.618	49.15
823.796	92.16
823.974	96.25
824.152	81.92
824.329	75.77
824.507	49.15
824.685	135.17
824.863	83.97
825.04	116.73
825.218	116.73
825.396	81.92
825.574	143.36
825.751	186.37
825.929	122.88
826.107	98.3
826.284	139.26
826.462	151.55
826.639	122.88
826.817	32.77
826.994	114.69
827.172	16.38
827.349	133.12
827.527	110.59
827.704	79.87
827.882	104.45
828.059	65.54
828.237	112.64
828.414	137.21
828.591	83.97
828.769	92.16
828.946	73.73
829.124	88.06
829.301	83.97
829.478	133.12
829.655	92.16
829.833	26.62
830.01	43.01
830.187	108.54
830.364	141.31
830.542	81.92
830.719	116.73
830.896	139.26
831.073	106.49
831.25	106.49
831.427	124.93
831.604	151.55
831.782	24.58
831.959	188.41
832.136	98.3
832.313	38.91
832.49	139.26
832.667	90.11
832.844	88.06
833.021	49.15
833.198	55.3
833.374	49.15
833.551	133.12
833.728	133.12
833.905	102.4
834.082	61.44
834.259	90.11
834.436	106.49
834.612	49.15
834.789	65.54
834.966	184.32
835.143	102.4
835.319	65.54
835.496	133.12
835.673	36.86
835.85	149.5
836.026	98.3
836.203	100.35
836.38	10.24
836.556	61.44
836.733	45.06
836.909	81.92
837.086	77.82
837.262	12.29
837.439	16.38
837.616	51.2
837.792	73.73
837.968	73.73
838.145	2.05
838.321	81.92
838.498	83.97
838.674	102.4
838.851	77.82
839.027	73.73
839.203	131.07
839.38	22.53
839.556	45.06
839.732	51.2
839.909	77.82
840.085	96.25
840.261	69.63
840.437	122.88
840.614	96.25
840.79	75.77
840.966	161.79
841.142	188.41
841.318	67.58
841.494	24.58
841.671	98.3
841.847	49.15
842.023	18.43
842.199	114.69
842.375	61.44
842.551	28.67
842.727	-45.06
842.903	67.58
843.079	57.34
843.255	49.15
843.431	110.59
843.607	36.86
843.783	65.54
843.959	86.01
844.134	-8.19
844.31	147.45
844.486	51.2
844.662	-32.77
844.838	69.63
845.013	90.11
845.189	49.15
845.365	24.58
845.541	106.49
845.716	88.06
845.892	81.92
846.068	100.35
846.244	-8.19
846.419	-14.34
846.595	45.06
846.77	90.11
846.946	112.64
847.122	8.19
847.297	-2.05
847.473	116.73
847.648	8.19
847.824	77.82
847.999	69.63
848.175	22.53
848.35	108.54
848.526	57.34
848.701	22.53
848.876	114.69
849.052	90.11
849.227	55.3
849.403	53.25
849.578	108.54
849.753	28.67
849.929	51.2
850.104	-4.1
850.279	45.06
850.454	2.05
850.63	98.3
850.805	8.19
850.98	57.34
851.155	32.77
851.33	34.82
851.505	12.29
851.681	30.72
851.856	16.38
852.031	114.69
852.206	0
852.381	28.67
852.556	38.91
852.731	-16.38
852.906	110.59
853.081	16.38
853.256	122.88
853.431	24.58
853.606	36.86
853.781	8.19
853.956	34.82
854.131	36.86
854.305	16.38
854.48	32.77
854.655	38.91
854.83	18.43
855.005	-4.1
855.18	14.34
855.354	73.73
855.529	149.5
855.704	16.38
855.879	88.06
856.053	75.77
856.228	51.2
856.403	8.19
856.577	40.96
856.752	-20.48
856.926	69.63
857.101	-30.72
857.276	53.25
857.45	20.48
857.625	20.48
857.799	65.54
857.974	16.38
858.148	2.05
858.323	-6.14
858.497	-32.77
858.672	69.63
858.846	-12.29
859.02	61.44
859.195	36.86
859.369	18.43
859.543	32.77
859.718	61.44
859.892	63.49
860.066	32.77
860.241	83.97
860.415	22.53
860.589	-14.34
860.763	49.15
860.938	-22.53
861.112	108.54
861.286	-61.44
861.46	63.49
861.634	-36.86
861.808	63.49
861.982	22.53
862.157	-32.77
862.331	2.05
862.505	40.96
862.679	-4.1
862.853	59.39
863.027	16.38
863.201	118.78
863.375	20.48
863.549	32.77
863.722	-8.19
863.896	28.67
864.07	-22.53
864.244	65.54
864.418	40.96
864.592	75.77
864.766	73.73
864.939	77.82
865.113	30.72
865.287	106.49
865.461	10.24
865.634	86.01
865.808	75.77
865.982	61.44
866.156	24.58
866.329	32.77
866.503	36.86
866.676	88.06
866.85	-10.24
867.024	-8.19
867.197	-14.34
867.371	51.2
867.544	53.25
867.718	2.05
867.891	51.2
868.065	-77.82
868.238	32.77
868.412	94.21
868.585	57.34
868.759	-30.72
868.932	65.54
869.105	36.86
869.279	-38.91
869.452	22.53
869.625	55.3
869.799	36.86
869.972	-67.58
870.145	-65.53
870.319	40.96
870.492	-6.14
870.665	0
870.838	16.38
871.011	-20.48
871.185	8.19
871.358	-22.53
871.531	-18.43
871.704	0
871.877	-4.1
872.05	43.01
872.223	-16.38
872.396	0
872.569	28.67
872.742	-6.14
872.915	59.39
873.088	26.62
873.261	-8.19
873.434	24.58
873.607	98.3
873.78	10.24
873.953	-6.14
874.126	-20.48
874.299	0
874.471	-65.53
874.644	-6.14
874.817	43.01
874.99	133.12
875.163	-14.34
875.335	10.24
875.508	-16.38
875.681	26.62
875.853	-8.19
876.026	18.43
876.199	0
876.371	40.96
876.544	24.58
876.717	106.49
876.889	57.34
877.062	-14.34
877.234	-49.15
877.407	16.38
877.579	8.19
877.752	-24.58
877.924	24.58
878.097	73.73
878.269	-16.38
878.442	36.86
878.614	26.62
878.786	71.68
878.959	-6.14
879.131	0
879.303	-14.34
879.476	18.43
879.648	-8.19
879.82	51.2
879.993	-4.1
880.165	8.19
880.337	-61.44
880.509	24.58
880.681	-12.29
880.854	24.58
881.026	79.87
881.198	77.82
881.37	47.1
881.542	-16.38
881.714	-6.14
881.886	8.19
882.058	12.29
882.23	4.1
882.402	45.06
882.574	65.54
882.746	43.01
882.918	57.34
883.09	32.77
883.262	-49.15
883.434	-6.14
883.606	28.67
883.778	59.39
883.95	90.11
884.122	10.24
884.293	40.96
884.465	0
884.637	67.58
884.809	26.62
884.98	2.05
885.152	2.05
885.324	26.62
885.496	40.96
885.667	61.44
885.839	-36.86
886.011	26.62
886.182	26.62
886.354	49.15
886.525	12.29
886.697	28.67
886.869	24.58
887.04	18.43
887.212	20.48
887.383	10.24
887.555	0
887.726	10.24
887.897	43.01
888.069	43.01
888.24	40.96
888.412	79.87
888.583	63.49
888.754	67.58
888.926	-69.63
889.097	38.91
889.268	-40.96
889.44	75.77
889.611	0
889.782	-26.62
889.953	6.14
890.125	67.58
890.296	-45.06
890.467	16.38
890.638	-81.92
890.809	-14.34
890.98	32.77
891.151	-16.38
891.323	32.77
891.494	65.54
891.665	-40.96
891.836	28.67
892.007	-57.34
892.178	20.48
892.349	-2.05
892.52	0
892.691	32.77
892.862	-16.38
893.032	-40.96
893.203	16.38
893.374	12.29
893.545	-32.77
893.716	-20.48
893.887	8.19
894.057	-49.15
894.228	10.24
894.399	32.77
894.57	4.1
894.74	-45.06
894.911	26.62
895.082	71.68
895.253	-20.48
895.423	-18.43
895.594	51.2
895.764	-114.69
895.935	-8.19
896.106	43.01
896.276	20.48
896.447	28.67
896.617	-8.19
896.788	-6.14
896.958	-14.34
897.129	24.58
897.299	-6.14
897.47	43.01
897.64	59.39
897.81	-18.43
897.981	-8.19
898.151	-43.01
898.322	18.43
898.492	77.82
898.662	-6.14
898.832	-28.67
899.003	0
899.173	40.96
899.343	24.58
899.513	-6.14
