Data from USB4F104151__208__14-33-22-549.txt Node

Date: Thu Mar 13 14:33:22 EDT 2025
User: louis
Spectrometer: USB4F10415
Trigger mode: 4
Integration Time (sec): 2.500000E-2
Scans to average: 1
Electric dark correction enabled: true
Nonlinearity correction enabled: false
Boxcar width: 0
XAxis mode: Wavelengths
Number of Pixels in Spectrum: 3648
>>>>>Begin Spectral Data<<<<<
178.204	-128.68
178.424	-128.68
178.644	-128.68
178.864	-136.87
179.084	-130.73
179.304	-9.9
179.524	-9.9
179.744	-16.04
179.964	-42.67
180.184	-7.85
180.404	39.25
180.624	-11.95
180.844	16.73
181.064	-67.24
181.283	55.64
181.503	-11.95
181.723	65.88
181.943	-5.8
182.163	84.31
182.383	47.44
182.602	82.26
182.822	88.4
183.042	88.4
183.262	26.96
183.482	51.54
183.701	-5.8
183.921	65.88
184.141	22.87
184.361	92.5
184.58	33.11
184.8	112.98
185.02	-16.04
185.239	90.45
185.459	86.36
185.679	55.64
185.898	-1.71
186.118	127.32
186.338	6.49
186.557	22.87
186.777	67.92
186.997	-26.28
187.216	0.34
187.436	67.92
187.655	43.35
187.875	-1.71
188.095	57.68
188.314	139.6
188.534	166.23
188.753	2.39
188.973	90.45
189.192	88.4
189.412	20.82
189.631	8.53
189.851	-16.04
190.07	88.4
190.29	-13.99
190.509	-42.67
190.729	45.4
190.948	96.6
191.168	131.41
191.387	115.03
191.607	18.77
191.826	41.3
192.045	16.73
192.265	-16.04
192.484	104.79
192.704	10.58
192.923	-59.05
193.142	82.26
193.362	8.53
193.581	74.07
193.8	72.02
194.02	110.93
194.239	-18.09
194.458	59.73
194.678	16.73
194.897	14.68
195.116	16.73
195.335	-26.28
195.555	72.02
195.774	78.16
195.993	-32.43
196.212	88.4
196.432	12.63
196.651	108.88
196.87	16.73
197.089	35.16
197.308	63.83
197.528	100.69
197.747	26.96
197.966	-20.14
198.185	45.4
198.404	18.77
198.623	74.07
198.842	88.4
199.062	125.27
199.281	61.78
199.5	26.96
199.719	59.73
199.938	63.83
200.157	-18.09
200.376	24.92
200.595	41.3
200.814	33.11
201.033	26.96
201.252	74.07
201.471	35.16
201.69	106.84
201.909	31.06
202.128	47.44
202.347	149.84
202.566	12.63
202.785	16.73
203.004	0.34
203.223	98.64
203.442	45.4
203.661	-1.71
203.879	63.83
204.098	10.58
204.317	16.73
204.536	96.6
204.755	41.3
204.974	55.64
205.193	96.6
205.411	74.07
205.63	76.12
205.849	104.79
206.068	4.44
206.287	4.44
206.505	41.3
206.724	41.3
206.943	-26.28
207.162	-13.99
207.381	-1.71
207.599	14.68
207.818	72.02
208.037	80.21
208.255	88.4
208.474	88.4
208.693	96.6
208.911	88.4
209.13	117.08
209.349	74.07
209.567	74.07
209.786	72.02
210.005	-7.85
210.223	-1.71
210.442	-9.9
210.661	88.4
210.879	26.96
211.098	51.54
211.316	74.07
211.535	76.12
211.753	80.21
211.972	51.54
212.191	104.79
212.409	47.44
212.628	194.9
212.846	26.96
213.065	26.96
213.283	129.36
213.502	26.96
213.72	-13.99
213.938	33.11
214.157	43.35
214.375	-5.8
214.594	24.92
214.812	72.02
215.031	41.3
215.249	-9.9
215.467	92.5
215.686	12.63
215.904	74.07
216.122	74.07
216.341	121.17
216.559	72.02
216.778	96.6
216.996	72.02
217.214	-24.23
217.432	33.11
217.651	55.64
217.869	-7.85
218.087	59.73
218.306	76.12
218.524	80.21
218.742	41.3
218.96	65.88
219.179	39.25
219.397	6.49
219.615	84.31
219.833	2.39
220.051	47.44
220.27	104.79
220.488	-1.71
220.706	61.78
220.924	31.06
221.142	55.64
221.36	67.92
221.578	35.16
221.796	96.6
222.015	47.44
222.233	-7.85
222.451	106.84
222.669	2.39
222.887	104.79
223.105	104.79
223.323	-9.9
223.541	-40.62
223.759	72.02
223.977	65.88
224.195	65.88
224.413	47.44
224.631	45.4
224.849	22.87
225.067	74.07
225.285	88.4
225.503	-1.71
225.721	-5.8
225.939	78.16
226.157	55.64
226.375	108.88
226.592	26.96
226.81	90.45
227.028	74.07
227.246	63.83
227.464	117.08
227.682	39.25
227.9	112.98
228.117	55.64
228.335	74.07
228.553	-34.47
228.771	39.25
228.989	45.4
229.206	14.68
229.424	88.4
229.642	108.88
229.86	-18.09
230.077	72.02
230.295	-46.76
230.513	117.08
230.731	33.11
230.948	88.4
231.166	100.69
231.384	33.11
231.601	22.87
231.819	88.4
232.037	-24.23
232.254	-5.8
232.472	88.4
232.689	4.44
232.907	8.53
233.125	104.79
233.342	-34.47
233.56	92.5
233.777	14.68
233.995	88.4
234.213	90.45
234.43	6.49
234.648	12.63
234.865	-42.67
235.083	104.79
235.3	55.64
235.518	88.4
235.735	59.73
235.953	112.98
236.17	108.88
236.388	39.25
236.605	-26.28
236.822	82.26
237.04	158.03
237.257	65.88
237.475	49.49
237.692	31.06
237.909	22.87
238.127	47.44
238.344	80.21
238.562	51.54
238.779	72.02
238.996	-59.05
239.214	-3.75
239.431	90.45
239.648	-1.71
239.865	39.25
240.083	47.44
240.3	31.06
240.517	10.58
240.735	8.53
240.952	137.56
241.169	61.78
241.386	26.96
241.603	-9.9
241.821	-1.71
242.038	67.92
242.255	80.21
242.472	-59.05
242.689	43.35
242.907	41.3
243.124	2.39
243.341	-11.95
243.558	0.34
243.775	82.26
243.992	6.49
244.209	-1.71
244.426	129.36
244.643	82.26
244.86	125.27
245.078	35.16
245.295	94.55
245.512	121.17
245.729	-3.75
245.946	39.25
246.163	74.07
246.38	63.83
246.597	102.74
246.814	117.08
247.031	80.21
247.248	92.5
247.464	4.44
247.681	31.06
247.898	55.64
248.115	117.08
248.332	-24.23
248.549	22.87
248.766	20.82
248.983	80.21
249.2	47.44
249.417	33.11
249.633	26.96
249.85	-20.14
250.067	33.11
250.284	24.92
250.501	6.49
250.717	67.92
250.934	-1.71
251.151	72.02
251.368	49.49
251.585	96.6
251.801	-50.86
252.018	37.2
252.235	100.69
252.451	88.4
252.668	6.49
252.885	72.02
253.102	51.54
253.318	82.26
253.535	2.39
253.752	59.73
253.968	78.16
254.185	18.77
254.401	69.97
254.618	10.58
254.835	115.03
255.051	106.84
255.268	125.27
255.484	2.39
255.701	67.92
255.917	49.49
256.134	-9.9
256.351	102.74
256.567	8.53
256.784	-16.04
257	55.64
257.217	78.16
257.433	98.64
257.65	74.07
257.866	35.16
258.082	6.49
258.299	41.3
258.515	53.59
258.732	-71.34
258.948	22.87
259.165	84.31
259.381	8.53
259.597	123.22
259.814	53.59
260.03	43.35
260.246	-34.47
260.463	76.12
260.679	88.4
260.895	-1.71
261.112	41.3
261.328	47.44
261.544	-9.9
261.761	108.88
261.977	-7.85
262.193	10.58
262.409	74.07
262.626	39.25
262.842	0.34
263.058	-9.9
263.274	61.78
263.49	57.68
263.707	39.25
263.923	47.44
264.139	-5.8
264.355	22.87
264.571	76.12
264.787	24.92
265.004	67.92
265.22	67.92
265.436	92.5
265.652	39.25
265.868	123.22
266.084	-34.47
266.3	-54.95
266.516	-32.43
266.732	76.12
266.948	31.06
267.164	72.02
267.38	14.68
267.596	82.26
267.812	96.6
268.028	43.35
268.244	37.2
268.46	106.84
268.676	24.92
268.892	76.12
269.108	-18.09
269.324	45.4
269.54	26.96
269.756	98.64
269.972	-30.38
270.188	65.88
270.403	43.35
270.619	47.44
270.835	39.25
271.051	86.36
271.267	-18.09
271.483	96.6
271.698	14.68
271.914	35.16
272.13	92.5
272.346	-50.86
272.562	51.54
272.777	133.46
272.993	121.17
273.209	57.68
273.425	35.16
273.64	18.77
273.856	20.82
274.072	31.06
274.287	-5.8
274.503	123.22
274.719	106.84
274.934	47.44
275.15	-16.04
275.366	16.73
275.581	6.49
275.797	49.49
276.012	33.11
276.228	37.2
276.444	84.31
276.659	186.71
276.875	72.02
277.09	8.53
277.306	47.44
277.521	88.4
277.737	43.35
277.952	-9.9
278.168	59.73
278.383	6.49
278.599	-50.86
278.814	98.64
279.03	63.83
279.245	98.64
279.461	78.16
279.676	49.49
279.892	57.68
280.107	39.25
280.322	49.49
280.538	6.49
280.753	-20.14
280.969	59.73
281.184	6.49
281.399	125.27
281.615	35.16
281.83	88.4
282.045	33.11
282.26	57.68
282.476	61.78
282.691	74.07
282.906	-30.38
283.122	47.44
283.337	8.53
283.552	67.92
283.767	55.64
283.983	125.27
284.198	29.01
284.413	33.11
284.628	47.44
284.843	55.64
285.058	98.64
285.274	-18.09
285.489	-32.43
285.704	49.49
285.919	-16.04
286.134	96.6
286.349	-11.95
286.564	74.07
286.779	53.59
286.995	137.56
287.21	0.34
287.425	106.84
287.64	65.88
287.855	4.44
288.07	78.16
288.285	47.44
288.5	110.93
288.715	14.68
288.93	-18.09
289.145	-26.28
289.36	39.25
289.575	-28.33
289.79	51.54
290.004	-16.04
290.219	100.69
290.434	-3.75
290.649	22.87
290.864	43.35
291.079	47.44
291.294	88.4
291.509	112.98
291.724	18.77
291.938	63.83
292.153	22.87
292.368	-34.47
292.583	16.73
292.798	84.31
293.012	8.53
293.227	47.44
293.442	4.44
293.657	72.02
293.871	92.5
294.086	41.3
294.301	143.7
294.516	59.73
294.73	-20.14
294.945	10.58
295.16	20.82
295.374	39.25
295.589	74.07
295.804	-11.95
296.018	80.21
296.233	72.02
296.447	98.64
296.662	47.44
296.877	55.64
297.091	20.82
297.306	63.83
297.52	-1.71
297.735	10.58
297.949	-30.38
298.164	33.11
298.378	69.97
298.593	2.39
298.807	22.87
299.022	41.3
299.236	137.56
299.451	96.6
299.665	106.84
299.88	108.88
300.094	-57
300.309	104.79
300.523	31.06
300.737	31.06
300.952	2.39
301.166	47.44
301.381	31.06
301.595	39.25
301.809	100.69
302.024	55.64
302.238	24.92
302.452	82.26
302.667	41.3
302.881	57.68
303.095	-11.95
303.309	74.07
303.524	55.64
303.738	106.84
303.952	2.39
304.166	24.92
304.381	-22.19
304.595	108.88
304.809	6.49
305.023	33.11
305.237	49.49
305.452	31.06
305.666	57.68
305.88	49.49
306.094	72.02
306.308	33.11
306.522	141.65
306.736	119.12
306.95	31.06
307.164	-1.71
307.379	69.97
307.593	143.7
307.807	88.4
308.021	63.83
308.235	65.88
308.449	26.96
308.663	61.78
308.877	203.09
309.091	57.68
309.305	59.73
309.519	20.82
309.733	84.31
309.947	4.44
310.161	31.06
310.374	115.03
310.588	72.02
310.802	8.53
311.016	55.64
311.23	96.6
311.444	29.01
311.658	43.35
311.872	133.46
312.085	22.87
312.299	55.64
312.513	31.06
312.727	88.4
312.941	100.69
313.154	39.25
313.368	47.44
313.582	33.11
313.796	65.88
314.009	100.69
314.223	22.87
314.437	57.68
314.651	76.12
314.864	-32.43
315.078	67.92
315.292	-24.23
315.505	55.64
315.719	57.68
315.933	67.92
316.146	41.3
316.36	26.96
316.573	31.06
316.787	22.87
317.001	59.73
317.214	14.68
317.428	4.44
317.641	47.44
317.855	31.06
318.068	41.3
318.282	20.82
318.495	121.17
318.709	47.44
318.922	47.44
319.136	166.23
319.349	100.69
319.563	63.83
319.776	12.63
319.99	29.01
320.203	0.34
320.417	127.32
320.63	84.31
320.843	47.44
321.057	31.06
321.27	65.88
321.483	51.54
321.697	121.17
321.91	96.6
322.124	-36.52
322.337	86.36
322.55	24.92
322.763	63.83
322.977	72.02
323.19	20.82
323.403	72.02
323.617	10.58
323.83	110.93
324.043	61.78
324.256	72.02
324.469	47.44
324.683	100.69
324.896	57.68
325.109	63.83
325.322	-22.19
325.535	166.23
325.748	59.73
325.962	47.44
326.175	72.02
326.388	24.92
326.601	100.69
326.814	31.06
327.027	125.27
327.24	141.65
327.453	-73.39
327.666	106.84
327.879	78.16
328.092	74.07
328.305	69.97
328.518	24.92
328.731	94.55
328.944	129.36
329.157	35.16
329.37	49.49
329.583	80.21
329.796	96.6
330.009	0.34
330.222	131.41
330.435	110.93
330.648	106.84
330.861	69.97
331.073	90.45
331.286	139.6
331.499	47.44
331.712	-18.09
331.925	88.4
332.138	98.64
332.35	65.88
332.563	76.12
332.776	37.2
332.989	18.77
333.202	26.96
333.414	33.11
333.627	63.83
333.84	100.69
334.053	-9.9
334.265	55.64
334.478	16.73
334.691	39.25
334.903	67.92
335.116	-32.43
335.329	-18.09
335.541	121.17
335.754	121.17
335.966	-11.95
336.179	53.59
336.392	96.6
336.604	37.2
336.817	92.5
337.029	121.17
337.242	67.92
337.454	112.98
337.667	-30.38
337.88	92.5
338.092	72.02
338.305	74.07
338.517	69.97
338.729	22.87
338.942	76.12
339.154	37.2
339.367	-32.43
339.579	74.07
339.792	41.3
340.004	65.88
340.217	31.06
340.429	8.53
340.641	55.64
340.854	96.6
341.066	47.44
341.278	69.97
341.491	106.84
341.703	55.64
341.915	0.34
342.128	82.26
342.34	49.49
342.552	14.68
342.764	43.35
342.977	20.82
343.189	96.6
343.401	59.73
343.613	123.22
343.826	96.6
344.038	47.44
344.25	88.4
344.462	72.02
344.674	37.2
344.886	61.78
345.099	96.6
345.311	88.4
345.523	57.68
345.735	20.82
345.947	74.07
346.159	72.02
346.371	24.92
346.583	72.02
346.795	137.56
347.007	43.35
347.219	119.12
347.431	14.68
347.643	63.83
347.855	6.49
348.067	45.4
348.279	53.59
348.491	80.21
348.703	78.16
348.915	41.3
349.127	104.79
349.339	76.12
349.551	8.53
349.763	104.79
349.975	117.08
350.187	-9.9
350.399	92.5
350.61	63.83
350.822	-13.99
351.034	92.5
351.246	137.56
351.458	33.11
351.669	14.68
351.881	141.65
352.093	76.12
352.305	90.45
352.517	65.88
352.728	166.23
352.94	61.78
353.152	76.12
353.363	35.16
353.575	96.6
353.787	72.02
353.999	96.6
354.21	133.46
354.422	31.06
354.633	24.92
354.845	35.16
355.057	18.77
355.268	108.88
355.48	63.83
355.692	63.83
355.903	125.27
356.115	2.39
356.326	0.34
356.538	104.79
356.749	63.83
356.961	112.98
357.172	59.73
357.384	47.44
357.595	164.18
357.807	82.26
358.018	74.07
358.23	164.18
358.441	104.79
358.653	72.02
358.864	-30.38
359.075	6.49
359.287	80.21
359.498	49.49
359.709	104.79
359.921	41.3
360.132	43.35
360.344	63.83
360.555	22.87
360.766	45.4
360.977	115.03
361.189	96.6
361.4	90.45
361.611	18.77
361.823	123.22
362.034	57.68
362.245	16.73
362.456	110.93
362.667	80.21
362.879	59.73
363.09	123.22
363.301	123.22
363.512	39.25
363.723	39.25
363.935	63.83
364.146	182.61
364.357	96.6
364.568	98.64
364.779	43.35
364.99	112.98
365.201	33.11
365.412	112.98
365.623	80.21
365.834	121.17
366.045	31.06
366.256	88.4
366.467	69.97
366.678	55.64
366.889	115.03
367.1	80.21
367.311	143.7
367.522	104.79
367.733	164.18
367.944	76.12
368.155	90.45
368.366	100.69
368.577	143.7
368.788	39.25
368.999	82.26
369.209	100.69
369.42	209.23
369.631	215.38
369.842	80.21
370.053	49.49
370.264	129.36
370.474	80.21
370.685	65.88
370.896	78.16
371.107	39.25
371.317	67.92
371.528	53.59
371.739	49.49
371.95	98.64
372.16	84.31
372.371	63.83
372.582	117.08
372.792	59.73
373.003	90.45
373.214	41.3
373.424	49.49
373.635	24.92
373.846	78.16
374.056	-16.04
374.267	90.45
374.477	67.92
374.688	41.3
374.898	145.75
375.109	47.44
375.319	80.21
375.53	72.02
375.74	76.12
375.951	141.65
376.161	2.39
376.372	80.21
376.582	33.11
376.793	117.08
377.003	80.21
377.214	33.11
377.424	86.36
377.635	18.77
377.845	18.77
378.055	119.12
378.266	14.68
378.476	139.6
378.686	29.01
378.897	76.12
379.107	123.22
379.317	57.68
379.528	88.4
379.738	51.54
379.948	53.59
380.158	106.84
380.369	110.93
380.579	63.83
380.789	131.41
380.999	129.36
381.21	106.84
381.42	125.27
381.63	49.49
381.84	121.17
382.05	39.25
382.261	47.44
382.471	162.13
382.681	88.4
382.891	84.31
383.101	102.74
383.311	37.2
383.521	24.92
383.731	84.31
383.941	92.5
384.151	22.87
384.361	57.68
384.571	4.44
384.781	57.68
384.991	129.36
385.201	90.45
385.411	86.36
385.621	31.06
385.831	137.56
386.041	108.88
386.251	82.26
386.461	63.83
386.671	131.41
386.881	80.21
387.091	43.35
387.301	8.53
387.511	72.02
387.72	119.12
387.93	57.68
388.14	41.3
388.35	39.25
388.56	92.5
388.769	82.26
388.979	98.64
389.189	125.27
389.399	104.79
389.609	84.31
389.818	137.56
390.028	176.47
390.238	14.68
390.447	22.87
390.657	74.07
390.867	43.35
391.076	55.64
391.286	100.69
391.496	12.63
391.705	55.64
391.915	147.8
392.125	112.98
392.334	55.64
392.544	133.46
392.753	121.17
392.963	-5.8
393.172	49.49
393.382	6.49
393.591	106.84
393.801	137.56
394.01	145.75
394.22	94.55
394.429	57.68
394.639	104.79
394.848	39.25
395.058	92.5
395.267	145.75
395.477	59.73
395.686	117.08
395.895	203.09
396.105	194.9
396.314	123.22
396.524	170.32
396.733	186.71
396.942	188.75
397.152	164.18
397.361	141.65
397.57	90.45
397.78	153.94
397.989	182.61
398.198	190.8
398.407	133.46
398.617	35.16
398.826	211.28
399.035	108.88
399.244	211.28
399.453	190.8
399.663	145.75
399.872	98.64
400.081	158.03
400.29	194.9
400.499	96.6
400.708	194.9
400.917	104.79
401.127	188.75
401.336	100.69
401.545	192.85
401.754	233.81
401.963	188.75
402.172	129.36
402.381	137.56
402.59	162.13
402.799	153.94
403.008	229.71
403.217	182.61
403.426	235.86
403.635	137.56
403.844	127.32
404.053	170.32
404.262	172.37
404.471	252.24
404.68	205.14
404.888	252.24
405.097	254.29
405.306	252.24
405.515	246.1
405.724	235.86
405.933	237.91
406.142	225.62
406.35	293.2
406.559	274.77
406.768	196.95
406.977	358.74
407.185	309.58
407.394	289.1
407.603	287.06
407.812	317.78
408.02	272.72
408.229	344.4
408.438	385.36
408.646	256.34
408.855	379.22
409.064	352.59
409.272	391.5
409.481	463.18
409.69	383.31
409.898	420.17
410.107	407.89
410.315	518.48
410.524	391.5
410.733	469.33
410.941	510.29
411.15	471.37
411.358	495.95
411.567	618.83
411.775	541.01
411.984	594.25
412.192	598.35
412.401	592.2
412.609	649.55
412.818	751.95
413.026	745.8
413.234	713.03
413.443	688.46
413.651	706.89
413.86	756.04
414.068	803.15
414.276	956.74
414.485	932.17
414.693	874.82
414.901	956.74
415.11	1040.71
415.318	1009.99
415.526	1059.14
415.734	1063.24
415.943	1153.35
416.151	1196.36
416.359	1206.59
416.567	1177.92
416.776	1239.36
416.984	1308.99
417.192	1409.34
417.4	1440.06
417.608	1530.17
417.817	1458.5
418.025	1431.87
418.233	1562.94
418.441	1614.14
418.649	1704.25
418.857	1853.75
419.065	1655.1
419.273	1761.59
419.481	1857.85
419.689	1976.63
419.897	2079.03
420.105	2113.85
420.313	2216.24
420.521	2277.68
420.729	2304.31
420.937	2406.7
421.145	2455.86
421.353	2599.21
421.561	2652.46
421.769	2726.19
421.977	2949.42
422.185	2814.25
422.393	2943.27
422.601	3098.92
422.809	3119.4
423.017	3174.69
423.224	3332.39
423.432	3496.22
423.64	3471.65
423.848	3815.71
424.056	3563.81
424.263	3989.78
424.471	3954.97
424.679	4118.81
424.887	4303.12
425.094	4323.6
425.302	4421.91
425.51	4573.46
425.718	4737.29
425.925	4827.4
426.133	5017.86
426.341	5118.22
426.548	5396.74
426.756	5333.25
426.964	5409.03
427.171	5843.2
427.379	6101.24
427.586	6080.76
427.794	6347
428.001	6465.78
428.209	6740.21
428.417	6789.36
428.624	7233.77
428.832	7114.98
429.039	6936.81
429.247	7186.66
429.454	8009.95
429.662	8337.62
429.869	7676.13
430.076	8468.69
430.284	8141.02
430.491	8415.44
430.699	9029.84
430.906	8870.09
431.114	9173.19
431.321	9140.43
431.528	9513.16
431.736	10158.27
431.943	10490.04
432.15	10471.61
432.358	10410.17
432.565	10969.26
432.772	10934.45
432.979	11516.07
433.187	11757.73
433.394	11479.21
433.601	12449.94
433.808	12742.8
434.016	12433.56
434.223	12949.65
434.43	13619.33
434.637	13510.79
434.844	14096.51
435.052	14624.89
435.259	14526.58
435.466	14657.65
435.673	14350.46
435.88	15290.48
436.087	16212.06
436.294	16183.39
436.501	15726.69
436.708	15931.49
436.915	16787.54
437.122	17418.32
437.329	17383.5
437.537	17999.94
437.743	17999.94
437.95	17799.24
438.157	19134.51
438.364	19454
438.571	19587.11
438.778	19454
438.985	21542.92
439.192	20598.81
439.399	21110.8
439.606	20813.85
439.813	21915.65
440.02	23123.96
440.227	22865.91
440.433	22673.4
440.64	23189.49
440.847	23007.22
441.054	23803.88
441.261	25528.27
441.467	25151.45
441.674	25411.54
441.881	26202.05
442.088	26365.89
442.294	26118.09
442.501	26750.91
442.708	27396.02
442.914	28440.48
443.121	29106.07
443.328	28917.66
443.534	30496.64
443.741	29505.43
443.948	29257.62
444.154	31618.93
444.361	31594.36
444.568	31455.09
444.774	31346.55
444.981	31674.23
445.187	32489.32
445.394	34309.96
445.6	33632.08
445.807	36695.85
446.013	34826.05
446.22	35692.34
446.426	37072.67
446.633	37678.87
446.839	38694.66
447.046	37424.92
447.252	39419.64
447.459	39370.49
447.665	39255.81
447.871	40847.08
448.078	42374.86
448.284	40699.62
448.491	41723.61
448.697	43151.04
448.903	44003
449.11	44074.68
449.316	43257.54
449.522	43984.57
449.728	45094.57
449.935	45600.41
450.141	45620.89
450.347	46509.71
450.553	45121.19
450.76	45682.33
450.966	46843.53
451.172	46335.63
451.378	47844.99
451.584	47148.68
451.791	48047.74
451.997	47890.04
452.203	48615.02
452.409	48492.15
452.615	48363.12
452.821	46468.75
453.027	46091.93
453.233	48520.82
453.44	46216.85
453.646	46718.6
453.852	47046.28
454.058	47844.99
454.264	46378.64
454.47	47623.81
454.676	46139.03
454.882	47902.33
455.088	44144.31
455.294	44488.37
455.5	44789.42
455.705	45631.13
455.911	43943.61
456.117	43073.22
456.323	42221.27
456.529	39978.74
456.735	41944.79
456.941	40629.99
457.147	40177.39
457.352	39145.22
457.558	38278.93
457.764	38878.98
457.97	37801.75
458.176	37105.44
458.381	37031.71
458.587	35204.92
458.793	35409.72
458.999	33531.73
459.204	35467.06
459.41	34936.64
459.616	32364.39
459.821	32442.21
460.027	32126.83
460.233	31670.13
460.438	30439.3
460.644	30443.4
460.85	29292.44
461.055	28493.73
461.261	28565.41
461.466	26419.14
461.672	25731.02
461.878	27373.49
462.083	25591.76
462.289	25010.14
462.494	24809.43
462.7	23883.75
462.905	23406.58
463.111	23627.76
463.316	23939.05
463.522	23341.04
463.727	23695.34
463.932	23326.71
464.138	22892.54
464.343	23160.82
464.549	22745.08
464.754	23214.07
464.959	22945.78
465.165	22872.06
465.37	21796.87
465.575	21364.75
465.781	21975.05
465.986	22321.15
466.191	21213.2
466.397	20860.95
466.602	19906.6
466.807	20740.12
467.012	20609.05
467.218	20602.91
467.423	20228.13
467.628	20441.12
467.833	21383.18
468.038	20357.15
468.244	19830.82
468.449	20594.72
468.654	19970.08
468.859	19617.83
469.064	19650.6
469.269	19087.41
469.474	19062.83
469.679	19591.21
469.885	18606.14
470.09	19073.07
470.295	19060.79
470.5	18427.96
470.705	18874.42
470.91	18192.45
471.115	18083.91
471.32	18604.09
471.525	18128.96
471.73	17725.51
471.935	17551.43
472.139	16803.92
472.344	17358.92
472.549	16916.56
472.754	17006.67
472.959	16502.87
473.164	16001.12
473.369	15939.68
473.574	16603.22
473.778	16388.19
473.983	16046.18
474.188	16214.11
474.393	15552.62
474.598	15624.29
474.802	15325.29
475.007	15089.78
475.212	15239.28
475.417	14628.98
475.621	14561.4
475.826	14796.92
476.031	14526.58
476.235	14336.12
476.44	14553.21
476.645	14061.69
476.849	14278.78
477.054	14026.88
477.259	13959.3
477.463	13858.95
477.668	13240.46
477.872	13619.33
478.077	13248.65
478.282	12976.27
478.486	12931.22
478.691	12794
478.895	12892.3
479.1	12669.08
479.304	12765.33
479.509	12538.01
479.713	12603.54
479.918	12261.53
480.122	12091.55
480.326	12423.32
480.531	12218.52
480.735	12282.01
480.94	11976.86
481.144	12540.05
481.348	11755.68
481.553	11962.53
481.757	11761.83
481.961	11821.22
482.166	12062.88
482.37	11716.77
482.574	11677.86
482.778	11778.21
482.983	12087.45
483.187	11581.6
483.391	11933.86
483.595	11507.88
483.8	11600.04
484.004	11686.05
484.208	11866.27
484.412	11731.11
484.616	11821.22
484.821	11733.15
485.025	11458.73
485.229	11577.51
485.433	11567.27
485.637	11618.47
485.841	11704.48
486.045	11417.77
486.249	11714.72
486.453	11720.87
486.657	11641
486.861	11786.4
487.065	11378.86
487.269	11679.91
487.473	11401.38
487.677	11495.59
487.881	11530.41
488.085	11649.19
488.289	11483.3
488.493	11450.53
488.697	11819.17
488.901	11827.36
489.105	11653.28
489.309	11667.62
489.512	11673.76
489.716	11761.83
489.92	11677.86
490.124	11749.54
490.328	11735.2
490.531	11794.59
490.735	11976.86
490.939	11884.7
491.143	11933.86
491.346	11868.32
491.55	11950.24
491.754	12105.88
491.958	12140.7
492.161	11870.37
492.365	12044.45
492.569	11817.12
492.772	12210.33
492.976	12138.65
493.18	12208.28
493.383	12245.15
493.587	12421.27
493.79	12390.55
493.994	12460.18
494.197	12599.45
494.401	12621.97
494.605	12787.86
494.808	12830.87
495.012	12714.13
495.215	12916.88
495.419	13052.05
495.622	12941.46
495.825	13039.76
496.029	13189.26
496.232	13308.04
496.436	13305.99
496.639	13533.32
496.843	13416.58
497.046	13879.43
497.249	13904
497.453	14018.69
497.656	14184.57
497.859	14037.12
498.063	14139.52
498.266	14575.73
498.469	14497.91
498.673	14399.61
498.876	14635.13
499.079	15028.34
499.282	14715
499.485	15288.43
499.689	15114.35
499.892	15597.67
500.095	15599.72
500.298	15882.34
500.501	15693.93
500.705	16109.66
500.908	16177.25
501.111	16353.37
501.314	16404.57
501.517	16638.04
501.72	16859.22
501.923	16980.05
502.126	17387.6
502.329	17870.92
502.532	17424.46
502.735	17672.26
502.938	17995.84
503.141	17969.22
503.344	18530.36
503.547	18329.66
503.75	18622.52
503.953	18817.08
504.156	18980.92
504.359	19245.1
504.562	19302.45
504.765	19888.17
504.968	19580.97
505.17	19849.25
505.373	20133.92
505.576	20484.12
505.779	20762.65
505.982	20811.8
506.185	21131.28
506.387	21086.23
506.59	21284.88
506.793	21639.18
506.996	21766.15
507.198	22409.22
507.401	22042.63
507.604	22251.52
507.807	22812.67
508.009	22669.31
508.212	22951.93
508.415	23126
508.617	23666.67
508.82	23742.44
509.022	23834.6
509.225	24330.21
509.428	24252.39
509.63	24528.86
509.833	24750.04
510.035	25225.17
510.238	25335.76
510.44	25485.26
510.643	25774.03
510.845	25747.4
511.048	26052.55
511.25	26308.55
511.453	26499.01
511.655	27289.52
511.858	26994.62
512.06	27215.8
512.262	27379.64
512.465	27330.48
512.667	27883.44
512.87	28272.55
513.072	28463.01
513.274	28917.66
513.477	29384.6
513.679	29112.22
513.881	29523.86
514.084	29732.75
514.286	29730.7
514.488	30080.91
514.69	31047.55
514.893	30795.65
515.095	30801.79
515.297	31311.74
515.499	31477.62
515.701	32081.77
515.904	32032.62
516.106	32376.68
516.308	32376.68
516.51	32710.5
516.712	32728.93
516.914	33277.79
517.116	34010.96
517.318	33787.73
517.52	33728.34
517.722	33910.61
517.925	34623.3
518.127	34547.53
518.329	34864.96
518.531	34619.21
518.733	35692.34
518.935	35800.88
519.136	35641.14
519.338	36079.41
519.54	36237.1
519.742	36589.35
519.944	36970.27
520.146	37087.01
520.348	37162.78
520.55	37388.06
520.752	37191.45
520.954	38221.58
521.155	38008.59
521.357	38510.35
521.559	38715.14
521.761	38999.81
521.963	38727.43
522.164	38958.85
522.366	39380.73
522.568	39227.13
522.77	39634.68
522.971	40308.46
523.173	40304.37
523.375	40257.26
523.576	40201.97
523.778	40271.6
523.98	40617.71
524.181	40941.28
524.383	40849.13
524.584	41154.27
524.786	41078.5
524.988	40791.78
525.189	41342.69
525.391	41473.76
525.592	41639.64
525.794	41803.48
525.995	41909.97
526.197	41279.2
526.398	42022.61
526.6	42026.71
526.801	42057.43
527.003	42256.08
527.204	42221.27
527.406	42761.93
527.607	42464.97
527.808	42948.29
528.01	42256.08
528.211	42479.31
528.412	43097.8
528.614	42743.5
528.815	42569.42
529.016	43273.92
529.218	42647.24
529.419	42632.91
529.62	42749.64
529.822	42675.91
530.023	42661.58
530.224	42749.64
530.425	42993.35
530.626	42534.6
530.828	42716.87
531.029	43124.42
531.23	42575.56
531.431	42536.65
531.632	42647.24
531.833	42804.94
532.035	42663.63
532.236	42921.67
532.437	42641.1
532.638	42647.24
532.839	42663.63
533.04	42583.76
533.241	42049.24
533.442	43028.16
533.643	42475.21
533.844	42235.6
534.045	42405.58
534.246	42063.57
534.447	42491.6
534.648	42006.23
534.849	42499.79
535.05	42131.15
535.251	42325.71
535.451	41875.16
535.652	42192.59
535.853	42067.67
536.054	41985.75
536.255	41961.17
536.456	41635.55
536.657	42333.9
536.857	41703.13
537.058	41479.9
537.259	41948.89
537.46	41879.25
537.66	41531.1
537.861	41606.87
538.062	41432.8
538.263	41780.95
538.463	41412.32
538.664	41547.48
538.865	41610.97
539.065	41518.81
539.266	41266.91
539.466	41510.62
539.667	40806.12
539.868	41529.05
540.068	41330.4
540.269	41141.99
540.469	41486.04
540.67	41004.77
540.87	40957.67
541.071	40793.83
541.271	41533.15
541.472	40699.62
541.672	40890.09
541.873	41264.86
542.073	40857.32
542.274	41297.63
542.474	41236.19
542.675	40603.37
542.875	41072.35
543.075	40709.86
543.276	40408.81
543.476	41250.53
543.676	40845.03
543.877	40763.11
544.077	40988.39
544.277	40824.55
544.478	40519.4
544.678	41039.59
544.878	40941.28
545.078	40611.56
545.279	40470.25
545.479	40453.87
545.679	40771.3
545.879	40632.04
546.079	40683.24
546.28	40509.16
546.48	40109.81
546.68	40627.95
546.88	41029.35
547.08	40654.57
547.28	40316.65
547.48	40120.05
547.68	40625.9
547.88	40435.44
548.081	40650.47
548.281	40789.73
548.481	40724.2
548.681	40666.86
548.881	40472.3
549.081	40277.74
549.28	40646.38
549.48	40623.85
549.68	40089.33
549.88	41205.47
550.08	40574.7
550.28	40503.02
550.48	40406.76
550.68	40945.38
550.88	40146.67
551.08	40623.85
551.279	40711.91
551.479	40300.27
551.679	40445.68
551.879	40384.24
552.079	40945.38
552.278	40656.62
552.478	40378.09
552.678	40548.07
552.878	40756.97
553.077	40505.07
553.277	40212.21
553.477	40929
553.676	40470.25
553.876	40584.94
554.076	40281.84
554.275	40355.57
554.475	40161.01
554.674	40537.83
554.874	40650.47
555.074	40533.74
555.273	40646.38
555.473	40593.13
555.672	40525.55
555.872	40916.71
556.071	40298.22
556.271	40924.9
556.47	40586.99
556.67	40400.62
556.869	40625.9
557.068	40552.17
557.268	40349.42
557.467	40748.78
557.667	40460.01
557.866	40877.8
558.065	40455.92
558.265	40421.1
558.464	40531.69
558.663	40761.06
558.863	40300.27
559.062	40929
559.261	40306.41
559.461	40806.12
559.66	40019.7
559.859	40406.76
560.058	40279.79
560.258	40703.72
560.457	40189.68
560.656	40666.86
560.855	40408.81
561.054	40558.31
561.253	40191.73
561.453	40767.21
561.652	40445.68
561.851	40423.15
562.05	40263.41
562.249	40152.82
562.448	40421.1
562.647	40185.58
562.846	40081.14
563.045	40226.54
563.244	40292.08
563.443	40539.88
563.642	39878.39
563.841	40333.04
564.04	40181.49
564.239	40216.3
564.438	39833.33
564.637	40201.97
564.836	40224.5
565.035	39925.49
565.234	39945.97
565.432	39415.55
565.631	40074.99
565.83	40144.62
566.029	39931.64
566.228	39644.92
566.427	39708.41
566.625	39550.71
566.824	39120.64
567.023	39653.11
567.222	39108.35
567.42	39640.82
567.619	39646.97
567.818	39294.72
568.016	39104.26
568.215	39083.78
568.414	39309.05
568.612	39280.38
568.811	39008
569.01	38971.14
569.208	38602.5
569.407	39018.24
569.605	38293.26
569.804	38950.66
570.002	38440.71
570.201	38741.77
570.4	38184.72
570.598	38182.67
570.797	38323.98
570.995	38506.25
571.193	37584.66
571.392	38125.33
571.59	37777.17
571.789	37703.45
571.987	37738.26
572.186	37723.93
572.384	37457.69
572.582	37836.56
572.781	37586.71
572.979	37138.21
573.177	37371.68
573.376	37517.08
573.574	36896.55
573.772	37095.2
573.971	36910.88
574.169	36644.65
574.367	36630.31
574.565	36824.87
574.763	36470.57
574.962	36519.72
575.16	36124.46
575.358	36466.47
575.556	36134.7
575.754	36206.38
575.952	35770.16
576.151	36101.93
576.349	35508.02
576.547	35516.22
576.745	35921.71
576.943	35604.28
577.141	35368.76
577.339	35813.17
577.537	35456.82
577.735	35602.23
577.933	35032.89
578.131	34834.24
578.329	34588.49
578.527	34547.53
578.725	34651.97
578.923	34989.89
579.121	34346.83
579.319	34357.07
579.516	34737.99
579.714	34692.93
579.912	34600.77
580.11	34213.71
580.308	34219.85
580.506	34170.7
580.704	33509.21
580.901	33892.18
581.099	33931.09
581.297	33359.7
581.495	33404.76
581.692	33668.95
581.89	33197.91
582.088	33957.71
582.285	33570.65
582.483	33437.53
582.681	33204.06
582.878	33122.14
583.076	32810.85
583.274	33458.01
583.471	32915.3
583.669	33038.17
583.866	32395.11
584.064	32667.49
584.262	32534.37
584.459	32843.62
584.657	32311.14
584.854	32735.07
585.052	31616.88
585.249	32053.1
585.447	32149.35
585.644	32073.58
585.841	32280.42
586.039	32290.66
586.236	31602.55
586.434	31891.31
586.631	31436.66
586.828	31758.19
587.026	31557.49
587.223	31252.34
587.42	31352.69
587.618	31410.04
587.815	31008.64
588.012	31186.81
588.21	30719.87
588.407	31225.72
588.604	30986.11
588.801	30762.88
588.999	30689.15
589.196	30441.35
589.393	30363.53
589.59	30691.2
589.787	30410.63
589.984	30451.59
590.182	30130.06
590.379	30404.49
590.576	30089.1
590.773	30439.3
590.97	30314.37
591.167	30011.28
591.364	29919.12
591.561	29943.69
591.758	29812.62
591.955	29638.55
592.152	29788.05
592.349	29536.15
592.546	29775.76
592.743	29484.95
592.94	29116.31
593.137	29448.08
593.334	29822.86
593.531	29292.44
593.727	29411.22
593.924	29585.3
594.121	29042.59
594.318	29257.62
594.515	29071.26
594.712	29208.47
594.908	28946.33
595.105	29204.38
595.302	28708.77
595.499	29067.16
595.696	28972.96
595.892	28587.94
596.089	28860.32
596.286	28782.49
596.482	28606.37
596.679	28491.68
596.876	28614.56
597.072	28317.61
597.269	28448.68
597.466	28598.18
597.662	28583.84
597.859	28329.89
598.055	28739.49
598.252	28002.22
598.448	28473.25
598.645	28286.89
598.841	28200.87
599.038	28444.58
599.234	28073.9
599.431	27854.76
599.627	28227.49
599.824	28645.28
600.02	28041.13
600.217	28088.23
600.413	27936.68
600.609	27869.1
600.806	28110.76
601.002	28196.78
601.198	28014.51
601.395	27934.64
601.591	27842.48
601.787	27936.68
601.984	28061.61
602.18	28553.12
602.376	28039.08
602.572	27793.33
602.769	27533.23
602.965	27979.69
603.161	27875.24
603.357	27723.69
603.553	28077.99
603.75	27985.83
603.946	27953.07
604.142	27985.83
604.338	27783.09
604.534	27869.1
604.73	27817.9
604.926	27953.07
605.122	28123.05
605.318	27533.23
605.514	27860.91
605.71	28092.33
605.906	28026.79
606.102	28008.36
606.298	27961.26
606.494	28295.08
606.69	28043.18
606.886	27844.52
607.082	27574.19
607.278	28532.64
607.474	27858.86
607.67	28344.23
607.866	27760.56
608.062	28045.23
608.257	28188.58
608.453	28125.1
608.649	28084.14
608.845	27746.22
609.041	28061.61
609.236	28139.43
609.432	28071.85
609.628	28010.41
609.824	28196.78
610.019	28006.31
610.215	28221.35
610.411	28516.26
610.606	28315.56
610.802	28571.55
610.998	28231.59
611.193	28399.52
611.389	28321.7
611.584	28090.28
611.78	28010.41
611.976	28250.02
612.171	28559.27
612.367	28174.25
612.562	28268.45
612.758	27961.26
612.953	28145.58
613.149	28381.09
613.344	28207.01
613.539	28917.66
613.735	28477.35
613.93	28510.11
614.126	28344.23
614.321	28909.47
614.517	28333.99
614.712	28336.04
614.907	28258.21
615.103	28665.76
615.298	28274.6
615.493	28721.06
615.688	28063.66
615.884	28784.54
616.079	28374.95
616.274	28819.36
616.47	28553.12
616.665	28526.5
616.86	28069.8
617.055	28176.3
617.25	28010.41
617.445	28561.31
617.641	28108.71
617.836	28581.79
618.031	27948.97
618.226	28284.84
618.421	27973.55
618.616	28417.96
618.811	28088.23
619.006	28438.44
619.201	27697.07
619.396	28082.09
619.591	27762.61
619.786	28166.06
619.981	27465.65
620.176	27621.3
620.371	27156.41
620.566	27549.62
620.761	27686.83
620.956	27537.33
621.151	26922.94
621.346	27363.25
621.541	27011
621.735	27129.78
621.93	26705.85
622.125	26517.44
622.32	26560.45
622.515	26668.99
622.709	26515.39
622.904	26390.47
623.099	26310.6
623.294	26163.14
623.488	26085.32
623.683	26212.29
623.878	25626.57
624.072	25569.23
624.267	25829.32
624.462	25483.22
624.656	25034.71
624.851	25407.44
625.046	25231.32
625.24	25102.29
625.435	25104.34
625.629	25139.16
625.824	24852.44
626.018	24655.84
626.213	24184.8
626.407	24395.75
626.602	23793.64
626.796	24340.45
626.991	24143.84
627.185	23967.72
627.38	23996.39
627.574	23664.62
627.768	23492.59
627.963	23535.6
628.157	23490.54
628.352	23623.66
628.546	23295.99
628.74	23031.8
628.935	22872.06
629.129	23111.67
629.323	22665.21
629.517	22986.74
629.712	22587.39
629.906	22339.58
630.1	22181.89
630.294	22065.16
630.489	21934.09
630.683	22112.26
630.877	21727.24
631.071	21725.19
631.265	21682.19
631.459	21202.96
631.653	21358.61
631.848	21616.65
632.042	21006.36
632.236	21469.2
632.43	21010.45
632.624	20983.83
632.818	20776.98
633.012	20699.16
633.206	20742.17
633.4	20742.17
633.594	20432.93
633.788	20457.5
633.982	20279.33
634.176	20127.78
634.369	19724.33
634.563	19892.26
634.757	20125.73
634.951	20082.72
635.145	19826.73
635.339	19681.32
635.533	19499.05
635.726	19466.28
635.92	19200.05
636.114	19218.48
636.308	19247.15
636.501	19189.81
636.695	18901.04
636.889	18888.76
637.083	18624.57
637.276	18597.95
637.47	18612.28
637.664	18184.26
637.857	18335.81
638.051	18395.2
638.244	18219.07
638.438	17975.36
638.632	17963.08
638.825	17651.78
639.019	17397.84
639.212	17465.42
639.406	17320.01
639.599	17424.46
639.793	17164.37
639.986	17231.95
640.18	17170.51
640.373	17014.87
640.567	17039.44
640.76	16668.76
640.954	16656.47
641.147	16754.77
641.34	16277.6
641.534	16691.29
641.727	16660.57
641.92	16158.81
642.114	16058.46
642.307	16169.05
642.5	15954.02
642.694	15820.9
642.887	15741.03
643.08	15865.96
643.273	15812.71
643.467	15632.49
643.66	15306.86
643.853	15294.57
644.046	14964.85
644.239	15102.06
644.432	15059.06
644.626	15018.1
644.819	14792.82
645.012	14680.18
645.205	14782.58
645.398	14696.57
645.591	14397.56
645.784	14524.54
645.977	14344.31
646.17	14270.59
646.363	14276.73
646.556	14157.95
646.749	13877.38
646.942	14284.92
647.135	13920.38
647.328	13944.96
647.521	13811.84
647.714	13793.41
647.907	13457.54
648.099	13451.4
648.292	13394.06
648.485	13473.93
648.678	13375.63
648.871	13017.23
649.064	12998.8
649.256	13047.95
649.449	12935.31
649.642	12894.35
649.835	12621.97
650.027	12810.39
650.22	12787.86
650.413	12734.61
650.605	12906.64
650.798	12546.2
650.991	12298.39
651.183	12365.98
651.376	12206.24
651.568	12163.23
651.761	12036.25
651.954	12236.95
652.146	12277.91
652.339	12150.94
652.531	11978.91
652.724	11729.06
652.916	11557.03
653.109	11692.19
653.301	11739.3
653.494	11677.86
653.686	11600.04
653.879	11720.87
654.071	11368.62
654.263	11296.94
654.456	11264.17
654.648	11288.75
654.84	10981.55
655.033	11266.22
655.225	11012.27
655.417	10877.1
655.61	10971.31
655.802	10633.4
655.994	10631.35
656.186	10854.58
656.379	10676.4
656.571	10600.63
656.763	10541.24
656.955	10610.87
657.148	10416.31
657.34	10318.01
657.532	10291.38
657.724	10246.33
657.916	10303.67
658.108	10234.04
658.3	10092.73
658.492	10049.72
658.684	9961.66
658.876	10057.92
659.068	9724.1
659.26	9603.27
659.452	9887.93
659.644	9791.68
659.836	9666.75
660.028	9629.89
660.22	9492.68
660.412	9662.66
660.604	9277.64
660.796	9410.76
660.988	9222.34
661.18	9197.77
661.372	9134.28
661.563	9195.72
661.755	9095.37
661.947	9115.85
662.139	9027.79
662.331	9113.8
662.522	8911.05
662.714	8939.72
662.906	8714.45
663.097	8796.37
663.289	8900.81
663.481	8624.34
663.673	8784.08
663.864	8605.91
664.056	8581.33
664.247	8507.6
664.439	8341.72
664.631	8595.67
664.822	8263.9
665.014	8362.2
665.205	8231.13
665.397	8292.57
665.588	8124.63
665.78	8034.52
665.971	7868.64
666.163	8067.29
666.354	7948.51
666.546	7993.56
666.737	7774.43
666.929	8040.67
667.12	7977.18
667.311	7821.53
667.503	7538.91
667.694	7764.19
667.885	7500
668.077	7583.97
668.268	7543.01
668.459	7553.25
668.651	7622.88
668.842	7465.19
669.033	7411.94
669.224	7432.42
669.416	7504.1
669.607	7338.21
669.798	7485.67
669.989	7287.01
670.18	7416.04
670.371	7239.91
670.563	7246.05
670.754	7246.05
670.945	6961.39
671.136	6869.23
671.327	7024.87
671.518	7125.22
671.709	6838.51
671.9	6949.1
672.091	6963.44
672.282	6830.32
672.473	6750.45
672.664	6818.03
672.855	6674.67
673.046	6838.51
673.237	6772.97
673.428	6627.57
673.619	6617.33
673.809	6602.99
674	6537.46
674.191	6625.52
674.382	6594.8
674.573	6629.62
674.764	6416.63
674.954	6756.59
675.145	6242.55
675.336	6441.2
675.527	6496.5
675.717	6498.55
675.908	6322.42
676.099	6512.88
676.289	6344.95
676.48	6285.56
676.671	6430.96
676.861	6414.58
677.052	6172.92
677.243	6297.85
677.433	6162.68
677.624	6301.94
677.814	6107.38
678.005	6252.79
678.195	6260.98
678.386	6158.58
678.576	6033.66
678.767	5925.11
678.957	6101.24
679.148	6117.62
679.338	6234.36
679.529	6064.38
679.719	5865.72
679.909	6037.75
680.1	5984.51
680.29	6052.09
680.481	6002.94
680.671	5931.26
680.861	5884.16
681.052	5939.45
681.242	5970.17
681.432	6019.32
681.622	5726.46
681.813	5816.57
682.003	5855.48
682.193	5687.55
682.383	5849.34
682.573	5683.45
682.764	5699.84
682.954	5875.96
683.144	5822.72
683.334	5748.99
683.524	5808.38
683.714	5867.77
683.904	5554.43
684.094	5691.65
684.284	5540.1
684.474	5619.97
684.664	5593.34
684.854	5767.42
685.044	5656.83
685.234	5511.43
685.424	5609.73
685.614	5615.87
685.804	5570.82
685.994	5415.17
686.184	5554.43
686.374	5445.89
686.564	5474.56
686.753	5318.92
686.943	5392.64
687.133	5533.95
687.323	5466.37
687.513	5439.75
687.702	5437.7
687.892	5421.31
688.082	5243.14
688.272	5341.44
688.461	5241.09
688.651	5228.81
688.841	5179.65
689.03	5284.1
689.22	5243.14
689.41	5185.8
689.599	5204.23
689.789	5112.07
689.979	5126.41
690.168	5216.52
690.358	5232.9
690.547	5013.77
690.737	5091.59
690.926	5085.45
691.116	5075.21
691.305	5114.12
691.495	4851.98
691.684	4940.04
691.874	5052.68
692.063	4987.15
692.252	4989.19
692.442	5114.12
692.631	4913.42
692.82	4913.42
693.01	4946.19
693.199	4833.55
693.388	4792.59
693.578	4823.31
693.767	4817.16
693.956	4747.53
694.146	4864.27
694.335	4835.6
694.524	4704.53
694.713	4921.61
694.902	4845.84
695.092	4745.48
695.281	4636.94
695.47	4671.76
695.659	4643.09
695.848	4661.52
696.037	4710.67
696.226	4745.48
696.415	4702.48
696.604	4628.75
696.793	4692.24
696.982	4536.59
697.171	4675.85
697.36	4667.66
697.549	4634.89
697.738	4479.25
697.927	4538.64
698.116	4536.59
698.305	4538.64
698.494	4614.41
698.683	4503.82
698.872	4489.49
699.061	4505.87
699.25	4407.57
699.438	4555.02
699.627	4487.44
699.816	4428.05
700.005	4397.33
700.193	4292.88
700.382	4358.42
700.571	4370.71
700.76	4440.34
700.948	4253.97
701.137	4284.69
701.326	4462.87
701.514	4249.88
701.703	4376.85
701.892	4319.51
702.08	4397.33
702.269	4301.08
702.457	4172.05
702.646	4165.91
702.834	4188.44
703.023	4241.68
703.212	4221.2
703.4	4167.96
703.589	4098.33
703.777	4196.63
703.965	4167.96
704.154	4307.22
704.342	4110.61
704.531	4143.38
704.719	4131.09
704.907	4172.05
705.096	4122.9
705.284	4028.7
705.472	3971.35
705.661	3975.45
705.849	4077.85
706.037	4129.05
706.226	4004.12
706.414	4000.02
706.602	3891.48
706.79	4038.94
706.979	3946.78
707.167	3942.68
707.355	3895.58
707.543	3932.44
707.731	3993.88
707.919	3852.57
708.107	3938.59
708.296	3815.71
708.484	3713.31
708.672	3760.41
708.86	3844.38
709.048	3817.76
709.236	3877.15
709.424	3727.64
709.612	3690.78
709.8	3809.56
709.988	3692.83
710.176	3778.84
710.364	3756.32
710.551	3784.99
710.739	3719.45
710.927	3645.73
711.115	3690.78
711.303	3701.02
711.491	3660.06
711.679	3590.43
711.866	3793.18
712.054	3637.53
712.242	3416.35
712.43	3582.24
712.617	3592.48
712.805	3645.73
712.993	3518.75
713.181	3623.2
713.368	3600.67
713.556	3631.39
713.744	3404.07
713.931	3569.95
714.119	3520.8
714.306	3447.07
714.494	3522.85
714.682	3434.78
714.869	3393.83
715.057	3387.68
715.244	3422.5
715.432	3488.03
715.619	3359.01
715.807	3459.36
715.994	3402.02
716.182	3342.63
716.369	3209.51
716.556	3385.63
716.744	3328.29
716.931	3365.15
717.119	3307.81
717.306	3270.95
717.493	3324.19
717.681	3318.05
717.868	3234.08
718.055	3346.72
718.242	3248.42
718.43	3182.88
718.617	3258.66
718.804	3309.86
718.991	3205.41
719.179	3234.08
719.366	3168.55
719.553	3174.69
719.74	3107.11
719.927	2963.75
720.114	3137.83
720.301	3115.3
720.488	3105.06
720.676	3080.49
720.863	3168.55
721.05	3045.67
721.237	3053.86
721.424	3039.53
721.611	3004.71
721.798	2949.42
721.985	3092.77
722.172	3121.45
722.358	3062.05
722.545	3025.19
722.732	2834.73
722.919	2969.9
723.106	2963.75
723.293	2910.5
723.48	2986.28
723.667	2894.12
723.853	2980.14
724.04	3000.62
724.227	2883.88
724.414	3043.62
724.6	2781.48
724.787	2914.6
724.974	2871.59
725.161	2916.65
725.347	2939.18
725.534	2857.26
725.72	2804.01
725.907	2791.72
726.094	2822.44
726.28	2771.24
726.467	2697.52
726.653	2924.84
726.84	2853.16
727.027	2912.55
727.213	2771.24
727.4	2775.34
727.586	2724.14
727.773	2799.91
727.959	2771.24
728.145	2791.72
728.332	2859.31
728.518	2738.48
728.705	2787.63
728.891	2713.9
729.077	2629.93
729.264	2619.69
729.45	2730.28
729.636	2812.2
729.823	2654.51
730.009	2607.41
730.195	2500.91
730.382	2636.08
730.568	2636.08
730.754	2623.79
730.94	2699.56
731.126	2730.28
731.313	2715.95
731.499	2629.93
731.685	2740.52
731.871	2578.73
732.057	2595.12
732.243	2654.51
732.429	2578.73
732.615	2486.58
732.801	2490.67
732.987	2580.78
733.173	2533.68
733.359	2515.25
733.545	2492.72
733.731	2556.21
733.917	2521.39
734.103	2537.77
734.289	2435.38
734.475	2392.37
734.661	2566.45
734.847	2394.42
735.033	2488.62
735.219	2525.49
735.404	2513.2
735.59	2404.66
735.776	2433.33
735.962	2609.45
736.148	2414.9
736.333	2455.86
736.519	2324.79
736.705	2416.94
736.89	2390.32
737.076	2345.27
737.262	2285.87
737.447	2439.47
737.633	2353.46
737.819	2402.61
738.004	2287.92
738.19	2355.51
738.375	2249.01
738.561	2359.6
738.747	2406.7
738.932	2292.02
739.118	2335.03
739.303	2265.39
739.489	2306.35
739.674	2304.31
739.859	2269.49
740.045	2240.82
740.23	2279.73
740.416	2244.92
740.601	2267.44
740.786	2232.63
740.972	2144.56
741.157	2029.88
741.342	2212.15
741.528	2130.23
741.713	2230.58
741.898	2212.15
742.084	2160.95
742.269	2146.61
742.454	2027.83
742.639	2169.14
742.824	2083.13
743.01	2054.45
743.195	2160.95
743.38	2009.4
743.565	2079.03
743.75	2038.07
743.935	2031.93
744.12	1968.44
744.305	1960.25
744.49	2017.59
744.675	1935.67
744.86	2005.3
745.045	1997.11
745.23	1974.58
745.415	1925.43
745.6	2038.07
745.785	1927.48
745.97	1915.19
746.155	1954.1
746.34	1925.43
746.525	1917.24
746.71	1853.75
746.895	1794.36
747.079	1888.57
747.264	1796.41
747.449	1898.81
747.634	1845.56
747.819	1868.09
748.003	1810.75
748.188	1710.4
748.373	1726.78
748.557	1718.59
748.742	1818.94
748.927	1675.58
749.111	1653.05
749.296	1653.05
749.481	1737.02
749.665	1687.87
749.85	1691.96
750.034	1757.5
750.219	1712.44
750.404	1620.28
750.588	1698.11
750.773	1638.72
750.957	1581.37
751.141	1622.33
751.326	1612.09
751.51	1597.76
751.695	1620.28
751.879	1636.67
752.064	1497.41
752.248	1524.03
752.432	1530.17
752.617	1513.79
752.801	1605.95
752.985	1460.54
753.17	1571.13
753.354	1489.21
753.538	1478.97
753.722	1442.11
753.907	1390.91
754.091	1485.12
754.275	1444.16
754.459	1335.62
754.643	1347.9
754.828	1311.04
755.012	1366.34
755.196	1317.19
755.38	1343.81
755.564	1300.8
755.748	1278.27
755.932	1276.23
756.116	1270.08
756.3	1343.81
756.484	1415.49
756.668	1337.66
756.852	1280.32
757.036	1352
757.22	1311.04
757.404	1147.2
757.588	1239.36
757.772	1214.79
757.956	1237.31
758.14	1302.85
758.323	1186.12
758.507	1214.79
758.691	1155.4
758.875	1282.37
759.059	1302.85
759.242	1220.93
759.426	1136.96
759.61	1220.93
759.794	1184.07
759.977	1161.54
760.161	1270.08
760.345	1151.3
760.528	1214.79
760.712	1063.24
760.895	1198.4
761.079	1087.81
761.263	1040.71
761.446	1108.29
761.63	1106.24
761.813	1161.54
761.997	1030.47
762.18	1061.19
762.364	1155.4
762.547	1022.28
762.731	1114.44
762.914	1009.99
763.098	1079.62
763.281	966.98
763.464	1003.85
763.648	1030.47
763.831	1007.94
764.015	1016.13
764.198	1065.29
764.381	1055.05
764.564	1003.85
764.748	1005.89
764.931	1007.94
765.114	915.78
765.297	1116.48
765.481	891.21
765.664	1016.13
765.847	921.93
766.03	1003.85
766.213	1026.37
766.397	889.16
766.58	1005.89
766.763	975.17
766.946	958.79
767.129	948.55
767.312	991.56
767.495	907.59
767.678	977.22
767.861	979.27
768.044	973.13
768.227	891.21
768.41	936.26
768.593	911.69
768.776	917.83
768.959	874.82
769.142	921.93
769.324	932.17
769.507	934.22
769.69	917.83
769.873	919.88
770.056	969.03
770.239	889.16
770.421	903.5
770.604	893.26
770.787	887.11
770.97	868.68
771.152	817.48
771.335	909.64
771.518	862.54
771.7	858.44
771.883	932.17
772.066	842.06
772.248	891.21
772.431	809.29
772.613	813.38
772.796	844.1
772.978	883.02
773.161	827.72
773.343	776.52
773.526	756.04
773.708	850.25
773.891	794.95
774.073	768.33
774.256	860.49
774.438	852.3
774.621	743.75
774.803	792.91
774.985	786.76
775.168	739.66
775.35	710.99
775.532	758.09
775.715	719.18
775.897	678.22
776.079	768.33
776.261	831.82
776.444	756.04
776.626	690.51
776.808	702.79
776.99	731.47
777.173	846.15
777.355	719.18
777.537	715.08
777.719	688.46
777.901	715.08
778.083	706.89
778.265	641.36
778.447	784.71
778.629	710.99
778.811	739.66
778.993	622.92
779.175	676.17
779.357	659.79
779.539	665.93
779.721	604.49
779.903	629.07
780.085	610.64
780.267	670.03
780.449	598.35
780.631	700.75
780.812	590.16
780.994	624.97
781.176	573.77
781.358	655.69
781.54	575.82
781.721	596.3
781.903	592.2
782.085	610.64
782.267	526.67
782.448	510.29
782.63	530.77
782.812	555.34
782.993	563.53
783.175	522.57
783.357	483.66
783.538	481.61
783.72	555.34
783.901	475.47
784.083	528.72
784.264	500.05
784.446	461.13
784.627	448.85
784.809	598.35
784.99	461.13
785.172	424.27
785.353	479.57
785.535	518.48
785.716	473.42
785.897	485.71
786.079	424.27
786.26	510.29
786.441	483.66
786.623	436.56
786.804	461.13
786.985	436.56
787.167	454.99
787.348	489.81
787.529	428.37
787.71	498
787.891	475.47
788.073	514.38
788.254	422.22
788.435	407.89
788.616	448.85
788.797	489.81
788.978	459.09
789.159	375.12
789.34	485.71
789.522	399.7
789.703	405.84
789.884	450.89
790.065	450.89
790.246	516.43
790.427	377.17
790.607	426.32
790.788	399.7
790.969	440.65
791.15	414.03
791.331	336.21
791.512	334.16
791.693	354.64
791.874	416.08
792.054	448.85
792.235	418.13
792.416	434.51
792.597	360.78
792.778	305.49
792.958	342.35
793.139	342.35
793.32	328.02
793.5	350.54
793.681	434.51
793.862	358.74
794.042	328.02
794.223	338.26
794.404	340.3
794.584	301.39
794.765	323.92
794.945	330.06
795.126	278.87
795.306	328.02
795.487	260.43
795.667	344.4
795.848	325.97
796.028	270.67
796.209	371.02
796.389	309.58
796.57	266.58
796.75	254.29
796.93	434.51
797.111	246.1
797.291	289.1
797.471	287.06
797.652	311.63
797.832	282.96
798.012	252.24
798.192	268.63
798.373	319.82
798.553	256.34
798.733	342.35
798.913	278.87
799.093	301.39
799.274	258.39
799.454	227.67
799.634	293.2
799.814	379.22
799.994	307.54
800.174	323.92
800.354	237.91
800.534	207.19
800.714	235.86
800.894	264.53
801.074	307.54
801.254	258.39
801.434	235.86
801.614	164.18
801.794	205.14
801.974	1048.9
802.154	246.1
802.334	366.93
802.514	178.51
802.693	278.87
802.873	178.51
803.053	328.02
803.233	293.2
803.413	223.57
803.592	276.82
803.772	219.47
803.952	285.01
804.131	188.75
804.311	231.76
804.491	268.63
804.67	190.8
804.85	293.2
805.03	272.72
805.209	295.25
805.389	196.95
805.568	252.24
805.748	178.51
805.928	260.43
806.107	250.19
806.287	225.62
806.466	172.37
806.646	219.47
806.825	207.19
807.004	155.99
807.184	215.38
807.363	244.05
807.543	282.96
807.722	188.75
807.901	276.82
808.081	276.82
808.26	129.36
808.439	96.6
808.619	115.03
808.798	170.32
808.977	227.67
809.156	264.53
809.336	155.99
809.515	229.71
809.694	155.99
809.873	182.61
810.052	186.71
810.231	211.28
810.411	123.22
810.59	172.37
810.769	141.65
810.948	190.8
811.127	117.08
811.306	162.13
811.485	123.22
811.664	239.95
811.843	205.14
812.022	155.99
812.201	203.09
812.38	162.13
812.559	196.95
812.737	235.86
812.916	158.03
813.095	164.18
813.274	188.75
813.453	125.27
813.632	198.99
813.811	203.09
813.989	182.61
814.168	254.29
814.347	149.84
814.526	186.71
814.704	153.94
814.883	266.58
815.062	94.55
815.24	170.32
815.419	98.64
815.598	139.6
815.776	80.21
815.955	145.75
816.133	110.93
816.312	155.99
816.49	80.21
816.669	215.38
816.847	168.27
817.026	205.14
817.204	137.56
817.383	186.71
817.561	178.51
817.74	151.89
817.918	155.99
818.097	121.17
818.275	180.56
818.453	72.02
818.632	78.16
818.81	127.32
818.988	80.21
819.167	147.8
819.345	137.56
819.523	131.41
819.701	178.51
819.879	115.03
820.058	59.73
820.236	178.51
820.414	155.99
820.592	121.17
820.77	129.36
820.948	145.75
821.127	72.02
821.305	137.56
821.483	112.98
821.661	166.23
821.839	129.36
822.017	170.32
822.195	166.23
822.373	239.95
822.551	129.36
822.729	186.71
822.907	145.75
823.085	235.86
823.262	145.75
823.44	67.92
823.618	178.51
823.796	137.56
823.974	104.79
824.152	98.64
824.329	121.17
824.507	133.46
824.685	108.88
824.863	24.92
825.04	104.79
825.218	123.22
825.396	137.56
825.574	123.22
825.751	88.4
825.929	149.84
826.107	119.12
826.284	162.13
826.462	186.71
826.639	100.69
826.817	41.3
826.994	123.22
827.172	18.77
827.349	153.94
827.527	39.25
827.704	162.13
827.882	137.56
828.059	104.79
828.237	76.12
828.414	141.65
828.591	-20.14
828.769	190.8
828.946	112.98
829.124	145.75
829.301	155.99
829.478	67.92
829.655	86.36
829.833	137.56
830.01	100.69
830.187	149.84
830.364	137.56
830.542	96.6
830.719	221.52
830.896	123.22
831.073	112.98
831.25	131.41
831.427	121.17
831.604	106.84
831.782	96.6
831.959	49.49
832.136	131.41
832.313	80.21
832.49	76.12
832.667	104.79
832.844	90.45
833.021	125.27
833.198	98.64
833.374	74.07
833.551	49.49
833.728	72.02
833.905	22.87
834.082	45.4
834.259	72.02
834.436	90.45
834.612	72.02
834.789	57.68
834.966	131.41
835.143	72.02
835.319	39.25
835.496	125.27
835.673	80.21
835.85	123.22
836.026	108.88
836.203	125.27
836.38	43.35
836.556	88.4
836.733	51.54
836.909	121.17
837.086	72.02
837.262	37.2
837.439	162.13
837.616	72.02
837.792	-18.09
837.968	55.64
838.145	45.4
838.321	14.68
838.498	39.25
838.674	106.84
838.851	55.64
839.027	37.2
839.203	115.03
839.38	67.92
839.556	39.25
839.732	129.36
839.909	104.79
840.085	43.35
840.261	74.07
840.437	100.69
840.614	112.98
840.79	112.98
840.966	43.35
841.142	82.26
841.318	63.83
841.494	123.22
841.671	119.12
841.847	39.25
842.023	31.06
842.199	88.4
842.375	170.32
842.551	-24.23
842.727	24.92
842.903	137.56
843.079	63.83
843.255	121.17
843.431	57.68
843.607	117.08
843.783	-22.19
843.959	153.94
844.134	57.68
844.31	106.84
844.486	16.73
844.662	22.87
844.838	47.44
845.013	106.84
845.189	127.32
845.365	74.07
845.541	-5.8
845.716	31.06
845.892	55.64
846.068	41.3
846.244	61.78
846.419	145.75
846.595	18.77
846.77	14.68
846.946	123.22
847.122	8.53
847.297	14.68
847.473	139.6
847.648	29.01
847.824	35.16
847.999	94.55
848.175	115.03
848.35	31.06
848.526	112.98
848.701	137.56
848.876	2.39
849.052	80.21
849.227	55.64
849.403	29.01
849.578	6.49
849.753	82.26
849.929	47.44
850.104	-26.28
850.279	74.07
850.454	74.07
850.63	100.69
850.805	43.35
850.98	55.64
851.155	84.31
851.33	88.4
851.505	-32.43
851.681	106.84
851.856	10.58
852.031	74.07
852.206	65.88
852.381	33.11
852.556	-34.47
852.731	6.49
852.906	82.26
853.081	22.87
853.256	88.4
853.431	82.26
853.606	39.25
853.781	115.03
853.956	-13.99
854.131	16.73
854.305	49.49
854.48	18.77
854.655	49.49
854.83	-9.9
855.005	72.02
855.18	-13.99
855.354	-11.95
855.529	55.64
855.704	22.87
855.879	10.58
856.053	-57
856.228	88.4
856.403	16.73
856.577	-7.85
856.752	35.16
856.926	-1.71
857.101	26.96
857.276	-22.19
857.45	33.11
857.625	92.5
857.799	47.44
857.974	-7.85
858.148	22.87
858.323	24.92
858.497	-5.8
858.672	41.3
858.846	53.59
859.02	22.87
859.195	51.54
859.369	-1.71
859.543	63.83
859.718	24.92
859.892	49.49
860.066	41.3
860.241	39.25
860.415	108.88
860.589	74.07
860.763	65.88
860.938	-30.38
861.112	67.92
861.286	-22.19
861.46	72.02
861.634	43.35
861.808	35.16
861.982	0.34
862.157	31.06
862.331	18.77
862.505	153.94
862.679	-1.71
862.853	-1.71
863.027	-13.99
863.201	67.92
863.375	-26.28
863.549	8.53
863.722	47.44
863.896	162.13
864.07	41.3
864.244	88.4
864.418	31.06
864.592	76.12
864.766	88.4
864.939	98.64
865.113	61.78
865.287	100.69
865.461	-42.67
865.634	16.73
865.808	61.78
865.982	-18.09
866.156	0.34
866.329	33.11
866.503	-5.8
866.676	-9.9
866.85	76.12
867.024	-9.9
867.197	49.49
867.371	100.69
867.544	-9.9
867.718	35.16
867.891	18.77
868.065	-38.57
868.238	47.44
868.412	84.31
868.585	96.6
868.759	-18.09
868.932	6.49
869.105	0.34
869.279	10.58
869.452	14.68
869.625	51.54
869.799	-1.71
869.972	4.44
870.145	8.53
870.319	24.92
870.492	82.26
870.665	16.73
870.838	-5.8
871.011	8.53
871.185	41.3
871.358	6.49
871.531	-18.09
871.704	39.25
871.877	-7.85
872.05	51.54
872.223	10.58
872.396	80.21
872.569	6.49
872.742	-18.09
872.915	-9.9
873.088	20.82
873.261	29.01
873.434	33.11
873.607	-3.75
873.78	65.88
873.953	14.68
874.126	-13.99
874.299	92.5
874.471	20.82
874.644	31.06
874.817	57.68
874.99	104.79
875.163	-32.43
875.335	26.96
875.508	-1.71
875.681	55.64
875.853	24.92
876.026	-24.23
876.199	-5.8
876.371	-42.67
876.544	31.06
876.717	84.31
876.889	22.87
877.062	24.92
877.234	51.54
877.407	14.68
877.579	-44.71
877.752	55.64
877.924	98.64
878.097	41.3
878.269	90.45
878.442	51.54
878.614	-5.8
878.786	16.73
878.959	16.73
879.131	6.49
879.303	-18.09
879.476	37.2
879.648	90.45
879.82	61.78
879.993	2.39
880.165	-40.62
880.337	8.53
880.509	2.39
880.681	-46.76
880.854	-18.09
881.026	63.83
881.198	137.56
881.37	-3.75
881.542	26.96
881.714	-48.81
881.886	41.3
882.058	84.31
882.23	31.06
882.402	47.44
882.574	-16.04
882.746	59.73
882.918	-1.71
883.09	90.45
883.262	-26.28
883.434	84.31
883.606	-32.43
883.778	-36.52
883.95	22.87
884.122	12.63
884.293	41.3
884.465	14.68
884.637	129.36
884.809	-75.43
884.98	33.11
885.152	55.64
885.324	-36.52
885.496	57.68
885.667	29.01
885.839	57.68
886.011	88.4
886.182	20.82
886.354	18.77
886.525	26.96
886.697	49.49
886.869	-9.9
887.04	31.06
887.212	104.79
887.383	6.49
887.555	-18.09
887.726	43.35
887.897	-40.62
888.069	35.16
888.24	59.73
888.412	69.97
888.583	31.06
888.754	-40.62
888.926	-52.91
889.097	47.44
889.268	22.87
889.44	-22.19
889.611	-3.75
889.782	-24.23
889.953	18.77
890.125	80.21
890.296	-9.9
890.467	-44.71
890.638	26.96
890.809	125.27
890.98	-9.9
891.151	6.49
891.323	74.07
891.494	31.06
891.665	47.44
891.836	33.11
892.007	-16.04
892.178	-1.71
892.349	59.73
892.52	-24.23
892.691	33.11
892.862	-30.38
893.032	-65.19
893.203	-22.19
893.374	-1.71
893.545	-5.8
893.716	-9.9
893.887	69.97
894.057	43.35
894.228	67.92
894.399	10.58
894.57	33.11
894.74	37.2
894.911	55.64
895.082	55.64
895.253	-7.85
895.423	-13.99
895.594	55.64
895.764	45.4
895.935	16.73
896.106	45.4
896.276	-32.43
896.447	10.58
896.617	-30.38
896.788	31.06
896.958	-24.23
897.129	24.92
897.299	-44.71
897.47	31.06
897.64	47.44
897.81	41.3
897.981	-46.76
898.151	-32.43
898.322	57.68
898.492	-63.15
898.662	-18.09
898.832	16.73
899.003	14.68
899.173	24.92
899.343	49.49
899.513	-1.71
