Data from USB4F104151__84__14-30-35-322.txt Node

Date: Thu Mar 13 14:30:35 EDT 2025
User: louis
Spectrometer: USB4F10415
Trigger mode: 4
Integration Time (sec): 2.500000E-2
Scans to average: 1
Electric dark correction enabled: true
Nonlinearity correction enabled: false
Boxcar width: 0
XAxis mode: Wavelengths
Number of Pixels in Spectrum: 3648
>>>>>Begin Spectral Data<<<<<
178.204	-229.54
178.424	-229.54
178.644	-229.54
178.864	-219.3
179.084	-194.73
179.304	-30.89
179.524	30.55
179.744	-12.46
179.964	8.02
180.184	-47.27
180.404	-49.32
180.624	1.88
180.844	26.45
181.064	20.31
181.283	57.17
181.503	8.02
181.723	-12.46
181.943	-49.32
182.163	53.08
182.383	-28.84
182.602	14.17
182.822	16.21
183.042	28.5
183.262	-4.27
183.482	24.4
183.701	57.17
183.921	34.64
184.141	48.98
184.361	53.08
184.58	42.84
184.8	16.21
185.02	-49.32
185.239	83.8
185.459	24.4
185.679	18.26
185.898	-6.31
186.118	48.98
186.338	36.69
186.557	75.6
186.777	44.88
186.997	24.4
187.216	-69.8
187.436	65.36
187.655	98.13
187.875	98.13
188.095	22.36
188.314	20.31
188.534	65.36
188.753	40.79
188.973	73.56
189.192	67.41
189.412	-47.27
189.631	16.21
189.851	34.64
190.07	57.17
190.29	-86.19
190.509	73.56
190.729	-14.51
190.948	75.6
191.168	173.91
191.387	75.6
191.607	81.75
191.826	34.64
192.045	-24.75
192.265	102.23
192.484	98.13
192.704	57.17
192.923	-73.9
193.142	83.8
193.362	81.75
193.581	48.98
193.8	10.07
194.02	83.8
194.239	116.56
194.458	42.84
194.678	51.03
194.897	34.64
195.116	5.97
195.335	-20.65
195.555	67.41
195.774	12.12
195.993	65.36
196.212	34.64
196.432	-8.36
196.651	26.45
196.87	24.4
197.089	98.13
197.308	12.12
197.528	40.79
197.747	-41.13
197.966	51.03
198.185	59.22
198.404	26.45
198.623	20.31
198.842	81.75
199.062	57.17
199.281	32.6
199.5	8.02
199.719	65.36
199.938	20.31
200.157	-16.55
200.376	42.84
200.595	26.45
200.814	81.75
201.033	36.69
201.252	14.17
201.471	42.84
201.69	24.4
201.909	81.75
202.128	114.52
202.347	77.65
202.566	59.22
202.785	-24.75
203.004	-8.36
203.223	102.23
203.442	-82.09
203.661	-53.42
203.879	40.79
204.098	1.88
204.317	67.41
204.536	40.79
204.755	32.6
204.974	130.9
205.193	-37.03
205.411	-16.55
205.63	61.27
205.849	-6.31
206.068	51.03
206.287	-39.08
206.505	59.22
206.724	32.6
206.943	16.21
207.162	59.22
207.381	-24.75
207.599	3.93
207.818	40.79
208.037	26.45
208.255	-8.36
208.474	57.17
208.693	18.26
208.911	5.97
209.13	18.26
209.349	57.17
209.567	24.4
209.786	53.08
210.005	-10.41
210.223	81.75
210.442	-41.13
210.661	16.21
210.879	-20.65
211.098	24.4
211.316	1.88
211.535	8.02
211.753	59.22
211.972	59.22
212.191	-37.03
212.409	48.98
212.628	-16.55
212.846	-24.75
213.065	44.88
213.283	1.88
213.502	-6.31
213.72	26.45
213.938	65.36
214.157	122.71
214.375	91.99
214.594	36.69
214.812	40.79
215.031	32.6
215.249	34.64
215.467	8.02
215.686	48.98
215.904	61.27
216.122	46.93
216.341	91.99
216.559	53.08
216.778	32.6
216.996	-34.99
217.214	8.02
217.432	48.98
217.651	24.4
217.869	-41.13
218.087	-8.36
218.306	48.98
218.524	69.46
218.742	24.4
218.96	73.56
219.179	-0.17
219.397	14.17
219.615	32.6
219.833	18.26
220.051	-4.27
220.27	3.93
220.488	110.42
220.706	8.02
220.924	20.31
221.142	26.45
221.36	46.93
221.578	55.12
221.796	57.17
222.015	46.93
222.233	51.03
222.451	1.88
222.669	-8.36
222.887	-0.17
223.105	-0.17
223.323	55.12
223.541	-82.09
223.759	-32.94
223.977	34.64
224.195	57.17
224.413	12.12
224.631	124.76
224.849	24.4
225.067	77.65
225.285	-32.94
225.503	-22.7
225.721	-30.89
225.939	87.89
226.157	-6.31
226.375	141.14
226.592	-18.6
226.81	-22.7
227.028	67.41
227.246	-6.31
227.464	-8.36
227.682	63.32
227.9	34.64
228.117	8.02
228.335	77.65
228.553	-10.41
228.771	48.98
228.989	67.41
229.206	10.07
229.424	-6.31
229.642	34.64
229.86	48.98
230.077	106.32
230.295	59.22
230.513	122.71
230.731	20.31
230.948	51.03
231.166	73.56
231.384	16.21
231.601	-14.51
231.819	48.98
232.037	-16.55
232.254	12.12
232.472	22.36
232.689	-49.32
232.907	42.84
233.125	44.88
233.342	-6.31
233.56	44.88
233.777	-0.17
233.995	42.84
234.213	79.7
234.43	94.04
234.648	-14.51
234.865	-8.36
235.083	28.5
235.3	-47.27
235.518	57.17
235.735	57.17
235.953	132.95
236.17	26.45
236.388	28.5
236.605	81.75
236.822	71.51
237.04	53.08
237.257	120.66
237.475	-14.51
237.692	-22.7
237.909	28.5
238.127	-6.31
238.344	77.65
238.562	98.13
238.779	53.08
238.996	-47.27
239.214	1.88
239.431	-18.6
239.648	48.98
239.865	48.98
240.083	1.88
240.3	-0.17
240.517	-77.99
240.735	-4.27
240.952	96.08
241.169	51.03
241.386	16.21
241.603	-14.51
241.821	5.97
242.038	94.04
242.255	67.41
242.472	16.21
242.689	48.98
242.907	20.31
243.124	22.36
243.341	34.64
243.558	-49.32
243.775	-37.03
243.992	-90.28
244.209	-16.55
244.426	110.42
244.643	98.13
244.86	26.45
245.078	48.98
245.295	51.03
245.512	51.03
245.729	59.22
245.946	16.21
246.163	53.08
246.38	24.4
246.597	106.32
246.814	65.36
247.031	16.21
247.248	-0.17
247.464	24.4
247.681	40.79
247.898	87.89
248.115	77.65
248.332	3.93
248.549	24.4
248.766	124.76
248.983	173.91
249.2	104.28
249.417	65.36
249.633	48.98
249.85	61.27
250.067	18.26
250.284	-53.42
250.501	46.93
250.717	53.08
250.934	-26.79
251.151	40.79
251.368	71.51
251.585	-14.51
251.801	26.45
252.018	18.26
252.235	22.36
252.451	20.31
252.668	24.4
252.885	28.5
253.102	67.41
253.318	-30.89
253.535	12.12
253.752	77.65
253.968	-8.36
254.185	-47.27
254.401	53.08
254.618	61.27
254.835	26.45
255.051	40.79
255.268	69.46
255.484	81.75
255.701	-0.17
255.917	16.21
256.134	8.02
256.351	10.07
256.567	12.12
256.784	-55.47
257	28.5
257.217	114.52
257.433	-22.7
257.65	81.75
257.866	24.4
258.082	-65.71
258.299	32.6
258.515	36.69
258.732	40.79
258.948	40.79
259.165	77.65
259.381	91.99
259.597	71.51
259.814	65.36
260.03	34.64
260.246	32.6
260.463	75.6
260.679	81.75
260.895	-32.94
261.112	28.5
261.328	30.55
261.544	30.55
261.761	128.85
261.977	-4.27
262.193	-16.55
262.409	16.21
262.626	89.94
262.842	34.64
263.058	-34.99
263.274	104.28
263.49	5.97
263.707	143.19
263.923	53.08
264.139	-6.31
264.355	75.6
264.571	57.17
264.787	89.94
265.004	-0.17
265.22	34.64
265.436	24.4
265.652	-30.89
265.868	28.5
266.084	-0.17
266.3	48.98
266.516	8.02
266.732	83.8
266.948	8.02
267.164	-24.75
267.38	-49.32
267.596	3.93
267.812	10.07
268.028	53.08
268.244	32.6
268.46	8.02
268.676	-65.71
268.892	57.17
269.108	18.26
269.324	8.02
269.54	-18.6
269.756	116.56
269.972	-77.99
270.188	24.4
270.403	18.26
270.619	16.21
270.835	30.55
271.051	26.45
271.267	83.8
271.483	44.88
271.698	1.88
271.914	34.64
272.13	57.17
272.346	26.45
272.562	8.02
272.777	42.84
272.993	51.03
273.209	-14.51
273.425	96.08
273.64	-32.94
273.856	57.17
274.072	12.12
274.287	3.93
274.503	59.22
274.719	12.12
274.934	36.69
275.15	59.22
275.366	12.12
275.581	1.88
275.797	20.31
276.012	40.79
276.228	73.56
276.444	30.55
276.659	89.94
276.875	-8.36
277.09	1.88
277.306	30.55
277.521	98.13
277.737	65.36
277.952	16.21
278.168	63.32
278.383	-82.09
278.599	75.6
278.814	-12.46
279.03	-0.17
279.245	75.6
279.461	36.69
279.676	-30.89
279.892	-53.42
280.107	1.88
280.322	32.6
280.538	59.22
280.753	40.79
280.969	44.88
281.184	36.69
281.399	122.71
281.615	104.28
281.83	16.21
282.045	-37.03
282.26	42.84
282.476	61.27
282.691	44.88
282.906	-20.65
283.122	91.99
283.337	67.41
283.552	59.22
283.767	-55.47
283.983	53.08
284.198	12.12
284.413	10.07
284.628	-37.03
284.843	73.56
285.058	16.21
285.274	24.4
285.489	-2.22
285.704	114.52
285.919	-45.23
286.134	75.6
286.349	18.26
286.564	-22.7
286.779	30.55
286.995	53.08
287.21	3.93
287.425	44.88
287.64	12.12
287.855	67.41
288.07	-4.27
288.285	69.46
288.5	-45.23
288.715	53.08
288.93	32.6
289.145	-20.65
289.36	65.36
289.575	-30.89
289.79	75.6
290.004	-0.17
290.219	89.94
290.434	42.84
290.649	-20.65
290.864	67.41
291.079	53.08
291.294	16.21
291.509	-18.6
291.724	91.99
291.938	48.98
292.153	16.21
292.368	32.6
292.583	32.6
292.798	102.23
293.012	-24.75
293.227	61.27
293.442	-16.55
293.657	16.21
293.871	24.4
294.086	100.18
294.301	94.04
294.516	63.32
294.73	26.45
294.945	24.4
295.16	-12.46
295.374	40.79
295.589	-34.99
295.804	-26.79
296.018	83.8
296.233	51.03
296.447	30.55
296.662	-20.65
296.877	67.41
297.091	57.17
297.306	-6.31
297.52	30.55
297.735	65.36
297.949	-4.27
298.164	-75.95
298.378	77.65
298.593	18.26
298.807	-8.36
299.022	-8.36
299.236	100.18
299.451	-63.66
299.665	-0.17
299.88	-8.36
300.094	71.51
300.309	-0.17
300.523	-49.32
300.737	-51.37
300.952	12.12
301.166	59.22
301.381	-37.03
301.595	-4.27
301.809	-22.7
302.024	83.8
302.238	-2.22
302.452	73.56
302.667	67.41
302.881	75.6
303.095	-8.36
303.309	98.13
303.524	-14.51
303.738	108.37
303.952	-0.17
304.166	81.75
304.381	-18.6
304.595	67.41
304.809	22.36
305.023	-20.65
305.237	28.5
305.452	-37.03
305.666	98.13
305.88	14.17
306.094	-34.99
306.308	24.4
306.522	85.84
306.736	-24.75
306.95	36.69
307.164	-14.51
307.379	8.02
307.593	42.84
307.807	8.02
308.021	-6.31
308.235	-22.7
308.449	-10.41
308.663	30.55
308.877	147.28
309.091	-0.17
309.305	122.71
309.519	14.17
309.733	118.61
309.947	-39.08
310.161	8.02
310.374	36.69
310.588	85.84
310.802	-4.27
311.016	40.79
311.23	-12.46
311.444	5.97
311.658	24.4
311.872	100.18
312.085	16.21
312.299	59.22
312.513	24.4
312.727	24.4
312.941	42.84
313.154	73.56
313.368	34.64
313.582	-2.22
313.796	48.98
314.009	32.6
314.223	8.02
314.437	-18.6
314.651	8.02
314.864	51.03
315.078	12.12
315.292	32.6
315.505	38.74
315.719	24.4
315.933	20.31
316.146	-28.84
316.36	24.4
316.573	48.98
316.787	65.36
317.001	12.12
317.214	61.27
317.428	-12.46
317.641	14.17
317.855	75.6
318.068	32.6
318.282	79.7
318.495	128.85
318.709	96.08
318.922	22.36
319.136	126.8
319.349	12.12
319.563	36.69
319.776	51.03
319.99	-90.28
320.203	46.93
320.417	-37.03
320.63	44.88
320.843	51.03
321.057	75.6
321.27	28.5
321.483	-22.7
321.697	61.27
321.91	10.07
322.124	34.64
322.337	135
322.55	20.31
322.763	98.13
322.977	-8.36
323.19	61.27
323.403	42.84
323.617	28.5
323.83	-32.94
324.043	-10.41
324.256	157.52
324.469	42.84
324.683	69.46
324.896	110.42
325.109	16.21
325.322	-26.79
325.535	83.8
325.748	16.21
325.962	-49.32
326.175	59.22
326.388	102.23
326.601	48.98
326.814	-28.84
327.027	-32.94
327.24	100.18
327.453	-24.75
327.666	51.03
327.879	-28.84
328.092	53.08
328.305	55.12
328.518	-8.36
328.731	-10.41
328.944	8.02
329.157	28.5
329.37	10.07
329.583	102.23
329.796	116.56
330.009	-24.75
330.222	40.79
330.435	26.45
330.648	-32.94
330.861	51.03
331.073	-8.36
331.286	65.36
331.499	44.88
331.712	-47.27
331.925	40.79
332.138	40.79
332.35	94.04
332.563	-16.55
332.776	61.27
332.989	10.07
333.202	-0.17
333.414	5.97
333.627	32.6
333.84	65.36
334.053	61.27
334.265	1.88
334.478	16.21
334.691	40.79
334.903	44.88
335.116	-53.42
335.329	24.4
335.541	-8.36
335.754	108.37
335.966	-8.36
336.179	65.36
336.392	40.79
336.604	69.46
336.817	26.45
337.029	46.93
337.242	53.08
337.454	40.79
337.667	8.02
337.88	73.56
338.092	12.12
338.305	34.64
338.517	-0.17
338.729	81.75
338.942	116.56
339.154	-2.22
339.367	1.88
339.579	32.6
339.792	48.98
340.004	110.42
340.217	-22.7
340.429	100.18
340.641	51.03
340.854	26.45
341.066	38.74
341.278	18.26
341.491	-8.36
341.703	44.88
341.915	-8.36
342.128	26.45
342.34	100.18
342.552	77.65
342.764	44.88
342.977	100.18
343.189	53.08
343.401	51.03
343.613	5.97
343.826	-2.22
344.038	32.6
344.25	132.95
344.462	91.99
344.674	-12.46
344.886	65.36
345.099	139.09
345.311	16.21
345.523	106.32
345.735	-8.36
345.947	59.22
346.159	94.04
346.371	28.5
346.583	-4.27
346.795	102.23
347.007	1.88
347.219	-8.36
347.431	42.84
347.643	83.8
347.855	5.97
348.067	8.02
348.279	14.17
348.491	81.75
348.703	61.27
348.915	48.98
349.127	18.26
349.339	55.12
349.551	10.07
349.763	112.47
349.975	53.08
350.187	79.7
350.399	53.08
350.61	91.99
350.822	-20.65
351.034	32.6
351.246	57.17
351.458	55.12
351.669	65.36
351.881	18.26
352.093	61.27
352.305	100.18
352.517	85.84
352.728	100.18
352.94	38.74
353.152	104.28
353.363	34.64
353.575	16.21
353.787	114.52
353.999	16.21
354.21	48.98
354.422	28.5
354.633	-6.31
354.845	51.03
355.057	20.31
355.268	44.88
355.48	81.75
355.692	24.4
355.903	-12.46
356.115	-32.94
356.326	24.4
356.538	106.32
356.749	69.46
356.961	130.9
357.172	-0.17
357.384	-22.7
357.595	91.99
357.807	26.45
358.018	55.12
358.23	40.79
358.441	46.93
358.653	102.23
358.864	67.41
359.075	16.21
359.287	77.65
359.498	46.93
359.709	51.03
359.921	40.79
360.132	46.93
360.344	12.12
360.555	-14.51
360.766	24.4
360.977	-6.31
361.189	89.94
361.4	73.56
361.611	48.98
361.823	40.79
362.034	44.88
362.245	-41.13
362.456	28.5
362.667	65.36
362.879	57.17
363.09	143.19
363.301	67.41
363.512	106.32
363.723	87.89
363.935	65.36
364.146	89.94
364.357	38.74
364.568	137.04
364.779	14.17
364.99	71.51
365.201	-28.84
365.412	53.08
365.623	8.02
365.834	48.98
366.045	16.21
366.256	83.8
366.467	85.84
366.678	-22.7
366.889	110.42
367.1	1.88
367.311	48.98
367.522	48.98
367.733	83.8
367.944	163.67
368.155	-8.36
368.366	12.12
368.577	143.19
368.788	116.56
368.999	-6.31
369.209	122.71
369.42	106.32
369.631	171.86
369.842	-0.17
370.053	57.17
370.264	38.74
370.474	10.07
370.685	48.98
370.896	67.41
371.107	36.69
371.317	28.5
371.528	10.07
371.739	34.64
371.95	57.17
372.16	102.23
372.371	-6.31
372.582	89.94
372.792	59.22
373.003	75.6
373.214	20.31
373.424	1.88
373.635	24.4
373.846	91.99
374.056	59.22
374.267	-37.03
374.477	81.75
374.688	34.64
374.898	28.5
375.109	3.93
375.319	8.02
375.53	79.7
375.74	34.64
375.951	75.6
376.161	40.79
376.372	71.51
376.582	10.07
376.793	85.84
377.003	-0.17
377.214	106.32
377.424	24.4
377.635	40.79
377.845	14.17
378.055	110.42
378.266	89.94
378.476	12.12
378.686	77.65
378.897	-22.7
379.107	63.32
379.317	106.32
379.528	42.84
379.738	81.75
379.948	55.12
380.158	26.45
380.369	32.6
380.579	108.37
380.789	-39.08
380.999	57.17
381.21	147.28
381.42	157.52
381.63	22.36
381.84	75.6
382.05	8.02
382.261	98.13
382.471	81.75
382.681	40.79
382.891	94.04
383.101	8.02
383.311	96.08
383.521	20.31
383.731	122.71
383.941	24.4
384.151	8.02
384.361	42.84
384.571	67.41
384.781	112.47
384.991	132.95
385.201	83.8
385.411	89.94
385.621	85.84
385.831	53.08
386.041	71.51
386.251	104.28
386.461	75.6
386.671	18.26
386.881	53.08
387.091	65.36
387.301	53.08
387.511	-32.94
387.72	40.79
387.93	65.36
388.14	-14.51
388.35	61.27
388.56	53.08
388.769	98.13
388.979	59.22
389.189	12.12
389.399	87.89
389.609	106.32
389.818	98.13
390.028	65.36
390.238	81.75
390.447	51.03
390.657	57.17
390.867	48.98
391.076	106.32
391.286	26.45
391.496	65.36
391.705	65.36
391.915	89.94
392.125	132.95
392.334	89.94
392.544	79.7
392.753	63.32
392.963	20.31
393.172	57.17
393.382	87.89
393.591	130.9
393.801	122.71
394.01	98.13
394.22	16.21
394.429	32.6
394.639	83.8
394.848	124.76
395.058	57.17
395.267	12.12
395.477	108.37
395.686	83.8
395.895	145.24
396.105	110.42
396.314	89.94
396.524	81.75
396.733	106.32
396.942	89.94
397.152	106.32
397.361	184.15
397.57	98.13
397.78	40.79
397.989	34.64
398.198	135
398.407	51.03
398.617	81.75
398.826	106.32
399.035	57.17
399.244	132.95
399.453	73.56
399.663	89.94
399.872	75.6
400.081	147.28
400.29	126.8
400.499	14.17
400.708	165.71
400.917	100.18
401.127	182.1
401.336	40.79
401.545	151.38
401.754	153.43
401.963	147.28
402.172	102.23
402.381	81.75
402.59	98.13
402.799	132.95
403.008	126.8
403.217	155.47
403.426	135
403.635	61.27
403.844	55.12
404.053	147.28
404.262	126.8
404.471	157.52
404.68	175.95
404.888	188.24
405.097	175.95
405.306	163.67
405.515	126.8
405.724	196.43
405.933	278.35
406.142	67.41
406.35	212.82
406.559	221.01
406.768	192.34
406.977	202.58
407.185	229.2
407.394	196.43
407.603	139.09
407.812	225.11
408.02	192.34
408.229	311.12
408.438	286.54
408.646	208.72
408.855	294.74
409.064	261.97
409.272	253.78
409.481	311.12
409.69	231.25
409.898	231.25
410.107	302.93
410.315	343.89
410.524	356.18
410.733	307.02
410.941	270.16
411.15	466.77
411.358	380.75
411.567	436.05
411.775	368.46
411.984	434
412.192	503.63
412.401	417.61
412.609	487.25
412.818	483.15
413.026	487.25
413.234	542.54
413.443	485.2
413.651	571.21
413.86	583.5
414.068	640.84
414.276	614.22
414.485	618.32
414.693	704.33
414.901	737.1
415.11	663.37
415.318	640.84
415.526	733
415.734	796.49
415.943	862.02
416.151	888.65
416.359	886.6
416.567	911.18
416.776	950.09
416.984	933.7
417.192	1007.43
417.4	974.66
417.608	991.05
417.817	1109.83
418.025	1216.32
418.233	1288
418.441	1144.64
418.649	1199.94
418.857	1337.15
419.065	1318.72
419.273	1318.72
419.481	1484.61
419.689	1484.61
419.897	1519.42
420.105	1490.75
420.313	1713.98
420.521	1695.55
420.729	1728.31
420.937	1804.09
421.145	1861.43
421.353	1847.1
421.561	2055.99
421.769	1959.74
421.977	2072.37
422.185	2053.94
422.393	2318.13
422.601	2246.45
422.809	2383.66
423.017	2502.45
423.224	2449.2
423.432	2514.73
423.64	2615.09
423.848	2799.4
424.056	2834.22
424.263	2959.14
424.471	2809.64
424.679	3098.41
424.887	3155.75
425.094	3225.38
425.302	3278.63
425.51	3387.17
425.718	3530.53
425.925	3583.77
426.133	3661.6
426.341	3845.91
426.548	4132.63
426.756	4122.39
426.964	3987.22
427.171	4294.42
427.379	4486.93
427.586	4380.43
427.794	4585.23
428.001	4898.57
428.209	5003.02
428.417	4988.68
428.624	5379.84
428.832	5236.49
429.039	5355.27
429.247	5340.93
429.454	5818.11
429.662	6289.14
429.869	5752.57
430.076	6160.12
430.284	6051.58
430.491	6199.03
430.699	6717.17
430.906	6692.59
431.114	6629.1
431.321	7085.8
431.528	6999.79
431.736	7605.99
431.943	7667.42
432.15	7585.51
432.358	7706.34
432.565	8249.05
432.772	8095.45
432.979	8548.05
433.187	8740.56
433.394	8666.83
433.601	9285.32
433.808	9359.05
434.016	9101
434.223	9805.5
434.43	10327.74
434.637	10020.54
434.844	10634.93
435.052	10880.69
435.259	10581.68
435.466	10690.23
435.673	10620.6
435.88	11478.69
436.087	12088.99
436.294	12246.68
436.501	11736.74
436.708	12054.17
436.915	12533.4
437.122	12945.04
437.329	12754.58
437.537	13063.82
437.743	13502.09
437.95	13393.54
438.157	14376.57
438.364	14714.48
438.571	14624.37
438.778	14710.39
438.985	15797.86
439.192	15433.32
439.399	15752.8
439.606	15404.65
439.813	16109.15
440.02	17262.16
440.227	16973.39
440.433	16866.9
440.64	17550.92
440.847	17401.42
441.054	17862.21
441.261	18939.44
441.467	18646.58
441.674	19029.55
441.881	19396.14
442.088	19545.64
442.294	19326.51
442.501	20012.58
442.708	20205.09
442.914	21011.99
443.121	21882.38
443.328	21579.28
443.534	22765.05
443.741	22300.16
443.948	22132.23
444.154	23483.89
444.361	23506.41
444.568	23490.03
444.774	23584.24
444.981	23860.71
445.187	24499.68
445.394	25707.98
445.6	25099.73
445.807	27313.59
446.013	26383.81
446.22	26928.57
446.426	27944.36
446.633	28108.2
446.839	29128.09
447.046	27991.47
447.252	29543.83
447.459	29355.41
447.665	29269.4
447.871	30600.58
448.078	32111.98
448.284	30383.49
448.491	31630.71
448.697	32576.87
448.903	32744.8
449.11	33021.28
449.316	32490.85
449.522	33398.1
449.728	33912.14
449.935	34207.05
450.141	34350.41
450.347	35034.43
450.553	34063.69
450.76	34321.74
450.966	35618.1
451.172	35272
451.378	35929.39
451.584	35401.02
451.791	36295.98
451.997	35884.34
452.203	36625.7
452.409	37068.06
452.615	36291.88
452.821	34995.52
453.027	34549.06
453.233	36767.01
453.44	35384.63
453.646	35558.71
453.852	35841.33
454.058	36238.64
454.264	34798.91
454.47	35427.64
454.676	34768.19
454.882	36238.64
455.088	32879.97
455.294	33439.06
455.5	33518.93
455.705	34362.7
455.911	32947.55
456.117	32079.21
456.323	31776.11
456.529	30006.67
456.735	31450.49
456.941	30846.33
457.147	30147.98
457.352	29230.49
457.558	28820.89
457.764	28759.45
457.97	28376.48
458.176	27807.15
458.381	27737.52
458.587	26334.66
458.793	26387.91
458.999	24626.65
459.204	26707.39
459.41	25816.52
459.616	24198.63
459.821	24352.23
460.027	24122.85
460.233	23713.26
460.438	22265.35
460.644	22822.39
460.85	21759.5
461.055	21300.75
461.261	21194.26
461.466	19885.61
461.672	18898.48
461.878	20391.45
462.083	19025.46
462.289	18816.57
462.494	18384.44
462.7	17587.78
462.905	17260.11
463.111	17829.45
463.316	18099.78
463.522	17546.83
463.727	17753.67
463.932	17391.18
464.138	17366.6
464.343	17139.28
464.549	16961.11
464.754	17491.53
464.959	17170
465.165	16973.39
465.37	16191.07
465.575	16031.33
465.781	16477.79
465.986	16887.38
466.191	15943.27
466.397	15578.73
466.602	14894.71
466.807	15312.49
467.012	15566.44
467.218	15373.93
467.423	15529.58
467.628	15418.99
467.833	15908.45
468.038	15203.95
468.244	14892.66
468.449	15441.51
468.654	14923.38
468.859	14947.95
469.064	14651
469.269	14270.08
469.474	14450.3
469.679	14618.23
469.885	14136.96
470.09	14208.64
470.295	14061.18
470.5	13831.81
470.705	13887.11
470.91	13528.71
471.115	13491.85
471.32	13610.63
471.525	13618.82
471.73	13516.42
471.935	13031.05
472.139	12740.24
472.344	12902.03
472.549	12990.1
472.754	12621.46
472.959	12402.33
473.164	12091.04
473.369	12060.32
473.574	12457.62
473.778	12215.96
473.983	12170.91
474.188	12103.32
474.393	11476.65
474.598	11826.85
474.802	11470.5
475.007	11439.78
475.212	11667.11
475.417	10995.37
475.621	10845.87
475.826	11128.49
476.031	10778.29
476.235	10518.2
476.44	10682.03
476.645	10616.5
476.849	10514.1
477.054	10514.1
477.259	10165.95
477.463	10454.71
477.668	10167.99
477.872	10333.88
478.077	9914.05
478.282	9842.37
478.486	9871.04
478.691	9576.13
478.895	9682.63
479.1	9645.76
479.304	9641.67
479.509	9189.07
479.713	9436.87
479.918	9170.63
480.122	9336.52
480.326	9324.23
480.531	9252.55
480.735	9088.71
480.94	9127.63
481.144	9252.55
481.348	9117.39
481.553	8947.4
481.757	8806.09
481.961	9187.02
482.166	9174.73
482.37	8994.51
482.574	8890.06
482.778	8863.44
482.983	8941.26
483.187	8779.47
483.391	8984.27
483.595	8967.88
483.8	8783.57
484.004	8797.9
484.208	8931.02
484.412	8857.29
484.616	8965.84
484.821	8838.86
485.025	8629.97
485.229	8785.62
485.433	8689.36
485.637	8842.96
485.841	8836.81
486.045	8814.29
486.249	8971.98
486.453	8832.72
486.657	8646.35
486.861	8900.3
487.065	8681.17
487.269	8756.94
487.473	8472.28
487.677	8957.64
487.881	8933.07
488.085	8685.26
488.289	8754.9
488.493	8896.21
488.697	8961.74
488.901	8693.46
489.105	8773.33
489.309	8660.69
489.512	8890.06
489.716	8814.29
489.92	8625.87
490.124	8830.67
490.328	9158.35
490.531	8771.28
490.735	8879.82
490.939	8974.03
491.143	9014.99
491.346	9103.05
491.55	9027.28
491.754	9137.87
491.958	9137.87
492.161	9101
492.365	9223.88
492.569	9092.81
492.772	9156.3
492.976	9240.26
493.18	9330.37
493.383	9354.95
493.587	9539.27
493.79	9471.68
493.994	9436.87
494.197	9490.12
494.401	9635.52
494.605	9541.32
494.808	9660.1
495.012	9690.82
495.215	9555.65
495.419	9705.15
495.622	9912
495.825	9785.02
496.029	10167.99
496.232	10200.76
496.436	9895.61
496.639	10329.78
496.843	10206.91
497.046	10415.8
497.249	10520.24
497.453	10577.59
497.656	10634.93
497.859	10610.36
498.063	10692.27
498.266	11017.9
498.469	10950.32
498.673	11194.03
498.876	11419.3
499.079	11306.66
499.282	11196.07
499.485	11626.15
499.689	11708.07
499.892	11755.17
500.095	11853.47
500.298	11968.16
500.501	12027.55
500.705	12400.28
500.908	12459.67
501.111	12611.22
501.314	12709.52
501.517	12600.98
501.72	12963.47
501.923	12773.01
502.126	13180.56
502.329	13409.93
502.532	13229.71
502.735	13438.6
502.938	13809.28
503.141	13577.86
503.344	13944.45
503.547	13952.64
503.75	14202.49
503.953	14497.4
504.156	14671.48
504.359	14575.22
504.562	14835.31
504.765	15140.46
504.968	15140.46
505.17	15371.88
505.373	15453.8
505.576	15402.6
505.779	15816.29
505.982	15711.85
506.185	16305.76
506.387	16268.89
506.59	16344.67
506.793	16615
506.996	16682.58
507.198	17065.55
507.401	16778.84
507.604	17331.79
507.807	17276.49
508.009	17528.39
508.212	17544.78
508.415	17829.45
508.617	18239.04
508.82	18105.92
509.022	17856.07
509.225	18320.96
509.428	18800.18
509.63	19119.67
509.833	18986.55
510.035	19410.48
510.238	19295.79
510.44	19453.48
510.643	20063.78
510.845	20157.99
511.048	20254.24
511.25	20332.06
511.453	20395.55
511.655	21153.3
511.858	20938.26
512.06	21100.05
512.262	21329.42
512.465	21069.33
512.667	21612.04
512.87	21825.03
513.072	21995.01
513.274	22289.92
513.477	22420.99
513.679	22552.06
513.881	23068.15
514.084	23039.48
514.286	23207.41
514.488	23469.55
514.69	23754.22
514.893	23979.5
515.095	23895.53
515.297	24253.92
515.499	24444.38
515.701	24542.69
515.904	24690.14
516.106	24993.24
516.308	24899.03
516.51	25392.59
516.712	25806.28
516.914	25742.8
517.116	25988.55
517.318	26129.86
517.52	26676.67
517.722	26349
517.925	26592.7
518.127	27286.96
518.329	27309.49
518.531	27041.21
518.733	27649.46
518.935	27663.79
519.136	27739.57
519.338	28163.5
519.54	28480.93
519.742	28646.82
519.944	28302.76
520.146	29037.98
520.348	28896.67
520.55	29363.61
520.752	29379.99
520.954	29705.62
521.155	29478.29
521.357	29832.59
521.559	30268.81
521.761	30213.51
521.963	30430.6
522.164	30541.19
522.366	30653.83
522.568	31051.13
522.77	31210.87
522.971	31516.02
523.173	30915.97
523.375	31096.19
523.576	31378.81
523.778	31532.4
523.98	32163.18
524.181	31726.96
524.383	31831.41
524.584	32372.07
524.786	32132.46
524.988	32075.12
525.189	32353.64
525.391	32630.12
525.592	32431.46
525.794	32679.27
525.995	32863.58
526.197	32777.57
526.398	32777.57
526.6	32849.25
526.801	33203.55
527.003	32953.69
527.204	32965.98
527.406	33348.95
527.607	33189.21
527.808	33252.7
528.01	32802.14
528.211	33199.45
528.412	33529.17
528.614	33561.94
528.815	33148.25
529.016	33576.28
529.218	33264.99
529.419	33699.16
529.62	33561.94
529.822	33555.8
530.023	33084.76
530.224	33422.68
530.425	33469.78
530.626	33201.5
530.828	32798.05
531.029	33484.12
531.23	33146.2
531.431	33078.62
531.632	32939.36
531.833	33447.25
532.035	33533.27
532.236	33160.54
532.437	33477.97
532.638	33158.49
532.839	33297.75
533.04	33336.66
533.241	33008.99
533.442	33658.2
533.643	33219.93
533.844	33140.06
534.045	33058.14
534.246	32578.92
534.447	33123.68
534.648	32785.76
534.849	33260.89
535.05	32734.56
535.251	32796
535.451	32746.85
535.652	32951.65
535.853	32843.1
536.054	32773.47
536.255	32722.27
536.456	32355.69
536.657	32796
536.857	32425.32
537.058	32267.62
537.259	32587.11
537.46	32437.61
537.66	32687.46
537.861	32292.2
538.062	32396.65
538.263	32126.32
538.463	32339.3
538.664	32398.69
538.865	32214.38
539.065	32265.58
539.266	32322.92
539.466	32544.1
539.667	31698.29
539.868	32343.4
540.068	32116.08
540.269	32003.44
540.469	32462.18
540.67	31903.09
540.87	31855.98
541.071	31583.6
541.271	31651.19
541.472	32099.69
541.672	31946.09
541.873	31841.65
542.073	31313.27
542.274	32197.99
542.474	32032.11
542.675	31579.51
542.875	31827.31
543.075	31882.61
543.276	31321.46
543.476	32314.73
543.676	31702.39
543.877	31888.75
544.077	31317.37
544.277	31663.47
544.478	31749.49
544.678	31974.77
544.878	31513.97
545.078	31751.54
545.279	31372.66
545.479	31286.65
545.679	31661.43
545.879	31456.63
546.079	31608.18
546.28	31466.87
546.48	31264.12
546.68	31462.77
546.88	31434.1
547.08	31245.69
547.28	31587.7
547.48	31397.24
547.68	31628.66
547.88	31503.73
548.081	31757.68
548.281	31401.33
548.481	31651.19
548.681	31573.36
548.881	31759.73
549.081	31421.81
549.28	31479.16
549.48	31292.79
549.68	31579.51
549.88	31841.65
550.08	31528.31
550.28	31743.34
550.48	31681.91
550.68	31810.93
550.88	31436.15
551.08	31642.99
551.279	31798.64
551.479	31542.64
551.679	31636.85
551.879	31556.98
552.079	31853.94
552.278	31473.01
552.478	31726.96
552.678	31645.04
552.878	31798.64
553.077	31653.23
553.277	31491.44
553.477	32028.01
553.676	31755.63
553.876	31477.11
554.076	31741.3
554.275	31958.38
554.475	31329.66
554.674	31874.41
554.874	31876.46
555.074	31929.71
555.273	31808.88
555.473	32161.13
555.672	31622.51
555.872	31815.02
556.071	31782.26
556.271	32382.31
556.47	31667.57
556.67	31624.56
556.869	31786.35
557.068	31966.57
557.268	31796.59
557.467	31821.17
557.667	32214.38
557.866	31886.7
558.065	32019.82
558.265	31751.54
558.464	31927.66
558.663	31903.09
558.863	31550.84
559.062	32206.19
559.261	31806.83
559.461	32015.72
559.66	31911.28
559.859	32036.2
560.058	31675.76
560.258	31913.33
560.457	31720.82
560.656	32224.62
560.855	31982.96
561.054	32023.92
561.253	31669.62
561.453	31804.78
561.652	31960.43
561.851	31821.17
562.05	32173.42
562.249	31645.04
562.448	31974.77
562.647	31610.23
562.846	31726.96
563.045	31843.7
563.244	31339.9
563.443	31763.82
563.642	31157.63
563.841	32021.87
564.04	31577.46
564.239	32025.96
564.438	31421.81
564.637	31724.91
564.836	31636.85
565.035	31120.76
565.234	31974.77
565.432	31382.9
565.631	31419.77
565.83	31741.3
566.029	31411.57
566.228	31219.06
566.427	31135.1
566.625	31184.25
566.824	30803.33
567.023	31323.51
567.222	30846.33
567.42	31343.99
567.619	31100.28
567.818	30987.64
568.016	30954.88
568.215	31049.08
568.414	30807.42
568.612	30977.4
568.811	30688.64
569.01	30807.42
569.208	30428.55
569.407	30954.88
569.605	30422.41
569.804	30770.56
570.002	30457.22
570.201	30590.34
570.4	30207.37
570.598	30094.73
570.797	30162.31
570.995	30383.49
571.193	29842.83
571.392	30002.57
571.59	29762.96
571.789	29910.41
571.987	29808.01
572.186	29564.31
572.384	29547.92
572.582	29617.55
572.781	29760.91
572.979	29447.57
573.177	29291.93
573.376	29400.47
573.574	29167
573.772	29367.7
573.971	29291.93
574.169	28767.65
574.367	29044.12
574.565	29072.79
574.763	28802.46
574.962	28575.14
575.16	28800.41
575.358	28913.05
575.556	28282.28
575.754	28816.8
575.952	28341.67
576.151	28474.79
576.349	28130.73
576.547	28358.05
576.745	28233.13
576.943	28243.37
577.141	28140.97
577.339	28243.37
577.537	27911.6
577.735	27788.72
577.933	27702.7
578.131	27686.32
578.329	27698.61
578.527	27114.94
578.725	27669.94
578.923	27526.58
579.121	27366.84
579.319	27475.38
579.516	27415.99
579.714	27456.95
579.912	27051.45
580.11	27067.83
580.308	26842.56
580.506	27030.97
580.704	26578.37
580.901	26836.41
581.099	27084.22
581.297	26457.54
581.495	26408.39
581.692	26740.16
581.89	26535.36
582.088	26701.25
582.285	26295.75
582.483	26580.42
582.681	26308.04
582.878	26121.67
583.076	25707.98
583.274	26158.53
583.471	25818.57
583.669	26146.25
583.866	25746.89
584.064	25963.98
584.262	25501.14
584.459	25808.33
584.657	25566.67
584.854	25794
585.052	25288.15
585.249	25456.08
585.447	25509.33
585.644	24968.66
585.841	25212.37
586.039	25562.58
586.236	25120.21
586.434	25073.11
586.631	25073.11
586.828	24817.11
587.026	25118.17
587.223	24698.33
587.42	24614.37
587.618	25101.78
587.815	24479.2
588.012	24718.81
588.21	24571.36
588.407	24829.4
588.604	24643.04
588.801	24391.14
588.999	24364.51
589.196	24468.96
589.393	24276.45
589.59	24290.79
589.787	24223.2
589.984	24012.26
590.182	24350.18
590.379	24284.64
590.576	24010.21
590.773	24231.4
590.97	23567.85
591.167	24129
591.364	23649.77
591.561	23723.5
591.758	23543.28
591.955	23549.42
592.152	24051.17
592.349	23680.49
592.546	23553.52
592.743	24004.07
592.94	23250.42
593.137	23539.18
593.334	23543.28
593.531	23154.16
593.727	23379.44
593.924	23330.29
594.121	23199.22
594.318	23166.45
594.515	23039.48
594.712	23033.33
594.908	23068.15
595.105	23453.17
595.302	23160.31
595.499	23178.74
595.696	22969.85
595.892	22803.96
596.089	23148.02
596.286	23121.4
596.482	23164.4
596.679	23113.2
596.876	22892.02
597.072	22910.46
597.269	22814.2
597.466	22894.07
597.662	22461.95
597.859	22787.58
598.055	22732.28
598.252	22627.84
598.448	22814.2
598.645	22582.78
598.841	22853.11
599.038	22709.75
599.234	22791.67
599.431	22775.29
599.627	22543.87
599.824	22627.84
600.02	22461.95
600.217	22781.43
600.413	22724.09
600.609	22558.21
600.806	22775.29
601.002	22466.05
601.198	22586.88
601.395	22687.23
601.591	22380.03
601.787	22502.91
601.984	22523.39
602.18	22664.7
602.376	22523.39
602.572	22646.27
602.769	22689.28
602.965	22404.61
603.161	22932.98
603.357	22654.46
603.553	22255.11
603.75	22676.99
603.946	22570.49
604.142	22668.8
604.338	22586.88
604.534	22758.91
604.73	22535.68
604.926	22580.73
605.122	22812.15
605.318	22560.25
605.514	22392.32
605.71	22529.53
605.906	22789.63
606.102	22806.01
606.298	22564.35
606.494	22763
606.69	22488.57
606.886	22855.16
607.082	22502.91
607.278	22984.18
607.474	22863.35
607.67	22707.71
607.866	22550.01
608.062	23012.85
608.257	22875.64
608.453	22953.46
608.649	23170.55
608.845	22543.87
609.041	22773.24
609.236	22838.78
609.432	23045.62
609.628	23019
609.824	23068.15
610.019	22969.85
610.215	23021.05
610.411	23389.68
610.606	23274.99
610.802	22967.8
610.998	23113.2
611.193	23406.06
611.389	23062.01
611.584	22924.79
611.78	22732.28
611.976	22922.74
612.171	23315.95
612.367	23424.5
612.562	23227.89
612.758	22951.42
612.953	22887.93
613.149	23469.55
613.344	23502.32
613.539	23696.88
613.735	23369.2
613.93	23266.8
614.126	23166.45
614.321	23639.53
614.517	23291.38
614.712	23367.15
614.907	23608.81
615.103	23508.46
615.298	23053.81
615.493	23463.41
615.688	23076.34
615.884	23817.71
616.079	23252.47
616.274	23545.33
616.47	23141.88
616.665	23498.22
616.86	23379.44
617.055	23115.25
617.25	23383.54
617.445	23649.77
617.641	22754.81
617.836	23297.52
618.031	22953.46
618.226	23326.19
618.421	23049.72
618.616	23326.19
618.811	22517.25
619.006	23182.84
619.201	22863.35
619.396	23027.19
619.591	22578.68
619.786	22865.4
619.981	22464
620.176	22879.74
620.371	22771.19
620.566	22959.61
620.761	22558.21
620.956	22427.14
621.151	22267.39
621.346	22490.62
621.541	21958.15
621.735	22150.66
621.93	21794.31
622.125	21835.27
622.32	21546.51
622.515	21841.42
622.709	21521.93
622.904	21548.56
623.099	21433.87
623.294	21534.22
623.488	21067.28
623.683	21440.01
623.878	20751.9
624.072	20850.2
624.267	21386.77
624.462	20741.66
624.656	20688.41
624.851	20733.46
625.046	20594.2
625.24	20299.3
625.435	20420.13
625.629	20477.47
625.824	20282.91
626.018	20176.42
626.213	19934.76
626.407	19963.43
626.602	19562.03
626.796	19881.51
626.991	19512.88
627.185	19650.09
627.38	19543.6
627.574	19404.33
627.768	19461.68
627.963	19281.46
628.157	19138.1
628.352	19183.15
628.546	18570.81
628.74	18925.11
628.935	18517.56
629.129	18748.98
629.323	18525.75
629.517	18542.14
629.712	18196.03
629.906	18253.37
630.1	18300.48
630.294	18073.15
630.489	17808.97
630.683	18081.35
630.877	17868.36
631.071	17677.9
631.265	17823.3
631.459	17542.73
631.653	17604.17
631.848	17700.42
632.042	17354.32
632.236	17301.07
632.43	17098.32
632.624	17376.84
632.818	17227.34
633.012	16653.91
633.206	17002.07
633.4	16809.56
633.594	16492.12
633.788	16516.7
633.982	16633.43
634.176	16465.5
634.369	16408.15
634.563	16539.22
634.757	16199.26
634.951	16262.75
635.145	16103.01
635.339	15973.99
635.533	15787.62
635.726	15924.83
635.92	15435.37
636.114	15750.76
636.308	15318.64
636.501	15257.2
636.695	15453.8
636.889	15287.92
637.083	15040.11
637.276	15359.59
637.47	14984.82
637.664	15081.07
637.857	14954.1
638.051	14974.58
638.244	14616.18
638.438	14560.89
638.632	14464.63
638.825	14423.67
639.019	14761.59
639.212	14218.88
639.406	14245.5
639.599	14188.16
639.793	14227.07
639.986	13979.26
640.18	14048.89
640.373	14102.14
640.567	13704.84
640.76	13989.5
640.954	13880.96
641.147	13428.36
641.34	13418.12
641.534	13747.84
641.727	13475.46
641.92	13452.94
642.114	13188.75
642.307	13260.43
642.5	13223.56
642.694	12529.3
642.887	12988.05
643.08	12979.86
643.273	12775.06
643.467	12582.55
643.66	12455.58
643.853	12476.05
644.046	12428.95
644.239	12435.1
644.432	12467.86
644.626	12076.7
644.819	12035.74
645.012	12304.03
645.205	12256.92
645.398	12076.7
645.591	11988.64
645.784	11859.62
645.977	11759.27
646.17	11671.2
646.363	11669.16
646.556	11574.95
646.749	11505.32
646.942	11533.99
647.135	11347.62
647.328	11280.04
647.521	11038.38
647.714	11142.83
647.907	11230.89
648.099	10968.75
648.292	11058.86
648.485	10968.75
648.678	10919.6
648.871	10806.96
649.064	10870.45
649.256	10845.87
649.449	10737.33
649.642	10536.63
649.835	10284.73
650.027	10452.66
650.22	10360.5
650.413	10317.5
650.605	10262.2
650.798	10202.81
650.991	10116.79
651.183	9971.39
651.376	10127.03
651.568	10122.94
651.761	9924.29
651.954	9719.49
652.146	10000.06
652.339	9973.44
652.531	9793.22
652.724	9836.22
652.916	9600.71
653.109	9719.49
653.301	9668.29
653.494	9541.32
653.686	9449.16
653.879	9635.52
654.071	9285.32
654.263	9336.52
654.456	9152.2
654.648	9322.18
654.84	9094.86
655.033	8904.4
655.225	8974.03
655.417	9098.95
655.61	9027.28
655.802	9170.63
655.994	8744.66
656.186	8967.88
656.379	8765.14
656.571	8658.64
656.763	8675.02
656.955	8488.66
657.148	8599.25
657.34	8578.77
657.532	8554.19
657.724	8582.87
657.916	8400.6
658.108	8439.51
658.3	8322.77
658.492	8232.66
658.684	8138.46
658.876	8044.25
659.068	8036.06
659.26	8013.53
659.452	8089.31
659.644	8181.46
659.836	8068.83
660.028	7939.8
660.22	7958.24
660.412	7816.93
660.604	7814.88
660.796	7646.94
660.988	7765.73
661.18	7581.41
661.372	7554.79
661.563	7655.14
661.755	7485.16
661.947	7593.7
662.139	7595.75
662.331	7407.33
662.522	7268.07
662.714	7347.94
662.906	7397.09
663.097	7343.85
663.289	7182.06
663.481	7102.18
663.673	7005.93
663.864	7112.42
664.056	6928.11
664.247	7198.44
664.439	6702.83
664.631	7005.93
664.822	6967.02
665.014	6926.06
665.205	6766.32
665.397	6799.09
665.588	6643.44
665.78	6575.86
665.971	6807.28
666.163	6610.67
666.354	6696.69
666.546	6577.9
666.737	6555.38
666.929	6569.71
667.12	6495.99
667.311	6620.91
667.503	6420.21
667.694	6330.1
667.885	6397.68
668.077	6348.53
668.268	6196.98
668.459	6387.44
668.651	6137.59
668.842	6266.61
669.033	6070.01
669.224	5988.09
669.416	6156.02
669.607	6110.97
669.798	5883.64
669.989	5943.03
670.18	5897.98
670.371	6082.3
670.563	5951.23
670.754	6113.02
670.945	5889.79
671.136	5889.79
671.327	5758.72
671.518	5906.17
671.709	5822.2
671.9	5703.42
672.091	5738.24
672.282	5678.85
672.473	5691.13
672.664	5844.73
672.855	5676.8
673.046	5572.35
673.237	5709.57
673.428	5455.62
673.619	5594.88
673.809	5379.84
674	5566.21
674.191	5512.96
674.382	5390.08
674.573	5523.2
674.764	5521.15
674.954	5627.65
675.145	5400.32
675.336	5299.97
675.527	5410.56
675.717	5275.4
675.908	5383.94
676.099	5269.25
676.289	5433.09
676.48	5351.17
676.671	5379.84
676.861	5472
677.052	5318.4
677.243	5121.8
677.433	5242.63
677.624	5234.44
677.814	5162.76
678.005	5218.05
678.195	5259.01
678.386	5306.12
678.576	5121.8
678.767	5080.84
678.957	5064.46
679.148	5224.2
679.338	5220.1
679.529	5119.75
679.719	4904.71
679.909	5113.61
680.1	5105.42
680.29	4996.87
680.481	4972.3
680.671	4847.37
680.861	5097.22
681.052	5048.07
681.242	4974.35
681.432	4951.82
681.622	4843.28
681.813	4972.3
682.003	4890.38
682.193	4906.76
682.383	4972.3
682.573	4818.7
682.764	4892.43
682.954	4978.44
683.144	4900.62
683.334	4816.65
683.524	4857.61
683.714	4964.11
683.904	4804.36
684.094	4773.64
684.284	4787.98
684.474	5068.55
684.664	4869.9
684.854	4820.75
685.044	4704.01
685.234	4775.69
685.424	4871.95
685.614	4767.5
685.804	4716.3
685.994	4704.01
686.184	4826.89
686.374	4704.01
686.564	4708.11
686.753	4669.2
686.943	4630.29
687.133	4650.77
687.323	4402.96
687.513	4540.18
687.702	4527.89
687.892	4554.51
688.082	4603.66
688.272	4589.33
688.461	4407.06
688.651	4540.18
688.841	4484.88
689.03	4419.35
689.22	4548.37
689.41	4511.5
689.599	4316.95
689.789	4321.04
689.979	4335.38
690.168	4382.48
690.358	4366.1
690.547	4380.43
690.737	4480.78
690.926	4329.24
691.116	4319
691.305	4292.37
691.495	4237.08
691.684	4249.36
691.874	4294.42
692.063	4142.87
692.252	4163.35
692.442	4306.71
692.631	4151.06
692.82	4263.7
693.01	4275.99
693.199	4151.06
693.388	4198.17
693.578	4108.05
693.767	4130.58
693.956	4097.81
694.146	4044.57
694.335	4106.01
694.524	3964.7
694.713	4161.3
694.902	4120.34
695.092	4024.09
695.281	3983.13
695.47	4013.85
695.659	3950.36
695.848	4005.66
696.037	3933.98
696.226	3915.55
696.415	3923.74
696.604	3948.31
696.793	3964.7
696.982	3884.83
697.171	3923.74
697.36	3923.74
697.549	3944.22
697.738	3753.76
697.927	3829.53
698.116	3854.11
698.305	3632.93
698.494	3796.76
698.683	3702.56
698.872	3821.34
699.061	3628.83
699.25	3735.32
699.438	3727.13
699.627	3753.76
699.816	3819.29
700.005	3704.6
700.193	3669.79
700.382	3632.93
700.571	3727.13
700.76	3634.97
700.948	3694.36
701.137	3551.01
701.326	3702.56
701.514	3667.74
701.703	3641.12
701.892	3655.45
702.08	3524.38
702.269	3614.49
702.457	3532.58
702.646	3587.87
702.834	3620.64
703.023	3458.85
703.212	3491.62
703.4	3483.42
703.589	3426.08
703.777	3473.18
703.965	3454.75
704.154	3473.18
704.342	3376.93
704.531	3399.46
704.719	3338.02
704.907	3475.23
705.096	3221.28
705.284	3417.89
705.472	3409.7
705.661	3305.25
705.849	3424.03
706.037	3452.7
706.226	3223.33
706.414	3401.51
706.602	3272.48
706.79	3360.55
706.979	3178.28
707.167	3254.05
707.355	3284.77
707.543	3252
707.731	3317.54
707.919	3198.76
708.107	3075.88
708.296	3243.81
708.484	3194.66
708.672	3065.64
708.86	3153.7
709.048	3196.71
709.236	3131.17
709.424	3098.41
709.612	3129.13
709.8	3176.23
709.988	3006.25
710.176	2965.29
710.364	3016.49
710.551	3043.11
710.739	3098.41
710.927	2998.06
711.115	2981.67
711.303	3112.74
711.491	2996.01
711.679	2971.43
711.866	2981.67
712.054	2893.61
712.242	2996.01
712.43	2975.53
712.617	2842.41
712.805	2948.9
712.993	2885.42
713.181	2854.7
713.368	2866.99
713.556	3010.34
713.744	2850.6
713.931	2858.79
714.119	2862.89
714.306	2803.5
714.494	2834.22
714.682	2864.94
714.869	2719.53
715.057	2787.11
715.244	2809.64
715.432	2760.49
715.619	2807.59
715.807	2772.78
715.994	2742.06
716.182	2828.07
716.369	2842.41
716.556	2645.8
716.744	2608.94
716.931	2793.26
717.119	2727.72
717.306	2664.24
717.493	2598.7
717.681	2629.42
717.868	2760.49
718.055	2678.57
718.242	2637.61
718.43	2631.47
718.617	2596.65
718.804	2713.39
718.991	2613.04
719.179	2398
719.366	2576.17
719.553	2602.8
719.74	2547.5
719.927	2557.74
720.114	2385.71
720.301	2451.25
720.488	2375.47
720.676	2426.67
720.863	2520.88
721.05	2549.55
721.237	2524.97
721.424	2518.83
721.611	2375.47
721.798	2518.83
721.985	2268.98
722.172	2457.39
722.358	2418.48
722.545	2508.59
722.732	2475.82
722.919	2449.2
723.106	2305.84
723.293	2436.91
723.48	2328.37
723.667	2314.03
723.853	2309.94
724.04	2244.4
724.227	2266.93
724.414	2387.76
724.6	2311.99
724.787	2336.56
724.974	2334.51
725.161	2352.95
725.347	2156.34
725.534	2260.79
725.72	2318.13
725.907	2330.42
726.094	2365.23
726.28	2219.83
726.467	2115.38
726.653	2099
726.84	2393.9
727.027	2246.45
727.213	2185.01
727.4	2219.83
727.586	2193.2
727.773	2250.55
727.959	2246.45
728.145	2195.25
728.332	2236.21
728.518	2049.85
728.705	2293.55
728.891	2156.34
729.077	2055.99
729.264	2195.25
729.45	2162.48
729.636	2158.39
729.823	2049.85
730.009	2211.64
730.195	2107.19
730.382	2166.58
730.568	2109.24
730.754	2072.37
730.94	2064.18
731.126	1994.55
731.313	2023.22
731.499	2109.24
731.685	2051.89
731.871	2060.09
732.057	2072.37
732.243	2142
732.429	2076.47
732.615	2084.66
732.801	1976.12
732.987	2047.8
733.173	2082.61
733.359	1961.78
733.545	1992.5
733.731	2025.27
733.917	2076.47
734.103	1994.55
734.289	2043.7
734.475	1834.81
734.661	2107.19
734.847	1945.4
735.033	2031.41
735.219	1865.53
735.404	2000.69
735.59	2025.27
735.776	1910.58
735.962	1937.21
736.148	1896.25
736.333	1918.78
736.519	1916.73
736.705	1900.34
736.89	1847.1
737.076	1859.38
737.262	1732.41
737.447	1943.35
737.633	1853.24
737.819	1845.05
738.004	1787.71
738.19	1826.62
738.375	1849.15
738.561	1869.62
738.747	1838.91
738.932	1793.85
739.118	1896.25
739.303	1754.94
739.489	1736.51
739.674	1793.85
739.859	1838.91
740.045	1781.56
740.23	1830.71
740.416	1783.61
740.601	1736.51
740.786	1769.27
740.972	1711.93
741.157	1640.25
741.342	1605.44
741.528	1689.4
741.713	1646.4
741.898	1720.12
742.084	1591.1
742.269	1744.7
742.454	1711.93
742.639	1765.18
742.824	1746.75
743.01	1685.31
743.195	1785.66
743.38	1630.01
743.565	1593.15
743.75	1611.58
743.935	1558.33
744.12	1548.09
744.305	1613.63
744.49	1572.67
744.675	1511.23
744.86	1640.25
745.045	1566.53
745.23	1478.46
745.415	1484.61
745.6	1484.61
745.785	1498.94
745.97	1615.68
746.155	1539.9
746.34	1503.04
746.525	1544
746.71	1580.86
746.895	1410.88
747.079	1443.65
747.264	1470.27
747.449	1531.71
747.634	1392.45
747.819	1431.36
748.003	1429.31
748.188	1361.73
748.373	1443.65
748.557	1447.74
748.742	1371.97
748.927	1347.39
749.111	1322.82
749.296	1306.43
749.481	1400.64
749.665	1447.74
749.85	1371.97
750.034	1304.39
750.219	1304.39
750.404	1251.14
750.588	1236.8
750.773	1255.23
750.957	1279.81
751.141	1384.26
751.326	1244.99
751.51	1228.61
751.695	1285.95
751.879	1191.75
752.064	1343.3
752.248	1232.71
752.432	1222.47
752.617	1249.09
752.801	1318.72
752.985	1269.57
753.17	1228.61
753.354	1146.69
753.538	1322.82
753.722	1167.17
753.907	1136.45
754.091	1140.55
754.275	1101.64
754.459	1091.4
754.643	1189.7
754.828	1032.01
755.012	1122.12
755.196	1025.86
755.38	1060.68
755.564	1034.05
755.748	1062.73
755.932	1025.86
756.116	1027.91
756.3	1095.49
756.484	999.24
756.668	1001.29
756.852	902.98
757.036	1066.82
757.22	1025.86
757.404	1036.1
757.588	1015.62
757.772	984.9
757.956	870.22
758.14	1044.29
758.323	853.83
758.507	1025.86
758.691	952.13
758.875	943.94
759.059	989
759.242	1007.43
759.426	945.99
759.61	872.26
759.794	905.03
759.977	917.32
760.161	1023.81
760.345	900.94
760.528	841.54
760.712	872.26
760.895	900.94
761.079	925.51
761.263	843.59
761.446	853.83
761.63	786.25
761.813	907.08
761.997	886.6
762.18	773.96
762.364	892.74
762.547	923.46
762.731	786.25
762.914	859.98
763.098	868.17
763.281	835.4
763.464	902.98
763.648	839.5
763.831	847.69
764.015	765.77
764.198	884.55
764.381	810.82
764.564	786.25
764.748	761.67
764.931	827.21
765.114	909.13
765.297	778.06
765.481	862.02
765.664	763.72
765.847	751.43
766.03	810.82
766.213	741.19
766.397	761.67
766.58	733
766.763	726.86
766.946	716.62
767.129	769.87
767.312	780.11
767.495	753.48
767.678	665.42
767.861	745.29
768.044	728.91
768.227	782.15
768.41	733
768.593	689.99
768.776	665.42
768.959	704.33
769.142	788.3
769.324	681.8
769.507	788.3
769.69	679.75
769.873	663.37
770.056	747.34
770.239	722.76
770.421	761.67
770.604	749.39
770.787	720.71
770.97	728.91
771.152	737.1
771.335	708.43
771.518	718.67
771.7	712.52
771.883	778.06
772.066	597.84
772.248	718.67
772.431	673.61
772.613	720.71
772.796	673.61
772.978	679.75
773.161	716.62
773.343	589.64
773.526	747.34
773.708	573.26
773.891	608.08
774.073	622.41
774.256	710.47
774.438	704.33
774.621	616.27
774.803	659.28
774.985	618.32
775.168	599.88
775.35	552.78
775.532	606.03
775.715	491.34
775.897	528.21
776.079	659.28
776.261	515.92
776.444	622.41
776.626	565.07
776.808	597.84
776.99	540.49
777.173	583.5
777.355	522.06
777.537	671.56
777.719	585.55
777.901	593.74
778.083	614.22
778.265	524.11
778.447	577.36
778.629	532.3
778.811	495.44
778.993	520.01
779.175	487.25
779.357	501.58
779.539	507.73
779.721	515.92
779.903	552.78
780.085	479.05
780.267	513.87
780.449	458.57
780.631	581.45
780.812	532.3
780.994	563.02
781.176	450.38
781.358	450.38
781.54	452.43
781.721	485.2
781.903	558.92
782.085	483.15
782.267	452.43
782.448	329.55
782.63	442.19
782.812	450.38
782.993	450.38
783.175	495.44
783.357	458.57
783.538	442.19
783.72	462.67
783.901	442.19
784.083	405.33
784.264	462.67
784.446	331.6
784.627	442.19
784.809	386.9
784.99	393.04
785.172	458.57
785.353	364.37
785.535	458.57
785.716	417.61
785.897	395.09
786.079	345.94
786.26	386.9
786.441	327.5
786.623	319.31
786.804	360.27
786.985	405.33
787.167	362.32
787.348	311.12
787.529	362.32
787.71	477.01
787.891	393.04
788.073	372.56
788.254	253.78
788.435	427.85
788.616	409.42
788.797	393.04
788.978	302.93
789.159	335.7
789.34	278.35
789.522	341.84
789.703	319.31
789.884	345.94
790.065	354.13
790.246	345.94
790.427	272.21
790.607	405.33
790.788	321.36
790.969	321.36
791.15	302.93
791.331	290.64
791.512	280.4
791.693	216.91
791.874	321.36
792.054	407.38
792.235	319.31
792.416	288.59
792.597	253.78
792.778	274.26
792.958	257.87
793.139	178
793.32	247.63
793.5	241.49
793.681	257.87
793.862	270.16
794.042	282.45
794.223	253.78
794.404	253.78
794.584	261.97
794.765	239.44
794.945	261.97
795.126	339.79
795.306	204.63
795.487	225.11
795.667	296.78
795.848	245.59
796.028	165.71
796.209	253.78
796.389	298.83
796.57	212.82
796.75	309.07
796.93	188.24
797.111	163.67
797.291	270.16
797.471	212.82
797.652	212.82
797.832	110.42
798.012	278.35
798.192	157.52
798.373	194.39
798.553	253.78
798.733	237.39
798.913	247.63
799.093	163.67
799.274	210.77
799.454	319.31
799.634	196.43
799.814	278.35
799.994	235.35
800.174	255.83
800.354	261.97
800.534	192.34
800.714	245.59
800.894	206.67
801.074	122.71
801.254	261.97
801.434	257.87
801.614	190.29
801.794	237.39
801.974	755.53
802.154	184.15
802.334	165.71
802.514	212.82
802.693	149.33
802.873	190.29
803.053	151.38
803.233	206.67
803.413	171.86
803.592	108.37
803.772	132.95
803.952	171.86
804.131	180.05
804.311	184.15
804.491	214.87
804.67	122.71
804.85	77.65
805.03	208.72
805.209	206.67
805.389	175.95
805.568	237.39
805.748	175.95
805.928	130.9
806.107	190.29
806.287	200.53
806.466	126.8
806.646	167.76
806.825	180.05
807.004	114.52
807.184	190.29
807.363	139.09
807.543	212.82
807.722	116.56
807.901	104.28
808.081	114.52
808.26	108.37
808.439	182.1
808.619	143.19
808.798	116.56
808.977	163.67
809.156	200.53
809.336	139.09
809.515	180.05
809.694	141.14
809.873	122.71
810.052	118.61
810.231	253.78
810.411	175.95
810.59	151.38
810.769	165.71
810.948	261.97
811.127	100.18
811.306	165.71
811.485	91.99
811.664	139.09
811.843	204.63
812.022	137.04
812.201	98.13
812.38	147.28
812.559	73.56
812.737	163.67
812.916	77.65
813.095	34.64
813.274	96.08
813.453	180.05
813.632	100.18
813.811	139.09
813.989	63.32
814.168	198.48
814.347	22.36
814.526	89.94
814.704	139.09
814.883	163.67
815.062	89.94
815.24	122.71
815.419	65.36
815.598	124.76
815.776	110.42
815.955	57.17
816.133	69.46
816.312	124.76
816.49	48.98
816.669	118.61
816.847	237.39
817.026	167.76
817.204	112.47
817.383	122.71
817.561	149.33
817.74	159.57
817.918	155.47
818.097	102.23
818.275	130.9
818.453	130.9
818.632	79.7
818.81	159.57
818.988	102.23
819.167	118.61
819.345	24.4
819.523	71.51
819.701	130.9
819.879	157.52
820.058	85.84
820.236	167.76
820.414	116.56
820.592	44.88
820.77	163.67
820.948	67.41
821.127	102.23
821.305	147.28
821.483	36.69
821.661	114.52
821.839	57.17
822.017	8.02
822.195	130.9
822.373	130.9
822.551	67.41
822.729	98.13
822.907	98.13
823.085	130.9
823.262	59.22
823.44	53.08
823.618	89.94
823.796	89.94
823.974	139.09
824.152	75.6
824.329	122.71
824.507	57.17
824.685	87.89
824.863	30.55
825.04	122.71
825.218	91.99
825.396	112.47
825.574	48.98
825.751	128.85
825.929	83.8
826.107	100.18
826.284	96.08
826.462	139.09
826.639	102.23
826.817	71.51
826.994	83.8
827.172	-16.55
827.349	67.41
827.527	57.17
827.704	67.41
827.882	69.46
828.059	83.8
828.237	73.56
828.414	67.41
828.591	30.55
828.769	51.03
828.946	57.17
829.124	106.32
829.301	12.12
829.478	24.4
829.655	16.21
829.833	18.26
830.01	12.12
830.187	83.8
830.364	12.12
830.542	73.56
830.719	122.71
830.896	106.32
831.073	188.24
831.25	89.94
831.427	110.42
831.604	51.03
831.782	77.65
831.959	79.7
832.136	102.23
832.313	130.9
832.49	65.36
832.667	106.32
832.844	75.6
833.021	48.98
833.198	75.6
833.374	20.31
833.551	85.84
833.728	-12.46
833.905	118.61
834.082	28.5
834.259	48.98
834.436	40.79
834.612	32.6
834.789	73.56
834.966	48.98
835.143	124.76
835.319	42.84
835.496	94.04
835.673	65.36
835.85	73.56
836.026	57.17
836.203	77.65
836.38	116.56
836.556	81.75
836.733	75.6
836.909	77.65
837.086	120.66
837.262	40.79
837.439	32.6
837.616	59.22
837.792	40.79
837.968	20.31
838.145	-0.17
838.321	-6.31
838.498	81.75
838.674	94.04
838.851	77.65
839.027	-65.71
839.203	75.6
839.38	83.8
839.556	-2.22
839.732	20.31
839.909	-20.65
840.085	61.27
840.261	-14.51
840.437	59.22
840.614	3.93
840.79	67.41
840.966	53.08
841.142	157.52
841.318	71.51
841.494	40.79
841.671	26.45
841.847	63.32
842.023	-26.79
842.199	51.03
842.375	3.93
842.551	112.47
842.727	75.6
842.903	67.41
843.079	-2.22
843.255	110.42
843.431	-55.47
843.607	77.65
843.783	-57.51
843.959	57.17
844.134	-0.17
844.31	20.31
844.486	-16.55
844.662	53.08
844.838	79.7
845.013	71.51
845.189	36.69
845.365	65.36
845.541	63.32
845.716	65.36
845.892	59.22
846.068	48.98
846.244	40.79
846.419	77.65
846.595	-12.46
846.77	20.31
846.946	73.56
847.122	-14.51
847.297	1.88
847.473	51.03
847.648	-8.36
847.824	87.89
847.999	-16.55
848.175	100.18
848.35	91.99
848.526	71.51
848.701	3.93
848.876	8.02
849.052	59.22
849.227	34.64
849.403	-0.17
849.578	48.98
849.753	98.13
849.929	85.84
850.104	30.55
850.279	57.17
850.454	10.07
850.63	53.08
850.805	114.52
850.98	16.21
851.155	128.85
851.33	8.02
851.505	-20.65
851.681	69.46
851.856	-49.32
852.031	-20.65
852.206	87.89
852.381	-55.47
852.556	-26.79
852.731	51.03
852.906	30.55
853.081	26.45
853.256	67.41
853.431	42.84
853.606	-6.31
853.781	3.93
853.956	-16.55
854.131	48.98
854.305	28.5
854.48	98.13
854.655	-32.94
854.83	-24.75
855.005	-80.04
855.18	63.32
855.354	46.93
855.529	44.88
855.704	8.02
855.879	48.98
856.053	34.64
856.228	16.21
856.403	26.45
856.577	28.5
856.752	-57.51
856.926	-10.41
857.101	51.03
857.276	24.4
857.45	10.07
857.625	20.31
857.799	42.84
857.974	3.93
858.148	-53.42
858.323	28.5
858.497	61.27
858.672	-49.32
858.846	-65.71
859.02	57.17
859.195	-73.9
859.369	32.6
859.543	-8.36
859.718	-16.55
859.892	-32.94
860.066	-6.31
860.241	-8.36
860.415	-8.36
860.589	61.27
860.763	44.88
860.938	40.79
861.112	-24.75
861.286	-24.75
861.46	12.12
861.634	-30.89
861.808	1.88
861.982	-49.32
862.157	34.64
862.331	-6.31
862.505	-8.36
862.679	-0.17
862.853	-10.41
863.027	18.26
863.201	104.28
863.375	-24.75
863.549	73.56
863.722	57.17
863.896	114.52
864.07	-0.17
864.244	-24.75
864.418	51.03
864.592	40.79
864.766	16.21
864.939	12.12
865.113	67.41
865.287	116.56
865.461	12.12
865.634	51.03
865.808	-8.36
865.982	-12.46
866.156	8.02
866.329	-61.61
866.503	1.88
866.676	53.08
866.85	1.88
867.024	61.27
867.197	40.79
867.371	16.21
867.544	32.6
867.718	8.02
867.891	53.08
868.065	3.93
868.238	18.26
868.412	18.26
868.585	40.79
868.759	24.4
868.932	26.45
869.105	20.31
869.279	-4.27
869.452	-12.46
869.625	28.5
869.799	-53.42
869.972	-71.85
870.145	20.31
870.319	22.36
870.492	-16.55
870.665	40.79
870.838	28.5
871.011	-24.75
871.185	-32.94
871.358	46.93
871.531	-16.55
871.704	46.93
871.877	-0.17
872.05	-71.85
872.223	-24.75
872.396	106.32
872.569	-32.94
872.742	32.6
872.915	-12.46
873.088	61.27
873.261	16.21
873.434	48.98
873.607	1.88
873.78	57.17
873.953	-16.55
874.126	-4.27
874.299	-71.85
874.471	-6.31
874.644	53.08
874.817	-24.75
874.99	24.4
875.163	8.02
875.335	18.26
875.508	3.93
875.681	-8.36
875.853	-8.36
876.026	20.31
876.199	30.55
876.371	-37.03
876.544	-41.13
876.717	24.4
876.889	-63.66
877.062	46.93
877.234	-59.56
877.407	61.27
877.579	18.26
877.752	10.07
877.924	32.6
878.097	-39.08
878.269	77.65
878.442	46.93
878.614	-18.6
878.786	40.79
878.959	-59.56
879.131	42.84
879.303	-53.42
879.476	32.6
879.648	65.36
879.82	98.13
879.993	-6.31
880.165	-2.22
880.337	48.98
880.509	-24.75
880.681	-4.27
880.854	-32.94
881.026	57.17
881.198	32.6
881.37	-8.36
881.542	16.21
881.714	-37.03
881.886	-16.55
882.058	67.41
882.23	40.79
882.402	1.88
882.574	28.5
882.746	-41.13
882.918	24.4
883.09	24.4
883.262	-16.55
883.434	40.79
883.606	-55.47
883.778	-12.46
883.95	73.56
884.122	-30.89
884.293	12.12
884.465	53.08
884.637	8.02
884.809	-61.61
884.98	20.31
885.152	-28.84
885.324	16.21
885.496	-8.36
885.667	-80.04
885.839	-61.61
886.011	8.02
886.182	-30.89
886.354	67.41
886.525	-24.75
886.697	-0.17
886.869	28.5
887.04	18.26
887.212	34.64
887.383	81.75
887.555	-32.94
887.726	-8.36
887.897	-32.94
888.069	8.02
888.24	28.5
888.412	5.97
888.583	-55.47
888.754	87.89
888.926	-32.94
889.097	-16.55
889.268	-32.94
889.44	48.98
889.611	-90.28
889.782	36.69
889.953	-41.13
890.125	106.32
890.296	16.21
890.467	81.75
890.638	-41.13
890.809	-28.84
890.98	-28.84
891.151	46.93
891.323	67.41
891.494	48.98
891.665	-65.71
891.836	8.02
892.007	32.6
892.178	53.08
892.349	36.69
892.52	-59.56
892.691	-14.51
892.862	51.03
893.032	18.26
893.203	-0.17
893.374	-116.9
893.545	48.98
893.716	-39.08
893.887	36.69
894.057	-69.8
894.228	-20.65
894.399	-4.27
894.57	-0.17
894.74	24.4
894.911	69.46
895.082	-41.13
895.253	-96.43
895.423	-59.56
895.594	8.02
895.764	53.08
895.935	-20.65
896.106	-6.31
896.276	-39.08
896.447	75.6
896.617	-16.55
896.788	1.88
896.958	-65.71
897.129	40.79
897.299	-43.18
897.47	36.69
897.64	85.84
897.81	-8.36
897.981	16.21
898.151	-24.75
898.322	24.4
898.492	8.02
898.662	-16.55
898.832	-63.66
899.003	-28.84
899.173	-26.79
899.343	36.69
899.513	-71.85
