Data from USB4F104151__278__14-34-42-730.txt Node

Date: Thu Mar 13 14:34:42 EDT 2025
User: louis
Spectrometer: USB4F10415
Trigger mode: 4
Integration Time (sec): 2.500000E-2
Scans to average: 1
Electric dark correction enabled: true
Nonlinearity correction enabled: false
Boxcar width: 0
XAxis mode: Wavelengths
Number of Pixels in Spectrum: 3648
>>>>>Begin Spectral Data<<<<<
178.204	-197.8
178.424	-197.8
178.644	-197.8
178.864	-72.87
179.084	-150.7
179.304	-13.48
179.524	19.29
179.744	-29.87
179.964	58.2
180.184	9.05
180.404	21.33
180.624	-42.15
180.844	-44.2
181.064	29.52
181.283	4.95
181.503	-21.67
181.723	9.05
181.943	-23.72
182.163	90.96
182.383	50
182.602	41.81
182.822	50
183.042	33.62
183.262	0.85
183.482	58.2
183.701	35.67
183.921	37.72
184.141	11.09
184.361	50
184.58	-7.34
184.8	-29.87
185.02	-31.91
185.239	107.35
185.459	-1.19
185.679	-21.67
185.898	-58.54
186.118	66.39
186.338	-13.48
186.557	0.85
186.777	-13.48
186.997	25.43
187.216	9.05
187.436	62.29
187.655	76.63
187.875	41.81
188.095	-21.67
188.314	74.58
188.534	27.48
188.753	-46.25
188.973	-25.77
189.192	68.44
189.412	33.62
189.631	17.24
189.851	103.25
190.07	-5.29
190.29	13.14
190.509	17.24
190.729	-15.53
190.948	41.81
191.168	150.36
191.387	52.05
191.607	37.72
191.826	-3.24
192.045	0.85
192.265	41.81
192.484	52.05
192.704	37.72
192.923	-17.58
193.142	29.52
193.362	25.43
193.581	45.91
193.8	19.29
194.02	129.88
194.239	-27.82
194.458	4.95
194.678	62.29
194.897	-17.58
195.116	52.05
195.335	11.09
195.555	50
195.774	31.57
195.993	35.67
196.212	62.29
196.432	-11.43
196.651	29.52
196.87	-7.34
197.089	148.31
197.308	82.77
197.528	93.01
197.747	2.9
197.966	9.05
198.185	86.87
198.404	-56.49
198.623	64.34
198.842	76.63
199.062	9.05
199.281	27.48
199.5	41.81
199.719	17.24
199.938	56.15
200.157	25.43
200.376	37.72
200.595	82.77
200.814	68.44
201.033	-31.91
201.252	50
201.471	9.05
201.69	15.19
201.909	33.62
202.128	29.52
202.347	60.24
202.566	2.9
202.785	-23.72
203.004	-58.54
203.223	60.24
203.442	11.09
203.661	11.09
203.879	-9.39
204.098	86.87
204.317	-1.19
204.536	62.29
204.755	50
204.974	13.14
205.193	17.24
205.411	109.4
205.63	123.73
205.849	-19.63
206.068	11.09
206.287	-25.77
206.505	50
206.724	9.05
206.943	-27.82
207.162	0.85
207.381	60.24
207.599	-29.87
207.818	-7.34
208.037	52.05
208.255	27.48
208.474	-23.72
208.693	105.3
208.911	27.48
209.13	37.72
209.349	-13.48
209.567	19.29
209.786	7
210.005	54.1
210.223	17.24
210.442	-19.63
210.661	25.43
210.879	-21.67
211.098	0.85
211.316	15.19
211.535	74.58
211.753	-23.72
211.972	25.43
212.191	50
212.409	74.58
212.628	74.58
212.846	-48.3
213.065	58.2
213.283	41.81
213.502	19.29
213.72	95.06
213.938	-7.34
214.157	-23.72
214.375	60.24
214.594	70.48
214.812	82.77
215.031	-15.53
215.249	54.1
215.467	41.81
215.686	-27.82
215.904	25.43
216.122	-27.82
216.341	107.35
216.559	35.67
216.778	39.76
216.996	99.16
217.214	-48.3
217.432	0.85
217.651	-5.29
217.869	33.62
218.087	11.09
218.306	60.24
218.524	25.43
218.742	17.24
218.96	33.62
219.179	82.77
219.397	-21.67
219.615	95.06
219.833	-11.43
220.051	-74.92
220.27	37.72
220.488	-21.67
220.706	-27.82
220.924	-46.25
221.142	13.14
221.36	19.29
221.578	76.63
221.796	4.95
222.015	17.24
222.233	17.24
222.451	60.24
222.669	4.95
222.887	66.39
223.105	-54.44
223.323	-9.39
223.541	33.62
223.759	90.96
223.977	0.85
224.195	37.72
224.413	60.24
224.631	-7.34
224.849	-15.53
225.067	66.39
225.285	-5.29
225.503	66.39
225.721	-38.06
225.939	11.09
226.157	-44.2
226.375	174.93
226.592	33.62
226.81	-36.01
227.028	101.2
227.246	107.35
227.464	2.9
227.682	29.52
227.9	0.85
228.117	-3.24
228.335	84.82
228.553	25.43
228.771	39.76
228.989	-3.24
229.206	9.05
229.424	33.62
229.642	33.62
229.86	2.9
230.077	84.82
230.295	11.09
230.513	19.29
230.731	76.63
230.948	74.58
231.166	127.83
231.384	-79.02
231.601	9.05
231.819	25.43
232.037	4.95
232.254	-56.49
232.472	52.05
232.689	66.39
232.907	29.52
233.125	78.68
233.342	62.29
233.56	-11.43
233.777	-23.72
233.995	2.9
234.213	29.52
234.43	60.24
234.648	17.24
234.865	25.43
235.083	86.87
235.3	50
235.518	131.92
235.735	54.1
235.953	47.96
236.17	-23.72
236.388	-15.53
236.605	-46.25
236.822	78.68
237.04	58.2
237.257	58.2
237.475	-17.58
237.692	90.96
237.909	93.01
238.127	-7.34
238.344	-31.91
238.562	23.38
238.779	-62.63
238.996	66.39
239.214	21.33
239.431	41.81
239.648	-33.96
239.865	21.33
240.083	54.1
240.3	17.24
240.517	29.52
240.735	33.62
240.952	66.39
241.169	50
241.386	13.14
241.603	-23.72
241.821	58.2
242.038	9.05
242.255	27.48
242.472	-40.11
242.689	9.05
242.907	74.58
243.124	74.58
243.341	41.81
243.558	-81.07
243.775	-19.63
243.992	-3.24
244.209	60.24
244.426	76.63
244.643	150.36
244.86	43.86
245.078	41.81
245.295	-95.4
245.512	29.52
245.729	9.05
245.946	11.09
246.163	70.48
246.38	13.14
246.597	-13.48
246.814	19.29
247.031	39.76
247.248	115.54
247.464	90.96
247.681	105.3
247.898	72.53
248.115	33.62
248.332	0.85
248.549	9.05
248.766	115.54
248.983	27.48
249.2	-11.43
249.417	33.62
249.633	-23.72
249.85	17.24
250.067	82.77
250.284	17.24
250.501	54.1
250.717	41.81
250.934	13.14
251.151	133.97
251.368	21.33
251.585	-15.53
251.801	82.77
252.018	19.29
252.235	43.86
252.451	17.24
252.668	-40.11
252.885	84.82
253.102	19.29
253.318	-48.3
253.535	-15.53
253.752	27.48
253.968	9.05
254.185	-52.39
254.401	-11.43
254.618	-3.24
254.835	13.14
255.051	78.68
255.268	-5.29
255.484	50
255.701	74.58
255.917	33.62
256.134	-64.68
256.351	0.85
256.567	-89.26
256.784	2.9
257	-7.34
257.217	97.11
257.433	-31.91
257.65	19.29
257.866	17.24
258.082	9.05
258.299	11.09
258.515	58.2
258.732	25.43
258.948	4.95
259.165	-13.48
259.381	39.76
259.597	-38.06
259.814	74.58
260.03	0.85
260.246	41.81
260.463	129.88
260.679	39.76
260.895	25.43
261.112	19.29
261.328	-7.34
261.544	27.48
261.761	146.26
261.977	-15.53
262.193	4.95
262.409	107.35
262.626	-70.83
262.842	-1.19
263.058	39.76
263.274	0.85
263.49	4.95
263.707	17.24
263.923	74.58
264.139	-21.67
264.355	19.29
264.571	25.43
264.787	0.85
265.004	29.52
265.22	58.2
265.436	-3.24
265.652	33.62
265.868	33.62
266.084	-74.92
266.3	-7.34
266.516	-36.01
266.732	97.11
266.948	58.2
267.164	-31.91
267.38	45.91
267.596	74.58
267.812	76.63
268.028	74.58
268.244	29.52
268.46	0.85
268.676	-64.68
268.892	39.76
269.108	25.43
269.324	-5.29
269.54	-31.91
269.756	93.01
269.972	7
270.188	41.81
270.403	-27.82
270.619	60.24
270.835	-7.34
271.051	9.05
271.267	-21.67
271.483	4.95
271.698	74.58
271.914	74.58
272.13	21.33
272.346	17.24
272.562	74.58
272.777	7
272.993	60.24
273.209	-7.34
273.425	62.29
273.64	99.16
273.856	74.58
274.072	41.81
274.287	50
274.503	9.05
274.719	31.57
274.934	-60.59
275.15	-72.87
275.366	-7.34
275.581	33.62
275.797	17.24
276.012	45.91
276.228	7
276.444	-23.72
276.659	78.68
276.875	-5.29
277.09	11.09
277.306	37.72
277.521	70.48
277.737	60.24
277.952	17.24
278.168	58.2
278.383	54.1
278.599	-21.67
278.814	58.2
279.03	-7.34
279.245	105.3
279.461	13.14
279.676	17.24
279.892	-64.68
280.107	19.29
280.322	-15.53
280.538	-17.58
280.753	-21.67
280.969	25.43
281.184	52.05
281.399	33.62
281.615	-13.48
281.83	60.24
282.045	7
282.26	-29.87
282.476	64.34
282.691	-3.24
282.906	54.1
283.122	29.52
283.337	-40.11
283.552	82.77
283.767	-15.53
283.983	43.86
284.198	15.19
284.413	80.72
284.628	-31.91
284.843	9.05
285.058	-15.53
285.274	25.43
285.489	25.43
285.704	13.14
285.919	13.14
286.134	50
286.349	19.29
286.564	35.67
286.779	107.35
286.995	-15.53
287.21	-21.67
287.425	66.39
287.64	68.44
287.855	50
288.07	56.15
288.285	64.34
288.5	82.77
288.715	50
288.93	-15.53
289.145	13.14
289.36	33.62
289.575	-29.87
289.79	-9.39
290.004	-1.19
290.219	95.06
290.434	9.05
290.649	27.48
290.864	9.05
291.079	7
291.294	19.29
291.509	99.16
291.724	-11.43
291.938	19.29
292.153	11.09
292.368	-19.63
292.583	90.96
292.798	0.85
293.012	11.09
293.227	131.92
293.442	13.14
293.657	-29.87
293.871	101.2
294.086	-81.07
294.301	82.77
294.516	-5.29
294.73	23.38
294.945	-3.24
295.16	9.05
295.374	109.4
295.589	-9.39
295.804	-31.91
296.018	64.34
296.233	35.67
296.447	-3.24
296.662	-56.49
296.877	76.63
297.091	43.86
297.306	103.25
297.52	23.38
297.735	58.2
297.949	31.57
298.164	-1.19
298.378	-3.24
298.593	41.81
298.807	0.85
299.022	-23.72
299.236	41.81
299.451	-3.24
299.665	66.39
299.88	33.62
300.094	58.2
300.309	115.54
300.523	107.35
300.737	74.58
300.952	103.25
301.166	9.05
301.381	-21.67
301.595	70.48
301.809	-13.48
302.024	50
302.238	2.9
302.452	35.67
302.667	76.63
302.881	60.24
303.095	43.86
303.309	-11.43
303.524	-29.87
303.738	35.67
303.952	-7.34
304.166	50
304.381	-23.72
304.595	54.1
304.809	-58.54
305.023	60.24
305.237	-29.87
305.452	29.52
305.666	58.2
305.88	13.14
306.094	21.33
306.308	-5.29
306.522	35.67
306.736	39.76
306.95	43.86
307.164	-17.58
307.379	27.48
307.593	33.62
307.807	15.19
308.021	60.24
308.235	25.43
308.449	35.67
308.663	-5.29
308.877	82.77
309.091	-13.48
309.305	50
309.519	52.05
309.733	11.09
309.947	-9.39
310.161	25.43
310.374	74.58
310.588	13.14
310.802	-1.19
311.016	-31.91
311.23	-23.72
311.444	-11.43
311.658	13.14
311.872	107.35
312.085	-25.77
312.299	131.92
312.513	107.35
312.727	66.39
312.941	-60.59
313.154	21.33
313.368	-21.67
313.582	52.05
313.796	-13.48
314.009	58.2
314.223	115.54
314.437	-36.01
314.651	0.85
314.864	101.2
315.078	58.2
315.292	-38.06
315.505	58.2
315.719	82.77
315.933	2.9
316.146	33.62
316.36	-13.48
316.573	29.52
316.787	41.81
317.001	66.39
317.214	-5.29
317.428	19.29
317.641	35.67
317.855	0.85
318.068	23.38
318.282	13.14
318.495	86.87
318.709	33.62
318.922	21.33
319.136	11.09
319.349	88.92
319.563	33.62
319.776	70.48
319.99	-36.01
320.203	19.29
320.417	52.05
320.63	37.72
320.843	95.06
321.057	7
321.27	41.81
321.483	52.05
321.697	109.4
321.91	35.67
322.124	13.14
322.337	50
322.55	41.81
322.763	4.95
322.977	27.48
323.19	-29.87
323.403	17.24
323.617	58.2
323.83	107.35
324.043	39.76
324.256	82.77
324.469	11.09
324.683	11.09
324.896	54.1
325.109	41.81
325.322	15.19
325.535	-29.87
325.748	99.16
325.962	56.15
326.175	27.48
326.388	37.72
326.601	88.92
326.814	0.85
327.027	43.86
327.24	109.4
327.453	-11.43
327.666	62.29
327.879	60.24
328.092	70.48
328.305	50
328.518	33.62
328.731	50
328.944	-48.3
329.157	-44.2
329.37	33.62
329.583	142.16
329.796	35.67
330.009	-1.19
330.222	80.72
330.435	54.1
330.648	39.76
330.861	-31.91
331.073	43.86
331.286	52.05
331.499	56.15
331.712	-5.29
331.925	33.62
332.138	25.43
332.35	50
332.563	74.58
332.776	76.63
332.989	25.43
333.202	27.48
333.414	47.96
333.627	-9.39
333.84	2.9
334.053	39.76
334.265	37.72
334.478	11.09
334.691	4.95
334.903	-5.29
335.116	27.48
335.329	2.9
335.541	86.87
335.754	82.77
335.966	21.33
336.179	-40.11
336.392	9.05
336.604	70.48
336.817	90.96
337.029	58.2
337.242	84.82
337.454	-5.29
337.667	45.91
337.88	74.58
338.092	43.86
338.305	56.15
338.517	-13.48
338.729	43.86
338.942	107.35
339.154	33.62
339.367	2.9
339.579	-13.48
339.792	21.33
340.004	-36.01
340.217	17.24
340.429	50
340.641	66.39
340.854	62.29
341.066	35.67
341.278	21.33
341.491	41.81
341.703	11.09
341.915	-66.73
342.128	52.05
342.34	21.33
342.552	37.72
342.764	29.52
342.977	70.48
343.189	-21.67
343.401	17.24
343.613	-97.45
343.826	45.91
344.038	-7.34
344.25	115.54
344.462	-31.91
344.674	54.1
344.886	9.05
345.099	58.2
345.311	93.01
345.523	99.16
345.735	-17.58
345.947	95.06
346.159	0.85
346.371	25.43
346.583	-27.82
346.795	50
347.007	82.77
347.219	-23.72
347.431	-7.34
347.643	86.87
347.855	-1.19
348.067	19.29
348.279	-9.39
348.491	58.2
348.703	-21.67
348.915	82.77
349.127	-11.43
349.339	58.2
349.551	66.39
349.763	50
349.975	58.2
350.187	140.12
350.399	86.87
350.61	41.81
350.822	33.62
351.034	60.24
351.246	2.9
351.458	37.72
351.669	93.01
351.881	35.67
352.093	41.81
352.305	66.39
352.517	39.76
352.728	176.98
352.94	84.82
353.152	45.91
353.363	-25.77
353.575	43.86
353.787	117.59
353.999	23.38
354.21	58.2
354.422	41.81
354.633	68.44
354.845	25.43
355.057	-56.49
355.268	101.2
355.48	23.38
355.692	-7.34
355.903	70.48
356.115	-56.49
356.326	0.85
356.538	99.16
356.749	27.48
356.961	74.58
357.172	23.38
357.384	-1.19
357.595	121.68
357.807	84.82
358.018	-11.43
358.23	78.68
358.441	97.11
358.653	54.1
358.864	11.09
359.075	4.95
359.287	72.53
359.498	39.76
359.709	111.44
359.921	11.09
360.132	33.62
360.344	17.24
360.555	-15.53
360.766	9.05
360.977	19.29
361.189	82.77
361.4	45.91
361.611	84.82
361.823	101.2
362.034	41.81
362.245	-13.48
362.456	50
362.667	107.35
362.879	52.05
363.09	148.31
363.301	-11.43
363.512	-50.35
363.723	9.05
363.935	17.24
364.146	111.44
364.357	2.9
364.568	136.02
364.779	-15.53
364.99	41.81
365.201	9.05
365.412	82.77
365.623	25.43
365.834	60.24
366.045	84.82
366.256	39.76
366.467	90.96
366.678	4.95
366.889	35.67
367.1	19.29
367.311	21.33
367.522	-15.53
367.733	84.82
367.944	43.86
368.155	37.72
368.366	60.24
368.577	62.29
368.788	39.76
368.999	33.62
369.209	4.95
369.42	158.55
369.631	115.54
369.842	47.96
370.053	-7.34
370.264	-11.43
370.474	19.29
370.685	54.1
370.896	27.48
371.107	78.68
371.317	41.81
371.528	37.72
371.739	68.44
371.95	86.87
372.16	58.2
372.371	-11.43
372.582	-27.82
372.792	-7.34
373.003	35.67
373.214	52.05
373.424	111.44
373.635	9.05
373.846	82.77
374.056	17.24
374.267	160.59
374.477	-11.43
374.688	-36.01
374.898	-15.53
375.109	-15.53
375.319	58.2
375.53	74.58
375.74	43.86
375.951	15.19
376.161	33.62
376.372	111.44
376.582	84.82
376.793	62.29
377.003	-72.87
377.214	62.29
377.424	-21.67
377.635	50
377.845	56.15
378.055	50
378.266	-19.63
378.476	70.48
378.686	41.81
378.897	45.91
379.107	9.05
379.317	119.64
379.528	17.24
379.738	56.15
379.948	31.57
380.158	23.38
380.369	37.72
380.579	-11.43
380.789	7
380.999	58.2
381.21	64.34
381.42	54.1
381.63	4.95
381.84	90.96
382.05	82.77
382.261	115.54
382.471	33.62
382.681	-15.53
382.891	60.24
383.101	74.58
383.311	-21.67
383.521	-23.72
383.731	82.77
383.941	140.12
384.151	9.05
384.361	62.29
384.571	17.24
384.781	50
384.991	144.21
385.201	50
385.411	33.62
385.621	35.67
385.831	54.1
386.041	64.34
386.251	52.05
386.461	138.07
386.671	41.81
386.881	109.4
387.091	-64.68
387.301	109.4
387.511	123.73
387.72	123.73
387.93	50
388.14	-44.2
388.35	64.34
388.56	80.72
388.769	52.05
388.979	66.39
389.189	37.72
389.399	72.53
389.609	21.33
389.818	76.63
390.028	39.76
390.238	56.15
390.447	35.67
390.657	158.55
390.867	78.68
391.076	-36.01
391.286	66.39
391.496	82.77
391.705	-48.3
391.915	107.35
392.125	97.11
392.334	82.77
392.544	-7.34
392.753	29.52
392.963	-64.68
393.172	54.1
393.382	27.48
393.591	90.96
393.801	95.06
394.01	52.05
394.22	80.72
394.429	125.78
394.639	72.53
394.848	-3.24
395.058	50
395.267	86.87
395.477	74.58
395.686	70.48
395.895	179.03
396.105	111.44
396.314	117.59
396.524	138.07
396.733	78.68
396.942	152.4
397.152	111.44
397.361	131.92
397.57	156.5
397.78	129.88
397.989	54.1
398.198	127.83
398.407	109.4
398.617	84.82
398.826	86.87
399.035	117.59
399.244	117.59
399.453	52.05
399.663	150.36
399.872	133.97
400.081	76.63
400.29	101.2
400.499	76.63
400.708	93.01
400.917	97.11
401.127	160.59
401.336	70.48
401.545	144.21
401.754	131.92
401.963	140.12
402.172	74.58
402.381	111.44
402.59	78.68
402.799	54.1
403.008	76.63
403.217	131.92
403.426	144.21
403.635	121.68
403.844	119.64
404.053	164.69
404.262	123.73
404.471	84.82
404.68	127.83
404.888	109.4
405.097	133.97
405.306	174.93
405.515	152.4
405.724	150.36
405.933	103.25
406.142	181.07
406.35	215.89
406.559	117.59
406.768	172.88
406.977	181.07
407.185	193.36
407.394	197.46
407.603	164.69
407.812	213.84
408.02	232.27
408.229	142.16
408.438	179.03
408.646	207.7
408.855	295.76
409.064	232.27
409.272	291.66
409.481	295.76
409.69	353.1
409.898	172.88
410.107	322.38
410.315	324.43
410.524	310.1
410.733	273.23
410.941	336.72
411.15	365.39
411.358	365.39
411.567	377.68
411.775	500.56
411.984	394.06
412.192	377.68
412.401	398.16
412.609	469.84
412.818	451.41
413.026	467.79
413.234	529.23
413.443	539.47
413.651	488.27
413.86	559.95
414.068	633.68
414.276	658.25
414.485	639.82
414.693	680.78
414.901	719.69
415.11	723.79
415.318	625.48
415.526	699.21
415.734	729.93
415.943	787.27
416.151	918.34
416.359	840.52
416.567	832.33
416.776	856.9
416.984	994.12
417.192	1047.37
417.4	1014.6
417.608	895.82
417.817	1041.22
418.025	1127.24
418.233	1231.68
418.441	1096.52
418.649	1254.21
418.857	1184.58
419.065	1364.8
419.273	1315.65
419.481	1329.99
419.689	1493.82
419.897	1495.87
420.105	1473.34
420.313	1528.64
420.521	1663.8
420.729	1561.41
420.937	1733.43
421.145	1798.97
421.353	1858.36
421.561	1872.7
421.769	2003.77
421.977	2032.44
422.185	2016.05
422.393	2143.03
422.601	2276.15
422.809	2227
423.017	2378.55
423.224	2386.74
423.432	2622.25
423.64	2603.82
423.848	2667.31
424.056	2587.44
424.263	2917.16
424.471	2781.99
424.679	2845.48
424.887	3013.42
425.094	2947.88
425.302	3203.88
425.51	3255.08
425.718	3402.53
425.925	3443.49
426.133	3746.59
426.341	3670.81
426.548	3734.3
426.756	3867.42
426.964	4043.54
427.171	4215.57
427.379	4121.37
427.586	4475.67
427.794	4449.04
428.001	4698.89
428.209	4901.64
428.417	4655.89
428.624	5024.52
428.832	5141.25
429.039	5081.86
429.247	5055.24
429.454	5509.89
429.662	6095.61
429.869	5581.57
430.076	5817.08
430.284	5784.32
430.491	6107.9
430.699	6304.5
430.906	6519.54
431.114	6390.52
431.321	6660.85
431.528	6884.08
431.736	7361.25
431.943	7533.28
432.15	7365.35
432.358	7572.19
432.565	7858.91
432.772	7895.77
432.979	8276.7
433.187	8321.75
433.394	8245.98
433.601	8903.37
433.808	9063.12
434.016	9196.23
434.223	9259.72
434.43	9855.68
434.637	9593.54
434.844	10252.98
435.052	10300.09
435.259	10451.64
435.466	10502.84
435.673	10461.88
435.88	10998.45
436.087	11739.81
436.294	11463.33
436.501	11170.47
436.708	11248.3
436.915	11748
437.122	12479.13
437.329	12536.47
437.537	12628.63
437.743	12808.85
437.95	12763.79
438.157	13646.47
438.364	13943.42
438.571	14074.49
438.778	14301.82
438.985	15295.08
439.192	14836.34
439.399	15137.39
439.606	14887.54
439.813	15573.61
440.02	16601.69
440.227	16310.88
440.433	16226.91
440.64	16788.05
440.847	16454.23
441.054	16968.27
441.261	17998.4
441.467	17869.38
441.674	18371.13
441.881	18917.94
442.088	18674.23
442.294	18498.11
442.501	18997.81
442.708	19675.69
442.914	20519.45
443.121	21154.32
443.328	20476.44
443.534	21987.85
443.741	21398.03
443.948	21142.03
444.154	22592
444.361	22725.11
444.568	22755.83
444.774	22702.59
444.981	22794.75
445.187	23499.25
445.394	24676.83
445.6	24279.52
445.807	26716.61
446.013	25162.2
446.22	25698.77
446.426	26823.1
446.633	27601.33
446.839	28035.5
447.046	26714.56
447.252	28088.74
447.459	28453.28
447.665	28367.27
447.871	29491.6
448.078	30595.46
448.284	29243.8
448.491	30046.6
448.697	31244.66
448.903	31996.27
449.11	31562.1
449.316	31398.26
449.522	31873.39
449.728	32432.49
449.935	32860.51
450.141	33050.97
450.347	33712.47
450.553	32383.34
450.76	33300.83
450.966	33831.25
451.172	33685.84
451.378	34568.52
451.584	33698.13
451.791	34996.54
451.997	34844.99
452.203	35119.42
452.409	35326.27
452.615	35234.11
452.821	34027.85
453.027	33513.81
453.233	35045.69
453.44	33540.44
453.646	33935.7
453.852	34101.58
454.058	34713.92
454.264	33929.55
454.47	34416.97
454.676	33827.15
454.882	34675.01
455.088	32010.6
455.294	32020.84
455.5	32442.73
455.705	32960.86
455.911	31965.55
456.117	30802.3
456.323	30550.4
456.529	28940.7
456.735	30294.41
456.941	29262.23
457.147	28981.66
457.352	28281.25
457.558	27687.34
457.764	27705.77
457.97	27417.01
458.176	26589.63
458.381	26454.47
458.587	25254.36
458.793	25381.33
458.999	23904.74
459.204	25407.95
459.41	24781.28
459.616	23063.03
459.821	23495.15
460.027	23577.07
460.233	22698.49
460.438	21703.18
460.644	21819.91
460.85	20703.77
461.055	20271.65
461.261	20351.52
461.466	18885.17
461.672	18313.79
461.878	19526.19
462.083	18305.6
462.289	17965.64
462.494	17680.97
462.7	17091.15
462.905	16509.53
463.111	16910.93
463.316	16822.87
463.522	16878.16
463.727	16978.51
463.932	16394.84
464.138	16667.22
464.343	16384.6
464.549	16173.66
464.754	16458.33
464.959	16200.29
465.165	16306.78
465.37	15415.91
465.575	14856.82
465.781	15643.24
465.986	15729.25
466.191	15237.74
466.397	14879.35
466.602	14123.65
466.807	14862.96
467.012	14791.28
467.218	14443.13
467.423	14297.72
467.628	14426.75
467.833	15290.99
468.038	14260.86
468.244	13791.87
468.449	14459.51
468.654	13994.62
468.859	13789.83
469.064	13910.66
469.269	13474.44
469.474	13558.41
469.679	13650.57
469.885	13519.5
470.09	13388.43
470.295	13271.69
470.5	12960.4
470.705	12956.3
470.91	12909.2
471.115	12870.29
471.32	12907.15
471.525	12647.06
471.73	12579.48
471.935	12264.09
472.139	12114.59
472.344	12042.91
472.549	12151.45
472.754	11848.35
472.959	11735.71
473.164	11119.28
473.369	11387.56
473.574	11809.44
473.778	11670.18
473.983	11365.03
474.188	11295.4
474.393	10992.3
474.598	11119.28
474.802	10822.32
475.007	10842.8
475.212	10783.41
475.417	10470.07
475.621	10494.65
475.826	10179.26
476.031	10119.87
476.235	9953.98
476.44	10164.92
476.645	9960.13
476.849	9884.35
477.054	9667.27
477.259	9577.16
477.463	9767.62
477.668	9427.65
477.872	9515.72
478.077	9536.2
478.282	9108.17
478.486	9069.26
478.691	9071.31
478.895	9020.11
479.1	8835.79
479.304	9061.07
479.509	8682.19
479.713	8934.09
479.918	8776.4
480.122	8663.76
480.326	8688.34
480.531	8659.67
480.735	8581.84
480.94	8686.29
481.144	8755.92
481.348	8397.53
481.553	8442.58
481.757	8209.11
481.961	8555.22
482.166	8383.19
482.37	8233.69
482.574	8164.06
482.778	8299.22
482.983	8475.35
483.187	8274.65
483.391	8418
483.595	8293.08
483.8	8123.1
484.004	8325.85
484.208	8415.96
484.412	8088.28
484.616	8342.23
484.821	8215.26
485.025	8065.75
485.229	8288.98
485.433	7981.79
485.637	8297.17
485.841	8086.23
486.045	8061.66
486.249	8190.68
486.453	7969.5
486.657	8102.62
486.861	8125.15
487.065	7916.25
487.269	7942.88
487.473	7877.34
487.677	8325.85
487.881	8336.09
488.085	8205.02
488.289	8102.62
488.493	8065.75
488.697	8243.93
488.901	8106.71
489.105	8110.81
489.309	8293.08
489.512	8145.63
489.716	8004.32
489.92	8170.2
490.124	8225.5
490.328	8375
490.531	8016.6
490.735	8135.39
490.939	8430.29
491.143	8250.07
491.346	8127.19
491.55	8395.48
491.754	8438.48
491.958	8293.08
492.161	8356.57
492.365	8301.27
492.569	8446.68
492.772	8342.23
492.976	8532.69
493.18	8463.06
493.383	8594.13
493.587	8594.13
493.79	8495.83
493.994	8528.6
494.197	8651.47
494.401	8751.82
494.605	8712.91
494.808	8870.61
495.012	8921.81
495.215	8921.81
495.419	8991.44
495.622	8905.42
495.825	9091.79
496.029	9159.37
496.232	9335.49
496.436	9177.8
496.639	9523.91
496.843	9224.9
497.046	9528
497.249	9767.62
497.453	9509.57
497.656	9728.7
497.859	9734.85
498.063	9898.69
498.266	10089.15
498.469	9845.44
498.673	9886.4
498.876	10203.83
499.079	10361.53
499.282	10298.04
499.485	10519.22
499.689	10554.04
499.892	10568.37
500.095	10883.76
500.298	11158.19
500.501	10795.7
500.705	11201.19
500.908	11186.86
501.111	11213.48
501.314	11354.79
501.517	11530.92
501.72	11668.13
501.923	11537.06
502.126	11977.37
502.329	12196.51
502.532	12300.95
502.735	12116.64
502.938	12399.26
503.141	12503.7
503.344	12460.7
503.547	12585.62
503.75	12817.04
503.953	12907.15
504.156	12810.9
504.359	13130.38
504.562	13273.74
504.765	13599.37
504.968	13406.86
505.17	13701.76
505.373	13591.17
505.576	13976.19
505.779	14123.65
505.982	14135.93
506.185	14617.21
506.387	14459.51
506.59	14533.24
506.793	14854.77
506.996	15016.56
507.198	15282.8
507.401	15024.75
507.604	15352.43
507.807	15729.25
508.009	15821.41
508.212	15694.44
508.415	15968.87
508.617	16163.42
508.82	16245.34
509.022	16220.77
509.225	16659.03
509.428	16861.78
509.63	17277.52
509.833	17064.53
510.035	17314.38
510.238	17228.37
510.44	17517.13
510.643	17637.96
510.845	17887.81
511.048	17928.77
511.25	18242.11
511.453	18278.97
511.655	18809.4
511.858	18629.18
512.06	18860.6
512.262	18983.48
512.465	19003.96
512.667	19411.5
512.87	19438.12
513.072	19530.28
513.274	19919.4
513.477	20351.52
513.679	20388.38
513.881	20609.56
514.084	20630.04
514.286	20613.66
514.488	21013.01
514.69	21494.29
514.893	21357.07
515.095	21596.68
515.297	21871.11
515.499	21854.73
515.701	22059.52
515.904	22381.06
516.106	22401.54
516.308	22739.45
516.51	23273.97
516.712	22977.01
516.914	23077.37
517.116	23581.17
517.318	23398.9
517.52	23652.84
517.722	23466.48
517.925	23949.8
518.127	24457.7
518.329	24328.67
518.531	24109.54
518.733	24754.65
518.935	25041.37
519.136	25137.62
519.338	25162.2
519.54	25217.49
519.742	25639.37
519.944	25518.54
520.146	25864.65
520.348	25942.47
520.55	25907.66
520.752	26337.73
520.954	26565.06
521.155	26298.82
521.357	26810.81
521.559	26900.92
521.761	27277.75
521.963	26980.79
522.164	27374
522.366	27496.88
522.568	27511.22
522.77	27560.37
522.971	28119.46
523.173	27756.97
523.375	27851.18
523.576	27910.57
523.778	28086.7
523.98	28545.44
524.181	28467.62
524.383	28699.04
524.584	28801.44
524.786	28594.59
524.988	28592.55
525.189	28893.6
525.391	29096.35
525.592	29280.66
525.794	29131.16
525.995	29305.24
526.197	29270.42
526.398	29100.44
526.6	29198.74
526.801	29620.63
527.003	29399.44
527.204	29751.7
527.406	29360.53
527.607	29725.07
527.808	29591.95
528.01	29467.03
528.211	29211.03
528.412	29884.81
528.614	29524.37
528.815	30146.95
529.016	30273.93
529.218	29923.72
529.419	29999.5
529.62	29745.55
529.822	29344.15
530.023	29917.58
530.224	29436.31
530.425	29292.95
530.626	29493.65
530.828	29295
531.029	30019.98
531.23	29573.52
531.431	29444.5
531.632	29608.34
531.833	29313.43
532.035	29364.63
532.236	29356.44
532.437	29585.81
532.638	29319.57
532.839	29274.52
533.04	29538.71
533.241	28928.41
533.442	29700.5
533.643	29147.54
533.844	29112.73
534.045	29393.3
534.246	28864.92
534.447	29188.5
534.648	29223.32
534.849	29186.46
535.05	28995.99
535.251	28744.09
535.451	28823.97
535.652	28768.67
535.853	29051.29
536.054	28756.38
536.255	28725.66
536.456	28674.46
536.657	29026.71
536.857	28469.67
537.058	28574.11
537.259	28914.08
537.46	28787.1
537.66	28672.42
537.861	28774.81
538.062	28465.57
538.263	28318.12
538.463	28311.97
538.664	28193.19
538.865	28314.02
539.065	28651.94
539.266	28135.85
539.466	28672.42
539.667	28062.12
539.868	28475.81
540.068	28062.12
540.269	28582.31
540.469	28197.29
540.67	27754.93
540.87	28101.03
541.071	28113.32
541.271	28232.1
541.472	28252.58
541.672	28092.84
541.873	27718.06
542.073	27591.09
542.274	28133.8
542.474	27969.96
542.675	27595.18
542.875	27914.67
543.075	27816.36
543.276	27294.13
543.476	28152.23
543.676	27771.31
543.877	27793.84
544.077	27908.52
544.277	27691.44
544.478	27847.08
544.678	27627.95
544.878	27855.28
545.078	27750.83
545.279	27738.54
545.479	27609.52
545.679	27701.68
545.879	27470.26
546.079	27722.16
546.28	27722.16
546.48	27554.22
546.68	27795.89
546.88	27744.69
547.08	27738.54
547.28	27646.38
547.48	27040.18
547.68	28137.9
547.88	27273.65
548.081	27853.23
548.281	27824.56
548.481	27748.78
548.681	27799.98
548.881	27402.68
549.081	27513.27
549.28	27711.92
549.48	27916.72
549.68	27826.6
549.88	27937.2
550.08	27693.49
550.28	27541.94
550.48	27746.73
550.68	27822.51
550.88	27525.55
551.08	27543.99
551.279	27797.93
551.479	27494.83
551.679	27926.96
551.879	27505.07
552.079	27853.23
552.278	27703.73
552.478	27804.08
552.678	27742.64
552.878	28352.93
553.077	27699.63
553.277	27599.28
553.477	28068.27
553.676	27750.83
553.876	28137.9
554.076	27754.93
554.275	27677.1
554.475	27457.97
554.674	27867.56
554.874	27953.58
555.074	27892.14
555.273	28236.2
555.473	28133.8
555.672	27974.06
555.872	28176.81
556.071	28094.89
556.271	28195.24
556.47	28039.59
556.67	27998.63
556.869	28055.98
557.068	28416.42
557.268	28191.14
557.467	28010.92
557.667	27802.03
557.866	28416.42
558.065	28129.7
558.265	28168.62
558.464	28201.38
558.663	28533.15
558.863	28082.6
559.062	28574.11
559.261	27998.63
559.461	28760.48
559.66	28211.62
559.859	28572.07
560.058	28389.8
560.258	28117.42
560.457	28150.18
560.656	28496.29
560.855	28162.47
561.054	28264.87
561.253	27783.6
561.453	28225.96
561.652	28389.8
561.851	28072.36
562.05	28195.24
562.249	27990.44
562.448	28453.28
562.647	28006.83
562.846	28561.83
563.045	28311.97
563.244	27881.9
563.443	28387.75
563.642	27775.41
563.841	27949.48
564.04	28053.93
564.239	28234.15
564.438	27460.02
564.637	28008.87
564.836	27806.13
565.035	27857.32
565.234	28004.78
565.432	27773.36
565.631	27666.86
565.83	27699.63
566.029	27992.49
566.228	27787.69
566.427	27617.71
566.625	27638.19
566.824	27648.43
567.023	27756.97
567.222	27124.15
567.42	27417.01
567.619	27421.11
567.818	27244.98
568.016	27271.61
568.215	27646.38
568.414	27269.56
568.612	27365.81
568.811	27015.61
569.01	27249.08
569.208	26757.57
569.407	26960.31
569.605	26685.89
569.804	26800.57
570.002	26929.59
570.201	27060.66
570.4	26257.86
570.598	26462.66
570.797	26321.35
570.995	26800.57
571.193	26288.58
571.392	26675.65
571.59	26241.48
571.789	26423.75
571.987	26290.63
572.186	26026.44
572.384	25944.52
572.582	26020.3
572.781	26249.67
572.979	25627.09
573.177	25602.51
573.376	25858.51
573.574	25696.72
573.772	25567.7
573.971	25819.6
574.169	25369.04
574.367	25465.3
574.565	25618.89
574.763	25512.4
574.962	25213.4
575.16	25143.77
575.358	25344.47
575.556	24746.46
575.754	24945.11
575.952	24644.06
576.151	25137.62
576.349	24480.22
576.547	24766.94
576.745	24607.2
576.943	24871.39
577.141	24238.56
577.339	24416.74
577.537	24424.93
577.735	24431.07
577.933	24115.69
578.131	24660.45
578.329	24001
578.527	23986.66
578.725	23814.63
578.923	23710.19
579.121	24019.43
579.319	23538.16
579.516	23800.3
579.714	23577.07
579.912	23474.67
580.11	23507.44
580.308	23497.2
580.506	23163.38
580.704	23153.14
580.901	23491.05
581.099	23382.51
581.297	22755.83
581.495	23304.69
581.692	23204.34
581.89	22985.21
582.088	23093.75
582.285	23116.28
582.483	23067.13
582.681	22956.54
582.878	22620.67
583.076	22626.81
583.274	22553.09
583.471	22301.19
583.669	22557.18
583.866	22548.99
584.064	22794.75
584.262	22069.76
584.459	22422.02
584.657	22170.12
584.854	22102.53
585.052	22067.72
585.249	22241.79
585.447	22012.42
585.644	22043.14
585.841	21871.11
586.039	22002.18
586.236	21586.44
586.434	21623.31
586.631	21617.16
586.828	21629.45
587.026	21815.82
587.223	21365.26
587.42	21281.3
587.618	21709.32
587.815	21484.05
588.012	21488.14
588.21	21637.64
588.407	21447.18
588.604	21090.84
588.801	21262.86
588.999	21189.14
589.196	21359.12
589.393	21072.4
589.59	21174.8
589.787	20847.13
589.984	21047.83
590.182	20701.72
590.379	21260.82
590.576	20668.95
590.773	21051.92
590.97	20580.89
591.167	20924.95
591.364	20507.16
591.561	20726.3
591.758	20673.05
591.955	20402.72
592.152	20716.06
592.349	20656.67
592.546	20699.67
592.743	20605.47
592.94	20156.96
593.137	20474.4
593.334	20345.37
593.531	20199.97
593.727	20507.16
593.924	20318.75
594.121	20331.04
594.318	20402.72
594.515	19855.91
594.712	20552.22
594.908	20173.35
595.105	20441.63
595.302	20070.95
595.499	19954.21
595.696	19888.68
595.892	20101.67
596.089	19997.22
596.286	20220.45
596.482	20136.48
596.679	20087.33
596.876	20089.38
597.072	20085.28
597.269	19939.88
597.466	19739.18
597.662	19847.72
597.859	20245.02
598.055	20195.87
598.252	19946.02
598.448	19966.5
598.645	19862.05
598.841	19993.12
599.038	19915.3
599.234	19866.15
599.431	19982.88
599.627	20079.14
599.824	20142.63
600.02	19763.75
600.217	20216.35
600.413	19806.76
600.609	19989.03
600.806	20011.56
601.002	20212.26
601.198	19958.31
601.395	20240.93
601.591	20015.65
601.787	20255.26
601.984	20073
602.18	20242.98
602.376	20165.15
602.572	19980.84
602.769	20247.07
602.965	20191.78
603.161	20697.63
603.357	20388.38
603.553	20365.85
603.75	20648.47
603.946	20584.99
604.142	20415.01
604.338	20212.26
604.534	20474.4
604.73	20415.01
604.926	20402.72
605.122	20361.76
605.318	20374.05
605.514	20709.91
605.71	20503.07
605.906	20550.17
606.102	20812.31
606.298	20918.81
606.494	21037.59
606.69	20912.66
606.886	20865.56
607.082	20800.02
607.278	21115.41
607.474	20916.76
607.67	21021.2
607.866	20957.72
608.062	21295.63
608.257	21154.32
608.453	21303.82
608.649	21361.17
608.845	21099.03
609.041	21103.12
609.236	21514.77
609.432	21228.05
609.628	21615.12
609.824	21619.21
610.019	21324.3
610.215	21676.55
610.411	21737.99
610.606	21568.01
610.802	21914.12
610.998	21654.03
611.193	21547.53
611.389	22051.33
611.584	21725.71
611.78	21881.35
611.976	22129.16
612.171	22178.31
612.367	22108.68
612.562	22145.54
612.758	21830.15
612.953	21936.65
613.149	22116.87
613.344	21924.36
613.539	22370.82
613.735	22147.59
613.93	22135.3
614.126	22161.92
614.321	22276.61
614.517	22274.56
614.712	22223.36
614.907	22190.59
615.103	22598.14
615.298	22284.8
615.493	22489.6
615.688	22266.37
615.884	22460.93
616.079	22034.95
616.274	22553.09
616.47	22493.69
616.665	22807.03
616.86	22493.69
617.055	22555.13
617.25	22458.88
617.445	22649.34
617.641	21998.09
617.836	22639.1
618.031	22278.66
618.226	22223.36
618.421	22186.5
618.616	22413.82
618.811	22053.38
619.006	22329.86
619.201	22086.15
619.396	22493.69
619.591	21828.1
619.786	22032.9
619.981	21881.35
620.176	21930.5
620.371	21525
620.566	21750.28
620.761	21418.51
620.956	22034.95
621.151	21475.85
621.346	21729.8
621.541	21418.51
621.735	21766.67
621.93	21211.67
622.125	21496.33
622.32	21002.77
622.515	20920.85
622.709	21092.88
622.904	21033.49
623.099	20918.81
623.294	20982.29
623.488	20951.57
623.683	20666.91
623.878	20302.37
624.072	20757.02
624.267	20603.42
624.462	20372
624.656	20464.16
624.851	20347.42
625.046	20052.52
625.24	20134.43
625.435	19751.46
625.629	19800.62
625.824	19956.26
626.018	19997.22
626.213	19360.3
626.407	19460.65
626.602	19460.65
626.796	19243.57
626.991	19198.51
627.185	19221.04
627.38	19116.59
627.574	19038.77
627.768	18856.5
627.963	18856.5
628.157	18803.25
628.352	18848.31
628.546	18389.56
628.74	18580.03
628.935	18262.59
629.129	18358.85
629.323	18113.09
629.517	18133.57
629.712	17971.78
629.906	17830.47
630.1	17896
630.294	17846.85
630.489	17668.68
630.683	17863.24
630.877	17361.48
631.071	17437.26
631.265	17465.93
631.459	17295.95
631.653	17117.78
631.848	17052.24
632.042	16990.8
632.236	17248.85
632.43	16960.08
632.624	16806.48
632.818	16861.78
633.012	16712.28
633.206	16552.54
633.4	16601.69
633.594	16314.97
633.788	16228.96
633.982	16525.91
634.176	16259.68
634.369	16153.18
634.563	16190.05
634.757	16034.4
634.951	16255.58
635.145	15727.21
635.339	15913.57
635.533	15643.24
635.726	15925.86
635.92	15405.67
636.114	15391.34
636.308	15385.19
636.501	15284.84
636.695	15399.53
636.889	15129.2
637.083	15315.56
637.276	14908.02
637.47	14774.9
637.664	14846.58
637.857	14699.13
638.051	14498.42
638.244	14469.75
638.438	14422.65
638.632	14262.91
638.825	14195.32
639.019	14344.83
639.212	14084.73
639.406	14174.85
639.599	13902.47
639.793	13798.02
639.986	13681.28
640.18	13771.4
640.373	13437.58
640.567	13529.73
640.76	13460.1
640.954	13484.68
641.147	13245.07
641.34	13316.75
641.534	13236.88
641.727	13070.99
641.92	12987.02
642.114	12819.09
642.307	12620.44
642.5	12679.83
642.694	12403.35
642.887	12653.2
643.08	12483.22
643.273	12520.09
643.467	12249.75
643.66	12329.63
643.853	11831.97
644.046	11952.8
644.239	12092.06
644.432	11680.42
644.626	11770.53
644.819	11645.6
645.012	11838.11
645.205	11569.83
645.398	11426.47
645.591	11379.37
645.784	11356.84
645.977	11250.35
646.17	11313.83
646.363	11143.85
646.556	11109.04
646.749	11279.02
646.942	11074.22
647.135	11059.88
647.328	11049.64
647.521	10728.11
647.714	10672.82
647.907	10986.16
648.099	10732.21
648.292	10613.43
648.485	10535.6
648.678	10414.77
648.871	10263.22
649.064	10461.88
649.256	10142.39
649.449	10199.74
649.642	10105.53
649.835	10142.39
650.027	10183.35
650.22	10060.48
650.413	10062.52
650.605	9988.8
650.798	9720.51
650.991	9865.92
651.183	9800.38
651.376	9708.23
651.568	9618.11
651.761	9433.8
651.954	9261.77
652.146	9325.26
652.339	9487.04
652.531	9415.37
652.724	9206.47
652.916	9130.7
653.109	9183.95
653.301	9204.42
653.494	9374.41
653.686	8862.41
653.879	9167.56
654.071	8829.65
654.263	8710.86
654.456	8811.21
654.648	8843.98
654.84	8690.38
655.033	8784.59
655.225	8667.86
655.417	8639.19
655.61	8743.63
655.802	8684.24
655.994	8458.96
656.186	8553.17
656.379	8315.61
656.571	8516.31
656.763	8258.26
656.955	8270.55
657.148	8174.3
657.34	8151.77
657.532	7953.12
657.724	8141.53
657.916	8043.23
658.108	7957.21
658.3	7785.18
658.492	7811.81
658.684	7791.33
658.876	7885.53
659.068	7850.72
659.26	7740.13
659.452	7586.53
659.644	7459.56
659.836	7631.58
660.028	7492.32
660.22	7512.8
660.412	7482.08
660.604	7367.4
660.796	7439.08
660.988	7447.27
661.18	7342.82
661.372	7228.14
661.563	7326.44
661.755	7170.79
661.947	7062.25
662.139	7062.25
662.331	7027.43
662.522	6939.37
662.714	6828.78
662.906	6894.32
663.097	6810.35
663.289	6929.13
663.481	6859.5
663.673	6722.29
663.864	6636.27
664.056	6640.37
664.247	6607.6
664.439	6765.29
664.631	6613.74
664.822	6630.13
665.014	6404.85
665.205	6527.73
665.397	6447.86
665.588	6464.24
665.78	6425.33
665.971	6333.17
666.163	6167.29
666.354	6111.99
666.546	6187.77
666.737	6116.09
666.929	6132.47
667.12	6390.52
667.311	6103.8
667.503	6040.31
667.694	6023.93
667.885	5917.44
668.077	5890.81
668.268	6058.74
668.459	5985.02
668.651	5810.94
668.842	5931.77
669.033	5884.67
669.224	5755.65
669.416	5835.52
669.607	5587.71
669.798	5665.53
669.989	5819.13
670.18	5513.99
670.371	5626.62
670.563	5452.55
670.754	5729.02
670.945	5579.52
671.136	5643.01
671.327	5546.75
671.518	5423.87
671.709	5530.37
671.9	5450.5
672.091	5409.54
672.282	5296.9
672.473	5253.89
672.664	5481.22
672.855	5518.08
673.046	5415.68
673.237	5264.13
673.428	5260.04
673.619	5335.81
673.809	5292.8
674	5231.37
674.191	5278.47
674.382	5165.83
674.573	5194.5
674.764	5227.27
674.954	5315.33
675.145	5114.63
675.336	4926.22
675.527	5116.68
675.717	5075.72
675.908	4977.42
676.099	5077.77
676.289	4981.51
676.48	5122.82
676.671	5042.95
676.861	5108.49
677.052	4973.32
677.243	5047.05
677.433	4940.55
677.624	5006.09
677.814	4805.39
678.005	5077.77
678.195	5098.25
678.386	4973.32
678.576	4903.69
678.767	4860.68
678.957	4891.4
679.148	4987.66
679.338	4819.72
679.529	4893.45
679.719	4956.94
679.909	5030.66
680.1	4887.31
680.29	4739.85
680.481	4940.55
680.671	4938.51
680.861	4936.46
681.052	4850.44
681.242	4836.11
681.432	4854.54
681.622	4649.74
681.813	4784.91
682.003	4815.63
682.193	4766.48
682.383	4702.99
682.573	4850.44
682.764	4631.31
682.954	4778.76
683.144	4875.02
683.334	4827.92
683.524	4819.72
683.714	4772.62
683.904	4662.03
684.094	4780.81
684.284	4793.1
684.474	4872.97
684.664	4862.73
684.854	4803.34
685.044	4621.07
685.234	4643.6
685.424	4653.84
685.614	4610.83
685.804	4715.28
685.994	4625.17
686.184	4645.65
686.374	4571.92
686.564	4686.61
686.753	4707.09
686.943	4555.54
687.133	4563.73
687.323	4467.47
687.513	4637.45
687.702	4647.69
687.892	4467.47
688.082	4492.05
688.272	4702.99
688.461	4571.92
688.651	4543.25
688.841	4438.8
689.03	4438.8
689.22	4424.47
689.41	4428.56
689.599	4477.71
689.789	4473.62
689.979	4432.66
690.168	4436.75
690.358	4430.61
690.547	4524.82
690.737	4375.31
690.926	4397.84
691.116	4326.16
691.305	4492.05
691.495	4342.55
691.684	4311.83
691.874	4317.97
692.063	4510.48
692.252	4197.14
692.442	4326.16
692.631	4252.44
692.82	4199.19
693.01	4076.31
693.199	4227.86
693.388	4279.06
693.578	4182.81
693.767	4246.29
693.956	4127.51
694.146	4254.48
694.335	4215.57
694.524	4256.53
694.713	4244.24
694.902	4143.89
695.092	4072.22
695.281	4156.18
695.47	4266.77
695.659	4109.08
695.848	4059.93
696.037	4064.02
696.226	4135.7
696.415	4104.98
696.604	4047.64
696.793	3988.25
696.982	4158.23
697.171	4197.14
697.36	4000.54
697.549	3998.49
697.738	4076.31
697.927	3916.57
698.116	4080.41
698.305	4193.05
698.494	4014.87
698.683	3941.15
698.872	3994.39
699.061	4066.07
699.25	4100.89
699.438	3908.38
699.627	3992.34
699.816	3879.71
700.005	3990.3
700.193	4072.22
700.382	4074.26
700.571	3953.43
700.76	3820.32
700.948	3973.91
701.137	3875.61
701.326	4008.73
701.514	3826.46
701.703	3918.62
701.892	3775.26
702.08	3916.57
702.269	3945.24
702.457	3818.27
702.646	3785.5
702.834	3875.61
703.023	3828.51
703.212	3818.27
703.4	3738.4
703.589	3740.44
703.777	3703.58
703.965	3760.92
704.154	3670.81
704.342	3869.47
704.531	3904.28
704.719	3576.61
704.907	3769.12
705.096	3683.1
705.284	3623.71
705.472	3605.28
705.661	3687.2
705.849	3638.05
706.037	3670.81
706.226	3597.09
706.414	3703.58
706.602	3580.7
706.79	3572.51
706.979	3687.2
707.167	3506.98
707.355	3566.37
707.543	3607.33
707.731	3662.62
707.919	3441.44
708.107	3439.39
708.296	3580.7
708.484	3500.83
708.672	3441.44
708.86	3361.57
709.048	3543.84
709.236	3453.73
709.424	3394.34
709.612	3478.3
709.8	3359.52
709.988	3414.82
710.176	3418.91
710.364	3527.46
710.551	3476.26
710.739	3343.14
710.927	3285.8
711.115	3474.21
711.303	3466.02
711.491	3234.6
711.679	3195.68
711.866	3336.99
712.054	3304.23
712.242	3285.8
712.43	3269.41
712.617	3269.41
712.805	3289.89
712.993	3214.12
713.181	3177.25
713.368	3267.36
713.556	3285.8
713.744	3207.97
713.931	3275.56
714.119	3205.92
714.306	3250.98
714.494	3072.81
714.682	3146.53
714.869	3195.68
715.057	3177.25
715.244	3121.96
715.432	3158.82
715.619	3173.16
715.807	3203.88
715.994	3222.31
716.182	3064.61
716.369	3113.77
716.556	3158.82
716.744	3058.47
716.931	2966.31
717.119	3076.9
717.306	3021.61
717.493	3001.13
717.681	2962.22
717.868	3076.9
718.055	3011.37
718.242	2954.02
718.43	2970.41
718.617	2868.01
718.804	2968.36
718.991	2974.5
719.179	2997.03
719.366	2939.69
719.553	2853.67
719.74	3001.13
719.927	2945.83
720.114	2820.91
720.301	2925.35
720.488	2884.39
720.676	2919.21
720.863	2990.89
721.05	2880.3
721.237	2812.71
721.424	2888.49
721.611	2671.4
721.798	2865.96
721.985	2704.17
722.172	2712.36
722.358	2716.46
722.545	2884.39
722.732	2745.13
722.919	2859.82
723.106	2769.71
723.293	2765.61
723.48	2808.62
723.667	2575.15
723.853	2734.89
724.04	2622.25
724.227	2765.61
724.414	2683.69
724.6	2679.6
724.787	2724.65
724.974	2720.56
725.161	2685.74
725.347	2663.21
725.534	2784.04
725.72	2640.69
725.907	2704.17
726.094	2794.28
726.28	2495.28
726.467	2571.05
726.653	2624.3
726.84	2517.81
727.027	2663.21
727.213	2540.33
727.4	2646.83
727.586	2530.09
727.773	2575.15
727.959	2515.76
728.145	2530.09
728.332	2523.95
728.518	2585.39
728.705	2515.76
728.891	2452.27
729.077	2339.63
729.264	2487.09
729.45	2450.22
729.636	2593.58
729.823	2577.2
730.009	2634.54
730.195	2482.99
730.382	2409.26
730.568	2433.84
730.754	2362.16
730.94	2491.18
731.126	2466.61
731.313	2452.27
731.499	2544.43
731.685	2378.55
731.871	2450.22
732.057	2356.02
732.243	2433.84
732.429	2368.31
732.615	2376.5
732.801	2302.77
732.987	2392.88
733.173	2349.87
733.359	2272.05
733.545	2306.87
733.731	2405.17
733.917	2499.38
734.103	2339.63
734.289	2327.35
734.475	2241.33
734.661	2265.91
734.847	2227
735.033	2284.34
735.219	2392.88
735.404	2272.05
735.59	2206.52
735.776	2155.32
735.962	2179.89
736.148	2294.58
736.333	2360.11
736.519	2280.24
736.705	2249.52
736.89	2278.19
737.076	2155.32
737.262	2114.36
737.447	2224.95
737.633	2075.45
737.819	2179.89
738.004	2140.98
738.19	2212.66
738.375	2192.18
738.561	2292.53
738.747	2050.87
738.932	2091.83
739.118	2198.32
739.303	2208.56
739.489	2165.56
739.674	2024.25
739.859	2147.12
740.045	2102.07
740.23	2143.03
740.416	2028.34
740.601	2120.5
740.786	1993.53
740.972	1917.75
741.157	2028.34
741.342	1952.57
741.528	1893.18
741.713	1991.48
741.898	2108.21
742.084	2030.39
742.269	2016.05
742.454	1989.43
742.639	2065.21
742.824	1962.81
743.01	2097.97
743.195	2048.82
743.38	1985.34
743.565	1938.23
743.75	1930.04
743.935	1952.57
744.12	1948.47
744.305	1854.27
744.49	1909.56
744.675	1917.75
744.86	1878.84
745.045	1878.84
745.23	1860.41
745.415	1860.41
745.6	1837.88
745.785	1790.78
745.97	1907.51
746.155	1657.66
746.34	1788.73
746.525	1778.49
746.71	1841.98
746.895	1755.96
747.079	1727.29
747.264	1686.33
747.449	1747.77
747.634	1719.1
747.819	1729.34
748.003	1663.8
748.188	1622.84
748.373	1729.34
748.557	1600.32
748.742	1614.65
748.927	1624.89
749.111	1602.36
749.296	1598.27
749.481	1672
749.665	1616.7
749.85	1504.06
750.034	1610.56
750.219	1594.17
750.404	1565.5
750.588	1530.69
750.773	1549.12
750.957	1422.14
751.141	1506.11
751.326	1506.11
751.51	1450.82
751.695	1456.96
751.879	1549.12
752.064	1542.97
752.248	1450.82
752.432	1536.83
752.617	1518.4
752.801	1434.43
752.985	1375.04
753.17	1420.1
753.354	1289.03
753.538	1327.94
753.722	1377.09
753.907	1329.99
754.091	1354.56
754.275	1272.64
754.459	1233.73
754.643	1315.65
754.828	1340.22
755.012	1309.51
755.196	1233.73
755.38	1149.76
755.564	1311.55
755.748	1192.77
755.932	1280.83
756.116	1248.07
756.3	1151.81
756.484	1323.84
756.668	1225.54
756.852	1192.77
757.036	1268.55
757.22	1139.52
757.404	1200.96
757.588	1129.28
757.772	1213.25
757.956	1200.96
758.14	1088.32
758.323	1174.34
758.507	1155.91
758.691	1155.91
758.875	1139.52
759.059	1106.76
759.242	1057.61
759.426	1076.04
759.61	1123.14
759.794	1100.61
759.977	1102.66
760.161	1110.85
760.345	1076.04
760.528	1106.76
760.712	1143.62
760.895	1059.65
761.079	1125.19
761.263	1020.74
761.446	1045.32
761.63	1067.85
761.813	1069.89
761.997	971.59
762.18	1000.26
762.364	1055.56
762.547	967.49
762.731	918.34
762.914	1051.46
763.098	949.06
763.281	951.11
763.464	1008.45
763.648	992.07
763.831	1028.93
764.015	981.83
764.198	1133.38
764.381	992.07
764.564	944.97
764.748	895.82
764.931	904.01
765.114	889.67
765.297	920.39
765.481	856.9
765.664	977.73
765.847	885.58
766.03	1024.84
766.213	926.54
766.397	918.34
766.58	734.03
766.763	908.1
766.946	926.54
767.129	922.44
767.312	846.66
767.495	873.29
767.678	805.71
767.861	852.81
768.044	879.43
768.227	807.75
768.41	893.77
768.593	852.81
768.776	793.42
768.959	852.81
769.142	942.92
769.324	815.94
769.507	861
769.69	820.04
769.873	817.99
770.056	822.09
770.239	781.13
770.421	852.81
770.604	897.86
770.787	756.55
770.97	758.6
771.152	787.27
771.335	774.99
771.518	811.85
771.7	787.27
771.883	887.62
772.066	805.71
772.248	721.74
772.431	803.66
772.613	797.51
772.796	832.33
772.978	867.14
773.161	772.94
773.343	650.06
773.526	713.55
773.708	787.27
773.891	666.44
774.073	721.74
774.256	725.83
774.438	736.07
774.621	817.99
774.803	752.46
774.985	740.17
775.168	688.97
775.35	697.16
775.532	625.48
775.715	625.48
775.897	705.35
776.079	680.78
776.261	682.83
776.444	631.63
776.626	705.35
776.808	709.45
776.99	621.39
777.173	729.93
777.355	625.48
777.537	586.57
777.719	684.87
777.901	639.82
778.083	525.13
778.265	695.11
778.447	617.29
778.629	660.3
778.811	602.96
778.993	508.75
779.175	598.86
779.357	564.04
779.539	666.44
779.721	572.24
779.903	594.76
780.085	596.81
780.267	623.44
780.449	568.14
780.631	584.52
780.812	623.44
780.994	492.37
781.176	516.94
781.358	537.42
781.54	619.34
781.721	502.61
781.903	592.72
782.085	484.17
782.267	557.9
782.448	475.98
782.63	510.8
782.812	494.41
782.993	455.5
783.175	488.27
783.357	404.3
783.538	465.74
783.72	475.98
783.901	494.41
784.083	467.79
784.264	467.79
784.446	471.89
784.627	496.46
784.809	514.89
784.99	480.08
785.172	541.52
785.353	418.64
785.535	437.07
785.716	389.97
785.897	426.83
786.079	418.64
786.26	463.69
786.441	461.65
786.623	387.92
786.804	422.73
786.985	389.97
787.167	420.69
787.348	365.39
787.529	428.88
787.71	398.16
787.891	363.34
788.073	396.11
788.254	306
788.435	410.45
788.616	361.3
788.797	394.06
788.978	328.53
789.159	389.97
789.34	420.69
789.522	349.01
789.703	357.2
789.884	314.19
790.065	381.78
790.246	398.16
790.427	326.48
790.607	353.1
790.788	418.64
790.969	344.91
791.15	281.43
791.331	314.19
791.512	269.14
791.693	336.72
791.874	328.53
792.054	437.07
792.235	363.34
792.416	283.47
792.597	340.82
792.778	316.24
792.958	361.3
793.139	271.19
793.32	285.52
793.5	289.62
793.681	295.76
793.862	338.77
794.042	279.38
794.223	320.34
794.404	328.53
794.584	271.19
794.765	312.14
794.945	357.2
795.126	314.19
795.306	262.99
795.487	205.65
795.667	303.95
795.848	349.01
796.028	279.38
796.209	281.43
796.389	299.86
796.57	238.42
796.75	185.17
796.93	322.38
797.111	222.03
797.291	230.23
797.471	299.86
797.652	191.31
797.832	215.89
798.012	369.49
798.192	156.5
798.373	234.32
798.553	256.85
798.733	191.31
798.913	287.57
799.093	246.61
799.274	215.89
799.454	228.18
799.634	254.8
799.814	242.51
799.994	148.31
800.174	244.56
800.354	267.09
800.534	240.47
800.714	201.55
800.894	293.71
801.074	205.65
801.254	164.69
801.434	330.58
801.614	213.84
801.794	181.07
801.974	877.38
802.154	217.94
802.334	291.66
802.514	160.59
802.693	269.14
802.873	213.84
803.053	258.9
803.233	176.98
803.413	136.02
803.592	201.55
803.772	176.98
803.952	226.13
804.131	195.41
804.311	213.84
804.491	189.27
804.67	164.69
804.85	205.65
805.03	211.79
805.209	148.31
805.389	164.69
805.568	254.8
805.748	174.93
805.928	150.36
806.107	226.13
806.287	207.7
806.466	148.31
806.646	152.4
806.825	164.69
807.004	166.74
807.184	131.92
807.363	240.47
807.543	240.47
807.722	123.73
807.901	224.08
808.081	285.52
808.26	121.68
808.439	90.96
808.619	199.51
808.798	131.92
808.977	181.07
809.156	197.46
809.336	181.07
809.515	224.08
809.694	119.64
809.873	107.35
810.052	174.93
810.231	183.12
810.411	183.12
810.59	172.88
810.769	156.5
810.948	148.31
811.127	107.35
811.306	101.2
811.485	152.4
811.664	213.84
811.843	86.87
812.022	111.44
812.201	156.5
812.38	213.84
812.559	125.78
812.737	160.59
812.916	144.21
813.095	33.62
813.274	125.78
813.453	142.16
813.632	176.98
813.811	156.5
813.989	54.1
814.168	195.41
814.347	58.2
814.526	164.69
814.704	174.93
814.883	150.36
815.062	97.11
815.24	183.12
815.419	129.88
815.598	144.21
815.776	21.33
815.955	99.16
816.133	82.77
816.312	129.88
816.49	82.77
816.669	150.36
816.847	101.2
817.026	84.82
817.204	99.16
817.383	174.93
817.561	86.87
817.74	156.5
817.918	107.35
818.097	95.06
818.275	88.92
818.453	164.69
818.632	70.48
818.81	172.88
818.988	115.54
819.167	150.36
819.345	158.55
819.523	58.2
819.701	80.72
819.879	60.24
820.058	166.74
820.236	107.35
820.414	50
820.592	131.92
820.77	41.81
820.948	84.82
821.127	152.4
821.305	86.87
821.483	95.06
821.661	101.2
821.839	52.05
822.017	193.36
822.195	109.4
822.373	140.12
822.551	27.48
822.729	158.55
822.907	185.17
823.085	107.35
823.262	78.68
823.44	99.16
823.618	64.34
823.796	19.29
823.974	31.57
824.152	60.24
824.329	68.44
824.507	86.87
824.685	103.25
824.863	84.82
825.04	-56.49
825.218	152.4
825.396	13.14
825.574	107.35
825.751	131.92
825.929	115.54
826.107	95.06
826.284	133.97
826.462	148.31
826.639	43.86
826.817	-3.24
826.994	80.72
827.172	82.77
827.349	54.1
827.527	111.44
827.704	152.4
827.882	41.81
828.059	119.64
828.237	95.06
828.414	95.06
828.591	11.09
828.769	119.64
828.946	43.86
829.124	72.53
829.301	99.16
829.478	131.92
829.655	0.85
829.833	107.35
830.01	17.24
830.187	58.2
830.364	84.82
830.542	144.21
830.719	35.67
830.896	109.4
831.073	-7.34
831.25	101.2
831.427	88.92
831.604	41.81
831.782	37.72
831.959	66.39
832.136	29.52
832.313	82.77
832.49	54.1
832.667	90.96
832.844	58.2
833.021	86.87
833.198	68.44
833.374	109.4
833.551	25.43
833.728	80.72
833.905	62.29
834.082	19.29
834.259	86.87
834.436	60.24
834.612	-5.29
834.789	119.64
834.966	70.48
835.143	103.25
835.319	-31.91
835.496	58.2
835.673	-7.34
835.85	78.68
836.026	95.06
836.203	140.12
836.38	-3.24
836.556	78.68
836.733	50
836.909	103.25
837.086	41.81
837.262	52.05
837.439	68.44
837.616	-40.11
837.792	43.86
837.968	93.01
838.145	19.29
838.321	52.05
838.498	9.05
838.674	68.44
838.851	-7.34
839.027	144.21
839.203	-11.43
839.38	68.44
839.556	-3.24
839.732	115.54
839.909	60.24
840.085	33.62
840.261	27.48
840.437	74.58
840.614	9.05
840.79	25.43
840.966	41.81
841.142	-7.34
841.318	33.62
841.494	115.54
841.671	86.87
841.847	-13.48
842.023	-3.24
842.199	-11.43
842.375	133.97
842.551	-31.91
842.727	-21.67
842.903	64.34
843.079	25.43
843.255	109.4
843.431	27.48
843.607	25.43
843.783	-15.53
843.959	33.62
844.134	27.48
844.31	93.01
844.486	37.72
844.662	-11.43
844.838	33.62
845.013	74.58
845.189	60.24
845.365	31.57
845.541	54.1
845.716	45.91
845.892	82.77
846.068	9.05
846.244	35.67
846.419	27.48
846.595	41.81
846.77	2.9
846.946	99.16
847.122	-11.43
847.297	60.24
847.473	136.02
847.648	-89.26
847.824	4.95
847.999	-46.25
848.175	21.33
848.35	-1.19
848.526	84.82
848.701	62.29
848.876	84.82
849.052	45.91
849.227	19.29
849.403	27.48
849.578	-29.87
849.753	0.85
849.929	70.48
850.104	-99.5
850.279	80.72
850.454	60.24
850.63	133.97
850.805	-9.39
850.98	52.05
851.155	43.86
851.33	17.24
851.505	62.29
851.681	66.39
851.856	99.16
852.031	52.05
852.206	33.62
852.381	-17.58
852.556	84.82
852.731	41.81
852.906	25.43
853.081	117.59
853.256	41.81
853.431	7
853.606	-58.54
853.781	7
853.956	-36.01
854.131	21.33
854.305	-46.25
854.48	-33.96
854.655	11.09
854.83	-29.87
855.005	19.29
855.18	45.91
855.354	66.39
855.529	-36.01
855.704	-1.19
855.879	62.29
856.053	-72.87
856.228	54.1
856.403	-36.01
856.577	39.76
856.752	9.05
856.926	101.2
857.101	9.05
857.276	-27.82
857.45	74.58
857.625	-29.87
857.799	19.29
857.974	76.63
858.148	11.09
858.323	2.9
858.497	131.92
858.672	99.16
858.846	50
859.02	76.63
859.195	-46.25
859.369	58.2
859.543	4.95
859.718	2.9
859.892	84.82
860.066	0.85
860.241	-60.59
860.415	25.43
860.589	0.85
860.763	27.48
860.938	11.09
861.112	33.62
861.286	-60.59
861.46	99.16
861.634	19.29
861.808	21.33
861.982	0.85
862.157	33.62
862.331	2.9
862.505	17.24
862.679	50
862.853	25.43
863.027	25.43
863.201	93.01
863.375	-76.97
863.549	2.9
863.722	70.48
863.896	99.16
864.07	-21.67
864.244	23.38
864.418	47.96
864.592	9.05
864.766	-3.24
864.939	-15.53
865.113	-13.48
865.287	-7.34
865.461	-36.01
865.634	-3.24
865.808	-11.43
865.982	62.29
866.156	-9.39
866.329	39.76
866.503	62.29
866.676	140.12
866.85	45.91
867.024	-3.24
867.197	45.91
867.371	113.49
867.544	99.16
867.718	-23.72
867.891	50
868.065	-40.11
868.238	35.67
868.412	27.48
868.585	33.62
868.759	0.85
868.932	-38.06
869.105	-70.83
869.279	29.52
869.452	4.95
869.625	37.72
869.799	-9.39
869.972	-29.87
870.145	-64.68
870.319	58.2
870.492	41.81
870.665	-3.24
870.838	62.29
871.011	31.57
871.185	33.62
871.358	-13.48
871.531	-3.24
871.704	-15.53
871.877	-23.72
872.05	-31.91
872.223	-9.39
872.396	-1.19
872.569	4.95
872.742	11.09
872.915	-9.39
873.088	-50.35
873.261	-79.02
873.434	-36.01
873.607	27.48
873.78	-31.91
873.953	-105.64
874.126	-31.91
874.299	35.67
874.471	4.95
874.644	-31.91
874.817	17.24
874.99	50
875.163	0.85
875.335	-56.49
875.508	25.43
875.681	37.72
875.853	17.24
876.026	-62.63
876.199	109.4
876.371	-93.35
876.544	4.95
876.717	2.9
876.889	17.24
877.062	41.81
877.234	4.95
877.407	11.09
877.579	-25.77
877.752	-19.63
877.924	27.48
878.097	50
878.269	72.53
878.442	17.24
878.614	54.1
878.786	13.14
878.959	52.05
879.131	50
879.303	-48.3
879.476	80.72
879.648	62.29
879.82	-38.06
879.993	-50.35
880.165	60.24
880.337	-64.68
880.509	35.67
880.681	-56.49
880.854	50
881.026	27.48
881.198	9.05
881.37	-50.35
881.542	-38.06
881.714	-1.19
881.886	-25.77
882.058	84.82
882.23	15.19
882.402	-15.53
882.574	45.91
882.746	2.9
882.918	33.62
883.09	35.67
883.262	9.05
883.434	11.09
883.606	-7.34
883.778	-52.39
883.95	27.48
884.122	45.91
884.293	74.58
884.465	41.81
884.637	-31.91
884.809	9.05
884.98	0.85
885.152	37.72
885.324	39.76
885.496	-23.72
885.667	-42.15
885.839	-23.72
886.011	58.2
886.182	-81.07
886.354	-25.77
886.525	-40.11
886.697	17.24
886.869	7
887.04	-29.87
887.212	21.33
887.383	45.91
887.555	-31.91
887.726	-25.77
887.897	-23.72
888.069	11.09
888.24	-3.24
888.412	4.95
888.583	-68.78
888.754	43.86
888.926	-40.11
889.097	9.05
889.268	-13.48
889.44	-3.24
889.611	-36.01
889.782	-52.39
889.953	-46.25
890.125	50
890.296	-93.35
890.467	-15.53
890.638	0.85
890.809	-13.48
890.98	-38.06
891.151	13.14
891.323	68.44
891.494	-46.25
891.665	2.9
891.836	-52.39
892.007	54.1
892.178	-62.63
892.349	25.43
892.52	-23.72
892.691	76.63
892.862	-79.02
893.032	25.43
893.203	25.43
893.374	-17.58
893.545	0.85
893.716	-3.24
893.887	-27.82
894.057	37.72
894.228	-87.21
894.399	-54.44
894.57	60.24
894.74	-11.43
894.911	-15.53
895.082	-29.87
895.253	52.05
895.423	25.43
895.594	25.43
895.764	62.29
895.935	-46.25
896.106	-23.72
896.276	60.24
896.447	25.43
896.617	7
896.788	-93.35
896.958	9.05
897.129	-87.21
897.299	37.72
897.47	47.96
897.64	29.52
897.81	4.95
897.981	17.24
898.151	-29.87
898.322	4.95
898.492	-11.43
898.662	0.85
898.832	-3.24
899.003	2.9
899.173	35.67
899.343	2.9
899.513	-27.82
