Data from USB4F104151__177__14-32-44-360.txt Node

Date: Thu Mar 13 14:32:44 EDT 2025
User: louis
Spectrometer: USB4F10415
Trigger mode: 4
Integration Time (sec): 2.500000E-2
Scans to average: 1
Electric dark correction enabled: true
Nonlinearity correction enabled: false
Boxcar width: 0
XAxis mode: Wavelengths
Number of Pixels in Spectrum: 3648
>>>>>Begin Spectral Data<<<<<
178.204	-108.54
178.424	-108.54
178.644	-108.54
178.864	-174.08
179.084	-169.98
179.304	40.96
179.524	-2.05
179.744	-4.1
179.964	79.87
180.184	40.96
180.404	-2.05
180.624	-51.2
180.844	16.38
181.064	-77.82
181.283	-75.77
181.503	16.38
181.723	18.43
181.943	-104.45
182.163	32.77
182.383	20.48
182.602	-24.58
182.822	92.16
183.042	16.38
183.262	-12.29
183.482	-43.01
183.701	2.05
183.921	-32.77
184.141	-22.53
184.361	10.24
184.58	63.49
184.8	47.1
185.02	-40.96
185.239	-14.34
185.459	40.96
185.679	63.49
185.898	-59.39
186.118	-18.43
186.338	8.19
186.557	96.25
186.777	32.77
186.997	-47.1
187.216	-26.62
187.436	38.91
187.655	22.53
187.875	79.87
188.095	4.1
188.314	-34.82
188.534	57.34
188.753	40.96
188.973	47.1
189.192	73.73
189.412	-36.86
189.631	-8.19
189.851	24.58
190.07	63.49
190.29	-10.24
190.509	77.82
190.729	-26.62
190.948	38.91
191.168	165.89
191.387	22.53
191.607	0
191.826	22.53
192.045	-24.58
192.265	71.68
192.484	2.05
192.704	-18.43
192.923	-16.38
193.142	32.77
193.362	79.87
193.581	59.39
193.8	36.86
194.02	57.34
194.239	-32.77
194.458	100.35
194.678	28.67
194.897	-10.24
195.116	-55.3
195.335	22.53
195.555	24.58
195.774	38.91
195.993	63.49
196.212	24.58
196.432	-71.68
196.651	-18.43
196.87	-30.72
197.089	34.82
197.308	14.34
197.528	32.77
197.747	-4.1
197.966	-38.91
198.185	116.73
198.404	32.77
198.623	59.39
198.842	40.96
199.062	57.34
199.281	24.58
199.5	18.43
199.719	-83.97
199.938	10.24
200.157	36.86
200.376	-24.58
200.595	45.06
200.814	57.34
201.033	-43.01
201.252	22.53
201.471	65.54
201.69	65.54
201.909	47.1
202.128	6.14
202.347	65.54
202.566	-8.19
202.785	-8.19
203.004	6.14
203.223	65.54
203.442	-2.05
203.661	-26.62
203.879	34.82
204.098	-28.67
204.317	-18.43
204.536	88.06
204.755	67.58
204.974	79.87
205.193	71.68
205.411	57.34
205.63	22.53
205.849	14.34
206.068	34.82
206.287	-10.24
206.505	40.96
206.724	18.43
206.943	-45.06
207.162	-26.62
207.381	40.96
207.599	65.54
207.818	-14.34
208.037	40.96
208.255	22.53
208.474	4.1
208.693	43.01
208.911	18.43
209.13	77.82
209.349	51.2
209.567	-26.62
209.786	63.49
210.005	30.72
210.223	-94.21
210.442	24.58
210.661	8.19
210.879	34.82
211.098	8.19
211.316	10.24
211.535	63.49
211.753	28.67
211.972	-16.38
212.191	-20.48
212.409	53.25
212.628	88.06
212.846	-79.87
213.065	75.77
213.283	65.54
213.502	55.3
213.72	100.35
213.938	47.1
214.157	28.67
214.375	79.87
214.594	26.62
214.812	94.21
215.031	8.19
215.249	-8.19
215.467	40.96
215.686	24.58
215.904	65.54
216.122	30.72
216.341	14.34
216.559	-26.62
216.778	75.77
216.996	55.3
217.214	-22.53
217.432	40.96
217.651	49.15
217.869	-6.14
218.087	-40.96
218.306	36.86
218.524	-40.96
218.742	2.05
218.96	49.15
219.179	4.1
219.397	47.1
219.615	6.14
219.833	67.58
220.051	47.1
220.27	8.19
220.488	30.72
220.706	53.25
220.924	-2.05
221.142	26.62
221.36	110.59
221.578	2.05
221.796	45.06
222.015	-2.05
222.233	55.3
222.451	65.54
222.669	-28.67
222.887	14.34
223.105	-6.14
223.323	30.72
223.541	10.24
223.759	-20.48
223.977	-18.43
224.195	131.07
224.413	0
224.631	16.38
224.849	40.96
225.067	67.58
225.285	14.34
225.503	8.19
225.721	-61.44
225.939	30.72
226.157	51.2
226.375	155.65
226.592	-22.53
226.81	57.34
227.028	38.91
227.246	118.78
227.464	57.34
227.682	75.77
227.9	40.96
228.117	100.35
228.335	63.49
228.553	-8.19
228.771	24.58
228.989	45.06
229.206	47.1
229.424	-43.01
229.642	-30.72
229.86	-24.58
230.077	45.06
230.295	26.62
230.513	43.01
230.731	38.91
230.948	51.2
231.166	65.54
231.384	63.49
231.601	-10.24
231.819	30.72
232.037	40.96
232.254	-47.1
232.472	71.68
232.689	14.34
232.907	22.53
233.125	-18.43
233.342	0
233.56	18.43
233.777	73.73
233.995	-57.34
234.213	22.53
234.43	63.49
234.648	-24.58
234.865	-30.72
235.083	26.62
235.3	40.96
235.518	65.54
235.735	55.3
235.953	57.34
236.17	4.1
236.388	57.34
236.605	8.19
236.822	63.49
237.04	47.1
237.257	22.53
237.475	-6.14
237.692	-81.92
237.909	-38.91
238.127	-75.77
238.344	24.58
238.562	112.64
238.779	-57.34
238.996	-26.62
239.214	38.91
239.431	-81.92
239.648	32.77
239.865	49.15
240.083	-47.1
240.3	-40.96
240.517	57.34
240.735	32.77
240.952	-8.19
241.169	98.3
241.386	24.58
241.603	51.2
241.821	-65.54
242.038	0
242.255	71.68
242.472	-75.77
242.689	28.67
242.907	0
243.124	16.38
243.341	-34.82
243.558	-26.62
243.775	24.58
243.992	-6.14
244.209	22.53
244.426	79.87
244.643	30.72
244.86	-22.53
245.078	32.77
245.295	10.24
245.512	24.58
245.729	22.53
245.946	-4.1
246.163	6.14
246.38	51.2
246.597	6.14
246.814	94.21
247.031	-18.43
247.248	36.86
247.464	14.34
247.681	-32.77
247.898	-14.34
248.115	22.53
248.332	-100.35
248.549	63.49
248.766	49.15
248.983	-16.38
249.2	88.06
249.417	47.1
249.633	47.1
249.85	55.3
250.067	2.05
250.284	-6.14
250.501	-30.72
250.717	47.1
250.934	10.24
251.151	40.96
251.368	-51.2
251.585	90.11
251.801	59.39
252.018	-10.24
252.235	-16.38
252.451	40.96
252.668	-32.77
252.885	26.62
253.102	32.77
253.318	-26.62
253.535	-2.05
253.752	-51.2
253.968	-36.86
254.185	2.05
254.401	14.34
254.618	-24.58
254.835	-43.01
255.051	106.49
255.268	-18.43
255.484	88.06
255.701	-16.38
255.917	40.96
256.134	-43.01
256.351	24.58
256.567	55.3
256.784	51.2
257	-20.48
257.217	-4.1
257.433	57.34
257.65	73.73
257.866	32.77
258.082	-2.05
258.299	-45.06
258.515	-18.43
258.732	6.14
258.948	71.68
259.165	81.92
259.381	-73.73
259.597	2.05
259.814	-69.63
260.03	-43.01
260.246	59.39
260.463	18.43
260.679	16.38
260.895	-30.72
261.112	30.72
261.328	8.19
261.544	-79.87
261.761	57.34
261.977	-18.43
262.193	8.19
262.409	8.19
262.626	90.11
262.842	24.58
263.058	8.19
263.274	57.34
263.49	-20.48
263.707	88.06
263.923	30.72
264.139	-96.25
264.355	47.1
264.571	61.44
264.787	16.38
265.004	63.49
265.22	-22.53
265.436	-43.01
265.652	-12.29
265.868	55.3
266.084	18.43
266.3	-8.19
266.516	57.34
266.732	30.72
266.948	-38.91
267.164	30.72
267.38	-55.3
267.596	24.58
267.812	38.91
268.028	-38.91
268.244	-8.19
268.46	22.53
268.676	-18.43
268.892	32.77
269.108	-81.92
269.324	22.53
269.54	-36.86
269.756	71.68
269.972	-8.19
270.188	34.82
270.403	12.29
270.619	-6.14
270.835	61.44
271.051	-73.73
271.267	14.34
271.483	-26.62
271.698	14.34
271.914	-40.96
272.13	104.45
272.346	59.39
272.562	133.12
272.777	38.91
272.993	22.53
273.209	14.34
273.425	112.64
273.64	6.14
273.856	108.54
274.072	30.72
274.287	22.53
274.503	16.38
274.719	-6.14
274.934	-2.05
275.15	-40.96
275.366	90.11
275.581	-47.1
275.797	0
276.012	-34.82
276.228	10.24
276.444	30.72
276.659	-2.05
276.875	-32.77
277.09	32.77
277.306	30.72
277.521	6.14
277.737	47.1
277.952	34.82
278.168	90.11
278.383	-6.14
278.599	0
278.814	14.34
279.03	-2.05
279.245	55.3
279.461	20.48
279.676	30.72
279.892	-32.77
280.107	18.43
280.322	38.91
280.538	73.73
280.753	-14.34
280.969	47.1
281.184	22.53
281.399	24.58
281.615	0
281.83	6.14
282.045	2.05
282.26	-59.39
282.476	36.86
282.691	22.53
282.906	-38.91
283.122	-2.05
283.337	-4.1
283.552	16.38
283.767	-22.53
283.983	-10.24
284.198	-20.48
284.413	30.72
284.628	18.43
284.843	-34.82
285.058	47.1
285.274	-26.62
285.489	24.58
285.704	116.73
285.919	12.29
286.134	6.14
286.349	-28.67
286.564	-47.1
286.779	63.49
286.995	-22.53
287.21	-139.26
287.425	22.53
287.64	-16.38
287.855	88.06
288.07	-2.05
288.285	-40.96
288.5	-6.14
288.715	61.44
288.93	-14.34
289.145	-40.96
289.36	-2.05
289.575	6.14
289.79	51.2
290.004	40.96
290.219	-34.82
290.434	45.06
290.649	16.38
290.864	14.34
291.079	12.29
291.294	-2.05
291.509	47.1
291.724	73.73
291.938	-12.29
292.153	10.24
292.368	-34.82
292.583	63.49
292.798	-26.62
293.012	47.1
293.227	83.97
293.442	-22.53
293.657	96.25
293.871	110.59
294.086	57.34
294.301	47.1
294.516	59.39
294.73	43.01
294.945	30.72
295.16	14.34
295.374	90.11
295.589	59.39
295.804	0
296.018	40.96
296.233	8.19
296.447	-6.14
296.662	47.1
296.877	4.1
297.091	73.73
297.306	24.58
297.52	38.91
297.735	14.34
297.949	63.49
298.164	26.62
298.378	-10.24
298.593	6.14
298.807	-34.82
299.022	47.1
299.236	69.63
299.451	-12.29
299.665	59.39
299.88	26.62
300.094	-49.15
300.309	43.01
300.523	38.91
300.737	63.49
300.952	-16.38
301.166	4.1
301.381	57.34
301.595	-2.05
301.809	55.3
302.024	4.1
302.238	0
302.452	45.06
302.667	14.34
302.881	129.02
303.095	51.2
303.309	26.62
303.524	-57.34
303.738	-16.38
303.952	6.14
304.166	0
304.381	-40.96
304.595	90.11
304.809	-40.96
305.023	14.34
305.237	18.43
305.452	30.72
305.666	22.53
305.88	8.19
306.094	55.3
306.308	22.53
306.522	77.82
306.736	106.49
306.95	59.39
307.164	-30.72
307.379	24.58
307.593	28.67
307.807	57.34
308.021	36.86
308.235	26.62
308.449	8.19
308.663	18.43
308.877	34.82
309.091	-2.05
309.305	-10.24
309.519	47.1
309.733	6.14
309.947	-67.58
310.161	108.54
310.374	59.39
310.588	30.72
310.802	-8.19
311.016	34.82
311.23	47.1
311.444	-86.01
311.658	-10.24
311.872	43.01
312.085	51.2
312.299	49.15
312.513	47.1
312.727	83.97
312.941	-16.38
313.154	88.06
313.368	38.91
313.582	24.58
313.796	-8.19
314.009	47.1
314.223	10.24
314.437	38.91
314.651	18.43
314.864	12.29
315.078	38.91
315.292	6.14
315.505	14.34
315.719	14.34
315.933	-43.01
316.146	55.3
316.36	12.29
316.573	38.91
316.787	45.06
317.001	55.3
317.214	-75.77
317.428	-2.05
317.641	6.14
317.855	-6.14
318.068	-38.91
318.282	-34.82
318.495	71.68
318.709	-26.62
318.922	71.68
319.136	32.77
319.349	10.24
319.563	-14.34
319.776	67.58
319.99	-14.34
320.203	-49.15
320.417	6.14
320.63	30.72
320.843	63.49
321.057	24.58
321.27	83.97
321.483	-51.2
321.697	116.73
321.91	2.05
322.124	-8.19
322.337	10.24
322.55	-8.19
322.763	81.92
322.977	-10.24
323.19	-22.53
323.403	83.97
323.617	20.48
323.83	145.41
324.043	30.72
324.256	-34.82
324.469	-43.01
324.683	59.39
324.896	14.34
325.109	-51.2
325.322	6.14
325.535	14.34
325.748	-6.14
325.962	-43.01
326.175	-18.43
326.388	30.72
326.601	71.68
326.814	28.67
327.027	-34.82
327.24	104.45
327.453	-8.19
327.666	10.24
327.879	10.24
328.092	-30.72
328.305	34.82
328.518	-26.62
328.731	-59.39
328.944	-24.58
329.157	-51.2
329.37	36.86
329.583	65.54
329.796	-2.05
330.009	-34.82
330.222	38.91
330.435	-59.39
330.648	30.72
330.861	51.2
331.073	81.92
331.286	22.53
331.499	10.24
331.712	-63.49
331.925	16.38
332.138	-6.14
332.35	-16.38
332.563	6.14
332.776	77.82
332.989	38.91
333.202	-47.1
333.414	10.24
333.627	75.77
333.84	-2.05
334.053	-14.34
334.265	-26.62
334.478	59.39
334.691	-24.58
334.903	24.58
335.116	-8.19
335.329	47.1
335.541	16.38
335.754	57.34
335.966	-92.16
336.179	49.15
336.392	18.43
336.604	38.91
336.817	79.87
337.029	71.68
337.242	40.96
337.454	43.01
337.667	75.77
337.88	45.06
338.092	-6.14
338.305	79.87
338.517	55.3
338.729	-18.43
338.942	65.54
339.154	-8.19
339.367	-43.01
339.579	12.29
339.792	-38.91
340.004	14.34
340.217	-8.19
340.429	83.97
340.641	30.72
340.854	-73.73
341.066	79.87
341.278	55.3
341.491	-16.38
341.703	38.91
341.915	6.14
342.128	14.34
342.34	49.15
342.552	20.48
342.764	53.25
342.977	47.1
343.189	49.15
343.401	6.14
343.613	-26.62
343.826	30.72
344.038	32.77
344.25	38.91
344.462	-16.38
344.674	-59.39
344.886	-59.39
345.099	71.68
345.311	18.43
345.523	8.19
345.735	-67.58
345.947	18.43
346.159	26.62
346.371	43.01
346.583	108.54
346.795	124.93
347.007	47.1
347.219	51.2
347.431	-10.24
347.643	71.68
347.855	10.24
348.067	24.58
348.279	-43.01
348.491	6.14
348.703	4.1
348.915	40.96
349.127	-38.91
349.339	10.24
349.551	-47.1
349.763	-16.38
349.975	43.01
350.187	106.49
350.399	-51.2
350.61	8.19
350.822	67.58
351.034	47.1
351.246	79.87
351.458	-4.1
351.669	55.3
351.881	104.45
352.093	14.34
352.305	-18.43
352.517	102.4
352.728	120.83
352.94	6.14
353.152	6.14
353.363	8.19
353.575	30.72
353.787	55.3
353.999	-18.43
354.21	71.68
354.422	-38.91
354.633	47.1
354.845	43.01
355.057	55.3
355.268	-8.19
355.48	28.67
355.692	-26.62
355.903	32.77
356.115	83.97
356.326	32.77
356.538	106.49
356.749	65.54
356.961	18.43
357.172	-14.34
357.384	55.3
357.595	88.06
357.807	79.87
358.018	-40.96
358.23	38.91
358.441	112.64
358.653	38.91
358.864	8.19
359.075	55.3
359.287	-24.58
359.498	-26.62
359.709	26.62
359.921	-30.72
360.132	79.87
360.344	4.1
360.555	63.49
360.766	26.62
360.977	-2.05
361.189	53.25
361.4	6.14
361.611	47.1
361.823	55.3
362.034	0
362.245	-26.62
362.456	53.25
362.667	67.58
362.879	-18.43
363.09	34.82
363.301	18.43
363.512	81.92
363.723	-38.91
363.935	47.1
364.146	92.16
364.357	63.49
364.568	16.38
364.779	-40.96
364.99	75.77
365.201	-24.58
365.412	100.35
365.623	-6.14
365.834	22.53
366.045	-2.05
366.256	18.43
366.467	6.14
366.678	106.49
366.889	-8.19
367.1	-28.67
367.311	112.64
367.522	24.58
367.733	63.49
367.944	43.01
368.155	-18.43
368.366	38.91
368.577	-22.53
368.788	-92.16
368.999	-14.34
369.209	-30.72
369.42	88.06
369.631	26.62
369.842	47.1
370.053	-57.34
370.264	71.68
370.474	18.43
370.685	24.58
370.896	38.91
371.107	6.14
371.317	55.3
371.528	-18.43
371.739	47.1
371.95	96.25
372.16	94.21
372.371	-51.2
372.582	63.49
372.792	90.11
373.003	53.25
373.214	34.82
373.424	79.87
373.635	-10.24
373.846	73.73
374.056	49.15
374.267	-14.34
374.477	-14.34
374.688	-28.67
374.898	30.72
375.109	-18.43
375.319	49.15
375.53	30.72
375.74	79.87
375.951	49.15
376.161	47.1
376.372	114.69
376.582	-49.15
376.793	-12.29
377.003	47.1
377.214	22.53
377.424	40.96
377.635	14.34
377.845	-36.86
378.055	151.55
378.266	32.77
378.476	-51.2
378.686	6.14
378.897	38.91
379.107	88.06
379.317	-43.01
379.528	30.72
379.738	18.43
379.948	-14.34
380.158	34.82
380.369	43.01
380.579	71.68
380.789	63.49
380.999	34.82
381.21	36.86
381.42	-12.29
381.63	-8.19
381.84	79.87
382.05	-24.58
382.261	65.54
382.471	100.35
382.681	67.58
382.891	71.68
383.101	6.14
383.311	20.48
383.521	-26.62
383.731	26.62
383.941	34.82
384.151	2.05
384.361	32.77
384.571	63.49
384.781	40.96
384.991	161.79
385.201	88.06
385.411	45.06
385.621	45.06
385.831	8.19
386.041	0
386.251	61.44
386.461	94.21
386.671	-6.14
386.881	45.06
387.091	-2.05
387.301	-26.62
387.511	-10.24
387.72	-8.19
387.93	30.72
388.14	53.25
388.35	32.77
388.56	16.38
388.769	16.38
388.979	30.72
389.189	-18.43
389.399	88.06
389.609	51.2
389.818	65.54
390.028	47.1
390.238	24.58
390.447	-2.05
390.657	30.72
390.867	24.58
391.076	-14.34
391.286	30.72
391.496	-18.43
391.705	-14.34
391.915	139.26
392.125	65.54
392.334	57.34
392.544	106.49
392.753	18.43
392.963	45.06
393.172	47.1
393.382	55.3
393.591	100.35
393.801	30.72
394.01	45.06
394.22	32.77
394.429	-57.34
394.639	6.14
394.848	112.64
395.058	75.77
395.267	129.02
395.477	79.87
395.686	-26.62
395.895	45.06
396.105	88.06
396.314	38.91
396.524	38.91
396.733	92.16
396.942	57.34
397.152	47.1
397.361	79.87
397.57	100.35
397.78	120.83
397.989	30.72
398.198	104.45
398.407	30.72
398.617	86.01
398.826	47.1
399.035	63.49
399.244	79.87
399.453	77.82
399.663	104.45
399.872	120.83
400.081	43.01
400.29	45.06
400.499	-22.53
400.708	88.06
400.917	47.1
401.127	75.77
401.336	88.06
401.545	104.45
401.754	83.97
401.963	88.06
402.172	90.11
402.381	120.83
402.59	34.82
402.799	22.53
403.008	30.72
403.217	59.39
403.426	120.83
403.635	-2.05
403.844	45.06
404.053	83.97
404.262	49.15
404.471	135.17
404.68	57.34
404.888	145.41
405.097	83.97
405.306	174.08
405.515	196.61
405.724	122.88
405.933	92.16
406.142	118.78
406.35	145.41
406.559	73.73
406.768	116.73
406.977	186.37
407.185	174.08
407.394	239.61
407.603	155.65
407.812	169.98
408.02	126.97
408.229	92.16
408.438	51.2
408.646	59.39
408.855	178.17
409.064	243.71
409.272	169.98
409.481	229.37
409.69	212.99
409.898	120.83
410.107	221.18
410.315	253.95
410.524	235.52
410.733	317.44
410.941	219.13
411.15	251.9
411.358	194.56
411.567	358.39
411.775	212.99
411.984	282.62
412.192	223.23
412.401	294.91
412.609	366.59
412.818	280.57
413.026	387.07
413.234	352.25
413.443	323.58
413.651	360.44
413.86	471.03
414.068	415.74
414.276	432.12
414.485	417.79
414.693	428.03
414.901	464.89
415.11	460.79
415.318	481.27
415.526	530.42
415.734	546.81
415.943	442.36
416.151	628.73
416.359	499.7
416.567	540.66
416.776	583.67
416.984	761.84
417.192	710.65
417.4	671.73
417.608	675.83
417.817	608.25
418.025	776.18
418.233	849.91
418.441	684.02
418.649	755.7
418.857	886.77
419.065	974.83
419.273	899.06
419.481	1036.27
419.689	933.87
419.897	1015.79
420.105	1013.74
420.313	1079.28
420.521	1202.16
420.729	1148.91
420.937	1177.58
421.145	1210.35
421.353	1320.94
421.561	1341.42
421.769	1374.19
421.977	1380.33
422.185	1511.4
422.393	1458.15
422.601	1624.04
422.809	1613.8
423.017	1644.52
423.224	1646.57
423.432	1755.11
423.64	1742.82
423.848	1853.41
424.056	1857.51
424.263	1943.52
424.471	1832.93
424.679	1988.58
424.887	2070.5
425.094	2181.09
425.302	2226.14
425.51	2277.34
425.718	2381.79
425.925	2277.34
426.133	2471.9
426.341	2623.45
426.548	2693.08
426.756	2643.93
426.964	2717.65
427.171	2750.42
427.379	2977.75
427.586	2850.77
427.794	3112.91
428.001	3268.56
428.209	3385.29
428.417	3260.37
428.624	3561.42
428.832	3635.14
429.039	3585.99
429.247	3577.8
429.454	3735.49
429.662	4251.58
429.869	3827.65
430.076	4134.85
430.284	4054.98
430.491	4077.51
430.699	4470.72
430.906	4335.55
431.114	4276.16
431.321	4669.37
431.528	4618.17
431.736	4841.4
431.943	5144.5
432.15	5109.68
432.358	5150.64
432.565	5484.46
432.772	5257.14
432.979	5726.12
433.187	5595.05
433.394	5767.08
433.601	6012.84
433.808	6135.71
434.016	6137.76
434.223	6408.09
434.43	6598.56
434.637	6649.75
434.844	6932.37
435.052	7249.81
435.259	7151.51
435.466	7157.65
435.673	7034.77
435.88	7573.39
436.087	7919.5
436.294	7972.74
436.501	7794.57
436.708	7849.86
436.915	8263.55
437.122	8783.74
437.329	8486.78
437.537	8945.53
437.743	9074.55
437.95	8828.79
438.157	9361.27
438.364	9682.8
438.571	9635.69
438.778	9564.01
438.985	10588
439.192	10155.88
439.399	10348.39
439.606	10217.32
439.813	10927.96
440.02	11261.78
440.227	11192.15
440.433	11102.04
440.64	11466.58
440.847	11302.74
441.054	11835.21
441.261	12486.47
441.467	12267.33
441.674	12504.9
441.881	12984.12
442.088	13000.51
442.294	12932.92
442.501	13154.1
442.708	13643.57
442.914	14079.79
443.121	14546.72
443.328	14145.32
443.534	15179.54
443.741	14632.74
443.948	14458.66
444.154	15587.09
444.361	15515.41
444.568	15644.43
444.774	15402.77
444.981	15787.79
445.187	16346.89
445.394	16901.89
445.6	16682.75
445.807	18161.39
446.013	17393.4
446.22	17682.16
446.426	18638.56
446.633	18626.28
446.839	19275.48
447.046	18294.5
447.252	19572.44
447.459	19439.32
447.665	19322.59
447.871	20119.24
448.078	21149.37
448.284	20080.33
448.491	20590.28
448.697	21513.91
448.903	21913.27
449.11	21950.13
449.316	21374.65
449.522	22001.33
449.728	22335.15
449.935	22857.38
450.141	22644.39
450.347	22951.59
450.553	22238.89
450.76	22724.26
450.966	23711.38
451.172	23453.34
451.378	24200.85
451.584	23398.04
451.791	23840.4
451.997	23778.97
452.203	24360.59
452.409	24241.81
452.615	23903.89
452.821	23121.57
453.027	22861.48
453.233	24143.5
453.44	23522.97
453.646	23375.52
453.852	23205.53
454.058	23832.21
454.264	23031.46
454.47	23844.5
454.676	22886.05
454.882	24125.07
455.088	21534.39
455.294	22124.21
455.5	22361.77
455.705	22296.24
455.911	21198.52
456.117	21196.48
456.323	20926.14
456.529	19756.75
456.735	20817.6
456.941	20362.95
457.147	19537.62
457.352	19039.97
457.558	18691.81
457.764	19203.8
457.97	18587.36
458.176	18314.98
458.381	18185.96
458.587	17319.67
458.793	17403.64
458.999	16211.72
459.204	17661.68
459.41	17057.53
459.616	15988.49
459.821	15900.43
460.027	15795.98
460.233	15408.92
460.438	14872.35
460.644	14696.22
460.85	14147.37
461.055	14028.59
461.261	14030.63
461.466	13104.95
461.672	12779.33
461.878	13469.49
462.083	12574.53
462.289	12269.38
462.494	11923.27
462.7	11732.81
462.905	11302.74
463.111	11698
463.316	11829.07
463.522	11611.98
463.727	11589.46
463.932	11501.39
464.138	11327.32
464.343	11597.65
464.549	11224.92
464.754	11368.27
464.959	11220.82
465.165	11243.35
465.37	10631.01
465.575	10540.9
465.781	10852.19
465.986	10954.58
466.191	10516.32
466.397	10491.74
466.602	10184.55
466.807	10131.3
467.012	10235.75
467.218	10256.23
467.423	10108.77
467.628	10305.38
467.833	10409.83
468.038	9996.14
468.244	9971.56
468.449	10309.47
468.654	9959.27
468.859	9748.33
469.064	9795.43
469.269	9455.47
469.474	9451.38
469.679	9756.52
469.885	9224.05
470.09	9439.09
470.295	9418.61
470.5	9090.93
470.705	9367.41
470.91	9013.11
471.115	9049.97
471.32	9099.13
471.525	9092.98
471.73	9000.82
471.935	8730.49
472.139	8589.18
472.344	8652.67
472.549	8345.47
472.754	8368
472.959	8345.47
473.164	8079.24
473.369	7976.84
473.574	8329.09
473.778	8083.33
473.983	8191.87
474.188	8163.2
474.393	7735.18
474.598	7616.4
474.802	7778.19
475.007	7546.76
475.212	7702.41
475.417	7296.91
475.621	7493.52
475.826	7389.07
476.031	7325.58
476.235	7018.39
476.44	7157.65
476.645	6899.61
476.849	7118.74
477.054	7120.79
477.259	6698.91
477.463	7047.06
477.668	6756.25
477.872	6741.91
478.077	6733.72
478.282	6408.09
478.486	6537.12
478.691	6465.44
478.895	6535.07
479.1	6483.87
479.304	6494.11
479.509	6037.41
479.713	6387.61
479.918	6191.01
480.122	6061.99
480.326	6211.49
480.531	6311.84
480.735	6088.61
480.94	6133.67
481.144	6363.04
481.348	5963.68
481.553	6010.79
481.757	5898.15
481.961	6068.13
482.166	6150.05
482.37	5851.05
482.574	5951.4
482.778	5996.45
482.983	6180.77
483.187	5836.71
483.391	6109.09
483.595	5877.67
483.8	5871.53
484.004	5978.02
484.208	6012.84
484.412	6080.42
484.616	5916.58
484.821	5975.97
485.025	5887.91
485.229	5914.53
485.433	5707.69
485.637	5777.32
485.841	5703.59
486.045	5894.05
486.249	5851.05
486.453	5928.87
486.657	5945.25
486.861	5773.22
487.065	5826.47
487.269	5912.49
487.473	5834.66
487.677	5953.45
487.881	5982.12
488.085	5932.97
488.289	5902.25
488.493	5824.42
488.697	5926.82
488.901	5986.21
489.105	5982.12
489.309	5937.06
489.512	5988.26
489.716	6053.8
489.92	6170.53
490.124	6117.28
490.328	6119.33
490.531	6104.99
490.735	5978.02
490.939	6162.34
491.143	5949.35
491.346	5906.34
491.55	6141.86
491.754	6184.87
491.958	6043.56
492.161	6137.76
492.365	6268.83
492.569	6281.12
492.772	6191.01
492.976	6170.53
493.18	6176.67
493.383	6291.36
493.587	6334.37
493.79	6303.65
493.994	6215.59
494.197	6426.53
494.401	6457.25
494.605	6496.16
494.808	6627.23
495.012	6616.99
495.215	6649.75
495.419	6600.6
495.622	6596.51
495.825	6743.96
496.029	6619.03
496.232	7002.01
496.436	6748.06
496.639	6893.46
496.843	6887.32
497.046	7276.43
497.249	7157.65
497.453	7176.08
497.656	7153.55
497.859	7346.06
498.063	7411.6
498.266	7657.36
498.469	7378.83
498.673	7491.47
498.876	7636.88
499.079	7731.08
499.282	7774.09
499.485	7819.14
499.689	7714.7
499.892	7931.78
500.095	8148.87
500.298	8341.38
500.501	8208.26
500.705	8533.89
500.908	8462.21
501.111	8368
501.314	8574.85
501.517	8619.9
501.72	8738.68
501.923	8587.13
502.126	9041.78
502.329	9041.78
502.532	9099.13
502.735	9029.49
502.938	9434.99
503.141	9373.55
503.344	9508.72
503.547	9518.96
503.75	9594.73
503.953	9623.41
504.156	9762.67
504.359	10149.73
504.562	9906.02
504.765	10256.23
504.968	10258.28
505.17	10313.57
505.373	10264.42
505.576	10495.84
505.779	10649.44
505.982	10700.64
506.185	10686.3
506.387	10934.11
506.59	11056.98
506.793	11175.77
506.996	11190.1
507.198	11507.54
507.401	11517.78
507.604	11683.66
507.807	11671.37
508.009	11769.68
508.212	11915.08
508.415	12273.48
508.617	12212.04
508.82	12433.22
509.022	12306.24
509.225	12359.49
509.428	12851
509.63	12867.39
509.833	12920.63
510.035	13145.91
510.238	13016.89
510.44	13338.42
510.643	13455.15
510.845	13664.05
511.048	13602.61
511.25	13612.85
511.453	13748.01
511.655	14284.58
511.858	14071.59
512.06	14358.31
512.262	14276.39
512.465	14339.88
512.667	14499.62
512.87	14561.06
513.072	14780.19
513.274	15003.42
513.477	15277.85
513.679	15185.69
513.881	15427.35
514.084	15648.53
514.286	15568.66
514.488	15605.52
514.69	16013.07
514.893	16135.95
515.095	16162.57
515.297	16389.89
515.499	16424.71
515.701	16647.94
515.904	16621.31
516.106	16981.76
516.308	16967.42
516.51	17078.01
516.712	17291
516.914	17579.76
517.116	17780.46
517.318	17553.14
517.52	17704.69
517.722	17848.05
517.925	18075.37
518.127	18243.31
518.329	18114.28
518.531	18202.35
518.733	18794.21
518.935	18769.63
519.136	18740.96
519.338	19189.47
519.54	19138.27
519.742	19320.54
519.944	19455.7
520.146	19377.88
520.348	19590.87
520.55	19619.54
520.752	19955.41
520.954	20412.1
521.155	19850.96
521.357	20309.71
521.559	20066
521.761	20653.76
521.963	20485.83
522.164	20588.23
522.366	20625.09
522.568	20911.81
522.77	21024.45
522.971	21196.48
523.173	20938.43
523.375	21106.37
523.576	21096.13
523.778	21440.18
523.98	21481.14
524.181	21397.18
524.383	21780.15
524.584	21776.05
524.786	21950.13
524.988	21524.15
525.189	21855.92
525.391	22064.82
525.592	22146.73
525.794	21999.28
525.995	22144.69
526.197	22156.97
526.398	22132.4
526.6	22208.17
526.801	22369.96
527.003	22560.42
527.204	22386.35
527.406	22455.98
527.607	22421.16
527.808	22367.91
528.01	22406.83
528.211	22441.64
528.412	22914.72
528.614	22558.38
528.815	22623.91
529.016	22927.01
529.218	22124.21
529.419	22578.86
529.62	22525.61
529.822	22664.87
530.023	22730.41
530.224	22769.32
530.425	22963.87
530.626	22443.69
530.828	22337.2
531.029	22847.14
531.23	22367.91
531.431	22181.55
531.632	22484.65
531.833	22324.91
532.035	22632.1
532.236	22509.22
532.437	22908.58
532.638	22337.2
532.839	22341.29
533.04	22396.59
533.241	22369.96
533.442	22771.36
533.643	22412.97
533.844	22199.98
534.045	22474.41
534.246	22089.39
534.447	22445.74
534.648	22365.87
534.849	22578.86
535.05	22046.38
535.251	22427.31
535.451	22058.67
535.652	22238.89
535.853	22193.84
536.054	22173.36
536.255	22232.75
536.456	21706.42
536.657	22570.66
536.857	21941.94
537.058	21616.31
537.259	22236.84
537.46	21956.27
537.66	21847.73
537.861	21774
538.062	21687.99
538.263	21894.83
538.463	21741.24
538.664	21835.44
538.865	22025.9
539.065	22011.57
539.266	21518.01
539.466	21900.98
539.667	21319.35
539.868	21845.68
540.068	21585.59
540.269	21567.16
540.469	21829.3
540.67	21610.17
540.87	22075.06
541.071	21749.43
541.271	21616.31
541.472	21788.34
541.672	21561.01
541.873	21622.45
542.073	21419.71
542.274	21843.63
542.474	21548.73
542.675	21438.14
542.875	21825.2
543.075	21513.91
543.276	21321.4
543.476	21825.2
543.676	21530.3
543.877	21919.41
544.077	21745.33
544.277	21382.84
544.478	21276.35
544.678	21450.42
544.878	21587.64
545.078	21335.74
545.279	20993.73
545.479	21225.15
545.679	21270.2
545.879	21399.23
546.079	21440.18
546.28	21692.08
546.48	21182.14
546.68	21472.95
546.88	21259.96
547.08	21554.87
547.28	21266.11
547.48	21264.06
547.68	21417.66
547.88	21249.72
548.081	21561.01
548.281	21237.44
548.481	21403.32
548.681	21372.6
548.881	21219
549.081	21139.13
549.28	21157.57
549.48	21399.23
549.68	21167.8
549.88	21388.99
550.08	21282.49
550.28	21458.62
550.48	21515.96
550.68	21632.69
550.88	21388.99
551.08	21325.5
551.279	21733.04
551.479	21219
551.679	21538.49
551.879	21528.25
552.079	21296.83
552.278	21544.63
552.478	21558.97
552.678	21249.72
552.878	21567.16
553.077	21558.97
553.277	21128.89
553.477	21767.86
553.676	21464.76
553.876	21563.06
554.076	21444.28
554.275	21483.19
554.475	21284.54
554.674	21569.21
554.874	21681.85
555.074	21544.63
555.273	21700.28
555.473	21644.98
555.672	21485.24
555.872	21511.86
556.071	21458.62
556.271	21690.04
556.47	21561.01
556.67	21262.01
556.869	21454.52
557.068	21585.59
557.268	21434.04
557.467	21542.58
557.667	21696.18
557.866	21755.57
558.065	21866.16
558.265	21661.37
558.464	21186.24
558.663	21905.07
558.863	21550.78
559.062	21888.69
559.261	21438.14
559.461	21704.37
559.66	21626.55
559.859	21718.71
560.058	21548.73
560.258	21479.1
560.457	21333.69
560.656	21706.42
560.855	21694.13
561.054	21827.25
561.253	21571.25
561.453	21692.08
561.652	21599.93
561.851	21632.69
562.05	21403.32
562.249	21202.62
562.448	21964.46
562.647	21677.75
562.846	21477.05
563.045	21683.89
563.244	21239.48
563.443	21659.32
563.642	21481.14
563.841	21487.29
564.04	21350.07
564.239	21331.64
564.438	21372.6
564.637	21653.17
564.836	21421.75
565.035	21278.4
565.234	21401.27
565.432	21339.83
565.631	21143.23
565.83	21612.21
566.029	21139.13
566.228	21214.91
566.427	21378.75
566.625	21206.72
566.824	20842.18
567.023	21161.66
567.222	20731.59
567.42	21216.96
567.619	20917.95
567.818	20922.05
568.016	21026.5
568.215	21106.37
568.414	20989.63
568.612	20944.58
568.811	21010.11
569.01	20940.48
569.208	20717.25
569.407	20582.09
569.605	20405.96
569.804	20985.54
570.002	20664
570.201	20487.88
570.4	20682.44
570.598	20303.56
570.797	20289.23
570.995	20524.74
571.193	20018.89
571.392	20330.19
571.59	19988.17
571.789	20158.16
571.987	20233.93
572.186	20182.73
572.384	19957.46
572.582	20207.31
572.781	20072.14
572.979	19814.1
573.177	20131.53
573.376	19986.13
573.574	19947.22
573.772	19891.92
573.971	19642.07
574.169	19494.61
574.367	19746.51
574.565	19617.49
574.763	19467.99
574.962	19607.25
575.16	19685.08
575.358	19504.85
575.556	19394.26
575.754	19390.17
575.952	19291.87
576.151	19414.74
576.349	19087.07
576.547	18992.86
576.745	18988.77
576.943	19123.93
577.141	18937.57
577.339	19160.8
577.537	19185.37
577.735	18800.35
577.933	18732.77
578.131	18829.02
578.329	18446.05
578.527	18390.76
578.725	18687.71
578.923	18740.96
579.121	18767.59
579.319	18542.31
579.516	18675.43
579.714	18476.77
579.912	18249.45
580.11	18306.79
580.308	18118.38
580.506	18202.35
580.704	18126.57
580.901	18071.28
581.099	18251.5
581.297	18044.65
581.495	18018.03
581.692	17882.86
581.89	17757.94
582.088	17923.82
582.285	17815.28
582.483	17913.58
582.681	17731.31
582.878	17721.07
583.076	17436.41
583.274	17731.31
583.471	17362.68
583.669	17692.4
583.866	17219.32
584.064	17868.53
584.262	17284.86
584.459	17344.25
584.657	17264.38
584.854	17643.25
585.052	16918.27
585.249	17096.44
585.447	17071.87
585.644	17030.91
585.841	17221.37
586.039	17145.59
586.236	17176.31
586.434	16938.75
586.631	16807.68
586.828	16930.56
587.026	17075.96
587.223	16951.04
587.42	16623.36
587.618	16695.04
587.815	16539.4
588.012	16369.41
588.21	16504.58
588.407	16795.39
588.604	16406.28
588.801	16443.14
588.999	16480
589.196	16221.96
589.393	16459.52
589.59	16613.12
589.787	16238.34
589.984	16297.74
590.182	15882
590.379	16199.43
590.576	16209.67
590.773	16078.6
590.97	15892.24
591.167	16211.72
591.364	16041.74
591.561	15968.01
591.758	15908.62
591.955	16047.88
592.152	16146.19
592.349	16041.74
592.546	15761.17
592.743	15847.18
592.94	15685.39
593.137	15763.22
593.334	15816.46
593.531	15556.37
593.727	15642.39
593.924	15812.37
594.121	15546.13
594.318	15576.85
594.515	15456.02
594.712	15632.15
594.908	15771.41
595.105	15476.5
595.302	15339.29
595.499	15595.28
595.696	15494.93
595.892	15523.6
596.089	15374.1
596.286	15349.53
596.482	15693.58
596.679	15572.75
596.876	15398.68
597.072	15386.39
597.269	15464.21
597.466	15193.88
597.662	15347.48
597.859	15163.16
598.055	15257.37
598.252	15480.6
598.448	15359.77
598.645	15064.86
598.841	15120.15
599.038	15073.05
599.234	15165.21
599.431	15044.38
599.627	15058.71
599.824	15148.82
600.02	14999.32
600.217	15054.62
600.413	15374.1
600.609	15021.85
600.806	15118.11
601.002	15144.73
601.198	15107.87
601.395	15292.18
601.591	15275.8
601.787	15169.3
601.984	14860.06
602.18	15140.63
602.376	14747.42
602.572	14982.94
602.769	15146.78
602.965	14776.09
603.161	15019.8
603.357	15071
603.553	14956.32
603.75	15015.71
603.946	14933.79
604.142	14952.22
604.338	14905.12
604.534	14898.97
604.73	15142.68
604.926	14997.28
605.122	15333.14
605.318	14833.44
605.514	14960.41
605.71	14845.73
605.906	15101.72
606.102	15134.49
606.298	15087.39
606.494	14880.54
606.69	15097.63
606.886	15124.25
607.082	14819.1
607.278	15226.65
607.474	14911.26
607.67	15202.07
607.866	14905.12
608.062	15265.56
608.257	15361.81
608.453	14841.63
608.649	15087.39
608.845	15159.06
609.041	15105.82
609.236	15238.94
609.432	15386.39
609.628	15218.46
609.824	15046.43
610.019	15243.03
610.215	15167.26
610.411	15406.87
610.606	14978.84
610.802	14968.6
610.998	15378.2
611.193	15447.83
611.389	15142.68
611.584	15021.85
611.78	15114.01
611.976	15189.78
612.171	15496.98
612.367	15349.53
612.562	15363.86
612.758	14976.8
612.953	15341.33
613.149	15345.43
613.344	15275.8
613.539	15601.43
613.735	15492.88
613.93	15456.02
614.126	15456.02
614.321	15361.81
614.517	15261.46
614.712	15316.76
614.907	15345.43
615.103	15249.18
615.298	15081.24
615.493	15453.97
615.688	15015.71
615.884	15578.9
616.079	15261.46
616.274	15277.85
616.47	15421.2
616.665	15345.43
616.86	15073.05
617.055	15120.15
617.25	15157.02
617.445	15474.45
617.641	14847.77
617.836	15116.06
618.031	15021.85
618.226	15296.28
618.421	15009.56
618.616	15429.4
618.811	14858.01
619.006	15200.02
619.201	14780.19
619.396	15073.05
619.591	14753.57
619.786	15085.34
619.981	14812.96
620.176	15075.1
620.371	14731.04
620.566	14991.13
620.761	14677.79
620.956	14624.54
621.151	14335.78
621.346	14698.27
621.541	14470.95
621.735	14532.39
621.93	14104.36
622.125	14260.01
622.32	14268.2
622.515	14270.25
622.709	14374.69
622.904	14194.47
623.099	13969.19
623.294	14176.04
623.488	14047.02
623.683	13934.38
623.878	13733.68
624.072	13901.61
624.267	13694.77
624.462	13752.11
624.656	13453.11
624.851	13596.46
625.046	13563.7
625.24	13416.24
625.435	13254.45
625.629	13160.25
625.824	13332.28
626.018	13250.36
626.213	12943.16
626.407	13088.57
626.602	13139.77
626.796	12994.36
626.991	13008.7
627.185	12754.75
627.38	12746.56
627.574	12703.55
627.768	12713.79
627.963	12470.08
628.157	12588.86
628.352	12420.93
628.546	12136.26
628.74	12369.73
628.935	12269.38
629.129	12228.42
629.323	12126.02
629.517	12150.6
629.712	12007.24
629.906	11831.12
630.1	11683.66
630.294	11708.24
630.489	11798.35
630.683	11827.02
630.877	11507.54
631.071	11591.5
631.265	11571.02
631.459	11638.61
631.653	11450.19
631.848	11560.78
632.042	11370.32
632.236	11495.25
632.43	11253.59
632.624	11423.57
632.818	11337.56
633.012	11020.12
633.206	11190.1
633.4	11030.36
633.594	10975.06
633.788	10839.9
633.982	11005.78
634.176	10682.2
634.369	10723.16
634.563	10731.36
634.757	10364.77
634.951	10512.22
635.145	10559.33
635.339	10233.7
635.533	10385.25
635.726	10532.7
635.92	10147.69
636.114	10286.95
636.308	10098.53
636.501	10069.86
636.695	10196.84
636.889	9944.94
637.083	10014.57
637.276	9903.98
637.47	9779.05
637.664	9822.06
637.857	9770.86
638.051	9766.76
638.244	9527.15
638.438	9574.25
638.632	9453.42
638.825	9400.18
639.019	9412.46
639.212	9434.99
639.406	9365.36
639.599	9318.26
639.793	9135.99
639.986	9099.13
640.18	9215.86
640.373	9228.15
640.567	9015.16
640.76	9060.21
640.954	8966.01
641.147	8624
641.34	8839.03
641.534	8865.66
641.727	8736.63
641.92	8652.67
642.114	8480.64
642.307	8716.16
642.5	8562.56
642.694	8454.01
642.887	8347.52
643.08	8636.28
643.273	8214.4
643.467	8085.38
643.66	8255.36
643.853	8167.3
644.046	8005.51
644.239	8044.42
644.432	8071.04
644.626	7880.58
644.819	8019.85
645.012	8001.41
645.205	7970.69
645.398	8052.61
645.591	7702.41
645.784	7739.27
645.977	7661.45
646.17	7509.9
646.363	7575.44
646.556	7395.22
646.749	7579.53
646.942	7501.71
647.135	7561.1
647.328	7464.85
647.521	7301.01
647.714	7210.9
647.907	7182.23
648.099	7114.64
648.292	7184.27
648.485	7141.27
648.678	7036.82
648.871	7075.73
649.064	7149.46
649.256	7094.16
649.449	6889.37
649.642	6842.26
649.835	6807.45
650.027	6803.35
650.22	6846.36
650.413	6907.8
650.605	6743.96
650.798	6604.7
650.991	6746.01
651.183	6584.22
651.376	6586.27
651.568	6516.64
651.761	6428.57
651.954	6625.18
652.146	6518.68
652.339	6535.07
652.531	6383.52
652.724	6358.94
652.916	6088.61
653.109	6154.15
653.301	6086.56
653.494	6182.82
653.686	5900.2
653.879	6297.5
654.071	6199.2
654.263	6111.14
654.456	5994.4
654.648	5949.35
654.84	5971.88
655.033	5855.14
655.225	5961.64
655.417	5930.92
655.61	5814.18
655.802	5851.05
655.994	5787.56
656.186	5676.97
656.379	5826.47
656.571	5586.86
656.763	5640.11
656.955	5674.92
657.148	5644.2
657.34	5439.4
657.532	5420.97
657.724	5400.49
657.916	5506.99
658.108	5431.21
658.3	5371.82
658.492	5580.71
658.684	5093.3
658.876	5175.22
659.068	5357.49
659.26	5158.83
659.452	5291.95
659.644	5273.52
659.836	4997.04
660.028	5152.69
660.22	5134.26
660.412	5207.98
660.604	5081.01
660.796	5068.72
660.988	5085.11
661.18	4937.65
661.372	4911.03
661.563	5040.05
661.755	4904.89
661.947	4880.31
662.139	4945.84
662.331	4812.73
662.522	4732.86
662.714	4700.09
662.906	4710.33
663.097	4695.99
663.289	4691.9
663.481	4614.07
663.673	4642.75
663.864	4708.28
664.056	4609.98
664.247	4421.56
664.439	4571.07
664.631	4560.83
664.822	4413.37
665.014	4431.8
665.205	4476.86
665.397	4265.92
665.588	4347.84
665.78	4356.03
665.971	4290.49
666.163	4290.49
666.354	4353.98
666.546	4296.64
666.737	4126.66
666.929	4134.85
667.12	4181.95
667.311	4112.32
667.503	3952.58
667.694	4118.47
667.885	4106.18
668.077	4124.61
668.268	3954.63
668.459	3995.59
668.651	4052.93
668.842	3954.63
669.033	3995.59
669.224	3977.16
669.416	4034.5
669.607	3932.1
669.798	3938.24
669.989	3903.43
670.18	3766.21
670.371	3866.56
670.563	3950.53
670.754	3774.41
670.945	3768.26
671.136	3749.83
671.327	3645.38
671.518	3817.41
671.709	3776.45
671.9	3667.91
672.091	3768.26
672.282	3626.95
672.473	3585.99
672.664	3745.73
672.855	3596.23
673.046	3512.27
673.237	3594.19
673.428	3592.14
673.619	3416.01
673.809	3706.82
674	3442.64
674.191	3495.88
674.382	3491.79
674.573	3604.42
674.764	3375.05
674.954	3430.35
675.145	3330
675.336	3301.33
675.527	3375.05
675.717	3336.14
675.908	3268.56
676.099	3389.39
676.289	3389.39
676.48	3278.8
676.671	3311.57
676.861	3405.77
677.052	3291.09
677.243	3243.98
677.433	3151.82
677.624	3274.7
677.814	3203.02
678.005	3221.45
678.195	3164.11
678.386	3235.79
678.576	3047.38
678.767	3176.4
678.957	3209.17
679.148	3319.76
679.338	3137.49
679.529	3104.72
679.719	3160.02
679.909	3184.59
680.1	3069.91
680.29	3098.58
680.481	3028.95
680.671	3207.12
680.861	3203.02
681.052	3074
681.242	2981.84
681.432	3053.52
681.622	3151.82
681.813	3051.47
682.003	2901.97
682.193	2901.97
682.383	3008.47
682.573	3090.38
682.764	2861.01
682.954	3012.56
683.144	3002.32
683.334	2920.4
683.524	2996.18
683.714	2848.72
683.904	2832.34
684.094	2867.16
684.284	2906.07
684.474	2924.5
684.664	2983.89
684.854	2822.1
685.044	2848.72
685.234	2858.96
685.424	2897.88
685.614	2899.92
685.804	2957.27
685.994	2848.72
686.184	2901.97
686.374	2975.7
686.564	2770.9
686.753	2830.29
686.943	2723.8
687.133	2797.53
687.323	2717.65
687.513	2766.81
687.702	2777.05
687.892	2707.41
688.082	2672.6
688.272	2791.38
688.461	2779.09
688.651	2729.94
688.841	2625.5
689.03	2785.24
689.22	2746.33
689.41	2613.21
689.599	2746.33
689.789	2602.97
689.979	2766.81
690.168	2635.74
690.358	2559.96
690.547	2537.43
690.737	2727.89
690.926	2512.86
691.116	2478.04
691.305	2709.46
691.495	2707.41
691.684	2611.16
691.874	2463.71
692.063	2514.91
692.252	2564.06
692.442	2480.09
692.631	2447.32
692.82	2605.02
693.01	2555.86
693.199	2480.09
693.388	2371.55
693.578	2361.31
693.767	2422.75
693.956	2539.48
694.146	2537.43
694.335	2355.16
694.524	2482.14
694.713	2459.61
694.902	2402.27
695.092	2426.84
695.281	2332.64
695.47	2367.45
695.659	2459.61
695.848	2404.32
696.037	2377.69
696.226	2328.54
696.415	2267.1
696.604	2467.8
696.793	2383.84
696.982	2375.64
697.171	2510.81
697.36	2267.1
697.549	2263.01
697.738	2234.33
697.927	2291.68
698.116	2318.3
698.305	2349.02
698.494	2406.36
698.683	2324.44
698.872	2324.44
699.061	2299.87
699.25	2381.79
699.438	2301.92
699.627	2336.73
699.816	2344.92
700.005	2187.23
700.193	2328.54
700.382	2252.77
700.571	2295.77
700.76	2236.38
700.948	2252.77
701.137	2226.14
701.326	2416.6
701.514	2115.55
701.703	2351.07
701.892	2263.01
702.08	2222.05
702.269	2156.51
702.457	2127.84
702.646	2176.99
702.834	2193.37
703.023	2189.28
703.212	2207.71
703.4	2140.13
703.589	2078.69
703.777	2183.13
703.965	2072.54
704.154	2140.13
704.342	2062.3
704.531	2136.03
704.719	2031.58
704.907	2090.98
705.096	2029.54
705.284	2009.06
705.472	2154.46
705.661	2017.25
705.849	2056.16
706.037	2066.4
706.226	2029.54
706.414	2140.13
706.602	2064.35
706.79	2000.87
706.979	1972.19
707.167	2000.87
707.355	1990.63
707.543	1959.91
707.731	1980.39
707.919	2015.2
708.107	2056.16
708.296	1992.67
708.484	2031.58
708.672	1964
708.86	1964
709.048	1908.71
709.236	2004.96
709.424	1873.89
709.612	1841.12
709.8	1906.66
709.988	1949.67
710.176	1908.71
710.364	1914.85
710.551	1869.8
710.739	1867.75
710.927	1925.09
711.115	1794.02
711.303	1884.13
711.491	1818.6
711.679	1718.25
711.866	1968.1
712.054	1857.51
712.242	1861.6
712.43	1814.5
712.617	1820.64
712.805	1873.89
712.993	1796.07
713.181	1697.77
713.368	1851.36
713.556	1806.31
713.744	1820.64
713.931	1800.16
714.119	1794.02
714.306	1869.8
714.494	1773.54
714.682	1748.97
714.869	1619.94
715.057	1746.92
715.244	1703.91
715.432	1763.3
715.619	1742.82
715.807	1656.81
715.994	1695.72
716.182	1660.9
716.369	1693.67
716.556	1683.43
716.744	1726.44
716.931	1619.94
717.119	1769.44
717.306	1697.77
717.493	1615.85
717.681	1730.53
717.868	1693.67
718.055	1609.7
718.242	1570.79
718.43	1550.31
718.617	1640.42
718.804	1662.95
718.991	1669.09
719.179	1546.22
719.366	1619.94
719.553	1574.89
719.74	1556.46
719.927	1591.27
720.114	1615.85
720.301	1515.5
720.488	1505.26
720.676	1433.58
720.863	1603.56
721.05	1447.91
721.237	1458.15
721.424	1445.87
721.611	1468.39
721.798	1386.47
721.985	1505.26
722.172	1437.67
722.358	1589.22
722.545	1484.78
722.732	1447.91
722.919	1576.94
723.106	1394.67
723.293	1421.29
723.48	1351.66
723.667	1454.06
723.853	1425.39
724.04	1386.47
724.227	1423.34
724.414	1396.71
724.6	1429.48
724.787	1392.62
724.974	1421.29
725.161	1427.43
725.347	1458.15
725.534	1318.89
725.72	1406.95
725.907	1454.06
726.094	1398.76
726.28	1472.49
726.467	1329.13
726.653	1300.46
726.84	1355.76
727.027	1384.43
727.213	1320.94
727.4	1368.04
727.586	1376.23
727.773	1191.92
727.959	1212.4
728.145	1226.73
728.332	1357.8
728.518	1294.32
728.705	1409
728.891	1374.19
729.077	1368.04
729.264	1271.79
729.45	1286.12
729.636	1284.08
729.823	1304.56
730.009	1357.8
730.195	1316.84
730.382	1398.76
730.568	1284.08
730.754	1284.08
730.94	1253.36
731.126	1232.88
731.313	1224.69
731.499	1404.91
731.685	1161.2
731.871	1130.48
732.057	1277.93
732.243	1261.55
732.429	1153.01
732.615	1263.6
732.801	1302.51
732.987	1165.29
733.173	1255.4
733.359	1177.58
733.545	1171.44
733.731	1200.11
733.917	1155.05
734.103	1234.93
734.289	1157.1
734.475	1161.2
734.661	1222.64
734.847	1210.35
735.033	1103.86
735.219	1210.35
735.404	1071.09
735.59	1161.2
735.776	1054.7
735.962	1181.68
736.148	1165.29
736.333	1271.79
736.519	1095.66
736.705	1169.39
736.89	1023.98
737.076	1177.58
737.262	1146.86
737.447	1083.38
737.633	1122.29
737.819	1040.37
738.004	1071.09
738.19	948.21
738.375	1036.27
738.561	1148.91
738.747	1107.95
738.932	966.64
739.118	1093.62
739.303	952.31
739.489	1046.51
739.674	1015.79
739.859	1034.22
740.045	1013.74
740.23	968.69
740.416	948.21
740.601	1026.03
740.786	1079.28
740.972	907.25
741.157	997.36
741.342	940.02
741.528	950.26
741.713	966.64
741.898	966.64
742.084	1015.79
742.269	952.31
742.454	1048.56
742.639	1030.13
742.824	983.02
743.01	1034.22
743.195	1013.74
743.38	987.12
743.565	989.17
743.75	923.63
743.935	1021.94
744.12	950.26
744.305	952.31
744.49	870.39
744.675	925.68
744.86	835.57
745.045	915.44
745.23	960.5
745.415	948.21
745.6	907.25
745.785	903.15
745.97	884.72
746.155	933.87
746.34	942.07
746.525	849.91
746.71	923.63
746.895	866.29
747.079	827.38
747.264	833.52
747.449	903.15
747.634	851.96
747.819	792.56
748.003	845.81
748.188	872.43
748.373	899.06
748.557	817.14
748.742	817.14
748.927	745.46
749.111	786.42
749.296	677.88
749.481	786.42
749.665	776.18
749.85	821.24
750.034	780.28
750.219	800.76
750.404	813.04
750.588	776.18
750.773	729.08
750.957	724.98
751.141	714.74
751.326	731.12
751.51	753.65
751.695	712.69
751.879	692.21
752.064	821.24
752.248	763.89
752.432	731.12
752.617	710.65
752.801	641.01
752.985	653.3
753.17	595.96
753.354	630.77
753.538	653.3
753.722	751.6
753.907	673.78
754.091	694.26
754.275	749.56
754.459	591.86
754.643	604.15
754.828	675.83
755.012	688.12
755.196	655.35
755.38	671.73
755.564	600.05
755.748	641.01
755.932	571.38
756.116	759.8
756.3	595.96
756.484	624.63
756.668	573.43
756.852	536.57
757.036	587.77
757.22	542.71
757.404	593.91
757.588	630.77
757.772	526.33
757.956	563.19
758.14	532.47
758.323	514.04
758.507	589.81
758.691	524.28
758.875	579.58
759.059	571.38
759.242	466.94
759.426	604.15
759.61	473.08
759.794	501.75
759.977	514.04
760.161	604.15
760.345	546.81
760.528	598.01
760.712	526.33
760.895	555
761.079	522.23
761.263	528.38
761.446	489.46
761.63	477.18
761.813	565.24
761.997	440.31
762.18	530.42
762.364	464.89
762.547	530.42
762.731	460.79
762.914	499.7
763.098	387.07
763.281	434.17
763.464	567.29
763.648	432.12
763.831	462.84
764.015	456.7
764.198	466.94
764.381	520.18
764.564	477.18
764.748	546.81
764.931	440.31
765.114	399.35
765.297	497.66
765.481	485.37
765.664	442.36
765.847	432.12
766.03	423.93
766.213	485.37
766.397	473.08
766.58	434.17
766.763	522.23
766.946	415.74
767.129	489.46
767.312	366.59
767.495	432.12
767.678	419.83
767.861	395.26
768.044	407.55
768.227	376.83
768.41	436.22
768.593	436.22
768.776	493.56
768.959	411.64
769.142	458.75
769.324	391.16
769.507	432.12
769.69	423.93
769.873	391.16
770.056	489.46
770.239	335.87
770.421	468.98
770.604	368.63
770.787	378.87
770.97	385.02
771.152	415.74
771.335	473.08
771.518	391.16
771.7	385.02
771.883	376.83
772.066	350.2
772.248	385.02
772.431	393.21
772.613	509.94
772.796	391.16
772.978	370.68
773.161	393.21
773.343	399.35
773.526	333.82
773.708	296.96
773.891	376.83
774.073	327.67
774.256	358.39
774.438	514.04
774.621	376.83
774.803	395.26
774.985	321.53
775.168	438.27
775.35	395.26
775.532	321.53
775.715	253.95
775.897	325.63
776.079	385.02
776.261	337.91
776.444	391.16
776.626	303.1
776.808	344.06
776.99	301.05
777.173	346.11
777.355	327.67
777.537	376.83
777.719	342.01
777.901	391.16
778.083	258.04
778.265	331.77
778.447	335.87
778.629	278.52
778.811	372.73
778.993	327.67
779.175	333.82
779.357	331.77
779.539	247.8
779.721	342.01
779.903	333.82
780.085	286.72
780.267	368.63
780.449	335.87
780.631	288.76
780.812	303.1
780.994	346.11
781.176	251.9
781.358	344.06
781.54	243.71
781.721	280.57
781.903	204.8
782.085	268.28
782.267	311.29
782.448	260.09
782.63	249.85
782.812	268.28
782.993	325.63
783.175	387.07
783.357	247.8
783.538	202.75
783.72	192.51
783.901	270.33
784.083	243.71
784.264	243.71
784.446	282.62
784.627	178.17
784.809	301.05
784.99	243.71
785.172	215.04
785.353	227.32
785.535	212.99
785.716	196.61
785.897	212.99
786.079	229.37
786.26	309.24
786.441	235.52
786.623	286.72
786.804	116.73
786.985	135.17
787.167	229.37
787.348	215.04
787.529	223.23
787.71	251.9
787.891	204.8
788.073	108.54
788.254	194.56
788.435	143.36
788.616	180.22
788.797	149.5
788.978	149.5
789.159	233.47
789.34	172.03
789.522	231.42
789.703	172.03
789.884	153.6
790.065	163.84
790.246	212.99
790.427	190.46
790.607	270.33
790.788	192.51
790.969	139.26
791.15	186.37
791.331	202.75
791.512	120.83
791.693	124.93
791.874	204.8
792.054	206.84
792.235	274.43
792.416	190.46
792.597	114.69
792.778	174.08
792.958	165.89
793.139	161.79
793.32	180.22
793.5	129.02
793.681	186.37
793.862	178.17
794.042	206.84
794.223	53.25
794.404	118.78
794.584	178.17
794.765	165.89
794.945	139.26
795.126	88.06
795.306	303.1
795.487	212.99
795.667	141.31
795.848	165.89
796.028	114.69
796.209	247.8
796.389	110.59
796.57	245.76
796.75	129.02
796.93	149.5
797.111	67.58
797.291	122.88
797.471	139.26
797.652	96.25
797.832	2.05
798.012	200.7
798.192	212.99
798.373	151.55
798.553	135.17
798.733	145.41
798.913	124.93
799.093	129.02
799.274	141.31
799.454	198.65
799.634	200.7
799.814	178.17
799.994	67.58
800.174	155.65
800.354	137.21
800.534	114.69
800.714	98.3
800.894	96.25
801.074	59.39
801.254	116.73
801.434	137.21
801.614	104.45
801.794	102.4
801.974	833.52
802.154	96.25
802.334	137.21
802.514	59.39
802.693	133.12
802.873	94.21
803.053	137.21
803.233	75.77
803.413	53.25
803.592	129.02
803.772	114.69
803.952	88.06
804.131	155.65
804.311	100.35
804.491	190.46
804.67	30.72
804.85	112.64
805.03	145.41
805.209	159.74
805.389	122.88
805.568	22.53
805.748	57.34
805.928	108.54
806.107	147.45
806.287	112.64
806.466	116.73
806.646	212.99
806.825	122.88
807.004	83.97
807.184	55.3
807.363	178.17
807.543	129.02
807.722	51.2
807.901	96.25
808.081	112.64
808.26	98.3
808.439	79.87
808.619	59.39
808.798	14.34
808.977	88.06
809.156	83.97
809.336	112.64
809.515	208.89
809.694	14.34
809.873	108.54
810.052	38.91
810.231	65.54
810.411	71.68
810.59	96.25
810.769	59.39
810.948	75.77
811.127	100.35
811.306	100.35
811.485	63.49
811.664	161.79
811.843	102.4
812.022	90.11
812.201	57.34
812.38	83.97
812.559	81.92
812.737	71.68
812.916	40.96
813.095	120.83
813.274	59.39
813.453	98.3
813.632	83.97
813.811	71.68
813.989	26.62
814.168	-10.24
814.347	-24.58
814.526	112.64
814.704	43.01
814.883	57.34
815.062	-40.96
815.24	43.01
815.419	-14.34
815.598	49.15
815.776	-6.14
815.955	63.49
816.133	63.49
816.312	71.68
816.49	59.39
816.669	112.64
816.847	-2.05
817.026	77.82
817.204	67.58
817.383	55.3
817.561	22.53
817.74	45.06
817.918	63.49
818.097	79.87
818.275	32.77
818.453	51.2
818.632	24.58
818.81	30.72
818.988	26.62
819.167	32.77
819.345	71.68
819.523	55.3
819.701	90.11
819.879	69.63
820.058	40.96
820.236	122.88
820.414	61.44
820.592	63.49
820.77	38.91
820.948	73.73
821.127	-2.05
821.305	90.11
821.483	-43.01
821.661	47.1
821.839	16.38
822.017	79.87
822.195	57.34
822.373	65.54
822.551	124.93
822.729	71.68
822.907	59.39
823.085	106.49
823.262	112.64
823.44	57.34
823.618	63.49
823.796	63.49
823.974	-18.43
824.152	43.01
824.329	14.34
824.507	22.53
824.685	49.15
824.863	24.58
825.04	30.72
825.218	51.2
825.396	6.14
825.574	83.97
825.751	65.54
825.929	51.2
826.107	-10.24
826.284	4.1
826.462	77.82
826.639	92.16
826.817	-26.62
826.994	14.34
827.172	32.77
827.349	122.88
827.527	51.2
827.704	-14.34
827.882	57.34
828.059	104.45
828.237	73.73
828.414	6.14
828.591	2.05
828.769	18.43
828.946	-59.39
829.124	14.34
829.301	71.68
829.478	2.05
829.655	86.01
829.833	59.39
830.01	6.14
830.187	55.3
830.364	63.49
830.542	32.77
830.719	22.53
830.896	90.11
831.073	45.06
831.25	63.49
831.427	36.86
831.604	0
831.782	-18.43
831.959	112.64
832.136	-18.43
832.313	22.53
832.49	30.72
832.667	14.34
832.844	-43.01
833.021	53.25
833.198	59.39
833.374	-2.05
833.551	-75.77
833.728	32.77
833.905	47.1
834.082	30.72
834.259	38.91
834.436	83.97
834.612	65.54
834.789	18.43
834.966	6.14
835.143	24.58
835.319	40.96
835.496	-10.24
835.673	-67.58
835.85	71.68
836.026	-2.05
836.203	79.87
836.38	30.72
836.556	32.77
836.733	38.91
836.909	38.91
837.086	-18.43
837.262	-8.19
837.439	-30.72
837.616	18.43
837.792	51.2
837.968	12.29
838.145	26.62
838.321	-10.24
838.498	71.68
838.674	24.58
838.851	8.19
839.027	-18.43
839.203	71.68
839.38	32.77
839.556	0
839.732	16.38
839.909	0
840.085	14.34
840.261	-26.62
840.437	63.49
840.614	-43.01
840.79	73.73
840.966	30.72
841.142	-22.53
841.318	18.43
841.494	79.87
841.671	32.77
841.847	6.14
842.023	-51.2
842.199	14.34
842.375	77.82
842.551	6.14
842.727	-8.19
842.903	12.29
843.079	-10.24
843.255	184.32
843.431	-14.34
843.607	-26.62
843.783	-2.05
843.959	-24.58
844.134	6.14
844.31	98.3
844.486	-14.34
844.662	-14.34
844.838	43.01
845.013	22.53
845.189	40.96
845.365	-22.53
845.541	57.34
845.716	-6.14
845.892	14.34
846.068	-49.15
846.244	-2.05
846.419	63.49
846.595	-2.05
846.77	-14.34
846.946	-10.24
847.122	51.2
847.297	-14.34
847.473	94.21
847.648	-43.01
847.824	65.54
847.999	-4.1
848.175	16.38
848.35	-18.43
848.526	63.49
848.701	26.62
848.876	16.38
849.052	38.91
849.227	38.91
849.403	55.3
849.578	-28.67
849.753	-26.62
849.929	-10.24
850.104	-22.53
850.279	-4.1
850.454	-26.62
850.63	-22.53
850.805	10.24
850.98	-6.14
851.155	40.96
851.33	59.39
851.505	-32.77
851.681	63.49
851.856	-6.14
852.031	6.14
852.206	73.73
852.381	-38.91
852.556	-24.58
852.731	63.49
852.906	22.53
853.081	38.91
853.256	-45.06
853.431	14.34
853.606	71.68
853.781	55.3
853.956	-88.06
854.131	10.24
854.305	28.67
854.48	-51.2
854.655	-73.73
854.83	10.24
855.005	55.3
855.18	-24.58
855.354	-36.86
855.529	55.3
855.704	-75.77
855.879	-65.54
856.053	-28.67
856.228	22.53
856.403	-34.82
856.577	14.34
856.752	-71.68
856.926	24.58
857.101	-8.19
857.276	6.14
857.45	-18.43
857.625	6.14
857.799	36.86
857.974	55.3
858.148	-83.97
858.323	-2.05
858.497	-14.34
858.672	30.72
858.846	0
859.02	14.34
859.195	-30.72
859.369	8.19
859.543	32.77
859.718	-2.05
859.892	63.49
860.066	-2.05
860.241	-38.91
860.415	49.15
860.589	-55.3
860.763	32.77
860.938	-2.05
861.112	-2.05
861.286	22.53
861.46	-10.24
861.634	2.05
861.808	63.49
861.982	63.49
862.157	-55.3
862.331	28.67
862.505	-51.2
862.679	2.05
862.853	-30.72
863.027	22.53
863.201	-10.24
863.375	0
863.549	20.48
863.722	22.53
863.896	57.34
864.07	38.91
864.244	-75.77
864.418	-38.91
864.592	34.82
864.766	-26.62
864.939	-10.24
865.113	-18.43
865.287	47.1
865.461	4.1
865.634	0
865.808	-24.58
865.982	-2.05
866.156	-43.01
866.329	-83.97
866.503	-10.24
866.676	65.54
866.85	59.39
867.024	47.1
867.197	38.91
867.371	2.05
867.544	57.34
867.718	-18.43
867.891	10.24
868.065	6.14
868.238	-18.43
868.412	30.72
868.585	-75.77
868.759	18.43
868.932	28.67
869.105	14.34
869.279	24.58
869.452	-12.29
869.625	-34.82
869.799	-73.73
869.972	-88.06
870.145	-40.96
870.319	59.39
870.492	38.91
870.665	14.34
870.838	-16.38
871.011	-63.49
871.185	34.82
871.358	-104.45
871.531	4.1
871.704	2.05
871.877	-18.43
872.05	38.91
872.223	30.72
872.396	14.34
872.569	-40.96
872.742	-51.2
872.915	20.48
873.088	-8.19
873.261	67.58
873.434	-10.24
873.607	-10.24
873.78	10.24
873.953	-14.34
874.126	32.77
874.299	81.92
874.471	16.38
874.644	6.14
874.817	83.97
874.99	63.49
875.163	43.01
875.335	30.72
875.508	-43.01
875.681	22.53
875.853	34.82
876.026	-34.82
876.199	26.62
876.371	14.34
876.544	-86.01
876.717	-18.43
876.889	-10.24
877.062	-16.38
877.234	-116.73
877.407	4.1
877.579	-57.34
877.752	-26.62
877.924	79.87
878.097	49.15
878.269	-10.24
878.442	-63.49
878.614	57.34
878.786	8.19
878.959	-59.39
879.131	10.24
879.303	-79.87
879.476	-51.2
879.648	59.39
879.82	4.1
879.993	-94.21
880.165	-67.58
880.337	-94.21
880.509	6.14
880.681	-43.01
880.854	-67.58
881.026	22.53
881.198	59.39
881.37	-34.82
881.542	6.14
881.714	16.38
881.886	-18.43
882.058	30.72
882.23	-49.15
882.402	14.34
882.574	-2.05
882.746	-22.53
882.918	-26.62
883.09	-38.91
883.262	71.68
883.434	-6.14
883.606	-67.58
883.778	-40.96
883.95	53.25
884.122	-51.2
884.293	16.38
884.465	-51.2
884.637	-24.58
884.809	-16.38
884.98	10.24
885.152	-34.82
885.324	8.19
885.496	-40.96
885.667	67.58
885.839	-63.49
886.011	47.1
886.182	-2.05
886.354	94.21
886.525	30.72
886.697	30.72
886.869	-120.83
887.04	14.34
887.212	63.49
887.383	26.62
887.555	20.48
887.726	-18.43
887.897	0
888.069	-34.82
888.24	-16.38
888.412	-2.05
888.583	51.2
888.754	-47.1
888.926	-10.24
889.097	-18.43
889.268	-133.12
889.44	-18.43
889.611	-10.24
889.782	-71.68
889.953	-92.16
890.125	14.34
890.296	-49.15
890.467	-43.01
890.638	-43.01
890.809	6.14
890.98	-28.67
891.151	-22.53
891.323	12.29
891.494	-10.24
891.665	-6.14
891.836	4.1
892.007	22.53
892.178	-22.53
892.349	-14.34
892.52	16.38
892.691	-30.72
892.862	38.91
893.032	-106.49
893.203	4.1
893.374	-67.58
893.545	65.54
893.716	14.34
893.887	22.53
894.057	10.24
894.228	-47.1
894.399	22.53
894.57	71.68
894.74	-57.34
894.911	16.38
895.082	-14.34
895.253	-65.54
895.423	24.58
895.594	77.82
895.764	-18.43
895.935	43.01
896.106	-67.58
896.276	36.86
896.447	2.05
896.617	-10.24
896.788	-2.05
896.958	-32.77
897.129	8.19
897.299	-51.2
897.47	59.39
897.64	45.06
897.81	14.34
897.981	14.34
898.151	-51.2
898.322	30.72
898.492	-6.14
898.662	-45.06
898.832	-94.21
899.003	-4.1
899.173	-10.24
899.343	-8.19
899.513	-32.77
