Data from USB4F104151__163__14-32-16-693.txt Node

Date: Thu Mar 13 14:32:16 EDT 2025
User: louis
Spectrometer: USB4F10415
Trigger mode: 4
Integration Time (sec): 2.500000E-2
Scans to average: 1
Electric dark correction enabled: true
Nonlinearity correction enabled: false
Boxcar width: 0
XAxis mode: Wavelengths
Number of Pixels in Spectrum: 3648
>>>>>Begin Spectral Data<<<<<
178.204	-172.03
178.424	-172.03
178.644	-172.03
178.864	-157.69
179.084	-86.01
179.304	-102.4
179.524	-69.63
179.744	-20.48
179.964	81.92
180.184	14.34
180.404	34.82
180.624	12.29
180.844	-16.38
181.064	-4.1
181.283	-26.62
181.503	14.34
181.723	81.92
181.943	-77.82
182.163	167.93
182.383	-14.34
182.602	106.49
182.822	47.1
183.042	90.11
183.262	24.58
183.482	16.38
183.701	40.96
183.921	18.43
184.141	-36.86
184.361	61.44
184.58	8.19
184.8	79.87
185.02	-43.01
185.239	14.34
185.459	4.1
185.679	47.1
185.898	-36.86
186.118	94.21
186.338	90.11
186.557	61.44
186.777	-49.15
186.997	30.72
187.216	45.06
187.436	104.45
187.655	65.53
187.875	102.4
188.095	45.06
188.314	110.59
188.534	69.63
188.753	-4.1
188.973	65.53
189.192	49.15
189.412	-4.1
189.631	96.25
189.851	73.73
190.07	55.3
190.29	-12.29
190.509	61.44
190.729	86.01
190.948	102.4
191.168	161.79
191.387	112.64
191.607	-24.58
191.826	6.14
192.045	-8.19
192.265	30.72
192.484	28.67
192.704	24.58
192.923	-69.63
193.142	34.82
193.362	16.38
193.581	14.34
193.8	69.63
194.02	69.63
194.239	30.72
194.458	65.53
194.678	-4.1
194.897	-8.19
195.116	20.48
195.335	-12.29
195.555	77.82
195.774	135.17
195.993	53.25
196.212	22.53
196.432	14.34
196.651	-51.2
196.87	-36.86
197.089	114.69
197.308	75.77
197.528	61.44
197.747	-34.82
197.966	81.92
198.185	53.25
198.404	53.25
198.623	86.01
198.842	38.91
199.062	94.21
199.281	112.64
199.5	-75.77
199.719	73.73
199.938	14.34
200.157	63.49
200.376	71.68
200.595	40.96
200.814	45.06
201.033	-2.05
201.252	34.82
201.471	75.77
201.69	61.44
201.909	88.06
202.128	-28.67
202.347	63.49
202.566	-45.06
202.785	55.3
203.004	-12.29
203.223	47.1
203.442	61.44
203.661	-12.29
203.879	53.25
204.098	61.44
204.317	-22.53
204.536	12.29
204.755	4.1
204.974	86.01
205.193	57.34
205.411	135.17
205.63	57.34
205.849	69.63
206.068	61.44
206.287	30.72
206.505	108.54
206.724	53.25
206.943	-18.43
207.162	-20.48
207.381	18.43
207.599	30.72
207.818	112.64
208.037	8.19
208.255	28.67
208.474	32.77
208.693	28.67
208.911	57.34
209.13	45.06
209.349	30.72
209.567	77.82
209.786	10.24
210.005	63.49
210.223	28.67
210.442	-4.1
210.661	-22.53
210.879	-4.1
211.098	47.1
211.316	65.53
211.535	110.59
211.753	69.63
211.972	-4.1
212.191	45.06
212.409	86.01
212.628	40.96
212.846	38.91
213.065	79.87
213.283	118.78
213.502	20.48
213.72	38.91
213.938	102.4
214.157	73.73
214.375	151.55
214.594	-0
214.812	28.67
215.031	45.06
215.249	55.3
215.467	30.72
215.686	63.49
215.904	61.44
216.122	20.48
216.341	149.5
216.559	-12.29
216.778	45.06
216.996	83.97
217.214	24.58
217.432	102.4
217.651	12.29
217.869	-4.1
218.087	61.44
218.306	63.49
218.524	77.82
218.742	40.96
218.96	92.16
219.179	-16.38
219.397	-2.05
219.615	73.73
219.833	43.01
220.051	-30.72
220.27	110.59
220.488	43.01
220.706	8.19
220.924	43.01
221.142	14.34
221.36	90.11
221.578	77.82
221.796	-20.48
222.015	102.4
222.233	22.53
222.451	36.86
222.669	-28.67
222.887	28.67
223.105	63.49
223.323	88.06
223.541	12.29
223.759	143.36
223.977	59.39
224.195	55.3
224.413	38.91
224.631	24.58
224.849	12.29
225.067	120.83
225.285	-34.82
225.503	88.06
225.721	-10.24
225.939	32.77
226.157	28.67
226.375	114.69
226.592	-20.48
226.81	36.86
227.028	61.44
227.246	102.4
227.464	2.05
227.682	55.3
227.9	102.4
228.117	30.72
228.335	83.97
228.553	28.67
228.771	45.06
228.989	77.82
229.206	57.34
229.424	88.06
229.642	14.34
229.86	4.1
230.077	88.06
230.295	63.49
230.513	86.01
230.731	63.49
230.948	67.58
231.166	96.25
231.384	69.63
231.601	6.14
231.819	86.01
232.037	69.63
232.254	2.05
232.472	32.77
232.689	90.11
232.907	49.15
233.125	22.53
233.342	81.92
233.56	-4.1
233.777	53.25
233.995	36.86
234.213	51.2
234.43	-18.43
234.648	102.4
234.865	4.1
235.083	86.01
235.3	30.72
235.518	63.49
235.735	145.41
235.953	75.77
236.17	49.15
236.388	53.25
236.605	92.16
236.822	73.73
237.04	63.49
237.257	67.58
237.475	47.1
237.692	43.01
237.909	40.96
238.127	61.44
238.344	79.87
238.562	116.73
238.779	-20.48
238.996	-8.19
239.214	-10.24
239.431	112.64
239.648	32.77
239.865	108.54
240.083	45.06
240.3	-43.01
240.517	-10.24
240.735	-4.1
240.952	49.15
241.169	4.1
241.386	6.14
241.603	-18.43
241.821	22.53
242.038	94.21
242.255	59.39
242.472	-65.54
242.689	45.06
242.907	55.3
243.124	34.82
243.341	22.53
243.558	-4.1
243.775	-12.29
243.992	-36.86
244.209	79.87
244.426	129.02
244.643	57.34
244.86	-18.43
245.078	45.06
245.295	28.67
245.512	34.82
245.729	-6.14
245.946	86.01
246.163	90.11
246.38	69.63
246.597	22.53
246.814	38.91
247.031	-61.44
247.248	28.67
247.464	77.82
247.681	-18.43
247.898	28.67
248.115	36.86
248.332	-26.62
248.549	14.34
248.766	36.86
248.983	47.1
249.2	36.86
249.417	47.1
249.633	-26.62
249.85	69.63
250.067	77.82
250.284	8.19
250.501	-22.53
250.717	110.59
250.934	45.06
251.151	-26.62
251.368	24.58
251.585	92.16
251.801	28.67
252.018	20.48
252.235	45.06
252.451	-6.14
252.668	-38.91
252.885	102.4
253.102	47.1
253.318	28.67
253.535	12.29
253.752	-4.1
253.968	-16.38
254.185	18.43
254.401	12.29
254.618	77.82
254.835	4.1
255.051	86.01
255.268	36.86
255.484	49.15
255.701	53.25
255.917	104.45
256.134	14.34
256.351	14.34
256.567	-24.58
256.784	-16.38
257	-73.73
257.217	94.21
257.433	24.58
257.65	53.25
257.866	36.86
258.082	67.58
258.299	-12.29
258.515	36.86
258.732	4.1
258.948	6.14
259.165	34.82
259.381	24.58
259.597	69.63
259.814	-20.48
260.03	-8.19
260.246	22.53
260.463	102.4
260.679	86.01
260.895	-18.43
261.112	32.77
261.328	43.01
261.544	28.67
261.761	145.41
261.977	-10.24
262.193	-6.14
262.409	20.48
262.626	106.49
262.842	61.44
263.058	86.01
263.274	79.87
263.49	96.25
263.707	4.1
263.923	45.06
264.139	-28.67
264.355	77.82
264.571	65.53
264.787	49.15
265.004	94.21
265.22	-32.77
265.436	-20.48
265.652	12.29
265.868	38.91
266.084	45.06
266.3	55.3
266.516	36.86
266.732	51.2
266.948	118.78
267.164	30.72
267.38	36.86
267.596	12.29
267.812	131.07
268.028	30.72
268.244	-12.29
268.46	4.1
268.676	65.53
268.892	63.49
269.108	-10.24
269.324	45.06
269.54	-28.67
269.756	34.82
269.972	-24.58
270.188	69.63
270.403	-59.39
270.619	4.1
270.835	122.88
271.051	86.01
271.267	-14.34
271.483	45.06
271.698	45.06
271.914	71.68
272.13	114.69
272.346	14.34
272.562	45.06
272.777	112.64
272.993	-36.86
273.209	28.67
273.425	-14.34
273.64	-24.58
273.856	49.15
274.072	45.06
274.287	12.29
274.503	8.19
274.719	49.15
274.934	45.06
275.15	-16.38
275.366	-0
275.581	12.29
275.797	4.1
276.012	77.82
276.228	20.48
276.444	36.86
276.659	57.34
276.875	55.3
277.09	-0
277.306	65.53
277.521	110.59
277.737	30.72
277.952	79.87
278.168	-16.38
278.383	71.68
278.599	-18.43
278.814	65.53
279.03	104.45
279.245	69.63
279.461	26.62
279.676	26.62
279.892	24.58
280.107	-18.43
280.322	49.15
280.538	22.53
280.753	-4.1
280.969	88.06
281.184	118.78
281.399	104.45
281.615	22.53
281.83	-12.29
282.045	4.1
282.26	30.72
282.476	77.82
282.691	47.1
282.906	-16.38
283.122	22.53
283.337	-0
283.552	77.82
283.767	47.1
283.983	61.44
284.198	-22.53
284.413	55.3
284.628	32.77
284.843	-10.24
285.058	-2.05
285.274	24.58
285.489	-12.29
285.704	-2.05
285.919	-10.24
286.134	-24.58
286.349	14.34
286.564	28.67
286.779	137.21
286.995	-0
287.21	16.38
287.425	110.59
287.64	34.82
287.855	86.01
288.07	-61.44
288.285	94.21
288.5	57.34
288.715	61.44
288.93	-0
289.145	34.82
289.36	86.01
289.575	16.38
289.79	165.89
290.004	8.19
290.219	53.25
290.434	6.14
290.649	-45.06
290.864	4.1
291.079	-0
291.294	65.53
291.509	-8.19
291.724	20.48
291.938	47.1
292.153	45.06
292.368	-24.58
292.583	71.68
292.798	45.06
293.012	4.1
293.227	122.88
293.442	-24.58
293.657	133.12
293.871	-36.86
294.086	8.19
294.301	28.67
294.516	77.82
294.73	53.25
294.945	6.14
295.16	-28.67
295.374	61.44
295.589	79.87
295.804	22.53
296.018	86.01
296.233	96.25
296.447	45.06
296.662	28.67
296.877	129.02
297.091	94.21
297.306	26.62
297.52	-0
297.735	110.59
297.949	79.87
298.164	86.01
298.378	45.06
298.593	-8.19
298.807	75.77
299.022	77.82
299.236	122.88
299.451	-51.2
299.665	36.86
299.88	53.25
300.094	28.67
300.309	16.38
300.523	20.48
300.737	100.35
300.952	90.11
301.166	69.63
301.381	40.96
301.595	53.25
301.809	90.11
302.024	-28.67
302.238	-40.96
302.452	96.25
302.667	38.91
302.881	-2.05
303.095	69.63
303.309	67.58
303.524	-4.1
303.738	22.53
303.952	45.06
304.166	73.73
304.381	-18.43
304.595	106.49
304.809	71.68
305.023	49.15
305.237	71.68
305.452	24.58
305.666	63.49
305.88	94.21
306.094	129.02
306.308	22.53
306.522	86.01
306.736	-14.34
306.95	75.77
307.164	40.96
307.379	36.86
307.593	57.34
307.807	28.67
308.021	71.68
308.235	43.01
308.449	-61.44
308.663	36.86
308.877	88.06
309.091	53.25
309.305	8.19
309.519	-45.06
309.733	6.14
309.947	63.49
310.161	22.53
310.374	38.91
310.588	65.53
310.802	53.25
311.016	110.59
311.23	24.58
311.444	-4.1
311.658	-18.43
311.872	59.39
312.085	69.63
312.299	30.72
312.513	86.01
312.727	90.11
312.941	59.39
313.154	-10.24
313.368	53.25
313.582	40.96
313.796	22.53
314.009	28.67
314.223	86.01
314.437	73.73
314.651	-0
314.864	-45.06
315.078	-43.01
315.292	18.43
315.505	-12.29
315.719	47.1
315.933	47.1
316.146	36.86
316.36	4.1
316.573	126.97
316.787	100.35
317.001	-40.96
317.214	45.06
317.428	61.44
317.641	-4.1
317.855	67.58
318.068	94.21
318.282	20.48
318.495	4.1
318.709	53.25
318.922	10.24
319.136	61.44
319.349	100.35
319.563	40.96
319.776	94.21
319.99	8.19
320.203	18.43
320.417	112.64
320.63	75.77
320.843	137.21
321.057	34.82
321.27	-18.43
321.483	90.11
321.697	86.01
321.91	114.69
322.124	38.91
322.337	24.58
322.55	73.73
322.763	30.72
322.977	12.29
323.19	-12.29
323.403	20.48
323.617	4.1
323.83	77.82
324.043	34.82
324.256	40.96
324.469	-12.29
324.683	43.01
324.896	-24.58
325.109	-73.73
325.322	-47.1
325.535	96.25
325.748	69.63
325.962	-36.86
326.175	34.82
326.388	20.48
326.601	116.73
326.814	-47.1
327.027	38.91
327.24	57.34
327.453	-51.2
327.666	112.64
327.879	94.21
328.092	100.35
328.305	86.01
328.518	22.53
328.731	-6.14
328.944	69.63
329.157	69.63
329.37	12.29
329.583	12.29
329.796	102.4
330.009	49.15
330.222	73.73
330.435	96.25
330.648	61.44
330.861	79.87
331.073	-8.19
331.286	77.82
331.499	55.3
331.712	-22.53
331.925	-4.1
332.138	79.87
332.35	71.68
332.563	49.15
332.776	63.49
332.989	22.53
333.202	77.82
333.414	-8.19
333.627	26.62
333.84	38.91
334.053	32.77
334.265	-20.48
334.478	40.96
334.691	24.58
334.903	30.72
335.116	-12.29
335.329	126.97
335.541	63.49
335.754	114.69
335.966	71.68
336.179	32.77
336.392	59.39
336.604	96.25
336.817	4.1
337.029	38.91
337.242	86.01
337.454	30.72
337.667	61.44
337.88	69.63
338.092	47.1
338.305	55.3
338.517	88.06
338.729	30.72
338.942	69.63
339.154	47.1
339.367	32.77
339.579	61.44
339.792	-16.38
340.004	169.98
340.217	83.97
340.429	47.1
340.641	112.64
340.854	32.77
341.066	28.67
341.278	51.2
341.491	53.25
341.703	69.63
341.915	116.73
342.128	102.4
342.34	4.1
342.552	12.29
342.764	57.34
342.977	59.39
343.189	24.58
343.401	53.25
343.613	32.77
343.826	38.91
344.038	-28.67
344.25	-18.43
344.462	94.21
344.674	45.06
344.886	69.63
345.099	77.82
345.311	4.1
345.523	61.44
345.735	-12.29
345.947	20.48
346.159	88.06
346.371	-10.24
346.583	-18.43
346.795	110.59
347.007	-28.67
347.219	40.96
347.431	-32.77
347.643	77.82
347.855	-20.48
348.067	135.17
348.279	38.91
348.491	57.34
348.703	94.21
348.915	-61.44
349.127	22.53
349.339	-28.67
349.551	-2.05
349.763	36.86
349.975	49.15
350.187	75.77
350.399	71.68
350.61	49.15
350.822	86.01
351.034	-4.1
351.246	34.82
351.458	71.68
351.669	20.48
351.881	53.25
352.093	106.49
352.305	86.01
352.517	53.25
352.728	90.11
352.94	75.77
353.152	49.15
353.363	24.58
353.575	69.63
353.787	88.06
353.999	-8.19
354.21	57.34
354.422	102.4
354.633	34.82
354.845	22.53
355.057	22.53
355.268	40.96
355.48	38.91
355.692	28.67
355.903	94.21
356.115	-32.77
356.326	-88.06
356.538	151.55
356.749	-0
356.961	69.63
357.172	-2.05
357.384	30.72
357.595	167.93
357.807	73.73
358.018	38.91
358.23	65.53
358.441	65.53
358.653	104.45
358.864	28.67
359.075	12.29
359.287	-14.34
359.498	108.54
359.709	14.34
359.921	110.59
360.132	75.77
360.344	8.19
360.555	38.91
360.766	24.58
360.977	18.43
361.189	94.21
361.4	40.96
361.611	55.3
361.823	61.44
362.034	14.34
362.245	30.72
362.456	98.3
362.667	8.19
362.879	83.97
363.09	53.25
363.301	116.73
363.512	30.72
363.723	-16.38
363.935	114.69
364.146	38.91
364.357	-16.38
364.568	102.4
364.779	36.86
364.99	53.25
365.201	36.86
365.412	63.49
365.623	14.34
365.834	6.14
366.045	79.87
366.256	-10.24
366.467	110.59
366.678	65.53
366.889	90.11
367.1	69.63
367.311	-10.24
367.522	-8.19
367.733	53.25
367.944	77.82
368.155	24.58
368.366	110.59
368.577	118.78
368.788	122.88
368.999	38.91
369.209	22.53
369.42	169.98
369.631	94.21
369.842	55.3
370.053	36.86
370.264	75.77
370.474	-32.77
370.685	45.06
370.896	135.17
371.107	90.11
371.317	77.82
371.528	79.87
371.739	71.68
371.95	6.14
372.16	69.63
372.371	61.44
372.582	79.87
372.792	126.97
373.003	83.97
373.214	32.77
373.424	118.78
373.635	32.77
373.846	73.73
374.056	32.77
374.267	6.14
374.477	16.38
374.688	53.25
374.898	100.35
375.109	36.86
375.319	65.53
375.53	112.64
375.74	69.63
375.951	12.29
376.161	40.96
376.372	176.13
376.582	106.49
376.793	83.97
377.003	61.44
377.214	12.29
377.424	71.68
377.635	20.48
377.845	-10.24
378.055	55.3
378.266	-53.25
378.476	57.34
378.686	79.87
378.897	12.29
379.107	135.17
379.317	61.44
379.528	-16.38
379.738	167.93
379.948	-12.29
380.158	40.96
380.369	36.86
380.579	137.21
380.789	79.87
380.999	63.49
381.21	28.67
381.42	106.49
381.63	6.14
381.84	65.53
382.05	98.3
382.261	88.06
382.471	88.06
382.681	36.86
382.891	63.49
383.101	28.67
383.311	12.29
383.521	77.82
383.731	28.67
383.941	102.4
384.151	102.4
384.361	88.06
384.571	51.2
384.781	47.1
384.991	143.36
385.201	126.97
385.411	36.86
385.621	100.35
385.831	65.53
386.041	71.68
386.251	47.1
386.461	47.1
386.671	10.24
386.881	104.45
387.091	43.01
387.301	110.59
387.511	38.91
387.72	151.55
387.93	112.64
388.14	20.48
388.35	28.67
388.56	94.21
388.769	81.92
388.979	45.06
389.189	6.14
389.399	45.06
389.609	141.31
389.818	45.06
390.028	77.82
390.238	65.53
390.447	55.3
390.657	4.1
390.867	61.44
391.076	102.4
391.286	96.25
391.496	112.64
391.705	126.97
391.915	63.49
392.125	73.73
392.334	32.77
392.544	118.78
392.753	34.82
392.963	40.96
393.172	53.25
393.382	108.54
393.591	77.82
393.801	47.1
394.01	169.98
394.22	137.21
394.429	57.34
394.639	75.77
394.848	96.25
395.058	112.64
395.267	90.11
395.477	63.49
395.686	63.49
395.895	139.26
396.105	186.37
396.314	32.77
396.524	88.06
396.733	61.44
396.942	96.25
397.152	118.78
397.361	71.68
397.57	88.06
397.78	71.68
397.989	114.69
398.198	167.93
398.407	22.53
398.617	77.82
398.826	143.36
399.035	55.3
399.244	122.88
399.453	112.64
399.663	96.25
399.872	180.22
400.081	63.49
400.29	114.69
400.499	53.25
400.708	186.37
400.917	122.88
401.127	100.35
401.336	28.67
401.545	147.45
401.754	81.92
401.963	135.17
402.172	151.55
402.381	88.06
402.59	69.63
402.799	71.68
403.008	90.11
403.217	126.97
403.426	98.3
403.635	96.25
403.844	139.26
404.053	139.26
404.262	69.63
404.471	147.45
404.68	174.08
404.888	96.25
405.097	102.4
405.306	114.69
405.515	112.64
405.724	53.25
405.933	210.94
406.142	167.93
406.35	176.13
406.559	208.89
406.768	86.01
406.977	176.13
407.185	159.74
407.394	198.65
407.603	69.63
407.812	196.6
408.02	192.51
408.229	169.98
408.438	204.8
408.646	227.32
408.855	208.89
409.064	178.17
409.272	243.71
409.481	274.43
409.69	210.94
409.898	161.79
410.107	215.04
410.315	243.71
410.524	217.08
410.733	303.1
410.941	303.1
411.15	317.44
411.358	335.87
411.567	380.92
411.775	364.54
411.984	339.96
412.192	335.87
412.401	294.91
412.609	450.55
412.818	407.55
413.026	415.74
413.234	423.93
413.443	405.5
413.651	446.46
413.86	419.83
414.068	524.28
414.276	462.84
414.485	477.18
414.693	507.9
414.901	511.99
415.11	487.42
415.318	552.95
415.526	579.58
415.734	659.45
415.943	694.26
416.151	667.64
416.359	634.87
416.567	759.8
416.776	806.9
416.984	704.5
417.192	825.33
417.4	761.84
417.608	839.67
417.817	862.19
418.025	921.59
418.233	1048.56
418.441	964.59
418.649	974.83
418.857	1066.99
419.065	1105.9
419.273	995.31
419.481	1103.86
419.689	1216.49
419.897	1130.48
420.105	1161.2
420.313	1298.41
420.521	1298.41
420.729	1275.88
420.937	1366
421.145	1376.23
421.353	1466.35
421.561	1564.65
421.769	1585.13
421.977	1638.37
422.185	1658.85
422.393	1693.67
422.601	1945.57
422.809	1810.4
423.017	1855.46
423.224	1869.8
423.432	1859.56
423.64	1957.86
423.848	2070.5
424.056	2215.9
424.263	2205.66
424.471	2220
424.679	2408.41
424.887	2553.82
425.094	2486.23
425.302	2572.25
425.51	2588.63
425.718	2588.63
425.925	2768.85
426.133	2740.18
426.341	3074
426.548	3086.29
426.756	3049.43
426.964	3125.2
427.171	3383.24
427.379	3416.01
427.586	3512.27
427.794	3649.48
428.001	3858.37
428.209	3952.58
428.417	3862.47
428.624	4165.57
428.832	4114.37
429.039	4163.52
429.247	4028.35
429.454	4435.9
429.662	4849.59
429.869	4335.55
430.076	4691.9
430.284	4667.32
430.491	4894.65
430.699	5160.88
430.906	5210.03
431.114	5253.04
431.321	5402.54
431.528	5463.98
431.736	5631.91
431.943	6229.92
432.15	5914.53
432.358	5896.1
432.565	6244.26
432.772	6240.16
432.979	6490.01
433.187	6637.47
433.394	6750.11
433.601	7165.84
433.808	7319.44
434.016	7186.32
434.223	7485.33
434.43	7823.24
434.637	7690.12
434.844	8296.32
435.052	8355.71
435.259	8335.23
435.466	8525.69
435.673	8288.13
435.88	8738.68
436.087	9420.66
436.294	9185.14
436.501	9142.13
436.708	9238.39
436.915	9637.74
437.122	9942.89
437.329	9828.2
437.537	10207.08
437.743	10368.87
437.95	10444.64
438.157	10813.27
438.364	11409.23
438.571	11204.44
438.778	11206.48
438.985	12222.28
439.192	11751.24
439.399	12142.41
439.606	12062.54
439.813	12670.78
440.02	13082.42
440.227	12894.01
440.433	12865.34
440.64	13473.59
440.847	13346.61
441.054	13244.21
441.261	14438.18
441.467	14266.15
441.674	14528.29
441.881	15306.52
442.088	15189.78
442.294	14915.36
442.501	15152.92
442.708	15542.03
442.914	16185.1
443.121	16865.02
443.328	16449.28
443.534	17542.9
443.741	16897.79
443.948	16879.36
444.154	18151.15
444.361	17784.56
444.568	18200.3
444.774	18046.7
444.981	18253.55
445.187	18853.6
445.394	19867.34
445.6	19508.95
445.807	21378.75
446.013	20217.55
446.22	20524.74
446.426	21470.9
446.633	21853.87
446.839	22410.92
447.046	21536.44
447.252	22795.94
447.459	22646.44
447.665	22513.32
447.871	23670.42
448.078	24456.84
448.284	23432.86
448.491	24104.59
448.697	24805
448.903	25341.57
449.11	25624.18
449.316	25060.99
449.522	25396.86
449.728	26134.13
449.935	26316.4
450.141	26521.2
450.347	26992.23
450.553	26013.3
450.76	26855.01
450.966	27403.87
451.172	27186.79
451.378	27932.25
451.584	27049.57
451.791	28053.08
451.997	27926.1
452.203	28180.05
452.409	28603.98
452.615	28077.65
452.821	27059.81
453.027	26777.19
453.233	28290.64
453.44	26947.17
453.646	26941.03
453.852	27324
454.058	27719.26
454.264	26513
454.47	27618.91
454.676	26566.25
454.882	27549.28
455.088	25386.62
455.294	25534.07
455.5	26015.35
455.705	26035.83
455.911	25183.87
456.117	24594.06
456.323	24612.49
456.529	23213.73
456.735	24354.44
456.941	23457.43
457.147	23262.88
457.352	22429.35
457.558	22238.89
457.764	22384.3
457.97	21812.92
458.176	21575.35
458.381	21477.05
458.587	20227.79
458.793	20389.58
458.999	19166.94
459.204	20465.35
459.41	20170.44
459.616	18810.59
459.821	18618.08
460.027	18659.04
460.233	18444.01
460.438	17139.45
460.644	17616.63
460.85	16785.15
461.055	16279.3
461.261	16348.93
461.466	15052.57
461.672	14798.62
461.878	15826.7
462.083	14876.44
462.289	14466.85
462.494	14423.84
462.7	13762.35
462.905	13344.56
463.111	13831.98
463.316	13762.35
463.522	13524.79
463.727	13383.48
463.932	13516.59
464.138	13043.51
464.343	13530.93
464.549	12988.22
464.754	13383.48
464.959	13463.35
465.165	13127.48
465.37	12529.47
465.575	12078.92
465.781	12713.79
465.986	12726.08
466.191	12244.81
466.397	12140.36
466.602	11564.88
466.807	11874.12
467.012	11757.39
467.218	11693.9
467.423	11736.91
467.628	11874.12
467.833	12199.75
468.038	12013.38
468.244	11433.81
468.449	12037.96
468.654	11657.04
468.859	11370.32
469.064	11390.8
469.269	10958.68
469.474	10932.06
469.679	11143
469.885	10850.14
470.09	10864.47
470.295	11048.79
470.5	10743.64
470.705	10825.56
470.91	10297.19
471.115	10596.19
471.32	10608.48
471.525	10688.35
471.73	10098.53
471.935	10352.48
472.139	9998.18
472.344	9881.45
472.549	9949.03
472.754	9637.74
472.959	9518.96
473.164	9494.38
473.369	9412.46
473.574	9705.32
473.778	9748.33
473.983	9185.14
474.188	9287.54
474.393	9097.08
474.598	8916.86
474.802	8959.86
475.007	8886.14
475.212	9195.38
475.417	8609.66
475.621	8695.68
475.826	8458.11
476.031	8499.07
476.235	8130.44
476.44	8408.96
476.645	8327.04
476.849	8261.51
477.054	8222.59
477.259	8062.85
477.463	8109.96
477.668	7739.27
477.872	7974.79
478.077	7870.34
478.282	7729.03
478.486	7747.47
478.691	7407.5
478.895	7622.54
479.1	7454.61
479.304	7419.79
479.509	7434.13
479.713	7382.93
479.918	7188.37
480.122	7143.31
480.326	7237.52
480.531	7223.19
480.735	7075.73
480.94	7122.84
481.144	7423.89
481.348	6930.33
481.553	7059.35
481.757	6952.85
481.961	6954.9
482.166	7002.01
482.37	7180.18
482.574	6840.22
482.778	6807.45
482.983	7010.2
483.187	6979.48
483.391	6911.89
483.595	6836.12
483.8	6772.63
484.004	6944.66
484.208	7026.58
484.412	6926.23
484.616	6944.66
484.821	6963.09
485.025	6815.64
485.229	6829.98
485.433	6836.12
485.637	6889.37
485.841	6870.94
486.045	7024.53
486.249	6926.23
486.453	6977.43
486.657	6956.95
486.861	6778.78
487.065	6758.3
487.269	6752.15
487.473	6674.33
487.677	6774.68
487.881	7067.54
488.085	6750.11
488.289	6907.8
488.493	6944.66
488.697	7094.16
488.901	6870.94
489.105	6868.89
489.309	6842.26
489.512	7085.97
489.716	6967.19
489.92	7057.3
490.124	7126.93
490.328	7188.37
490.531	6920.09
490.735	6979.48
490.939	6920.09
491.143	7055.25
491.346	7020.44
491.55	7208.85
491.754	7202.71
491.958	7237.52
492.161	7178.13
492.365	7139.22
492.569	7141.27
492.772	7227.28
492.976	7368.59
493.18	7202.71
493.383	7301.01
493.587	7305.1
493.79	7491.47
493.994	7286.67
494.197	7489.42
494.401	7640.97
494.605	7487.37
494.808	7733.13
495.012	7614.35
495.215	7616.4
495.419	7919.5
495.622	7608.2
495.825	7704.46
496.029	7825.29
496.232	7839.62
496.436	8101.76
496.639	8050.57
496.843	8023.94
497.046	8195.97
497.249	8210.31
497.453	8376.19
497.656	8509.31
497.859	8439.68
498.063	8531.84
498.266	8720.25
498.469	8583.04
498.673	8796.03
498.876	8779.64
499.079	8851.32
499.282	8892.28
499.485	9056.12
499.689	9297.78
499.892	9353.07
500.095	9238.39
500.298	9535.34
500.501	9482.1
500.705	9637.74
500.908	9781.1
501.111	9932.65
501.314	9983.85
501.517	10004.33
501.72	10063.72
501.923	10196.84
502.126	10274.66
502.329	10686.3
502.532	10657.63
502.735	10653.53
502.938	11034.46
503.141	10792.8
503.344	11255.64
503.547	10991.45
503.75	11147.09
503.953	11458.39
504.156	11341.65
504.359	11571.02
504.562	11536.21
504.765	11743.05
504.968	11947.85
505.17	11865.93
505.373	12250.95
505.576	11962.19
505.779	12429.12
505.982	12445.51
506.185	12562.24
506.387	12652.35
506.59	13008.7
506.793	13201.21
506.996	12922.68
507.198	13270.84
507.401	13207.35
507.604	13549.36
507.807	13760.3
508.009	14004.01
508.212	14186.28
508.415	14083.88
508.617	14178.09
508.82	14321.45
509.022	14128.94
509.225	14573.35
509.428	14806.81
509.63	14704.42
509.833	15046.43
510.035	15140.63
510.238	15013.66
510.44	15398.68
510.643	15609.62
510.845	15746.83
511.048	15763.22
511.25	15892.24
511.453	15699.73
511.655	16553.73
511.858	16404.23
512.06	16420.61
512.262	16584.45
512.465	16498.44
512.667	16967.42
512.87	17043.2
513.072	17229.56
513.274	17559.28
513.477	17706.74
513.679	17846
513.881	17800.94
514.084	18204.39
514.286	18079.47
514.488	18259.69
514.69	18738.91
514.893	18534.12
515.095	18581.22
515.297	19125.98
515.499	18818.78
515.701	19320.54
515.904	19465.94
516.106	19783.38
516.308	20004.56
516.51	20061.9
516.712	20149.96
516.914	20213.45
517.116	20510.41
517.318	20479.69
517.52	20397.77
517.722	20784.83
517.925	21114.56
518.127	21036.73
518.329	21399.23
518.531	21114.56
518.733	21698.23
518.935	21737.14
519.136	21620.41
519.338	22154.93
519.54	22050.48
519.742	22347.43
519.944	22286
520.146	22656.68
520.348	22884
520.55	22865.57
520.752	22822.56
520.954	23422.62
521.155	23154.33
521.357	23346.84
521.559	23711.38
521.761	23971.47
521.963	23635.61
522.164	23565.98
522.366	23881.36
522.568	24131.22
522.77	24188.56
522.971	24698.5
523.173	24198.8
523.375	24368.78
523.576	24383.12
523.778	24483.47
523.98	24931.97
524.181	24954.5
524.383	25073.28
524.584	25425.53
524.786	25489.02
524.988	24940.16
525.189	25591.42
525.391	25376.38
525.592	25685.62
525.794	25708.15
525.995	25638.52
526.197	25378.43
526.398	25835.13
526.6	25788.02
526.801	25994.87
527.003	25886.32
527.204	25634.42
527.406	26136.18
527.607	25804.41
527.808	25988.72
528.01	25806.45
528.211	25929.33
528.412	26562.15
528.614	26193.52
528.815	26338.93
529.016	26789.48
529.218	26015.35
529.419	26379.89
529.62	26232.43
529.822	25974.39
530.023	26123.89
530.224	26154.61
530.425	26316.4
530.626	25863.8
530.828	26203.76
531.029	26457.71
531.23	26039.92
531.431	25839.22
531.632	26443.37
531.833	26044.02
532.035	25976.44
532.236	26019.44
532.437	26568.3
532.638	25781.88
532.839	26099.31
533.04	26050.16
533.241	25712.25
533.442	26263.15
533.643	26027.63
533.844	25996.92
534.045	25988.72
534.246	25663.1
534.447	26175.09
534.648	25925.24
534.849	25800.31
535.05	25677.43
535.251	25607.8
535.451	25974.39
535.652	25982.58
535.853	25640.57
536.054	26019.44
536.255	25720.44
536.456	25605.75
536.657	25890.42
536.857	25589.37
537.058	25167.49
537.259	25712.25
537.46	25603.71
537.66	25349.76
537.861	25763.45
538.062	25431.68
538.263	25751.16
538.463	25278.08
538.664	25521.79
538.865	25570.94
539.065	25583.23
539.266	25206.4
539.466	25728.63
539.667	25214.59
539.868	25425.53
540.068	25312.89
540.269	25273.98
540.469	25450.11
540.67	25202.3
540.87	25142.91
541.071	25304.7
541.271	25276.03
541.472	25083.52
541.672	25247.36
541.873	24886.92
542.073	24741.51
542.274	25376.38
542.474	24829.57
542.675	24901.25
542.875	25478.78
543.075	24987.27
543.276	24780.42
543.476	25355.9
543.676	24927.88
543.877	24895.11
544.077	25140.86
544.277	25001.6
544.478	24956.55
544.678	25228.93
544.878	24794.76
545.078	25005.7
545.279	24876.68
545.479	24827.53
545.679	24891.01
545.879	24923.78
546.079	24751.75
546.28	24768.13
546.48	24782.47
546.68	24888.96
546.88	24819.33
547.08	24934.02
547.28	25060.99
547.48	24544.91
547.68	24835.72
547.88	24731.27
548.081	25112.19
548.281	24643.21
548.481	24534.67
548.681	25120.38
548.881	24714.89
549.081	24870.53
549.28	24864.39
549.48	24956.55
549.68	24835.72
549.88	25214.59
550.08	24925.83
550.28	24850.05
550.48	24661.64
550.68	25259.65
550.88	24911.49
551.08	24895.11
551.279	25230.97
551.479	24542.86
551.679	24821.38
551.879	24757.89
552.079	25259.65
552.278	24942.21
552.478	25196.16
552.678	24915.59
552.878	24985.22
553.077	24729.22
553.277	24573.58
553.477	25034.37
553.676	25200.26
553.876	25122.43
554.076	24665.74
554.275	24917.64
554.475	24759.94
554.674	24866.44
554.874	25069.19
555.074	24882.82
555.273	25253.5
555.473	25196.16
555.672	24839.81
555.872	24870.53
556.071	24911.49
556.271	25198.21
556.47	25034.37
556.67	24575.62
556.869	24837.76
557.068	24983.17
557.268	24905.35
557.467	25011.84
557.667	25075.33
557.866	25120.38
558.065	25034.37
558.265	24784.52
558.464	25151.1
558.663	24985.22
558.863	24839.81
559.062	25235.07
559.261	24946.31
559.461	25120.38
559.66	24897.16
559.859	25276.03
560.058	24786.57
560.258	24989.31
560.457	24858.24
560.656	25312.89
560.855	25069.19
561.054	25132.67
561.253	24868.48
561.453	24968.83
561.652	25292.41
561.851	25376.38
562.05	25112.19
562.249	24675.98
562.448	25198.21
562.647	24886.92
562.846	24833.67
563.045	24743.56
563.244	24446.6
563.443	24977.03
563.642	24452.75
563.841	24950.4
564.04	24780.42
564.239	24786.57
564.438	24624.78
564.637	24630.92
564.836	24729.22
565.035	24462.99
565.234	24749.7
565.432	24774.28
565.631	24534.67
565.83	24651.4
566.029	24575.62
566.228	24663.69
566.427	24686.22
566.625	24424.08
566.824	24344.2
567.023	24805
567.222	24215.18
567.42	24481.42
567.619	24630.92
567.818	24301.2
568.016	24317.58
568.215	24274.57
568.414	24084.11
568.612	24213.13
568.811	24047.25
569.01	23926.42
569.208	23877.27
569.407	23991.95
569.605	23828.12
569.804	24206.99
570.002	23778.97
570.201	23920.27
570.4	23572.12
570.598	23686.81
570.797	23484.06
570.995	23778.97
571.193	23492.25
571.392	23686.81
571.59	23484.06
571.789	23412.38
571.987	23236.25
572.186	23572.12
572.384	23006.88
572.582	23375.52
572.781	23367.32
572.979	23064.22
573.177	23053.98
573.376	23260.83
573.574	23197.34
573.772	23162.53
573.971	22963.87
574.169	23047.84
574.367	22746.79
574.565	22818.47
574.763	22902.43
574.962	22544.04
575.16	22521.51
575.358	22695.59
575.556	22402.73
575.754	22605.48
575.952	22122.16
576.151	22367.91
576.349	21812.92
576.547	22290.09
576.745	22417.07
576.943	22138.54
577.141	21960.37
577.339	22073.01
577.537	22017.71
577.735	22013.62
577.933	21853.87
578.131	21956.27
578.329	21839.54
578.527	21632.69
578.725	21622.45
578.923	21712.56
579.121	21495.48
579.319	21417.66
579.516	21345.98
579.714	21579.45
579.912	21444.28
580.11	21139.13
580.308	21270.2
580.506	21147.33
580.704	20872.9
580.901	21214.91
581.099	21282.49
581.297	21014.21
581.495	21132.99
581.692	20844.23
581.89	20870.85
582.088	20756.16
582.285	20778.69
582.483	20680.39
582.681	20772.55
582.878	20469.45
583.076	20762.31
583.274	20987.58
583.471	20561.61
583.669	20410.06
583.866	20289.23
584.064	20635.33
584.262	20256.46
584.459	20532.93
584.657	19924.69
584.854	20502.22
585.052	19865.3
585.249	20254.41
585.447	20004.56
585.644	19873.49
585.841	20088.53
586.039	19992.27
586.236	19967.7
586.434	19906.26
586.631	19500.76
586.828	19875.54
587.026	19832.53
587.223	19715.8
587.42	19689.17
587.618	19766.99
587.815	19584.73
588.012	19343.06
588.21	19343.06
588.407	19496.66
588.604	19255
588.801	19224.28
588.999	19158.75
589.196	19216.09
589.393	19201.75
589.59	19128.03
589.787	19003.1
589.984	18884.32
590.182	19052.25
590.379	18945.76
590.576	18900.7
590.773	18636.52
590.97	18824.93
591.167	18736.87
591.364	18581.22
591.561	18671.33
591.758	18474.73
591.955	18601.7
592.152	18480.87
592.349	18376.42
592.546	18605.8
592.743	18435.81
592.94	18228.97
593.137	18511.59
593.334	18491.11
593.531	18089.71
593.727	18464.49
593.924	18276.07
594.121	18110.19
594.318	18280.17
594.515	17940.21
594.712	18210.54
594.908	17964.78
595.105	18165.48
595.302	18024.17
595.499	18157.29
595.696	17960.69
595.892	17897.2
596.089	18202.35
596.286	18013.93
596.482	18020.08
596.679	17897.2
596.876	17929.97
597.072	17661.68
597.269	17854.19
597.466	17618.68
597.662	17839.86
597.859	17938.16
598.055	17790.7
598.252	17401.59
598.448	17616.63
598.645	17800.94
598.841	17458.93
599.038	17723.12
599.234	17563.38
599.431	17352.44
599.627	17471.22
599.824	17618.68
600.02	17317.62
600.217	17524.47
600.413	17573.62
600.609	17583.86
600.806	17696.5
601.002	17694.45
601.198	17397.49
601.395	17520.37
601.591	17559.28
601.787	17444.6
601.984	17209.08
602.18	17667.83
602.376	17463.03
602.572	17360.63
602.769	17438.45
602.965	17321.72
603.161	17514.23
603.357	17575.67
603.553	17377.01
603.75	17334.01
603.946	17323.77
604.142	17247.99
604.338	17288.95
604.534	17397.49
604.73	17264.38
604.926	17258.23
605.122	17317.62
605.318	17291
605.514	17256.18
605.71	17399.54
605.906	17446.65
606.102	17493.75
606.298	17633.01
606.494	17354.49
606.69	17592.05
606.886	17696.5
607.082	17731.31
607.278	17485.56
607.474	17084.16
607.67	17432.31
607.866	17288.95
608.062	17702.64
608.257	17536.76
608.453	17352.44
608.649	17733.36
608.845	17604.34
609.041	17325.82
609.236	17702.64
609.432	17479.41
609.628	17809.14
609.824	17733.36
610.019	17602.29
610.215	17518.32
610.411	17792.75
610.606	17528.56
610.802	17727.22
610.998	17587.96
611.193	17641.2
611.389	17755.89
611.584	17577.72
611.78	17610.48
611.976	17747.7
612.171	17663.73
612.367	17682.16
612.562	17768.18
612.758	17540.85
612.953	17403.64
613.149	17696.5
613.344	17440.5
613.539	18108.14
613.735	17929.97
613.93	18075.37
614.126	17788.66
614.321	17823.47
614.517	17843.95
614.712	17633.01
614.907	17633.01
615.103	17532.66
615.298	17786.61
615.493	18188.01
615.688	17848.05
615.884	17940.21
616.079	17616.63
616.274	17825.52
616.47	17796.85
616.665	17759.98
616.86	17702.64
617.055	17788.66
617.25	17772.27
617.445	17895.15
617.641	17463.03
617.836	17815.28
618.031	17616.63
618.226	17465.08
618.421	17348.34
618.616	17430.26
618.811	17321.72
619.006	17661.68
619.201	17297.14
619.396	17303.29
619.591	17192.7
619.786	17356.54
619.981	17155.83
620.176	17460.98
620.371	17192.7
620.566	17460.98
620.761	16957.18
620.956	17272.57
621.151	16822.02
621.346	16842.49
621.541	16826.11
621.735	16998.14
621.93	16662.27
622.125	16711.42
622.32	16578.31
622.515	16674.56
622.709	16641.79
622.904	16451.33
623.099	16236.3
623.294	16404.23
623.488	16318.22
623.683	16084.75
623.878	16021.26
624.072	15965.96
624.267	15867.66
624.462	16021.26
624.656	15601.43
624.851	15920.91
625.046	15724.3
625.24	15601.43
625.435	15593.23
625.629	15513.36
625.824	15343.38
626.018	15316.76
626.213	14999.32
626.407	15537.94
626.602	15044.38
626.796	15040.28
626.991	15165.21
627.185	15146.78
627.38	15171.35
627.574	14864.16
627.768	14823.2
627.963	14528.29
628.157	14585.63
628.352	14454.56
628.546	14468.9
628.74	14585.63
628.935	14382.88
629.129	14176.04
629.323	14257.96
629.517	13977.39
629.712	13973.29
629.906	13946.67
630.1	13905.71
630.294	13926.19
630.489	13625.14
630.683	13805.36
630.877	13778.73
631.071	13545.27
631.265	13707.05
631.459	13307.7
631.653	13442.87
631.848	13258.55
632.042	13303.6
632.236	13262.65
632.43	13125.43
632.624	13096.76
632.818	13029.18
633.012	13016.89
633.206	13098.81
633.4	12848.96
633.594	12783.42
633.788	12762.94
633.982	12474.18
634.176	12502.85
634.369	12664.64
634.563	12611.39
634.757	12468.03
634.951	12392.26
635.145	12420.93
635.339	12398.4
635.533	12230.47
635.726	12164.93
635.92	12031.82
636.114	11906.89
636.308	11958.09
636.501	11886.41
636.695	11839.31
636.889	11710.29
637.083	11720.53
637.276	11513.68
637.47	11652.94
637.664	11558.74
637.857	11489.1
638.051	11448.15
638.244	11456.34
638.438	11421.52
638.632	11022.17
638.825	11122.52
639.019	10927.96
639.212	10964.82
639.406	10942.3
639.599	10856.28
639.793	10887
639.986	10747.74
640.18	10757.98
640.373	10645.34
640.567	10403.68
640.76	10446.69
640.954	10534.75
641.147	10477.41
641.34	10225.51
641.534	10170.21
641.727	10295.14
641.92	10174.31
642.114	10051.43
642.307	10143.59
642.5	10129.25
642.694	9910.12
642.887	9740.14
643.08	9744.24
643.273	9785.19
643.467	9674.6
643.66	9852.78
643.853	9623.41
644.046	9336.69
644.239	9361.27
644.432	9314.16
644.626	9217.91
644.819	9252.72
645.012	9193.33
645.205	9260.91
645.398	9179
645.591	9115.51
645.784	9068.41
645.977	9056.12
646.17	8982.39
646.363	8785.79
646.556	8820.6
646.749	8679.29
646.942	8683.39
647.135	8707.96
647.328	8691.58
647.521	8656.76
647.714	8527.74
647.907	8466.3
648.099	8435.58
648.292	8341.38
648.485	8368
648.678	8236.93
648.871	8302.47
649.064	7982.98
649.256	8189.83
649.449	8003.46
649.642	7982.98
649.835	8032.13
650.027	7974.79
650.22	7835.53
650.413	7974.79
650.605	7821.19
650.798	7892.87
650.991	7729.03
651.183	7663.5
651.376	7714.7
651.568	7747.47
651.761	7720.84
651.954	7632.78
652.146	7466.89
652.339	7450.51
652.531	7499.66
652.724	7384.98
652.916	7350.16
653.109	7251.86
653.301	7253.91
653.494	7315.34
653.686	7266.19
653.879	7133.08
654.071	7096.21
654.263	7118.74
654.456	7032.72
654.648	7079.83
654.84	6905.75
655.033	6762.39
655.225	7008.15
655.417	6889.37
655.61	6942.61
655.802	6961.05
655.994	6795.16
656.186	6743.96
656.379	6608.8
656.571	6596.51
656.763	6666.14
656.955	6524.83
657.148	6516.64
657.34	6496.16
657.532	6279.07
657.724	6391.71
657.916	6483.87
658.108	6336.42
658.3	6336.42
658.492	6518.68
658.684	6315.94
658.876	6354.85
659.068	6201.25
659.26	6076.32
659.452	6279.07
659.644	6119.33
659.836	5971.88
660.028	5990.31
660.22	5978.02
660.412	6037.41
660.604	5771.18
660.796	5951.4
660.988	5871.53
661.18	5998.5
661.372	5832.61
661.563	6092.71
661.755	5715.88
661.947	5777.32
662.139	5679.02
662.331	5750.7
662.522	5742.5
662.714	5633.96
662.906	5601.19
663.097	5398.45
663.289	5517.23
663.481	5365.68
663.673	5539.76
663.864	5367.73
664.056	5435.31
664.247	5306.29
664.439	5232.56
664.631	5410.73
664.822	5468.08
665.014	5291.95
665.205	5212.08
665.397	5062.58
665.588	5173.17
665.78	5136.31
665.971	5042.1
666.163	5091.25
666.354	5050.29
666.546	4925.36
666.737	4908.98
666.929	4992.95
667.12	5029.81
667.311	4872.12
667.503	4904.89
667.694	4751.29
667.885	4874.17
668.077	4769.72
668.268	4798.39
668.459	4820.92
668.651	4757.43
668.842	4681.66
669.033	4605.88
669.224	4732.86
669.416	4722.62
669.607	4628.41
669.798	4607.93
669.989	4689.85
670.18	4423.61
670.371	4599.74
670.563	4505.53
670.754	4581.31
670.945	4444.09
671.136	4636.6
671.327	4511.68
671.518	4423.61
671.709	4374.46
671.9	4517.82
672.091	4382.65
672.282	4593.59
672.473	4356.03
672.664	4241.34
672.855	4384.7
673.046	4351.93
673.237	4272.06
673.428	4376.51
673.619	4380.61
673.809	4337.6
674	4302.78
674.191	4370.37
674.382	4132.8
674.573	4204.48
674.764	4302.78
674.954	4290.49
675.145	4184
675.336	4239.3
675.527	4167.62
675.717	4140.99
675.908	3911.62
676.099	4175.81
676.289	4108.23
676.48	4097.99
676.671	4014.02
676.861	4239.3
677.052	4233.15
677.243	4046.79
677.433	4022.21
677.624	4001.73
677.814	3973.06
678.005	4030.4
678.195	4108.23
678.386	4050.88
678.576	3993.54
678.767	4001.73
678.957	3903.43
679.148	4184
679.338	3971.01
679.529	4030.4
679.719	3911.62
679.909	4061.12
680.1	3993.54
680.29	3952.58
680.481	3710.92
680.671	4050.88
680.861	3829.7
681.052	3997.64
681.242	3936.2
681.432	3856.33
681.622	3991.49
681.813	3928
682.003	3833.8
682.193	3755.97
682.383	4009.92
682.573	3819.46
682.764	3723.21
682.954	3669.96
683.144	3727.3
683.334	3928
683.524	3778.5
683.714	3739.59
683.904	3784.65
684.094	3745.73
684.284	3829.7
684.474	3790.79
684.664	3815.37
684.854	3747.78
685.044	3674.06
685.234	3700.68
685.424	3624.9
685.614	3751.88
685.804	3727.3
685.994	3733.45
686.184	3645.38
686.374	3780.55
686.564	3743.69
686.753	3733.45
686.943	3647.43
687.133	3735.49
687.323	3571.66
687.513	3706.82
687.702	3846.09
687.892	3653.58
688.082	3553.23
688.272	3665.86
688.461	3592.14
688.651	3592.14
688.841	3565.51
689.03	3747.78
689.22	3616.71
689.41	3512.27
689.599	3557.32
689.789	3461.07
689.979	3454.92
690.168	3485.64
690.358	3485.64
690.547	3461.07
690.737	3452.88
690.926	3356.62
691.116	3370.96
691.305	3489.74
691.495	3305.42
691.684	3428.3
691.874	3270.61
692.063	3364.81
692.252	3280.85
692.442	3217.36
692.631	3248.08
692.82	3420.11
693.01	3286.99
693.199	3299.28
693.388	3211.22
693.578	3184.59
693.767	3332.05
693.956	3215.31
694.146	3170.26
694.335	3198.93
694.524	3166.16
694.713	3311.57
694.902	3243.98
695.092	3215.31
695.281	3182.54
695.47	2981.84
695.659	3176.4
695.848	3074
696.037	3313.61
696.226	3176.4
696.415	3092.43
696.604	3268.56
696.793	3002.32
696.982	3012.56
697.171	3096.53
697.36	3272.65
697.549	3067.86
697.738	3125.2
697.927	3108.82
698.116	3139.54
698.305	3205.07
698.494	2871.25
698.683	3104.72
698.872	3100.62
699.061	3071.95
699.25	2897.88
699.438	2985.94
699.627	2990.03
699.816	2990.03
700.005	2916.31
700.193	3043.28
700.382	3108.82
700.571	2994.13
700.76	3002.32
700.948	2899.92
701.137	2973.65
701.326	2846.68
701.514	2846.68
701.703	2977.75
701.892	2832.34
702.08	2908.12
702.269	2840.53
702.457	2875.35
702.646	2887.64
702.834	2805.72
703.023	2865.11
703.212	2768.85
703.4	2815.96
703.589	2856.92
703.777	2803.67
703.965	2707.41
704.154	2715.61
704.342	2629.59
704.531	2781.14
704.719	2772.95
704.907	2824.15
705.096	2791.38
705.284	2719.7
705.472	2684.89
705.661	2582.49
705.849	2691.03
706.037	2654.17
706.226	2658.26
706.414	2602.97
706.602	2609.11
706.79	2715.61
706.979	2602.97
707.167	2691.03
707.355	2609.11
707.543	2605.02
707.731	2731.99
707.919	2586.58
708.107	2559.96
708.296	2584.54
708.484	2625.5
708.672	2586.58
708.86	2437.08
709.048	2478.04
709.236	2543.58
709.424	2535.39
709.612	2576.34
709.8	2605.02
709.988	2463.71
710.176	2527.19
710.364	2519
710.551	2531.29
710.739	2469.85
710.927	2445.27
711.115	2398.17
711.303	2510.81
711.491	2488.28
711.679	2351.07
711.866	2404.32
712.054	2437.08
712.242	2297.82
712.43	2459.61
712.617	2428.89
712.805	2463.71
712.993	2375.64
713.181	2355.16
713.368	2412.51
713.556	2381.79
713.744	2250.72
713.931	2459.61
714.119	2314.2
714.306	2332.64
714.494	2193.37
714.682	2355.16
714.869	2291.68
715.057	2215.9
715.244	2252.77
715.432	2275.29
715.619	2215.9
715.807	2181.09
715.994	2117.6
716.182	2342.88
716.369	2236.38
716.556	2189.28
716.744	2316.25
716.931	2275.29
717.119	2230.24
717.306	2099.17
717.493	2078.69
717.681	2187.23
717.868	2111.46
718.055	2236.38
718.242	2232.29
718.43	2158.56
718.617	2097.12
718.804	2070.5
718.991	2191.33
719.179	2080.74
719.366	2015.2
719.553	2152.42
719.74	2084.83
719.927	2117.6
720.114	2023.39
720.301	1986.53
720.488	2019.3
720.676	2000.87
720.863	2031.58
721.05	2101.22
721.237	2060.26
721.424	2150.37
721.611	2064.35
721.798	2050.02
721.985	1945.57
722.172	1984.48
722.358	1920.99
722.545	2070.5
722.732	1929.19
722.919	2023.39
723.106	1970.15
723.293	1900.51
723.48	1916.9
723.667	1914.85
723.853	1880.04
724.04	2019.3
724.227	1867.75
724.414	1970.15
724.6	1957.86
724.787	1925.09
724.974	1937.38
725.161	1914.85
725.347	1839.08
725.534	1867.75
725.72	1789.92
725.907	1966.05
726.094	1898.47
726.28	1929.19
726.467	1953.76
726.653	1791.97
726.84	1855.46
727.027	1730.53
727.213	1824.74
727.4	1890.28
727.586	1701.86
727.773	1871.84
727.959	1871.84
728.145	1884.13
728.332	1912.8
728.518	1830.88
728.705	1920.99
728.891	1734.63
729.077	1681.38
729.264	1781.73
729.45	1873.89
729.636	1847.27
729.823	1759.21
730.009	1742.82
730.195	1722.34
730.382	1826.79
730.568	1740.77
730.754	1628.14
730.94	1773.54
731.126	1667.05
731.313	1808.36
731.499	1679.33
731.685	1714.15
731.871	1687.53
732.057	1626.09
732.243	1642.47
732.429	1791.97
732.615	1769.44
732.801	1753.06
732.987	1683.43
733.173	1736.68
733.359	1667.05
733.545	1732.58
733.731	1597.42
733.917	1714.15
734.103	1662.95
734.289	1654.76
734.475	1515.5
734.661	1785.83
734.847	1667.05
735.033	1650.66
735.219	1757.16
735.404	1595.37
735.59	1585.13
735.776	1611.75
735.962	1636.33
736.148	1576.94
736.333	1617.9
736.519	1640.42
736.705	1578.98
736.89	1572.84
737.076	1601.51
737.262	1585.13
737.447	1560.55
737.633	1642.47
737.819	1587.18
738.004	1447.91
738.19	1576.94
738.375	1511.4
738.561	1454.06
738.747	1538.02
738.932	1538.02
739.118	1578.98
739.303	1519.59
739.489	1560.55
739.674	1519.59
739.859	1429.48
740.045	1509.35
740.23	1597.42
740.416	1433.58
740.601	1425.39
740.786	1456.11
740.972	1419.24
741.157	1368.04
741.342	1347.56
741.528	1413.1
741.713	1552.36
741.898	1357.8
742.084	1441.77
742.269	1423.34
742.454	1466.35
742.639	1476.59
742.824	1449.96
743.01	1445.87
743.195	1380.33
743.38	1394.67
743.565	1355.76
743.75	1366
743.935	1363.95
744.12	1411.05
744.305	1265.64
744.49	1302.51
744.675	1333.23
744.86	1400.81
745.045	1282.03
745.23	1363.95
745.415	1359.85
745.6	1331.18
745.785	1228.78
745.97	1398.76
746.155	1249.26
746.34	1308.65
746.525	1159.15
746.71	1294.32
746.895	1232.88
747.079	1255.4
747.264	1282.03
747.449	1265.64
747.634	1247.21
747.819	1183.73
748.003	1275.88
748.188	1255.4
748.373	1243.12
748.557	1177.58
748.742	1183.73
748.927	1200.11
749.111	1226.73
749.296	1093.62
749.481	1277.93
749.665	1007.6
749.85	1071.09
750.034	1161.2
750.219	1234.93
750.404	1157.1
750.588	1052.66
750.773	1030.13
750.957	1021.94
751.141	1095.66
751.326	1101.81
751.51	1060.85
751.695	1101.81
751.879	1087.47
752.064	1116.14
752.248	1064.94
752.432	1126.38
752.617	1062.9
752.801	1073.14
752.985	905.2
753.17	1030.13
753.354	1009.65
753.538	974.83
753.722	937.97
753.907	1040.37
754.091	925.68
754.275	923.63
754.459	923.63
754.643	917.49
754.828	884.72
755.012	913.39
755.196	921.59
755.38	843.76
755.564	1013.74
755.748	917.49
755.932	923.63
756.116	946.16
756.3	880.63
756.484	880.63
756.668	937.97
756.852	876.53
757.036	901.11
757.22	802.8
757.404	835.57
757.588	839.67
757.772	980.98
757.956	794.61
758.14	802.8
758.323	823.28
758.507	786.42
758.691	724.98
758.875	841.72
759.059	921.59
759.242	731.12
759.426	806.9
759.61	778.23
759.794	757.75
759.977	921.59
760.161	886.77
760.345	835.57
760.528	923.63
760.712	782.32
760.895	727.03
761.079	856.05
761.263	661.49
761.446	708.6
761.63	747.51
761.813	765.94
761.997	710.65
762.18	659.45
762.364	688.12
762.547	686.07
762.731	706.55
762.914	708.6
763.098	757.75
763.281	679.93
763.464	679.93
763.648	712.69
763.831	684.02
764.015	694.26
764.198	729.08
764.381	702.45
764.564	659.45
764.748	673.78
764.931	757.75
765.114	661.49
765.297	696.31
765.481	569.34
765.664	708.6
765.847	589.81
766.03	700.41
766.213	585.72
766.397	710.65
766.58	630.77
766.763	737.27
766.946	657.4
767.129	671.73
767.312	587.77
767.495	593.91
767.678	569.34
767.861	675.83
768.044	552.95
768.227	577.53
768.41	555
768.593	589.81
768.776	675.83
768.959	542.71
769.142	630.77
769.324	593.91
769.507	616.44
769.69	548.86
769.873	552.95
770.056	733.17
770.239	622.58
770.421	610.29
770.604	634.87
770.787	540.66
770.97	602.1
771.152	471.03
771.335	575.48
771.518	643.06
771.7	591.86
771.883	651.25
772.066	587.77
772.248	585.72
772.431	555
772.613	595.96
772.796	522.23
772.978	626.68
773.161	548.86
773.343	462.84
773.526	569.34
773.708	479.22
773.891	454.65
774.073	526.33
774.256	372.73
774.438	610.29
774.621	485.37
774.803	546.81
774.985	444.41
775.168	462.84
775.35	473.08
775.532	561.14
775.715	546.81
775.897	552.95
776.079	493.56
776.261	524.28
776.444	495.61
776.626	489.46
776.808	477.18
776.99	380.92
777.173	507.9
777.355	555
777.537	487.42
777.719	487.42
777.901	421.88
778.083	403.45
778.265	421.88
778.447	479.22
778.629	444.41
778.811	399.35
778.993	405.5
779.175	528.38
779.357	497.66
779.539	514.04
779.721	393.21
779.903	413.69
780.085	344.06
780.267	448.51
780.449	342.01
780.631	468.98
780.812	436.22
780.994	397.31
781.176	346.11
781.358	319.48
781.54	405.5
781.721	423.93
781.903	417.79
782.085	434.17
782.267	430.07
782.448	436.22
782.63	417.79
782.812	348.15
782.993	323.58
783.175	389.11
783.357	290.81
783.538	364.54
783.72	315.39
783.901	352.25
784.083	409.59
784.264	307.2
784.446	313.34
784.627	319.48
784.809	342.01
784.99	409.59
785.172	372.73
785.353	268.28
785.535	325.63
785.716	282.62
785.897	321.53
786.079	342.01
786.26	305.15
786.441	307.2
786.623	307.2
786.804	292.86
786.985	317.44
787.167	208.89
787.348	356.35
787.529	258.04
787.71	327.67
787.891	348.15
788.073	241.66
788.254	276.48
788.435	315.39
788.616	352.25
788.797	268.28
788.978	307.2
789.159	225.28
789.34	350.2
789.522	266.24
789.703	204.8
789.884	245.76
790.065	233.47
790.246	323.58
790.427	270.33
790.607	329.72
790.788	305.15
790.969	272.38
791.15	317.44
791.331	253.95
791.512	253.95
791.693	258.04
791.874	219.13
792.054	294.91
792.235	348.15
792.416	231.42
792.597	237.56
792.778	237.56
792.958	258.04
793.139	217.08
793.32	249.85
793.5	225.28
793.681	333.82
793.862	163.84
794.042	225.28
794.223	233.47
794.404	237.56
794.584	96.25
794.765	192.51
794.945	217.08
795.126	325.63
795.306	249.85
795.487	208.89
795.667	174.08
795.848	249.85
796.028	159.74
796.209	217.08
796.389	221.18
796.57	258.04
796.75	126.97
796.93	260.09
797.111	241.66
797.291	210.94
797.471	237.56
797.652	204.8
797.832	208.89
798.012	225.28
798.192	217.08
798.373	135.17
798.553	215.04
798.733	167.93
798.913	159.74
799.093	229.37
799.274	221.18
799.454	212.99
799.634	186.37
799.814	122.88
799.994	223.23
800.174	176.13
800.354	139.26
800.534	200.7
800.714	180.22
800.894	161.79
801.074	129.02
801.254	153.6
801.434	282.62
801.614	159.74
801.794	92.16
801.974	817.14
802.154	174.08
802.334	212.99
802.514	167.93
802.693	153.6
802.873	147.45
803.053	194.56
803.233	172.03
803.413	169.98
803.592	161.79
803.772	131.07
803.952	196.6
804.131	135.17
804.311	94.21
804.491	180.22
804.67	114.69
804.85	122.88
805.03	180.22
805.209	172.03
805.389	90.11
805.568	169.98
805.748	110.59
805.928	227.32
806.107	96.25
806.287	86.01
806.466	126.97
806.646	57.34
806.825	172.03
807.004	34.82
807.184	176.13
807.363	75.77
807.543	192.51
807.722	163.84
807.901	167.93
808.081	131.07
808.26	96.25
808.439	94.21
808.619	163.84
808.798	188.41
808.977	126.97
809.156	131.07
809.336	169.98
809.515	200.7
809.694	126.97
809.873	59.39
810.052	86.01
810.231	151.55
810.411	129.02
810.59	153.6
810.769	96.25
810.948	139.26
811.127	6.14
811.306	75.77
811.485	172.03
811.664	149.5
811.843	102.4
812.022	118.78
812.201	88.06
812.38	110.59
812.559	190.46
812.737	126.97
812.916	38.91
813.095	94.21
813.274	159.74
813.453	114.69
813.632	110.59
813.811	161.79
813.989	90.11
814.168	227.32
814.347	145.41
814.526	94.21
814.704	83.97
814.883	114.69
815.062	47.1
815.24	137.21
815.419	90.11
815.598	157.69
815.776	122.88
815.955	129.02
816.133	51.2
816.312	206.84
816.49	36.86
816.669	135.17
816.847	96.25
817.026	69.63
817.204	104.45
817.383	100.35
817.561	98.3
817.74	112.64
817.918	100.35
818.097	98.3
818.275	98.3
818.453	63.49
818.632	69.63
818.81	118.78
818.988	120.83
819.167	47.1
819.345	73.73
819.523	73.73
819.701	43.01
819.879	126.97
820.058	69.63
820.236	94.21
820.414	-4.1
820.592	69.63
820.77	137.21
820.948	-2.05
821.127	75.77
821.305	106.49
821.483	110.59
821.661	24.58
821.839	43.01
822.017	122.88
822.195	98.3
822.373	61.44
822.551	106.49
822.729	92.16
822.907	32.77
823.085	73.73
823.262	126.97
823.44	71.68
823.618	131.07
823.796	141.31
823.974	53.25
824.152	110.59
824.329	114.69
824.507	94.21
824.685	139.26
824.863	106.49
825.04	57.34
825.218	176.13
825.396	45.06
825.574	112.64
825.751	114.69
825.929	110.59
826.107	49.15
826.284	59.39
826.462	129.02
826.639	86.01
826.817	18.43
826.994	73.73
827.172	49.15
827.349	219.13
827.527	55.3
827.704	63.49
827.882	96.25
828.059	94.21
828.237	69.63
828.414	116.73
828.591	57.34
828.769	77.82
828.946	45.06
829.124	135.17
829.301	55.3
829.478	102.4
829.655	-12.29
829.833	75.77
830.01	86.01
830.187	169.98
830.364	102.4
830.542	53.25
830.719	186.37
830.896	96.25
831.073	45.06
831.25	53.25
831.427	131.07
831.604	77.82
831.782	94.21
831.959	96.25
832.136	-12.29
832.313	28.67
832.49	-20.48
832.667	4.1
832.844	30.72
833.021	122.88
833.198	69.63
833.374	65.53
833.551	92.16
833.728	69.63
833.905	163.84
834.082	45.06
834.259	69.63
834.436	98.3
834.612	45.06
834.789	110.59
834.966	61.44
835.143	61.44
835.319	12.29
835.496	126.97
835.673	38.91
835.85	73.73
836.026	34.82
836.203	53.25
836.38	28.67
836.556	61.44
836.733	-2.05
836.909	114.69
837.086	61.44
837.262	32.77
837.439	40.96
837.616	12.29
837.792	-34.82
837.968	45.06
838.145	-51.2
838.321	69.63
838.498	139.26
838.674	77.82
838.851	45.06
839.027	-36.86
839.203	49.15
839.38	96.25
839.556	10.24
839.732	129.02
839.909	22.53
840.085	61.44
840.261	-16.38
840.437	94.21
840.614	10.24
840.79	12.29
840.966	24.58
841.142	184.32
841.318	-65.54
841.494	71.68
841.671	40.96
841.847	47.1
842.023	34.82
842.199	63.49
842.375	110.59
842.551	-18.43
842.727	-43.01
842.903	73.73
843.079	24.58
843.255	79.87
843.431	69.63
843.607	36.86
843.783	-8.19
843.959	145.41
844.134	86.01
844.31	96.25
844.486	61.44
844.662	6.14
844.838	94.21
845.013	88.06
845.189	94.21
845.365	120.83
845.541	-28.67
845.716	45.06
845.892	45.06
846.068	81.92
846.244	55.3
846.419	40.96
846.595	24.58
846.77	-20.48
846.946	28.67
847.122	143.36
847.297	81.92
847.473	47.1
847.648	-0
847.824	36.86
847.999	-16.38
848.175	-43.01
848.35	86.01
848.526	20.48
848.701	53.25
848.876	36.86
849.052	86.01
849.227	77.82
849.403	53.25
849.578	-12.29
849.753	106.49
849.929	-2.05
850.104	4.1
850.279	20.48
850.454	57.34
850.63	30.72
850.805	131.07
850.98	65.53
851.155	-28.67
851.33	77.82
851.505	26.62
851.681	94.21
851.856	77.82
852.031	4.1
852.206	40.96
852.381	-18.43
852.556	53.25
852.731	-12.29
852.906	-8.19
853.081	79.87
853.256	77.82
853.431	69.63
853.606	12.29
853.781	20.48
853.956	-69.63
854.131	-4.1
854.305	16.38
854.48	18.43
854.655	47.1
854.83	28.67
855.005	32.77
855.18	55.3
855.354	-12.29
855.529	79.87
855.704	45.06
855.879	86.01
856.053	8.19
856.228	55.3
856.403	14.34
856.577	-14.34
856.752	4.1
856.926	28.67
857.101	57.34
857.276	22.53
857.45	28.67
857.625	102.4
857.799	28.67
857.974	61.44
858.148	-92.16
858.323	-2.05
858.497	-53.25
858.672	-28.67
858.846	63.49
859.02	106.49
859.195	-32.77
859.369	81.92
859.543	47.1
859.718	69.63
859.892	12.29
860.066	71.68
860.241	2.05
860.415	36.86
860.589	6.14
860.763	-10.24
860.938	30.72
861.112	106.49
861.286	47.1
861.46	-34.82
861.634	4.1
861.808	96.25
861.982	47.1
862.157	-34.82
862.331	-73.73
862.505	-0
862.679	22.53
862.853	-36.86
863.027	-12.29
863.201	47.1
863.375	-12.29
863.549	-2.05
863.722	55.3
863.896	90.11
864.07	45.06
864.244	22.53
864.418	69.63
864.592	10.24
864.766	36.86
864.939	-8.19
865.113	2.05
865.287	53.25
865.461	45.06
865.634	94.21
865.808	86.01
865.982	40.96
866.156	55.3
866.329	40.96
866.503	36.86
866.676	2.05
866.85	36.86
867.024	55.3
867.197	34.82
867.371	34.82
867.544	-2.05
867.718	-34.82
867.891	20.48
868.065	-45.06
868.238	65.53
868.412	83.97
868.585	-12.29
868.759	-28.67
868.932	51.2
869.105	-12.29
869.279	-55.3
869.452	-16.38
869.625	14.34
869.799	12.29
869.972	-4.1
870.145	18.43
870.319	28.67
870.492	-2.05
870.665	49.15
870.838	24.58
871.011	-8.19
871.185	24.58
871.358	36.86
871.531	16.38
871.704	-2.05
871.877	-73.73
872.05	32.77
872.223	-14.34
872.396	-4.1
872.569	94.21
872.742	32.77
872.915	4.1
873.088	-73.73
873.261	34.82
873.434	61.44
873.607	28.67
873.78	90.11
873.953	-40.96
874.126	55.3
874.299	30.72
874.471	-6.14
874.644	14.34
874.817	18.43
874.99	69.63
875.163	-12.29
875.335	-8.19
875.508	32.77
875.681	124.93
875.853	-53.25
876.026	28.67
876.199	-30.72
876.371	-2.05
876.544	30.72
876.717	-28.67
876.889	-30.72
877.062	88.06
877.234	12.29
877.407	36.86
877.579	-61.44
877.752	53.25
877.924	-20.48
878.097	83.97
878.269	-43.01
878.442	-38.91
878.614	16.38
878.786	40.96
878.959	8.19
879.131	38.91
879.303	-53.25
879.476	36.86
879.648	79.87
879.82	49.15
879.993	-0
880.165	22.53
880.337	53.25
880.509	45.06
880.681	32.77
880.854	-10.24
881.026	22.53
881.198	53.25
881.37	-36.86
881.542	-20.48
881.714	-53.25
881.886	-28.67
882.058	43.01
882.23	96.25
882.402	12.29
882.574	-26.62
882.746	-53.25
882.918	65.53
883.09	28.67
883.262	61.44
883.434	4.1
883.606	-36.86
883.778	43.01
883.95	108.54
884.122	-18.43
884.293	36.86
884.465	53.25
884.637	71.68
884.809	-49.15
884.98	53.25
885.152	14.34
885.324	30.72
885.496	-26.62
885.667	30.72
885.839	-24.58
886.011	88.06
886.182	2.05
886.354	30.72
886.525	-49.15
886.697	81.92
886.869	-40.96
887.04	-12.29
887.212	100.35
887.383	137.21
887.555	63.49
887.726	22.53
887.897	-0
888.069	12.29
888.24	38.91
888.412	14.34
888.583	-12.29
888.754	-26.62
888.926	-0
889.097	-20.48
889.268	-38.91
889.44	20.48
889.611	43.01
889.782	90.11
889.953	-8.19
890.125	106.49
890.296	8.19
890.467	-32.77
890.638	-32.77
890.809	-77.82
890.98	10.24
891.151	12.29
891.323	4.1
891.494	6.14
891.665	-20.48
891.836	18.43
892.007	14.34
892.178	-10.24
892.349	34.82
892.52	-2.05
892.691	-45.06
892.862	40.96
893.032	-12.29
893.203	2.05
893.374	32.77
893.545	14.34
893.716	-45.06
893.887	-0
894.057	-12.29
894.228	47.1
894.399	-45.06
894.57	30.72
894.74	28.67
894.911	32.77
895.082	30.72
895.253	-12.29
895.423	53.25
895.594	53.25
895.764	45.06
895.935	-51.2
896.106	-12.29
896.276	-10.24
896.447	38.91
896.617	-51.2
896.788	88.06
896.958	40.96
897.129	-67.58
897.299	51.2
897.47	40.96
897.64	40.96
897.81	8.19
897.981	34.82
898.151	79.87
898.322	-6.14
898.492	81.92
898.662	-43.01
898.832	4.1
899.003	45.06
899.173	-28.67
899.343	-75.77
899.513	-32.77
