Data from USB4F104151__8__14-28-26-084.txt Node

Date: Thu Mar 13 14:28:26 EDT 2025
User: louis
Spectrometer: USB4F10415
Trigger mode: 4
Integration Time (sec): 2.500000E-2
Scans to average: 1
Electric dark correction enabled: true
Nonlinearity correction enabled: false
Boxcar width: 0
XAxis mode: Wavelengths
Number of Pixels in Spectrum: 3648
>>>>>Begin Spectral Data<<<<<
178.204	-104.28
178.424	-104.28
178.644	-104.28
178.864	-122.71
179.084	-108.37
179.304	-51.03
179.524	47.27
179.744	-8.02
179.964	75.95
180.184	-10.07
180.404	55.47
180.624	-44.88
180.844	-10.07
181.064	-65.36
181.283	-26.45
181.503	6.31
181.723	30.89
181.943	-75.6
182.163	84.14
182.383	-14.17
182.602	51.37
182.822	-48.98
183.042	10.41
183.262	65.71
183.482	-81.75
183.701	-10.07
183.921	0.17
184.141	8.36
184.361	-30.55
184.58	-22.36
184.8	-26.45
185.02	4.27
185.239	98.47
185.459	61.61
185.679	30.89
185.898	-71.51
186.118	104.62
186.338	0.17
186.557	69.8
186.777	43.18
186.997	26.79
187.216	41.13
187.436	102.57
187.655	24.75
187.875	96.43
188.095	26.79
188.314	96.43
188.534	100.52
188.753	63.66
188.973	18.6
189.192	39.08
189.412	51.37
189.631	6.31
189.851	43.18
190.07	73.9
190.29	-55.12
190.509	18.6
190.729	55.47
190.948	16.55
191.168	194.73
191.387	88.23
191.607	41.13
191.826	-100.18
192.045	37.03
192.265	-5.97
192.484	26.79
192.704	-63.32
192.923	16.55
193.142	155.82
193.362	0.17
193.581	43.18
193.8	-34.64
194.02	57.51
194.239	-1.88
194.458	67.75
194.678	71.85
194.897	75.95
195.116	-1.88
195.335	-30.55
195.555	39.08
195.774	-24.4
195.993	-1.88
196.212	57.51
196.432	22.7
196.651	16.55
196.87	24.75
197.089	71.85
197.308	-10.07
197.528	98.47
197.747	26.79
197.966	39.08
198.185	59.56
198.404	18.6
198.623	6.31
198.842	39.08
199.062	22.7
199.281	6.31
199.5	28.84
199.719	104.62
199.938	-36.69
200.157	63.66
200.376	102.57
200.595	112.81
200.814	82.09
201.033	22.7
201.252	51.37
201.471	6.31
201.69	18.6
201.909	-22.36
202.128	104.62
202.347	69.8
202.566	-48.98
202.785	22.7
203.004	57.51
203.223	149.67
203.442	59.56
203.661	88.23
203.879	147.62
204.098	-30.55
204.317	4.27
204.536	-8.02
204.755	24.75
204.974	82.09
205.193	71.85
205.411	-1.88
205.63	88.23
205.849	45.23
206.068	41.13
206.287	28.84
206.505	67.75
206.724	32.94
206.943	16.55
207.162	-18.26
207.381	118.95
207.599	10.41
207.818	28.84
208.037	18.6
208.255	55.47
208.474	100.52
208.693	43.18
208.911	22.7
209.13	2.22
209.349	22.7
209.567	43.18
209.786	63.66
210.005	16.55
210.223	18.6
210.442	-38.74
210.661	30.89
210.879	-32.6
211.098	39.08
211.316	-8.02
211.535	80.04
211.753	10.41
211.972	80.04
212.191	49.32
212.409	-10.07
212.628	41.13
212.846	22.7
213.065	47.27
213.283	39.08
213.502	-18.26
213.72	-10.07
213.938	88.23
214.157	80.04
214.375	-10.07
214.594	112.81
214.812	30.89
215.031	51.37
215.249	6.31
215.467	-16.21
215.686	65.71
215.904	55.47
216.122	14.51
216.341	63.66
216.559	63.66
216.778	82.09
216.996	14.51
217.214	96.43
217.432	-8.02
217.651	-10.07
217.869	26.79
218.087	0.17
218.306	0.17
218.524	16.55
218.742	14.51
218.96	24.75
219.179	51.37
219.397	96.43
219.615	73.9
219.833	43.18
220.051	14.51
220.27	37.03
220.488	51.37
220.706	18.6
220.924	-34.64
221.142	39.08
221.36	24.75
221.578	30.89
221.796	-24.4
222.015	53.42
222.233	28.84
222.451	39.08
222.669	-24.4
222.887	10.41
223.105	4.27
223.323	43.18
223.541	61.61
223.759	-32.6
223.977	30.89
224.195	8.36
224.413	59.56
224.631	123.05
224.849	-10.07
225.067	75.95
225.285	-1.88
225.503	30.89
225.721	-108.37
225.939	59.56
226.157	77.99
226.375	82.09
226.592	26.79
226.81	14.51
227.028	98.47
227.246	80.04
227.464	-53.08
227.682	-24.4
227.9	65.71
228.117	57.51
228.335	-10.07
228.553	80.04
228.771	59.56
228.989	47.27
229.206	73.9
229.424	-42.84
229.642	24.75
229.86	14.51
230.077	39.08
230.295	-1.88
230.513	32.94
230.731	-1.88
230.948	71.85
231.166	14.51
231.384	22.7
231.601	41.13
231.819	71.85
232.037	14.51
232.254	-57.17
232.472	82.09
232.689	63.66
232.907	73.9
233.125	55.47
233.342	-34.64
233.56	16.55
233.777	80.04
233.995	47.27
234.213	106.67
234.43	39.08
234.648	63.66
234.865	-38.74
235.083	84.14
235.3	16.55
235.518	59.56
235.735	94.38
235.953	104.62
236.17	98.47
236.388	-24.4
236.605	47.27
236.822	63.66
237.04	59.56
237.257	14.51
237.475	-59.22
237.692	39.08
237.909	14.51
238.127	41.13
238.344	34.99
238.562	20.65
238.779	-16.21
238.996	24.75
239.214	39.08
239.431	96.43
239.648	6.31
239.865	22.7
240.083	-10.07
240.3	88.23
240.517	-30.55
240.735	-8.02
240.952	30.89
241.169	145.58
241.386	-16.21
241.603	77.99
241.821	-59.22
242.038	59.56
242.255	106.67
242.472	137.38
242.689	96.43
242.907	71.85
243.124	6.31
243.341	51.37
243.558	-57.17
243.775	47.27
243.992	32.94
244.209	104.62
244.426	14.51
244.643	30.89
244.86	-26.45
245.078	28.84
245.295	55.47
245.512	88.23
245.729	-5.97
245.946	108.71
246.163	20.65
246.38	-3.93
246.597	51.37
246.814	55.47
247.031	-1.88
247.248	0.17
247.464	-18.26
247.681	10.41
247.898	16.55
248.115	75.95
248.332	49.32
248.549	94.38
248.766	121
248.983	129.19
249.2	28.84
249.417	80.04
249.633	39.08
249.85	153.77
250.067	39.08
250.284	71.85
250.501	30.89
250.717	-3.93
250.934	6.31
251.151	0.17
251.368	28.84
251.585	80.04
251.801	30.89
252.018	-34.64
252.235	65.71
252.451	-40.79
252.668	26.79
252.885	55.47
253.102	24.75
253.318	26.79
253.535	-28.5
253.752	32.94
253.968	75.95
254.185	-20.31
254.401	20.65
254.618	90.28
254.835	32.94
255.051	92.33
255.268	71.85
255.484	16.55
255.701	-18.26
255.917	34.99
256.134	26.79
256.351	22.7
256.567	-18.26
256.784	12.46
257	-61.27
257.217	22.7
257.433	-18.26
257.65	24.75
257.866	51.37
258.082	22.7
258.299	-59.22
258.515	39.08
258.732	14.51
258.948	-59.22
259.165	86.19
259.381	-5.97
259.597	16.55
259.814	28.84
260.03	22.7
260.246	16.55
260.463	39.08
260.679	6.31
260.895	43.18
261.112	39.08
261.328	-1.88
261.544	26.79
261.761	98.47
261.977	-40.79
262.193	-10.07
262.409	102.57
262.626	65.71
262.842	94.38
263.058	8.36
263.274	-8.02
263.49	-5.97
263.707	75.95
263.923	59.56
264.139	-63.32
264.355	14.51
264.571	41.13
264.787	41.13
265.004	96.43
265.22	57.51
265.436	12.46
265.652	2.22
265.868	84.14
266.084	6.31
266.3	16.55
266.516	32.94
266.732	41.13
266.948	65.71
267.164	84.14
267.38	12.46
267.596	92.33
267.812	88.23
268.028	71.85
268.244	6.31
268.46	18.6
268.676	45.23
268.892	39.08
269.108	22.7
269.324	4.27
269.54	51.37
269.756	88.23
269.972	90.28
270.188	10.41
270.403	8.36
270.619	47.27
270.835	73.9
271.051	106.67
271.267	-10.07
271.483	63.66
271.698	14.51
271.914	26.79
272.13	24.75
272.346	55.47
272.562	41.13
272.777	59.56
272.993	-32.6
273.209	47.27
273.425	88.23
273.64	0.17
273.856	49.32
274.072	69.8
274.287	-1.88
274.503	55.47
274.719	26.79
274.934	51.37
275.15	-16.21
275.366	6.31
275.581	-32.6
275.797	34.99
276.012	59.56
276.228	53.42
276.444	-16.21
276.659	59.56
276.875	30.89
277.09	39.08
277.306	-79.7
277.521	65.71
277.737	-24.4
277.952	30.89
278.168	41.13
278.383	63.66
278.599	-10.07
278.814	96.43
279.03	65.71
279.245	39.08
279.461	8.36
279.676	75.95
279.892	-28.5
280.107	26.79
280.322	18.6
280.538	-18.26
280.753	14.51
280.969	24.75
281.184	39.08
281.399	80.04
281.615	39.08
281.83	96.43
282.045	39.08
282.26	30.89
282.476	82.09
282.691	63.66
282.906	6.31
283.122	43.18
283.337	-22.36
283.552	-10.07
283.767	22.7
283.983	92.33
284.198	-14.17
284.413	16.55
284.628	90.28
284.843	-16.21
285.058	67.75
285.274	55.47
285.489	-26.45
285.704	69.8
285.919	-5.97
286.134	43.18
286.349	8.36
286.564	34.99
286.779	26.79
286.995	51.37
287.21	-61.27
287.425	-22.36
287.64	6.31
287.855	75.95
288.07	-22.36
288.285	14.51
288.5	80.04
288.715	-40.79
288.93	-42.84
289.145	47.27
289.36	12.46
289.575	-32.6
289.79	39.08
290.004	-1.88
290.219	121
290.434	22.7
290.649	-14.17
290.864	-26.45
291.079	41.13
291.294	47.27
291.509	49.32
291.724	-26.45
291.938	-5.97
292.153	6.31
292.368	32.94
292.583	63.66
292.798	57.51
293.012	34.99
293.227	34.99
293.442	10.41
293.657	73.9
293.871	86.19
294.086	125.1
294.301	129.19
294.516	-26.45
294.73	24.75
294.945	16.55
295.16	108.71
295.374	71.85
295.589	65.71
295.804	6.31
296.018	14.51
296.233	118.95
296.447	63.66
296.662	2.22
296.877	71.85
297.091	114.86
297.306	129.19
297.52	-5.97
297.735	47.27
297.949	-18.26
298.164	55.47
298.378	71.85
298.593	55.47
298.807	-59.22
299.022	45.23
299.236	-24.4
299.451	65.71
299.665	75.95
299.88	30.89
300.094	90.28
300.309	8.36
300.523	77.99
300.737	24.75
300.952	96.43
301.166	32.94
301.381	14.51
301.595	51.37
301.809	63.66
302.024	-10.07
302.238	88.23
302.452	104.62
302.667	71.85
302.881	137.38
303.095	14.51
303.309	24.75
303.524	-3.93
303.738	121
303.952	63.66
304.166	80.04
304.381	39.08
304.595	92.33
304.809	-22.36
305.023	34.99
305.237	71.85
305.452	2.22
305.666	84.14
305.88	84.14
306.094	57.51
306.308	-30.55
306.522	30.89
306.736	112.81
306.95	14.51
307.164	20.65
307.379	45.23
307.593	112.81
307.807	59.56
308.021	20.65
308.235	12.46
308.449	4.27
308.663	6.31
308.877	137.38
309.091	47.27
309.305	114.86
309.519	-1.88
309.733	82.09
309.947	-46.93
310.161	55.47
310.374	49.32
310.588	57.51
310.802	14.51
311.016	63.66
311.23	-18.26
311.444	34.99
311.658	30.89
311.872	172.2
312.085	84.14
312.299	80.04
312.513	32.94
312.727	45.23
312.941	32.94
313.154	24.75
313.368	-44.88
313.582	-18.26
313.796	80.04
314.009	37.03
314.223	49.32
314.437	129.19
314.651	18.6
314.864	82.09
315.078	71.85
315.292	-12.12
315.505	55.47
315.719	6.31
315.933	88.23
316.146	26.79
316.36	22.7
316.573	100.52
316.787	55.47
317.001	55.47
317.214	41.13
317.428	96.43
317.641	18.6
317.855	8.36
318.068	82.09
318.282	59.56
318.495	94.38
318.709	55.47
318.922	-42.84
319.136	0.17
319.349	26.79
319.563	-8.02
319.776	82.09
319.99	-65.36
320.203	92.33
320.417	75.95
320.63	106.67
320.843	139.43
321.057	45.23
321.27	-16.21
321.483	65.71
321.697	55.47
321.91	65.71
322.124	112.81
322.337	61.61
322.55	-48.98
322.763	43.18
322.977	10.41
323.19	39.08
323.403	43.18
323.617	-22.36
323.83	131.24
324.043	30.89
324.256	88.23
324.469	49.32
324.683	71.85
324.896	6.31
325.109	55.47
325.322	-63.32
325.535	75.95
325.748	-1.88
325.962	-10.07
326.175	67.75
326.388	51.37
326.601	69.8
326.814	39.08
327.027	-10.07
327.24	39.08
327.453	16.55
327.666	88.23
327.879	12.46
328.092	45.23
328.305	51.37
328.518	153.77
328.731	86.19
328.944	71.85
329.157	82.09
329.37	30.89
329.583	145.58
329.796	102.57
330.009	30.89
330.222	47.27
330.435	73.9
330.648	-32.6
330.861	-51.03
331.073	0.17
331.286	129.19
331.499	47.27
331.712	-10.07
331.925	47.27
332.138	4.27
332.35	65.71
332.563	108.71
332.776	92.33
332.989	-8.02
333.202	73.9
333.414	-5.97
333.627	73.9
333.84	77.99
334.053	6.31
334.265	131.24
334.478	69.8
334.691	112.81
334.903	30.89
335.116	18.6
335.329	73.9
335.541	49.32
335.754	61.61
335.966	43.18
336.179	22.7
336.392	-8.02
336.604	0.17
336.817	12.46
337.029	98.47
337.242	-10.07
337.454	47.27
337.667	-24.4
337.88	110.76
338.092	82.09
338.305	49.32
338.517	0.17
338.729	92.33
338.942	75.95
339.154	47.27
339.367	16.55
339.579	61.61
339.792	-26.45
340.004	88.23
340.217	71.85
340.429	-20.31
340.641	71.85
340.854	0.17
341.066	65.71
341.278	153.77
341.491	71.85
341.703	121
341.915	73.9
342.128	4.27
342.34	16.55
342.552	22.7
342.764	55.47
342.977	96.43
343.189	112.81
343.401	30.89
343.613	45.23
343.826	53.42
344.038	47.27
344.25	67.75
344.462	14.51
344.674	59.56
344.886	63.66
345.099	98.47
345.311	114.86
345.523	37.03
345.735	22.7
345.947	34.99
346.159	16.55
346.371	8.36
346.583	14.51
346.795	114.86
347.007	47.27
347.219	102.57
347.431	20.65
347.643	131.24
347.855	-10.07
348.067	77.99
348.279	-22.36
348.491	104.62
348.703	55.47
348.915	39.08
349.127	-57.17
349.339	0.17
349.551	82.09
349.763	116.9
349.975	41.13
350.187	39.08
350.399	-34.64
350.61	121
350.822	41.13
351.034	16.55
351.246	-18.26
351.458	69.8
351.669	39.08
351.881	-5.97
352.093	104.62
352.305	-18.26
352.517	-5.97
352.728	18.6
352.94	32.94
353.152	147.62
353.363	-16.21
353.575	80.04
353.787	125.1
353.999	98.47
354.21	75.95
354.422	10.41
354.633	49.32
354.845	0.17
355.057	67.75
355.268	32.94
355.48	65.71
355.692	55.47
355.903	4.27
356.115	106.67
356.326	24.75
356.538	149.67
356.749	6.31
356.961	67.75
357.172	80.04
357.384	26.79
357.595	67.75
357.807	39.08
358.018	20.65
358.23	47.27
358.441	63.66
358.653	14.51
358.864	77.99
359.075	43.18
359.287	121
359.498	41.13
359.709	53.42
359.921	51.37
360.132	59.56
360.344	-1.88
360.555	37.03
360.766	43.18
360.977	65.71
361.189	6.31
361.4	47.27
361.611	67.75
361.823	121
362.034	82.09
362.245	77.99
362.456	114.86
362.667	55.47
362.879	-1.88
363.09	114.86
363.301	71.85
363.512	41.13
363.723	37.03
363.935	71.85
364.146	88.23
364.357	98.47
364.568	100.52
364.779	10.41
364.99	100.52
365.201	30.89
365.412	121
365.623	30.89
365.834	86.19
366.045	30.89
366.256	80.04
366.467	51.37
366.678	57.51
366.889	106.67
367.1	18.6
367.311	37.03
367.522	57.51
367.733	108.71
367.944	43.18
368.155	63.66
368.366	59.56
368.577	73.9
368.788	84.14
368.999	12.46
369.209	90.28
369.42	100.52
369.631	161.96
369.842	82.09
370.053	26.79
370.264	82.09
370.474	88.23
370.685	92.33
370.896	34.99
371.107	41.13
371.317	57.51
371.528	2.22
371.739	53.42
371.95	49.32
372.16	121
372.371	-32.6
372.582	24.75
372.792	92.33
373.003	47.27
373.214	28.84
373.424	8.36
373.635	14.51
373.846	65.71
374.056	-5.97
374.267	65.71
374.477	153.77
374.688	30.89
374.898	90.28
375.109	22.7
375.319	80.04
375.53	104.62
375.74	-18.26
375.951	71.85
376.161	47.27
376.372	98.47
376.582	57.51
376.793	43.18
377.003	55.47
377.214	63.66
377.424	57.51
377.635	88.23
377.845	34.99
378.055	73.9
378.266	67.75
378.476	55.47
378.686	-18.26
378.897	90.28
379.107	90.28
379.317	104.62
379.528	12.46
379.738	88.23
379.948	16.55
380.158	57.51
380.369	57.51
380.579	43.18
380.789	39.08
380.999	71.85
381.21	59.56
381.42	121
381.63	45.23
381.84	63.66
382.05	59.56
382.261	116.9
382.471	90.28
382.681	106.67
382.891	104.62
383.101	14.51
383.311	24.75
383.521	65.71
383.731	65.71
383.941	139.43
384.151	65.71
384.361	112.81
384.571	82.09
384.781	112.81
384.991	98.47
385.201	127.14
385.411	125.1
385.621	65.71
385.831	123.05
386.041	-1.88
386.251	69.8
386.461	104.62
386.671	24.75
386.881	77.99
387.091	55.47
387.301	57.51
387.511	96.43
387.72	96.43
387.93	118.95
388.14	12.46
388.35	53.42
388.56	45.23
388.769	174.25
388.979	71.85
389.189	57.51
389.399	104.62
389.609	86.19
389.818	82.09
390.028	75.95
390.238	96.43
390.447	30.89
390.657	67.75
390.867	-36.69
391.076	123.05
391.286	108.71
391.496	104.62
391.705	-22.36
391.915	59.56
392.125	114.86
392.334	98.47
392.544	106.67
392.753	47.27
392.963	55.47
393.172	55.47
393.382	118.95
393.591	63.66
393.801	14.51
394.01	98.47
394.22	108.71
394.429	59.56
394.639	153.77
394.848	166.06
395.058	106.67
395.267	32.94
395.477	121
395.686	63.66
395.895	92.33
396.105	194.73
396.314	137.38
396.524	59.56
396.733	121
396.942	186.54
397.152	88.23
397.361	174.25
397.57	43.18
397.78	96.43
397.989	137.38
398.198	112.81
398.407	129.19
398.617	131.24
398.826	121
399.035	161.96
399.244	121
399.453	102.57
399.663	75.95
399.872	161.96
400.081	75.95
400.29	161.96
400.499	71.85
400.708	164.01
400.917	125.1
401.127	149.67
401.336	63.66
401.545	186.54
401.754	161.96
401.963	141.48
402.172	123.05
402.381	129.19
402.59	190.63
402.799	188.58
403.008	184.49
403.217	121
403.426	178.34
403.635	149.67
403.844	180.39
404.053	114.86
404.262	133.29
404.471	194.73
404.68	194.73
404.888	207.02
405.097	182.44
405.306	223.4
405.515	247.97
405.724	149.67
405.933	276.65
406.142	260.26
406.35	211.11
406.559	284.84
406.768	243.88
406.977	286.89
407.185	235.69
407.394	268.45
407.603	178.34
407.812	333.99
408.02	235.69
408.229	344.23
408.438	311.46
408.646	305.32
408.855	348.33
409.064	360.61
409.272	379.04
409.481	346.28
409.69	452.77
409.898	440.48
410.107	422.05
410.315	448.68
410.524	469.16
410.733	467.11
410.941	428.2
411.15	473.25
411.358	477.35
411.567	475.3
411.775	587.94
411.984	575.65
412.192	559.27
412.401	555.17
412.609	637.09
412.818	706.72
413.026	686.24
413.234	671.9
413.443	698.53
413.651	694.43
413.86	764.06
414.068	845.98
414.276	794.78
414.485	794.78
414.693	882.85
414.901	995.48
415.11	929.95
415.318	1005.72
415.526	952.48
415.734	1077.4
415.943	1013.92
416.151	1054.87
416.359	1130.65
416.567	1151.13
416.776	1194.14
416.984	1259.67
417.192	1226.9
417.4	1312.92
417.608	1325.21
417.817	1419.41
418.025	1400.98
418.233	1446.04
418.441	1595.54
418.649	1685.65
418.857	1835.15
419.065	1755.28
419.273	1734.8
419.481	1853.58
419.689	1931.41
419.897	2121.87
420.105	1908.88
420.313	2152.59
420.521	2103.43
420.729	2304.14
420.937	2146.44
421.145	2365.57
421.353	2605.19
421.561	2549.89
421.769	2640
421.977	2676.87
422.185	2637.95
422.393	2840.7
422.601	3070.08
422.809	3033.21
423.017	3176.57
423.224	3223.67
423.432	3367.03
423.64	3348.6
423.848	3688.56
424.056	3661.94
424.263	3860.59
424.471	3831.92
424.679	3899.5
424.887	4130.92
425.094	4212.84
425.302	4282.47
425.51	4487.27
425.718	4653.16
425.925	4741.22
426.133	4685.92
426.341	5075.04
426.548	5277.79
426.756	5167.2
426.964	5290.07
427.171	5460.06
427.379	5883.98
427.586	5761.11
427.794	6123.6
428.001	6408.26
428.209	6465.61
428.417	6438.98
428.624	6957.12
428.832	6682.69
429.039	6834.24
429.247	6776.9
429.454	7286.84
429.662	7927.86
429.869	7448.63
430.076	7882.8
430.284	7847.99
430.491	8159.28
430.699	8529.96
430.906	8464.43
431.114	8685.61
431.321	9213.98
431.528	9201.69
431.736	9715.73
431.943	10135.57
432.15	9984.02
432.358	10141.71
432.565	10528.78
432.772	10485.77
432.979	11048.96
433.187	11323.39
433.394	11395.07
433.601	12005.36
433.808	12161.01
434.016	12081.14
434.223	12560.36
434.43	13049.83
434.637	13035.49
434.844	13850.58
435.052	14057.43
435.259	13858.78
435.466	13957.08
435.673	13785.05
435.88	14890.95
436.087	15740.86
436.294	15382.46
436.501	15411.14
436.708	15484.86
436.915	15984.57
437.122	16777.13
437.329	16930.73
437.537	17315.75
437.743	17737.63
437.95	17624.99
438.157	18380.69
438.364	18755.47
438.571	18861.96
438.778	18898.83
438.985	20688.75
439.192	19810.17
439.399	20569.97
439.606	20420.47
439.813	21253.99
440.02	22472.53
440.227	22181.72
440.433	21933.92
440.64	22591.31
440.847	22439.76
441.054	22837.07
441.261	24547.12
441.467	24332.09
441.674	24635.19
441.881	25165.61
442.088	25452.33
442.294	25331.5
442.501	26011.42
442.708	26101.53
442.914	27492.1
443.121	28311.29
443.328	27555.59
443.534	29896.42
443.741	28579.57
443.948	28395.26
444.154	30625.5
444.361	30574.3
444.568	30699.22
444.774	30336.73
444.981	30975.7
445.187	31487.69
445.394	33031.86
445.6	32853.69
445.807	35716.75
446.013	34694.81
446.22	34961.05
446.426	36109.96
446.633	36394.62
446.839	37795.43
447.046	36116.1
447.252	37994.09
447.459	38106.73
447.665	37877.35
447.871	40062.54
448.078	41231.93
448.284	39308.88
448.491	40670.78
448.697	42141.22
448.903	42675.74
449.11	42970.65
449.316	42411.56
449.522	42952.22
449.728	43963.92
449.935	44426.76
450.141	43818.51
450.347	45198.84
450.553	43757.07
450.76	44097.03
450.966	45989.36
451.172	45620.72
451.378	46538.21
451.584	45262.33
451.791	46409.19
451.997	46460.39
452.203	47164.89
452.409	47285.72
452.615	47103.45
452.821	45094.39
453.027	45067.77
453.233	47551.96
453.44	45766.13
453.646	46212.59
453.852	46204.39
454.058	47033.82
454.264	45383.16
454.47	46364.14
454.676	45444.6
454.882	46665.19
455.088	42819.1
455.294	43310.61
455.5	44328.45
455.705	44731.9
455.911	42843.68
456.117	41596.46
456.323	41545.26
456.529	39536.21
456.735	40871.48
456.941	39949.9
457.147	39220.82
457.352	38381.15
457.558	37981.8
457.764	37813.87
457.97	37097.08
458.176	36404.86
458.381	36413.06
458.587	34623.13
458.793	34692.76
458.999	32669.37
459.204	34907.8
459.41	33857.19
459.616	31815.37
459.821	31819.46
460.027	32145.09
460.233	31160.02
460.438	29796.07
460.644	30170.85
460.85	28157.69
461.055	28116.73
461.261	28071.68
461.466	26103.58
461.672	24862.51
461.878	26945.3
462.083	25222.95
462.289	24811.31
462.494	24553.27
462.7	23754.56
462.905	22706
463.111	23412.55
463.316	23463.75
463.522	22826.83
463.727	23050.06
463.932	23344.97
464.138	22691.66
464.343	22740.82
464.549	22064.99
464.754	22933.32
464.959	22640.47
465.165	22388.57
465.37	21698.4
465.575	20742
465.781	21634.91
465.986	21837.66
466.191	21045.1
466.397	20707.18
466.602	19636.1
466.807	20567.92
467.012	20389.75
467.218	20266.87
467.423	19939.19
467.628	20002.68
467.833	20846.44
468.038	20031.35
468.244	19613.57
468.449	20158.33
468.654	19572.61
468.859	19617.66
469.064	19224.45
469.269	18417.55
469.474	18814.86
469.679	19011.46
469.885	18433.94
470.09	18784.14
470.295	18900.87
470.5	17987.48
470.705	18462.61
470.91	17612.7
471.115	17799.07
471.32	18100.12
471.525	17846.17
471.73	17455.01
471.935	17199.01
472.139	16740.27
472.344	17026.98
472.549	17164.2
472.754	16711.6
472.959	16328.63
473.164	15873.98
473.369	15722.43
473.574	16304.05
473.778	16021.43
473.983	15867.83
474.188	15964.09
474.393	15124.42
474.598	15196.1
474.802	14948.29
475.007	14878.66
475.212	14925.77
475.417	14600.14
475.621	14514.13
475.826	14733.26
476.031	14229.46
476.235	13901.78
476.44	14204.88
476.645	13914.07
476.849	13979.61
477.054	13658.07
477.259	13600.73
477.463	13541.34
477.668	13182.95
477.872	13373.41
478.077	13328.35
478.282	12804.07
478.486	12828.65
478.691	12562.41
478.895	12789.74
479.1	12541.93
479.304	12632.04
479.509	12034.04
479.713	12441.58
479.918	12214.26
480.122	11837.43
480.326	12107.76
480.531	12191.73
480.735	11988.98
480.94	11775.99
481.144	12181.49
481.348	11673.59
481.553	11747.32
481.757	11356.16
481.961	11804.66
482.166	11661.3
482.37	11593.72
482.574	11395.07
482.778	11599.87
482.983	11896.82
483.187	11816.95
483.391	11589.63
483.595	11517.95
483.8	11307.01
484.004	11442.17
484.208	11599.87
484.412	11454.46
484.616	11706.36
484.821	11356.16
485.025	11212.8
485.229	11364.35
485.433	11421.69
485.637	11450.36
485.841	11247.62
486.045	11532.28
486.249	11370.49
486.453	11368.45
486.657	11468.8
486.861	11401.21
487.065	10960.9
487.269	11307.01
487.473	11128.83
487.677	11446.27
487.881	11538.43
488.085	11427.84
488.289	11390.97
488.493	11401.21
488.697	11380.73
488.901	11470.84
489.105	11235.33
489.309	11323.39
489.512	11567.1
489.716	11542.52
489.92	11532.28
490.124	11438.08
490.328	11567.1
490.531	11364.35
490.735	11737.08
490.939	11630.59
491.143	11372.54
491.346	11364.35
491.55	11657.21
491.754	11671.54
491.958	11751.42
492.161	11913.2
492.365	11769.85
492.569	11761.66
492.772	11827.19
492.976	12027.89
493.18	11884.53
493.383	11962.36
493.587	11964.4
493.79	12316.65
493.994	11954.16
494.197	12052.47
494.401	12371.95
494.605	12165.11
494.808	12572.65
495.012	12619.75
495.215	12457.96
495.419	12759.02
495.622	12658.67
495.825	12924.9
496.029	12793.83
496.232	12859.37
496.436	12965.86
496.639	13176.8
496.843	13361.12
497.046	13463.52
497.249	13653.98
497.453	13709.27
497.656	13506.52
497.859	13801.43
498.063	13860.82
498.266	14241.75
498.469	13963.22
498.673	14256.08
498.876	14477.26
499.079	14706.63
499.282	14469.07
499.485	15212.48
499.689	14915.53
499.892	15359.94
500.095	15366.08
500.298	15704
500.501	15392.7
500.705	15695.8
500.908	16138.16
501.111	15945.66
501.314	16351.15
501.517	16371.63
501.72	16605.1
501.923	16332.72
502.126	16893.86
502.329	17278.88
502.532	17264.55
502.735	17031.08
502.938	17567.65
503.141	17422.24
503.344	17817.5
503.547	17909.66
503.75	18407.31
503.953	18530.19
504.156	18571.15
504.359	18780.04
504.562	18644.88
504.765	19167.11
504.968	19333
505.17	19826.56
505.373	19638.14
505.576	19894.14
505.779	20078.46
505.982	20146.04
506.185	20696.94
506.387	20553.59
506.59	20897.64
506.793	21026.67
506.996	21249.89
507.198	21794.65
507.401	21493.6
507.604	21798.75
507.807	22374.23
508.009	22374.23
508.212	22312.79
508.415	23095.11
508.617	23267.14
508.82	23148.36
509.022	23412.55
509.225	23885.63
509.428	24035.13
509.63	23961.41
509.833	24325.94
510.035	24803.12
510.238	24776.5
510.44	24893.23
510.643	25239.34
510.845	25253.67
511.048	25456.42
511.25	25677.6
511.453	26138.4
511.655	26902.29
511.858	26490.65
512.06	26789.65
512.262	27107.09
512.465	26875.66
512.667	27412.23
512.87	28065.53
513.072	27850.5
513.274	28380.92
513.477	28481.27
513.679	28753.65
513.881	29091.57
514.084	29089.52
514.286	29003.5
514.488	29585.13
514.69	30473.95
514.893	30428.89
515.095	30441.18
515.297	30664.41
515.499	30824.15
515.701	31354.57
515.904	31391.44
516.106	31792.84
516.308	32186.05
516.51	32620.22
516.712	32517.82
516.914	32829.11
517.116	33197.74
517.318	33185.46
517.52	33314.48
517.722	33466.03
517.925	33912.49
518.127	34358.94
518.329	34573.98
518.531	34467.48
518.733	35092.12
518.935	35272.34
519.136	35188.37
519.338	35980.93
519.54	35894.92
519.742	36347.52
519.944	36341.38
520.146	37127.8
520.348	37041.78
520.55	37125.75
520.752	37119.6
520.954	37840.49
521.155	37650.03
521.357	37989.99
521.559	38614.62
521.761	38080.1
521.963	38676.06
522.164	38809.18
522.366	39128.66
522.568	38979.16
522.77	39276.12
522.971	39650.89
523.173	39151.19
523.375	39833.16
523.576	40128.07
523.778	39921.23
523.98	40435.27
524.181	40121.93
524.383	40609.34
524.584	40668.73
524.786	40728.13
524.988	40341.06
525.189	41057.85
525.391	41254.45
525.592	41133.62
525.794	41694.77
525.995	41494.07
526.197	41334.32
526.398	41463.35
526.6	41535.02
526.801	41606.7
527.003	41610.8
527.204	41907.76
527.406	42151.46
527.607	41961
527.808	42466.85
528.01	41152.05
528.211	41549.36
528.412	42722.85
528.614	42335.78
528.815	42198.57
529.016	42370.6
529.218	42333.73
529.419	42524.19
529.62	42516
529.822	42327.59
530.023	42378.79
530.224	42190.37
530.425	42196.52
530.626	41940.52
530.828	41879.08
531.029	42499.62
531.23	42116.65
531.431	42094.12
531.632	42061.35
531.833	42696.22
532.035	41877.04
532.236	41922.09
532.437	42182.18
532.638	41838.12
532.839	42165.8
533.04	41958.95
533.241	41803.31
533.442	42298.92
533.643	41741.87
533.844	41930.28
534.045	42153.51
534.246	41205.3
534.447	42378.79
534.648	41680.43
534.849	41831.98
535.05	41307.7
535.251	41502.26
535.451	41076.28
535.652	41901.61
535.853	41524.79
536.054	41594.42
536.255	41698.86
536.456	41123.38
536.657	41856.56
536.857	41496.11
537.058	41219.64
537.259	41565.74
537.46	41428.53
537.66	41219.64
537.861	41152.05
538.062	41100.86
538.263	41209.4
538.463	40734.27
538.664	40676.93
538.865	40934.97
539.065	41152.05
539.266	40398.4
539.466	41287.22
539.667	40343.11
539.868	41096.76
540.068	40607.3
540.269	40836.67
540.469	40896.06
540.67	40574.53
540.87	40265.28
541.071	40508.99
541.271	40539.71
541.472	40529.47
541.672	40619.58
541.873	40330.82
542.073	39790.16
542.274	40906.3
542.474	40005.19
542.675	40062.54
542.875	40773.18
543.075	40226.37
543.276	39984.71
543.476	40527.42
543.676	40324.68
543.877	40152.65
544.077	40488.51
544.277	40072.78
544.478	39781.96
544.678	39960.14
544.878	39925.32
545.078	39812.68
545.279	39808.59
545.479	39880.27
545.679	39886.41
545.879	39824.97
546.079	40025.67
546.28	40037.96
546.48	39450.19
546.68	39749.2
546.88	39896.65
547.08	40365.63
547.28	39956.04
547.48	39423.57
547.68	39835.21
547.88	39833.16
548.081	40109.64
548.281	39921.23
548.481	39714.38
548.681	40470.08
548.881	39804.49
549.081	39927.37
549.28	39571.02
549.48	40087.11
549.68	39628.37
549.88	40234.56
550.08	39607.89
550.28	40123.97
550.48	39800.4
550.68	40312.39
550.88	39966.28
551.08	39814.73
551.279	40148.55
551.479	39603.79
551.679	40185.41
551.879	40068.68
552.079	39775.82
552.278	39749.2
552.478	39382.61
552.678	40144.45
552.878	39997
553.077	40191.56
553.277	40130.12
553.477	40236.61
553.676	39945.8
553.876	40078.92
554.076	39779.92
554.275	39997
554.475	39741
554.674	39853.64
554.874	40089.16
555.074	40261.19
555.273	39953.99
555.473	40482.37
555.672	39923.27
555.872	40121.93
556.071	40310.34
556.271	40175.17
556.47	39626.32
556.67	39894.6
556.869	39951.95
557.068	40322.63
557.268	40085.06
557.467	40408.64
557.667	40242.76
557.866	40345.16
558.065	40562.24
558.265	40306.24
558.464	40074.82
558.663	40316.48
558.863	39925.32
559.062	40834.62
559.261	40109.64
559.461	40541.76
559.66	39755.34
559.859	39786.06
560.058	40123.97
560.258	40408.64
560.457	39941.71
560.656	40375.87
560.855	40042.06
561.054	40431.17
561.253	39827.02
561.453	40287.81
561.652	40339.01
561.851	40242.76
562.05	39913.03
562.249	40115.78
562.448	40091.21
562.647	40371.78
562.846	39935.56
563.045	39937.61
563.244	39579.21
563.443	40105.54
563.642	39710.28
563.841	39824.97
564.04	39634.51
564.239	39784.01
564.438	39765.58
564.637	40097.35
564.836	39847.5
565.035	39714.38
565.234	39648.85
565.432	39263.83
565.631	39814.73
565.83	39411.28
566.029	39392.85
566.228	39661.13
566.427	39075.41
566.625	39099.99
566.824	38755.93
567.023	39269.97
567.222	38927.96
567.42	39640.65
567.619	39120.47
567.818	39112.28
568.016	38940.25
568.215	39073.37
568.414	39036.5
568.612	39460.43
568.811	38487.65
569.01	38831.71
569.208	38303.33
569.407	38821.47
569.605	38164.07
569.804	38620.77
570.002	37998.18
570.201	38653.53
570.4	38303.33
570.598	37910.12
570.797	37969.51
570.995	38018.66
571.193	37457.52
571.392	38133.35
571.59	37494.38
571.789	37480.05
571.987	37820.01
572.186	37482.09
572.384	37621.36
572.582	37838.44
572.781	37432.94
572.979	37090.93
573.177	36970.1
573.376	37103.22
573.574	37414.51
573.772	37031.54
573.971	36976.25
574.169	36734.59
574.367	36656.76
574.565	36871.8
574.763	36281.99
574.962	36677.24
575.16	35911.3
575.358	36310.66
575.556	35792.52
575.754	36243.07
575.952	35821.19
576.151	35884.68
576.349	35315.34
576.547	35473.04
576.745	35571.34
576.943	35759.75
577.141	35518.09
577.339	35698.31
577.537	35133.07
577.735	35235.47
577.933	35079.83
578.131	34965.14
578.329	35198.61
578.527	35065.49
578.725	34776.73
578.923	34774.68
579.121	34606.75
579.319	34576.03
579.516	35028.63
579.714	34588.31
579.912	34186.91
580.11	34283.17
580.308	34299.55
580.506	34264.74
580.704	33470.12
580.901	33975.97
581.099	33930.92
581.297	33883.81
581.495	33781.42
581.692	33570.47
581.89	33246.9
582.088	33857.19
582.285	33392.3
582.483	33302.19
582.681	33314.48
582.878	33199.79
583.076	32863.93
583.274	33431.21
583.471	32724.66
583.669	32861.88
583.866	32886.45
584.064	32800.44
584.262	32319.17
584.459	32634.55
584.657	32128.7
584.854	32726.71
585.052	31829.7
585.249	32315.07
585.447	32249.53
585.644	31874.76
585.841	31895.24
586.039	32421.56
586.236	31672.01
586.434	31798.98
586.631	31440.59
586.828	31790.79
587.026	31674.06
587.223	31532.75
587.42	31299.28
587.618	31729.35
587.815	31301.33
588.012	31182.54
588.21	31131.34
588.407	31485.64
588.604	30963.41
588.801	30451.42
588.999	31047.38
589.196	30828.24
589.393	30781.14
589.59	30701.27
589.787	30750.42
589.984	30195.42
590.182	30273.24
590.379	30326.49
590.576	29982.43
590.773	30363.36
590.97	29949.67
591.167	30056.16
591.364	29847.27
591.561	30414.55
591.758	29929.19
591.955	29437.67
592.152	29892.32
592.349	29781.73
592.546	30168.8
592.743	29892.32
592.94	29265.64
593.137	29818.6
593.334	29951.71
593.531	29484.78
593.727	29576.94
593.924	29476.58
594.121	29306.6
594.318	29173.49
594.515	29388.52
594.712	29683.43
594.908	29394.67
595.105	29155.05
595.302	28940.02
595.499	29370.09
595.696	28978.93
595.892	28876.53
596.089	29341.42
596.286	29075.18
596.482	28786.42
596.679	28872.43
596.876	29138.67
597.072	28696.31
597.269	28675.83
597.466	28747.51
597.662	28534.52
597.859	28882.67
598.055	28970.74
598.252	28630.77
598.448	28702.45
598.645	28323.58
598.841	28278.52
599.038	28348.15
599.234	28692.21
599.431	28454.65
599.627	28415.74
599.824	28835.57
600.02	28495.61
600.217	28602.1
600.413	28548.86
600.609	28401.4
600.806	28595.96
601.002	28544.76
601.198	28393.21
601.395	28497.66
601.591	28192.51
601.787	28366.59
601.984	28262.14
602.18	29021.94
602.376	28315.39
602.572	28471.03
602.769	28270.33
602.965	28272.38
603.161	28139.26
603.357	28417.79
603.553	28161.79
603.75	28530.42
603.946	28243.71
604.142	28552.95
604.338	28141.31
604.534	28675.83
604.73	28399.35
604.926	28405.5
605.122	28704.5
605.318	28243.71
605.514	28559.09
605.71	28301.05
605.906	28362.49
606.102	28552.95
606.298	28481.27
606.494	28784.37
606.69	28671.73
606.886	28741.36
607.082	28335.87
607.278	28811
607.474	28444.41
607.67	28851.95
607.866	28552.95
608.062	29128.43
608.257	28755.7
608.453	28704.5
608.649	28972.78
608.845	28892.91
609.041	29044.46
609.236	29089.52
609.432	29071.09
609.628	28937.97
609.824	29011.7
610.019	28737.27
610.215	28796.66
610.411	29204.21
610.606	28724.98
610.802	28985.07
610.998	29527.78
611.193	29327.08
611.389	29028.08
611.584	29107.95
611.78	29376.23
611.976	29230.83
612.171	29345.51
612.367	29472.49
612.562	29257.45
612.758	29069.04
612.953	29214.44
613.149	29746.92
613.344	29179.63
613.539	29642.47
613.735	29464.3
613.93	29763.3
614.126	29423.34
614.321	29673.19
614.517	29570.79
614.712	29529.83
614.907	29400.81
615.103	29478.63
615.298	29378.28
615.493	29851.36
615.688	29064.94
615.884	29982.43
616.079	29331.18
616.274	29597.42
616.47	29640.42
616.665	29665
616.86	29654.76
617.055	29449.96
617.25	29419.24
617.445	29892.32
617.641	29486.82
617.836	29732.58
618.031	29085.42
618.226	29728.49
618.421	29312.75
618.616	29363.95
618.811	29302.51
619.006	29677.29
619.201	29019.89
619.396	29155.05
619.591	28763.89
619.786	29056.75
619.981	28745.46
620.176	29101.81
620.371	28458.74
620.566	28602.1
620.761	28501.75
620.956	28724.98
621.151	28348.15
621.346	28413.69
621.541	28141.31
621.735	28190.46
621.93	27760.39
622.125	27948.8
622.32	27463.43
622.515	27571.97
622.709	27617.03
622.904	27766.53
623.099	27612.93
623.294	27426.57
623.488	27189
623.683	27170.57
623.878	26783.51
624.072	26789.65
624.267	26748.69
624.462	26662.68
624.656	26113.82
624.851	26644.24
625.046	26285.85
625.24	26056.48
625.435	25988.89
625.629	25812.77
625.824	25790.24
626.018	25546.53
626.213	24934.19
626.407	25327.4
626.602	24813.36
626.796	25333.54
626.991	24885.04
627.185	25083.69
627.38	25065.26
627.574	24774.45
627.768	24432.44
627.963	24278.84
628.157	24284.98
628.352	24586.04
628.546	24024.89
628.74	24170.3
628.935	23897.92
629.129	24350.52
629.323	23347.01
629.517	23467.84
629.712	23330.63
629.906	23463.75
630.1	22890.32
630.294	23269.19
630.489	22982.48
630.683	23076.68
630.877	22806.35
631.071	22388.57
631.265	22615.89
631.459	22769.49
631.653	22216.54
631.848	22384.47
632.042	21864.29
632.236	22359.89
632.43	21739.36
632.624	21899.1
632.818	21677.92
633.012	21399.4
633.206	21325.67
633.4	21421.92
633.594	21036.91
633.788	21116.78
633.982	21124.97
634.176	21266.28
634.369	20617.07
634.563	21004.14
634.757	20504.43
634.951	20617.07
635.145	20623.22
635.339	20428.66
635.533	20365.17
635.726	19847.04
635.92	20041.59
636.114	20070.26
636.308	19853.18
636.501	20156.28
636.695	19761.02
636.889	19490.69
637.083	19253.12
637.276	19373.96
637.47	19089.29
637.664	19089.29
637.857	19001.22
638.051	19105.67
638.244	18780.04
638.438	18716.56
638.632	18474.9
638.825	18380.69
639.019	18241.43
639.212	18306.96
639.406	18087.83
639.599	17803.16
639.793	18036.63
639.986	17633.18
640.18	17958.81
640.373	17672.09
640.567	17653.66
640.76	17403.81
640.954	17229.73
641.147	17149.86
641.34	17190.82
641.534	17039.27
641.727	16947.11
641.92	16943.02
642.114	16586.67
642.307	16734.12
642.5	16785.32
642.694	16132.02
642.887	16072.63
643.08	16482.22
643.273	16037.81
643.467	15949.75
643.66	15761.34
643.853	15783.87
644.046	15579.07
644.239	15873.98
644.432	15443.9
644.626	15513.53
644.819	15296.45
645.012	15273.92
645.205	15366.08
645.398	15351.74
645.591	14925.77
645.784	15032.26
645.977	14907.34
646.17	14811.08
646.363	14755.79
646.556	14538.7
646.749	14524.37
646.942	14802.89
647.135	14219.22
647.328	14297.04
647.521	14403.53
647.714	13918.17
647.907	14165.97
648.099	13998.04
648.292	14104.53
648.485	13666.27
648.678	13864.92
648.871	13455.33
649.064	13412.32
649.256	13533.15
649.449	13400.03
649.642	13359.07
649.835	13211.62
650.027	13344.74
650.22	13141.99
650.413	13150.18
650.605	13000.68
650.798	12761.06
650.991	12756.97
651.183	12748.78
651.376	12482.54
651.568	12769.26
651.761	12521.45
651.954	12464.11
652.146	12470.25
652.339	12269.55
652.531	12220.4
652.724	12263.41
652.916	11917.3
653.109	12140.53
653.301	11958.26
653.494	12001.27
653.686	11876.34
653.879	12027.89
654.071	11892.73
654.263	11753.46
654.456	11579.39
654.648	11814.9
654.84	11378.69
655.033	11446.27
655.225	11280.38
655.417	11143.17
655.61	11247.62
655.802	11249.66
655.994	11065.35
656.186	11384.83
656.379	11126.78
656.571	11055.11
656.763	11067.39
656.955	10899.46
657.148	10872.84
657.34	10958.85
657.532	10778.63
657.724	10403.85
657.916	10541.07
658.108	10346.51
658.3	10616.84
658.492	10344.46
658.684	10274.83
658.876	10319.89
659.068	10293.26
659.26	10231.82
659.452	10360.84
659.644	10106.9
659.836	9969.68
660.028	9820.18
660.22	9762.84
660.412	9746.45
660.604	9515.03
660.796	9750.55
660.988	9680.92
661.18	9500.7
661.372	9492.51
661.563	9429.02
661.755	9185.31
661.947	9267.23
662.139	9406.49
662.331	9213.98
662.522	9179.17
662.714	9222.17
662.906	9009.19
663.097	9044
663.289	9058.34
663.481	8980.51
663.673	8962.08
663.864	8912.93
664.056	8779.81
664.247	8716.33
664.439	8661.03
664.631	8935.46
664.822	8646.69
665.014	8450.09
665.205	8497.19
665.397	8392.75
665.588	8429.61
665.78	8464.43
665.971	8245.29
666.163	8534.06
666.354	8355.88
666.546	8355.88
666.737	8075.31
666.929	8083.5
667.12	8085.55
667.311	8044.59
667.503	7888.95
667.694	7946.29
667.885	7948.34
668.077	8026.16
668.268	7905.33
668.459	7723.06
668.651	7747.64
668.842	7725.11
669.033	7673.91
669.224	7698.49
669.416	7747.64
669.607	7389.24
669.798	7452.73
669.989	7530.55
670.18	7512.12
670.371	7329.85
670.563	7239.74
670.754	7376.95
670.945	7348.28
671.136	7510.07
671.327	6977.6
671.518	7067.71
671.709	7141.44
671.9	7249.98
672.091	7116.86
672.282	6932.54
672.473	7071.81
672.664	6993.98
672.855	7071.81
673.046	6928.45
673.237	7206.97
673.428	6895.68
673.619	6826.05
673.809	6707.27
674	7002.18
674.191	6887.49
674.382	6762.56
674.573	6842.43
674.764	6682.69
674.954	6807.62
675.145	6735.94
675.336	6690.88
675.527	6719.56
675.717	6592.58
675.908	6514.76
676.099	6539.33
676.289	6510.66
676.48	6432.84
676.671	6416.46
676.861	6406.22
677.052	6395.98
677.243	6209.61
677.433	6357.07
677.624	6434.89
677.814	6330.44
678.005	6350.92
678.195	6469.7
678.386	6285.39
678.576	6289.48
678.767	6176.84
678.957	6256.72
679.148	6215.76
679.338	6152.27
679.529	6236.24
679.719	6117.45
679.909	6336.59
680.1	5912.66
680.29	6203.47
680.481	6078.54
680.671	6053.97
680.861	6072.4
681.052	6080.59
681.242	5986.38
681.432	6119.5
681.622	6006.86
681.813	6051.92
682.003	6043.73
682.193	5984.34
682.383	5916.75
682.573	5972.05
682.764	5941.33
682.954	5937.23
683.144	6051.92
683.334	5793.87
683.524	5857.36
683.714	5978.19
683.904	5941.33
684.094	5767.25
684.284	5939.28
684.474	5843.03
684.664	5986.38
684.854	5920.85
685.044	5849.17
685.234	5709.91
685.424	5843.03
685.614	5638.23
685.804	5722.2
685.994	5765.2
686.184	5793.87
686.374	5896.27
686.564	5642.32
686.753	5703.76
686.943	5607.51
687.133	5701.72
687.323	5505.11
687.513	5601.37
687.702	5593.17
687.892	5589.08
688.082	5519.45
688.272	5470.3
688.461	5505.11
688.651	5789.78
688.841	5412.95
689.03	5564.5
689.22	5523.54
689.41	5496.92
689.599	5511.25
689.789	5501.01
689.979	5351.51
690.168	5251.16
690.358	5306.46
690.547	5378.14
690.737	5298.27
690.926	5355.61
691.116	5259.35
691.305	5281.88
691.495	5195.87
691.684	5212.25
691.874	5259.35
692.063	5224.54
692.252	5257.31
692.442	5179.48
692.631	5099.61
692.82	5120.09
693.01	5111.9
693.199	5179.48
693.388	5097.56
693.578	5077.09
693.767	5126.24
693.956	5159
694.146	4995.17
694.335	5038.17
694.524	5040.22
694.713	4927.58
694.902	4931.68
695.092	5011.55
695.281	4913.25
695.47	5185.63
695.659	4956.26
695.848	5019.74
696.037	5050.46
696.226	4995.17
696.415	4923.49
696.604	4954.21
696.793	4771.94
696.982	4894.82
697.171	4923.49
697.36	4978.78
697.549	4917.34
697.738	4765.79
697.927	4814.95
698.116	4726.88
698.305	4636.77
698.494	4706.4
698.683	4833.38
698.872	4710.5
699.061	4784.23
699.25	4784.23
699.438	4716.64
699.627	4653.16
699.816	4767.84
700.005	4816.99
700.193	4636.77
700.382	4685.92
700.571	4759.65
700.76	4569.19
700.948	4659.3
701.137	4524.13
701.326	4569.19
701.514	4595.81
701.703	4536.42
701.892	4501.61
702.08	4659.3
702.269	4419.69
702.457	4448.36
702.646	4601.96
702.834	4462.69
703.023	4343.91
703.212	4454.5
703.4	4434.02
703.589	4581.48
703.777	4350.06
703.965	4423.78
704.154	4235.37
704.342	4214.89
704.531	4290.67
704.719	4358.25
704.907	4481.13
705.096	4225.13
705.284	4243.56
705.472	4386.92
705.661	4307.05
705.849	4223.08
706.037	4405.35
706.226	4210.79
706.414	4229.23
706.602	4046.96
706.79	4186.22
706.979	4204.65
707.167	4298.86
707.355	4200.55
707.543	4094.06
707.731	4259.95
707.919	4034.67
708.107	4128.88
708.296	4077.68
708.484	4079.72
708.672	4218.99
708.86	4018.29
709.048	4036.72
709.236	4057.2
709.424	3991.66
709.612	3860.59
709.8	3924.08
709.988	3948.65
710.176	4118.64
710.364	3907.7
710.551	3876.98
710.739	3848.3
710.927	3922.03
711.115	3850.35
711.303	3905.65
711.491	3793.01
711.679	3774.58
711.866	3930.22
712.054	3833.97
712.242	3778.67
712.43	3883.12
712.617	3813.49
712.805	3735.67
712.993	3885.17
713.181	3586.16
713.368	3713.14
713.556	3770.48
713.744	3594.36
713.931	3782.77
714.119	3614.84
714.306	3725.43
714.494	3528.82
714.682	3610.74
714.869	3520.63
715.057	3571.83
715.244	3553.4
715.432	3645.56
715.619	3528.82
715.807	3547.25
715.994	3668.08
716.182	3438.71
716.369	3487.86
716.556	3553.4
716.744	3506.29
716.931	3352.7
717.119	3537.01
717.306	3502.2
717.493	3455.09
717.681	3446.9
717.868	3424.37
718.055	3358.84
718.242	3405.94
718.43	3414.13
718.617	3383.42
718.804	3364.98
718.991	3373.18
719.179	3389.56
719.366	3250.3
719.553	3278.97
719.74	3319.93
719.927	3315.83
720.114	3344.5
720.301	3326.07
720.488	3201.15
720.676	3199.1
720.863	3299.45
721.05	3340.41
721.237	3096.7
721.424	3233.91
721.611	3217.53
721.798	3156.09
721.985	3078.27
722.172	3106.94
722.358	3115.13
722.545	3106.94
722.732	3090.56
722.919	3225.72
723.106	3137.66
723.293	2992.25
723.48	3137.66
723.667	3082.36
723.853	3119.23
724.04	3045.5
724.227	2939.01
724.414	2951.29
724.6	2965.63
724.787	3057.79
724.974	3049.6
725.161	2893.95
725.347	2924.67
725.534	2900.09
725.72	2973.82
725.907	2828.42
726.094	2930.81
726.28	2883.71
726.467	2939.01
726.653	2828.42
726.84	2852.99
727.027	2922.62
727.213	2799.74
727.4	2769.02
727.586	2816.13
727.773	2799.74
727.959	2914.43
728.145	2834.56
728.332	2744.45
728.518	2830.46
728.705	2793.6
728.891	2775.17
729.077	2922.62
729.264	2816.13
729.45	2807.94
729.636	2672.77
729.823	2629.76
730.009	2783.36
730.195	2758.78
730.382	2648.19
730.568	2773.12
730.754	2699.39
730.94	2750.59
731.126	2756.74
731.313	2629.76
731.499	2611.33
731.685	2766.98
731.871	2615.43
732.057	2674.82
732.243	2676.87
732.429	2553.99
732.615	2547.84
732.801	2597
732.987	2578.56
733.173	2601.09
733.359	2543.75
733.545	2566.28
733.731	2564.23
733.917	2537.6
734.103	2533.51
734.289	2515.08
734.475	2594.95
734.661	2611.33
734.847	2447.49
735.033	2494.6
735.219	2513.03
735.404	2449.54
735.59	2515.08
735.776	2488.45
735.962	2521.22
736.148	2594.95
736.333	2537.6
736.519	2318.47
736.705	2553.99
736.89	2394.25
737.076	2345.09
737.262	2521.22
737.447	2422.92
737.633	2379.91
737.819	2412.68
738.004	2341
738.19	2410.63
738.375	2369.67
738.561	2431.11
738.747	2398.34
738.932	2404.49
739.118	2318.47
739.303	2291.85
739.489	2285.7
739.674	2132.11
739.859	2257.03
740.045	2353.29
740.23	2193.55
740.416	2070.67
740.601	2168.97
740.786	2185.35
740.972	2156.68
741.157	2097.29
741.342	2160.78
741.528	2220.17
741.713	2054.28
741.898	2300.04
742.084	2087.05
742.269	2177.16
742.454	1955.98
742.639	2076.81
742.824	2177.16
743.01	2128.01
743.195	2154.63
743.38	2103.43
743.565	2142.35
743.75	2107.53
743.935	2023.56
744.12	2136.2
744.305	1988.75
744.49	2029.71
744.675	2005.13
744.86	1896.59
745.045	1964.17
745.23	1996.94
745.415	1886.35
745.6	1947.79
745.785	1806.48
745.97	1941.65
746.155	1943.69
746.34	1853.58
746.525	1972.36
746.71	1976.46
746.895	1736.85
747.079	1837.2
747.264	1810.58
747.449	1925.26
747.634	1853.58
747.819	1833.1
748.003	1988.75
748.188	1714.32
748.373	1749.14
748.557	1826.96
748.742	1675.41
748.927	1632.4
749.111	1687.7
749.296	1675.41
749.481	1681.55
749.665	1747.09
749.85	1679.51
750.034	1669.27
750.219	1665.17
750.404	1603.73
750.588	1548.44
750.773	1546.39
750.957	1595.54
751.141	1554.58
751.326	1671.31
751.51	1554.58
751.695	1595.54
751.879	1562.77
752.064	1611.92
752.248	1587.35
752.432	1611.92
752.617	1513.62
752.801	1566.87
752.985	1505.43
753.17	1546.39
753.354	1521.81
753.538	1484.95
753.722	1353.88
753.907	1458.32
754.091	1417.37
754.275	1448.08
754.459	1382.55
754.643	1370.26
754.828	1497.24
755.012	1431.7
755.196	1267.86
755.38	1392.79
755.564	1396.89
755.748	1374.36
755.932	1360.02
756.116	1317.01
756.3	1339.54
756.484	1368.21
756.668	1185.94
756.852	1300.63
757.036	1341.59
757.22	1241.24
757.404	1288.34
757.588	1292.44
757.772	1220.76
757.956	1243.29
758.14	1226.9
758.323	1206.42
758.507	1308.82
758.691	1243.29
758.875	1202.33
759.059	1079.45
759.242	1171.61
759.426	1167.51
759.61	1104.03
759.794	1071.26
759.977	1304.73
760.161	1284.25
760.345	1177.75
760.528	1218.71
760.712	1183.9
760.895	1110.17
761.079	1142.94
761.263	1087.64
761.446	1087.64
761.63	1149.08
761.813	1085.59
761.997	952.48
762.18	966.81
762.364	1116.31
762.547	1032.35
762.731	1005.72
762.914	1091.74
763.098	1120.41
763.281	997.53
763.464	979.1
763.648	1067.16
763.831	1089.69
764.015	987.29
764.198	1056.92
764.381	1018.01
764.564	1050.78
764.748	1040.54
764.931	1063.07
765.114	975
765.297	1048.73
765.481	983.2
765.664	1009.82
765.847	905.37
766.03	1013.92
766.213	848.03
766.397	911.52
766.58	944.28
766.763	972.96
766.946	993.44
767.129	909.47
767.312	903.32
767.495	829.6
767.678	960.67
767.861	895.13
768.044	983.2
768.227	946.33
768.41	893.09
768.593	958.62
768.776	964.76
768.959	925.85
769.142	1022.11
769.324	946.33
769.507	858.27
769.69	915.61
769.873	923.8
770.056	852.13
770.239	942.24
770.421	1020.06
770.604	1003.68
770.787	843.93
770.97	895.13
771.152	878.75
771.335	862.37
771.518	821.41
771.7	899.23
771.883	1034.39
772.066	854.17
772.248	835.74
772.431	858.27
772.613	868.51
772.796	719.01
772.978	825.5
773.161	833.69
773.343	800.93
773.526	862.37
773.708	805.02
773.891	778.4
774.073	815.26
774.256	774.3
774.438	813.21
774.621	774.3
774.803	809.12
774.985	745.63
775.168	800.93
775.35	743.58
775.532	833.69
775.715	686.24
775.897	735.39
776.079	727.2
776.261	751.78
776.444	671.9
776.626	739.49
776.808	743.58
776.99	632.99
777.173	733.34
777.355	753.82
777.537	657.57
777.719	704.67
777.901	657.57
778.083	643.23
778.265	702.62
778.447	673.95
778.629	688.29
778.811	694.43
778.993	596.13
779.175	688.29
779.357	620.71
779.539	534.69
779.721	649.38
779.903	688.29
780.085	659.62
780.267	620.71
780.449	589.99
780.631	620.71
780.812	579.75
780.994	637.09
781.176	592.03
781.358	526.5
781.54	559.27
781.721	598.18
781.903	540.83
782.085	583.84
782.267	649.38
782.448	538.79
782.63	626.85
782.812	512.16
782.993	546.98
783.175	528.55
783.357	546.98
783.538	516.26
783.72	592.03
783.901	516.26
784.083	549.03
784.264	497.83
784.446	567.46
784.627	514.21
784.809	606.37
784.99	508.07
785.172	518.31
785.353	456.87
785.535	587.94
785.716	479.4
785.897	491.68
786.079	555.17
786.26	506.02
786.441	475.3
786.623	456.87
786.804	407.72
786.985	481.44
787.167	397.48
787.348	456.87
787.529	413.86
787.71	516.26
787.891	399.52
788.073	446.63
788.254	362.66
788.435	518.31
788.616	469.16
788.797	374.95
788.978	424.1
789.159	434.34
789.34	450.72
789.522	409.76
789.703	297.13
789.884	342.18
790.065	377
790.246	469.16
790.427	374.95
790.607	374.95
790.788	342.18
790.969	405.67
791.15	352.42
791.331	297.13
791.512	448.68
791.693	426.15
791.874	374.95
792.054	368.81
792.235	403.62
792.416	272.55
792.597	325.8
792.778	393.38
792.958	327.85
793.139	387.24
793.32	325.8
793.5	342.18
793.681	403.62
793.862	317.61
794.042	317.61
794.223	290.98
794.404	280.74
794.584	272.55
794.765	303.27
794.945	344.23
795.126	280.74
795.306	415.91
795.487	227.5
795.667	297.13
795.848	270.5
796.028	274.6
796.209	321.7
796.389	313.51
796.57	258.21
796.75	282.79
796.93	342.18
797.111	223.4
797.291	207.02
797.471	407.72
797.652	235.69
797.832	243.88
798.012	317.61
798.192	321.7
798.373	252.07
798.553	317.61
798.733	258.21
798.913	202.92
799.093	336.04
799.274	260.26
799.454	264.36
799.634	231.59
799.814	313.51
799.994	276.65
800.174	293.03
800.354	293.03
800.534	194.73
800.714	290.98
800.894	211.11
801.074	188.58
801.254	176.3
801.434	233.64
801.614	260.26
801.794	196.78
801.974	835.74
802.154	200.87
802.334	366.76
802.514	262.31
802.693	161.96
802.873	229.54
803.053	243.88
803.233	243.88
803.413	213.16
803.592	270.5
803.772	321.7
803.952	258.21
804.131	215.21
804.311	200.87
804.491	280.74
804.67	229.54
804.85	135.34
805.03	313.51
805.209	190.63
805.389	237.74
805.568	204.97
805.748	276.65
805.928	129.19
806.107	223.4
806.287	221.35
806.466	188.58
806.646	186.54
806.825	123.05
807.004	194.73
807.184	247.97
807.363	260.26
807.543	178.34
807.722	172.2
807.901	319.65
808.081	252.07
808.26	147.62
808.439	213.16
808.619	198.82
808.798	202.92
808.977	243.88
809.156	243.88
809.336	135.34
809.515	223.4
809.694	260.26
809.873	129.19
810.052	178.34
810.231	172.2
810.411	229.54
810.59	178.34
810.769	170.15
810.948	133.29
811.127	106.67
811.306	114.86
811.485	237.74
811.664	131.24
811.843	149.67
812.022	114.86
812.201	166.06
812.38	141.48
812.559	243.88
812.737	166.06
812.916	137.38
813.095	92.33
813.274	149.67
813.453	178.34
813.632	172.2
813.811	155.82
813.989	112.81
814.168	243.88
814.347	188.58
814.526	172.2
814.704	290.98
814.883	227.5
815.062	96.43
815.24	215.21
815.419	108.71
815.598	178.34
815.776	145.58
815.955	178.34
816.133	129.19
816.312	110.76
816.49	108.71
816.669	147.62
816.847	202.92
817.026	131.24
817.204	215.21
817.383	153.77
817.561	202.92
817.74	174.25
817.918	108.71
818.097	106.67
818.275	55.47
818.453	235.69
818.632	172.2
818.81	98.47
818.988	135.34
819.167	92.33
819.345	123.05
819.523	82.09
819.701	49.32
819.879	137.38
820.058	84.14
820.236	121
820.414	139.43
820.592	141.48
820.77	77.99
820.948	155.82
821.127	121
821.305	121
821.483	161.96
821.661	106.67
821.839	229.54
822.017	22.7
822.195	116.9
822.373	135.34
822.551	51.37
822.729	116.9
822.907	30.89
823.085	166.06
823.262	145.58
823.44	84.14
823.618	112.81
823.796	77.99
823.974	166.06
824.152	84.14
824.329	94.38
824.507	108.71
824.685	129.19
824.863	151.72
825.04	96.43
825.218	28.84
825.396	51.37
825.574	159.91
825.751	110.76
825.929	174.25
826.107	73.9
826.284	149.67
826.462	121
826.639	96.43
826.817	-34.64
826.994	121
827.172	55.47
827.349	166.06
827.527	145.58
827.704	145.58
827.882	147.62
828.059	94.38
828.237	92.33
828.414	123.05
828.591	51.37
828.769	39.08
828.946	16.55
829.124	161.96
829.301	88.23
829.478	118.95
829.655	112.81
829.833	98.47
830.01	63.66
830.187	174.25
830.364	63.66
830.542	112.81
830.719	75.95
830.896	112.81
831.073	104.62
831.25	34.99
831.427	84.14
831.604	69.8
831.782	57.51
831.959	100.52
832.136	65.71
832.313	129.19
832.49	104.62
832.667	92.33
832.844	104.62
833.021	116.9
833.198	-8.02
833.374	63.66
833.551	121
833.728	63.66
833.905	55.47
834.082	39.08
834.259	63.66
834.436	88.23
834.612	6.31
834.789	65.71
834.966	61.61
835.143	86.19
835.319	39.08
835.496	114.86
835.673	49.32
835.85	16.55
836.026	77.99
836.203	82.09
836.38	41.13
836.556	63.66
836.733	106.67
836.909	133.29
837.086	71.85
837.262	-1.88
837.439	49.32
837.616	63.66
837.792	92.33
837.968	88.23
838.145	-32.6
838.321	73.9
838.498	100.52
838.674	90.28
838.851	34.99
839.027	14.51
839.203	26.79
839.38	112.81
839.556	22.7
839.732	45.23
839.909	80.04
840.085	26.79
840.261	10.41
840.437	71.85
840.614	-1.88
840.79	47.27
840.966	63.66
841.142	63.66
841.318	-10.07
841.494	45.23
841.671	-16.21
841.847	14.51
842.023	-1.88
842.199	63.66
842.375	110.76
842.551	6.31
842.727	16.55
842.903	75.95
843.079	63.66
843.255	112.81
843.431	114.86
843.607	96.43
843.783	-32.6
843.959	133.29
844.134	-3.93
844.31	43.18
844.486	39.08
844.662	-5.97
844.838	98.47
845.013	63.66
845.189	30.89
845.365	73.9
845.541	49.32
845.716	32.94
845.892	131.24
846.068	75.95
846.244	32.94
846.419	108.71
846.595	-8.02
846.77	10.41
846.946	108.71
847.122	-46.93
847.297	75.95
847.473	75.95
847.648	39.08
847.824	71.85
847.999	-61.27
848.175	63.66
848.35	69.8
848.526	49.32
848.701	80.04
848.876	104.62
849.052	73.9
849.227	22.7
849.403	73.9
849.578	96.43
849.753	0.17
849.929	98.47
850.104	71.85
850.279	-59.22
850.454	30.89
850.63	114.86
850.805	59.56
850.98	39.08
851.155	41.13
851.33	51.37
851.505	37.03
851.681	96.43
851.856	12.46
852.031	106.67
852.206	73.9
852.381	47.27
852.556	2.22
852.731	12.46
852.906	22.7
853.081	26.79
853.256	14.51
853.431	34.99
853.606	-8.02
853.781	55.47
853.956	-12.12
854.131	55.47
854.305	-18.26
854.48	49.32
854.655	0.17
854.83	16.55
855.005	-18.26
855.18	80.04
855.354	-5.97
855.529	39.08
855.704	-24.4
855.879	28.84
856.053	51.37
856.228	47.27
856.403	22.7
856.577	22.7
856.752	26.79
856.926	34.99
857.101	14.51
857.276	-42.84
857.45	14.51
857.625	26.79
857.799	41.13
857.974	-26.45
858.148	2.22
858.323	18.6
858.497	-14.17
858.672	63.66
858.846	59.56
859.02	-5.97
859.195	-44.88
859.369	65.71
859.543	-20.31
859.718	63.66
859.892	32.94
860.066	18.6
860.241	26.79
860.415	22.7
860.589	34.99
860.763	32.94
860.938	55.47
861.112	2.22
861.286	2.22
861.46	14.51
861.634	49.32
861.808	100.52
861.982	-85.84
862.157	-14.17
862.331	-30.55
862.505	0.17
862.679	30.89
862.853	6.31
863.027	-34.64
863.201	63.66
863.375	-5.97
863.549	30.89
863.722	-42.84
863.896	96.43
864.07	8.36
864.244	-26.45
864.418	47.27
864.592	34.99
864.766	55.47
864.939	-32.6
865.113	16.55
865.287	59.56
865.461	-3.93
865.634	92.33
865.808	-30.55
865.982	-40.79
866.156	59.56
866.329	26.79
866.503	-1.88
866.676	73.9
866.85	47.27
867.024	26.79
867.197	55.47
867.371	84.14
867.544	61.61
867.718	-26.45
867.891	96.43
868.065	-16.21
868.238	71.85
868.412	-1.88
868.585	-1.88
868.759	-32.6
868.932	77.99
869.105	-24.4
869.279	49.32
869.452	-42.84
869.625	34.99
869.799	96.43
869.972	0.17
870.145	39.08
870.319	12.46
870.492	-14.17
870.665	-65.36
870.838	37.03
871.011	-48.98
871.185	45.23
871.358	-14.17
871.531	22.7
871.704	16.55
871.877	-26.45
872.05	-77.65
872.223	-10.07
872.396	16.55
872.569	55.47
872.742	-71.51
872.915	32.94
873.088	-18.26
873.261	24.75
873.434	8.36
873.607	-24.4
873.78	16.55
873.953	-18.26
874.126	39.08
874.299	75.95
874.471	14.51
874.644	57.51
874.817	32.94
874.99	2.22
875.163	10.41
875.335	8.36
875.508	-16.21
875.681	47.27
875.853	10.41
876.026	-1.88
876.199	-28.5
876.371	22.7
876.544	14.51
876.717	-59.22
876.889	-34.64
877.062	47.27
877.234	12.46
877.407	-8.02
877.579	2.22
877.752	110.76
877.924	69.8
878.097	55.47
878.269	-5.97
878.442	55.47
878.614	26.79
878.786	24.75
878.959	57.51
879.131	8.36
879.303	-28.5
879.476	2.22
879.648	6.31
879.82	86.19
879.993	-61.27
880.165	-48.98
880.337	2.22
880.509	16.55
880.681	-106.32
880.854	-22.36
881.026	71.85
881.198	110.76
881.37	10.41
881.542	98.47
881.714	16.55
881.886	34.99
882.058	-40.79
882.23	-18.26
882.402	-24.4
882.574	37.03
882.746	-14.17
882.918	16.55
883.09	-26.45
883.262	22.7
883.434	-42.84
883.606	14.51
883.778	63.66
883.95	112.81
884.122	-26.45
884.293	71.85
884.465	-5.97
884.637	47.27
884.809	-48.98
884.98	-5.97
885.152	-26.45
885.324	49.32
885.496	-46.93
885.667	-24.4
885.839	47.27
886.011	71.85
886.182	-14.17
886.354	84.14
886.525	14.51
886.697	8.36
886.869	-16.21
887.04	14.51
887.212	71.85
887.383	41.13
887.555	49.32
887.726	-59.22
887.897	-16.21
888.069	55.47
888.24	-8.02
888.412	51.37
888.583	14.51
888.754	34.99
888.926	-38.74
889.097	8.36
889.268	22.7
889.44	-1.88
889.611	-5.97
889.782	-5.97
889.953	-63.32
890.125	22.7
890.296	-79.7
890.467	-26.45
890.638	8.36
890.809	22.7
890.98	-85.84
891.151	14.51
891.323	10.41
891.494	10.41
891.665	-40.79
891.836	30.89
892.007	10.41
892.178	14.51
892.349	-26.45
892.52	-87.89
892.691	-3.93
892.862	6.31
893.032	-96.08
893.203	-42.84
893.374	51.37
893.545	14.51
893.716	-8.02
893.887	24.75
894.057	16.55
894.228	20.65
894.399	-59.22
894.57	-1.88
894.74	4.27
894.911	37.03
895.082	-3.93
895.253	-8.02
895.423	14.51
895.594	6.31
895.764	0.17
895.935	-14.17
896.106	24.75
896.276	-16.21
896.447	-63.32
896.617	55.47
896.788	6.31
896.958	-46.93
897.129	-91.99
897.299	-32.6
897.47	28.84
897.64	57.51
897.81	30.89
897.981	10.41
898.151	-1.88
898.322	0.17
898.492	0.17
898.662	-14.17
898.832	-5.97
899.003	10.41
899.173	2.22
899.343	-96.08
899.513	-34.64
