Data from USB4F104151__178__14-32-44-735.txt Node

Date: Thu Mar 13 14:32:44 EDT 2025
User: louis
Spectrometer: USB4F10415
Trigger mode: 4
Integration Time (sec): 2.500000E-2
Scans to average: 1
Electric dark correction enabled: true
Nonlinearity correction enabled: false
Boxcar width: 0
XAxis mode: Wavelengths
Number of Pixels in Spectrum: 3648
>>>>>Begin Spectral Data<<<<<
178.204	-126.63
178.424	-126.63
178.644	-126.63
178.864	-122.54
179.084	-143.02
179.304	65.88
179.524	-16.04
179.744	-54.95
179.964	29.01
180.184	45.4
180.404	-50.86
180.624	8.53
180.844	-9.9
181.064	-54.95
181.283	-9.9
181.503	39.25
181.723	8.53
181.943	-20.14
182.163	123.22
182.383	4.44
182.602	47.44
182.822	53.59
183.042	74.07
183.262	20.82
183.482	78.16
183.701	12.63
183.921	53.59
184.141	65.88
184.361	72.02
184.58	10.58
184.8	45.4
185.02	33.11
185.239	112.98
185.459	72.02
185.679	43.35
185.898	-24.23
186.118	65.88
186.338	24.92
186.557	12.63
186.777	33.11
186.997	65.88
187.216	4.44
187.436	72.02
187.655	106.84
187.875	47.44
188.095	110.93
188.314	102.74
188.534	80.21
188.753	45.4
188.973	22.87
189.192	69.97
189.412	47.44
189.631	74.07
189.851	37.2
190.07	65.88
190.29	47.44
190.509	22.87
190.729	41.3
190.948	22.87
191.168	135.51
191.387	72.02
191.607	4.44
191.826	20.82
192.045	-36.52
192.265	41.3
192.484	-20.14
192.704	39.25
192.923	16.73
193.142	65.88
193.362	69.97
193.581	72.02
193.8	33.11
194.02	112.98
194.239	49.49
194.458	57.68
194.678	98.64
194.897	61.78
195.116	100.69
195.335	31.06
195.555	-16.04
195.774	-7.85
195.993	112.98
196.212	47.44
196.432	74.07
196.651	-11.95
196.87	55.64
197.089	139.6
197.308	96.6
197.528	55.64
197.747	76.12
197.966	160.08
198.185	115.03
198.404	16.73
198.623	82.26
198.842	137.56
199.062	69.97
199.281	121.17
199.5	65.88
199.719	153.94
199.938	100.69
200.157	45.4
200.376	61.78
200.595	-3.75
200.814	55.64
201.033	0.34
201.252	69.97
201.471	96.6
201.69	67.92
201.909	119.12
202.128	78.16
202.347	20.82
202.566	88.4
202.785	-38.57
203.004	-36.52
203.223	112.98
203.442	82.26
203.661	6.49
203.879	53.59
204.098	102.74
204.317	59.73
204.536	176.47
204.755	29.01
204.974	65.88
205.193	72.02
205.411	69.97
205.63	51.54
205.849	84.31
206.068	74.07
206.287	29.01
206.505	-11.95
206.724	41.3
206.943	74.07
207.162	53.59
207.381	94.55
207.599	102.74
207.818	24.92
208.037	55.64
208.255	-36.52
208.474	78.16
208.693	69.97
208.911	72.02
209.13	37.2
209.349	82.26
209.567	96.6
209.786	6.49
210.005	61.78
210.223	110.93
210.442	37.2
210.661	45.4
210.879	-16.04
211.098	37.2
211.316	-11.95
211.535	94.55
211.753	26.96
211.972	37.2
212.191	55.64
212.409	29.01
212.628	6.49
212.846	-7.85
213.065	39.25
213.283	65.88
213.502	59.73
213.72	45.4
213.938	37.2
214.157	31.06
214.375	63.83
214.594	8.53
214.812	45.4
215.031	31.06
215.249	-24.23
215.467	102.74
215.686	55.64
215.904	168.27
216.122	31.06
216.341	59.73
216.559	24.92
216.778	121.17
216.996	37.2
217.214	53.59
217.432	53.59
217.651	14.68
217.869	4.44
218.087	47.44
218.306	-28.33
218.524	65.88
218.742	-9.9
218.96	65.88
219.179	102.74
219.397	63.83
219.615	78.16
219.833	69.97
220.051	33.11
220.27	39.25
220.488	90.45
220.706	31.06
220.924	39.25
221.142	22.87
221.36	-42.67
221.578	65.88
221.796	0.34
222.015	24.92
222.233	-48.81
222.451	39.25
222.669	-42.67
222.887	86.36
223.105	-34.47
223.323	108.88
223.541	-34.47
223.759	69.97
223.977	-1.71
224.195	69.97
224.413	112.98
224.631	86.36
224.849	37.2
225.067	37.2
225.285	55.64
225.503	94.55
225.721	-9.9
225.939	-9.9
226.157	57.68
226.375	147.8
226.592	-48.81
226.81	16.73
227.028	112.98
227.246	153.94
227.464	29.01
227.682	41.3
227.9	29.01
228.117	108.88
228.335	74.07
228.553	47.44
228.771	125.27
228.989	61.78
229.206	63.83
229.424	80.21
229.642	-16.04
229.86	20.82
230.077	57.68
230.295	127.32
230.513	88.4
230.731	63.83
230.948	69.97
231.166	135.51
231.384	-3.75
231.601	-36.52
231.819	112.98
232.037	16.73
232.254	4.44
232.472	29.01
232.689	55.64
232.907	61.78
233.125	74.07
233.342	37.2
233.56	82.26
233.777	88.4
233.995	63.83
234.213	119.12
234.43	63.83
234.648	37.2
234.865	84.31
235.083	123.22
235.3	100.69
235.518	76.12
235.735	110.93
235.953	74.07
236.17	31.06
236.388	90.45
236.605	49.49
236.822	117.08
237.04	20.82
237.257	61.78
237.475	90.45
237.692	18.77
237.909	96.6
238.127	-3.75
238.344	18.77
238.562	29.01
238.779	16.73
238.996	78.16
239.214	20.82
239.431	57.68
239.648	-28.33
239.865	86.36
240.083	45.4
240.3	37.2
240.517	6.49
240.735	69.97
240.952	82.26
241.169	39.25
241.386	74.07
241.603	63.83
241.821	-18.09
242.038	82.26
242.255	74.07
242.472	53.59
242.689	61.78
242.907	49.49
243.124	59.73
243.341	47.44
243.558	49.49
243.775	-7.85
243.992	24.92
244.209	57.68
244.426	180.56
244.643	37.2
244.86	39.25
245.078	82.26
245.295	-13.99
245.512	67.92
245.729	69.97
245.946	86.36
246.163	-11.95
246.38	88.4
246.597	110.93
246.814	94.55
247.031	35.16
247.248	49.49
247.464	115.03
247.681	94.55
247.898	14.68
248.115	29.01
248.332	69.97
248.549	47.44
248.766	104.79
248.983	63.83
249.2	-16.04
249.417	102.74
249.633	-3.75
249.85	41.3
250.067	-18.09
250.284	53.59
250.501	37.2
250.717	90.45
250.934	61.78
251.151	51.54
251.368	47.44
251.585	61.78
251.801	145.75
252.018	8.53
252.235	78.16
252.451	78.16
252.668	104.79
252.885	43.35
253.102	53.59
253.318	24.92
253.535	61.78
253.752	84.31
253.968	29.01
254.185	74.07
254.401	127.32
254.618	80.21
254.835	55.64
255.051	135.51
255.268	86.36
255.484	24.92
255.701	24.92
255.917	69.97
256.134	72.02
256.351	12.63
256.567	14.68
256.784	78.16
257	12.63
257.217	22.87
257.433	72.02
257.65	92.5
257.866	59.73
258.082	22.87
258.299	69.97
258.515	86.36
258.732	53.59
258.948	90.45
259.165	69.97
259.381	78.16
259.597	74.07
259.814	20.82
260.03	76.12
260.246	45.4
260.463	29.01
260.679	49.49
260.895	39.25
261.112	41.3
261.328	29.01
261.544	39.25
261.761	49.49
261.977	47.44
262.193	4.44
262.409	61.78
262.626	135.51
262.842	129.36
263.058	78.16
263.274	96.6
263.49	12.63
263.707	86.36
263.923	43.35
264.139	29.01
264.355	12.63
264.571	90.45
264.787	69.97
265.004	22.87
265.22	12.63
265.436	8.53
265.652	57.68
265.868	61.78
266.084	4.44
266.3	57.68
266.516	16.73
266.732	29.01
266.948	45.4
267.164	69.97
267.38	147.8
267.596	69.97
267.812	98.64
268.028	65.88
268.244	24.92
268.46	12.63
268.676	55.64
268.892	-9.9
269.108	-3.75
269.324	59.73
269.54	41.3
269.756	74.07
269.972	12.63
270.188	35.16
270.403	-36.52
270.619	49.49
270.835	20.82
271.051	69.97
271.267	-36.52
271.483	-20.14
271.698	139.6
271.914	57.68
272.13	45.4
272.346	20.82
272.562	74.07
272.777	39.25
272.993	102.74
273.209	20.82
273.425	41.3
273.64	12.63
273.856	69.97
274.072	47.44
274.287	-20.14
274.503	61.78
274.719	143.7
274.934	92.5
275.15	37.2
275.366	12.63
275.581	102.74
275.797	49.49
276.012	63.83
276.228	112.98
276.444	29.01
276.659	102.74
276.875	24.92
277.09	24.92
277.306	-20.14
277.521	115.03
277.737	4.44
277.952	78.16
278.168	69.97
278.383	69.97
278.599	-3.75
278.814	74.07
279.03	49.49
279.245	78.16
279.461	14.68
279.676	69.97
279.892	41.3
280.107	-11.95
280.322	-46.76
280.538	80.21
280.753	24.92
280.969	-1.71
281.184	72.02
281.399	53.59
281.615	74.07
281.83	20.82
282.045	6.49
282.26	57.68
282.476	82.26
282.691	72.02
282.906	104.79
283.122	39.25
283.337	-32.43
283.552	72.02
283.767	57.68
283.983	47.44
284.198	-20.14
284.413	72.02
284.628	-52.91
284.843	102.74
285.058	110.93
285.274	51.54
285.489	-11.95
285.704	90.45
285.919	45.4
286.134	20.82
286.349	84.31
286.564	37.2
286.779	135.51
286.995	37.2
287.21	-7.85
287.425	98.64
287.64	37.2
287.855	47.44
288.07	-9.9
288.285	45.4
288.5	26.96
288.715	-26.28
288.93	22.87
289.145	-5.8
289.36	69.97
289.575	-11.95
289.79	0.34
290.004	29.01
290.219	63.83
290.434	-16.04
290.649	6.49
290.864	37.2
291.079	0.34
291.294	22.87
291.509	18.77
291.724	-3.75
291.938	-13.99
292.153	78.16
292.368	-69.29
292.583	33.11
292.798	102.74
293.012	45.4
293.227	20.82
293.442	86.36
293.657	69.97
293.871	31.06
294.086	84.31
294.301	78.16
294.516	57.68
294.73	31.06
294.945	39.25
295.16	55.64
295.374	102.74
295.589	96.6
295.804	53.59
296.018	112.98
296.233	143.7
296.447	37.2
296.662	78.16
296.877	12.63
297.091	61.78
297.306	102.74
297.52	-20.14
297.735	49.49
297.949	-11.95
298.164	37.2
298.378	10.58
298.593	31.06
298.807	18.77
299.022	2.39
299.236	-3.75
299.451	4.44
299.665	6.49
299.88	53.59
300.094	53.59
300.309	84.31
300.523	8.53
300.737	-18.09
300.952	90.45
301.166	51.54
301.381	14.68
301.595	37.2
301.809	39.25
302.024	31.06
302.238	-16.04
302.452	115.03
302.667	72.02
302.881	127.32
303.095	-16.04
303.309	104.79
303.524	-20.14
303.738	-7.85
303.952	67.92
304.166	12.63
304.381	59.73
304.595	20.82
304.809	6.49
305.023	131.41
305.237	47.44
305.452	-9.9
305.666	63.83
305.88	153.94
306.094	35.16
306.308	117.08
306.522	45.4
306.736	49.49
306.95	92.5
307.164	53.59
307.379	31.06
307.593	108.88
307.807	49.49
308.021	80.21
308.235	117.08
308.449	14.68
308.663	110.93
308.877	78.16
309.091	-36.52
309.305	-24.23
309.519	-20.14
309.733	76.12
309.947	61.78
310.161	110.93
310.374	82.26
310.588	45.4
310.802	6.49
311.016	74.07
311.23	47.44
311.444	55.64
311.658	98.64
311.872	115.03
312.085	37.2
312.299	47.44
312.513	39.25
312.727	49.49
312.941	80.21
313.154	-3.75
313.368	53.59
313.582	-20.14
313.796	72.02
314.009	55.64
314.223	22.87
314.437	39.25
314.651	55.64
314.864	45.4
315.078	0.34
315.292	22.87
315.505	43.35
315.719	41.3
315.933	55.64
316.146	16.73
316.36	14.68
316.573	86.36
316.787	76.12
317.001	63.83
317.214	-1.71
317.428	69.97
317.641	-44.71
317.855	20.82
318.068	37.2
318.282	14.68
318.495	115.03
318.709	121.17
318.922	20.82
319.136	168.27
319.349	88.4
319.563	33.11
319.776	74.07
319.99	16.73
320.203	88.4
320.417	65.88
320.63	100.69
320.843	82.26
321.057	96.6
321.27	55.64
321.483	61.78
321.697	59.73
321.91	86.36
322.124	37.2
322.337	-24.23
322.55	41.3
322.763	-1.71
322.977	37.2
323.19	8.53
323.403	6.49
323.617	78.16
323.83	65.88
324.043	43.35
324.256	12.63
324.469	-85.67
324.683	45.4
324.896	33.11
325.109	110.93
325.322	-1.71
325.535	61.78
325.748	-3.75
325.962	63.83
326.175	72.02
326.388	72.02
326.601	33.11
326.814	4.44
327.027	33.11
327.24	115.03
327.453	41.3
327.666	53.59
327.879	139.6
328.092	155.99
328.305	61.78
328.518	4.44
328.731	4.44
328.944	76.12
329.157	12.63
329.37	29.01
329.583	61.78
329.796	90.45
330.009	6.49
330.222	102.74
330.435	74.07
330.648	51.54
330.861	102.74
331.073	104.79
331.286	102.74
331.499	29.01
331.712	0.34
331.925	-3.75
332.138	102.74
332.35	205.14
332.563	14.68
332.776	121.17
332.989	80.21
333.202	14.68
333.414	47.44
333.627	-20.14
333.84	33.11
334.053	57.68
334.265	-9.9
334.478	31.06
334.691	94.55
334.903	61.78
335.116	61.78
335.329	41.3
335.541	106.84
335.754	170.32
335.966	96.6
336.179	47.44
336.392	37.2
336.604	45.4
336.817	104.79
337.029	37.2
337.242	33.11
337.454	29.01
337.667	37.2
337.88	24.92
338.092	-1.71
338.305	84.31
338.517	61.78
338.729	98.64
338.942	43.35
339.154	41.3
339.367	-26.28
339.579	106.84
339.792	-11.95
340.004	102.74
340.217	53.59
340.429	115.03
340.641	43.35
340.854	-24.23
341.066	63.83
341.278	96.6
341.491	80.21
341.703	88.4
341.915	29.01
342.128	84.31
342.34	45.4
342.552	37.2
342.764	29.01
342.977	24.92
343.189	43.35
343.401	20.82
343.613	-9.9
343.826	61.78
344.038	-5.8
344.25	63.83
344.462	115.03
344.674	53.59
344.886	88.4
345.099	45.4
345.311	55.64
345.523	55.64
345.735	20.82
345.947	33.11
346.159	82.26
346.371	6.49
346.583	49.49
346.795	135.51
347.007	-11.95
347.219	127.32
347.431	47.44
347.643	67.92
347.855	41.3
348.067	49.49
348.279	-87.72
348.491	72.02
348.703	24.92
348.915	20.82
349.127	39.25
349.339	61.78
349.551	22.87
349.763	110.93
349.975	104.79
350.187	69.97
350.399	86.36
350.61	139.6
350.822	90.45
351.034	115.03
351.246	0.34
351.458	94.55
351.669	108.88
351.881	49.49
352.093	94.55
352.305	135.51
352.517	41.3
352.728	143.7
352.94	6.49
353.152	102.74
353.363	102.74
353.575	53.59
353.787	82.26
353.999	53.59
354.21	69.97
354.422	20.82
354.633	63.83
354.845	82.26
355.057	65.88
355.268	94.55
355.48	37.2
355.692	-16.04
355.903	55.64
356.115	4.44
356.326	24.92
356.538	63.83
356.749	31.06
356.961	65.88
357.172	37.2
357.384	35.16
357.595	86.36
357.807	100.69
358.018	78.16
358.23	12.63
358.441	92.5
358.653	110.93
358.864	65.88
359.075	72.02
359.287	24.92
359.498	39.25
359.709	47.44
359.921	86.36
360.132	26.96
360.344	127.32
360.555	37.2
360.766	51.54
360.977	74.07
361.189	98.64
361.4	39.25
361.611	94.55
361.823	55.64
362.034	8.53
362.245	-11.95
362.456	-3.75
362.667	61.78
362.879	22.87
363.09	22.87
363.301	14.68
363.512	100.69
363.723	84.31
363.935	61.78
364.146	43.35
364.357	102.74
364.568	37.2
364.779	22.87
364.99	78.16
365.201	47.44
365.412	49.49
365.623	18.77
365.834	135.51
366.045	45.4
366.256	49.49
366.467	37.2
366.678	61.78
366.889	98.64
367.1	43.35
367.311	39.25
367.522	12.63
367.733	106.84
367.944	153.94
368.155	4.44
368.366	82.26
368.577	115.03
368.788	78.16
368.999	26.96
369.209	174.42
369.42	178.51
369.631	100.69
369.842	102.74
370.053	168.27
370.264	57.68
370.474	98.64
370.685	35.16
370.896	-1.71
371.107	129.36
371.317	72.02
371.528	-16.04
371.739	72.02
371.95	78.16
372.16	14.68
372.371	8.53
372.582	53.59
372.792	29.01
373.003	69.97
373.214	88.4
373.424	45.4
373.635	24.92
373.846	80.21
374.056	33.11
374.267	43.35
374.477	24.92
374.688	-9.9
374.898	24.92
375.109	98.64
375.319	72.02
375.53	14.68
375.74	86.36
375.951	16.73
376.161	86.36
376.372	63.83
376.582	43.35
376.793	37.2
377.003	18.77
377.214	61.78
377.424	24.92
377.635	53.59
377.845	86.36
378.055	-11.95
378.266	49.49
378.476	94.55
378.686	49.49
378.897	61.78
379.107	24.92
379.317	41.3
379.528	47.44
379.738	102.74
379.948	39.25
380.158	6.49
380.369	53.59
380.579	151.89
380.789	90.45
380.999	24.92
381.21	110.93
381.42	153.94
381.63	37.2
381.84	24.92
382.05	72.02
382.261	88.4
382.471	61.78
382.681	137.56
382.891	53.59
383.101	37.2
383.311	-16.04
383.521	20.82
383.731	147.8
383.941	53.59
384.151	47.44
384.361	69.97
384.571	123.22
384.781	82.26
384.991	98.64
385.201	147.8
385.411	129.36
385.621	78.16
385.831	61.78
386.041	8.53
386.251	104.79
386.461	106.84
386.671	49.49
386.881	55.64
387.091	-1.71
387.301	72.02
387.511	16.73
387.72	6.49
387.93	61.78
388.14	4.44
388.35	119.12
388.56	55.64
388.769	119.12
388.979	164.18
389.189	51.54
389.399	125.27
389.609	131.41
389.818	94.55
390.028	-38.57
390.238	74.07
390.447	98.64
390.657	137.56
390.867	94.55
391.076	49.49
391.286	74.07
391.496	86.36
391.705	39.25
391.915	20.82
392.125	131.41
392.334	29.01
392.544	121.17
392.753	102.74
392.963	-20.14
393.172	94.55
393.382	90.45
393.591	110.93
393.801	45.4
394.01	149.84
394.22	86.36
394.429	29.01
394.639	78.16
394.848	112.98
395.058	76.12
395.267	53.59
395.477	53.59
395.686	139.6
395.895	131.41
396.105	110.93
396.314	80.21
396.524	69.97
396.733	0.34
396.942	135.51
397.152	41.3
397.361	108.88
397.57	96.6
397.78	110.93
397.989	108.88
398.198	155.99
398.407	90.45
398.617	112.98
398.826	98.64
399.035	63.83
399.244	104.79
399.453	102.74
399.663	57.68
399.872	133.46
400.081	26.96
400.29	188.75
400.499	65.88
400.708	110.93
400.917	115.03
401.127	88.4
401.336	115.03
401.545	131.41
401.754	104.79
401.963	82.26
402.172	94.55
402.381	29.01
402.59	94.55
402.799	78.16
403.008	151.89
403.217	69.97
403.426	155.99
403.635	18.77
403.844	69.97
404.053	131.41
404.262	100.69
404.471	178.51
404.68	20.82
404.888	127.32
405.097	78.16
405.306	90.45
405.515	123.22
405.724	100.69
405.933	147.8
406.142	176.47
406.35	135.51
406.559	170.32
406.768	149.84
406.977	209.23
407.185	192.85
407.394	194.9
407.603	135.51
407.812	184.66
408.02	117.08
408.229	207.19
408.438	254.29
408.646	172.37
408.855	205.14
409.064	201.04
409.272	139.6
409.481	309.58
409.69	186.71
409.898	127.32
410.107	270.67
410.315	194.9
410.524	209.23
410.733	307.54
410.941	315.73
411.15	262.48
411.358	307.54
411.567	254.29
411.775	330.06
411.984	291.15
412.192	360.78
412.401	325.97
412.609	381.26
412.818	383.31
413.026	309.58
413.234	407.89
413.443	422.22
413.651	325.97
413.86	391.5
414.068	356.69
414.276	495.95
414.485	479.57
414.693	495.95
414.901	561.48
415.11	506.19
415.318	508.24
415.526	555.34
415.734	508.24
415.943	557.39
416.151	569.68
416.359	596.3
416.567	547.15
416.776	635.21
416.984	659.79
417.192	659.79
417.4	694.6
417.608	735.56
417.817	760.14
418.025	831.82
418.233	831.82
418.441	741.71
418.649	921.93
418.857	880.97
419.065	833.86
419.273	856.39
419.481	979.27
419.689	1020.23
419.897	1022.28
420.105	1139.01
420.313	1143.11
420.521	1272.13
420.729	1200.45
420.937	1087.81
421.145	1235.27
421.353	1259.84
421.561	1421.63
421.769	1380.67
421.977	1392.96
422.185	1438.02
422.393	1433.92
422.601	1618.24
422.809	1636.67
423.017	1618.24
423.224	1716.54
423.432	1814.84
423.64	1726.78
423.848	1814.84
424.056	1876.28
424.263	1990.97
424.471	2052.41
424.679	2079.03
424.887	2105.65
425.094	2281.78
425.302	2183.48
425.51	2210.1
425.718	2392.37
425.925	2382.13
426.133	2617.65
426.341	2691.37
426.548	2767.15
426.756	2695.47
426.964	2781.48
427.171	2906.41
427.379	2982.18
427.586	2986.28
427.794	3129.64
428.001	3316
428.209	3436.83
428.417	3326.24
428.624	3670.3
428.832	3563.81
429.039	3512.61
429.247	3694.88
429.454	3866.91
429.662	4079.9
429.869	3823.9
430.076	4088.09
430.284	4043.03
430.491	4116.76
430.699	4528.4
430.906	4393.23
431.114	4509.97
431.321	4612.37
431.528	4780.3
431.736	4997.39
431.943	5290.24
432.15	5118.22
432.358	5056.78
432.565	5402.88
432.772	5271.81
432.979	5775.61
433.187	5695.74
433.394	5873.92
433.601	6310.13
433.808	6390
434.016	6207.73
434.223	6332.66
434.43	6721.77
434.637	6768.88
434.844	7246.05
435.052	7203.05
435.259	7135.46
435.466	7356.65
435.673	7133.42
435.88	7794.91
436.087	8173.78
436.294	7928.03
436.501	7825.63
436.708	7866.59
436.915	8290.52
437.122	8610
437.329	8560.85
437.537	8591.57
437.743	8917.2
437.95	8999.12
438.157	9418.95
438.364	9599.17
438.571	9769.15
438.778	9711.81
438.985	10584.24
439.192	10399.93
439.399	10447.03
439.606	10221.75
439.813	10907.82
440.02	11622.56
440.227	11176.11
440.433	11120.81
440.64	11587.75
440.847	11792.55
441.054	11860.13
441.261	12630.16
441.467	12343.45
441.674	12861.59
441.881	13267.08
442.088	12908.69
442.294	13037.71
442.501	13373.58
442.708	13512.84
442.914	14041.22
443.121	14534.78
443.328	14319.74
443.534	15235.18
443.741	14704.76
443.948	14661.75
444.154	15677.54
444.361	15870.05
444.568	15919.2
444.774	15343.72
444.981	15841.38
445.187	16244.83
445.394	17041.49
445.6	16701.53
445.807	18432.06
446.013	17571.91
446.22	18053.19
446.426	18780.21
446.633	18864.18
446.839	19296.3
447.046	18626.62
447.252	19712.04
447.459	19605.55
447.665	19701.8
447.871	20346.91
448.078	21145.62
448.284	20144.16
448.491	20711.45
448.697	21665.8
448.903	22161.41
449.11	21989.38
449.316	21784.58
449.522	22128.64
449.728	22743.03
449.935	22861.82
450.141	23281.65
450.347	23371.76
450.553	22571
450.76	22697.98
450.966	23672.81
451.172	23353.33
451.378	23889.9
451.584	23351.28
451.791	24360.93
451.997	24111.08
452.203	24446.94
452.409	24543.2
452.615	24444.9
452.821	23500.78
453.027	23250.93
453.233	24498.14
453.44	23320.56
453.646	23408.62
453.852	23685.1
454.058	24162.28
454.264	23173.11
454.47	23820.27
454.676	23226.35
454.882	24010.73
455.088	21848.07
455.294	22183.94
455.5	22532.09
455.705	22525.95
455.911	22050.82
456.117	21811.21
456.323	21229.59
456.529	20211.74
456.735	20914.2
456.941	20379.68
457.147	19933.22
457.352	19605.55
457.558	19261.49
457.764	19206.19
457.97	18765.88
458.176	18403.39
458.381	18309.18
458.587	17553.48
458.793	17543.24
458.999	16498.78
459.204	17705.03
459.41	17262.67
459.616	16363.61
459.821	15917.15
460.027	15984.74
460.233	15620.2
460.438	15163.5
460.644	15063.15
460.85	14342.27
461.055	14225.53
461.261	14071.93
461.466	13123.73
461.672	12472.47
461.878	13598.85
462.083	12847.25
462.289	12521.62
462.494	12361.88
462.7	11581.6
462.905	11573.41
463.111	11868.32
463.316	12095.64
463.522	11483.3
463.727	11591.84
463.932	11456.68
464.138	11448.49
464.343	11466.92
464.549	11206.83
464.754	11563.17
464.959	11464.87
465.165	11542.69
465.37	10967.21
465.575	10657.97
465.781	10997.93
465.986	11110.57
466.191	10698.93
466.397	10451.13
466.602	9932.99
466.807	10399.93
467.012	10475.7
467.218	10338.49
467.423	10064.06
467.628	10227.9
467.833	10727.6
468.038	10148.03
468.244	10064.06
468.449	10444.98
468.654	10004.67
468.859	9943.23
469.064	9832.64
469.269	9474.24
469.474	9656.51
469.679	9607.36
469.885	9277.64
470.09	9767.1
470.295	9564.36
470.5	9326.79
470.705	9281.74
470.91	9105.61
471.115	9128.14
471.32	9199.82
471.525	9203.91
471.73	8863.95
471.935	8902.86
472.139	8575.19
472.344	8564.95
472.549	8605.91
472.754	8521.94
472.959	8376.53
473.164	8147.16
473.369	8325.33
473.574	8290.52
473.778	8376.53
473.983	8220.89
474.188	8261.85
474.393	7930.08
474.598	7731.42
474.802	7766.24
475.007	7665.89
475.212	7725.28
475.417	7442.66
475.621	7471.33
475.826	7377.12
476.031	7311.59
476.235	7045.35
476.44	7168.23
476.645	7188.71
476.849	7223.53
477.054	7059.69
477.259	7041.26
477.463	7010.54
477.668	6877.42
477.872	6846.7
478.077	6850.8
478.282	6615.28
478.486	6766.83
478.691	6627.57
478.895	6678.77
479.1	6492.4
479.304	6543.6
479.509	6381.81
479.713	6445.3
479.918	6189.3
480.122	6136.06
480.326	6197.49
480.531	6252.79
480.735	6140.15
480.94	6213.88
481.144	6404.34
481.348	5894.4
481.553	6119.67
481.757	6107.38
481.961	6000.89
482.166	6189.3
482.37	6172.92
482.574	6011.13
482.778	5894.4
482.983	6113.53
483.187	6019.32
483.391	6123.77
483.595	6045.95
483.8	5986.55
484.004	5871.87
484.208	5923.07
484.412	5998.84
484.616	6144.25
484.821	6060.28
485.025	5820.67
485.229	5955.83
485.433	6117.62
485.637	6050.04
485.841	5918.97
486.045	5830.91
486.249	5976.31
486.453	5886.2
486.657	6009.08
486.861	5959.93
487.065	5828.86
487.269	5951.74
487.473	5814.52
487.677	5880.06
487.881	6007.03
488.085	5998.84
488.289	5970.17
488.493	5808.38
488.697	6041.85
488.901	6115.58
489.105	6101.24
489.309	5949.69
489.512	6027.51
489.716	6103.29
489.92	5994.75
490.124	6174.97
490.328	6111.48
490.531	6156.54
490.735	6031.61
490.939	6084.86
491.143	6162.68
491.346	6179.06
491.55	6230.26
491.754	6338.8
491.958	6232.31
492.161	6273.27
492.365	6449.39
492.569	6181.11
492.772	6236.41
492.976	6248.69
493.18	6357.24
493.383	6447.35
493.587	6455.54
493.79	6498.55
493.994	6287.61
494.197	6398.2
494.401	6422.77
494.605	6336.76
494.808	6443.25
495.012	6580.46
495.215	6811.89
495.419	6846.7
495.622	6707.44
495.825	6676.72
496.029	6820.08
496.232	6959.34
496.436	6807.79
496.639	7012.59
496.843	6861.04
497.046	7057.64
497.249	7213.29
497.453	7221.48
497.656	7168.23
497.859	7237.86
498.063	7352.55
498.266	7473.38
498.469	7362.79
498.673	7557.35
498.876	7717.09
499.079	7805.15
499.282	7684.32
499.485	7772.38
499.689	8012
499.892	8263.9
500.095	8077.53
500.298	8184.02
500.501	8147.16
500.705	8509.65
500.908	8587.47
501.111	8478.93
501.314	8675.54
501.517	8526.04
501.72	9005.26
501.923	8952.01
502.126	9081.03
502.329	9261.26
502.532	9238.73
502.735	9214.15
502.938	9427.14
503.141	9263.3
503.344	9511.11
503.547	9533.64
503.75	9703.62
503.953	9906.37
504.156	9998.52
504.359	9728.19
504.562	10059.96
504.765	10318.01
504.968	10262.71
505.17	10498.23
505.373	10647.73
505.576	10821.81
505.779	10692.79
505.982	10729.65
506.185	10950.83
506.387	10999.98
506.59	11145.39
506.793	11366.57
506.996	11196.59
507.198	11552.93
507.401	11385
507.604	11720.87
507.807	11917.47
508.009	12023.97
508.212	11901.09
508.415	12183.71
508.617	12327.07
508.82	12126.36
509.022	12171.42
509.225	12849.3
509.428	12744.85
509.63	12880.02
509.833	12736.66
510.035	13392.01
510.238	13336.71
510.44	13201.55
510.643	13627.53
510.845	13844.61
511.048	13590.66
511.25	13660.29
511.453	13891.71
511.655	14602.36
511.858	14297.21
512.06	14379.13
512.262	14600.31
512.465	14520.44
512.667	14694.52
512.87	14917.75
513.072	14954.61
513.274	15155.31
513.477	15122.54
513.679	15329.39
513.881	15423.59
514.084	15675.49
514.286	15949.92
514.488	15706.21
514.69	16185.44
514.893	16308.32
515.095	16244.83
515.297	16437.34
515.499	16717.91
515.701	16787.54
515.904	17004.63
516.106	17190.99
516.308	17371.21
516.51	17301.58
516.712	17494.09
516.914	17479.75
517.116	17842.25
517.318	17733.7
517.52	18133.06
517.722	18149.44
517.925	18219.07
518.127	18489.4
518.329	18358.33
518.531	18325.57
518.733	18821.17
518.935	18999.35
519.136	19032.11
519.338	19429.42
519.54	19134.51
519.742	19611.69
519.944	19447.85
520.146	19730.47
520.348	19761.19
520.55	19867.69
520.752	20062.24
520.954	20191.27
521.155	19886.12
521.357	20422.69
521.559	20469.79
521.761	20852.76
521.963	20523.04
522.164	20686.87
522.366	20903.96
522.568	20985.88
522.77	21018.64
522.971	21135.38
523.173	21041.17
523.375	21325.84
523.576	21524.49
523.778	21641.23
523.98	21770.25
524.181	21903.37
524.383	21807.11
524.584	22413.31
524.786	21932.04
524.988	21958.66
525.189	22331.39
525.391	21911.56
525.592	22059.01
525.794	22427.65
525.995	22118.4
526.197	22388.74
526.398	22159.36
526.6	22327.3
526.801	22417.41
527.003	22366.21
527.204	22239.23
527.406	22708.22
527.607	22853.62
527.808	22890.49
528.01	22278.15
528.211	22497.28
528.412	23146.48
528.614	22913.02
528.815	22816.76
529.016	23203.83
529.218	22843.38
529.419	22446.08
529.62	23271.41
529.822	22874.1
530.023	22982.65
530.224	22671.36
530.425	22700.03
530.626	22403.07
530.828	22640.64
531.029	23025.65
531.23	22509.57
531.431	22663.16
531.632	22589.44
531.833	22851.58
532.035	23005.17
532.236	22740.99
532.437	22716.41
532.638	22882.3
532.839	22888.44
533.04	22706.17
533.241	22759.42
533.442	22853.62
533.643	22745.08
533.844	22562.81
534.045	22790.14
534.246	22546.43
534.447	22753.27
534.648	22515.71
534.849	22364.16
535.05	22491.13
535.251	22503.42
535.451	22396.93
535.652	22566.91
535.853	22411.26
536.054	22157.32
536.255	22431.74
536.456	22231.04
536.657	22519.81
536.857	22382.59
537.058	22142.98
537.259	22122.5
537.46	22460.41
537.66	22104.07
537.861	21913.61
538.062	22009.86
538.263	22067.2
538.463	22267.91
538.664	21981.19
538.865	22409.22
539.065	22155.27
539.266	21856.26
539.466	22231.04
539.667	21745.67
539.868	22265.86
540.068	21983.24
540.269	21872.65
540.469	22323.2
540.67	21889.03
540.87	21606.41
541.071	21964.81
541.271	22022.15
541.472	21635.08
541.672	21790.73
541.873	21997.57
542.073	21297.17
542.274	22136.84
542.474	21880.84
542.675	21418
542.875	22071.3
543.075	22007.81
543.276	21397.52
543.476	21673.99
543.676	21790.73
543.877	21702.67
544.077	21518.35
544.277	21633.04
544.478	21657.61
544.678	21673.99
544.878	21686.28
545.078	21538.83
545.279	21450.77
545.479	21807.11
545.679	21434.38
545.879	21565.45
546.079	21577.74
546.28	21364.75
546.48	21409.81
546.68	21596.17
546.88	21655.56
547.08	21436.43
547.28	21532.68
547.48	21231.63
547.68	21784.58
547.88	21522.44
548.081	21422.09
548.281	21581.84
548.481	21501.97
548.681	21682.19
548.881	21676.04
549.081	21706.76
549.28	21374.99
549.48	21579.79
549.68	21465.1
549.88	21878.79
550.08	21411.85
550.28	21585.93
550.48	21669.9
550.68	21897.22
550.88	21573.64
551.08	21325.84
551.279	21858.31
551.479	21680.14
551.679	21565.45
551.879	21405.71
552.079	21968.9
552.278	21440.53
552.478	21669.9
552.678	21706.76
552.878	21942.28
553.077	21614.6
553.277	21614.6
553.477	22003.72
553.676	21647.37
553.876	21903.37
554.076	21723.15
554.275	21667.85
554.475	21473.29
554.674	21821.45
554.874	21667.85
555.074	22032.39
555.273	21757.96
555.473	21866.5
555.672	21620.75
555.872	21659.66
556.071	21903.37
556.271	22018.05
556.47	21620.75
556.67	21501.97
556.869	21868.55
557.068	21839.88
557.268	21641.23
557.467	21569.55
557.667	21843.98
557.866	21571.6
558.065	21485.58
558.265	21540.88
558.464	21690.38
558.663	21870.6
558.863	21714.95
559.062	21848.07
559.261	21993.48
559.461	21805.06
559.66	21383.18
559.859	21794.82
560.058	21575.69
560.258	21665.8
560.457	21880.84
560.656	21979.14
560.855	21821.45
561.054	22120.45
561.253	21645.32
561.453	21794.82
561.652	21868.55
561.851	21684.23
562.05	21833.74
562.249	21635.08
562.448	21796.87
562.647	21964.81
562.846	21733.39
563.045	21848.07
563.244	21657.61
563.443	21942.28
563.642	21391.37
563.841	21473.29
564.04	21565.45
564.239	21835.78
564.438	21467.15
564.637	21671.95
564.836	21749.77
565.035	21331.98
565.234	21618.7
565.432	21514.25
565.631	21630.99
565.83	21587.98
566.029	21311.5
566.228	21534.73
566.427	21250.07
566.625	21231.63
566.824	21028.88
567.023	21383.18
567.222	20807.7
567.42	21506.06
567.619	21180.43
567.818	21168.15
568.016	21182.48
568.215	21129.23
568.414	21016.6
568.612	21090.32
568.811	20924.44
569.01	20844.57
569.208	20748.31
569.407	21217.3
569.605	20836.38
569.804	20981.78
570.002	20801.56
570.201	20733.98
570.4	20535.32
570.598	20582.43
570.797	20525.08
570.995	20547.61
571.193	20430.88
571.392	20629.53
571.59	20308
571.789	20355.1
571.987	20365.34
572.186	20508.7
572.384	20629.53
572.582	20432.93
572.781	20480.03
572.979	20115.49
573.177	20183.07
573.376	20258.85
573.574	20070.44
573.772	20047.91
573.971	19984.42
574.169	19732.52
574.367	19484.72
574.565	19906.6
574.763	19613.74
574.962	19634.22
575.16	19009.59
575.358	19513.39
575.556	19562.54
575.754	19638.31
575.952	19310.64
576.151	19632.17
576.349	19433.52
576.547	19177.52
576.745	19294.25
576.943	18901.04
577.141	18911.28
577.339	19083.31
577.537	19038.26
577.735	19109.94
577.933	19124.27
578.131	19028.02
578.329	18853.94
578.527	18747.45
578.725	18792.5
578.923	18610.23
579.121	18681.91
579.319	18364.48
579.516	18845.75
579.714	18761.78
579.912	18290.75
580.11	18104.39
580.308	18497.6
580.506	18434.11
580.704	18202.69
580.901	18231.36
581.099	18430.01
581.297	18063.43
581.495	18206.78
581.692	18329.66
581.89	18098.24
582.088	17975.36
582.285	17832.01
582.483	18096.19
582.681	17877.06
582.878	17776.71
583.076	17680.46
583.274	17832.01
583.471	17602.63
583.669	17723.46
583.866	17692.74
584.064	17659.98
584.262	17379.4
584.459	17584.2
584.657	17195.09
584.854	17576.01
585.052	17453.13
585.249	17365.07
585.447	17383.5
585.644	17330.25
585.841	17309.77
586.039	17268.81
586.236	17051.73
586.434	17080.4
586.631	17018.96
586.828	17188.94
587.026	16875.6
587.223	17111.12
587.42	16789.59
587.618	17039.44
587.815	16799.83
588.012	16552.02
588.21	16617.56
588.407	16920.66
588.604	16621.66
588.801	16543.83
588.999	16644.18
589.196	16818.26
589.393	16527.45
589.59	16646.23
589.787	16420.95
589.984	16382.04
590.182	16257.12
590.379	16511.07
590.576	16124
590.773	16439.39
590.97	16314.46
591.167	16371.8
591.364	15820.9
591.561	16205.92
591.758	16126.05
591.955	16128.1
592.152	16175.2
592.349	16068.7
592.546	16380
592.743	15806.56
592.94	15810.66
593.137	16007.27
593.334	15970.4
593.531	15931.49
593.727	16052.32
593.924	15865.96
594.121	15573.1
594.318	15708.26
594.515	15698.02
594.712	15943.78
594.908	15876.2
595.105	15935.59
595.302	15663.21
595.499	15880.29
595.696	15564.9
595.892	15468.65
596.089	15804.52
596.286	15550.57
596.482	15421.55
596.679	15329.39
596.876	15661.16
597.072	15505.51
597.269	15626.34
597.466	15439.98
597.662	15136.88
597.859	15536.23
598.055	15556.71
598.252	15310.96
598.448	15511.66
598.645	15390.83
598.841	15179.89
599.038	15446.12
599.234	15308.91
599.431	15290.48
599.627	15315.05
599.824	15517.8
600.02	15181.93
600.217	15413.35
600.413	15267.95
600.609	15259.76
600.806	15495.27
601.002	15431.79
601.198	15323.24
601.395	15286.38
601.591	14989.42
601.787	15124.59
601.984	15063.15
602.18	15360.11
602.376	15124.59
602.572	14995.57
602.769	15145.07
602.965	15270
603.161	15102.06
603.357	15052.91
603.553	15323.24
603.75	15208.56
603.946	15095.92
604.142	15206.51
604.338	15011.95
604.534	15177.84
604.73	14917.75
604.926	14927.99
605.122	15134.83
605.318	15308.91
605.514	15104.11
605.71	15331.44
605.906	15325.29
606.102	15247.47
606.298	15112.3
606.494	15267.95
606.69	15315.05
606.886	15136.88
607.082	15237.23
607.278	15224.94
607.474	15042.67
607.67	15396.97
607.866	15079.54
608.062	15497.32
608.257	15243.37
608.453	15134.83
608.649	15233.13
608.845	15077.49
609.041	15210.61
609.236	15423.59
609.432	15382.63
609.628	15200.37
609.824	15257.71
610.019	15188.08
610.215	15343.72
610.411	15630.44
610.606	15419.5
610.802	15446.12
610.998	15437.93
611.193	15546.47
611.389	15372.39
611.584	15458.41
611.78	15429.74
611.976	15282.28
612.171	15525.99
612.367	15251.56
612.562	15292.52
612.758	15362.15
612.953	15442.03
613.149	15347.82
613.344	15358.06
613.539	15851.62
613.735	15446.12
613.93	15773.8
614.126	15394.92
614.321	15536.23
614.517	15579.24
614.712	15362.15
614.907	15200.37
615.103	15554.66
615.298	15431.79
615.493	15593.58
615.688	15175.79
615.884	15544.42
616.079	15210.61
616.274	15470.7
616.47	15368.3
616.665	15345.77
616.86	15265.9
617.055	15302.76
617.25	15368.3
617.445	15628.39
617.641	15110.25
617.836	15425.64
618.031	15108.21
618.226	15482.99
618.421	14948.47
618.616	15188.08
618.811	15243.37
619.006	15442.03
619.201	14958.71
619.396	15128.69
619.591	14874.74
619.786	14960.75
619.981	14663.8
620.176	15210.61
620.371	14876.79
620.566	14839.92
620.761	14592.12
620.956	14860.4
621.151	14616.69
621.346	14784.63
621.541	14561.4
621.735	14684.28
621.93	14313.59
622.125	14487.67
622.32	14108.8
622.515	14323.83
622.709	14176.38
622.904	14114.94
623.099	14233.72
623.294	14377.08
623.488	13985.92
623.683	14151.81
623.878	13762.69
624.072	13869.19
624.267	13684.87
624.462	13877.38
624.656	13717.64
624.851	13639.81
625.046	13568.13
625.24	13383.82
625.435	13648.01
625.629	13502.6
625.824	13502.6
626.018	13222.03
626.213	12996.75
626.407	13172.88
626.602	13037.71
626.796	12980.37
626.991	13109.39
627.185	12859.54
627.38	12816.53
627.574	12839.06
627.768	12804.24
627.963	12564.63
628.157	12550.29
628.352	12578.97
628.546	12425.37
628.74	12742.8
628.935	12322.97
629.129	12261.53
629.323	12087.45
629.517	12288.15
629.712	12286.11
629.906	11958.43
630.1	12034.21
630.294	12091.55
630.489	11813.03
630.683	11864.22
630.877	11712.67
631.071	11886.75
631.265	11802.79
631.459	11727.01
631.653	11632.8
631.848	11341.99
632.042	11262.12
632.236	11632.8
632.43	11309.22
632.624	11444.39
632.818	11157.68
633.012	10907.82
633.206	11350.18
633.4	11280.55
633.594	10834.1
633.788	10858.67
633.982	10989.74
634.176	10944.69
634.369	10793.14
634.563	10776.75
634.757	10674.35
634.951	10707.12
635.145	10700.98
635.339	10645.68
635.533	10479.8
635.726	10590.39
635.92	10318.01
636.114	10256.57
636.308	10231.99
636.501	10164.41
636.695	9998.52
636.889	10164.41
637.083	10008.76
637.276	9859.26
637.47	9828.54
637.664	9957.57
637.857	9908.41
638.051	9849.02
638.244	9844.93
638.438	9820.35
638.632	9605.31
638.825	9648.32
639.019	9570.5
639.212	9408.71
639.406	9621.7
639.599	9361.61
639.793	9375.94
639.986	9146.57
640.18	9228.49
640.373	9162.95
640.567	9033.93
640.76	9064.65
640.954	9066.7
641.147	9009.36
641.34	9007.31
641.534	8952.01
641.727	8835.28
641.92	8902.86
642.114	8663.25
642.307	8798.42
642.5	8573.14
642.694	8655.06
642.887	8335.57
643.08	8591.57
643.273	8511.7
643.467	8530.13
643.66	8433.88
643.853	8345.81
644.046	7983.32
644.239	8253.66
644.432	8186.07
644.626	8122.59
644.819	8100.06
645.012	8124.63
645.205	7948.51
645.398	7878.88
645.591	7905.5
645.784	7862.49
645.977	7739.62
646.17	7831.77
646.363	7624.93
646.556	7647.46
646.749	7579.87
646.942	7598.31
647.135	7643.36
647.328	7461.09
647.521	7399.65
647.714	7350.5
647.907	7330.02
648.099	7317.73
648.292	7170.28
648.485	7176.42
648.678	7016.68
648.871	7211.24
649.064	6920.43
649.256	7176.42
649.449	6836.46
649.642	7119.08
649.835	6820.08
650.027	6977.77
650.22	6959.34
650.413	6697.2
650.605	6734.06
650.798	6904.04
650.991	6729.97
651.183	6594.8
651.376	6691.06
651.568	6584.56
651.761	6500.59
651.954	6691.06
652.146	6496.5
652.339	6490.35
652.531	6390
652.724	6369.52
652.916	6271.22
653.109	6265.08
653.301	6289.65
653.494	6181.11
653.686	6181.11
653.879	6156.54
654.071	6230.26
654.263	6123.77
654.456	6263.03
654.648	6068.47
654.84	5953.79
655.033	6031.61
655.225	5992.7
655.417	5796.09
655.61	5916.92
655.802	5720.32
655.994	6017.27
656.186	5832.96
656.379	5722.37
656.571	5744.89
656.763	5892.35
656.955	5615.87
657.148	5587.2
657.34	5634.3
657.532	5593.34
657.724	5517.57
657.916	5669.12
658.108	5570.82
658.3	5513.47
658.492	5452.03
658.684	5484.8
658.876	5366.02
659.068	5523.71
659.26	5329.16
659.452	5370.12
659.644	5177.61
659.836	5134.6
660.028	5193.99
660.22	5019.91
660.412	5120.26
660.604	5050.63
660.796	5042.44
660.988	5128.46
661.18	5124.36
661.372	5118.22
661.563	5124.36
661.755	4981
661.947	5036.3
662.139	4894.99
662.331	4829.45
662.522	4872.46
662.714	4894.99
662.906	4747.53
663.097	4806.92
663.289	4675.85
663.481	4692.24
663.673	4692.24
663.864	4643.09
664.056	4520.21
664.247	4608.27
664.439	4657.42
664.631	4512.02
664.822	4505.87
665.014	4456.72
665.205	4397.33
665.397	4456.72
665.588	4403.47
665.78	4110.61
665.971	4329.75
666.163	4454.67
666.354	4321.56
666.546	4415.76
666.737	4200.73
666.929	4284.69
667.12	4165.91
667.311	4190.49
667.503	4266.26
667.694	4098.33
667.885	4081.94
668.077	4159.77
668.268	4055.32
668.459	4049.18
668.651	4012.31
668.842	3866.91
669.033	4120.85
669.224	3909.91
669.416	3905.82
669.607	3979.54
669.798	3954.97
669.989	3911.96
670.18	3895.58
670.371	3928.35
670.563	3764.51
670.754	3805.47
670.945	3729.69
671.136	3807.52
671.327	3834.14
671.518	3764.51
671.709	3805.47
671.9	3651.87
672.091	3758.36
672.282	3600.67
672.473	3731.74
672.664	3582.24
672.855	3543.33
673.046	3633.44
673.237	3838.23
673.428	3608.86
673.619	3637.53
673.809	3658.01
674	3379.49
674.191	3549.47
674.382	3414.31
674.573	3420.45
674.764	3461.41
674.954	3473.7
675.145	3453.22
675.336	3520.8
675.527	3303.71
675.717	3422.5
675.908	3307.81
676.099	3461.41
676.289	3328.29
676.48	3289.38
676.671	3428.64
676.861	3397.92
677.052	3395.87
677.243	3354.91
677.433	3264.8
677.624	3348.77
677.814	3326.24
678.005	3479.84
678.195	3340.58
678.386	3248.42
678.576	3248.42
678.767	3184.93
678.957	3137.83
679.148	3264.8
679.338	3305.76
679.529	3199.27
679.719	3191.08
679.909	3162.41
680.1	3201.32
680.29	3170.6
680.481	3019.05
680.671	3166.5
680.861	3197.22
681.052	3117.35
681.242	3133.73
681.432	3060.01
681.622	3119.4
681.813	3119.4
682.003	2996.52
682.193	3019.05
682.383	3146.02
682.573	3006.76
682.764	3068.2
682.954	3027.24
683.144	3019.05
683.334	2926.89
683.524	3006.76
683.714	3031.34
683.904	2865.45
684.094	2890.03
684.284	2967.85
684.474	3068.2
684.664	2890.03
684.854	3000.62
685.044	2879.79
685.234	2908.46
685.424	2941.22
685.614	3006.76
685.804	2707.76
685.994	3010.86
686.184	2865.45
686.374	2816.3
686.564	2887.98
686.753	2732.33
686.943	2797.87
687.133	2775.34
687.323	2775.34
687.513	2773.29
687.702	2791.72
687.892	2804.01
688.082	2799.91
688.272	2748.72
688.461	2728.24
688.651	2781.48
688.841	2851.11
689.03	2720.04
689.22	2726.19
689.41	2685.23
689.599	2732.33
689.789	2773.29
689.979	2740.52
690.168	2664.75
690.358	2554.16
690.547	2609.45
690.737	2695.47
690.926	2650.41
691.116	2566.45
691.305	2636.08
691.495	2619.69
691.684	2570.54
691.874	2650.41
692.063	2558.25
692.252	2580.78
692.442	2609.45
692.631	2511.15
692.82	2652.46
693.01	2619.69
693.199	2529.58
693.388	2445.62
693.578	2689.32
693.767	2474.29
693.956	2572.59
694.146	2548.01
694.335	2425.14
694.524	2552.11
694.713	2472.24
694.902	2543.92
695.092	2486.58
695.281	2414.9
695.47	2470.19
695.659	2496.82
695.848	2425.14
696.037	2363.7
696.226	2388.27
696.415	2455.86
696.604	2591.02
696.793	2502.96
696.982	2351.41
697.171	2507.06
697.36	2312.5
697.549	2316.59
697.738	2322.74
697.927	2400.56
698.116	2425.14
698.305	2316.59
698.494	2322.74
698.683	2349.36
698.872	2380.08
699.061	2406.7
699.25	2281.78
699.438	2273.59
699.627	2349.36
699.816	2310.45
700.005	2283.83
700.193	2287.92
700.382	2328.88
700.571	2392.37
700.76	2255.15
700.948	2285.87
701.137	2306.35
701.326	2351.41
701.514	2240.82
701.703	2257.2
701.892	2183.48
702.08	2261.3
702.269	2214.2
702.457	2085.17
702.646	2181.43
702.834	2142.52
703.023	2021.69
703.212	2111.8
703.4	2216.24
703.589	2259.25
703.777	2234.68
703.965	2128.18
704.154	2267.44
704.342	2152.76
704.531	2101.56
704.719	2056.5
704.907	2146.61
705.096	2169.14
705.284	2076.98
705.472	2072.89
705.661	2187.57
705.849	2148.66
706.037	2038.07
706.226	2066.74
706.414	2103.61
706.602	2044.21
706.79	1986.87
706.979	2068.79
707.167	2111.8
707.355	2029.88
707.543	2138.42
707.731	2027.83
707.919	2001.21
708.107	2117.94
708.296	1923.38
708.484	1931.58
708.672	2068.79
708.86	1921.34
709.048	1931.58
709.236	1935.67
709.424	1978.68
709.612	1939.77
709.8	1933.62
709.988	1937.72
710.176	1937.72
710.364	2027.83
710.551	1962.3
710.739	1995.06
710.927	1913.14
711.115	1872.18
711.303	1853.75
711.491	1847.61
711.679	1929.53
711.866	1917.24
712.054	1890.62
712.242	1833.27
712.43	1825.08
712.617	1954.1
712.805	1909.05
712.993	1872.18
713.181	1773.88
713.368	1859.9
713.556	1837.37
713.744	1724.73
713.931	1886.52
714.119	1708.35
714.306	1798.46
714.494	1710.4
714.682	1673.53
714.869	1749.31
715.057	1741.11
715.244	1597.76
715.432	1843.51
715.619	1724.73
715.807	1663.29
715.994	1730.87
716.182	1716.54
716.369	1724.73
716.556	1667.39
716.744	1669.44
716.931	1667.39
717.119	1716.54
717.306	1675.58
717.493	1757.5
717.681	1720.64
717.868	1620.28
718.055	1718.59
718.242	1597.76
718.43	1675.58
718.617	1634.62
718.804	1616.19
718.991	1651
719.179	1636.67
719.366	1513.79
719.553	1573.18
719.74	1536.32
719.927	1499.45
720.114	1612.09
720.301	1640.76
720.488	1501.5
720.676	1585.47
720.863	1644.86
721.05	1603.9
721.237	1612.09
721.424	1595.71
721.611	1595.71
721.798	1491.26
721.985	1491.26
722.172	1519.93
722.358	1528.13
722.545	1550.65
722.732	1384.77
722.919	1421.63
723.106	1456.45
723.293	1435.97
723.48	1478.97
723.667	1421.63
723.853	1417.54
724.04	1601.85
724.227	1470.78
724.414	1435.97
724.6	1446.21
724.787	1438.02
724.974	1497.41
725.161	1409.34
725.347	1395.01
725.534	1495.36
725.72	1405.25
725.907	1478.97
726.094	1495.36
726.28	1415.49
726.467	1366.34
726.653	1413.44
726.84	1429.82
727.027	1409.34
727.213	1315.14
727.4	1313.09
727.586	1352
727.773	1390.91
727.959	1265.99
728.145	1376.58
728.332	1257.79
728.518	1321.28
728.705	1397.06
728.891	1345.86
729.077	1319.23
729.264	1329.47
729.45	1339.71
729.636	1265.99
729.823	1317.19
730.009	1296.71
730.195	1360.19
730.382	1298.75
730.568	1257.79
730.754	1177.92
730.94	1325.38
731.126	1339.71
731.313	1294.66
731.499	1227.07
731.685	1325.38
731.871	1220.93
732.057	1315.14
732.243	1319.23
732.429	1259.84
732.615	1284.42
732.801	1186.12
732.987	1196.36
733.173	1268.03
733.359	1196.36
733.545	1218.88
733.731	1073.48
733.917	1249.6
734.103	1319.23
734.289	1225.03
734.475	1155.4
734.661	1167.68
734.847	1194.31
735.033	1268.03
735.219	1081.67
735.404	1268.03
735.59	1241.41
735.776	1175.88
735.962	1241.41
736.148	1161.54
736.333	1282.37
736.519	1098.05
736.705	1147.2
736.89	1151.3
737.076	1153.35
737.262	1102.15
737.447	1134.92
737.633	1114.44
737.819	1163.59
738.004	1110.34
738.19	1153.35
738.375	1093.96
738.561	1151.3
738.747	1110.34
738.932	1079.62
739.118	1145.16
739.303	999.75
739.489	1096
739.674	1020.23
739.859	1120.58
740.045	1077.57
740.23	1143.11
740.416	1065.29
740.601	989.51
740.786	1048.9
740.972	1046.85
741.157	1016.13
741.342	1145.16
741.528	977.22
741.713	995.65
741.898	1028.42
742.084	911.69
742.269	975.17
742.454	1036.61
742.639	1036.61
742.824	958.79
743.01	999.75
743.195	1044.81
743.38	971.08
743.565	989.51
743.75	872.78
743.935	950.6
744.12	979.27
744.305	964.93
744.49	1085.76
744.675	954.69
744.86	899.4
745.045	823.62
745.23	895.3
745.415	950.6
745.6	983.37
745.785	887.11
745.97	913.74
746.155	948.55
746.34	975.17
746.525	876.87
746.71	950.6
746.895	803.15
747.079	893.26
747.264	805.19
747.449	938.31
747.634	891.21
747.819	901.45
748.003	846.15
748.188	823.62
748.373	842.06
748.557	864.58
748.742	880.97
748.927	889.16
749.111	860.49
749.296	794.95
749.481	860.49
749.665	827.72
749.85	811.34
750.034	807.24
750.219	856.39
750.404	764.23
750.588	784.71
750.773	733.51
750.957	672.08
751.141	782.67
751.326	737.61
751.51	661.84
751.695	760.14
751.879	741.71
752.064	790.86
752.248	719.18
752.432	768.33
752.617	741.71
752.801	770.38
752.985	717.13
753.17	725.32
753.354	749.9
753.538	717.13
753.722	637.26
753.907	725.32
754.091	667.98
754.275	717.13
754.459	696.65
754.643	717.13
754.828	663.88
755.012	678.22
755.196	653.64
755.38	702.79
755.564	653.64
755.748	667.98
755.932	684.36
756.116	653.64
756.3	717.13
756.484	643.4
756.668	672.08
756.852	627.02
757.036	600.4
757.22	614.73
757.404	618.83
757.588	672.08
757.772	659.79
757.956	655.69
758.14	620.88
758.323	629.07
758.507	676.17
758.691	561.48
758.875	690.51
759.059	553.29
759.242	602.44
759.426	520.53
759.61	549.2
759.794	524.62
759.977	657.74
760.161	686.41
760.345	555.34
760.528	612.68
760.712	561.48
760.895	641.36
761.079	555.34
761.263	506.19
761.446	516.43
761.63	631.12
761.813	520.53
761.997	483.66
762.18	561.48
762.364	569.68
762.547	479.57
762.731	508.24
762.914	520.53
763.098	483.66
763.281	545.1
763.464	479.57
763.648	471.37
763.831	477.52
764.015	528.72
764.198	530.77
764.381	528.72
764.564	538.96
764.748	504.14
764.931	498
765.114	498
765.297	536.91
765.481	442.7
765.664	514.38
765.847	526.67
766.03	479.57
766.213	520.53
766.397	356.69
766.58	514.38
766.763	440.65
766.946	500.05
767.129	418.13
767.312	454.99
767.495	424.27
767.678	524.62
767.861	399.7
768.044	473.42
768.227	481.61
768.41	471.37
768.593	393.55
768.776	457.04
768.959	504.14
769.142	444.75
769.324	467.28
769.507	495.95
769.69	495.95
769.873	463.18
770.056	487.76
770.239	471.37
770.421	495.95
770.604	434.51
770.787	508.24
770.97	446.8
771.152	373.07
771.335	446.8
771.518	383.31
771.7	498
771.883	516.43
772.066	401.74
772.248	422.22
772.431	465.23
772.613	473.42
772.796	495.95
772.978	434.51
773.161	487.76
773.343	334.16
773.526	366.93
773.708	358.74
773.891	309.58
774.073	352.59
774.256	350.54
774.438	524.62
774.621	299.34
774.803	397.65
774.985	366.93
775.168	407.89
775.35	342.35
775.532	385.36
775.715	424.27
775.897	321.87
776.079	352.59
776.261	383.31
776.444	418.13
776.626	432.46
776.808	409.94
776.99	330.06
777.173	356.69
777.355	270.67
777.537	463.18
777.719	348.5
777.901	317.78
778.083	336.21
778.265	282.96
778.447	389.46
778.629	287.06
778.811	340.3
778.993	340.3
779.175	446.8
779.357	360.78
779.539	311.63
779.721	309.58
779.903	348.5
780.085	307.54
780.267	364.88
780.449	256.34
780.631	375.12
780.812	276.82
780.994	270.67
781.176	278.87
781.358	334.16
781.54	295.25
781.721	321.87
781.903	385.36
782.085	307.54
782.267	348.5
782.448	178.51
782.63	299.34
782.812	252.24
782.993	246.1
783.175	330.06
783.357	295.25
783.538	250.19
783.72	223.57
783.901	235.86
784.083	217.43
784.264	317.78
784.446	276.82
784.627	274.77
784.809	266.58
784.99	266.58
785.172	250.19
785.353	342.35
785.535	262.48
785.716	250.19
785.897	266.58
786.079	332.11
786.26	274.77
786.441	274.77
786.623	235.86
786.804	213.33
786.985	323.92
787.167	268.63
787.348	201.04
787.529	233.81
787.71	334.16
787.891	254.29
788.073	184.66
788.254	209.23
788.435	209.23
788.616	274.77
788.797	205.14
788.978	184.66
789.159	194.9
789.34	227.67
789.522	188.75
789.703	242
789.884	217.43
790.065	225.62
790.246	270.67
790.427	153.94
790.607	233.81
790.788	221.52
790.969	172.37
791.15	205.14
791.331	135.51
791.512	192.85
791.693	225.62
791.874	225.62
792.054	213.33
792.235	180.56
792.416	182.61
792.597	155.99
792.778	182.61
792.958	239.95
793.139	254.29
793.32	198.99
793.5	151.89
793.681	258.39
793.862	217.43
794.042	209.23
794.223	162.13
794.404	160.08
794.584	125.27
794.765	250.19
794.945	139.6
795.126	211.28
795.306	196.95
795.487	186.71
795.667	209.23
795.848	201.04
796.028	153.94
796.209	233.81
796.389	143.7
796.57	133.46
796.75	147.8
796.93	192.85
797.111	178.51
797.291	104.79
797.471	176.47
797.652	141.65
797.832	151.89
798.012	184.66
798.192	100.69
798.373	176.47
798.553	63.83
798.733	176.47
798.913	127.32
799.093	162.13
799.274	123.22
799.454	102.74
799.634	184.66
799.814	170.32
799.994	133.46
800.174	168.27
800.354	229.71
800.534	178.51
800.714	84.31
800.894	168.27
801.074	115.03
801.254	164.18
801.434	160.08
801.614	168.27
801.794	112.98
801.974	825.67
802.154	147.8
802.334	139.6
802.514	86.36
802.693	160.08
802.873	147.8
803.053	176.47
803.233	129.36
803.413	135.51
803.592	127.32
803.772	155.99
803.952	143.7
804.131	63.83
804.311	168.27
804.491	119.12
804.67	96.6
804.85	151.89
805.03	174.42
805.209	131.41
805.389	123.22
805.568	115.03
805.748	106.84
805.928	160.08
806.107	117.08
806.287	217.43
806.466	158.03
806.646	184.66
806.825	94.55
807.004	88.4
807.184	184.66
807.363	149.84
807.543	98.64
807.722	119.12
807.901	168.27
808.081	121.17
808.26	37.2
808.439	106.84
808.619	0.34
808.798	192.85
808.977	96.6
809.156	180.56
809.336	53.59
809.515	119.12
809.694	65.88
809.873	94.55
810.052	127.32
810.231	117.08
810.411	170.32
810.59	117.08
810.769	72.02
810.948	94.55
811.127	86.36
811.306	67.92
811.485	63.83
811.664	155.99
811.843	94.55
812.022	84.31
812.201	127.32
812.38	112.98
812.559	80.21
812.737	86.36
812.916	67.92
813.095	33.11
813.274	96.6
813.453	192.85
813.632	139.6
813.811	176.47
813.989	61.78
814.168	90.45
814.347	96.6
814.526	141.65
814.704	162.13
814.883	117.08
815.062	33.11
815.24	86.36
815.419	43.35
815.598	104.79
815.776	26.96
815.955	61.78
816.133	78.16
816.312	63.83
816.49	63.83
816.669	49.49
816.847	33.11
817.026	151.89
817.204	88.4
817.383	26.96
817.561	39.25
817.74	96.6
817.918	137.56
818.097	78.16
818.275	53.59
818.453	106.84
818.632	141.65
818.81	55.64
818.988	41.3
819.167	151.89
819.345	98.64
819.523	18.77
819.701	22.87
819.879	100.69
820.058	102.74
820.236	147.8
820.414	-16.04
820.592	78.16
820.77	69.97
820.948	55.64
821.127	78.16
821.305	65.88
821.483	63.83
821.661	53.59
821.839	176.47
822.017	76.12
822.195	-13.99
822.373	90.45
822.551	65.88
822.729	178.51
822.907	24.92
823.085	160.08
823.262	31.06
823.44	121.17
823.618	37.2
823.796	69.97
823.974	-20.14
824.152	88.4
824.329	94.55
824.507	143.7
824.685	92.5
824.863	86.36
825.04	57.68
825.218	69.97
825.396	104.79
825.574	65.88
825.751	131.41
825.929	131.41
826.107	74.07
826.284	86.36
826.462	31.06
826.639	78.16
826.817	-1.71
826.994	22.87
827.172	65.88
827.349	121.17
827.527	6.49
827.704	117.08
827.882	82.26
828.059	53.59
828.237	29.01
828.414	78.16
828.591	-20.14
828.769	47.44
828.946	45.4
829.124	39.25
829.301	69.97
829.478	26.96
829.655	35.16
829.833	45.4
830.01	-20.14
830.187	82.26
830.364	-26.28
830.542	119.12
830.719	119.12
830.896	45.4
831.073	45.4
831.25	37.2
831.427	137.56
831.604	53.59
831.782	72.02
831.959	53.59
832.136	43.35
832.313	98.64
832.49	2.39
832.667	-11.95
832.844	18.77
833.021	61.78
833.198	29.01
833.374	63.83
833.551	37.2
833.728	96.6
833.905	86.36
834.082	22.87
834.259	82.26
834.436	59.73
834.612	-16.04
834.789	123.22
834.966	100.69
835.143	88.4
835.319	80.21
835.496	88.4
835.673	86.36
835.85	61.78
836.026	49.49
836.203	106.84
836.38	18.77
836.556	47.44
836.733	33.11
836.909	102.74
837.086	41.3
837.262	110.93
837.439	61.78
837.616	86.36
837.792	119.12
837.968	20.82
838.145	-48.81
838.321	37.2
838.498	41.3
838.674	72.02
838.851	24.92
839.027	41.3
839.203	31.06
839.38	78.16
839.556	33.11
839.732	110.93
839.909	37.2
840.085	63.83
840.261	39.25
840.437	18.77
840.614	69.97
840.79	127.32
840.966	4.44
841.142	119.12
841.318	10.58
841.494	55.64
841.671	47.44
841.847	29.01
842.023	41.3
842.199	20.82
842.375	0.34
842.551	-52.91
842.727	72.02
842.903	102.74
843.079	53.59
843.255	47.44
843.431	61.78
843.607	67.92
843.783	-57
843.959	94.55
844.134	16.73
844.31	135.51
844.486	29.01
844.662	53.59
844.838	33.11
845.013	59.73
845.189	82.26
845.365	82.26
845.541	119.12
845.716	-18.09
845.892	39.25
846.068	119.12
846.244	59.73
846.419	69.97
846.595	82.26
846.77	16.73
846.946	98.64
847.122	139.6
847.297	84.31
847.473	61.78
847.648	12.63
847.824	49.49
847.999	-36.52
848.175	22.87
848.35	90.45
848.526	78.16
848.701	69.97
848.876	74.07
849.052	106.84
849.227	16.73
849.403	-28.33
849.578	35.16
849.753	-26.28
849.929	74.07
850.104	39.25
850.279	29.01
850.454	45.4
850.63	110.93
850.805	31.06
850.98	47.44
851.155	29.01
851.33	41.3
851.505	29.01
851.681	110.93
851.856	33.11
852.031	112.98
852.206	63.83
852.381	135.51
852.556	61.78
852.731	76.12
852.906	72.02
853.081	-18.09
853.256	61.78
853.431	123.22
853.606	61.78
853.781	12.63
853.956	22.87
854.131	53.59
854.305	39.25
854.48	37.2
854.655	33.11
854.83	37.2
855.005	39.25
855.18	-11.95
855.354	69.97
855.529	-3.75
855.704	-20.14
855.879	78.16
856.053	-36.52
856.228	39.25
856.403	-28.33
856.577	45.4
856.752	10.58
856.926	-9.9
857.101	37.2
857.276	8.53
857.45	22.87
857.625	88.4
857.799	112.98
857.974	4.44
858.148	-26.28
858.323	29.01
858.497	14.68
858.672	29.01
858.846	-11.95
859.02	96.6
859.195	-3.75
859.369	39.25
859.543	61.78
859.718	104.79
859.892	14.68
860.066	-28.33
860.241	20.82
860.415	20.82
860.589	55.64
860.763	29.01
860.938	-9.9
861.112	-22.19
861.286	-42.67
861.46	102.74
861.634	16.73
861.808	57.68
861.982	94.55
862.157	67.92
862.331	45.4
862.505	-1.71
862.679	20.82
862.853	49.49
863.027	33.11
863.201	47.44
863.375	-11.95
863.549	69.97
863.722	12.63
863.896	55.64
864.07	-75.43
864.244	-3.75
864.418	-16.04
864.592	-28.33
864.766	33.11
864.939	16.73
865.113	14.68
865.287	78.16
865.461	-38.57
865.634	14.68
865.808	96.6
865.982	78.16
866.156	49.49
866.329	-1.71
866.503	57.68
866.676	-11.95
866.85	0.34
867.024	53.59
867.197	82.26
867.371	26.96
867.544	65.88
867.718	0.34
867.891	55.64
868.065	43.35
868.238	-38.57
868.412	45.4
868.585	80.21
868.759	-24.23
868.932	-3.75
869.105	16.73
869.279	69.97
869.452	41.3
869.625	-24.23
869.799	55.64
869.972	61.78
870.145	69.97
870.319	33.11
870.492	-52.91
870.665	-1.71
870.838	-3.75
871.011	-61.1
871.185	-20.14
871.358	-77.48
871.531	45.4
871.704	-59.05
871.877	6.49
872.05	22.87
872.223	55.64
872.396	59.73
872.569	-9.9
872.742	-38.57
872.915	110.93
873.088	-1.71
873.261	45.4
873.434	39.25
873.607	-59.05
873.78	0.34
873.953	61.78
874.126	37.2
874.299	4.44
874.471	-30.38
874.644	69.97
874.817	6.49
874.99	98.64
875.163	-1.71
875.335	61.78
875.508	8.53
875.681	47.44
875.853	-20.14
876.026	39.25
876.199	-22.19
876.371	0.34
876.544	-9.9
876.717	-26.28
876.889	61.78
877.062	31.06
877.234	-28.33
877.407	-24.23
877.579	12.63
877.752	29.01
877.924	53.59
878.097	29.01
878.269	-16.04
878.442	61.78
878.614	4.44
878.786	94.55
878.959	72.02
879.131	33.11
879.303	-30.38
879.476	-36.52
879.648	22.87
879.82	-59.05
879.993	33.11
880.165	8.53
880.337	-28.33
880.509	16.73
880.681	33.11
880.854	35.16
881.026	14.68
881.198	47.44
881.37	33.11
881.542	6.49
881.714	41.3
881.886	57.68
882.058	10.58
882.23	22.87
882.402	6.49
882.574	-3.75
882.746	-26.28
882.918	94.55
883.09	-59.05
883.262	-7.85
883.434	31.06
883.606	-7.85
883.778	6.49
883.95	78.16
884.122	-24.23
884.293	31.06
884.465	10.58
884.637	59.73
884.809	-3.75
884.98	26.96
885.152	55.64
885.324	57.68
885.496	-59.05
885.667	18.77
885.839	53.59
886.011	31.06
886.182	22.87
886.354	49.49
886.525	45.4
886.697	12.63
886.869	-11.95
887.04	-20.14
887.212	26.96
887.383	86.36
887.555	-42.67
887.726	-71.34
887.897	53.59
888.069	-11.95
888.24	41.3
888.412	53.59
888.583	-50.86
888.754	12.63
888.926	-75.43
889.097	29.01
889.268	-28.33
889.44	-32.43
889.611	127.32
889.782	-9.9
889.953	-48.81
890.125	47.44
890.296	12.63
890.467	-28.33
890.638	78.16
890.809	8.53
890.98	14.68
891.151	29.01
891.323	84.31
891.494	29.01
891.665	24.92
891.836	16.73
892.007	45.4
892.178	74.07
892.349	43.35
892.52	53.59
892.691	39.25
892.862	-9.9
893.032	-20.14
893.203	-32.43
893.374	29.01
893.545	74.07
893.716	-52.91
893.887	53.59
894.057	33.11
894.228	88.4
894.399	-85.67
894.57	72.02
894.74	37.2
894.911	96.6
895.082	88.4
895.253	72.02
895.423	-11.95
895.594	12.63
895.764	6.49
895.935	-24.23
896.106	80.21
896.276	57.68
896.447	22.87
896.617	-36.52
896.788	14.68
896.958	31.06
897.129	-3.75
897.299	-36.52
897.47	39.25
897.64	43.35
897.81	76.12
897.981	20.82
898.151	-3.75
898.322	-9.9
898.492	10.58
898.662	0.34
898.832	67.92
899.003	92.5
899.173	24.92
899.343	45.4
899.513	-57
