Data from USB4F104151__227__14-33-58-189.txt Node

Date: Thu Mar 13 14:33:58 EDT 2025
User: louis
Spectrometer: USB4F10415
Trigger mode: 4
Integration Time (sec): 2.500000E-2
Scans to average: 1
Electric dark correction enabled: true
Nonlinearity correction enabled: false
Boxcar width: 0
XAxis mode: Wavelengths
Number of Pixels in Spectrum: 3648
>>>>>Begin Spectral Data<<<<<
178.204	-135.68
178.424	-135.68
178.644	-135.68
178.864	-188.93
179.084	-107.01
179.304	-100.86
179.524	11.78
179.744	-72.19
179.964	24.06
180.184	34.3
180.404	-4.61
180.624	-31.23
180.844	9.73
181.064	-25.09
181.283	69.12
181.503	26.11
181.723	58.88
181.943	-23.04
182.163	71.17
182.383	-27.14
182.602	132.61
182.822	7.68
183.042	32.26
183.262	11.78
183.482	17.92
183.701	108.03
183.921	17.92
184.141	50.69
184.361	-0.51
184.58	42.5
184.8	46.59
185.02	1.54
185.239	116.22
185.459	-2.56
185.679	108.03
185.898	26.11
186.118	97.79
186.338	52.74
186.557	83.45
186.777	9.73
186.997	52.74
187.216	40.45
187.436	67.07
187.655	58.88
187.875	40.45
188.095	44.54
188.314	81.41
188.534	91.65
188.753	15.87
188.973	-37.38
189.192	56.83
189.412	-8.7
189.631	-0.51
189.851	52.74
190.07	140.8
190.29	-49.66
190.509	34.3
190.729	-16.9
190.948	56.83
191.168	130.56
191.387	56.83
191.607	65.02
191.826	91.65
192.045	17.92
192.265	32.26
192.484	30.21
192.704	73.21
192.923	-12.8
193.142	110.08
193.362	7.68
193.581	40.45
193.8	58.88
194.02	15.87
194.239	26.11
194.458	5.63
194.678	32.26
194.897	73.21
195.116	-12.8
195.335	60.93
195.555	97.79
195.774	36.35
195.993	83.45
196.212	48.64
196.432	32.26
196.651	46.59
196.87	83.45
197.089	83.45
197.308	32.26
197.528	177.66
197.747	-12.8
197.966	40.45
198.185	118.27
198.404	93.69
198.623	110.08
198.842	50.69
199.062	19.97
199.281	69.12
199.5	34.3
199.719	40.45
199.938	-0.51
200.157	138.75
200.376	97.79
200.595	-4.61
200.814	24.06
201.033	44.54
201.252	99.84
201.471	5.63
201.69	-23.04
201.909	50.69
202.128	56.83
202.347	40.45
202.566	3.58
202.785	-29.18
203.004	13.82
203.223	124.41
203.442	-31.23
203.661	81.41
203.879	44.54
204.098	81.41
204.317	81.41
204.536	79.36
204.755	89.6
204.974	75.26
205.193	-25.09
205.411	56.83
205.63	36.35
205.849	32.26
206.068	-2.56
206.287	-14.85
206.505	69.12
206.724	-25.09
206.943	40.45
207.162	-10.75
207.381	42.5
207.599	-14.85
207.818	34.3
208.037	116.22
208.255	89.6
208.474	-16.9
208.693	3.58
208.911	-8.7
209.13	132.61
209.349	163.33
209.567	75.26
209.786	179.71
210.005	69.12
210.223	-12.8
210.442	1.54
210.661	40.45
210.879	-18.94
211.098	-29.18
211.316	7.68
211.535	46.59
211.753	44.54
211.972	89.6
212.191	32.26
212.409	40.45
212.628	75.26
212.846	7.68
213.065	77.31
213.283	91.65
213.502	11.78
213.72	73.21
213.938	-12.8
214.157	65.02
214.375	9.73
214.594	11.78
214.812	34.3
215.031	52.74
215.249	116.22
215.467	93.69
215.686	103.93
215.904	48.64
216.122	32.26
216.341	83.45
216.559	24.06
216.778	56.83
216.996	9.73
217.214	73.21
217.432	30.21
217.651	40.45
217.869	75.26
218.087	40.45
218.306	46.59
218.524	-0.51
218.742	3.58
218.96	81.41
219.179	24.06
219.397	11.78
219.615	110.08
219.833	22.02
220.051	-18.94
220.27	7.68
220.488	91.65
220.706	-8.7
220.924	24.06
221.142	58.88
221.36	-16.9
221.578	81.41
221.796	56.83
222.015	103.93
222.233	28.16
222.451	124.41
222.669	28.16
222.887	118.27
223.105	19.97
223.323	28.16
223.541	40.45
223.759	58.88
223.977	50.69
224.195	44.54
224.413	83.45
224.631	7.68
224.849	-2.56
225.067	114.17
225.285	30.21
225.503	-20.99
225.721	24.06
225.939	-4.61
226.157	44.54
226.375	99.84
226.592	97.79
226.81	42.5
227.028	77.31
227.246	124.41
227.464	46.59
227.682	-6.66
227.9	114.17
228.117	95.74
228.335	77.31
228.553	44.54
228.771	52.74
228.989	9.73
229.206	103.93
229.424	48.64
229.642	-8.7
229.86	15.87
230.077	26.11
230.295	-25.09
230.513	83.45
230.731	112.13
230.948	79.36
231.166	52.74
231.384	22.02
231.601	15.87
231.819	99.84
232.037	-41.47
232.254	28.16
232.472	69.12
232.689	65.02
232.907	15.87
233.125	1.54
233.342	40.45
233.56	26.11
233.777	-14.85
233.995	28.16
234.213	42.5
234.43	89.6
234.648	34.3
234.865	-0.51
235.083	-25.09
235.3	124.41
235.518	67.07
235.735	126.46
235.953	65.02
236.17	91.65
236.388	26.11
236.605	69.12
236.822	50.69
237.04	-8.7
237.257	77.31
237.475	-8.7
237.692	44.54
237.909	13.82
238.127	17.92
238.344	24.06
238.562	52.74
238.779	22.02
238.996	40.45
239.214	-25.09
239.431	42.5
239.648	11.78
239.865	171.52
240.083	130.56
240.3	77.31
240.517	73.21
240.735	69.12
240.952	36.35
241.169	69.12
241.386	15.87
241.603	32.26
241.821	75.26
242.038	77.31
242.255	40.45
242.472	58.88
242.689	73.21
242.907	67.07
243.124	67.07
243.341	40.45
243.558	1.54
243.775	56.83
243.992	11.78
244.209	42.5
244.426	108.03
244.643	81.41
244.86	11.78
245.078	56.83
245.295	30.21
245.512	13.82
245.729	42.5
245.946	65.02
246.163	34.3
246.38	58.88
246.597	-0.51
246.814	108.03
247.031	97.79
247.248	60.93
247.464	44.54
247.681	58.88
247.898	81.41
248.115	13.82
248.332	5.63
248.549	34.3
248.766	77.31
248.983	56.83
249.2	48.64
249.417	99.84
249.633	50.69
249.85	40.45
250.067	7.68
250.284	122.37
250.501	15.87
250.717	81.41
250.934	26.11
251.151	32.26
251.368	15.87
251.585	7.68
251.801	19.97
252.018	-53.76
252.235	67.07
252.451	44.54
252.668	40.45
252.885	42.5
253.102	-31.23
253.318	60.93
253.535	28.16
253.752	-4.61
253.968	73.21
254.185	56.83
254.401	91.65
254.618	-0.51
254.835	15.87
255.051	105.98
255.268	75.26
255.484	140.8
255.701	-14.85
255.917	71.17
256.134	15.87
256.351	56.83
256.567	32.26
256.784	42.5
257	11.78
257.217	73.21
257.433	93.69
257.65	19.97
257.866	54.78
258.082	24.06
258.299	32.26
258.515	73.21
258.732	3.58
258.948	15.87
259.165	69.12
259.381	3.58
259.597	48.64
259.814	73.21
260.03	50.69
260.246	28.16
260.463	75.26
260.679	124.41
260.895	11.78
261.112	108.03
261.328	48.64
261.544	24.06
261.761	114.17
261.977	42.5
262.193	-25.09
262.409	83.45
262.626	36.35
262.842	58.88
263.058	83.45
263.274	116.22
263.49	73.21
263.707	89.6
263.923	69.12
264.139	73.21
264.355	28.16
264.571	220.67
264.787	48.64
265.004	9.73
265.22	101.89
265.436	28.16
265.652	67.07
265.868	36.35
266.084	65.02
266.3	24.06
266.516	-18.94
266.732	110.08
266.948	52.74
267.164	122.37
267.38	9.73
267.596	-8.7
267.812	93.69
268.028	32.26
268.244	81.41
268.46	52.74
268.676	-0.51
268.892	91.65
269.108	-12.8
269.324	79.36
269.54	48.64
269.756	91.65
269.972	-43.52
270.188	24.06
270.403	50.69
270.619	58.88
270.835	77.31
271.051	97.79
271.267	42.5
271.483	114.17
271.698	48.64
271.914	48.64
272.13	56.83
272.346	3.58
272.562	-33.28
272.777	110.08
272.993	81.41
273.209	28.16
273.425	24.06
273.64	71.17
273.856	48.64
274.072	3.58
274.287	65.02
274.503	75.26
274.719	65.02
274.934	-25.09
275.15	56.83
275.366	34.3
275.581	7.68
275.797	11.78
276.012	22.02
276.228	50.69
276.444	73.21
276.659	97.79
276.875	24.06
277.09	-12.8
277.306	26.11
277.521	91.65
277.737	89.6
277.952	32.26
278.168	56.83
278.383	19.97
278.599	60.93
278.814	1.54
279.03	75.26
279.245	165.37
279.461	36.35
279.676	40.45
279.892	24.06
280.107	52.74
280.322	7.68
280.538	62.98
280.753	48.64
280.969	1.54
281.184	-12.8
281.399	65.02
281.615	42.5
281.83	15.87
282.045	-31.23
282.26	11.78
282.476	-2.56
282.691	93.69
282.906	60.93
283.122	97.79
283.337	34.3
283.552	134.65
283.767	34.3
283.983	75.26
284.198	17.92
284.413	105.98
284.628	81.41
284.843	22.02
285.058	122.37
285.274	81.41
285.489	56.83
285.704	11.78
285.919	-20.99
286.134	-14.85
286.349	13.82
286.564	65.02
286.779	95.74
286.995	60.93
287.21	85.5
287.425	7.68
287.64	36.35
287.855	81.41
288.07	24.06
288.285	85.5
288.5	134.65
288.715	81.41
288.93	28.16
289.145	28.16
289.36	81.41
289.575	73.21
289.79	105.98
290.004	24.06
290.219	105.98
290.434	60.93
290.649	7.68
290.864	54.78
291.079	46.59
291.294	56.83
291.509	81.41
291.724	67.07
291.938	44.54
292.153	48.64
292.368	69.12
292.583	118.27
292.798	56.83
293.012	19.97
293.227	83.45
293.442	60.93
293.657	19.97
293.871	91.65
294.086	75.26
294.301	144.89
294.516	99.84
294.73	50.69
294.945	19.97
295.16	56.83
295.374	-59.9
295.589	99.84
295.804	65.02
296.018	7.68
296.233	99.84
296.447	124.41
296.662	40.45
296.877	81.41
297.091	11.78
297.306	114.17
297.52	-16.9
297.735	44.54
297.949	28.16
298.164	44.54
298.378	52.74
298.593	-0.51
298.807	7.68
299.022	85.5
299.236	73.21
299.451	50.69
299.665	75.26
299.88	65.02
300.094	103.93
300.309	60.93
300.523	-0.51
300.737	11.78
300.952	-8.7
301.166	46.59
301.381	138.75
301.595	19.97
301.809	71.17
302.024	32.26
302.238	36.35
302.452	146.94
302.667	56.83
302.881	89.6
303.095	155.13
303.309	1.54
303.524	52.74
303.738	93.69
303.952	38.4
304.166	95.74
304.381	13.82
304.595	81.41
304.809	15.87
305.023	56.83
305.237	124.41
305.452	-8.7
305.666	69.12
305.88	75.26
306.094	15.87
306.308	132.61
306.522	48.64
306.736	171.52
306.95	71.17
307.164	62.98
307.379	26.11
307.593	77.31
307.807	105.98
308.021	54.78
308.235	81.41
308.449	-55.81
308.663	101.89
308.877	112.13
309.091	-2.56
309.305	101.89
309.519	48.64
309.733	93.69
309.947	9.73
310.161	110.08
310.374	105.98
310.588	69.12
310.802	50.69
311.016	15.87
311.23	50.69
311.444	58.88
311.658	69.12
311.872	65.02
312.085	40.45
312.299	132.61
312.513	140.8
312.727	28.16
312.941	19.97
313.154	54.78
313.368	26.11
313.582	9.73
313.796	24.06
314.009	118.27
314.223	93.69
314.437	73.21
314.651	24.06
314.864	-47.62
315.078	67.07
315.292	-14.85
315.505	9.73
315.719	112.13
315.933	155.13
316.146	44.54
316.36	26.11
316.573	101.89
316.787	97.79
317.001	48.64
317.214	11.78
317.428	91.65
317.641	17.92
317.855	-23.04
318.068	-82.43
318.282	32.26
318.495	110.08
318.709	50.69
318.922	24.06
319.136	105.98
319.349	81.41
319.563	40.45
319.776	101.89
319.99	-4.61
320.203	77.31
320.417	42.5
320.63	36.35
320.843	163.33
321.057	17.92
321.27	97.79
321.483	85.5
321.697	52.74
321.91	-20.99
322.124	93.69
322.337	32.26
322.55	105.98
322.763	114.17
322.977	13.82
323.19	56.83
323.403	140.8
323.617	91.65
323.83	110.08
324.043	32.26
324.256	118.27
324.469	69.12
324.683	91.65
324.896	60.93
325.109	50.69
325.322	11.78
325.535	13.82
325.748	87.55
325.962	-4.61
326.175	17.92
326.388	9.73
326.601	112.13
326.814	52.74
327.027	7.68
327.24	67.07
327.453	60.93
327.666	34.3
327.879	114.17
328.092	110.08
328.305	103.93
328.518	116.22
328.731	40.45
328.944	91.65
329.157	97.79
329.37	24.06
329.583	48.64
329.796	75.26
330.009	56.83
330.222	69.12
330.435	69.12
330.648	77.31
330.861	124.41
331.073	73.21
331.286	28.16
331.499	32.26
331.712	56.83
331.925	3.58
332.138	99.84
332.35	116.22
332.563	-8.7
332.776	42.5
332.989	-10.75
333.202	24.06
333.414	32.26
333.627	40.45
333.84	97.79
334.053	32.26
334.265	17.92
334.478	11.78
334.691	50.69
334.903	95.74
335.116	48.64
335.329	124.41
335.541	81.41
335.754	99.84
335.966	28.16
336.179	144.89
336.392	97.79
336.604	108.03
336.817	93.69
337.029	58.88
337.242	42.5
337.454	83.45
337.667	40.45
337.88	118.27
338.092	163.33
338.305	65.02
338.517	67.07
338.729	93.69
338.942	126.46
339.154	81.41
339.367	54.78
339.579	105.98
339.792	42.5
340.004	83.45
340.217	97.79
340.429	-0.51
340.641	71.17
340.854	-23.04
341.066	60.93
341.278	114.17
341.491	146.94
341.703	69.12
341.915	15.87
342.128	85.5
342.34	157.18
342.552	32.26
342.764	32.26
342.977	99.84
343.189	83.45
343.401	38.4
343.613	-0.51
343.826	62.98
344.038	50.69
344.25	56.83
344.462	40.45
344.674	50.69
344.886	97.79
345.099	-0.51
345.311	140.8
345.523	83.45
345.735	17.92
345.947	58.88
346.159	-12.8
346.371	87.55
346.583	7.68
346.795	110.08
347.007	-39.42
347.219	83.45
347.431	40.45
347.643	124.41
347.855	44.54
348.067	95.74
348.279	-10.75
348.491	75.26
348.703	128.51
348.915	99.84
349.127	91.65
349.339	97.79
349.551	46.59
349.763	73.21
349.975	54.78
350.187	19.97
350.399	114.17
350.61	89.6
350.822	85.5
351.034	19.97
351.246	116.22
351.458	44.54
351.669	93.69
351.881	138.75
352.093	48.64
352.305	126.46
352.517	108.03
352.728	85.5
352.94	73.21
353.152	97.79
353.363	58.88
353.575	91.65
353.787	163.33
353.999	110.08
354.21	142.85
354.422	89.6
354.633	7.68
354.845	40.45
355.057	44.54
355.268	97.79
355.48	101.89
355.692	48.64
355.903	97.79
356.115	77.31
356.326	24.06
356.538	132.61
356.749	112.13
356.961	138.75
357.172	85.5
357.384	89.6
357.595	155.13
357.807	89.6
358.018	56.83
358.23	93.69
358.441	99.84
358.653	95.74
358.864	40.45
359.075	93.69
359.287	151.04
359.498	134.65
359.709	15.87
359.921	122.37
360.132	132.61
360.344	171.52
360.555	52.74
360.766	99.84
360.977	65.02
361.189	122.37
361.4	54.78
361.611	105.98
361.823	77.31
362.034	65.02
362.245	7.68
362.456	54.78
362.667	56.83
362.879	97.79
363.09	77.31
363.301	144.89
363.512	60.93
363.723	50.69
363.935	60.93
364.146	46.59
364.357	116.22
364.568	165.37
364.779	40.45
364.99	108.03
365.201	89.6
365.412	159.23
365.623	56.83
365.834	73.21
366.045	24.06
366.256	112.13
366.467	151.04
366.678	89.6
366.889	142.85
367.1	93.69
367.311	108.03
367.522	73.21
367.733	146.94
367.944	77.31
368.155	17.92
368.366	48.64
368.577	58.88
368.788	118.27
368.999	-31.23
369.209	142.85
369.42	110.08
369.631	126.46
369.842	93.69
370.053	75.26
370.264	99.84
370.474	44.54
370.685	1.54
370.896	110.08
371.107	105.98
371.317	163.33
371.528	34.3
371.739	183.81
371.95	-4.61
372.16	11.78
372.371	58.88
372.582	-2.56
372.792	24.06
373.003	15.87
373.214	69.12
373.424	42.5
373.635	-49.66
373.846	136.7
374.056	40.45
374.267	91.65
374.477	110.08
374.688	110.08
374.898	138.75
375.109	67.07
375.319	48.64
375.53	132.61
375.74	46.59
375.951	56.83
376.161	75.26
376.372	73.21
376.582	83.45
376.793	165.37
377.003	26.11
377.214	75.26
377.424	108.03
377.635	151.04
377.845	79.36
378.055	163.33
378.266	77.31
378.476	65.02
378.686	130.56
378.897	138.75
379.107	85.5
379.317	114.17
379.528	52.74
379.738	89.6
379.948	44.54
380.158	155.13
380.369	36.35
380.579	69.12
380.789	99.84
380.999	159.23
381.21	73.21
381.42	206.33
381.63	73.21
381.84	73.21
382.05	65.02
382.261	52.74
382.471	118.27
382.681	32.26
382.891	73.21
383.101	155.13
383.311	28.16
383.521	-33.28
383.731	93.69
383.941	144.89
384.151	83.45
384.361	73.21
384.571	95.74
384.781	89.6
384.991	153.09
385.201	187.9
385.411	148.99
385.621	110.08
385.831	-0.51
386.041	87.55
386.251	65.02
386.461	138.75
386.671	65.02
386.881	114.17
387.091	144.89
387.301	159.23
387.511	97.79
387.72	69.12
387.93	118.27
388.14	69.12
388.35	138.75
388.56	103.93
388.769	97.79
388.979	11.78
389.189	11.78
389.399	179.71
389.609	89.6
389.818	85.5
390.028	60.93
390.238	7.68
390.447	77.31
390.657	122.37
390.867	69.12
391.076	105.98
391.286	122.37
391.496	142.85
391.705	130.56
391.915	224.76
392.125	163.33
392.334	105.98
392.544	224.76
392.753	114.17
392.963	105.98
393.172	148.99
393.382	62.98
393.591	192
393.801	105.98
394.01	148.99
394.22	114.17
394.429	85.5
394.639	97.79
394.848	157.18
395.058	157.18
395.267	73.21
395.477	89.6
395.686	126.46
395.895	245.24
396.105	179.71
396.314	161.28
396.524	189.95
396.733	67.07
396.942	89.6
397.152	171.52
397.361	126.46
397.57	177.66
397.78	118.27
397.989	118.27
398.198	138.75
398.407	93.69
398.617	161.28
398.826	101.89
399.035	159.23
399.244	218.62
399.453	163.33
399.663	224.76
399.872	173.57
400.081	105.98
400.29	187.9
400.499	122.37
400.708	212.48
400.917	110.08
401.127	179.71
401.336	155.13
401.545	220.67
401.754	257.53
401.963	249.34
402.172	163.33
402.381	99.84
402.59	189.95
402.799	151.04
403.008	237.05
403.217	206.33
403.426	220.67
403.635	198.14
403.844	243.2
404.053	146.94
404.262	253.44
404.471	237.05
404.68	216.57
404.888	241.15
405.097	200.19
405.306	265.72
405.515	263.68
405.724	239.1
405.933	310.78
406.142	290.3
406.35	329.21
406.559	288.25
406.768	333.31
406.977	314.88
407.185	359.93
407.394	321.02
407.603	284.16
407.812	273.92
408.02	390.65
408.229	351.74
408.438	359.93
408.646	376.31
408.855	427.51
409.064	441.85
409.272	437.75
409.481	429.56
409.69	419.32
409.898	400.89
410.107	484.86
410.315	466.42
410.524	531.96
410.733	511.48
410.941	622.07
411.15	654.84
411.358	599.54
411.567	706.04
411.775	669.17
411.984	663.03
412.192	677.37
412.401	701.94
412.609	837.11
412.818	749.04
413.026	787.96
413.234	904.69
413.443	830.96
413.651	835.06
413.86	951.79
414.068	998.9
414.276	1031.66
414.485	966.13
414.693	1031.66
414.901	1191.41
415.11	1125.87
415.318	1183.21
415.526	1269.23
415.734	1265.13
415.943	1289.71
416.151	1351.15
416.359	1383.91
416.567	1437.16
416.776	1512.94
416.984	1607.14
417.192	1648.1
417.4	1658.34
417.608	1596.9
417.817	1766.89
418.025	1713.64
418.233	1887.72
418.441	1928.67
418.649	1932.77
418.857	2014.69
419.065	2115.04
419.273	2022.88
419.481	2205.15
419.689	2422.24
419.897	2465.24
420.105	2491.87
420.313	2584.02
420.521	2579.93
420.729	2760.15
420.937	2616.79
421.145	2950.61
421.353	3057.11
421.561	3179.98
421.769	3309.01
421.977	3341.77
422.185	3349.96
422.393	3589.58
422.601	3775.94
422.809	3769.8
423.017	3837.38
423.224	4021.7
423.432	4189.63
423.64	4189.63
423.848	4523.45
424.056	4275.65
424.263	4851.13
424.471	4744.63
424.679	4742.58
424.887	5139.89
425.094	5123.51
425.302	5389.74
425.51	5473.71
425.718	5483.95
425.925	5703.08
426.133	5873.06
426.341	6165.92
426.548	6309.28
426.756	6538.65
426.964	6616.48
427.171	7099.8
427.379	7165.33
427.586	7200.15
427.794	7478.67
428.001	7593.36
428.209	7953.8
428.417	8007.05
428.624	8420.74
428.832	8633.72
429.039	8531.33
429.247	8408.45
429.454	9248.11
429.662	9989.48
429.869	9274.74
430.076	9911.66
430.284	9723.24
430.491	10177.89
430.699	10689.88
430.906	10788.19
431.114	10923.35
431.321	11021.66
431.528	11312.47
431.736	12193.09
431.943	12561.73
432.15	12496.19
432.358	12373.32
432.565	12969.27
432.772	13100.34
432.979	13917.48
433.187	13821.23
433.394	14034.22
433.601	14888.22
433.808	15179.03
434.016	14855.45
434.223	15719.7
434.43	16192.78
434.637	16127.24
434.844	17278.2
435.052	17417.46
435.259	17503.48
435.466	17499.38
435.673	17476.85
435.88	18476.26
436.087	19352.79
436.294	19219.67
436.501	18814.18
436.708	19295.45
436.915	20016.33
437.122	20759.75
437.329	20860.1
437.537	21226.68
437.743	21990.58
437.95	21509.3
438.157	22793.38
438.364	23727.25
438.571	23725.21
438.778	23587.99
438.985	25867.38
439.192	24775.81
439.399	25422.97
439.606	25048.19
439.813	26420.33
440.02	28200.02
440.227	27561.05
440.433	27057.25
440.64	28292.18
440.847	27862.1
441.054	28726.35
441.261	30237.75
441.467	29951.03
441.674	30608.43
441.881	31804.44
442.088	31595.55
442.294	31646.75
442.501	31806.49
442.708	32666.64
442.914	34202.61
443.121	35570.66
443.328	34470.9
443.534	36815.82
443.741	36033.5
443.948	35552.23
444.154	37946.3
444.361	37598.15
444.568	38042.56
444.774	37934.01
444.981	38392.76
445.187	39420.84
445.394	40940.43
445.6	40766.35
445.807	44495.71
446.013	42767.22
446.22	42994.54
446.426	45081.42
446.633	45247.31
446.839	46719.8
447.046	44714.84
447.252	47117.11
447.459	47321.9
447.665	47123.25
447.871	49107.73
448.078	51110.64
448.284	48595.74
448.491	50123.52
448.697	51628.78
448.903	52482.78
449.11	53064.41
449.316	52032.23
449.522	53191.38
449.728	54385.35
449.935	54420.16
450.141	54588.1
450.347	55718.57
450.553	54309.57
450.76	55145.14
450.966	56586.91
451.172	55767.73
451.378	57262.74
451.584	56076.97
451.791	57387.67
451.997	57328.28
452.203	58225.29
452.409	57797.26
452.615	57799.31
452.821	56089.26
453.027	55378.61
453.233	57729.68
453.44	55935.66
453.646	56076.97
453.852	56038.06
454.058	57795.21
454.264	56005.29
454.47	56836.76
454.676	55741.1
454.882	57264.79
455.088	52470.5
455.294	53412.56
455.5	54022.86
455.705	54274.76
455.911	52499.17
456.117	51886.82
456.323	51182.32
456.529	47973.16
456.735	50612.99
456.941	49244.94
457.147	48401.18
457.352	46838.58
457.558	46322.49
457.764	46820.15
457.97	45763.4
458.176	44561.24
458.381	44716.89
458.587	42726.26
458.793	42763.12
458.999	40258.46
459.204	43185.01
459.41	42226.56
459.616	39531.43
459.821	39715.75
460.027	39349.16
460.233	38435.77
460.438	36688.85
460.644	37245.9
460.85	35126.25
461.055	34755.57
461.261	34534.39
461.466	32138.26
461.672	31149.09
461.878	33272.84
462.083	31110.18
462.289	30706.73
462.494	30293.04
462.7	29285.44
462.905	28165.2
463.111	29187.14
463.316	29260.87
463.522	28660.81
463.727	28681.29
463.932	28623.95
464.138	28294.22
464.343	28648.52
464.549	27655.26
464.754	28554.32
464.959	28130.39
465.165	27802.71
465.37	26786.92
465.575	25945.2
465.781	26938.47
465.986	27395.17
466.191	26393.71
466.397	26119.28
466.602	24853.64
466.807	25543.8
467.012	25752.7
467.218	25339.01
467.423	24917.12
467.628	25384.06
467.833	26129.52
468.038	25013.38
468.244	24470.67
468.449	25341.05
468.654	24515.72
468.859	24009.87
469.064	24009.87
469.269	23397.53
469.474	23315.61
469.679	23923.86
469.885	23344.28
470.09	23596.18
470.295	23456.92
470.5	22916.26
470.705	23030.94
470.91	22416.55
471.115	22310.06
471.32	22244.52
471.525	22449.32
471.73	21877.94
471.935	21654.71
472.139	21161.15
472.344	21353.66
472.549	21064.89
472.754	20892.87
472.959	20417.74
473.164	20296.91
473.369	19897.55
473.574	20606.15
473.778	20344.01
473.983	20219.08
474.188	20002
474.393	19332.31
474.598	19201.24
474.802	19154.14
475.007	19031.26
475.212	19014.88
475.417	18328.81
475.621	18320.62
475.826	18304.23
476.031	17972.46
476.235	17509.62
476.44	17931.5
476.645	17532.15
476.849	17831.15
477.054	17437.94
477.259	17175.8
477.463	17425.65
477.668	16667.91
477.872	16874.75
478.077	16733.44
478.282	16203.02
478.486	16123.15
478.691	15852.81
478.895	15987.98
479.1	16108.81
479.304	15871.25
479.509	15631.63
479.713	15594.77
479.918	15215.9
480.122	15191.32
480.326	15346.97
480.531	15584.53
480.735	15199.51
480.94	15088.92
481.144	15525.14
481.348	14894.36
481.553	14961.95
481.757	14669.09
481.961	14824.73
482.166	14976.28
482.37	14810.4
482.574	14572.83
482.778	14753.05
482.983	15025.43
483.187	14761.25
483.391	14929.18
483.595	14615.84
483.8	14699.81
484.004	14818.59
484.208	14923.04
484.412	14869.79
484.616	14546.21
484.821	15019.29
485.025	14374.18
485.229	14898.46
485.433	14386.47
485.637	14540.07
485.841	14546.21
486.045	14482.72
486.249	14646.56
486.453	14445.86
486.657	14712.1
486.861	14527.78
487.065	14357.8
487.269	14818.59
487.473	14327.08
487.677	14540.07
487.881	14794.01
488.085	14583.07
488.289	14906.65
488.493	14488.87
488.697	14798.11
488.901	14941.47
489.105	14544.16
489.309	14732.58
489.512	14689.57
489.716	14832.93
489.92	14867.74
490.124	14816.54
490.328	15007
490.531	14982.43
490.735	14957.85
490.939	14945.56
491.143	14925.08
491.346	14908.7
491.55	15193.37
491.754	15138.07
491.958	15142.17
492.161	15179.03
492.365	15170.84
492.569	15162.65
492.772	15359.25
492.976	15645.97
493.18	15418.64
493.383	15789.33
493.587	15670.54
493.79	15803.66
493.994	15609.11
494.197	15828.24
494.401	16026.89
494.605	16020.75
494.808	16409.86
495.012	16364.81
495.215	16448.77
495.419	16762.11
495.622	16350.47
495.825	16542.98
496.029	16960.77
496.232	16954.62
496.436	17194.23
496.639	17401.08
496.843	17474.81
497.046	17626.36
497.249	17804.53
497.453	17663.22
497.656	18173.16
497.859	17966.32
498.063	18283.75
498.266	18574.56
498.469	18289.9
498.673	18797.79
498.876	18881.76
499.079	19332.31
499.282	19184.86
499.485	19358.94
499.689	19510.49
499.892	19823.83
500.095	19815.63
500.298	20131.02
500.501	20233.42
500.705	20792.51
500.908	20860.1
501.111	21179.58
501.314	20919.49
501.517	21566.65
501.72	21832.88
501.923	21736.63
502.126	22080.69
502.329	22451.37
502.532	22437.03
502.735	22826.15
502.938	23098.53
503.141	23262.37
503.344	23346.33
503.547	23395.48
503.75	24026.26
503.953	24159.38
504.156	24607.88
504.359	24841.35
504.562	24730.76
504.765	25504.89
504.968	25658.49
505.17	25775.22
505.373	25814.13
505.576	26453.1
505.779	26350.7
505.982	26575.98
506.185	27079.78
506.387	27255.9
506.59	27466.84
506.793	28187.73
506.996	27688.03
507.198	28496.97
507.401	28400.72
507.604	28550.22
507.807	29310.02
508.009	29432.89
508.212	29707.32
508.415	30084.15
508.617	30522.41
508.82	29985.85
509.022	30379.06
509.225	30997.54
509.428	31493.15
509.63	31835.16
509.833	31509.54
510.035	32261.14
510.238	32168.98
510.44	32721.93
510.643	33102.85
510.845	33377.28
511.048	33115.14
511.25	33938.43
511.453	34257.91
511.655	35460.07
511.858	35101.67
512.06	34911.21
512.262	35498.98
512.465	35181.54
512.667	36180.95
512.87	36199.38
513.072	36508.63
513.274	37209.03
513.477	37426.12
513.679	37690.3
513.881	38192.06
514.084	38224.82
514.286	38208.44
514.488	38693.81
514.69	39410.6
514.893	39515.05
515.095	39619.49
515.297	40125.34
515.499	40579.99
515.701	40446.87
515.904	41036.69
516.106	40934.29
516.308	41776
516.51	42199.93
516.712	42267.52
516.914	42161.02
517.116	43160.43
517.318	43260.78
517.52	43338.6
517.722	43338.6
517.925	44204.89
518.127	44424.03
518.329	45159.25
518.531	44407.64
518.733	45132.62
518.935	46054.21
519.136	45521.74
519.338	46183.23
519.54	46502.71
519.742	47110.96
519.944	46893.88
520.146	47536.94
520.348	47674.15
520.55	47794.98
520.752	48157.47
520.954	49062.68
521.155	48337.69
521.357	49261.33
521.559	49132.31
521.761	50580.22
521.963	50074.37
522.164	50244.35
522.366	50119.43
522.568	50864.89
522.77	50643.71
522.971	51317.49
523.173	51061.49
523.375	51329.78
523.576	51118.84
523.778	51630.83
523.98	52138.72
524.181	52196.07
524.383	52218.6
524.584	52871.9
524.786	52636.38
524.988	52411.1
525.189	52863.71
525.391	53342.93
525.592	53211.86
525.794	53334.74
525.995	53564.11
526.197	53646.03
526.398	53324.5
526.6	53736.14
526.801	53920.46
527.003	54309.57
527.204	54227.65
527.406	54854.33
527.607	54325.96
527.808	54512.32
528.01	53899.98
528.211	54024.9
528.412	55167.67
528.614	54604.48
528.815	54913.72
529.016	55251.64
529.218	54610.62
529.419	54715.07
529.62	55237.3
529.822	55100.09
530.023	54940.35
530.224	54864.57
530.425	54516.42
530.626	54928.06
530.828	54645.44
531.029	55448.24
531.23	54823.61
531.431	54940.35
531.632	55448.24
531.833	55245.49
532.035	54903.48
532.236	54938.3
532.437	55249.59
532.638	54674.11
532.839	55225.01
533.04	55233.21
533.241	54393.54
533.442	55538.35
533.643	54983.35
533.844	54749.88
534.045	55069.37
534.246	54428.35
534.447	55366.32
534.648	54819.52
534.849	54819.52
535.05	54397.63
535.251	54692.54
535.451	54209.22
535.652	54891.19
535.853	54440.64
536.054	54665.92
536.255	54522.56
536.456	53854.92
536.657	54678.21
536.857	54346.43
537.058	54373.06
537.259	54727.36
537.46	54475.46
537.66	54260.42
537.861	54448.83
538.062	54129.35
538.263	54088.39
538.463	54029
538.664	53977.8
538.865	54233.8
539.065	54194.89
539.266	54024.9
539.466	54315.72
539.667	53652.17
539.868	54348.48
540.068	53883.59
540.269	53539.54
540.469	54018.76
540.67	53539.54
540.87	53562.06
541.071	53682.89
541.271	54119.11
541.472	53764.81
541.672	53351.12
541.873	53418.7
542.073	53205.72
542.274	53666.51
542.474	53416.66
542.675	53265.11
542.875	54170.31
543.075	53469.9
543.276	52939.48
543.476	54430.4
543.676	53076.69
543.877	54092.49
544.077	53625.55
544.277	53220.05
544.478	53347.03
544.678	53607.12
544.878	53795.53
545.078	53406.42
545.279	53056.21
545.479	52798.17
545.679	53267.16
545.879	53314.26
546.079	53480.14
546.28	53363.41
546.48	52581.09
546.68	53578.45
546.88	53596.88
547.08	53017.3
547.28	53007.06
547.48	52452.06
547.68	53207.76
547.88	52863.71
548.081	53643.98
548.281	53375.7
548.481	53379.79
548.681	53406.42
548.881	52708.06
549.081	53129.94
549.28	53019.35
549.48	53588.69
549.68	53162.71
549.88	53932.75
550.08	52902.62
550.28	53365.46
550.48	53136.09
550.68	53271.25
550.88	53129.94
551.08	53078.74
551.279	53310.16
551.479	52781.79
551.679	53068.5
551.879	53244.63
552.079	53392.08
552.278	53121.75
552.478	53392.08
552.678	53519.06
552.878	53256.92
553.077	53252.82
553.277	53183.19
553.477	54006.47
553.676	53408.47
553.876	53340.88
554.076	52841.18
554.275	53045.97
554.475	52243.17
554.674	53412.56
554.874	53150.42
555.074	53250.77
555.273	53086.93
555.473	53469.9
555.672	52972.25
555.872	53121.75
556.071	53113.56
556.271	53635.79
556.47	53078.74
556.67	52327.14
556.869	53351.12
557.068	53285.59
557.268	53287.63
557.467	53005.02
557.667	53146.33
557.866	53250.77
558.065	53441.23
558.265	53299.92
558.464	53129.94
558.663	53592.78
558.863	52896.47
559.062	53758.67
559.261	52728.54
559.461	53480.14
559.66	52529.89
559.859	53271.25
560.058	52644.57
560.258	52916.95
560.457	53064.41
560.656	53433.04
560.855	52826.84
561.054	52845.27
561.253	52892.38
561.453	52972.25
561.652	53136.09
561.851	53447.38
562.05	52955.86
562.249	52896.47
562.448	53101.27
562.647	52923.1
562.846	53062.36
563.045	52923.1
563.244	52472.54
563.443	53013.21
563.642	52210.4
563.841	52497.12
564.04	52769.5
564.239	52755.16
564.438	52411.1
564.637	52761.31
564.836	52812.51
565.035	52241.12
565.234	52529.89
565.432	52183.78
565.631	52490.98
565.83	52474.59
566.029	51903.21
566.228	52394.72
566.427	52017.89
566.625	52089.57
566.824	51319.54
567.023	51933.93
567.222	51282.67
567.42	52212.45
567.619	51874.54
567.818	51757.8
568.016	51243.76
568.215	52165.35
568.414	51616.49
568.612	51837.67
568.811	51241.71
569.01	51417.84
569.208	50668.28
569.407	51200.75
569.605	50799.35
569.804	51434.22
570.002	50836.22
570.201	50940.66
570.4	50621.18
570.598	50803.45
570.797	50361.09
570.995	50285.31
571.193	50002.69
571.392	50588.41
571.59	49728.27
571.789	49935.11
571.987	49898.25
572.186	49607.44
572.384	49799.94
572.582	50135.81
572.781	49691.4
572.979	49308.43
573.177	49836.81
573.376	50088.71
573.574	48892.69
573.772	49720.07
573.971	49269.52
574.169	48735
574.367	48708.38
574.565	48909.08
574.763	48485.15
574.962	48765.72
575.16	48229.15
575.358	48558.88
575.556	47950.63
575.754	48526.11
575.952	48190.24
576.151	48532.25
576.349	47985.44
576.547	47444.78
576.745	47991.59
576.943	47883.05
577.141	47835.94
577.339	47964.96
577.537	47209.26
577.735	47745.83
577.933	46852.92
578.131	47213.36
578.329	46787.38
578.527	46920.5
578.725	46697.27
578.923	46799.67
579.121	46451.52
579.319	46656.31
579.516	46668.6
579.714	46025.54
579.912	46269.25
580.11	46076.74
580.308	46091.07
580.506	45710.15
580.704	45282.13
580.901	46015.3
581.099	45957.95
581.297	45396.81
581.495	45376.33
581.692	45558.6
581.89	44956.5
582.088	45046.61
582.285	45210.45
582.483	45235.02
582.681	44804.95
582.878	44974.93
583.076	44327.77
583.274	45060.94
583.471	44311.39
583.669	44479.32
583.866	44182.37
584.064	44299.1
584.262	43631.46
584.459	44270.43
584.657	44061.54
584.854	43570.02
585.052	43225.96
585.249	43473.77
585.447	43887.46
585.644	43242.35
585.841	43420.52
586.039	43977.57
586.236	43156.33
586.434	42863.47
586.631	42877.81
586.828	42924.91
587.026	43166.57
587.223	42781.56
587.42	42777.46
587.618	42462.07
587.815	42017.66
588.012	41991.04
588.21	42380.15
588.407	42308.47
588.604	42118.01
588.801	41726.85
588.999	41900.93
589.196	41911.17
589.393	41671.56
589.59	41663.36
589.787	41616.26
589.984	41352.07
590.182	41206.67
590.379	41528.2
590.576	40844.18
590.773	41169.8
590.97	40686.48
591.167	41137.04
591.364	40752.02
591.561	40903.57
591.758	40582.04
591.955	40481.69
592.152	40915.86
592.349	40354.71
592.546	40514.45
592.743	40432.54
592.94	39721.89
593.137	40111
593.334	40213.4
593.531	39617.44
593.727	39990.17
593.924	39801.76
594.121	39588.77
594.318	40092.57
594.515	39381.93
594.712	40012.7
594.908	39076.78
595.105	39369.64
595.302	39154.6
595.499	39519.14
595.696	39050.16
595.892	39037.87
596.089	39527.33
596.286	39187.37
596.482	38656.95
596.679	38853.55
596.876	39066.54
597.072	38972.33
597.269	38831.02
597.466	38749.1
597.662	38484.92
597.859	38529.97
598.055	38650.8
598.252	37979.07
598.448	38329.27
598.645	38327.22
598.841	38011.84
599.038	38175.67
599.234	38390.71
599.431	37770.18
599.627	38005.69
599.824	38366.13
600.02	37876.67
600.217	37845.95
600.413	37772.22
600.609	37579.71
600.806	37376.97
601.002	38028.22
601.198	37876.67
601.395	37534.66
601.591	37383.11
601.787	37297.09
601.984	37305.29
602.18	37706.69
602.376	37329.86
602.572	36969.42
602.769	37254.09
602.965	37063.63
603.161	37178.31
603.357	37000.14
603.553	37600.19
603.75	37202.89
603.946	36975.56
604.142	37346.25
604.338	36719.57
604.534	37565.38
604.73	36924.36
604.926	37016.52
605.122	36930.51
605.318	36965.32
605.514	36811.73
605.71	36576.21
605.906	37028.81
606.102	36668.37
606.298	36840.4
606.494	36707.28
606.69	37288.9
606.886	37028.81
607.082	36180.95
607.278	37002.19
607.474	36414.42
607.67	37012.43
607.866	36469.72
608.062	37063.63
608.257	36756.43
608.453	37147.59
608.649	36688.85
608.845	36455.38
609.041	37055.43
609.236	37037
609.432	36608.98
609.628	36854.73
609.824	36690.9
610.019	36688.85
610.215	36895.69
610.411	36615.12
610.606	36639.7
610.802	36473.81
610.998	36832.21
611.193	36928.46
611.389	36664.27
611.584	36561.87
611.78	36586.45
611.976	36647.89
612.171	36815.82
612.367	36764.62
612.562	36664.27
612.758	36283.35
612.953	36482
613.149	37006.28
613.344	36469.72
613.539	37084.11
613.735	36797.39
613.93	36871.12
614.126	36352.98
614.321	36815.82
614.517	36615.12
614.712	36469.72
614.907	36307.93
615.103	36578.26
615.298	36484.05
615.493	37039.05
615.688	36340.69
615.884	36944.84
616.079	36279.25
616.274	36484.05
616.47	36660.18
616.665	36508.63
616.86	36174.81
617.055	36101.08
617.25	36262.87
617.445	36426.71
617.641	35619.81
617.836	36043.74
618.031	36045.79
618.226	36457.43
618.421	35677.15
618.616	36164.57
618.811	35580.9
619.006	36068.31
619.201	35277.8
619.396	35505.12
619.591	35118.06
619.786	35251.17
619.981	34870.25
620.176	35095.53
620.371	34812.91
620.566	34919.4
620.761	34759.66
620.956	34993.13
621.151	34679.79
621.346	34661.36
621.541	34386.93
621.735	34614.26
621.93	33928.19
622.125	34028.54
622.32	33586.18
622.515	33625.09
622.709	33551.36
622.904	33598.46
623.099	33276.93
623.294	33453.06
623.488	33076.23
623.683	32926.73
623.878	32709.64
624.072	32613.39
624.267	32848.91
624.462	32293.91
624.656	31994.9
624.851	32453.65
625.046	31882.27
625.24	31726.62
625.435	31788.06
625.629	31499.3
625.824	31413.28
626.018	31296.55
626.213	30501.93
626.407	30921.77
626.602	30590
626.796	30714.92
626.991	30555.18
627.185	30671.92
627.38	30098.48
627.574	30078.01
627.768	30137.4
627.963	29656.12
628.157	29305.92
628.352	29637.69
628.546	29121.6
628.74	29510.72
628.935	28726.35
629.129	28834.89
629.323	28664.91
629.517	28787.78
629.712	28630.09
629.906	28537.93
630.1	27968.6
630.294	28083.28
630.489	28068.95
630.683	27999.32
630.877	27384.93
631.071	27704.41
631.265	27765.85
631.459	27257.95
631.653	27012.2
631.848	27151.46
632.042	27030.63
632.236	26971.24
632.43	26516.59
632.624	26661.99
632.818	26129.52
633.012	26332.27
633.206	25869.43
633.4	26182.77
633.594	25478.27
633.788	25844.85
633.982	25951.35
634.176	25410.68
634.369	25412.73
634.563	25199.74
634.757	24923.27
634.951	25246.85
635.145	24923.27
635.339	24501.39
635.533	24716.42
635.726	24231.05
635.92	24298.64
636.114	24161.42
636.308	24405.13
636.501	24138.9
636.695	24446.09
636.889	23800.98
637.083	23542.94
637.276	23514.27
637.47	23297.18
637.664	23190.69
637.857	23217.31
638.051	23112.86
638.244	22846.63
638.438	22783.14
638.632	22781.09
638.825	22639.78
639.019	22672.55
639.212	22490.28
639.406	22015.15
639.599	22031.54
639.793	21984.43
639.986	21750.96
640.18	21947.57
640.373	21656.76
640.567	21413.05
640.76	21642.42
640.954	21335.23
641.147	21120.19
641.34	20954.3
641.534	20925.63
641.727	20712.64
641.92	20909.25
642.114	20798.66
642.307	20233.42
642.5	20413.64
642.694	20290.76
642.887	19942.61
643.08	20182.22
643.273	19875.02
643.467	20014.29
643.66	19657.94
643.853	19676.37
644.046	19150.04
644.239	19363.03
644.432	19248.35
644.626	19195.1
644.819	19102.94
645.012	18885.86
645.205	19023.07
645.398	19025.12
645.591	18703.59
645.784	18865.38
645.977	18396.39
646.17	18328.81
646.363	18179.31
646.556	17937.65
646.749	17743.09
646.942	18038
647.135	17861.87
647.328	17980.65
647.521	17732.85
647.714	17421.56
647.907	17491.19
648.099	17411.32
648.292	17306.87
648.485	17272.06
648.678	16940.29
648.871	16936.19
649.064	17042.68
649.256	16979.2
649.449	16854.27
649.642	16624.9
649.835	16340.23
650.027	16440.58
650.22	16311.56
650.413	16436.49
650.605	16450.82
650.798	16037.13
650.991	15932.68
651.183	16033.04
651.376	15936.78
651.568	15901.97
651.761	15447.32
651.954	15805.71
652.146	15736.08
652.339	15897.87
652.531	15533.33
652.724	15195.42
652.916	14830.88
653.109	15174.94
653.301	14968.09
653.494	14955.8
653.686	14679.33
653.879	15041.82
654.071	14839.07
654.263	14564.64
654.456	14703.9
654.648	14638.37
654.84	14376.23
655.033	14218.54
655.225	14490.91
655.417	14247.21
655.61	13983.02
655.802	14206.25
655.994	14050.6
656.186	13784.37
656.379	13810.99
656.571	13823.28
656.763	13890.86
656.955	13366.58
657.148	13622.58
657.34	13364.53
657.532	13397.3
657.724	13405.49
657.916	13327.67
658.108	13086.01
658.3	13018.43
658.492	13292.85
658.684	12905.79
658.876	12715.33
659.068	12733.76
659.26	12758.33
659.452	12744
659.644	12641.6
659.836	12528.96
660.028	12455.23
660.22	12291.4
660.412	12168.52
660.604	12371.27
660.796	12336.45
660.988	12248.39
661.18	12043.59
661.372	12246.34
661.563	12090.7
661.755	11803.98
661.947	12004.68
662.139	11826.51
662.331	11748.68
662.522	11605.33
662.714	11443.54
662.906	11355.47
663.097	11427.15
663.289	11412.82
663.481	11156.82
663.673	11169.11
663.864	11115.86
664.056	11234.64
664.247	11205.97
664.439	11076.95
664.631	10978.65
664.822	10964.31
665.014	10921.31
665.205	10853.72
665.397	10607.97
665.588	10773.85
665.78	10671.45
665.971	10648.93
666.163	10397.03
666.354	10552.67
666.546	10388.83
666.737	10403.17
666.929	10394.98
667.12	10249.57
667.311	10282.34
667.503	10231.14
667.694	10186.08
667.885	9971.05
668.077	9987.43
668.268	9772.39
668.459	9774.44
668.651	9842.03
668.842	9792.87
669.033	9635.18
669.224	9624.94
669.416	9641.32
669.607	9518.45
669.798	9772.39
669.989	9618.8
670.18	9432.43
670.371	9428.34
670.563	9321.84
670.754	9432.43
670.945	8981.88
671.136	9217.4
671.327	9186.68
671.518	9229.68
671.709	9332.08
671.9	9305.46
672.091	9078.13
672.282	8904.06
672.473	8836.47
672.664	8994.17
672.855	8848.76
673.046	8793.47
673.237	8879.48
673.428	8809.85
673.619	8699.26
673.809	8637.82
674	8668.54
674.191	8701.31
674.382	8684.92
674.573	8541.57
674.764	8551.81
674.954	8609.15
675.145	8490.37
675.336	8428.93
675.527	8228.23
675.717	8373.63
675.908	8281.47
676.099	8201.6
676.289	8185.22
676.48	8152.45
676.671	8093.06
676.861	8095.11
677.052	8129.92
677.243	7810.44
677.433	7986.57
677.624	8166.79
677.814	7988.61
678.005	7888.26
678.195	7794.06
678.386	7800.2
678.576	7861.64
678.767	7873.93
678.957	7761.29
679.148	7880.07
679.338	7642.51
679.529	7859.59
679.719	7601.55
679.909	7896.46
680.1	7570.83
680.29	7634.32
680.481	7753.1
680.671	7429.52
680.861	7644.56
681.052	7527.82
681.242	7626.12
681.432	7521.68
681.622	7486.86
681.813	7431.57
682.003	7380.37
682.193	7355.79
682.383	7445.9
682.573	7351.7
682.764	7257.49
682.954	7355.79
683.144	7216.53
683.334	7273.87
683.524	7202.19
683.714	7161.23
683.904	7153.04
684.094	7329.17
684.284	7095.7
684.474	7216.53
684.664	7249.3
684.854	7005.59
685.044	6981.01
685.234	7079.32
685.424	7052.69
685.614	6907.29
685.804	6892.95
685.994	6997.4
686.184	6907.29
686.374	7136.66
686.564	6940.05
686.753	6925.72
686.943	6841.75
687.133	6751.64
687.323	6733.21
687.513	6733.21
687.702	6733.21
687.892	6749.59
688.082	6569.37
688.272	6710.68
688.461	6704.54
688.651	6714.78
688.841	6458.78
689.03	6469.02
689.22	6497.69
689.41	6323.62
689.599	6569.37
689.789	6464.93
689.979	6423.97
690.168	6286.75
690.358	6393.25
690.547	6170.02
690.737	6266.27
690.926	6147.49
691.116	6292.9
691.305	6305.18
691.495	6065.57
691.684	5997.99
691.874	6131.11
692.063	6004.13
692.252	6032.8
692.442	6118.82
692.631	6053.28
692.82	6108.58
693.01	6086.05
693.199	6030.76
693.388	5963.17
693.578	5885.35
693.767	5932.45
693.956	5864.87
694.146	5809.58
694.335	5848.49
694.524	5848.49
694.713	5875.11
694.902	5672.36
695.092	5623.21
695.281	5717.42
695.47	5729.7
695.659	5733.8
695.848	5531.05
696.037	5750.18
696.226	5744.04
696.415	5627.31
696.604	5610.92
696.793	5633.45
696.982	5569.96
697.171	5608.87
697.36	5621.16
697.549	5449.13
697.738	5578.15
697.927	5373.36
698.116	5488.04
698.305	5475.76
698.494	5270.96
698.683	5230
698.872	5535.15
699.061	5301.68
699.25	5291.44
699.438	5158.32
699.627	5266.86
699.816	5359.02
700.005	5297.58
700.193	5275.06
700.382	5481.9
700.571	5238.19
700.76	5336.49
700.948	5320.11
701.137	5172.66
701.326	5098.93
701.514	5002.68
701.703	5182.9
701.892	4984.24
702.08	5162.42
702.269	5121.46
702.457	4840.89
702.646	5033.4
702.834	4906.42
703.023	4992.44
703.212	4869.56
703.4	4754.87
703.589	4859.32
703.777	4820.41
703.965	4689.34
704.154	4709.82
704.342	4767.16
704.531	4787.64
704.719	4935.09
704.907	4834.74
705.096	4672.95
705.284	4799.93
705.472	4683.19
705.661	4707.77
705.849	4709.82
706.037	4660.66
706.226	4562.36
706.414	4623.8
706.602	4529.59
706.79	4646.33
706.979	4713.91
707.167	4470.2
707.355	4650.43
707.543	4394.43
707.731	4488.64
707.919	4388.29
708.107	4402.62
708.296	4419
708.484	4277.69
708.672	4351.42
708.86	4343.23
709.048	4376
709.236	4349.37
709.424	4439.48
709.612	4173.25
709.8	4197.82
709.988	4332.99
710.176	4267.45
710.364	4181.44
710.551	4267.45
710.739	4185.54
710.927	4079.04
711.115	4173.25
711.303	4281.79
711.491	4103.62
711.679	4210.11
711.866	4163.01
712.054	4050.37
712.242	4062.66
712.43	4062.66
712.617	4154.82
712.805	4048.32
712.993	4038.08
713.181	3915.2
713.368	4097.47
713.556	4029.89
713.744	3835.33
713.931	4017.6
714.119	3821
714.306	3843.53
714.494	3878.34
714.682	3939.78
714.869	3775.94
715.057	3933.64
715.244	3780.04
715.432	3810.76
715.619	3788.23
715.807	3835.33
715.994	3763.65
716.182	3673.54
716.369	3632.58
716.556	3780.04
716.744	3808.71
716.931	3636.68
717.119	3685.83
717.306	3704.26
717.493	3624.39
717.681	3620.3
717.868	3632.58
718.055	3581.39
718.242	3515.85
718.43	3452.36
718.617	3546.57
718.804	3474.89
718.991	3589.58
719.179	3554.76
719.366	3440.08
719.553	3454.41
719.74	3493.32
719.927	3341.77
720.114	3325.39
720.301	3423.69
720.488	3419.6
720.676	3333.58
720.863	3345.87
721.05	3419.6
721.237	3368.4
721.424	3315.15
721.611	3343.82
721.798	3241.42
721.985	3302.86
722.172	3255.76
722.358	3245.52
722.545	3296.72
722.732	3155.41
722.919	3214.8
723.106	3243.47
723.293	3163.6
723.48	3010
723.667	3204.56
723.853	3196.37
724.04	3120.59
724.227	3108.3
724.414	3050.96
724.6	3112.4
724.787	3202.51
724.974	3194.32
725.161	3194.32
725.347	3098.06
725.534	3022.29
725.72	3057.11
725.907	3071.44
726.094	3214.8
726.28	3093.97
726.467	2944.47
726.653	2934.23
726.84	3067.35
727.027	2981.33
727.213	2932.18
727.4	3030.48
727.586	2899.41
727.773	3007.95
727.959	2862.55
728.145	2932.18
728.332	2923.99
728.518	2833.88
728.705	2899.41
728.891	2909.65
729.077	2833.88
729.264	2817.49
729.45	2899.41
729.636	2895.32
729.823	2858.45
730.009	2756.05
730.195	2833.88
730.382	2887.12
730.568	2702.81
730.754	2852.31
730.94	2788.82
731.126	2733.53
731.313	2788.82
731.499	2747.86
731.685	2739.67
731.871	2844.12
732.057	2735.57
732.243	2608.6
732.429	2743.77
732.615	2745.81
732.801	2756.05
732.987	2606.55
733.173	2688.47
733.359	2622.94
733.545	2768.34
733.731	2563.54
733.917	2608.6
734.103	2624.98
734.289	2620.89
734.475	2557.4
734.661	2620.89
734.847	2684.38
735.033	2563.54
735.219	2596.31
735.404	2629.08
735.59	2436.57
735.776	2434.52
735.962	2645.46
736.148	2581.98
736.333	2559.45
736.519	2440.67
736.705	2534.87
736.89	2528.73
737.076	2489.82
737.262	2399.71
737.447	2395.61
737.633	2356.7
737.819	2303.45
738.004	2399.71
738.19	2444.76
738.375	2465.24
738.561	2293.21
738.747	2391.52
738.932	2317.79
739.118	2409.95
739.303	2321.88
739.489	2368.99
739.674	2285.02
739.859	2180.57
740.045	2383.32
740.23	2336.22
740.416	2186.72
740.601	2409.95
740.786	2254.3
740.972	2336.22
741.157	2336.22
741.342	2262.49
741.528	2235.87
741.713	2287.07
741.898	2170.33
742.084	2125.28
742.269	2272.73
742.454	2293.21
742.639	2090.46
742.824	2213.34
743.01	2168.29
743.195	2229.73
743.38	2039.26
743.565	2090.46
743.75	2106.85
743.935	2170.33
744.12	2018.79
744.305	1988.07
744.49	2022.88
744.675	2059.74
744.86	1924.58
745.045	1928.67
745.23	1934.82
745.415	1957.35
745.6	1983.97
745.785	1928.67
745.97	2031.07
746.155	1975.78
746.34	1957.35
746.525	1979.87
746.71	1961.44
746.895	1900
747.079	1854.95
747.264	1897.96
747.449	1928.67
747.634	1932.77
747.819	1842.66
748.003	1828.32
748.188	1863.14
748.373	1891.81
748.557	1865.19
748.742	1740.26
748.927	1777.12
749.111	1705.45
749.296	1920.48
749.481	1744.36
749.665	1754.6
749.85	1727.97
750.034	1678.82
750.219	1768.93
750.404	1680.87
750.588	1691.11
750.773	1641.96
750.957	1738.21
751.141	1680.87
751.326	1662.44
751.51	1506.79
751.695	1592.81
751.879	1621.48
752.064	1660.39
752.248	1476.07
752.432	1676.77
752.617	1607.14
752.801	1490.41
752.985	1539.56
753.17	1588.71
753.354	1504.75
753.538	1625.58
753.722	1506.79
753.907	1523.18
754.091	1506.79
754.275	1486.31
754.459	1492.46
754.643	1474.03
754.828	1490.41
755.012	1474.03
755.196	1426.92
755.38	1449.45
755.564	1338.86
755.748	1426.92
755.932	1345
756.116	1457.64
756.3	1318.38
756.484	1291.76
756.668	1361.39
756.852	1289.71
757.036	1220.08
757.22	1256.94
757.404	1326.57
757.588	1304.04
757.772	1353.2
757.956	1330.67
758.14	1252.84
758.323	1179.12
758.507	1273.32
758.691	1203.69
758.875	1322.48
759.059	1281.52
759.242	1252.84
759.426	1224.17
759.61	1181.17
759.794	1154.54
759.977	1215.98
760.161	1195.5
760.345	1138.16
760.528	1246.7
760.712	1207.79
760.895	1271.28
761.079	1097.2
761.263	1113.58
761.446	1093.1
761.63	1168.88
761.813	1134.06
761.997	1121.77
762.18	1179.12
762.364	1154.54
762.547	1048.05
762.731	1127.92
762.914	1113.58
763.098	1080.82
763.281	1105.39
763.464	1089.01
763.648	1039.86
763.831	1017.33
764.015	1062.38
764.198	1082.86
764.381	1058.29
764.564	1076.72
764.748	1031.66
764.931	1072.62
765.114	1000.94
765.297	1027.57
765.481	1097.2
765.664	998.9
765.847	1058.29
766.03	1043.95
766.213	892.4
766.397	959.99
766.58	1021.42
766.763	1064.43
766.946	886.26
767.129	916.98
767.312	992.75
767.495	929.27
767.678	964.08
767.861	1019.38
768.044	968.18
768.227	986.61
768.41	976.37
768.593	959.99
768.776	957.94
768.959	949.75
769.142	998.9
769.324	810.48
769.507	982.51
769.69	947.7
769.873	976.37
770.056	984.56
770.239	851.44
770.421	992.75
770.604	867.83
770.787	959.99
770.97	888.31
771.152	912.88
771.335	957.94
771.518	755.19
771.7	867.83
771.883	916.98
772.066	894.45
772.248	880.11
772.431	978.42
772.613	933.36
772.796	820.72
772.978	847.35
773.161	843.25
773.343	828.92
773.526	796.15
773.708	826.87
773.891	765.43
774.073	824.82
774.256	794.1
774.438	916.98
774.621	753.14
774.803	851.44
774.985	783.86
775.168	853.49
775.35	785.91
775.532	749.04
775.715	806.39
775.897	751.09
776.079	794.1
776.261	765.43
776.444	744.95
776.626	681.46
776.808	812.53
776.99	697.85
777.173	730.61
777.355	708.09
777.537	779.76
777.719	828.92
777.901	722.42
778.083	689.65
778.265	751.09
778.447	646.65
778.629	697.85
778.811	728.56
778.993	660.98
779.175	740.85
779.357	726.52
779.539	601.59
779.721	703.99
779.903	634.36
780.085	669.17
780.267	605.69
780.449	654.84
780.631	665.08
780.812	638.45
780.994	654.84
781.176	587.26
781.358	597.49
781.54	558.58
781.721	611.83
781.903	601.59
782.085	636.41
782.267	605.69
782.448	572.92
782.63	613.88
782.812	673.27
782.993	538.1
783.175	589.3
783.357	411.13
783.538	579.06
783.72	597.49
783.901	540.15
784.083	650.74
784.264	564.73
784.446	495.1
784.627	527.86
784.809	617.97
784.99	515.58
785.172	521.72
785.353	513.53
785.535	515.58
785.716	493.05
785.897	544.25
786.079	435.71
786.26	499.19
786.441	503.29
786.623	499.19
786.804	527.86
786.985	474.62
787.167	458.23
787.348	482.81
787.529	486.9
787.71	470.52
787.891	454.14
788.073	501.24
788.254	454.14
788.435	435.71
788.616	411.13
788.797	478.71
788.978	525.82
789.159	540.15
789.34	486.9
789.522	452.09
789.703	376.31
789.884	427.51
790.065	464.38
790.246	491
790.427	404.99
790.607	439.8
790.788	468.47
790.969	404.99
791.15	433.66
791.331	372.22
791.512	329.21
791.693	366.07
791.874	411.13
792.054	445.95
792.235	431.61
792.416	286.2
792.597	384.51
792.778	359.93
792.958	376.31
793.139	409.08
793.32	308.73
793.5	318.97
793.681	359.93
793.862	321.02
794.042	407.03
794.223	302.59
794.404	361.98
794.584	370.17
794.765	349.69
794.945	376.31
795.126	347.64
795.306	302.59
795.487	343.55
795.667	310.78
795.848	318.97
796.028	237.05
796.209	329.21
796.389	376.31
796.57	372.22
796.75	298.49
796.93	278.01
797.111	384.51
797.291	351.74
797.471	392.7
797.652	261.63
797.832	321.02
798.012	400.89
798.192	282.11
798.373	206.33
798.553	302.59
798.733	226.81
798.913	245.24
799.093	212.48
799.274	280.06
799.454	321.02
799.634	269.82
799.814	282.11
799.994	271.87
800.174	302.59
800.354	239.1
800.534	271.87
800.714	290.3
800.894	224.76
801.074	294.4
801.254	296.44
801.434	325.12
801.614	275.96
801.794	261.63
801.974	919.03
802.154	232.96
802.334	318.97
802.514	257.53
802.693	222.72
802.873	306.68
803.053	237.05
803.233	230.91
803.413	241.15
803.592	255.48
803.772	224.76
803.952	216.57
804.131	179.71
804.311	220.67
804.491	257.53
804.67	171.52
804.85	196.09
805.03	306.68
805.209	286.2
805.389	216.57
805.568	232.96
805.748	222.72
805.928	253.44
806.107	208.38
806.287	247.29
806.466	261.63
806.646	269.82
806.825	206.33
807.004	237.05
807.184	304.64
807.363	232.96
807.543	208.38
807.722	200.19
807.901	222.72
808.081	253.44
808.26	142.85
808.439	212.48
808.619	163.33
808.798	239.1
808.977	196.09
809.156	192
809.336	253.44
809.515	187.9
809.694	202.24
809.873	167.42
810.052	169.47
810.231	151.04
810.411	239.1
810.59	226.81
810.769	183.81
810.948	222.72
811.127	146.94
811.306	148.99
811.485	222.72
811.664	222.72
811.843	159.23
812.022	185.85
812.201	187.9
812.38	212.48
812.559	122.37
812.737	245.24
812.916	173.57
813.095	114.17
813.274	237.05
813.453	237.05
813.632	222.72
813.811	222.72
813.989	130.56
814.168	159.23
814.347	146.94
814.526	85.5
814.704	148.99
814.883	130.56
815.062	187.9
815.24	175.61
815.419	134.65
815.598	130.56
815.776	132.61
815.955	171.52
816.133	124.41
816.312	181.76
816.49	144.89
816.669	146.94
816.847	48.64
817.026	220.67
817.204	138.75
817.383	204.28
817.561	87.55
817.74	192
817.918	148.99
818.097	212.48
818.275	85.5
818.453	163.33
818.632	130.56
818.81	91.65
818.988	97.79
819.167	146.94
819.345	144.89
819.523	77.31
819.701	60.93
819.879	130.56
820.058	40.45
820.236	155.13
820.414	142.85
820.592	87.55
820.77	151.04
820.948	108.03
821.127	93.69
821.305	118.27
821.483	112.13
821.661	200.19
821.839	105.98
822.017	116.22
822.195	89.6
822.373	179.71
822.551	110.08
822.729	114.17
822.907	153.09
823.085	116.22
823.262	114.17
823.44	83.45
823.618	73.21
823.796	187.9
823.974	73.21
824.152	136.7
824.329	97.79
824.507	124.41
824.685	89.6
824.863	138.75
825.04	128.51
825.218	196.09
825.396	138.75
825.574	73.21
825.751	60.93
825.929	116.22
826.107	89.6
826.284	239.1
826.462	73.21
826.639	167.42
826.817	58.88
826.994	189.95
827.172	105.98
827.349	42.5
827.527	148.99
827.704	159.23
827.882	161.28
828.059	97.79
828.237	97.79
828.414	91.65
828.591	77.31
828.769	87.55
828.946	65.02
829.124	114.17
829.301	91.65
829.478	56.83
829.655	163.33
829.833	60.93
830.01	22.02
830.187	155.13
830.364	108.03
830.542	118.27
830.719	155.13
830.896	138.75
831.073	151.04
831.25	79.36
831.427	124.41
831.604	103.93
831.782	93.69
831.959	17.92
832.136	148.99
832.313	44.54
832.49	56.83
832.667	114.17
832.844	91.65
833.021	187.9
833.198	69.12
833.374	146.94
833.551	118.27
833.728	114.17
833.905	46.59
834.082	36.35
834.259	108.03
834.436	97.79
834.612	73.21
834.789	83.45
834.966	56.83
835.143	65.02
835.319	77.31
835.496	71.17
835.673	56.83
835.85	91.65
836.026	132.61
836.203	144.89
836.38	67.07
836.556	46.59
836.733	97.79
836.909	85.5
837.086	56.83
837.262	56.83
837.439	77.31
837.616	79.36
837.792	116.22
837.968	110.08
838.145	40.45
838.321	7.68
838.498	50.69
838.674	75.26
838.851	99.84
839.027	120.32
839.203	36.35
839.38	97.79
839.556	65.02
839.732	134.65
839.909	73.21
840.085	40.45
840.261	101.89
840.437	118.27
840.614	62.98
840.79	114.17
840.966	132.61
841.142	81.41
841.318	56.83
841.494	101.89
841.671	136.7
841.847	-31.23
842.023	56.83
842.199	40.45
842.375	130.56
842.551	60.93
842.727	-20.99
842.903	97.79
843.079	28.16
843.255	77.31
843.431	-18.94
843.607	85.5
843.783	-8.7
843.959	122.37
844.134	56.83
844.31	85.5
844.486	50.69
844.662	83.45
844.838	85.5
845.013	48.64
845.189	105.98
845.365	7.68
845.541	114.17
845.716	97.79
845.892	81.41
846.068	15.87
846.244	28.16
846.419	75.26
846.595	48.64
846.77	83.45
846.946	54.78
847.122	-23.04
847.297	-25.09
847.473	122.37
847.648	15.87
847.824	81.41
847.999	11.78
848.175	56.83
848.35	36.35
848.526	140.8
848.701	126.46
848.876	-6.66
849.052	67.07
849.227	58.88
849.403	75.26
849.578	122.37
849.753	36.35
849.929	126.46
850.104	56.83
850.279	89.6
850.454	44.54
850.63	11.78
850.805	52.74
850.98	120.32
851.155	89.6
851.33	3.58
851.505	60.93
851.681	65.02
851.856	-23.04
852.031	73.21
852.206	118.27
852.381	-8.7
852.556	77.31
852.731	110.08
852.906	56.83
853.081	116.22
853.256	7.68
853.431	28.16
853.606	28.16
853.781	-14.85
853.956	-16.9
854.131	60.93
854.305	9.73
854.48	15.87
854.655	-74.24
854.83	85.5
855.005	89.6
855.18	146.94
855.354	30.21
855.529	-4.61
855.704	17.92
855.879	105.98
856.053	42.5
856.228	91.65
856.403	42.5
856.577	3.58
856.752	15.87
856.926	9.73
857.101	67.07
857.276	-47.62
857.45	34.3
857.625	44.54
857.799	48.64
857.974	91.65
858.148	-0.51
858.323	85.5
858.497	75.26
858.672	5.63
858.846	-16.9
859.02	7.68
859.195	19.97
859.369	97.79
859.543	97.79
859.718	-14.85
859.892	-10.75
860.066	-6.66
860.241	7.68
860.415	42.5
860.589	42.5
860.763	30.21
860.938	-43.52
861.112	58.88
861.286	50.69
861.46	87.55
861.634	101.89
861.808	38.4
861.982	56.83
862.157	36.35
862.331	34.3
862.505	15.87
862.679	56.83
862.853	30.21
863.027	101.89
863.201	93.69
863.375	103.93
863.549	28.16
863.722	69.12
863.896	40.45
864.07	-20.99
864.244	-25.09
864.418	67.07
864.592	65.02
864.766	-6.66
864.939	81.41
865.113	-8.7
865.287	56.83
865.461	97.79
865.634	60.93
865.808	-25.09
865.982	-39.42
866.156	17.92
866.329	-16.9
866.503	42.5
866.676	-23.04
866.85	1.54
867.024	19.97
867.197	42.5
867.371	97.79
867.544	-29.18
867.718	-14.85
867.891	44.54
868.065	-2.56
868.238	-33.28
868.412	81.41
868.585	-66.05
868.759	-0.51
868.932	-25.09
869.105	32.26
869.279	-2.56
869.452	7.68
869.625	-18.94
869.799	11.78
869.972	-35.33
870.145	-29.18
870.319	-14.85
870.492	-23.04
870.665	42.5
870.838	67.07
871.011	13.82
871.185	-6.66
871.358	17.92
871.531	13.82
871.704	7.68
871.877	89.6
872.05	44.54
872.223	24.06
872.396	-45.57
872.569	32.26
872.742	-64
872.915	130.56
873.088	52.74
873.261	-6.66
873.434	24.06
873.607	28.16
873.78	52.74
873.953	-23.04
874.126	-6.66
874.299	83.45
874.471	9.73
874.644	15.87
874.817	60.93
874.99	19.97
875.163	52.74
875.335	9.73
875.508	44.54
875.681	7.68
875.853	22.02
876.026	1.54
876.199	89.6
876.371	17.92
876.544	40.45
876.717	46.59
876.889	-14.85
877.062	67.07
877.234	-0.51
877.407	65.02
877.579	11.78
877.752	17.92
877.924	11.78
878.097	13.82
878.269	97.79
878.442	-23.04
878.614	17.92
878.786	77.31
878.959	-53.76
879.131	97.79
879.303	54.78
879.476	24.06
879.648	56.83
879.82	-4.61
879.993	-23.04
880.165	-8.7
880.337	-25.09
880.509	52.74
880.681	9.73
880.854	34.3
881.026	-35.33
881.198	28.16
881.37	-12.8
881.542	-41.47
881.714	-16.9
881.886	56.83
882.058	24.06
882.23	32.26
882.402	11.78
882.574	40.45
882.746	97.79
882.918	75.26
883.09	9.73
883.262	69.12
883.434	-16.9
883.606	24.06
883.778	-20.99
883.95	83.45
884.122	81.41
884.293	7.68
884.465	89.6
884.637	69.12
884.809	17.92
884.98	32.26
885.152	130.56
885.324	19.97
885.496	-25.09
885.667	48.64
885.839	-47.62
886.011	83.45
886.182	-35.33
886.354	81.41
886.525	-41.47
886.697	32.26
886.869	-4.61
887.04	-23.04
887.212	15.87
887.383	62.98
887.555	50.69
887.726	-0.51
887.897	-8.7
888.069	-18.94
888.24	34.3
888.412	-0.51
888.583	-41.47
888.754	9.73
888.926	34.3
889.097	13.82
889.268	-53.76
889.44	48.64
889.611	32.26
889.782	69.12
889.953	-4.61
890.125	11.78
890.296	-23.04
890.467	73.21
890.638	58.88
890.809	73.21
890.98	26.11
891.151	65.02
891.323	65.02
891.494	40.45
891.665	24.06
891.836	15.87
892.007	36.35
892.178	83.45
892.349	-41.47
892.52	11.78
892.691	-18.94
892.862	-33.28
893.032	-25.09
893.203	83.45
893.374	148.99
893.545	65.02
893.716	-31.23
893.887	56.83
894.057	-14.85
894.228	-33.28
894.399	22.02
894.57	5.63
894.74	32.26
894.911	56.83
895.082	60.93
895.253	-35.33
895.423	-20.99
895.594	34.3
895.764	75.26
895.935	-8.7
896.106	7.68
896.276	7.68
896.447	-12.8
896.617	40.45
896.788	-39.42
896.958	19.97
897.129	5.63
897.299	-25.09
897.47	32.26
897.64	40.45
897.81	15.87
897.981	11.78
898.151	1.54
898.322	11.78
898.492	67.07
898.662	58.88
898.832	19.97
899.003	-2.56
899.173	-6.66
899.343	-0.51
899.513	-57.86
