Data from USB4F104151__318__14-35-09-469.txt Node

Date: Thu Mar 13 14:35:09 EDT 2025
User: louis
Spectrometer: USB4F10415
Trigger mode: 4
Integration Time (sec): 2.500000E-2
Scans to average: 1
Electric dark correction enabled: true
Nonlinearity correction enabled: false
Boxcar width: 0
XAxis mode: Wavelengths
Number of Pixels in Spectrum: 3648
>>>>>Begin Spectral Data<<<<<
178.204	-171.86
178.424	-171.86
178.644	-171.86
178.864	-153.43
179.084	-85.84
179.304	32.94
179.524	-32.6
179.744	-1.88
179.964	16.55
180.184	0.17
180.404	16.55
180.624	26.79
180.844	12.46
181.064	-81.75
181.283	-3.93
181.503	-18.26
181.723	32.94
181.943	0.17
182.163	114.86
182.383	8.36
182.602	108.71
182.822	80.04
183.042	32.94
183.262	10.41
183.482	26.79
183.701	59.56
183.921	82.09
184.141	-5.97
184.361	69.8
184.58	37.03
184.8	-98.13
185.02	73.9
185.239	118.95
185.459	92.33
185.679	100.52
185.898	-85.84
186.118	37.03
186.338	24.75
186.557	61.61
186.777	49.32
186.997	-8.02
187.216	2.22
187.436	110.76
187.655	32.94
187.875	8.36
188.095	-59.22
188.314	61.61
188.534	73.9
188.753	34.99
188.973	32.94
189.192	102.57
189.412	16.55
189.631	12.46
189.851	26.79
190.07	2.22
190.29	37.03
190.509	131.24
190.729	28.84
190.948	75.95
191.168	211.11
191.387	61.61
191.607	47.27
191.826	12.46
192.045	-32.6
192.265	49.32
192.484	57.51
192.704	131.24
192.923	-8.02
193.142	110.76
193.362	59.56
193.581	12.46
193.8	28.84
194.02	45.23
194.239	20.65
194.458	34.99
194.678	-48.98
194.897	-12.12
195.116	65.71
195.335	4.27
195.555	-38.74
195.774	8.36
195.993	41.13
196.212	57.51
196.432	16.55
196.651	24.75
196.87	34.99
197.089	155.82
197.308	49.32
197.528	-16.21
197.747	47.27
197.966	16.55
198.185	133.29
198.404	24.75
198.623	110.76
198.842	57.51
199.062	-12.12
199.281	12.46
199.5	-22.36
199.719	57.51
199.938	26.79
200.157	39.08
200.376	92.33
200.595	69.8
200.814	-36.69
201.033	-16.21
201.252	69.8
201.471	110.76
201.69	86.19
201.909	6.31
202.128	8.36
202.347	43.18
202.566	61.61
202.785	0.17
203.004	49.32
203.223	106.67
203.442	57.51
203.661	-20.31
203.879	-22.36
204.098	106.67
204.317	-16.21
204.536	73.9
204.755	116.9
204.974	123.05
205.193	55.47
205.411	41.13
205.63	102.57
205.849	73.9
206.068	16.55
206.287	10.41
206.505	75.95
206.724	10.41
206.943	-3.93
207.162	0.17
207.381	16.55
207.599	20.65
207.818	24.75
208.037	24.75
208.255	24.75
208.474	69.8
208.693	73.9
208.911	24.75
209.13	18.6
209.349	90.28
209.567	59.56
209.786	45.23
210.005	43.18
210.223	24.75
210.442	-28.5
210.661	57.51
210.879	39.08
211.098	100.52
211.316	112.81
211.535	71.85
211.753	49.32
211.972	65.71
212.191	24.75
212.409	90.28
212.628	34.99
212.846	32.94
213.065	49.32
213.283	34.99
213.502	28.84
213.72	61.61
213.938	8.36
214.157	49.32
214.375	86.19
214.594	8.36
214.812	30.89
215.031	84.14
215.249	20.65
215.467	59.56
215.686	10.41
215.904	114.86
216.122	61.61
216.341	65.71
216.559	61.61
216.778	77.99
216.996	67.75
217.214	20.65
217.432	-48.98
217.651	-5.97
217.869	-3.93
218.087	18.6
218.306	37.03
218.524	84.14
218.742	-24.4
218.96	26.79
219.179	-24.4
219.397	86.19
219.615	123.05
219.833	86.19
220.051	-8.02
220.27	59.56
220.488	34.99
220.706	61.61
220.924	26.79
221.142	8.36
221.36	18.6
221.578	61.61
221.796	18.6
222.015	61.61
222.233	20.65
222.451	49.32
222.669	2.22
222.887	24.75
223.105	-22.36
223.323	34.99
223.541	43.18
223.759	67.75
223.977	82.09
224.195	82.09
224.413	92.33
224.631	88.23
224.849	-24.4
225.067	71.85
225.285	53.42
225.503	80.04
225.721	-20.31
225.939	61.61
226.157	49.32
226.375	172.2
226.592	2.22
226.81	-26.45
227.028	106.67
227.246	121
227.464	67.75
227.682	53.42
227.9	59.56
228.117	65.71
228.335	28.84
228.553	49.32
228.771	98.47
228.989	73.9
229.206	-36.69
229.424	20.65
229.642	26.79
229.86	51.37
230.077	131.24
230.295	26.79
230.513	63.66
230.731	67.75
230.948	41.13
231.166	73.9
231.384	110.76
231.601	-24.4
231.819	84.14
232.037	43.18
232.254	12.46
232.472	32.94
232.689	59.56
232.907	41.13
233.125	104.62
233.342	69.8
233.56	24.75
233.777	84.14
233.995	24.75
234.213	123.05
234.43	65.71
234.648	32.94
234.865	-14.17
235.083	55.47
235.3	12.46
235.518	59.56
235.735	108.71
235.953	51.37
236.17	2.22
236.388	10.41
236.605	92.33
236.822	18.6
237.04	131.24
237.257	86.19
237.475	24.75
237.692	24.75
237.909	57.51
238.127	43.18
238.344	49.32
238.562	47.27
238.779	10.41
238.996	10.41
239.214	-26.45
239.431	123.05
239.648	10.41
239.865	84.14
240.083	63.66
240.3	16.55
240.517	41.13
240.735	49.32
240.952	75.95
241.169	157.86
241.386	4.27
241.603	-16.21
241.821	-26.45
242.038	53.42
242.255	69.8
242.472	47.27
242.689	57.51
242.907	118.95
243.124	-28.5
243.341	69.8
243.558	-5.97
243.775	71.85
243.992	73.9
244.209	139.43
244.426	98.47
244.643	59.56
244.86	67.75
245.078	59.56
245.295	151.72
245.512	49.32
245.729	43.18
245.946	110.76
246.163	41.13
246.38	90.28
246.597	0.17
246.814	-36.69
247.031	98.47
247.248	65.71
247.464	75.95
247.681	71.85
247.898	43.18
248.115	4.27
248.332	-22.36
248.549	41.13
248.766	32.94
248.983	69.8
249.2	106.67
249.417	61.61
249.633	59.56
249.85	98.47
250.067	39.08
250.284	-22.36
250.501	123.05
250.717	77.99
250.934	69.8
251.151	90.28
251.368	69.8
251.585	67.75
251.801	96.43
252.018	-38.74
252.235	65.71
252.451	-40.79
252.668	43.18
252.885	88.23
253.102	37.03
253.318	71.85
253.535	14.51
253.752	0.17
253.968	82.09
254.185	57.51
254.401	22.7
254.618	0.17
254.835	2.22
255.051	153.77
255.268	57.51
255.484	41.13
255.701	8.36
255.917	100.52
256.134	32.94
256.351	67.75
256.567	41.13
256.784	65.71
257	12.46
257.217	63.66
257.433	63.66
257.65	114.86
257.866	67.75
258.082	-8.02
258.299	98.47
258.515	82.09
258.732	34.99
258.948	-40.79
259.165	51.37
259.381	-30.55
259.597	-14.17
259.814	43.18
260.03	26.79
260.246	41.13
260.463	90.28
260.679	24.75
260.895	2.22
261.112	131.24
261.328	82.09
261.544	-36.69
261.761	133.29
261.977	24.75
262.193	-73.56
262.409	59.56
262.626	63.66
262.842	88.23
263.058	4.27
263.274	77.99
263.49	57.51
263.707	37.03
263.923	32.94
264.139	-53.08
264.355	61.61
264.571	37.03
264.787	37.03
265.004	26.79
265.22	51.37
265.436	61.61
265.652	-32.6
265.868	57.51
266.084	106.67
266.3	39.08
266.516	-36.69
266.732	80.04
266.948	-8.02
267.164	86.19
267.38	-30.55
267.596	18.6
267.812	164.01
268.028	80.04
268.244	45.23
268.46	73.9
268.676	16.55
268.892	45.23
269.108	-10.07
269.324	65.71
269.54	106.67
269.756	98.47
269.972	4.27
270.188	-8.02
270.403	41.13
270.619	65.71
270.835	63.66
271.051	18.6
271.267	37.03
271.483	16.55
271.698	45.23
271.914	100.52
272.13	41.13
272.346	57.51
272.562	28.84
272.777	98.47
272.993	131.24
273.209	24.75
273.425	24.75
273.64	-36.69
273.856	75.95
274.072	51.37
274.287	32.94
274.503	-14.17
274.719	57.51
274.934	20.65
275.15	37.03
275.366	139.43
275.581	26.79
275.797	-8.02
276.012	90.28
276.228	108.71
276.444	4.27
276.659	127.14
276.875	51.37
277.09	4.27
277.306	24.75
277.521	37.03
277.737	22.7
277.952	71.85
278.168	-42.84
278.383	-16.21
278.599	63.66
278.814	16.55
279.03	24.75
279.245	45.23
279.461	-14.17
279.676	84.14
279.892	57.51
280.107	43.18
280.322	18.6
280.538	90.28
280.753	51.37
280.969	43.18
281.184	73.9
281.399	65.71
281.615	0.17
281.83	84.14
282.045	26.79
282.26	57.51
282.476	53.42
282.691	57.51
282.906	-16.21
283.122	34.99
283.337	4.27
283.552	16.55
283.767	10.41
283.983	86.19
284.198	69.8
284.413	86.19
284.628	-42.84
284.843	49.32
285.058	43.18
285.274	41.13
285.489	16.55
285.704	73.9
285.919	-40.79
286.134	32.94
286.349	84.14
286.564	43.18
286.779	53.42
286.995	53.42
287.21	37.03
287.425	110.76
287.64	16.55
287.855	57.51
288.07	34.99
288.285	10.41
288.5	32.94
288.715	106.67
288.93	24.75
289.145	8.36
289.36	82.09
289.575	41.13
289.79	166.06
290.004	26.79
290.219	28.84
290.434	84.14
290.649	41.13
290.864	24.75
291.079	-53.08
291.294	59.56
291.509	75.95
291.724	75.95
291.938	69.8
292.153	34.99
292.368	18.6
292.583	41.13
292.798	45.23
293.012	55.47
293.227	24.75
293.442	2.22
293.657	14.51
293.871	51.37
294.086	16.55
294.301	57.51
294.516	75.95
294.73	-1.88
294.945	57.51
295.16	84.14
295.374	123.05
295.589	26.79
295.804	-8.02
296.018	-3.93
296.233	114.86
296.447	100.52
296.662	-1.88
296.877	141.48
297.091	69.8
297.306	61.61
297.52	10.41
297.735	57.51
297.949	20.65
298.164	86.19
298.378	61.61
298.593	-20.31
298.807	-12.12
299.022	65.71
299.236	61.61
299.451	77.99
299.665	41.13
299.88	94.38
300.094	34.99
300.309	61.61
300.523	98.47
300.737	43.18
300.952	63.66
301.166	65.71
301.381	26.79
301.595	37.03
301.809	57.51
302.024	49.32
302.238	2.22
302.452	69.8
302.667	-44.88
302.881	147.62
303.095	110.76
303.309	84.14
303.524	20.65
303.738	53.42
303.952	34.99
304.166	77.99
304.381	-14.17
304.595	67.75
304.809	0.17
305.023	10.41
305.237	-5.97
305.452	-32.6
305.666	61.61
305.88	45.23
306.094	69.8
306.308	30.89
306.522	18.6
306.736	53.42
306.95	98.47
307.164	59.56
307.379	73.9
307.593	118.95
307.807	30.89
308.021	67.75
308.235	49.32
308.449	-48.98
308.663	-32.6
308.877	90.28
309.091	2.22
309.305	94.38
309.519	4.27
309.733	24.75
309.947	-20.31
310.161	67.75
310.374	69.8
310.588	49.32
310.802	-3.93
311.016	2.22
311.23	34.99
311.444	4.27
311.658	0.17
311.872	0.17
312.085	47.27
312.299	41.13
312.513	123.05
312.727	63.66
312.941	16.55
313.154	-46.93
313.368	59.56
313.582	73.9
313.796	32.94
314.009	14.51
314.223	164.01
314.437	18.6
314.651	67.75
314.864	16.55
315.078	-8.02
315.292	73.9
315.505	39.08
315.719	98.47
315.933	131.24
316.146	65.71
316.36	-32.6
316.573	65.71
316.787	22.7
317.001	53.42
317.214	12.46
317.428	43.18
317.641	24.75
317.855	41.13
318.068	73.9
318.282	67.75
318.495	65.71
318.709	16.55
318.922	20.65
319.136	114.86
319.349	59.56
319.563	-20.31
319.776	96.43
319.99	-12.12
320.203	108.71
320.417	43.18
320.63	77.99
320.843	114.86
321.057	82.09
321.27	77.99
321.483	100.52
321.697	80.04
321.91	82.09
322.124	84.14
322.337	-14.17
322.55	65.71
322.763	34.99
322.977	51.37
323.19	8.36
323.403	51.37
323.617	0.17
323.83	51.37
324.043	34.99
324.256	133.29
324.469	51.37
324.683	69.8
324.896	53.42
325.109	106.67
325.322	55.47
325.535	147.62
325.748	55.47
325.962	43.18
326.175	59.56
326.388	116.9
326.601	92.33
326.814	-14.17
327.027	-24.4
327.24	88.23
327.453	24.75
327.666	53.42
327.879	96.43
328.092	61.61
328.305	-12.12
328.518	-8.02
328.731	26.79
328.944	51.37
329.157	32.94
329.37	43.18
329.583	114.86
329.796	92.33
330.009	24.75
330.222	32.94
330.435	94.38
330.648	49.32
330.861	28.84
331.073	104.62
331.286	67.75
331.499	84.14
331.712	67.75
331.925	51.37
332.138	28.84
332.35	73.9
332.563	4.27
332.776	45.23
332.989	-14.17
333.202	43.18
333.414	75.95
333.627	73.9
333.84	67.75
334.053	94.38
334.265	-28.5
334.478	-14.17
334.691	94.38
334.903	108.71
335.116	34.99
335.329	49.32
335.541	77.99
335.754	28.84
335.966	41.13
336.179	34.99
336.392	32.94
336.604	45.23
336.817	133.29
337.029	49.32
337.242	51.37
337.454	32.94
337.667	90.28
337.88	82.09
338.092	-10.07
338.305	86.19
338.517	34.99
338.729	98.47
338.942	116.9
339.154	16.55
339.367	80.04
339.579	65.71
339.792	32.94
340.004	32.94
340.217	16.55
340.429	57.51
340.641	20.65
340.854	-67.41
341.066	32.94
341.278	43.18
341.491	149.67
341.703	131.24
341.915	0.17
342.128	127.14
342.34	94.38
342.552	26.79
342.764	34.99
342.977	-30.55
343.189	123.05
343.401	51.37
343.613	65.71
343.826	65.71
344.038	24.75
344.25	82.09
344.462	67.75
344.674	16.55
344.886	41.13
345.099	98.47
345.311	61.61
345.523	12.46
345.735	-24.4
345.947	69.8
346.159	10.41
346.371	39.08
346.583	-5.97
346.795	153.77
347.007	16.55
347.219	123.05
347.431	90.28
347.643	49.32
347.855	34.99
348.067	90.28
348.279	-8.02
348.491	16.55
348.703	90.28
348.915	123.05
349.127	51.37
349.339	41.13
349.551	41.13
349.763	73.9
349.975	94.38
350.187	65.71
350.399	24.75
350.61	20.65
350.822	-8.02
351.034	67.75
351.246	26.79
351.458	24.75
351.669	45.23
351.881	59.56
352.093	104.62
352.305	84.14
352.517	90.28
352.728	86.19
352.94	69.8
353.152	24.75
353.363	0.17
353.575	61.61
353.787	73.9
353.999	155.82
354.21	143.53
354.422	26.79
354.633	8.36
354.845	118.95
355.057	98.47
355.268	37.03
355.48	147.62
355.692	34.99
355.903	53.42
356.115	41.13
356.326	-5.97
356.538	84.14
356.749	69.8
356.961	114.86
357.172	106.67
357.384	49.32
357.595	155.82
357.807	73.9
358.018	4.27
358.23	100.52
358.441	135.34
358.653	123.05
358.864	69.8
359.075	0.17
359.287	51.37
359.498	82.09
359.709	20.65
359.921	61.61
360.132	16.55
360.344	133.29
360.555	-5.97
360.766	-28.5
360.977	43.18
361.189	-28.5
361.4	-24.4
361.611	164.01
361.823	32.94
362.034	8.36
362.245	-102.23
362.456	30.89
362.667	6.31
362.879	-24.4
363.09	-8.02
363.301	45.23
363.512	59.56
363.723	43.18
363.935	12.46
364.146	59.56
364.357	90.28
364.568	82.09
364.779	59.56
364.99	133.29
365.201	34.99
365.412	139.43
365.623	4.27
365.834	84.14
366.045	16.55
366.256	114.86
366.467	94.38
366.678	-14.17
366.889	102.57
367.1	71.85
367.311	24.75
367.522	49.32
367.733	2.22
367.944	73.9
368.155	45.23
368.366	75.95
368.577	73.9
368.788	106.67
368.999	-3.93
369.209	49.32
369.42	155.82
369.631	127.14
369.842	108.71
370.053	73.9
370.264	98.47
370.474	69.8
370.685	84.14
370.896	135.34
371.107	49.32
371.317	57.51
371.528	6.31
371.739	114.86
371.95	4.27
372.16	106.67
372.371	2.22
372.582	32.94
372.792	90.28
373.003	65.71
373.214	53.42
373.424	51.37
373.635	61.61
373.846	116.9
374.056	90.28
374.267	69.8
374.477	59.56
374.688	32.94
374.898	106.67
375.109	32.94
375.319	98.47
375.53	57.51
375.74	82.09
375.951	90.28
376.161	34.99
376.372	8.36
376.582	77.99
376.793	129.19
377.003	51.37
377.214	57.51
377.424	84.14
377.635	65.71
377.845	67.75
378.055	90.28
378.266	43.18
378.476	80.04
378.686	82.09
378.897	127.14
379.107	61.61
379.317	106.67
379.528	-3.93
379.738	94.38
379.948	8.36
380.158	37.03
380.369	127.14
380.579	114.86
380.789	43.18
380.999	37.03
381.21	73.9
381.42	110.76
381.63	73.9
381.84	125.1
382.05	92.33
382.261	110.76
382.471	69.8
382.681	-8.02
382.891	82.09
383.101	49.32
383.311	53.42
383.521	49.32
383.731	123.05
383.941	84.14
384.151	125.1
384.361	86.19
384.571	32.94
384.781	41.13
384.991	131.24
385.201	125.1
385.411	32.94
385.621	61.61
385.831	12.46
386.041	182.44
386.251	110.76
386.461	133.29
386.671	53.42
386.881	114.86
387.091	82.09
387.301	49.32
387.511	82.09
387.72	80.04
387.93	96.43
388.14	51.37
388.35	110.76
388.56	90.28
388.769	123.05
388.979	110.76
389.189	110.76
389.399	166.06
389.609	59.56
389.818	30.89
390.028	131.24
390.238	90.28
390.447	10.41
390.657	116.9
390.867	61.61
391.076	34.99
391.286	106.67
391.496	61.61
391.705	90.28
391.915	114.86
392.125	153.77
392.334	92.33
392.544	73.9
392.753	65.71
392.963	4.27
393.172	73.9
393.382	133.29
393.591	141.48
393.801	96.43
394.01	112.81
394.22	98.47
394.429	39.08
394.639	30.89
394.848	90.28
395.058	82.09
395.267	129.19
395.477	180.39
395.686	106.67
395.895	168.1
396.105	139.43
396.314	106.67
396.524	32.94
396.733	45.23
396.942	143.53
397.152	133.29
397.361	196.78
397.57	166.06
397.78	63.66
397.989	186.54
398.198	149.67
398.407	49.32
398.617	123.05
398.826	100.52
399.035	110.76
399.244	121
399.453	43.18
399.663	106.67
399.872	133.29
400.081	159.91
400.29	159.91
400.499	90.28
400.708	192.68
400.917	90.28
401.127	141.48
401.336	147.62
401.545	190.63
401.754	194.73
401.963	164.01
402.172	155.82
402.381	155.82
402.59	82.09
402.799	100.52
403.008	180.39
403.217	75.95
403.426	174.25
403.635	88.23
403.844	118.95
404.053	131.24
404.262	110.76
404.471	196.78
404.68	184.49
404.888	272.55
405.097	174.25
405.306	204.97
405.515	166.06
405.724	241.83
405.933	303.27
406.142	204.97
406.35	221.35
406.559	159.91
406.768	209.06
406.977	319.65
407.185	278.69
407.394	209.06
407.603	223.4
407.812	204.97
408.02	278.69
408.229	237.74
408.438	250.02
408.646	209.06
408.855	303.27
409.064	311.46
409.272	301.22
409.481	336.04
409.69	319.65
409.898	286.89
410.107	321.7
410.315	401.57
410.524	331.94
410.733	401.57
410.941	362.66
411.15	393.38
411.358	356.52
411.567	426.15
411.775	428.2
411.984	440.48
412.192	465.06
412.401	467.11
412.609	569.51
412.818	559.27
413.026	544.93
413.234	508.07
413.443	569.51
413.651	510.11
413.86	622.75
414.068	622.75
414.276	719.01
414.485	704.67
414.693	762.02
414.901	802.97
415.11	770.21
415.318	825.5
415.526	796.83
415.734	909.47
415.943	786.59
416.151	903.32
416.359	903.32
416.567	991.39
416.776	1024.16
416.984	1065.11
417.192	1081.5
417.4	1001.63
417.608	1126.55
417.817	1075.35
418.025	1181.85
418.233	1245.34
418.441	1290.39
418.649	1132.7
418.857	1317.01
419.065	1384.6
419.273	1441.94
419.481	1534.1
419.689	1599.63
419.897	1601.68
420.105	1714.32
420.313	1638.55
420.521	1818.77
420.729	1730.7
420.937	1818.77
421.145	1843.34
421.353	1945.74
421.561	2187.4
421.769	2042
421.977	2236.55
422.185	2211.98
422.393	2369.67
422.601	2525.32
422.809	2578.56
423.017	2427.01
423.224	2658.43
423.432	2695.3
423.64	2814.08
423.848	2869.37
424.056	2826.37
424.263	3055.74
424.471	3070.08
424.679	2961.53
424.887	3274.87
425.094	3410.04
425.302	3410.04
425.51	3549.3
425.718	3760.24
425.925	3704.95
426.133	3776.63
426.341	4061.29
426.548	4186.22
426.756	4292.71
426.964	4253.8
427.171	4546.66
427.379	4784.23
427.586	4812.9
427.794	4786.27
428.001	4886.62
428.209	5251.16
428.417	5169.24
428.624	5550.17
428.832	5480.54
429.039	5496.92
429.247	5437.53
429.454	6037.58
429.662	6209.61
429.869	6217.8
430.076	6393.93
430.284	6418.5
430.491	6697.03
430.699	6824
430.906	7030.85
431.114	6950.98
431.321	7151.68
431.528	7596.09
431.736	7944.24
431.943	8124.46
432.15	7985.2
432.358	7934
432.565	8509.48
432.772	8620.07
432.979	8867.88
433.187	9115.68
433.394	9023.52
433.601	9553.94
433.808	9635.86
434.016	9736.21
434.223	9875.48
434.43	10770.44
434.637	10553.35
434.844	11182.08
435.052	11292.67
435.259	11341.82
435.466	11218.94
435.673	11208.7
435.88	11980.79
436.087	12378.09
436.294	12396.53
436.501	12290.03
436.708	12644.33
436.915	12965.86
437.122	13410.27
437.329	13690.84
437.537	13791.19
437.743	14176.21
437.95	14161.87
438.157	14811.08
438.364	15255.49
438.571	15519.68
438.778	15505.34
438.985	16682.92
439.192	15929.27
439.399	16547.76
439.606	15994.81
439.813	17086.37
440.02	18243.48
440.227	17778.59
440.433	17520.54
440.64	18208.66
440.847	18003.86
441.054	18489.23
441.261	20074.36
441.467	19459.97
441.674	20162.42
441.881	20551.54
442.088	20500.34
442.294	20246.39
442.501	20895.6
442.708	21352.29
442.914	21890.91
443.121	22927.18
443.328	22347.61
443.534	24072
443.741	23580.48
443.948	23002.96
444.154	24540.98
444.361	24434.49
444.568	24454.97
444.774	24612.66
444.981	25128.75
445.187	25687.84
445.394	26648.34
445.6	26445.59
445.807	28851.95
446.013	27463.43
446.22	28131.07
446.426	29316.84
446.633	29478.63
446.839	30684.89
447.046	29054.7
447.252	31004.37
447.459	30836.44
447.665	30863.06
447.871	32272.06
448.078	33384.11
448.284	31649.48
448.491	32951.99
448.697	34119.33
448.903	34520.73
449.11	34903.7
449.316	33892.01
449.522	34533.02
449.728	35806.86
449.935	35817.1
450.141	36144.77
450.347	37019.25
450.553	35733.13
450.76	35806.86
450.966	37197.43
451.172	36621.95
451.378	38520.41
451.584	37150.32
451.791	37867.11
451.997	37830.25
452.203	38254.18
452.409	38436.45
452.615	38362.72
452.821	36564.6
453.027	36580.99
453.233	38049.38
453.44	37338.74
453.646	37615.21
453.852	37195.38
454.058	38241.89
454.264	36890.23
454.47	37815.91
454.676	36578.94
454.882	38063.72
455.088	34774.68
455.294	35258
455.5	36003.46
455.705	36050.56
455.911	35030.68
456.117	34078.37
456.323	33623.72
456.529	31983.3
456.735	33113.78
456.941	32241.34
457.147	32024.26
457.352	30852.82
457.558	30758.61
457.764	30973.65
457.97	30265.05
458.176	29779.68
458.381	29376.23
458.587	27985.66
458.793	28055.29
458.999	26494.74
459.204	28569.33
459.41	27614.98
459.616	25786.15
459.821	25845.54
460.027	25999.13
460.233	25161.51
460.438	23998.27
460.644	23983.93
460.85	23097.16
461.055	22984.52
461.261	22769.49
461.466	20899.69
461.672	20367.22
461.878	21741.41
462.083	20199.29
462.289	19810.17
462.494	19656.57
462.7	18900.87
462.905	18362.26
463.111	18782.09
463.316	18892.68
463.522	18943.88
463.727	18515.86
463.932	18550.67
464.138	18073.49
464.343	18130.84
464.549	17731.48
464.754	18268.05
464.959	18409.36
465.165	18184.09
465.37	17172.39
465.575	16844.71
465.781	17653.66
465.986	17346.47
466.191	16734.12
466.397	16582.57
466.602	15550.4
466.807	16365.49
467.012	16279.47
467.218	16314.29
467.423	16056.25
467.628	16074.68
467.833	16617.39
468.038	16199.6
468.244	15693.76
468.449	16203.7
468.654	15740.86
468.859	15544.25
469.064	15519.68
469.269	15302.59
469.474	15007.69
469.679	15312.83
469.885	14931.91
470.09	15058.88
470.295	15065.03
470.5	14362.58
470.705	14790.6
470.91	14387.15
471.115	14294.99
471.32	14393.3
471.525	14393.3
471.73	14211.03
471.935	13889.49
472.139	13461.47
472.344	13635.55
472.549	13389.79
472.754	13342.69
472.959	13215.71
473.164	12691.43
473.369	12812.26
473.574	13238.24
473.778	13166.56
473.983	12722.15
474.188	12906.47
474.393	12206.06
474.598	12558.32
474.802	12152.82
475.007	12302.32
475.212	12165.11
475.417	11569.15
475.621	11665.4
475.826	11780.09
476.031	11536.38
476.235	11229.18
476.44	11390.97
476.645	11190.27
476.849	11444.22
477.054	11159.55
477.259	10772.49
477.463	10770.44
477.668	10674.18
477.872	10878.98
478.077	10668.04
478.282	10264.59
478.486	10215.44
478.691	10059.79
478.895	10383.37
479.1	10018.83
479.304	10104.85
479.509	9873.43
479.713	10135.57
479.918	9771.03
480.122	9652.25
480.326	9781.27
480.531	9797.65
480.735	9674.78
480.94	9531.42
481.144	9764.89
481.348	9498.65
481.553	9463.83
481.757	9340.96
481.961	9330.72
482.166	9523.23
482.37	9576.47
482.574	9312.28
482.778	9392.16
482.983	9519.13
483.187	9218.08
483.391	9564.18
483.595	9322.52
483.8	9121.82
484.004	9248.8
484.208	9478.17
484.412	9383.96
484.616	9287.71
484.821	9484.31
485.025	9095.2
485.229	9463.83
485.433	9183.26
485.637	9328.67
485.841	9062.43
486.045	9314.33
486.249	9494.55
486.453	9093.15
486.657	9123.87
486.861	9267.23
487.065	9125.92
487.269	9254.94
487.473	9035.81
487.677	9355.29
487.881	9392.16
488.085	9216.03
488.289	9216.03
488.493	9209.89
488.697	9146.4
488.901	9512.99
489.105	9314.33
489.309	9318.43
489.512	9308.19
489.716	9256.99
489.92	9285.66
490.124	9297.95
490.328	9414.68
490.531	9193.5
490.735	9383.96
490.939	9275.42
491.143	9455.64
491.346	9355.29
491.55	9472.03
491.754	9455.64
491.958	9523.23
492.161	9570.33
492.365	9650.2
492.569	9635.86
492.772	9517.08
492.976	9779.22
493.18	9625.62
493.383	9908.24
493.587	9627.67
493.79	9908.24
493.994	9957.39
494.197	9822.23
494.401	9977.87
494.605	10031.12
494.808	9951.25
495.012	9996.31
495.215	10283.02
495.419	10102.8
495.622	10182.67
495.825	10328.08
496.029	10334.22
496.232	10467.34
496.436	10682.38
496.639	10897.41
496.843	10661.9
497.046	10864.64
497.249	11065.35
497.453	11001.86
497.656	11108.35
497.859	11077.63
498.063	11216.9
498.266	11476.99
498.469	11378.69
498.673	11587.58
498.876	11890.68
499.079	12031.99
499.282	11749.37
499.485	12222.45
499.689	12111.86
499.892	12283.89
500.095	12500.97
500.298	12668.91
500.501	12529.64
500.705	12859.37
500.908	12965.86
501.111	12865.51
501.314	13168.61
501.517	13412.32
501.72	13533.15
501.923	13477.85
502.126	13860.82
502.329	13940.69
502.532	14006.23
502.735	13873.11
502.938	14227.41
503.141	14106.58
503.344	14872.52
503.547	14757.83
503.75	14860.23
503.953	15116.23
504.156	15323.07
504.359	15175.62
504.562	15243.2
504.765	15572.93
504.968	15622.08
505.17	15968.18
505.373	16041.91
505.576	16195.51
505.779	16433.07
505.982	16465.84
506.185	16711.6
506.387	16768.94
506.59	17074.09
506.793	17381.28
506.996	16981.93
507.198	17686.43
507.401	17502.11
507.604	17735.58
507.807	18327.44
508.009	18249.62
508.212	18679.69
508.415	18833.29
508.617	18892.68
508.82	18894.73
509.022	18954.12
509.225	19550.08
509.428	19574.66
509.63	19640.19
509.833	19529.6
510.035	20404.08
510.238	19933.05
510.44	20496.24
510.643	20844.4
510.845	20975.47
511.048	20762.48
511.25	21176.17
511.453	21337.96
511.655	21931.87
511.858	21770.08
512.06	21864.29
512.262	22292.31
512.465	22116.19
512.667	22806.35
512.87	22603.6
513.072	22986.57
513.274	23107.4
513.477	23521.09
513.679	23519.04
513.881	23574.34
514.084	24016.7
514.286	23934.78
514.488	24137.53
514.69	24807.22
514.893	25306.92
515.095	24887.09
515.297	25354.02
515.499	25603.88
515.701	25689.89
515.904	26144.54
516.106	26017.57
516.308	26347.29
516.51	26801.94
516.712	26627.86
516.914	26947.34
517.116	27299.59
517.318	27365.13
517.52	27193.1
517.722	27686.66
517.925	27981.57
518.127	28360.44
518.329	28405.5
518.531	28169.98
518.733	28708.6
518.935	29013.74
519.136	28987.12
519.338	29484.78
519.54	29388.52
519.742	29685.48
519.944	29777.64
520.146	30519
520.348	30619.35
520.55	30572.25
520.752	30678.74
520.954	30856.92
521.155	30891.73
521.357	31284.94
521.559	31411.92
521.761	31758.02
521.963	31796.93
522.164	31878.85
522.366	32108.22
522.568	32470.72
522.77	32210.62
522.971	32829.11
523.173	32296.64
523.375	33040.05
523.576	33152.69
523.778	32857.78
523.98	33445.55
524.181	33236.66
524.383	33248.94
524.584	33986.21
524.786	33836.71
524.988	33652.39
525.189	33941.16
525.391	34037.41
525.592	34274.98
525.794	34021.03
525.995	33928.87
526.197	33857.19
526.398	34115.23
526.6	34313.89
526.801	34336.41
527.003	34358.94
527.204	34334.37
527.406	34723.48
527.607	34459.29
527.808	35059.35
528.01	34481.82
528.211	34385.57
528.412	35272.34
528.614	34985.62
528.815	34834.07
529.016	35276.43
529.218	34492.06
529.419	34829.98
529.62	35073.68
529.822	34844.31
530.023	35114.64
530.224	34506.4
530.425	34766.49
530.626	34655.9
530.828	34555.55
531.029	35088.02
531.23	34762.39
531.431	34899.61
531.632	35126.93
531.833	34850.45
532.035	35167.89
532.236	34696.86
532.437	34795.16
532.638	34549.4
532.839	34680.47
533.04	34449.05
533.241	34506.4
533.442	34961.05
533.643	34590.36
533.844	34453.15
534.045	34260.64
534.246	33994.4
534.447	34526.88
534.648	34436.77
534.849	34647.71
535.05	34248.35
535.251	34086.56
535.451	33795.75
535.652	34287.26
535.853	33844.9
536.054	34250.4
536.255	34422.43
536.456	33820.33
536.657	34610.84
536.857	33885.86
537.058	33619.63
537.259	34225.82
537.46	34059.94
537.66	33883.81
537.861	33660.59
538.062	33877.67
538.263	33795.75
538.463	33767.08
538.664	33861.29
538.865	33552.04
539.065	33740.46
539.266	33380.01
539.466	33607.34
539.667	32986.8
539.868	33674.92
540.068	33337.01
540.269	33453.74
540.469	33605.29
540.67	32972.47
540.87	33177.26
541.071	33277.61
541.271	33062.58
541.472	33478.32
541.672	33074.87
541.873	33033.91
542.073	32874.17
542.274	33506.99
542.474	33154.74
542.675	32882.36
542.875	33199.79
543.075	33095.35
543.276	32294.59
543.476	33171.12
543.676	32794.29
543.877	33003.19
544.077	32990.9
544.277	32716.47
544.478	32956.08
544.678	33201.84
544.878	32814.77
545.078	32921.27
545.279	32523.96
545.479	32759.48
545.679	32827.06
545.879	32804.53
546.079	32687.8
546.28	32822.97
546.48	32839.35
546.68	32632.5
546.88	32978.61
547.08	32564.92
547.28	32609.98
547.48	32444.09
547.68	32968.37
547.88	32421.56
548.081	33081.01
548.281	32698.04
548.481	32679.61
548.681	32976.56
548.881	32732.86
549.081	33046.19
549.28	32861.88
549.48	32894.64
549.68	32683.7
549.88	33214.13
550.08	32820.92
550.28	32941.75
550.48	32855.73
550.68	33132.21
550.88	32755.38
551.08	32878.26
551.279	33115.83
551.479	32765.62
551.679	33025.71
551.879	33027.76
552.079	33033.91
552.278	32995
552.478	32966.32
552.678	32939.7
552.878	33238.7
553.077	33046.19
553.277	32878.26
553.477	33400.49
553.676	32835.25
553.876	33328.81
554.076	32691.9
554.275	33410.73
554.475	32816.82
554.674	33158.83
554.874	33218.22
555.074	33248.94
555.273	33416.88
555.473	33296.05
555.672	33019.57
555.872	33457.84
556.071	33564.33
556.271	33445.55
556.47	33250.99
556.67	33117.87
556.869	33191.6
557.068	33631.91
557.268	33273.52
557.467	33633.96
557.667	33132.21
557.866	33283.76
558.065	33187.5
558.265	33140.4
558.464	33521.32
558.663	33674.92
558.863	33191.6
559.062	33781.42
559.261	33146.54
559.461	34047.65
559.66	33140.4
559.859	33377.97
560.058	33050.29
560.258	33478.32
560.457	33111.73
560.656	33566.38
560.855	33199.79
561.054	33375.92
561.253	33388.21
561.453	33363.63
561.652	33687.21
561.851	33496.75
562.05	33322.67
562.249	33003.19
562.448	33552.04
562.647	33281.71
562.846	33007.28
563.045	33463.98
563.244	33128.11
563.443	33636.01
563.642	32984.76
563.841	32978.61
564.04	33091.25
564.239	33349.29
564.438	32831.16
564.637	33148.59
564.836	32829.11
565.035	32829.11
565.234	32825.01
565.432	33304.24
565.631	32992.95
565.83	32986.8
566.029	32982.71
566.228	32282.3
566.427	32722.62
566.625	32300.73
566.824	32196.29
567.023	32954.04
567.222	31938.24
567.42	32839.35
567.619	32415.42
567.818	32087.75
568.016	32286.4
568.215	32560.83
568.414	32452.28
568.612	32251.58
568.811	32149.18
569.01	32177.86
569.208	31629
569.407	32190.14
569.605	31471.31
569.804	32110.27
570.002	31758.02
570.201	32038.59
570.4	31712.97
570.598	31557.32
570.797	31028.95
570.995	31639.24
571.193	30781.14
571.392	31305.42
571.59	30547.67
571.789	31643.34
571.987	31180.49
572.186	30977.75
572.384	30760.66
572.582	31022.8
572.781	31170.26
572.979	30766.81
573.177	30301.92
573.376	30744.28
573.574	30727.89
573.772	30914.26
573.971	30045.92
574.169	29964
574.367	29794.02
574.565	30007.01
574.763	29900.51
574.962	29972.19
575.16	29449.96
575.358	30056.16
575.556	29427.43
575.754	29851.36
575.952	29368.04
576.151	29619.94
576.349	28950.26
576.547	29294.32
576.745	29060.85
576.943	29142.77
577.141	28800.76
577.339	29294.32
577.537	29062.9
577.735	28704.5
577.933	28440.31
578.131	28942.07
578.329	28423.93
578.527	28714.74
578.725	28534.52
578.923	28577.53
579.121	28192.51
579.319	27901.7
579.516	28061.44
579.714	27944.7
579.912	28020.48
580.11	28061.44
580.308	27854.59
580.506	27510.53
580.704	27395.85
580.901	27692.8
581.099	27719.43
581.297	27502.34
581.495	27281.16
581.692	27651.84
581.89	27205.39
582.088	27258.63
582.285	26953.49
582.483	27326.22
582.681	26912.53
582.878	27121.42
583.076	26885.9
583.274	26851.09
583.471	26625.81
583.669	26310.43
583.866	26464.02
584.064	26769.17
584.262	26328.86
584.459	26773.27
584.657	26208.03
584.854	26394.39
585.052	25974.56
585.249	26232.6
585.447	26117.92
585.644	25880.35
585.841	26326.81
586.039	26072.86
586.236	25900.83
586.434	25599.78
586.631	25700.13
586.828	25634.6
587.026	25896.74
587.223	25628.45
587.42	25456.42
587.618	25620.26
587.815	25368.36
588.012	25308.97
588.21	25155.37
588.407	25335.59
588.604	25169.71
588.801	25036.59
588.999	24708.91
589.196	25052.97
589.393	24971.05
589.59	25081.64
589.787	24901.42
589.984	24715.06
590.182	24467.25
590.379	24936.24
590.576	24371
590.773	24958.77
590.97	24565.56
591.167	24655.67
591.364	24272.7
591.561	24411.96
591.758	24389.43
591.955	24141.63
592.152	24438.58
592.349	24043.32
592.546	24514.36
592.743	24362.81
592.94	23754.56
593.137	24246.07
593.334	24278.84
593.531	23678.79
593.727	24135.48
593.924	24352.57
594.121	24149.82
594.318	24108.86
594.515	23615.3
594.712	23859.01
594.908	23930.69
595.105	23897.92
595.302	23523.14
595.499	23719.74
595.696	23537.48
595.892	23144.27
596.089	23744.32
596.286	23826.24
596.482	23643.97
596.679	23414.6
596.876	23699.27
597.072	23426.89
597.269	23609.15
597.466	23551.81
597.662	23387.97
597.859	23578.43
598.055	23906.11
598.252	23369.54
598.448	23455.56
598.645	23562.05
598.841	22980.43
599.038	23275.34
599.234	23199.56
599.431	23125.83
599.627	23623.49
599.824	23598.91
600.02	23152.46
600.217	23226.18
600.413	23342.92
600.609	23105.35
600.806	23322.44
601.002	23426.89
601.198	23396.17
601.395	23441.22
601.591	23310.15
601.787	23453.51
601.984	23496.52
602.18	23457.6
602.376	23469.89
602.572	23420.74
602.769	23494.47
602.965	23093.07
603.161	23138.12
603.357	23373.64
603.553	23150.41
603.75	23717.7
603.946	23240.52
604.142	23328.58
604.338	23363.4
604.534	23654.21
604.73	23584.58
604.926	23355.21
605.122	23494.47
605.318	23220.04
605.514	23426.89
605.71	23412.55
605.906	23568.2
606.102	23373.64
606.298	23506.76
606.494	23318.34
606.69	23586.63
606.886	23605.06
607.082	23265.1
607.278	23693.12
607.474	23097.16
607.67	23584.58
607.866	23449.41
608.062	23934.78
608.257	23752.51
608.453	23684.93
608.649	23996.22
608.845	23547.72
609.041	23486.28
609.236	23869.25
609.432	23795.52
609.628	23586.63
609.824	23928.64
610.019	23826.24
610.215	23920.45
610.411	24031.04
610.606	24047.42
610.802	24254.26
610.998	23828.29
611.193	24168.25
611.389	23807.81
611.584	24018.75
611.78	23813.95
611.976	24024.89
612.171	24039.23
612.367	24082.24
612.562	23859.01
612.758	23795.52
612.953	23949.12
613.149	24143.67
613.344	23822.14
613.539	24389.43
613.735	24188.73
613.93	24209.21
614.126	23758.66
614.321	24424.25
614.517	24004.41
614.712	24174.39
614.907	23985.98
615.103	24074.04
615.298	24211.26
615.493	24395.57
615.688	24061.76
615.884	24231.74
616.079	23981.88
616.274	24035.13
616.47	24201.02
616.665	24151.87
616.86	23787.33
617.055	23816
617.25	23975.74
617.445	24141.63
617.641	23887.68
617.836	23983.93
618.031	23760.7
618.226	23695.17
618.421	23959.36
618.616	23811.9
618.811	23447.36
619.006	23881.53
619.201	23320.39
619.396	23592.77
619.591	23435.08
619.786	23377.73
619.981	23299.91
620.176	23768.9
620.371	23238.47
620.566	23109.45
620.761	23060.3
620.956	23111.5
621.151	22847.31
621.346	23054.15
621.541	22398.8
621.735	22912.85
621.93	22632.27
622.125	22675.28
622.32	22323.03
622.515	22562.64
622.709	22273.88
622.904	22617.94
623.099	21884.76
623.294	22255.45
623.488	21827.42
623.683	22005.59
623.878	21499.75
624.072	21919.58
624.267	21610.34
624.462	21342.05
624.656	21210.98
624.851	21401.44
625.046	20991.85
625.24	21223.27
625.435	20938.6
625.629	20907.88
625.824	20666.22
626.018	20629.36
626.213	20557.68
626.407	20529.01
626.602	20258.68
626.796	20500.34
626.991	20361.08
627.185	20213.62
627.38	19898.24
627.574	19906.43
627.768	19851.13
627.963	19898.24
628.157	19814.27
628.352	19595.14
628.546	19390.34
628.74	19521.41
628.935	19367.81
629.129	19429.25
629.323	19128.2
629.517	18870.15
629.712	19015.56
629.906	18759.56
630.1	18747.28
630.294	18800.52
630.489	18612.11
630.683	18689.93
630.877	18243.48
631.071	18253.72
631.265	18435.99
631.459	18040.73
631.653	18143.13
631.848	18184.09
632.042	17868.7
632.236	17915.8
632.43	17921.95
632.624	17745.82
632.818	17584.03
633.012	17342.37
633.206	17471.39
633.4	17604.51
633.594	17399.71
633.788	17565.6
633.982	17278.88
634.176	17006.5
634.369	16793.51
634.563	16861.1
634.757	16619.44
634.951	16992.17
635.145	16775.08
635.339	16805.8
635.533	16183.22
635.726	16539.57
635.92	16084.92
636.114	16400.3
636.308	16459.7
636.501	15994.81
636.695	15935.42
636.889	15642.56
637.083	15957.94
637.276	15470.53
637.47	15482.81
637.664	15486.91
637.857	15343.55
638.051	15445.95
638.244	15163.33
638.438	15185.86
638.632	15183.81
638.825	14893
639.019	14788.55
639.212	14821.32
639.406	14581.71
639.599	14622.67
639.793	14536.65
639.986	14325.71
640.18	14372.82
640.373	14356.43
640.567	14247.89
640.76	14182.35
640.954	14208.98
641.147	14118.87
641.34	13819.86
641.534	13783
641.727	13811.67
641.92	13709.27
642.114	13527
642.307	13565.92
642.5	13410.27
642.694	13357.02
642.887	13121.51
643.08	13379.55
643.273	13111.27
643.467	13197.28
643.66	12873.7
643.853	12824.55
644.046	12847.08
644.239	12595.18
644.432	12662.76
644.626	12640.23
644.819	12443.63
645.012	12445.68
645.205	12507.12
645.398	12240.88
645.591	12134.39
645.784	12156.91
645.977	12107.76
646.17	12118
646.363	12052.47
646.556	11819
646.749	11870.2
646.942	11763.7
647.135	11816.95
647.328	11687.93
647.521	11833.33
647.714	11292.67
647.907	11296.77
648.099	11567.1
648.292	11436.03
648.485	11151.36
648.678	11157.5
648.871	11018.24
649.064	11175.94
649.256	10995.71
649.449	10960.9
649.642	10686.47
649.835	10643.46
650.027	10627.08
650.22	10772.49
650.413	10448.91
650.605	10571.79
650.798	10379.28
650.991	10405.9
651.183	10401.8
651.376	10235.92
651.568	10342.41
651.761	10141.71
651.954	9965.59
652.146	10135.57
652.339	9920.53
652.531	10143.76
652.724	9801.75
652.916	9906.2
653.109	9732.12
653.301	9908.24
653.494	9715.73
653.686	9404.44
653.879	9709.59
654.071	9426.97
654.263	9488.41
654.456	9607.19
654.648	9379.87
654.84	9449.5
655.033	9363.48
655.225	9285.66
655.417	9412.64
655.61	9211.93
655.802	9052.19
655.994	9033.76
656.186	9203.74
656.379	8945.7
656.571	8947.75
656.763	8593.45
656.955	8695.85
657.148	8849.44
657.34	8740.9
657.532	8675.37
657.724	8589.35
657.916	8560.68
658.108	8507.43
658.3	8435.75
658.492	8665.13
658.684	8314.92
658.876	8292.4
659.068	8261.68
659.26	8216.62
659.452	8202.29
659.644	8200.24
659.836	8085.55
660.028	7979.06
660.22	8022.06
660.412	7954.48
660.604	7864.37
660.796	7995.44
660.988	7845.94
661.18	7784.5
661.372	7618.61
661.563	7874.61
661.755	7501.88
661.947	7802.93
662.139	7630.9
662.331	7610.42
662.522	7311.42
662.714	7379
662.906	7379
663.097	7350.33
663.289	7307.32
663.481	7229.5
663.673	7266.36
663.864	7125.05
664.056	7188.54
664.247	7008.32
664.439	7039.04
664.631	7051.33
664.822	7155.77
665.014	7004.22
665.205	6922.31
665.397	6864.96
665.588	6932.54
665.78	6703.17
665.971	6727.75
666.163	6905.92
666.354	6746.18
666.546	6795.33
666.737	6514.76
666.929	6723.65
667.12	6701.12
667.311	6463.56
667.503	6539.33
667.694	6543.43
667.885	6373.45
668.077	6543.43
668.268	6422.6
668.459	6473.8
668.651	6326.35
668.842	6498.38
669.033	6250.57
669.224	6086.73
669.416	6328.39
669.607	6309.96
669.798	6217.8
669.989	6344.78
670.18	6164.56
670.371	6150.22
670.563	5998.67
670.754	6125.65
670.945	5959.76
671.136	6115.41
671.327	5845.07
671.518	6045.77
671.709	6094.93
671.9	5974.1
672.091	5898.32
672.282	5832.79
672.473	5681.24
672.664	5824.59
672.855	5732.44
673.046	5742.68
673.237	5863.51
673.428	5720.15
673.619	5677.14
673.809	5703.76
674	5818.45
674.191	5814.35
674.382	5492.82
674.573	5671
674.764	5554.26
674.954	5525.59
675.145	5619.8
675.336	5509.21
675.527	5496.92
675.717	5619.8
675.908	5507.16
676.099	5591.13
676.289	5472.34
676.48	5580.89
676.671	5449.82
676.861	5451.86
677.052	5363.8
677.243	5578.84
677.433	5427.29
677.624	5353.56
677.814	5337.18
678.005	5410.9
678.195	5267.55
678.386	5451.86
678.576	5439.58
678.767	5357.66
678.957	5242.97
679.148	5267.55
679.338	5283.93
679.529	5341.27
679.719	5191.77
679.909	5322.84
680.1	5177.44
680.29	5283.93
680.481	5277.79
680.671	5152.86
680.861	5206.11
681.052	5296.22
681.242	5056.61
681.432	5271.64
681.622	5077.09
681.813	4995.17
682.003	5193.82
682.193	5210.2
682.383	5079.13
682.573	5126.24
682.764	5173.34
682.954	5095.52
683.144	5136.48
683.334	5038.17
683.524	5177.44
683.714	5177.44
683.904	5048.41
684.094	5091.42
684.284	5054.56
684.474	5197.92
684.664	5181.53
684.854	4933.73
685.044	5058.65
685.234	5068.89
685.424	5113.95
685.614	5087.33
685.804	5070.94
685.994	5093.47
686.184	5079.13
686.374	5021.79
686.564	4933.73
686.753	4989.02
686.943	4876.38
687.133	4882.53
687.323	4720.74
687.513	4937.82
687.702	4851.81
687.892	4816.99
688.082	4956.26
688.272	4812.9
688.461	4857.95
688.651	4878.43
688.841	4868.19
689.03	4778.08
689.22	4694.12
689.41	4874.34
689.599	4837.47
689.789	4733.03
689.979	4753.51
690.168	4743.27
690.358	4763.75
690.547	4585.57
690.737	4792.42
690.926	4583.52
691.116	4579.43
691.305	4581.48
691.495	4599.91
691.684	4608.1
691.874	4739.17
692.063	4663.4
692.252	4567.14
692.442	4540.52
692.631	4393.06
692.82	4548.71
693.01	4587.62
693.199	4542.57
693.388	4415.59
693.578	4489.32
693.767	4606.05
693.956	4360.3
694.146	4382.82
694.335	4483.17
694.524	4243.56
694.713	4415.59
694.902	4294.76
695.092	4411.5
695.281	4345.96
695.47	4501.61
695.659	4399.21
695.848	4401.26
696.037	4251.75
696.226	4251.75
696.415	4321.38
696.604	4284.52
696.793	4073.58
696.982	4235.37
697.171	4350.06
697.36	4216.94
697.549	4292.71
697.738	4169.84
697.927	4186.22
698.116	4006
698.305	4210.79
698.494	4210.79
698.683	4235.37
698.872	4106.35
699.061	4169.84
699.25	4165.74
699.438	4251.75
699.627	4270.19
699.816	4071.53
700.005	3965.04
700.193	4169.84
700.382	4087.92
700.571	4130.92
700.76	4120.68
700.948	4003.95
701.137	4126.83
701.326	3973.23
701.514	3932.27
701.703	3997.81
701.892	3924.08
702.08	4051.05
702.269	4010.09
702.457	3919.98
702.646	3981.42
702.834	3973.23
703.023	3985.52
703.212	4038.77
703.4	3815.54
703.589	3936.37
703.777	3928.17
703.965	3944.56
704.154	3868.78
704.342	3973.23
704.531	3895.41
704.719	3780.72
704.907	3936.37
705.096	3811.44
705.284	3780.72
705.472	3729.52
705.661	3711.09
705.849	3899.5
706.037	3833.97
706.226	3754.1
706.414	3858.54
706.602	3637.36
706.79	3764.34
706.979	3723.38
707.167	3838.06
707.355	3680.37
707.543	3569.78
707.731	3719.28
707.919	3612.79
708.107	3668.08
708.296	3596.4
708.484	3666.03
708.672	3649.65
708.86	3561.59
709.048	3502.2
709.236	3483.77
709.424	3580.02
709.612	3655.79
709.8	3479.67
709.988	3672.18
710.176	3573.88
710.364	3549.3
710.551	3641.46
710.739	3336.31
710.927	3489.91
711.115	3393.65
711.303	3498.1
711.491	3467.38
711.679	3367.03
711.866	3438.71
712.054	3432.57
712.242	3514.49
712.43	3661.94
712.617	3309.69
712.805	3428.47
712.993	3375.22
713.181	3315.83
713.368	3434.61
713.556	3430.52
713.744	3340.41
713.931	3358.84
714.119	3416.18
714.306	3399.8
714.494	3217.53
714.682	3326.07
714.869	3233.91
715.057	3377.27
715.244	3319.93
715.432	3238.01
715.619	3170.43
715.807	3301.5
715.994	3283.06
716.182	3180.67
716.369	3309.69
716.556	3219.58
716.744	3248.25
716.931	3270.78
717.119	3260.54
717.306	3207.29
717.493	3119.23
717.681	3166.33
717.868	3170.43
718.055	3022.97
718.242	3268.73
718.43	3170.43
718.617	3166.33
718.804	3022.97
718.991	3104.89
719.179	3137.66
719.366	3047.55
719.553	3170.43
719.74	3049.6
719.927	3072.12
720.114	3051.64
720.301	3121.28
720.488	2975.87
720.676	2877.57
720.863	3115.13
721.05	3121.28
721.237	2918.53
721.424	3072.12
721.611	2951.29
721.798	3123.32
721.985	2973.82
722.172	2949.25
722.358	2850.94
722.545	2896
722.732	2979.97
722.919	2928.77
723.106	2943.1
723.293	2855.04
723.48	3006.59
723.667	2910.33
723.853	2861.18
724.04	2887.81
724.227	2822.27
724.414	2943.1
724.6	2785.41
724.787	2777.22
724.974	2928.77
725.161	2793.6
725.347	2797.7
725.534	2779.26
725.72	2883.71
725.907	2941.05
726.094	2809.98
726.28	2730.11
726.467	2697.35
726.653	2789.5
726.84	2885.76
727.027	2818.18
727.213	2760.83
727.4	2721.92
727.586	2728.07
727.773	2662.53
727.959	2867.33
728.145	2721.92
728.332	2816.13
728.518	2646.15
728.705	2781.31
728.891	2769.02
729.077	2711.68
729.264	2705.54
729.45	2588.8
729.636	2830.46
729.823	2781.31
730.009	2719.87
730.195	2566.28
730.382	2801.79
730.568	2564.23
730.754	2666.63
730.94	2572.42
731.126	2633.86
731.313	2650.24
731.499	2629.76
731.685	2621.57
731.871	2525.32
732.057	2646.15
732.243	2623.62
732.429	2527.36
732.615	2633.86
732.801	2607.23
732.987	2650.24
733.173	2588.8
733.359	2646.15
733.545	2623.62
733.731	2539.65
733.917	2629.76
734.103	2662.53
734.289	2433.16
734.475	2533.51
734.661	2586.76
734.847	2547.84
735.033	2543.75
735.219	2547.84
735.404	2343.05
735.59	2523.27
735.776	2506.88
735.962	2502.79
736.148	2523.27
736.333	2588.8
736.519	2482.31
736.705	2502.79
736.89	2482.31
737.076	2330.76
737.262	2377.86
737.447	2492.55
737.633	2377.86
737.819	2476.16
738.004	2459.78
738.19	2445.45
738.375	2439.3
738.561	2338.95
738.747	2441.35
738.932	2312.33
739.118	2517.12
739.303	2341
739.489	2285.7
739.674	2295.94
739.859	2412.68
740.045	2408.58
740.23	2240.65
740.416	2343.05
740.601	2338.95
740.786	2220.17
740.972	2181.26
741.157	2343.05
741.342	2238.6
741.528	2171.02
741.713	2343.05
741.898	2257.03
742.084	2236.55
742.269	2121.87
742.454	2162.83
742.639	2195.59
742.824	2121.87
743.01	2205.83
743.195	2171.02
743.38	2056.33
743.565	2189.45
743.75	2216.07
743.935	2162.83
744.12	2197.64
744.305	2089.1
744.49	2107.53
744.675	2013.32
744.86	2017.42
745.045	2148.49
745.23	2017.42
745.415	2048.14
745.6	2089.1
745.785	2039.95
745.97	1980.56
746.155	1990.8
746.34	1970.32
746.525	2007.18
746.71	2044.04
746.895	1919.12
747.079	1990.8
747.264	1908.88
747.449	2039.95
747.634	1933.45
747.819	1933.45
748.003	1869.97
748.188	1839.25
748.373	1781.9
748.557	1835.15
748.742	1687.7
748.927	1878.16
749.111	1771.66
749.296	1812.62
749.481	1849.49
749.665	1775.76
749.85	1822.86
750.034	1753.23
750.219	1753.23
750.404	1773.71
750.588	1683.6
750.773	1769.62
750.957	1829.01
751.141	1663.12
751.326	1714.32
751.51	1646.74
751.695	1689.74
751.879	1636.5
752.064	1638.55
752.248	1622.16
752.432	1605.78
752.617	1665.17
752.801	1568.91
752.985	1607.83
753.17	1573.01
753.354	1536.15
753.538	1634.45
753.722	1456.28
753.907	1519.76
754.091	1548.44
754.275	1556.63
754.459	1507.48
754.643	1517.72
754.828	1458.32
755.012	1411.22
755.196	1388.69
755.38	1372.31
755.564	1458.32
755.748	1443.99
755.932	1429.65
756.116	1429.65
756.3	1400.98
756.484	1386.65
756.668	1347.73
756.852	1368.21
757.036	1280.15
757.22	1239.19
757.404	1335.45
757.588	1247.38
757.772	1235.1
757.956	1304.73
758.14	1339.54
758.323	1308.82
758.507	1269.91
758.691	1265.82
758.875	1263.77
759.059	1241.24
759.242	1233.05
759.426	1366.17
759.61	1231
759.794	1237.14
759.977	1196.18
760.161	1263.77
760.345	1261.72
760.528	1253.53
760.712	1159.32
760.895	1196.18
761.079	1144.99
761.263	1198.23
761.446	1200.28
761.63	1155.23
761.813	1124.51
761.997	1101.98
762.18	1151.13
762.364	1155.23
762.547	1155.23
762.731	1126.55
762.914	1212.57
763.098	1124.51
763.281	1114.27
763.464	1063.07
763.648	1106.07
763.831	1032.35
764.015	1009.82
764.198	1097.88
764.381	1056.92
764.564	1056.92
764.748	993.44
764.931	1026.2
765.114	1028.25
765.297	1050.78
765.481	1048.73
765.664	999.58
765.847	1026.2
766.03	991.39
766.213	995.48
766.397	1061.02
766.58	983.2
766.763	1001.63
766.946	977.05
767.129	944.28
767.312	913.56
767.495	1015.96
767.678	977.05
767.861	960.67
768.044	948.38
768.227	977.05
768.41	983.2
768.593	983.2
768.776	1032.35
768.959	936.09
769.142	991.39
769.324	975
769.507	1022.11
769.69	1009.82
769.873	929.95
770.056	1044.63
770.239	938.14
770.421	934.04
770.604	819.36
770.787	868.51
770.97	915.61
771.152	886.94
771.335	962.72
771.518	895.13
771.7	975
771.883	1015.96
772.066	827.55
772.248	829.6
772.431	833.69
772.613	862.37
772.796	729.25
772.978	899.23
773.161	927.9
773.343	802.97
773.526	751.78
773.708	835.74
773.891	688.29
774.073	872.61
774.256	817.31
774.438	870.56
774.621	782.49
774.803	843.93
774.985	802.97
775.168	815.26
775.35	794.78
775.532	821.41
775.715	733.34
775.897	762.02
776.079	700.58
776.261	805.02
776.444	755.87
776.626	712.86
776.808	764.06
776.99	698.53
777.173	714.91
777.355	696.48
777.537	729.25
777.719	710.82
777.901	676
778.083	686.24
778.265	667.81
778.447	614.56
778.629	657.57
778.811	739.49
778.993	731.3
779.175	647.33
779.357	635.04
779.539	612.51
779.721	716.96
779.903	684.19
780.085	688.29
780.267	632.99
780.449	622.75
780.631	606.37
780.812	657.57
780.994	647.33
781.176	649.38
781.358	577.7
781.54	557.22
781.721	606.37
781.903	573.6
782.085	524.45
782.267	618.66
782.448	598.18
782.63	635.04
782.812	532.64
782.993	575.65
783.175	549.03
783.357	567.46
783.538	581.79
783.72	567.46
783.901	536.74
784.083	635.04
784.264	506.02
784.446	569.51
784.627	479.4
784.809	536.74
784.99	516.26
785.172	581.79
785.353	424.1
785.535	465.06
785.716	551.07
785.897	432.29
786.079	493.73
786.26	444.58
786.441	540.83
786.623	432.29
786.804	463.01
786.985	377
787.167	540.83
787.348	411.81
787.529	483.49
787.71	532.64
787.891	463.01
788.073	428.2
788.254	463.01
788.435	446.63
788.616	405.67
788.797	352.42
788.978	444.58
789.159	307.37
789.34	424.1
789.522	426.15
789.703	368.81
789.884	442.53
790.065	438.44
790.246	393.38
790.427	305.32
790.607	407.72
790.788	426.15
790.969	356.52
791.15	370.85
791.331	295.08
791.512	450.72
791.693	434.34
791.874	415.91
792.054	405.67
792.235	428.2
792.416	362.66
792.597	336.04
792.778	362.66
792.958	403.62
793.139	354.47
793.32	403.62
793.5	362.66
793.681	368.81
793.862	370.85
794.042	391.33
794.223	297.13
794.404	346.28
794.584	262.31
794.765	336.04
794.945	315.56
795.126	336.04
795.306	374.95
795.487	325.8
795.667	321.7
795.848	364.71
796.028	395.43
796.209	397.48
796.389	417.96
796.57	297.13
796.75	241.83
796.93	315.56
797.111	323.75
797.291	278.69
797.471	266.41
797.652	266.41
797.832	254.12
798.012	295.08
798.192	272.55
798.373	340.13
798.553	333.99
798.733	319.65
798.913	237.74
799.093	278.69
799.274	270.5
799.454	340.13
799.634	352.42
799.814	352.42
799.994	340.13
800.174	264.36
800.354	256.17
800.534	313.51
800.714	272.55
800.894	303.27
801.074	223.4
801.254	229.54
801.434	303.27
801.614	188.58
801.794	288.93
801.974	985.24
802.154	286.89
802.334	258.21
802.514	178.34
802.693	204.97
802.873	250.02
803.053	258.21
803.233	290.98
803.413	284.84
803.592	307.37
803.772	219.3
803.952	225.45
804.131	239.78
804.311	204.97
804.491	270.5
804.67	266.41
804.85	196.78
805.03	260.26
805.209	194.73
805.389	313.51
805.568	192.68
805.748	164.01
805.928	164.01
806.107	237.74
806.287	190.63
806.466	286.89
806.646	258.21
806.825	204.97
807.004	213.16
807.184	258.21
807.363	159.91
807.543	176.3
807.722	155.82
807.901	268.45
808.081	241.83
808.26	123.05
808.439	172.2
808.619	221.35
808.798	204.97
808.977	180.39
809.156	204.97
809.336	182.44
809.515	157.86
809.694	155.82
809.873	190.63
810.052	194.73
810.231	211.11
810.411	266.41
810.59	184.49
810.769	256.17
810.948	198.82
811.127	114.86
811.306	192.68
811.485	180.39
811.664	262.31
811.843	204.97
812.022	151.72
812.201	237.74
812.38	161.96
812.559	166.06
812.737	143.53
812.916	92.33
813.095	180.39
813.274	180.39
813.453	190.63
813.632	174.25
813.811	319.65
813.989	131.24
814.168	202.92
814.347	112.81
814.526	221.35
814.704	170.15
814.883	166.06
815.062	123.05
815.24	229.54
815.419	159.91
815.598	250.02
815.776	106.67
815.955	176.3
816.133	157.86
816.312	190.63
816.49	77.99
816.669	153.77
816.847	143.53
817.026	182.44
817.204	88.23
817.383	131.24
817.561	114.86
817.74	131.24
817.918	192.68
818.097	157.86
818.275	125.1
818.453	98.47
818.632	139.43
818.81	98.47
818.988	82.09
819.167	2.22
819.345	159.91
819.523	98.47
819.701	90.28
819.879	139.43
820.058	129.19
820.236	69.8
820.414	178.34
820.592	155.82
820.77	141.48
820.948	49.32
821.127	108.71
821.305	92.33
821.483	166.06
821.661	174.25
821.839	164.01
822.017	155.82
822.195	92.33
822.373	123.05
822.551	59.56
822.729	80.04
822.907	110.76
823.085	143.53
823.262	94.38
823.44	164.01
823.618	133.29
823.796	100.52
823.974	110.76
824.152	159.91
824.329	75.95
824.507	63.66
824.685	141.48
824.863	106.67
825.04	94.38
825.218	147.62
825.396	106.67
825.574	106.67
825.751	229.54
825.929	131.24
826.107	94.38
826.284	133.29
826.462	45.23
826.639	82.09
826.817	12.46
826.994	155.82
827.172	170.15
827.349	213.16
827.527	135.34
827.704	116.9
827.882	65.71
828.059	75.95
828.237	114.86
828.414	141.48
828.591	32.94
828.769	131.24
828.946	102.57
829.124	143.53
829.301	149.67
829.478	110.76
829.655	135.34
829.833	28.84
830.01	26.79
830.187	98.47
830.364	59.56
830.542	80.04
830.719	133.29
830.896	110.76
831.073	28.84
831.25	77.99
831.427	118.95
831.604	131.24
831.782	53.42
831.959	55.47
832.136	127.14
832.313	121
832.49	77.99
832.667	121
832.844	28.84
833.021	186.54
833.198	131.24
833.374	110.76
833.551	94.38
833.728	86.19
833.905	65.71
834.082	49.32
834.259	100.52
834.436	131.24
834.612	90.28
834.789	123.05
834.966	32.94
835.143	65.71
835.319	90.28
835.496	86.19
835.673	77.99
835.85	147.62
836.026	32.94
836.203	59.56
836.38	49.32
836.556	51.37
836.733	80.04
836.909	92.33
837.086	71.85
837.262	32.94
837.439	59.56
837.616	32.94
837.792	73.9
837.968	118.95
838.145	8.36
838.321	41.13
838.498	59.56
838.674	65.71
838.851	65.71
839.027	73.9
839.203	112.81
839.38	112.81
839.556	41.13
839.732	137.38
839.909	53.42
840.085	37.03
840.261	-22.36
840.437	51.37
840.614	90.28
840.79	131.24
840.966	82.09
841.142	51.37
841.318	73.9
841.494	153.77
841.671	59.56
841.847	90.28
842.023	53.42
842.199	41.13
842.375	77.99
842.551	12.46
842.727	86.19
842.903	135.34
843.079	-73.56
843.255	49.32
843.431	49.32
843.607	73.9
843.783	-69.46
843.959	123.05
844.134	73.9
844.31	166.06
844.486	94.38
844.662	24.75
844.838	73.9
845.013	18.6
845.189	86.19
845.365	49.32
845.541	32.94
845.716	141.48
845.892	168.1
846.068	16.55
846.244	8.36
846.419	98.47
846.595	116.9
846.77	28.84
846.946	139.43
847.122	98.47
847.297	37.03
847.473	116.9
847.648	4.27
847.824	90.28
847.999	-57.17
848.175	84.14
848.35	41.13
848.526	100.52
848.701	43.18
848.876	73.9
849.052	133.29
849.227	145.58
849.403	112.81
849.578	-1.88
849.753	-16.21
849.929	28.84
850.104	37.03
850.279	47.27
850.454	26.79
850.63	75.95
850.805	59.56
850.98	-5.97
851.155	82.09
851.33	39.08
851.505	-8.02
851.681	139.43
851.856	30.89
852.031	112.81
852.206	121
852.381	65.71
852.556	45.23
852.731	139.43
852.906	45.23
853.081	75.95
853.256	49.32
853.431	0.17
853.606	24.75
853.781	43.18
853.956	-40.79
854.131	77.99
854.305	41.13
854.48	57.51
854.655	45.23
854.83	94.38
855.005	28.84
855.18	57.51
855.354	0.17
855.529	94.38
855.704	86.19
855.879	104.62
856.053	-48.98
856.228	2.22
856.403	2.22
856.577	51.37
856.752	32.94
856.926	10.41
857.101	57.51
857.276	22.7
857.45	-36.69
857.625	73.9
857.799	39.08
857.974	41.13
858.148	49.32
858.323	24.75
858.497	61.61
858.672	0.17
858.846	16.55
859.02	-14.17
859.195	-42.84
859.369	45.23
859.543	59.56
859.718	61.61
859.892	-14.17
860.066	100.52
860.241	45.23
860.415	90.28
860.589	41.13
860.763	73.9
860.938	43.18
861.112	69.8
861.286	90.28
861.46	51.37
861.634	26.79
861.808	106.67
861.982	6.31
862.157	-81.75
862.331	37.03
862.505	26.79
862.679	-48.98
862.853	16.55
863.027	18.6
863.201	65.71
863.375	24.75
863.549	24.75
863.722	20.65
863.896	34.99
864.07	-14.17
864.244	-5.97
864.418	61.61
864.592	20.65
864.766	41.13
864.939	57.51
865.113	45.23
865.287	12.46
865.461	2.22
865.634	32.94
865.808	47.27
865.982	26.79
866.156	-32.6
866.329	45.23
866.503	65.71
866.676	24.75
866.85	32.94
867.024	51.37
867.197	41.13
867.371	-5.97
867.544	-53.08
867.718	41.13
867.891	55.47
868.065	32.94
868.238	-24.4
868.412	32.94
868.585	57.51
868.759	4.27
868.932	-10.07
869.105	-28.5
869.279	59.56
869.452	57.51
869.625	32.94
869.799	80.04
869.972	-5.97
870.145	8.36
870.319	147.62
870.492	57.51
870.665	-8.02
870.838	2.22
871.011	8.36
871.185	-14.17
871.358	32.94
871.531	82.09
871.704	-59.22
871.877	-28.5
872.05	41.13
872.223	57.51
872.396	39.08
872.569	24.75
872.742	-28.5
872.915	37.03
873.088	12.46
873.261	-8.02
873.434	0.17
873.607	22.7
873.78	57.51
873.953	43.18
874.126	8.36
874.299	77.99
874.471	-20.31
874.644	-14.17
874.817	28.84
874.99	98.47
875.163	-36.69
875.335	73.9
875.508	-24.4
875.681	59.56
875.853	-32.6
876.026	14.51
876.199	73.9
876.371	43.18
876.544	28.84
876.717	106.67
876.889	-24.4
877.062	41.13
877.234	-30.55
877.407	-18.26
877.579	49.32
877.752	131.24
877.924	41.13
878.097	73.9
878.269	43.18
878.442	73.9
878.614	73.9
878.786	28.84
878.959	57.51
879.131	51.37
879.303	-38.74
879.476	16.55
879.648	26.79
879.82	32.94
879.993	-28.5
880.165	51.37
880.337	-30.55
880.509	114.86
880.681	-69.46
880.854	-24.4
881.026	69.8
881.198	8.36
881.37	24.75
881.542	65.71
881.714	53.42
881.886	65.71
882.058	92.33
882.23	49.32
882.402	-48.98
882.574	-22.36
882.746	20.65
882.918	51.37
883.09	0.17
883.262	32.94
883.434	14.51
883.606	6.31
883.778	30.89
883.95	77.99
884.122	-16.21
884.293	26.79
884.465	108.71
884.637	123.05
884.809	-10.07
884.98	-61.27
885.152	45.23
885.324	43.18
885.496	-28.5
885.667	55.47
885.839	-48.98
886.011	49.32
886.182	82.09
886.354	-5.97
886.525	-8.02
886.697	10.41
886.869	10.41
887.04	2.22
887.212	84.14
887.383	100.52
887.555	24.75
887.726	57.51
887.897	22.7
888.069	143.53
888.24	49.32
888.412	-5.97
888.583	4.27
888.754	94.38
888.926	-8.02
889.097	8.36
889.268	0.17
889.44	8.36
889.611	12.46
889.782	41.13
889.953	41.13
890.125	51.37
890.296	-100.18
890.467	8.36
890.638	-48.98
890.809	41.13
890.98	41.13
891.151	18.6
891.323	67.75
891.494	-48.98
891.665	-5.97
891.836	-14.17
892.007	8.36
892.178	12.46
892.349	24.75
892.52	22.7
892.691	-14.17
892.862	32.94
893.032	-3.93
893.203	-40.79
893.374	0.17
893.545	49.32
893.716	51.37
893.887	131.24
894.057	6.31
894.228	12.46
894.399	-40.79
894.57	20.65
894.74	4.27
894.911	32.94
895.082	28.84
895.253	49.32
895.423	-8.02
895.594	28.84
895.764	49.32
895.935	-32.6
896.106	53.42
896.276	8.36
896.447	80.04
896.617	-28.5
896.788	-32.6
896.958	32.94
897.129	-85.84
897.299	4.27
897.47	45.23
897.64	77.99
897.81	84.14
897.981	90.28
898.151	-48.98
898.322	51.37
898.492	-3.93
898.662	-57.17
898.832	14.51
899.003	-5.97
899.173	61.61
899.343	41.13
899.513	-34.64
