Data from USB4F104151__226__14-33-57-789.txt Node

Date: Thu Mar 13 14:33:57 EDT 2025
User: louis
Spectrometer: USB4F10415
Trigger mode: 4
Integration Time (sec): 2.500000E-2
Scans to average: 1
Electric dark correction enabled: true
Nonlinearity correction enabled: false
Boxcar width: 0
XAxis mode: Wavelengths
Number of Pixels in Spectrum: 3648
>>>>>Begin Spectral Data<<<<<
178.204	-168.1
178.424	-168.1
178.644	-168.1
178.864	-145.58
179.084	-174.25
179.304	-2.22
179.524	-6.31
179.744	-20.65
179.964	53.08
180.184	1.88
180.404	3.93
180.624	-20.65
180.844	75.6
181.064	-51.37
181.283	-14.51
181.503	-47.27
181.723	28.5
181.943	-71.85
182.163	59.22
182.383	-22.7
182.602	12.12
182.822	34.64
183.042	3.93
183.262	-6.31
183.482	-80.04
183.701	3.93
183.921	-14.51
184.141	-63.66
184.361	116.56
184.58	-39.08
184.8	3.93
185.02	22.36
185.239	10.07
185.459	51.03
185.679	59.22
185.898	-22.7
186.118	85.84
186.338	24.4
186.557	1.88
186.777	30.55
186.997	-39.08
187.216	-14.51
187.436	61.27
187.655	34.64
187.875	67.41
188.095	59.22
188.314	24.4
188.534	85.84
188.753	-14.51
188.973	32.6
189.192	104.28
189.412	67.41
189.631	18.26
189.851	71.51
190.07	94.04
190.29	-20.65
190.509	-6.31
190.729	-6.31
190.948	71.51
191.168	173.91
191.387	98.13
191.607	3.93
191.826	24.4
192.045	-30.89
192.265	5.97
192.484	38.74
192.704	16.21
192.923	-67.75
193.142	126.8
193.362	55.12
193.581	26.45
193.8	1.88
194.02	77.65
194.239	-18.6
194.458	42.84
194.678	-20.65
194.897	18.26
195.116	102.23
195.335	55.12
195.555	12.12
195.774	18.26
195.993	75.6
196.212	46.93
196.432	48.98
196.651	120.66
196.87	-18.6
197.089	38.74
197.308	55.12
197.528	51.03
197.747	-2.22
197.966	40.79
198.185	75.6
198.404	-28.84
198.623	-47.27
198.842	16.21
199.062	59.22
199.281	85.84
199.5	-18.6
199.719	75.6
199.938	1.88
200.157	87.89
200.376	61.27
200.595	159.57
200.814	51.03
201.033	38.74
201.252	100.18
201.471	51.03
201.69	98.13
201.909	65.36
202.128	40.79
202.347	106.32
202.566	14.17
202.785	51.03
203.004	-100.52
203.223	100.18
203.442	-0.17
203.661	-12.46
203.879	-16.55
204.098	98.13
204.317	57.17
204.536	108.37
204.755	18.26
204.974	69.46
205.193	118.61
205.411	167.76
205.63	28.5
205.849	53.08
206.068	55.12
206.287	-12.46
206.505	46.93
206.724	30.55
206.943	34.64
207.162	1.88
207.381	83.8
207.599	77.65
207.818	34.64
208.037	67.41
208.255	71.51
208.474	51.03
208.693	63.32
208.911	20.31
209.13	34.64
209.349	-24.75
209.567	87.89
209.786	59.22
210.005	-2.22
210.223	61.27
210.442	-47.27
210.661	34.64
210.879	-30.89
211.098	16.21
211.316	-53.42
211.535	-12.46
211.753	42.84
211.972	89.94
212.191	26.45
212.409	20.31
212.628	-14.51
212.846	5.97
213.065	16.21
213.283	59.22
213.502	59.22
213.72	71.51
213.938	46.93
214.157	81.75
214.375	26.45
214.594	26.45
214.812	96.08
215.031	14.17
215.249	-55.47
215.467	28.5
215.686	12.12
215.904	5.97
216.122	55.12
216.341	-18.6
216.559	22.36
216.778	104.28
216.996	44.88
217.214	10.07
217.432	18.26
217.651	-39.08
217.869	1.88
218.087	8.02
218.306	46.93
218.524	87.89
218.742	112.47
218.96	22.36
219.179	46.93
219.397	3.93
219.615	91.99
219.833	65.36
220.051	3.93
220.27	69.46
220.488	34.64
220.706	-26.79
220.924	42.84
221.142	-26.79
221.36	79.7
221.578	-10.41
221.796	12.12
222.015	34.64
222.233	-20.65
222.451	55.12
222.669	-4.27
222.887	42.84
223.105	67.41
223.323	-22.7
223.541	-24.75
223.759	94.04
223.977	42.84
224.195	46.93
224.413	-14.51
224.631	75.6
224.849	-30.89
225.067	59.22
225.285	-18.6
225.503	-16.55
225.721	-30.89
225.939	5.97
226.157	-45.23
226.375	141.14
226.592	5.97
226.81	32.6
227.028	-26.79
227.246	69.46
227.464	1.88
227.682	135
227.9	28.5
228.117	51.03
228.335	55.12
228.553	61.27
228.771	-30.89
228.989	34.64
229.206	36.69
229.424	-12.46
229.642	-37.03
229.86	38.74
230.077	89.94
230.295	-39.08
230.513	42.84
230.731	91.99
230.948	116.56
231.166	63.32
231.384	-39.08
231.601	-20.65
231.819	59.22
232.037	30.55
232.254	69.46
232.472	53.08
232.689	-37.03
232.907	67.41
233.125	-39.08
233.342	42.84
233.56	-41.13
233.777	83.8
233.995	26.45
234.213	59.22
234.43	67.41
234.648	36.69
234.865	-28.84
235.083	100.18
235.3	-14.51
235.518	89.94
235.735	28.5
235.953	18.26
236.17	96.08
236.388	-30.89
236.605	-32.94
236.822	118.61
237.04	10.07
237.257	59.22
237.475	-20.65
237.692	34.64
237.909	83.8
238.127	26.45
238.344	98.13
238.562	-14.51
238.779	-4.27
238.996	36.69
239.214	77.65
239.431	42.84
239.648	-59.56
239.865	36.69
240.083	149.33
240.3	46.93
240.517	-16.55
240.735	85.84
240.952	18.26
241.169	51.03
241.386	20.31
241.603	30.55
241.821	-41.13
242.038	85.84
242.255	116.56
242.472	28.5
242.689	40.79
242.907	132.95
243.124	87.89
243.341	38.74
243.558	-2.22
243.775	1.88
243.992	-39.08
244.209	-2.22
244.426	36.69
244.643	67.41
244.86	-2.22
245.078	10.07
245.295	51.03
245.512	28.5
245.729	-2.22
245.946	-12.46
246.163	-14.51
246.38	-45.23
246.597	69.46
246.814	69.46
247.031	116.56
247.248	83.8
247.464	53.08
247.681	1.88
247.898	10.07
248.115	36.69
248.332	53.08
248.549	26.45
248.766	120.66
248.983	30.55
249.2	-14.51
249.417	79.7
249.633	16.21
249.85	75.6
250.067	38.74
250.284	32.6
250.501	38.74
250.717	89.94
250.934	-43.18
251.151	126.8
251.368	38.74
251.585	53.08
251.801	28.5
252.018	1.88
252.235	53.08
252.451	46.93
252.668	12.12
252.885	126.8
253.102	26.45
253.318	30.55
253.535	79.7
253.752	-41.13
253.968	-43.18
254.185	46.93
254.401	-4.27
254.618	51.03
254.835	-28.84
255.051	67.41
255.268	55.12
255.484	96.08
255.701	100.18
255.917	85.84
256.134	67.41
256.351	10.07
256.567	59.22
256.784	12.12
257	94.04
257.217	30.55
257.433	67.41
257.65	-2.22
257.866	100.18
258.082	51.03
258.299	30.55
258.515	55.12
258.732	51.03
258.948	51.03
259.165	18.26
259.381	1.88
259.597	18.26
259.814	10.07
260.03	-6.31
260.246	46.93
260.463	59.22
260.679	79.7
260.895	-14.51
261.112	26.45
261.328	46.93
261.544	28.5
261.761	110.42
261.977	14.17
262.193	32.6
262.409	46.93
262.626	75.6
262.842	-2.22
263.058	-2.22
263.274	1.88
263.49	59.22
263.707	75.6
263.923	-6.31
264.139	-6.31
264.355	30.55
264.571	51.03
264.787	10.07
265.004	38.74
265.22	83.8
265.436	59.22
265.652	34.64
265.868	51.03
266.084	-4.27
266.3	53.08
266.516	-24.75
266.732	67.41
266.948	12.12
267.164	12.12
267.38	67.41
267.596	30.55
267.812	71.51
268.028	-4.27
268.244	71.51
268.46	94.04
268.676	34.64
268.892	18.26
269.108	-34.99
269.324	-22.7
269.54	20.31
269.756	135
269.972	1.88
270.188	-22.7
270.403	34.64
270.619	116.56
270.835	46.93
271.051	34.64
271.267	-39.08
271.483	12.12
271.698	-8.36
271.914	-14.51
272.13	55.12
272.346	10.07
272.562	16.21
272.777	75.6
272.993	85.84
273.209	10.07
273.425	53.08
273.64	12.12
273.856	51.03
274.072	-2.22
274.287	57.17
274.503	53.08
274.719	143.19
274.934	51.03
275.15	34.64
275.366	81.75
275.581	-6.31
275.797	18.26
276.012	36.69
276.228	24.4
276.444	38.74
276.659	104.28
276.875	10.07
277.09	28.5
277.306	1.88
277.521	3.93
277.737	61.27
277.952	59.22
278.168	85.84
278.383	-8.36
278.599	44.88
278.814	79.7
279.03	108.37
279.245	149.33
279.461	18.26
279.676	55.12
279.892	1.88
280.107	24.4
280.322	20.31
280.538	1.88
280.753	67.41
280.969	67.41
281.184	77.65
281.399	91.99
281.615	26.45
281.83	51.03
282.045	20.31
282.26	22.36
282.476	-34.99
282.691	-14.51
282.906	51.03
283.122	16.21
283.337	-32.94
283.552	67.41
283.767	42.84
283.983	75.6
284.198	-32.94
284.413	40.79
284.628	-34.99
284.843	57.17
285.058	71.51
285.274	71.51
285.489	-4.27
285.704	75.6
285.919	-47.27
286.134	61.27
286.349	67.41
286.564	-0.17
286.779	3.93
286.995	1.88
287.21	-6.31
287.425	100.18
287.64	-4.27
287.855	118.61
288.07	71.51
288.285	94.04
288.5	3.93
288.715	10.07
288.93	24.4
289.145	34.64
289.36	104.28
289.575	20.31
289.79	36.69
290.004	-10.41
290.219	110.42
290.434	91.99
290.649	22.36
290.864	-30.89
291.079	34.64
291.294	-20.65
291.509	77.65
291.724	20.31
291.938	26.45
292.153	20.31
292.368	36.69
292.583	-14.51
292.798	102.23
293.012	8.02
293.227	-20.65
293.442	-100.52
293.657	42.84
293.871	102.23
294.086	36.69
294.301	104.28
294.516	30.55
294.73	100.18
294.945	34.64
295.16	28.5
295.374	30.55
295.589	75.6
295.804	-14.51
296.018	51.03
296.233	141.14
296.447	10.07
296.662	-28.84
296.877	59.22
297.091	22.36
297.306	1.88
297.52	51.03
297.735	59.22
297.949	108.37
298.164	-4.27
298.378	73.56
298.593	75.6
298.807	20.31
299.022	151.38
299.236	71.51
299.451	18.26
299.665	10.07
299.88	36.69
300.094	126.8
300.309	44.88
300.523	67.41
300.737	-2.22
300.952	34.64
301.166	85.84
301.381	1.88
301.595	-28.84
301.809	53.08
302.024	28.5
302.238	14.17
302.452	48.98
302.667	53.08
302.881	75.6
303.095	108.37
303.309	59.22
303.524	-22.7
303.738	59.22
303.952	10.07
304.166	69.46
304.381	-16.55
304.595	61.27
304.809	61.27
305.023	67.41
305.237	-24.75
305.452	51.03
305.666	75.6
305.88	18.26
306.094	57.17
306.308	18.26
306.522	67.41
306.736	59.22
306.95	-47.27
307.164	55.12
307.379	34.64
307.593	132.95
307.807	108.37
308.021	28.5
308.235	59.22
308.449	38.74
308.663	36.69
308.877	61.27
309.091	10.07
309.305	18.26
309.519	-4.27
309.733	46.93
309.947	3.93
310.161	100.18
310.374	79.7
310.588	112.47
310.802	-16.55
311.016	-10.41
311.23	44.88
311.444	69.46
311.658	34.64
311.872	100.18
312.085	157.52
312.299	85.84
312.513	12.12
312.727	26.45
312.941	-6.31
313.154	-12.46
313.368	18.26
313.582	59.22
313.796	22.36
314.009	34.64
314.223	75.6
314.437	44.88
314.651	67.41
314.864	-4.27
315.078	3.93
315.292	-12.46
315.505	55.12
315.719	42.84
315.933	14.17
316.146	-30.89
316.36	-37.03
316.573	108.37
316.787	91.99
317.001	59.22
317.214	-30.89
317.428	42.84
317.641	22.36
317.855	5.97
318.068	102.23
318.282	61.27
318.495	91.99
318.709	57.17
318.922	-14.51
319.136	36.69
319.349	-4.27
319.563	28.5
319.776	32.6
319.99	-43.18
320.203	112.47
320.417	18.26
320.63	71.51
320.843	149.33
321.057	77.65
321.27	46.93
321.483	85.84
321.697	36.69
321.91	20.31
322.124	26.45
322.337	42.84
322.55	42.84
322.763	46.93
322.977	77.65
323.19	24.4
323.403	55.12
323.617	51.03
323.83	67.41
324.043	3.93
324.256	61.27
324.469	38.74
324.683	120.66
324.896	59.22
325.109	59.22
325.322	34.64
325.535	-39.08
325.748	108.37
325.962	96.08
326.175	26.45
326.388	14.17
326.601	67.41
326.814	32.6
327.027	77.65
327.24	128.85
327.453	38.74
327.666	91.99
327.879	36.69
328.092	108.37
328.305	67.41
328.518	-10.41
328.731	87.89
328.944	-20.65
329.157	67.41
329.37	59.22
329.583	167.76
329.796	100.18
330.009	-28.84
330.222	55.12
330.435	59.22
330.648	34.64
330.861	75.6
331.073	42.84
331.286	46.93
331.499	63.32
331.712	36.69
331.925	5.97
332.138	118.61
332.35	126.8
332.563	32.6
332.776	100.18
332.989	79.7
333.202	51.03
333.414	36.69
333.627	3.93
333.84	46.93
334.053	112.47
334.265	-6.31
334.478	-6.31
334.691	85.84
334.903	67.41
335.116	69.46
335.329	69.46
335.541	147.28
335.754	69.46
335.966	65.36
336.179	-0.17
336.392	30.55
336.604	61.27
336.817	26.45
337.029	116.56
337.242	30.55
337.454	87.89
337.667	30.55
337.88	61.27
338.092	98.13
338.305	51.03
338.517	53.08
338.729	91.99
338.942	71.51
339.154	18.26
339.367	-28.84
339.579	42.84
339.792	34.64
340.004	71.51
340.217	124.76
340.429	34.64
340.641	-12.46
340.854	51.03
341.066	24.4
341.278	30.55
341.491	59.22
341.703	20.31
341.915	-37.03
342.128	141.14
342.34	-22.7
342.552	71.51
342.764	85.84
342.977	10.07
343.189	85.84
343.401	157.52
343.613	38.74
343.826	46.93
344.038	34.64
344.25	83.8
344.462	42.84
344.674	79.7
344.886	36.69
345.099	36.69
345.311	22.36
345.523	-26.79
345.735	-20.65
345.947	69.46
346.159	83.8
346.371	71.51
346.583	69.46
346.795	112.47
347.007	14.17
347.219	46.93
347.431	96.08
347.643	118.61
347.855	36.69
348.067	98.13
348.279	53.08
348.491	20.31
348.703	42.84
348.915	34.64
349.127	26.45
349.339	-4.27
349.551	91.99
349.763	51.03
349.975	48.98
350.187	169.81
350.399	126.8
350.61	20.31
350.822	14.17
351.034	24.4
351.246	114.52
351.458	-6.31
351.669	96.08
351.881	106.32
352.093	57.17
352.305	53.08
352.517	79.7
352.728	149.33
352.94	112.47
353.152	59.22
353.363	-4.27
353.575	108.37
353.787	135
353.999	30.55
354.21	65.36
354.422	135
354.633	22.36
354.845	34.64
355.057	26.45
355.268	71.51
355.48	30.55
355.692	79.7
355.903	-18.6
356.115	-18.6
356.326	3.93
356.538	128.85
356.749	-18.6
356.961	83.8
357.172	28.5
357.384	67.41
357.595	83.8
357.807	94.04
358.018	55.12
358.23	46.93
358.441	81.75
358.653	26.45
358.864	-84.14
359.075	100.18
359.287	96.08
359.498	73.56
359.709	87.89
359.921	-2.22
360.132	85.84
360.344	83.8
360.555	24.4
360.766	91.99
360.977	104.28
361.189	20.31
361.4	110.42
361.611	81.75
361.823	149.33
362.034	38.74
362.245	10.07
362.456	42.84
362.667	100.18
362.879	3.93
363.09	59.22
363.301	26.45
363.512	61.27
363.723	30.55
363.935	42.84
364.146	67.41
364.357	63.32
364.568	1.88
364.779	83.8
364.99	51.03
365.201	12.12
365.412	67.41
365.623	34.64
365.834	116.56
366.045	83.8
366.256	26.45
366.467	69.46
366.678	-12.46
366.889	10.07
367.1	28.5
367.311	130.9
367.522	71.51
367.733	165.71
367.944	77.65
368.155	132.95
368.366	69.46
368.577	20.31
368.788	30.55
368.999	5.97
369.209	108.37
369.42	106.32
369.631	100.18
369.842	69.46
370.053	51.03
370.264	20.31
370.474	20.31
370.685	104.28
370.896	110.42
371.107	69.46
371.317	100.18
371.528	34.64
371.739	59.22
371.95	3.93
372.16	65.36
372.371	38.74
372.582	51.03
372.792	91.99
373.003	67.41
373.214	18.26
373.424	89.94
373.635	26.45
373.846	153.43
374.056	87.89
374.267	63.32
374.477	71.51
374.688	-12.46
374.898	46.93
375.109	75.6
375.319	75.6
375.53	91.99
375.74	126.8
375.951	3.93
376.161	130.9
376.372	128.85
376.582	63.32
376.793	28.5
377.003	85.84
377.214	5.97
377.424	81.75
377.635	71.51
377.845	61.27
378.055	79.7
378.266	28.5
378.476	132.95
378.686	38.74
378.897	165.71
379.107	18.26
379.317	71.51
379.528	51.03
379.738	44.88
379.948	-32.94
380.158	106.32
380.369	63.32
380.579	135
380.789	34.64
380.999	91.99
381.21	118.61
381.42	69.46
381.63	36.69
381.84	141.14
382.05	36.69
382.261	100.18
382.471	91.99
382.681	51.03
382.891	116.56
383.101	135
383.311	14.17
383.521	20.31
383.731	65.36
383.941	75.6
384.151	73.56
384.361	18.26
384.571	67.41
384.781	112.47
384.991	116.56
385.201	167.76
385.411	71.51
385.621	108.37
385.831	77.65
386.041	42.84
386.251	53.08
386.461	79.7
386.671	67.41
386.881	91.99
387.091	59.22
387.301	118.61
387.511	118.61
387.72	51.03
387.93	145.24
388.14	20.31
388.35	77.65
388.56	87.89
388.769	132.95
388.979	124.76
389.189	149.33
389.399	28.5
389.609	100.18
389.818	124.76
390.028	75.6
390.238	128.85
390.447	44.88
390.657	169.81
390.867	42.84
391.076	5.97
391.286	75.6
391.496	44.88
391.705	91.99
391.915	79.7
392.125	141.14
392.334	44.88
392.544	169.81
392.753	194.39
392.963	44.88
393.172	116.56
393.382	28.5
393.591	188.24
393.801	153.43
394.01	83.8
394.22	157.52
394.429	126.8
394.639	135
394.848	128.85
395.058	77.65
395.267	100.18
395.477	91.99
395.686	112.47
395.895	202.58
396.105	223.06
396.314	100.18
396.524	145.24
396.733	30.55
396.942	132.95
397.152	135
397.361	126.8
397.57	171.86
397.78	79.7
397.989	135
398.198	161.62
398.407	128.85
398.617	190.29
398.826	175.95
399.035	157.52
399.244	149.33
399.453	135
399.663	147.28
399.872	157.52
400.081	85.84
400.29	157.52
400.499	165.71
400.708	204.63
400.917	96.08
401.127	124.76
401.336	108.37
401.545	231.25
401.754	120.66
401.963	118.61
402.172	135
402.381	157.52
402.59	173.91
402.799	206.67
403.008	151.38
403.217	231.25
403.426	231.25
403.635	149.33
403.844	239.44
404.053	190.29
404.262	83.8
404.471	184.15
404.68	231.25
404.888	249.68
405.097	225.11
405.306	247.63
405.515	255.83
405.724	235.35
405.933	366.42
406.142	300.88
406.35	288.59
406.559	323.41
406.768	255.83
406.977	274.26
407.185	311.12
407.394	325.46
407.603	352.08
407.812	362.32
408.02	378.7
408.229	374.61
408.438	403.28
408.646	325.46
408.855	296.78
409.064	315.22
409.272	399.18
409.481	481.1
409.69	477.01
409.898	460.62
410.107	530.25
410.315	485.2
410.524	493.39
410.733	501.58
410.941	528.21
411.15	603.98
411.358	642.89
411.567	626.51
411.775	583.5
411.984	659.28
412.192	659.28
412.401	665.42
412.609	702.28
412.818	724.81
413.026	753.48
413.234	773.96
413.443	763.72
413.651	849.74
413.86	833.35
414.068	976.71
414.276	1001.29
414.485	1001.29
414.693	1079.11
414.901	1019.72
415.11	1199.94
415.318	1126.21
415.526	1158.98
415.734	1255.23
415.943	1247.04
416.151	1322.82
416.359	1281.86
416.567	1363.78
416.776	1419.07
416.984	1525.57
417.192	1517.37
417.4	1460.03
417.608	1636.16
417.817	1675.07
418.025	1808.19
418.233	1830.71
418.441	1832.76
418.649	1908.54
418.857	2021.17
419.065	2053.94
419.273	2047.8
419.481	2164.53
419.689	2307.89
419.897	2371.38
420.105	2432.82
420.313	2643.76
420.521	2647.85
420.729	2619.18
420.937	2744.11
421.145	2881.32
421.353	3000.1
421.561	3198.76
421.769	3155.75
421.977	3325.73
422.185	3303.2
422.393	3452.7
422.601	3720.99
422.809	3745.56
423.017	3688.22
423.224	3866.39
423.432	4024.09
423.64	4073.24
423.848	4400.91
424.056	4179.73
424.263	4726.54
424.471	4570.9
424.679	4861.71
424.887	4972.3
425.094	5050.12
425.302	5250.82
425.51	5342.98
425.718	5574.4
425.925	5457.67
426.133	5768.96
426.341	6047.48
426.548	6201.08
426.756	6366.96
426.964	6575.86
427.171	6833.9
427.379	6928.11
427.586	7091.95
427.794	7268.07
428.001	7831.26
428.209	7730.91
428.417	7769.82
428.624	8550.1
428.832	8171.22
429.039	8333.01
429.247	8195.8
429.454	9098.95
429.662	9610.95
429.869	9037.52
430.076	9787.07
430.284	9432.77
430.491	10020.54
430.699	10575.54
430.906	10475.19
431.114	10655.41
431.321	10993.33
431.528	11234.99
431.736	11763.36
431.943	12527.25
432.15	12041.89
432.358	12619.41
432.565	13059.73
432.772	12824.21
432.979	13256.33
433.187	13547.14
433.394	13987.46
433.601	14487.16
433.808	14517.88
434.016	14726.77
434.223	14896.75
434.43	16004.71
434.637	16115.3
434.844	16778.84
435.052	16852.56
435.259	17104.46
435.466	17397.32
435.673	17204.81
435.88	17886.79
436.087	18925.11
436.294	19097.14
436.501	18718.26
436.708	18921.01
436.915	19703.34
437.122	20598.3
437.329	20698.65
437.537	21075.48
437.743	21599.76
437.95	21030.42
438.157	22554.11
438.364	22945.27
438.571	22953.46
438.778	23234.03
438.985	25146.84
439.192	24053.22
439.399	25085.4
439.606	24606.17
439.813	25839.05
440.02	27362.74
440.227	26824.12
440.433	26844.6
440.64	27811.24
440.847	27147.7
441.054	28063.15
441.261	29734.29
441.467	29263.25
441.674	30045.58
441.881	31143.29
442.088	31274.36
442.294	31044.99
442.501	31382.9
442.708	31939.95
442.914	33428.82
443.121	34889.02
443.328	33572.18
443.534	36238.64
443.741	35474.74
443.948	34633.03
444.154	37313.82
444.361	37328.16
444.568	37346.59
444.774	37018.91
444.981	37543.19
445.187	38722.82
445.394	40107.25
445.6	39798.01
445.807	43291.84
446.013	42228.94
446.22	42374.35
446.426	44104.88
446.633	44313.78
446.839	45837.47
447.046	43934.9
447.252	46091.41
447.459	46783.63
447.665	46126.23
447.871	48094.33
448.078	50226.26
448.284	47535.23
448.491	48821.36
448.697	50936.91
448.903	51729.47
449.11	52141.11
449.316	51240.01
449.522	51729.47
449.728	53314.6
449.935	53277.74
450.141	53636.13
450.347	54893.58
450.553	52939.82
450.76	53963.81
450.966	55163.92
451.172	54860.82
451.378	56523.77
451.584	55417.86
451.791	56370.17
451.997	56523.77
452.203	57039.85
452.409	56800.24
452.615	56687.6
452.821	54869.01
453.027	54557.72
453.233	56859.63
453.44	54815.76
453.646	55174.16
453.852	55593.99
454.058	56126.46
454.264	54498.33
454.47	56220.67
454.676	54625.3
454.882	56634.36
455.088	52001.85
455.294	52708.4
455.5	53351.46
455.705	53623.84
455.911	51745.86
456.117	50715.73
456.323	50130.01
456.529	47514.75
456.735	49554.53
456.941	48297.08
457.147	47602.81
457.352	45745.31
457.558	45687.96
457.764	45558.94
457.97	44905.64
458.176	43953.33
458.381	43650.24
458.587	42292.43
458.793	41811.16
458.999	39615.74
459.204	42233.04
459.41	41256.16
459.616	38444.3
459.821	38466.83
460.027	38692.1
460.233	37539.1
460.438	35704.12
460.644	36404.52
460.85	34415.94
461.055	34059.6
461.261	33930.58
461.466	31698.29
461.672	30524.8
461.878	32853.34
462.083	30719.36
462.289	30184.84
462.494	29619.6
462.7	28288.42
462.905	27575.73
463.111	28427.68
463.316	28640.67
463.522	27831.72
463.727	28177.83
463.932	28159.4
464.138	27567.54
464.343	27739.57
464.549	27198.9
464.754	28044.71
464.959	27882.92
465.165	27549.1
465.37	26242.5
465.575	25777.61
465.781	26514.88
465.986	26666.43
466.191	25558.48
466.397	25099.73
466.602	23901.67
466.807	25011.67
467.012	24714.72
467.218	24534.49
467.423	24542.69
467.628	24554.97
467.833	25707.98
468.038	24591.84
468.244	23899.62
468.449	24729.05
468.654	24034.79
468.859	24008.17
469.064	23604.72
469.269	22683.13
469.474	22975.99
469.679	23627.24
469.885	22846.97
470.09	22959.61
470.295	22752.76
470.5	22431.23
470.705	22564.35
470.91	22062.6
471.115	21833.22
471.32	22076.93
471.525	21839.37
471.73	21399.05
471.935	21141.01
472.139	20588.06
472.344	20723.23
472.549	20657.69
472.754	20397.6
472.959	20260.38
473.164	19738.15
473.369	19383.85
473.574	19998.24
473.778	19815.97
473.983	19482.16
474.188	19662.38
474.393	18673.21
474.598	18880.05
474.802	18495.04
475.007	18638.39
475.212	18476.6
475.417	18103.87
475.621	17862.21
475.826	17901.12
476.031	17239.63
476.235	17022.55
476.44	17520.2
476.645	17272.4
476.849	17190.48
477.054	16973.39
477.259	16793.17
477.463	16535.13
477.668	16320.09
477.872	16621.14
478.077	16123.49
478.282	15963.75
478.486	15885.92
478.691	15533.67
478.895	15550.06
479.1	15359.59
479.304	15619.69
479.509	14980.72
479.713	15472.23
479.918	15156.85
480.122	14796.4
480.326	15152.75
480.531	15017.58
480.735	14988.91
480.94	14687.86
481.144	15314.54
481.348	14534.26
481.553	14769.78
481.757	14407.29
481.961	14382.71
482.166	14673.53
482.37	14634.61
482.574	14263.93
482.778	14413.43
482.983	14595.7
483.187	14601.85
483.391	14376.57
483.595	14284.41
483.8	14255.74
484.004	14421.63
484.208	14798.45
484.412	14255.74
484.616	14454.39
484.821	14423.67
485.025	14132.86
485.229	14325.37
485.433	14282.36
485.637	14304.89
485.841	14265.98
486.045	14247.55
486.249	14368.38
486.453	14108.29
486.657	14345.85
486.861	14528.12
487.065	14048.89
487.269	14059.13
487.473	13719.17
487.677	14268.03
487.881	14540.41
488.085	14206.59
488.289	14284.41
488.493	14341.75
488.697	14368.38
488.901	14331.51
489.105	14286.46
489.309	14331.51
489.512	14515.83
489.716	14421.63
489.92	14491.26
490.124	14356.09
490.328	14474.87
490.531	14530.17
490.735	14669.43
490.939	14575.22
491.143	14419.58
491.346	14554.74
491.55	14757.49
491.754	14765.68
491.958	14890.61
492.161	14849.65
492.365	14935.67
492.569	14767.73
492.772	15044.21
492.976	15081.07
493.18	15126.13
493.383	15640.17
493.587	15363.69
493.79	15601.26
493.994	15361.64
494.197	15570.54
494.401	15781.48
494.605	15586.92
494.808	15859.3
495.012	15926.88
495.215	16004.71
495.419	16021.09
495.622	16174.69
495.825	16184.93
496.029	16422.49
496.232	16590.42
496.436	16516.7
496.639	17012.31
496.843	16938.58
497.046	17239.63
497.249	17233.49
497.453	17303.12
497.656	17469
497.859	17942.08
498.063	17821.25
498.266	18245.18
498.469	17966.66
498.673	18265.66
498.876	18763.32
499.079	18523.71
499.282	18505.27
499.485	19109.43
499.689	19000.88
499.892	19529.26
500.095	19457.58
500.298	20059.68
500.501	19617.32
500.705	20313.63
500.908	20391.45
501.111	20639.26
501.314	20753.94
501.517	21177.87
501.72	21235.22
501.923	21284.37
502.126	21595.66
502.329	21736.97
502.532	22111.75
502.735	22281.73
502.938	22683.13
503.141	22693.37
503.344	23193.08
503.547	22996.47
503.75	23471.6
503.953	23502.32
504.156	24081.89
504.359	24225.25
504.562	24274.4
504.765	24620.51
504.968	24886.75
505.17	25046.49
505.373	24864.22
505.576	25607.63
505.779	25869.77
505.982	26136.01
506.185	26527.17
506.387	26676.67
506.59	26774.97
506.793	27598.26
506.996	27205.05
507.198	27878.83
507.401	27858.35
507.604	28282.28
507.807	28554.66
508.009	28966.3
508.212	29052.31
508.415	29468.05
508.617	29451.67
508.82	30102.92
509.022	29619.6
509.225	30608.77
509.428	30930.3
509.63	30993.79
509.833	30918.01
510.035	31438.2
510.238	31726.96
510.44	32050.54
510.643	32685.41
510.845	32812.38
511.048	32552.29
511.25	33406.3
511.453	33275.23
511.655	34532.68
511.858	34174.28
512.06	34563.4
512.262	34665.8
512.465	34934.08
512.667	35388.73
512.87	35794.23
513.072	35986.74
513.274	35976.5
513.477	36517.16
513.679	36637.99
513.881	37113.12
514.084	37782.8
514.286	37795.09
514.488	37999.89
514.69	38575.37
514.893	38769.93
515.095	38704.39
515.297	39384.32
515.499	39544.06
515.701	39711.99
515.904	40078.58
516.106	40340.72
516.308	40901.86
516.51	41409.76
516.712	41184.48
516.914	41508.06
517.116	42335.44
517.318	42159.31
517.52	42704.07
517.722	42343.63
517.925	42966.21
518.127	43386.05
518.329	43877.56
518.531	43601.08
518.733	44500.14
518.935	44995.75
519.136	44539.05
519.338	45182.12
519.54	45544.61
519.742	46193.81
519.944	45864.09
520.146	46435.47
520.348	46685.32
520.55	46750.86
520.752	47109.25
520.954	48110.71
521.155	47248.52
521.357	48110.71
521.559	48446.58
521.761	49149.03
521.963	49034.35
522.164	49042.54
522.366	49132.65
522.568	49790.05
522.77	49589.34
522.971	50191.45
523.173	49732.7
523.375	50625.62
523.576	50543.7
523.778	50648.14
523.98	50771.02
524.181	50885.71
524.383	51141.7
524.584	51549.25
524.786	51631.17
524.988	51606.59
525.189	51911.74
525.391	52474.93
525.592	52345.91
525.794	52436.02
525.995	52190.26
526.197	52321.33
526.398	52485.17
526.6	53062.7
526.801	52923.44
527.003	53113.9
527.204	53195.82
527.406	53283.88
527.607	53017.64
527.808	53926.94
528.01	52632.63
528.211	53345.32
528.412	54209.56
528.614	53894.17
528.815	53746.72
529.016	54238.23
529.218	53572.64
529.419	54047.77
529.62	53720.1
529.822	53834.78
530.023	54250.52
530.224	53638.18
530.425	53763.1
530.626	53685.28
530.828	54015.01
531.029	54688.79
531.23	53582.88
531.431	53890.08
531.632	54025.24
531.833	53941.28
532.035	53699.62
532.236	53695.52
532.437	54361.11
532.638	54088.73
532.839	54410.26
533.04	53998.62
533.241	53533.73
533.442	53992.48
533.643	53756.96
533.844	54109.21
534.045	53980.19
534.246	53290.02
534.447	53804.06
534.648	53640.23
534.849	53689.38
535.05	53058.6
535.251	53517.35
535.451	53183.53
535.652	53316.65
535.853	53572.64
536.054	53427.24
536.255	53632.03
536.456	53275.69
536.657	54338.58
536.857	53267.5
537.058	52935.73
537.259	53756.96
537.46	53482.53
537.66	53408.81
537.861	53394.47
538.062	53228.59
538.263	52898.86
538.463	53105.71
538.664	53007.4
538.865	53017.64
539.065	53410.85
539.266	52237.37
539.466	53181.48
539.667	52560.95
539.868	53302.31
540.068	52778.03
540.269	52573.24
540.469	53132.33
540.67	52558.9
540.87	52630.58
541.071	52722.74
541.271	52870.19
541.472	52786.22
541.672	52771.89
541.873	52106.3
542.073	51934.27
542.274	52894.77
542.474	52395.06
542.675	52483.12
542.875	52812.85
543.075	52214.84
543.276	52096.06
543.476	52833.33
543.676	52241.46
543.877	52411.45
544.077	52753.46
544.277	52173.88
544.478	52509.75
544.678	52673.59
544.878	52362.29
545.078	52280.38
545.279	51657.79
545.479	51895.36
545.679	52358.2
545.879	51926.08
546.079	52010.04
546.28	52016.19
546.48	51821.63
546.68	52309.05
546.88	52339.77
547.08	52364.34
547.28	52204.6
547.48	51733.57
547.68	52157.5
547.88	51946.56
548.081	52030.52
548.281	51893.31
548.481	51723.33
548.681	52286.52
548.881	51772.48
549.081	52005.95
549.28	51743.81
549.48	52896.81
549.68	51964.99
549.88	52878.38
550.08	51885.12
550.28	52378.68
550.48	51979.32
550.68	52270.14
550.88	51557.44
551.08	51997.76
551.279	52247.61
551.479	51465.28
551.679	51758.14
551.879	51903.55
552.079	52358.2
552.278	52118.59
552.478	51817.53
552.678	52124.73
552.878	52132.92
553.077	52059.19
553.277	51731.52
553.477	52618.29
553.676	51997.76
553.876	52243.51
554.076	51747.9
554.275	51885.12
554.475	51321.93
554.674	52417.59
554.874	52325.43
555.074	52096.06
555.273	52354.1
555.473	52866.09
555.672	52038.72
555.872	52319.29
556.071	52139.07
556.271	52263.99
556.47	52196.41
556.67	51940.41
556.869	52137.02
557.068	52829.23
557.268	52110.39
557.467	52286.52
557.667	51989.56
557.866	51876.93
558.065	51950.65
558.265	52055.1
558.464	52116.54
558.663	52974.64
558.863	51647.55
559.062	52444.21
559.261	52112.44
559.461	52354.1
559.66	51557.44
559.859	52214.84
560.058	51926.08
560.258	52032.57
560.457	51770.43
560.656	52227.13
560.855	51786.82
561.054	52335.67
561.253	51602.5
561.453	52288.57
561.652	52358.2
561.851	52057.15
562.05	51592.26
562.249	51672.13
562.448	52094.01
562.647	51874.88
562.846	51797.05
563.045	52016.19
563.244	50902.09
563.443	52048.96
563.642	50955.34
563.841	51770.43
564.04	51131.47
564.239	51999.8
564.438	51219.53
564.637	51670.08
564.836	51631.17
565.035	50805.84
565.234	51854.4
565.432	51412.04
565.631	50760.78
565.83	51747.9
566.029	50834.51
566.228	51002.44
566.427	51027.02
566.625	50605.14
566.824	50394.2
567.023	51176.52
567.222	50144.34
567.42	51002.44
567.619	50838.61
567.818	50486.35
568.016	50164.82
568.215	50893.9
568.414	50711.63
568.612	50762.83
568.811	50326.61
569.01	50080.86
569.208	49661.02
569.407	50517.07
569.605	49400.93
569.804	50451.54
570.002	49665.12
570.201	50101.34
570.4	49667.17
570.598	48919.66
570.797	49388.64
570.995	49620.06
571.193	48979.05
571.392	49947.74
571.59	48870.51
571.789	49085.54
571.987	48991.34
572.186	49224.81
572.384	48409.71
572.582	49003.63
572.781	48995.43
572.979	48114.81
573.177	48487.54
573.376	48804.97
573.574	48528.5
573.772	48233.59
573.971	48254.07
574.169	48274.55
574.367	47660.16
574.565	48135.29
574.763	47936.63
574.962	48092.28
575.16	47223.94
575.358	47461.51
575.556	47045.77
575.754	47529.09
575.952	47152.26
576.151	47189.13
576.349	46374.03
576.547	46642.32
576.745	47004.81
576.943	46789.77
577.141	46464.14
577.339	46627.98
577.537	46380.18
577.735	46474.38
577.933	45913.24
578.131	46099.61
578.329	45763.74
578.527	45393.06
578.725	45946.01
578.923	45786.27
579.121	45458.59
579.319	45505.69
579.516	45436.06
579.714	45216.93
579.912	45276.32
580.11	45053.09
580.308	44819.63
580.506	44563.63
580.704	44041.4
580.901	44897.45
581.099	44977.32
581.297	44600.49
581.495	44432.56
581.692	44534.96
581.89	44295.35
582.088	44690.6
582.285	43916.47
582.483	44186.8
582.681	44367.02
582.878	43816.12
583.076	43515.07
583.274	44010.68
583.471	43150.53
583.669	43662.52
583.866	43146.43
584.064	43482.3
584.262	42933.45
584.459	43191.49
584.657	42812.62
584.854	43373.76
585.052	42499.28
585.249	42691.79
585.447	42906.82
585.644	42343.63
585.841	42712.27
586.039	42427.6
586.236	42069.2
586.434	41921.75
586.631	41893.08
586.828	41991.38
587.026	42005.72
587.223	41762.01
587.42	41555.16
587.618	41602.27
587.815	41401.57
588.012	41092.32
588.21	41391.33
588.407	41768.15
588.604	41135.33
588.801	40588.52
588.999	41094.37
589.196	40801.51
589.393	41172.19
589.59	40836.33
589.787	40709.35
589.984	40686.82
590.182	40236.27
590.379	40512.75
590.576	40127.73
590.773	40172.78
590.97	39939.32
591.167	40211.7
591.364	39642.36
591.561	40350.96
591.758	39628.02
591.955	39314.69
592.152	39970.04
592.349	39816.44
592.546	39785.72
592.743	39519.48
592.94	38976.77
593.137	39341.31
593.334	39560.44
593.531	39185.66
593.727	39310.59
593.924	39111.94
594.121	38776.07
594.318	38898.95
594.515	38309.13
594.712	39042.31
594.908	38765.83
595.105	38739.21
595.302	38087.95
595.499	38452.49
595.696	38044.94
595.892	38012.18
596.089	38186.25
596.286	38143.25
596.482	37975.31
596.679	37936.4
596.876	38327.56
597.072	37821.72
597.269	37909.78
597.466	37082.4
597.662	37809.43
597.859	37793.04
598.055	37809.43
598.252	37426.46
598.448	37641.49
598.645	37631.26
598.841	37096.74
599.038	37330.2
599.234	37569.82
599.431	37125.41
599.627	37346.59
599.824	37440.79
600.02	37031.2
600.217	37223.71
600.413	36826.4
600.609	36967.71
600.806	37158.17
601.002	37473.56
601.198	37025.06
601.395	36568.36
601.591	36865.31
601.787	36478.25
601.984	36521.26
602.18	37012.77
602.376	36539.69
602.572	36640.04
602.769	36717.86
602.965	36265.26
603.161	36465.96
603.357	36969.76
603.553	36554.02
603.75	36388.14
603.946	36332.84
604.142	36472.1
604.338	36375.85
604.534	36551.98
604.73	36279.6
604.926	36220.2
605.122	36554.02
605.318	36330.79
605.514	35939.63
605.71	36160.81
605.906	36248.88
606.102	36005.17
606.298	36203.82
606.494	36273.45
606.69	36285.74
606.886	36037.94
607.082	35657.01
607.278	36402.47
607.474	35628.34
607.67	35974.45
607.866	35872.05
608.062	36320.56
608.257	36048.18
608.453	35917.11
608.649	36306.22
608.845	35730.74
609.041	36107.57
609.236	36238.64
609.432	36171.05
609.628	36140.33
609.824	35775.8
610.019	35925.3
610.215	36302.12
610.411	36496.68
610.606	35558.71
610.802	35802.42
610.998	35874.1
611.193	36220.2
611.389	35904.82
611.584	35708.21
611.78	35757.36
611.976	36044.08
612.171	35863.86
612.367	35962.16
612.562	36035.89
612.758	35398.97
612.953	35673.4
613.149	36187.44
613.344	35775.8
613.539	36322.6
613.735	35874.1
613.93	36238.64
614.126	35996.98
614.321	36121.9
614.517	36072.75
614.712	35743.03
614.907	35624.25
615.103	35915.06
615.298	35790.13
615.493	36101.42
615.688	35638.58
615.884	36179.25
616.079	35552.57
616.274	35781.94
616.47	35974.45
616.665	35550.52
616.86	35634.49
617.055	35216.7
617.25	35425.59
617.445	35603.77
617.641	35179.84
617.836	35468.6
618.031	35183.93
618.226	35411.26
618.421	35392.83
618.616	35685.68
618.811	34923.84
619.006	35499.32
619.201	34417.99
619.396	34710.85
619.591	34428.23
619.786	34524.49
619.981	34028.88
620.176	34868.55
620.371	34272.59
620.566	34811.2
620.761	34022.73
620.956	33996.11
621.151	33641.81
621.346	34114.89
621.541	33654.1
621.735	34073.93
621.93	33254.75
622.125	33250.65
622.32	32709.99
622.515	32916.83
622.709	32542.05
622.904	32830.82
623.099	32695.65
623.294	32535.91
623.488	31812.98
623.683	32535.91
623.878	31878.51
624.072	31946.09
624.267	32161.13
624.462	31391.09
624.656	31473.01
624.851	31292.79
625.046	31536.5
625.24	31309.18
625.435	31032.7
625.629	30539.14
625.824	30690.69
626.018	31038.84
626.213	29762.96
626.407	30526.85
626.602	29906.32
626.796	29996.43
626.991	30088.59
627.185	29703.57
627.38	29517.2
627.574	29472.15
627.768	28990.87
627.963	28847.52
628.157	28691.87
628.352	28614.05
628.546	28403.11
628.74	28931.48
628.935	28503.46
629.129	28333.48
629.323	28083.62
629.517	28091.82
629.712	27866.54
629.906	27856.3
630.1	27258.29
630.294	27663.79
630.489	27225.53
630.683	27504.05
630.877	27012.54
631.071	26828.22
631.265	26879.42
631.459	26791.36
631.653	26947
631.848	26600.9
632.042	26119.62
632.236	26422.72
632.43	26074.57
632.624	26346.95
632.818	25748.94
633.012	25644.49
633.206	25437.65
633.4	25443.79
633.594	25275.86
633.788	25368.02
633.982	25077.21
634.176	24837.59
634.369	24780.25
634.563	25023.96
634.757	24618.46
634.951	24649.18
635.145	24124.9
635.339	24694.24
635.533	23899.62
635.726	23930.34
635.92	24200.68
636.114	23807.47
636.308	23641.58
636.501	23612.91
636.695	23600.62
636.889	23250.42
637.083	23213.56
637.276	23205.36
637.47	23021.05
637.664	22879.74
637.857	22822.39
638.051	22758.91
638.244	22257.15
638.438	22521.34
638.632	22472.19
638.825	22189.57
639.019	21812.74
639.212	21786.12
639.406	21808.65
639.599	21767.69
639.793	21442.06
639.986	21333.52
640.18	21229.07
640.373	21335.57
640.567	20854.3
640.76	21149.2
640.954	20934.17
641.147	20751.9
641.34	20452.89
641.534	20725.27
641.727	20620.83
641.92	20346.4
642.114	19867.17
642.307	20260.38
642.5	19942.95
642.694	19674.67
642.887	19834.41
643.08	19758.63
643.273	19637.8
643.467	19615.27
643.66	19277.36
643.853	19209.78
644.046	19080.75
644.239	19037.75
644.432	18683.45
644.626	18789.94
644.819	18818.61
645.012	18591.29
645.205	18525.75
645.398	18437.69
645.591	18208.32
645.784	18341.44
645.977	17913.41
646.17	17847.88
646.363	17858.12
646.556	17819.21
646.749	17673.8
646.942	17622.6
647.135	17329.74
647.328	17462.86
647.521	17118.8
647.714	17165.9
647.907	16993.87
648.099	17094.22
648.292	17083.98
648.485	16934.48
648.678	16565.85
648.871	16793.17
649.064	16369.24
649.256	16782.93
649.449	16606.81
649.642	16539.22
649.835	15996.51
650.027	16109.15
650.22	15898.21
650.413	15935.07
650.605	15875.68
650.798	15752.8
650.991	15339.12
651.183	15554.15
651.376	15566.44
651.568	15552.1
651.761	15443.56
651.954	15111.79
652.146	15224.43
652.339	15001.2
652.531	15003.25
652.724	14874.23
652.916	14780.02
653.109	14861.94
653.301	14747.25
653.494	14870.13
653.686	14448.25
653.879	14657.14
654.071	14278.27
654.263	14292.6
654.456	14257.79
654.648	14386.81
654.84	14126.72
655.033	14118.53
655.225	13973.12
655.417	13934.21
655.61	13829.76
655.802	13854.34
655.994	13633.16
656.186	13661.83
656.379	13667.97
656.571	13584.01
656.763	13346.44
656.955	13362.83
657.148	13438.6
657.34	13256.33
657.532	13080.21
657.724	13086.35
657.916	13016.72
658.108	12914.32
658.3	12715.67
658.492	12750.48
658.684	12711.57
658.876	12609.17
659.068	12611.22
659.26	12275.35
659.452	12605.08
659.644	12557.97
659.836	12330.65
660.028	12281.5
660.22	12013.21
660.412	12201.63
660.604	12033.69
660.796	12115.61
660.988	11853.47
661.18	11740.83
661.372	11531.94
661.563	11593.38
661.755	11724.45
661.947	11513.51
662.139	11376.3
662.331	11329.19
662.522	11364.01
662.714	11390.63
662.906	11169.45
663.097	11355.82
663.289	11257.51
663.481	11097.77
663.673	10958.51
663.864	10983.09
664.056	10774.19
664.247	10923.69
664.439	10872.5
664.631	10634.93
664.822	10696.37
665.014	10602.16
665.205	10481.33
665.397	10389.17
665.588	10380.98
665.78	10360.5
665.971	10366.65
666.163	10399.41
666.354	10098.36
666.546	10251.96
666.737	9979.58
666.929	10157.75
667.12	10118.84
667.311	9977.53
667.503	9942.72
667.694	9948.86
667.885	9828.03
668.077	9670.34
668.268	9590.47
668.459	9852.61
668.651	9635.52
668.842	9500.36
669.033	9514.69
669.224	9420.49
669.416	9420.49
669.607	9397.96
669.798	9250.5
669.989	9291.46
670.18	9193.16
670.371	9297.61
670.563	9035.47
670.754	9047.76
670.945	9012.94
671.136	9076.43
671.327	8865.49
671.518	9021.13
671.709	8996.56
671.9	8832.72
672.091	8851.15
672.282	8627.92
672.473	8570.58
672.664	8793.81
672.855	8871.63
673.046	8660.69
673.237	8750.8
673.428	8703.7
673.619	8529.62
673.809	8343.25
674	8431.32
674.191	8419.03
674.382	8478.42
674.573	8455.89
674.764	8400.6
674.954	8330.97
675.145	8081.11
675.336	8169.18
675.527	8144.6
675.717	8079.07
675.908	7841.5
676.099	8142.55
676.289	8144.6
676.48	8031.96
676.671	7841.5
676.861	7984.86
677.052	8013.53
677.243	7853.79
677.433	7757.53
677.624	7870.17
677.814	7866.08
678.005	7853.79
678.195	7661.28
678.386	7706.34
678.576	7767.77
678.767	7530.21
678.957	7753.44
679.148	7605.99
679.338	7579.36
679.529	7491.3
679.719	7399.14
679.909	7620.32
680.1	7450.34
680.29	7552.74
680.481	7417.57
680.671	7472.87
680.861	7298.79
681.052	7542.5
681.242	7450.34
681.432	7393
681.622	7196.39
681.813	7143.14
682.003	7356.13
682.193	7145.19
682.383	7212.78
682.573	7235.3
682.764	7030.51
682.954	7145.19
683.144	7016.17
683.334	7204.58
683.524	7130.86
683.714	7046.89
683.904	7063.27
684.094	6997.74
684.284	7194.34
684.474	7032.55
684.664	6954.73
684.854	6999.79
685.044	6944.49
685.234	6792.94
685.424	6817.52
685.614	6711.02
685.804	6719.21
685.994	6762.22
686.184	6846.19
686.374	6768.37
686.564	6809.33
686.753	6772.46
686.943	6498.03
687.133	6647.54
687.323	6514.42
687.513	6526.71
687.702	6506.23
687.892	6414.07
688.082	6518.51
688.272	6516.47
688.461	6360.82
688.651	6369.01
688.841	6283
689.03	6311.67
689.22	6438.64
689.41	6401.78
689.599	6274.81
689.789	6260.47
689.979	6203.13
690.168	6170.36
690.358	6188.79
690.547	6192.89
690.737	6188.79
690.926	6149.88
691.116	6090.49
691.305	6188.79
691.495	6072.06
691.684	5973.75
691.874	6047.48
692.063	5883.64
692.252	6082.3
692.442	5945.08
692.631	5728
692.82	5834.49
693.01	5998.33
693.199	5949.18
693.388	5715.71
693.578	5807.87
693.767	5887.74
693.956	5719.81
694.146	5807.87
694.335	5736.19
694.524	5609.22
694.713	5668.61
694.902	5728
695.092	5621.5
695.281	5621.5
695.47	5660.41
695.659	5465.86
695.848	5553.92
696.037	5437.19
696.226	5644.03
696.415	5519.11
696.604	5330.69
696.793	5310.21
696.982	5334.79
697.171	5500.67
697.36	5400.32
697.549	5310.21
697.738	5404.42
697.927	5312.26
698.116	5453.57
698.305	5179.14
698.494	5334.79
698.683	5342.98
698.872	5379.84
699.061	5355.27
699.25	5252.87
699.438	5256.97
699.627	5089.03
699.816	5129.99
700.005	5148.42
700.193	5256.97
700.382	5099.27
700.571	5009.16
700.76	5091.08
700.948	5123.85
701.137	5015.3
701.326	4974.35
701.514	5191.43
701.703	4951.82
701.892	4941.58
702.08	5189.38
702.269	5115.66
702.457	4710.16
702.646	4820.75
702.834	4802.32
703.023	4822.8
703.212	4845.32
703.4	4812.56
703.589	4781.84
703.777	4853.52
703.965	4687.63
704.154	4820.75
704.342	4744.97
704.531	4679.44
704.719	4499.22
704.907	4677.39
705.096	4566.8
705.284	4671.25
705.472	4714.25
705.661	4536.08
705.849	4599.57
706.037	4491.02
706.226	4501.26
706.414	4355.86
706.602	4527.89
706.79	4491.02
706.979	4212.5
707.167	4417.3
707.355	4407.06
707.543	4519.7
707.731	4443.92
707.919	4488.98
708.107	4341.52
708.296	4327.19
708.484	4294.42
708.672	4208.41
708.86	4296.47
709.048	4261.65
709.236	4316.95
709.424	4278.04
709.612	4232.98
709.8	4261.65
709.988	4175.64
710.176	4247.32
710.364	4220.69
710.551	4106.01
710.739	4054.81
710.927	4073.24
711.115	4052.76
711.303	4050.71
711.491	4056.86
711.679	4073.24
711.866	4122.39
712.054	4116.25
712.242	3938.07
712.43	4103.96
712.617	3958.55
712.805	3968.79
712.993	3876.63
713.181	3835.67
713.368	3909.4
713.556	3899.16
713.744	3833.63
713.931	3917.59
714.119	3796.76
714.306	3954.46
714.494	3686.17
714.682	3778.33
714.869	3764
715.057	3770.14
715.244	3673.89
715.432	3831.58
715.619	3764
715.807	3723.04
715.994	3624.73
716.182	3780.38
716.369	3811.1
716.556	3659.55
716.744	3704.6
716.931	3581.73
717.119	3548.96
717.306	3733.28
717.493	3528.48
717.681	3540.77
717.868	3569.44
718.055	3397.41
718.242	3471.14
718.43	3696.41
718.617	3387.17
718.804	3467.04
718.991	3585.82
719.179	3534.62
719.366	3354.4
719.553	3518.24
719.74	3403.55
719.927	3467.04
720.114	3286.82
720.301	3383.07
720.488	3274.53
720.676	3295.01
720.863	3247.91
721.05	3450.66
721.237	3305.25
721.424	3274.53
721.611	3258.15
721.798	3264.29
721.985	3131.17
722.172	3176.23
722.358	3131.17
722.545	3262.24
722.732	3215.14
722.919	3168.04
723.106	3307.3
723.293	3073.83
723.48	3082.02
723.667	3163.94
723.853	3098.41
724.04	3110.69
724.227	3084.07
724.414	3086.12
724.6	3045.16
724.787	3032.87
724.974	3147.56
725.161	2934.57
725.347	2959.14
725.534	2979.62
725.72	3018.54
725.907	2881.32
726.094	3014.44
726.28	2864.94
726.467	2936.62
726.653	3116.84
726.84	3090.21
727.027	3026.73
727.213	2860.84
727.4	2977.58
727.586	2844.46
727.773	2965.29
727.959	2809.64
728.145	2903.85
728.332	2893.61
728.518	2791.21
728.705	2805.55
728.891	2721.58
729.077	2770.73
729.264	2832.17
729.45	2789.16
729.636	2826.03
729.823	2862.89
730.009	2770.73
730.195	2666.28
730.382	2731.82
730.568	2725.68
730.754	2762.54
730.94	2731.82
731.126	2705.2
731.313	2744.11
731.499	2746.16
731.685	2608.94
731.871	2701.1
732.057	2649.9
732.243	2746.16
732.429	2690.86
732.615	2729.77
732.801	2729.77
732.987	2623.28
733.173	2649.9
733.359	2594.61
733.545	2565.93
733.731	2621.23
733.917	2563.89
734.103	2567.98
734.289	2643.76
734.475	2504.5
734.661	2662.19
734.847	2610.99
735.033	2533.17
735.219	2557.74
735.404	2641.71
735.59	2545.45
735.776	2451.25
735.962	2531.12
736.148	2465.58
736.333	2555.69
736.519	2320.18
736.705	2445.1
736.89	2529.07
737.076	2320.18
737.262	2508.59
737.447	2377.52
737.633	2375.47
737.819	2385.71
738.004	2262.83
738.19	2336.56
738.375	2393.9
738.561	2398
738.747	2336.56
738.932	2215.73
739.118	2363.19
739.303	2367.28
739.489	2311.99
739.674	2225.97
739.859	2242.36
740.045	2193.2
740.23	2279.22
740.416	2221.88
740.601	2205.49
740.786	2326.32
740.972	2221.88
741.157	2064.18
741.342	2166.58
741.528	2156.34
741.713	2264.88
741.898	2182.96
742.084	2150.2
742.269	2142
742.454	2078.52
742.639	2127.67
742.824	2133.81
743.01	2058.04
743.195	2174.77
743.38	2107.19
743.565	2158.39
743.75	2023.22
743.935	2082.61
744.12	2094.9
744.305	1980.22
744.49	1976.12
744.675	1947.45
744.86	1924.92
745.045	2006.84
745.23	1951.54
745.415	2000.69
745.6	1894.2
745.785	1851.19
745.97	1949.5
746.155	1845.05
746.34	1830.71
746.525	1845.05
746.71	2006.84
746.895	1849.15
747.079	1840.95
747.264	1746.75
747.449	1806.14
747.634	1951.54
747.819	1871.67
748.003	1730.36
748.188	1797.95
748.373	1765.18
748.557	1777.47
748.742	1845.05
748.927	1691.45
749.111	1683.26
749.296	1681.21
749.481	1773.37
749.665	1761.08
749.85	1683.26
750.034	1668.92
750.219	1705.79
750.404	1623.87
750.588	1566.53
750.773	1656.64
750.957	1578.81
751.141	1623.87
751.326	1552.19
751.51	1632.06
751.695	1658.68
751.879	1566.53
752.064	1525.57
752.248	1541.95
752.432	1582.91
752.617	1535.81
752.801	1589.05
752.985	1470.27
753.17	1521.47
753.354	1470.27
753.538	1496.89
753.722	1404.74
753.907	1429.31
754.091	1402.69
754.275	1414.98
754.459	1427.26
754.643	1462.08
754.828	1404.74
755.012	1353.54
755.196	1351.49
755.38	1369.92
755.564	1376.06
755.748	1427.26
755.932	1363.78
756.116	1406.78
756.3	1353.54
756.484	1253.19
756.668	1382.21
756.852	1331.01
757.036	1304.39
757.22	1224.51
757.404	1265.47
757.588	1214.27
757.772	1191.75
757.956	1288
758.14	1310.53
758.323	1222.47
758.507	1251.14
758.691	1306.43
758.875	1255.23
759.059	1240.9
759.242	1156.93
759.426	1175.36
759.61	1255.23
759.794	1191.75
759.977	1148.74
760.161	1417.02
760.345	1206.08
760.528	1206.08
760.712	1238.85
760.895	1197.89
761.079	1134.4
761.263	989
761.446	1148.74
761.63	1181.51
761.813	1118.02
761.997	1165.12
762.18	984.9
762.364	1066.82
762.547	1140.55
762.731	1042.25
762.914	1036.1
763.098	1038.15
763.281	1038.15
763.464	1103.68
763.648	1134.4
763.831	1003.33
764.015	1044.29
764.198	968.52
764.381	982.85
764.564	986.95
764.748	991.05
764.931	1042.25
765.114	952.13
765.297	1011.53
765.481	927.56
765.664	1017.67
765.847	954.18
766.03	1025.86
766.213	952.13
766.397	935.75
766.58	845.64
766.763	929.61
766.946	1001.29
767.129	956.23
767.312	976.71
767.495	1011.53
767.678	989
767.861	960.33
768.044	964.42
768.227	999.24
768.41	945.99
768.593	1040.2
768.776	825.16
768.959	993.09
769.142	890.7
769.324	905.03
769.507	950.09
769.69	874.31
769.873	890.7
770.056	956.23
770.239	964.42
770.421	954.18
770.604	853.83
770.787	911.18
770.97	927.56
771.152	892.74
771.335	866.12
771.518	919.37
771.7	902.98
771.883	943.94
772.066	833.35
772.248	829.26
772.431	905.03
772.613	945.99
772.796	870.22
772.978	788.3
773.161	866.12
773.343	833.35
773.526	823.11
773.708	718.67
773.891	755.53
774.073	739.15
774.256	831.3
774.438	927.56
774.621	769.87
774.803	776.01
774.985	816.97
775.168	796.49
775.35	902.98
775.532	821.06
775.715	788.3
775.897	730.95
776.079	683.85
776.261	862.02
776.444	812.87
776.626	730.95
776.808	726.86
776.99	757.58
777.173	714.57
777.355	669.52
777.537	739.15
777.719	692.04
777.901	759.63
778.083	683.85
778.265	692.04
778.447	771.91
778.629	722.76
778.811	696.14
778.993	776.01
779.175	757.58
779.357	642.89
779.539	636.75
779.721	642.89
779.903	651.08
780.085	634.7
780.267	718.67
780.449	583.5
780.631	714.57
780.812	593.74
780.994	665.42
781.176	599.88
781.358	571.21
781.54	649.04
781.721	538.45
781.903	599.88
782.085	571.21
782.267	558.92
782.448	591.69
782.63	524.11
782.812	536.4
782.993	573.26
783.175	481.1
783.357	610.12
783.538	501.58
783.72	556.88
783.901	489.29
784.083	563.02
784.264	526.16
784.446	534.35
784.627	464.72
784.809	579.4
784.99	616.27
785.172	501.58
785.353	448.33
785.535	485.2
785.716	489.29
785.897	358.22
786.079	536.4
786.26	452.43
786.441	501.58
786.623	390.99
786.804	386.9
786.985	526.16
787.167	485.2
787.348	444.24
787.529	534.35
787.71	536.4
787.891	485.2
788.073	442.19
788.254	427.85
788.435	481.1
788.616	395.09
788.797	374.61
788.978	403.28
789.159	501.58
789.34	503.63
789.522	462.67
789.703	319.31
789.884	419.66
790.065	415.57
790.246	444.24
790.427	378.7
790.607	419.66
790.788	380.75
790.969	421.71
791.15	436.05
791.331	350.03
791.512	347.98
791.693	372.56
791.874	374.61
792.054	339.79
792.235	401.23
792.416	341.84
792.597	405.33
792.778	442.19
792.958	388.94
793.139	370.51
793.32	436.05
793.5	333.65
793.681	411.47
793.862	354.13
794.042	409.42
794.223	218.96
794.404	290.64
794.584	259.92
794.765	278.35
794.945	294.74
795.126	339.79
795.306	370.51
795.487	350.03
795.667	319.31
795.848	362.32
796.028	278.35
796.209	393.04
796.389	358.22
796.57	372.56
796.75	278.35
796.93	270.16
797.111	274.26
797.291	243.54
797.471	378.7
797.652	360.27
797.832	333.65
798.012	364.37
798.192	243.54
798.373	272.21
798.553	241.49
798.733	225.11
798.913	356.18
799.093	368.46
799.274	298.83
799.454	280.4
799.634	323.41
799.814	280.4
799.994	354.13
800.174	233.3
800.354	274.26
800.534	264.02
800.714	223.06
800.894	178
801.074	182.1
801.254	208.72
801.434	358.22
801.614	313.17
801.794	214.87
801.974	884.55
802.154	216.91
802.334	280.4
802.514	198.48
802.693	247.63
802.873	247.63
803.053	315.22
803.233	173.91
803.413	286.54
803.592	239.44
803.772	178
803.952	323.41
804.131	257.87
804.311	274.26
804.491	288.59
804.67	169.81
804.85	253.78
805.03	247.63
805.209	296.78
805.389	178
805.568	233.3
805.748	239.44
805.928	210.77
806.107	243.54
806.287	188.24
806.466	190.29
806.646	231.25
806.825	255.83
807.004	139.09
807.184	274.26
807.363	163.67
807.543	206.67
807.722	149.33
807.901	221.01
808.081	225.11
808.26	108.37
808.439	206.67
808.619	216.91
808.798	186.19
808.977	116.56
809.156	218.96
809.336	116.56
809.515	257.87
809.694	200.53
809.873	126.8
810.052	143.19
810.231	157.52
810.411	190.29
810.59	216.91
810.769	241.49
810.948	198.48
811.127	75.6
811.306	157.52
811.485	178
811.664	216.91
811.843	157.52
812.022	173.91
812.201	161.62
812.38	192.34
812.559	178
812.737	210.77
812.916	141.14
813.095	100.18
813.274	180.05
813.453	141.14
813.632	184.15
813.811	233.3
813.989	151.38
814.168	218.96
814.347	114.52
814.526	85.84
814.704	208.72
814.883	147.28
815.062	122.71
815.24	202.58
815.419	100.18
815.598	137.04
815.776	102.23
815.955	194.39
816.133	69.46
816.312	132.95
816.49	116.56
816.669	161.62
816.847	96.08
817.026	155.47
817.204	83.8
817.383	126.8
817.561	124.76
817.74	190.29
817.918	194.39
818.097	98.13
818.275	157.52
818.453	139.09
818.632	149.33
818.81	118.61
818.988	87.89
819.167	104.28
819.345	81.75
819.523	100.18
819.701	98.13
819.879	139.09
820.058	182.1
820.236	75.6
820.414	130.9
820.592	216.91
820.77	173.91
820.948	157.52
821.127	34.64
821.305	83.8
821.483	63.32
821.661	173.91
821.839	186.19
822.017	116.56
822.195	112.47
822.373	124.76
822.551	65.36
822.729	116.56
822.907	75.6
823.085	118.61
823.262	155.47
823.44	114.52
823.618	18.26
823.796	153.43
823.974	36.69
824.152	79.7
824.329	100.18
824.507	161.62
824.685	114.52
824.863	83.8
825.04	100.18
825.218	108.37
825.396	85.84
825.574	34.64
825.751	118.61
825.929	128.85
826.107	51.03
826.284	100.18
826.462	67.41
826.639	118.61
826.817	24.4
826.994	128.85
827.172	91.99
827.349	192.34
827.527	128.85
827.704	94.04
827.882	59.22
828.059	59.22
828.237	91.99
828.414	122.71
828.591	83.8
828.769	135
828.946	26.45
829.124	120.66
829.301	91.99
829.478	118.61
829.655	149.33
829.833	71.51
830.01	65.36
830.187	124.76
830.364	118.61
830.542	120.66
830.719	124.76
830.896	67.41
831.073	132.95
831.25	141.14
831.427	161.62
831.604	96.08
831.782	14.17
831.959	75.6
832.136	77.65
832.313	87.89
832.49	67.41
832.667	112.47
832.844	46.93
833.021	116.56
833.198	-2.22
833.374	36.69
833.551	79.7
833.728	124.76
833.905	124.76
834.082	77.65
834.259	3.93
834.436	141.14
834.612	55.12
834.789	124.76
834.966	87.89
835.143	165.71
835.319	-10.41
835.496	42.84
835.673	67.41
835.85	100.18
836.026	75.6
836.203	122.71
836.38	42.84
836.556	75.6
836.733	59.22
836.909	178
837.086	26.45
837.262	94.04
837.439	42.84
837.616	83.8
837.792	44.88
837.968	100.18
838.145	63.32
838.321	-20.65
838.498	149.33
838.674	69.46
838.851	91.99
839.027	59.22
839.203	57.17
839.38	63.32
839.556	46.93
839.732	87.89
839.909	59.22
840.085	83.8
840.261	42.84
840.437	10.07
840.614	36.69
840.79	147.28
840.966	124.76
841.142	36.69
841.318	26.45
841.494	91.99
841.671	112.47
841.847	12.12
842.023	26.45
842.199	55.12
842.375	85.84
842.551	77.65
842.727	-55.47
842.903	89.94
843.079	51.03
843.255	145.24
843.431	51.03
843.607	91.99
843.783	1.88
843.959	96.08
844.134	34.64
844.31	81.75
844.486	75.6
844.662	89.94
844.838	89.94
845.013	112.47
845.189	18.26
845.365	-0.17
845.541	10.07
845.716	102.23
845.892	96.08
846.068	10.07
846.244	42.84
846.419	-20.65
846.595	-20.65
846.77	44.88
846.946	30.55
847.122	-71.85
847.297	69.46
847.473	124.76
847.648	87.89
847.824	94.04
847.999	-20.65
848.175	34.64
848.35	81.75
848.526	59.22
848.701	81.75
848.876	89.94
849.052	48.98
849.227	-6.31
849.403	55.12
849.578	14.17
849.753	59.22
849.929	59.22
850.104	63.32
850.279	46.93
850.454	-51.37
850.63	63.32
850.805	-6.31
850.98	-39.08
851.155	-14.51
851.33	-22.7
851.505	-10.41
851.681	110.42
851.856	-12.46
852.031	26.45
852.206	61.27
852.381	12.12
852.556	53.08
852.731	34.64
852.906	61.27
853.081	16.21
853.256	120.66
853.431	77.65
853.606	3.93
853.781	-28.84
853.956	-30.89
854.131	28.5
854.305	42.84
854.48	18.26
854.655	-12.46
854.83	-51.37
855.005	-63.66
855.18	28.5
855.354	-4.27
855.529	51.03
855.704	-2.22
855.879	12.12
856.053	42.84
856.228	-6.31
856.403	65.36
856.577	1.88
856.752	-14.51
856.926	16.21
857.101	73.56
857.276	46.93
857.45	51.03
857.625	71.51
857.799	42.84
857.974	59.22
858.148	26.45
858.323	75.6
858.497	14.17
858.672	-14.51
858.846	-12.46
859.02	59.22
859.195	-28.84
859.369	30.55
859.543	42.84
859.718	-37.03
859.892	91.99
860.066	-34.99
860.241	38.74
860.415	79.7
860.589	34.64
860.763	-55.47
860.938	-14.51
861.112	59.22
861.286	46.93
861.46	51.03
861.634	75.6
861.808	55.12
861.982	26.45
862.157	55.12
862.331	-14.51
862.505	-12.46
862.679	-43.18
862.853	75.6
863.027	-26.79
863.201	26.45
863.375	-51.37
863.549	-47.27
863.722	16.21
863.896	104.28
864.07	-59.56
864.244	-6.31
864.418	22.36
864.592	53.08
864.766	18.26
864.939	53.08
865.113	-37.03
865.287	67.41
865.461	-22.7
865.634	-16.55
865.808	1.88
865.982	63.32
866.156	-45.23
866.329	-47.27
866.503	26.45
866.676	51.03
866.85	18.26
867.024	-18.6
867.197	69.46
867.371	24.4
867.544	10.07
867.718	10.07
867.891	67.41
868.065	1.88
868.238	-30.89
868.412	38.74
868.585	-8.36
868.759	36.69
868.932	1.88
869.105	-71.85
869.279	-4.27
869.452	-47.27
869.625	53.08
869.799	-4.27
869.972	-77.99
870.145	-4.27
870.319	32.6
870.492	42.84
870.665	-6.31
870.838	-39.08
871.011	-26.79
871.185	-24.75
871.358	-34.99
871.531	-80.04
871.704	-12.46
871.877	63.32
872.05	3.93
872.223	-45.23
872.396	53.08
872.569	12.12
872.742	-53.42
872.915	83.8
873.088	-51.37
873.261	3.93
873.434	65.36
873.607	-61.61
873.78	51.03
873.953	-45.23
874.126	-26.79
874.299	83.8
874.471	1.88
874.644	73.56
874.817	83.8
874.99	61.27
875.163	30.55
875.335	20.31
875.508	-63.66
875.681	114.52
875.853	-39.08
876.026	-4.27
876.199	1.88
876.371	-4.27
876.544	1.88
876.717	36.69
876.889	-26.79
877.062	-26.79
877.234	-37.03
877.407	-2.22
877.579	20.31
877.752	42.84
877.924	3.93
878.097	-6.31
878.269	28.5
878.442	-18.6
878.614	-16.55
878.786	-6.31
878.959	42.84
879.131	67.41
879.303	-63.66
879.476	10.07
879.648	53.08
879.82	85.84
879.993	-4.27
880.165	59.22
880.337	18.26
880.509	42.84
880.681	-12.46
880.854	20.31
881.026	-14.51
881.198	28.5
881.37	-22.7
881.542	-45.23
881.714	-12.46
881.886	3.93
882.058	-63.66
882.23	26.45
882.402	18.26
882.574	-6.31
882.746	3.93
882.918	51.03
883.09	3.93
883.262	1.88
883.434	-6.31
883.606	-55.47
883.778	-28.84
883.95	51.03
884.122	-10.41
884.293	30.55
884.465	-20.65
884.637	16.21
884.809	46.93
884.98	38.74
885.152	36.69
885.324	18.26
885.496	1.88
885.667	-28.84
885.839	36.69
886.011	91.99
886.182	-22.7
886.354	18.26
886.525	-18.6
886.697	-51.37
886.869	-34.99
887.04	51.03
887.212	32.6
887.383	69.46
887.555	-14.51
887.726	42.84
887.897	-49.32
888.069	18.26
888.24	79.7
888.412	53.08
888.583	1.88
888.754	-39.08
888.926	-20.65
889.097	-53.42
889.268	-26.79
889.44	87.89
889.611	-43.18
889.782	10.07
889.953	-30.89
890.125	44.88
890.296	-94.38
890.467	-18.6
890.638	5.97
890.809	-51.37
890.98	-41.13
891.151	59.22
891.323	67.41
891.494	18.26
891.665	12.12
891.836	-30.89
892.007	-75.95
892.178	91.99
892.349	-2.22
892.52	-32.94
892.691	-63.66
892.862	10.07
893.032	42.84
893.203	-45.23
893.374	67.41
893.545	-6.31
893.716	3.93
893.887	-10.41
894.057	10.07
894.228	-47.27
894.399	-51.37
894.57	-51.37
894.74	26.45
894.911	10.07
895.082	3.93
895.253	-71.85
895.423	55.12
895.594	34.64
895.764	24.4
895.935	-18.6
896.106	-8.36
896.276	-61.61
896.447	63.32
896.617	34.64
896.788	-10.41
896.958	1.88
897.129	-4.27
897.299	1.88
897.47	71.51
897.64	55.12
897.81	51.03
897.981	-6.31
898.151	-2.22
898.322	85.84
898.492	-2.22
898.662	-69.8
898.832	-41.13
899.003	10.07
899.173	-45.23
899.343	34.64
899.513	-67.75
