Data from USB4F104151__224__14-33-54-890.txt Node

Date: Thu Mar 13 14:33:54 EDT 2025
User: louis
Spectrometer: USB4F10415
Trigger mode: 4
Integration Time (sec): 2.500000E-2
Scans to average: 1
Electric dark correction enabled: true
Nonlinearity correction enabled: false
Boxcar width: 0
XAxis mode: Wavelengths
Number of Pixels in Spectrum: 3648
>>>>>Begin Spectral Data<<<<<
178.204	-197.12
178.424	-197.12
178.644	-197.12
178.864	-121.34
179.084	-156.16
179.304	-61.95
179.524	-55.81
179.744	22.02
179.964	9.73
180.184	-49.66
180.404	28.16
180.624	60.93
180.844	24.06
181.064	-43.52
181.283	50.69
181.503	-27.14
181.723	42.5
181.943	1.54
182.163	9.73
182.383	52.74
182.602	54.78
182.822	89.6
183.042	-41.47
183.262	65.02
183.482	-14.85
183.701	-33.28
183.921	91.65
184.141	24.06
184.361	11.78
184.58	15.87
184.8	5.63
185.02	97.79
185.239	138.75
185.459	-33.28
185.679	32.26
185.898	7.68
186.118	36.35
186.338	-33.28
186.557	3.58
186.777	24.06
186.997	22.02
187.216	-20.99
187.436	110.08
187.655	75.26
187.875	81.41
188.095	-2.56
188.314	36.35
188.534	91.65
188.753	9.73
188.973	38.4
189.192	13.82
189.412	26.11
189.631	48.64
189.851	19.97
190.07	24.06
190.29	73.21
190.509	17.92
190.729	-45.57
190.948	122.37
191.168	196.09
191.387	24.06
191.607	40.45
191.826	-8.7
192.045	40.45
192.265	36.35
192.484	87.55
192.704	-0.51
192.923	-0.51
193.142	130.56
193.362	77.31
193.581	40.45
193.8	28.16
194.02	73.21
194.239	32.26
194.458	32.26
194.678	24.06
194.897	-2.56
195.116	15.87
195.335	105.98
195.555	81.41
195.774	83.45
195.993	22.02
196.212	-8.7
196.432	13.82
196.651	-14.85
196.87	62.98
197.089	120.32
197.308	54.78
197.528	44.54
197.747	1.54
197.966	54.78
198.185	71.17
198.404	42.5
198.623	56.83
198.842	85.5
199.062	60.93
199.281	22.02
199.5	-16.9
199.719	65.02
199.938	42.5
200.157	52.74
200.376	17.92
200.595	75.26
200.814	32.26
201.033	7.68
201.252	73.21
201.471	-14.85
201.69	26.11
201.909	7.68
202.128	81.41
202.347	34.3
202.566	65.02
202.785	28.16
203.004	26.11
203.223	101.89
203.442	50.69
203.661	-64
203.879	73.21
204.098	40.45
204.317	48.64
204.536	56.83
204.755	9.73
204.974	44.54
205.193	28.16
205.411	167.42
205.63	48.64
205.849	32.26
206.068	-33.28
206.287	54.78
206.505	58.88
206.724	44.54
206.943	-23.04
207.162	19.97
207.381	-10.75
207.599	-31.23
207.818	17.92
208.037	101.89
208.255	-0.51
208.474	-33.28
208.693	73.21
208.911	32.26
209.13	34.3
209.349	48.64
209.567	73.21
209.786	34.3
210.005	15.87
210.223	-31.23
210.442	-61.95
210.661	65.02
210.879	40.45
211.098	-14.85
211.316	7.68
211.535	44.54
211.753	-6.66
211.972	38.4
212.191	-31.23
212.409	-6.66
212.628	83.45
212.846	-4.61
213.065	-0.51
213.283	108.03
213.502	22.02
213.72	79.36
213.938	79.36
214.157	-8.7
214.375	24.06
214.594	26.11
214.812	11.78
215.031	36.35
215.249	-2.56
215.467	56.83
215.686	110.08
215.904	114.17
216.122	75.26
216.341	81.41
216.559	-33.28
216.778	58.88
216.996	69.12
217.214	-51.71
217.432	46.59
217.651	67.07
217.869	22.02
218.087	87.55
218.306	-14.85
218.524	40.45
218.742	-16.9
218.96	75.26
219.179	30.21
219.397	7.68
219.615	52.74
219.833	87.55
220.051	11.78
220.27	87.55
220.488	110.08
220.706	9.73
220.924	65.02
221.142	-39.42
221.36	-0.51
221.578	91.65
221.796	-66.05
222.015	105.98
222.233	-68.09
222.451	85.5
222.669	69.12
222.887	38.4
223.105	-12.8
223.323	1.54
223.541	-31.23
223.759	-0.51
223.977	24.06
224.195	101.89
224.413	36.35
224.631	54.78
224.849	-31.23
225.067	101.89
225.285	-16.9
225.503	13.82
225.721	-39.42
225.939	40.45
226.157	40.45
226.375	159.23
226.592	11.78
226.81	52.74
227.028	48.64
227.246	105.98
227.464	50.69
227.682	60.93
227.9	-33.28
228.117	15.87
228.335	-25.09
228.553	1.54
228.771	40.45
228.989	58.88
229.206	15.87
229.424	58.88
229.642	116.22
229.86	50.69
230.077	105.98
230.295	97.79
230.513	52.74
230.731	67.07
230.948	44.54
231.166	44.54
231.384	26.11
231.601	19.97
231.819	65.02
232.037	60.93
232.254	50.69
232.472	1.54
232.689	-16.9
232.907	62.98
233.125	-23.04
233.342	62.98
233.56	-0.51
233.777	58.88
233.995	3.58
234.213	105.98
234.43	79.36
234.648	42.5
234.865	-14.85
235.083	48.64
235.3	7.68
235.518	26.11
235.735	65.02
235.953	114.17
236.17	46.59
236.388	69.12
236.605	-0.51
236.822	48.64
237.04	-33.28
237.257	-29.18
237.475	-23.04
237.692	48.64
237.909	40.45
238.127	65.02
238.344	1.54
238.562	17.92
238.779	9.73
238.996	28.16
239.214	1.54
239.431	89.6
239.648	67.07
239.865	32.26
240.083	67.07
240.3	-25.09
240.517	48.64
240.735	77.31
240.952	40.45
241.169	32.26
241.386	103.93
241.603	17.92
241.821	-8.7
242.038	85.5
242.255	28.16
242.472	73.21
242.689	48.64
242.907	73.21
243.124	85.5
243.341	89.6
243.558	81.41
243.775	36.35
243.992	-80.38
244.209	28.16
244.426	73.21
244.643	89.6
244.86	-33.28
245.078	71.17
245.295	40.45
245.512	-16.9
245.729	24.06
245.946	50.69
246.163	93.69
246.38	101.89
246.597	-0.51
246.814	-6.66
247.031	40.45
247.248	48.64
247.464	48.64
247.681	-18.94
247.898	26.11
248.115	19.97
248.332	36.35
248.549	110.08
248.766	40.45
248.983	69.12
249.2	56.83
249.417	62.98
249.633	34.3
249.85	24.06
250.067	-23.04
250.284	112.13
250.501	40.45
250.717	52.74
250.934	-31.23
251.151	1.54
251.368	3.58
251.585	65.02
251.801	30.21
252.018	67.07
252.235	52.74
252.451	-25.09
252.668	19.97
252.885	58.88
253.102	40.45
253.318	73.21
253.535	-20.99
253.752	-49.66
253.968	-47.62
254.185	-16.9
254.401	-41.47
254.618	44.54
254.835	7.68
255.051	32.26
255.268	56.83
255.484	-25.09
255.701	9.73
255.917	32.26
256.134	65.02
256.351	83.45
256.567	-14.85
256.784	1.54
257	-25.09
257.217	124.41
257.433	103.93
257.65	128.51
257.866	11.78
258.082	-14.85
258.299	11.78
258.515	56.83
258.732	-74.24
258.948	13.82
259.165	24.06
259.381	19.97
259.597	32.26
259.814	105.98
260.03	-0.51
260.246	-0.51
260.463	67.07
260.679	44.54
260.895	-10.75
261.112	44.54
261.328	13.82
261.544	-39.42
261.761	114.17
261.977	-25.09
262.193	-57.86
262.409	32.26
262.626	93.69
262.842	-23.04
263.058	40.45
263.274	28.16
263.49	15.87
263.707	130.56
263.923	65.02
264.139	93.69
264.355	85.5
264.571	120.32
264.787	-8.7
265.004	161.28
265.22	11.78
265.436	15.87
265.652	17.92
265.868	1.54
266.084	60.93
266.3	52.74
266.516	-14.85
266.732	56.83
266.948	26.11
267.164	-8.7
267.38	9.73
267.596	50.69
267.812	101.89
268.028	91.65
268.244	-72.19
268.46	50.69
268.676	7.68
268.892	67.07
269.108	-72.19
269.324	44.54
269.54	-0.51
269.756	108.03
269.972	-10.75
270.188	42.5
270.403	-16.9
270.619	11.78
270.835	48.64
271.051	56.83
271.267	26.11
271.483	28.16
271.698	40.45
271.914	26.11
272.13	105.98
272.346	-41.47
272.562	44.54
272.777	48.64
272.993	3.58
273.209	-0.51
273.425	52.74
273.64	-8.7
273.856	62.98
274.072	-10.75
274.287	32.26
274.503	124.41
274.719	134.65
274.934	24.06
275.15	32.26
275.366	-41.47
275.581	-41.47
275.797	-12.8
276.012	81.41
276.228	15.87
276.444	40.45
276.659	-25.09
276.875	-16.9
277.09	56.83
277.306	38.4
277.521	81.41
277.737	-6.66
277.952	40.45
278.168	1.54
278.383	19.97
278.599	81.41
278.814	46.59
279.03	40.45
279.245	89.6
279.461	17.92
279.676	108.03
279.892	1.54
280.107	7.68
280.322	-4.61
280.538	91.65
280.753	15.87
280.969	58.88
281.184	-4.61
281.399	50.69
281.615	73.21
281.83	11.78
282.045	97.79
282.26	69.12
282.476	56.83
282.691	122.37
282.906	73.21
283.122	9.73
283.337	65.02
283.552	15.87
283.767	-49.66
283.983	19.97
284.198	-4.61
284.413	48.64
284.628	34.3
284.843	91.65
285.058	52.74
285.274	-0.51
285.489	91.65
285.704	42.5
285.919	77.31
286.134	75.26
286.349	105.98
286.564	22.02
286.779	87.55
286.995	24.06
287.21	-8.7
287.425	81.41
287.64	24.06
287.855	40.45
288.07	56.83
288.285	44.54
288.5	110.08
288.715	-94.72
288.93	-53.76
289.145	-16.9
289.36	11.78
289.575	52.74
289.79	52.74
290.004	83.45
290.219	40.45
290.434	-12.8
290.649	19.97
290.864	1.54
291.079	38.4
291.294	42.5
291.509	32.26
291.724	26.11
291.938	7.68
292.153	81.41
292.368	48.64
292.583	40.45
292.798	114.17
293.012	-37.38
293.227	-8.7
293.442	40.45
293.657	105.98
293.871	75.26
294.086	42.5
294.301	105.98
294.516	89.6
294.73	89.6
294.945	19.97
295.16	-8.7
295.374	67.07
295.589	50.69
295.804	56.83
296.018	24.06
296.233	81.41
296.447	116.22
296.662	42.5
296.877	108.03
297.091	28.16
297.306	-8.7
297.52	19.97
297.735	97.79
297.949	81.41
298.164	42.5
298.378	24.06
298.593	77.31
298.807	-37.38
299.022	42.5
299.236	148.99
299.451	13.82
299.665	15.87
299.88	97.79
300.094	32.26
300.309	48.64
300.523	58.88
300.737	48.64
300.952	114.17
301.166	69.12
301.381	17.92
301.595	-25.09
301.809	40.45
302.024	50.69
302.238	17.92
302.452	-23.04
302.667	56.83
302.881	40.45
303.095	56.83
303.309	56.83
303.524	-4.61
303.738	-0.51
303.952	50.69
304.166	85.5
304.381	-31.23
304.595	73.21
304.809	9.73
305.023	34.3
305.237	85.5
305.452	-61.95
305.666	116.22
305.88	50.69
306.094	1.54
306.308	116.22
306.522	91.65
306.736	50.69
306.95	77.31
307.164	-8.7
307.379	3.58
307.593	40.45
307.807	42.5
308.021	50.69
308.235	-29.18
308.449	-39.42
308.663	75.26
308.877	81.41
309.091	48.64
309.305	28.16
309.519	-29.18
309.733	17.92
309.947	34.3
310.161	50.69
310.374	-37.38
310.588	50.69
310.802	19.97
311.016	17.92
311.23	32.26
311.444	-0.51
311.658	-31.23
311.872	-6.66
312.085	73.21
312.299	52.74
312.513	97.79
312.727	52.74
312.941	-55.81
313.154	62.98
313.368	32.26
313.582	75.26
313.796	24.06
314.009	26.11
314.223	-0.51
314.437	42.5
314.651	114.17
314.864	9.73
315.078	40.45
315.292	28.16
315.505	-20.99
315.719	32.26
315.933	99.84
316.146	-14.85
316.36	17.92
316.573	26.11
316.787	83.45
317.001	146.94
317.214	11.78
317.428	46.59
317.641	56.83
317.855	26.11
318.068	32.26
318.282	-33.28
318.495	56.83
318.709	71.17
318.922	26.11
319.136	91.65
319.349	56.83
319.563	44.54
319.776	65.02
319.99	-18.94
320.203	73.21
320.417	73.21
320.63	-47.62
320.843	75.26
321.057	52.74
321.27	50.69
321.483	65.02
321.697	52.74
321.91	58.88
322.124	118.27
322.337	67.07
322.55	73.21
322.763	-6.66
322.977	48.64
323.19	24.06
323.403	93.69
323.617	17.92
323.83	99.84
324.043	83.45
324.256	24.06
324.469	73.21
324.683	42.5
324.896	-8.7
325.109	60.93
325.322	56.83
325.535	122.37
325.748	-20.99
325.962	81.41
326.175	71.17
326.388	105.98
326.601	73.21
326.814	26.11
327.027	138.75
327.24	75.26
327.453	-16.9
327.666	75.26
327.879	44.54
328.092	15.87
328.305	19.97
328.518	3.58
328.731	-6.66
328.944	75.26
329.157	105.98
329.37	-6.66
329.583	62.98
329.796	101.89
330.009	-16.9
330.222	44.54
330.435	44.54
330.648	42.5
330.861	32.26
331.073	75.26
331.286	36.35
331.499	67.07
331.712	-45.57
331.925	-29.18
332.138	67.07
332.35	32.26
332.563	30.21
332.776	77.31
332.989	67.07
333.202	32.26
333.414	36.35
333.627	130.56
333.84	65.02
334.053	77.31
334.265	34.3
334.478	81.41
334.691	89.6
334.903	32.26
335.116	5.63
335.329	24.06
335.541	126.46
335.754	124.41
335.966	50.69
336.179	58.88
336.392	50.69
336.604	-14.85
336.817	87.55
337.029	-8.7
337.242	32.26
337.454	85.5
337.667	44.54
337.88	91.65
338.092	9.73
338.305	56.83
338.517	40.45
338.729	73.21
338.942	105.98
339.154	40.45
339.367	67.07
339.579	32.26
339.792	56.83
340.004	83.45
340.217	17.92
340.429	69.12
340.641	9.73
340.854	1.54
341.066	28.16
341.278	122.37
341.491	118.27
341.703	48.64
341.915	151.04
342.128	54.78
342.34	73.21
342.552	28.16
342.764	-10.75
342.977	19.97
343.189	60.93
343.401	75.26
343.613	48.64
343.826	83.45
344.038	40.45
344.25	26.11
344.462	48.64
344.674	85.5
344.886	97.79
345.099	93.69
345.311	73.21
345.523	65.02
345.735	-0.51
345.947	5.63
346.159	75.26
346.371	56.83
346.583	46.59
346.795	40.45
347.007	77.31
347.219	118.27
347.431	85.5
347.643	40.45
347.855	44.54
348.067	108.03
348.279	77.31
348.491	58.88
348.703	105.98
348.915	1.54
349.127	7.68
349.339	17.92
349.551	24.06
349.763	71.17
349.975	48.64
350.187	28.16
350.399	105.98
350.61	1.54
350.822	56.83
351.034	56.83
351.246	19.97
351.458	7.68
351.669	73.21
351.881	171.52
352.093	65.02
352.305	40.45
352.517	56.83
352.728	130.56
352.94	42.5
353.152	44.54
353.363	-35.33
353.575	-14.85
353.787	67.07
353.999	75.26
354.21	89.6
354.422	42.5
354.633	-18.94
354.845	48.64
355.057	24.06
355.268	32.26
355.48	42.5
355.692	114.17
355.903	28.16
356.115	-33.28
356.326	11.78
356.538	99.84
356.749	40.45
356.961	91.65
357.172	58.88
357.384	32.26
357.595	212.48
357.807	56.83
358.018	-6.66
358.23	48.64
358.441	142.85
358.653	97.79
358.864	89.6
359.075	30.21
359.287	65.02
359.498	81.41
359.709	81.41
359.921	5.63
360.132	79.36
360.344	95.74
360.555	62.98
360.766	7.68
360.977	19.97
361.189	179.71
361.4	1.54
361.611	40.45
361.823	93.69
362.034	83.45
362.245	28.16
362.456	-4.61
362.667	62.98
362.879	24.06
363.09	58.88
363.301	3.58
363.512	65.02
363.723	56.83
363.935	60.93
364.146	42.5
364.357	67.07
364.568	65.02
364.779	32.26
364.99	126.46
365.201	34.3
365.412	69.12
365.623	62.98
365.834	44.54
366.045	114.17
366.256	73.21
366.467	136.7
366.678	54.78
366.889	114.17
367.1	83.45
367.311	40.45
367.522	38.4
367.733	138.75
367.944	81.41
368.155	101.89
368.366	132.61
368.577	108.03
368.788	97.79
368.999	24.06
369.209	83.45
369.42	146.94
369.631	40.45
369.842	24.06
370.053	-16.9
370.264	114.17
370.474	19.97
370.685	101.89
370.896	89.6
371.107	56.83
371.317	134.65
371.528	15.87
371.739	17.92
371.95	56.83
372.16	136.7
372.371	-39.42
372.582	67.07
372.792	97.79
373.003	42.5
373.214	48.64
373.424	56.83
373.635	19.97
373.846	40.45
374.056	54.78
374.267	89.6
374.477	97.79
374.688	30.21
374.898	110.08
375.109	89.6
375.319	56.83
375.53	32.26
375.74	114.17
375.951	60.93
376.161	97.79
376.372	26.11
376.582	101.89
376.793	75.26
377.003	36.35
377.214	81.41
377.424	87.55
377.635	91.65
377.845	36.35
378.055	30.21
378.266	97.79
378.476	26.11
378.686	34.3
378.897	75.26
379.107	97.79
379.317	93.69
379.528	3.58
379.738	69.12
379.948	58.88
380.158	85.5
380.369	48.64
380.579	97.79
380.789	34.3
380.999	118.27
381.21	83.45
381.42	122.37
381.63	-4.61
381.84	89.6
382.05	44.54
382.261	32.26
382.471	42.5
382.681	58.88
382.891	103.93
383.101	56.83
383.311	-0.51
383.521	138.75
383.731	54.78
383.941	83.45
384.151	3.58
384.361	89.6
384.571	-31.23
384.781	52.74
384.991	77.31
385.201	110.08
385.411	126.46
385.621	7.68
385.831	17.92
386.041	60.93
386.251	89.6
386.461	122.37
386.671	30.21
386.881	56.83
387.091	-12.8
387.301	114.17
387.511	73.21
387.72	130.56
387.93	36.35
388.14	-8.7
388.35	128.51
388.56	101.89
388.769	122.37
388.979	15.87
389.189	48.64
389.399	77.31
389.609	32.26
389.818	99.84
390.028	146.94
390.238	67.07
390.447	97.79
390.657	46.59
390.867	52.74
391.076	97.79
391.286	56.83
391.496	105.98
391.705	42.5
391.915	69.12
392.125	151.04
392.334	87.55
392.544	140.8
392.753	58.88
392.963	11.78
393.172	114.17
393.382	48.64
393.591	192
393.801	130.56
394.01	130.56
394.22	155.13
394.429	91.65
394.639	95.74
394.848	108.03
395.058	97.79
395.267	151.04
395.477	101.89
395.686	97.79
395.895	187.9
396.105	239.1
396.314	114.17
396.524	85.5
396.733	171.52
396.942	169.47
397.152	77.31
397.361	97.79
397.57	114.17
397.78	179.71
397.989	114.17
398.198	183.81
398.407	146.94
398.617	99.84
398.826	126.46
399.035	65.02
399.244	177.66
399.453	114.17
399.663	134.65
399.872	77.31
400.081	146.94
400.29	128.51
400.499	110.08
400.708	93.69
400.917	153.09
401.127	175.61
401.336	140.8
401.545	220.67
401.754	110.08
401.963	206.33
402.172	108.03
402.381	73.21
402.59	138.75
402.799	194.05
403.008	114.17
403.217	196.09
403.426	124.41
403.635	151.04
403.844	167.42
404.053	155.13
404.262	175.61
404.471	237.05
404.68	206.33
404.888	163.33
405.097	130.56
405.306	226.81
405.515	214.52
405.724	194.05
405.933	253.44
406.142	206.33
406.35	239.1
406.559	228.86
406.768	286.2
406.977	312.83
407.185	226.81
407.394	286.2
407.603	212.48
407.812	269.82
408.02	314.88
408.229	298.49
408.438	255.48
408.646	302.59
408.855	312.83
409.064	421.37
409.272	353.79
409.481	329.21
409.69	310.78
409.898	398.84
410.107	478.71
410.315	419.32
410.524	421.37
410.733	411.13
410.941	452.09
411.15	513.53
411.358	437.75
411.567	515.58
411.775	581.11
411.984	556.54
412.192	560.63
412.401	525.82
412.609	607.73
412.818	706.04
413.026	726.52
413.234	724.47
413.443	730.61
413.651	663.03
413.86	720.37
414.068	851.44
414.276	830.96
414.485	720.37
414.693	921.07
414.901	998.9
415.11	835.06
415.318	878.07
415.526	970.23
415.734	945.65
415.943	982.51
416.151	1252.84
416.359	1121.77
416.567	1107.44
416.776	1197.55
416.984	1250.8
417.192	1287.66
417.4	1293.8
417.608	1340.91
417.817	1392.11
418.025	1508.84
418.233	1547.75
418.441	1465.83
418.649	1621.48
418.857	1588.71
419.065	1834.47
419.273	1680.87
419.481	1869.28
419.689	1883.62
419.897	1983.97
420.105	1951.2
420.313	2043.36
420.521	2055.65
420.729	2321.88
420.937	2065.89
421.145	2362.84
421.353	2555.35
421.561	2457.05
421.769	2547.16
421.977	2762.2
422.185	2778.58
422.393	2864.6
422.601	2997.71
422.809	2983.38
423.017	3079.63
423.224	3145.17
423.432	3362.25
423.64	3309.01
423.848	3532.23
424.056	3499.47
424.263	3702.22
424.471	3761.61
424.679	3853.77
424.887	4025.79
425.094	4152.77
425.302	4068.8
425.51	4357.57
425.718	4441.53
425.925	4562.36
426.133	4767.16
426.341	5002.68
426.548	5115.31
426.756	5029.3
426.964	5258.67
427.171	5340.59
427.379	5803.43
427.586	5795.24
427.794	5991.84
428.001	6217.12
428.209	6520.22
428.417	6403.49
428.624	6661.53
428.832	6817.18
429.039	6862.23
429.247	6864.28
429.454	7556.49
429.662	7978.37
429.869	7308.69
430.076	7785.87
430.284	7724.43
430.491	7988.61
430.699	8494.46
430.906	8404.35
431.114	8543.61
431.321	8951.16
431.528	9248.11
431.736	9624.94
431.943	10151.27
432.15	10046.82
432.358	10034.53
432.565	10681.69
432.772	10304.87
432.979	10966.36
433.187	11154.77
433.394	11103.57
433.601	11988.3
433.808	12045.64
434.016	11889.99
434.223	12248.39
434.43	13405.49
434.637	13010.23
434.844	13724.97
435.052	13901.1
435.259	13757.74
435.466	13929.77
435.673	13864.24
435.88	14843.17
436.087	15598.87
436.294	15475.99
436.501	15142.17
436.708	15340.82
436.915	15899.92
437.122	16653.57
437.329	16874.75
437.537	17036.54
437.743	17306.87
437.95	17276.15
438.157	18124.01
438.364	18781.41
438.571	18844.9
438.778	18910.43
438.985	20374.73
439.192	19840.21
439.399	20090.06
439.606	19926.22
439.813	21128.38
440.02	22324.4
440.227	21816.5
440.433	21507.26
440.64	22490.28
440.847	22099.12
441.054	22717.61
441.261	24429.71
441.467	23788.69
441.674	24310.93
441.881	25093.25
442.088	25201.79
442.294	24949.89
442.501	25644.15
442.708	26311.79
442.914	27309.15
443.121	27870.29
443.328	27485.28
443.534	29039.68
443.741	28673.1
443.948	28275.79
444.154	30491.69
444.361	30143.54
444.568	30288.95
444.774	30530.61
444.981	30919.72
445.187	31808.54
445.394	33057.8
445.6	32377.87
445.807	35769.31
446.013	33723.39
446.22	34575.34
446.426	36242.39
446.633	36453.33
446.839	37037
447.046	35820.51
447.252	38212.54
447.459	38024.12
447.665	37649.35
447.871	39330.73
448.078	41259.91
448.284	39123.88
448.491	40100.76
448.697	41667.46
448.903	42390.39
449.11	42625.91
449.316	41733
449.522	42627.96
449.728	43336.55
449.935	43996
450.141	44071.78
450.347	44976.98
450.553	43406.19
450.76	44292.96
450.966	45617.99
451.172	44946.26
451.378	46345.02
451.584	45216.59
451.791	46361.4
451.997	45902.66
452.203	46762.81
452.409	46955.32
452.615	46467.9
452.821	44872.53
453.027	44534.62
453.233	46680.89
453.44	45159.25
453.646	45577.03
453.852	45124.43
454.058	46162.75
454.264	44278.62
454.47	45812.55
454.676	44407.64
454.882	46076.74
455.088	42146.68
455.294	42806.13
455.5	43475.82
455.705	43813.73
455.911	42369.91
456.117	41329.55
456.323	41143.18
456.529	38761.39
456.735	40309.66
456.941	39283.62
457.147	38794.16
457.352	37583.81
457.558	36713.42
457.764	37295.05
457.97	36301.78
458.176	35468.26
458.381	35779.55
458.587	33752.06
458.793	33743.87
458.999	32199.7
459.204	34649.07
459.41	33432.58
459.616	31390.75
459.821	31147.04
460.027	31079.46
460.233	30348.34
460.438	29320.26
460.644	29232.19
460.85	28058.71
461.055	27296.86
461.261	27425.89
461.466	25179.26
461.672	24663.18
461.878	26281.07
462.083	24847.49
462.289	24276.11
462.494	23757.97
462.7	22903.97
462.905	22060.21
463.111	23291.04
463.316	23194.78
463.522	22795.43
463.727	22637.73
463.932	22733.99
464.138	22295.72
464.343	22512.81
464.549	21662.9
464.754	22574.25
464.959	22459.56
465.165	22357.16
465.37	21150.91
465.575	20606.15
465.781	21589.17
465.986	21570.74
466.191	20964.54
466.397	20360.39
466.602	19369.18
466.807	20110.54
467.012	19948.75
467.218	20178.12
467.423	19774.67
467.628	20133.07
467.833	20747.46
468.038	19981.52
468.244	19508.44
468.449	19854.55
468.654	19633.36
468.859	19240.15
469.064	19193.05
469.269	18636
469.474	18724.07
469.679	18896.1
469.885	18291.94
470.09	18728.16
470.295	18337
470.5	17718.51
470.705	18177.26
470.91	17710.32
471.115	17782
471.32	17900.78
471.525	17513.72
471.73	17478.9
471.935	17079.55
472.139	16684.29
472.344	16870.65
472.549	16610.56
472.754	16878.85
472.959	16164.11
473.164	16067.85
473.369	15803.66
473.574	16289.03
473.778	16098.57
473.983	15682.83
474.188	15836.43
474.393	15166.74
474.598	15383.83
474.802	15011.1
475.007	14941.47
475.212	15019.29
475.417	14290.21
475.621	14495.01
475.826	14517.54
476.031	14200.1
476.235	13778.22
476.44	14271.78
476.645	13780.27
476.849	13870.38
477.054	13817.13
477.259	13296.95
477.463	13464.88
477.668	13163.83
477.872	13516.08
478.077	13172.02
478.282	12840.25
478.486	12680.51
478.691	12342.6
478.895	12651.84
479.1	12582.21
479.304	12483.91
479.509	12113.22
479.713	12473.67
479.918	12129.61
480.122	12014.92
480.326	12379.46
480.531	11971.91
480.735	11988.3
480.94	11806.03
481.144	12070.22
481.348	11677.01
481.553	11879.75
481.757	11552.08
481.961	11722.06
482.166	11920.71
482.37	11691.34
482.574	11474.26
482.778	11443.54
482.983	11797.84
483.187	11752.78
483.391	11652.43
483.595	11533.65
483.8	11541.84
484.004	11588.94
484.208	11711.82
484.412	11552.08
484.616	11435.35
484.821	11615.57
485.025	11177.3
485.229	11750.73
485.433	11412.82
485.637	11730.25
485.841	11345.23
486.045	11668.81
486.249	11840.84
486.453	11439.44
486.657	11580.75
486.861	11648.33
487.065	11441.49
487.269	11607.37
487.473	11255.12
487.677	11398.48
487.881	11738.44
488.085	11470.16
488.289	11281.75
488.493	11435.35
488.697	11820.36
488.901	11582.8
489.105	11533.65
489.309	11656.53
489.512	11498.83
489.716	11531.6
489.92	11531.6
490.124	11459.92
490.328	11789.64
490.531	11593.04
490.735	11969.87
490.939	11588.94
491.143	11648.33
491.346	11709.77
491.55	11918.67
491.754	12059.98
491.958	11879.75
492.161	11791.69
492.365	11838.8
492.569	11892.04
492.772	12019.02
492.976	12150.09
493.18	12131.65
493.383	12225.86
493.587	12287.3
493.79	12326.21
493.994	12328.26
494.197	12457.28
494.401	12477.76
494.605	12762.43
494.808	12844.35
495.012	12739.9
495.215	12993.85
495.419	12893.5
495.622	12756.29
495.825	13129.02
496.029	13002.04
496.232	13417.78
496.436	13335.86
496.639	13432.12
496.843	13614.38
497.046	13847.85
497.249	13864.24
497.453	14097.7
497.656	14214.44
497.859	14015.79
498.063	14230.82
498.266	14697.76
498.469	14519.59
498.673	14585.12
498.876	14779.68
499.079	15080.73
499.282	14900.51
499.485	15277.33
499.689	15629.59
499.892	15523.09
500.095	15811.85
500.298	15942.92
500.501	15672.59
500.705	16303.37
500.908	16373
501.111	16741.63
501.314	16661.76
501.517	16809.22
501.72	17136.89
501.923	16809.22
502.126	17526
502.329	17632.5
502.532	17894.64
502.735	17796.34
502.938	18261.23
503.141	18011.37
503.344	18447.59
503.547	18263.27
503.75	18668.77
503.953	18896.1
504.156	19162.33
504.359	19281.11
504.562	19356.89
504.765	20239.56
504.968	19954.9
505.17	20110.54
505.373	20350.15
505.576	20577.48
505.779	20837.57
505.982	20917.44
506.185	21327.03
506.387	21525.69
506.59	21587.13
506.793	21853.36
506.996	21984.43
507.198	22514.86
507.401	22391.98
507.604	22355.11
507.807	22942.88
508.009	23155.87
508.212	23168.16
508.415	23803.03
508.617	23860.37
508.82	24173.71
509.022	23856.28
509.225	24593.54
509.428	24679.56
509.63	24915.08
509.833	24898.69
510.035	25683.06
510.238	25562.23
510.44	25982.07
510.643	26334.32
510.845	26418.28
511.048	26219.63
511.25	26707.05
511.453	26909.8
511.655	27835.48
511.858	27602.01
512.06	27499.61
512.262	28124.24
512.465	28054.61
512.667	28599.37
512.87	28906.57
513.072	28642.38
513.274	29176.9
513.477	29948.98
513.679	29672.51
513.881	29670.46
514.084	29920.31
514.286	30448.69
514.488	30594.09
514.69	31226.92
514.893	31355.94
515.095	31329.31
515.297	31831.07
515.499	32119.83
515.701	32101.4
515.904	32828.43
516.106	32820.24
516.308	33252.36
516.51	33610.75
516.712	33514.5
516.914	33436.67
517.116	34018.3
517.318	33950.71
517.52	34452.47
517.722	34339.83
517.925	35060.71
518.127	35673.06
518.329	35754.97
518.531	35523.55
518.733	36381.65
518.935	36352.98
519.136	36539.35
519.338	37026.76
519.54	36875.21
519.742	37557.19
519.944	37798.85
520.146	37931.97
520.348	38306.74
520.55	38491.06
520.752	38448.05
520.954	38996.91
521.155	38325.18
521.357	39097.26
521.559	39105.45
521.761	39521.19
521.963	40004.51
522.164	39685.03
522.366	39838.62
522.568	40328.09
522.77	40377.24
522.971	41554.82
523.173	40526.74
523.375	40772.5
523.576	40651.67
523.778	41259.91
523.98	41665.41
524.181	41612.17
524.383	41235.34
524.584	41866.11
524.786	41823.11
524.988	41966.46
525.189	41999.23
525.391	42019.71
525.592	42455.93
525.794	42773.36
525.995	42685.3
526.197	42355.58
526.398	42759.03
526.6	43035.5
526.801	42883.95
527.003	42969.97
527.204	42904.43
527.406	43633.51
527.607	43260.78
527.808	43643.75
528.01	42785.65
528.211	43291.5
528.412	43537.26
528.614	43623.27
528.815	43561.83
529.016	43864.93
529.218	43539.3
529.419	43789.16
529.62	43873.12
529.822	43373.42
530.023	44012.38
530.224	43897.7
530.425	43594.6
530.626	43101.04
530.828	43500.39
531.029	44548.95
531.23	43426.67
531.431	43783.01
531.632	44004.19
531.833	43590.5
532.035	44114.78
532.236	43764.58
532.437	43774.82
532.638	43418.47
532.839	43731.81
533.04	43668.33
533.241	43201.39
533.442	43848.55
533.643	43797.35
533.844	43918.18
534.045	43441
534.246	43156.33
534.447	43649.89
534.648	43266.92
534.849	43570.02
535.05	43074.41
535.251	43027.31
535.451	43193.2
535.652	43234.16
535.853	43164.53
536.054	43158.38
536.255	43084.65
536.456	43123.57
536.657	43498.34
536.857	43172.72
537.058	42869.62
537.259	43094.89
537.46	42816.37
537.66	42478.46
537.861	42560.37
538.062	42828.66
538.263	42840.95
538.463	42408.82
538.664	42752.88
538.865	42695.54
539.065	42648.44
539.266	42173.31
539.466	42632.05
539.667	42517.37
539.868	42918.77
540.068	42316.67
540.269	42531.7
540.469	42963.82
540.67	42183.55
540.87	42290.04
541.071	42285.95
541.271	42687.35
541.472	42439.54
541.672	42290.04
541.873	42201.98
542.073	41722.76
542.274	42769.27
542.474	42410.87
542.675	41905.02
542.875	42347.39
543.075	42066.81
543.276	41626.5
543.476	42316.67
543.676	41950.08
543.877	42128.25
544.077	41976.7
544.277	41974.66
544.478	41810.82
544.678	42265.47
544.878	42124.16
545.078	41913.22
545.279	41810.82
545.479	41651.08
545.679	42029.95
545.879	41683.84
546.079	42017.66
546.28	41689.99
546.48	41653.12
546.68	41986.94
546.88	42064.77
547.08	42013.57
547.28	41741.19
547.48	41599.88
547.68	41741.19
547.88	41456.52
548.081	42005.38
548.281	41712.52
548.481	41733
548.681	42134.4
548.881	41909.12
549.081	41888.64
549.28	41575.3
549.48	42099.58
549.68	42021.76
549.88	42177.4
550.08	41595.78
550.28	42036.09
550.48	41898.88
550.68	42292.09
550.88	41651.08
551.08	41956.22
551.279	41749.38
551.479	41747.33
551.679	41948.03
551.879	42136.45
552.079	41978.75
552.278	42091.39
552.478	41995.14
552.678	41620.36
552.878	42013.57
553.077	41796.48
553.277	41843.59
553.477	42201.98
553.676	42183.55
553.876	41970.56
554.076	41644.93
554.275	41847.68
554.475	41454.47
554.674	41816.96
554.874	42302.33
555.074	41972.61
555.273	42345.34
555.473	42251.13
555.672	41788.29
555.872	42148.73
556.071	41958.27
556.271	42298.23
556.47	41952.13
556.67	41778.05
556.869	41864.07
557.068	41956.22
557.268	41997.18
557.467	42120.06
557.667	42179.45
557.866	41761.67
558.065	41642.88
558.265	41773.95
558.464	41907.07
558.663	42167.16
558.863	41816.96
559.062	42572.66
559.261	41960.32
559.461	42287.99
559.66	41941.89
559.859	41874.31
560.058	42126.21
560.258	41747.33
560.457	42195.84
560.656	42079.1
560.855	41479.05
561.054	42046.33
561.253	41857.92
561.453	41978.75
561.652	41741.19
561.851	42011.52
562.05	41876.35
562.249	41542.53
562.448	41796.48
562.647	41978.75
562.846	42054.53
563.045	41911.17
563.244	41405.32
563.443	42165.12
563.642	41462.66
563.841	41671.56
564.04	41497.48
564.239	42009.47
564.438	41390.98
564.637	41661.32
564.836	41565.06
565.035	41124.75
565.234	41196.43
565.432	41298.83
565.631	41386.89
565.83	41366.41
566.029	41231.24
566.228	40792.98
566.427	40956.82
566.625	40973.2
566.824	40698.77
567.023	40713.11
567.222	40512.41
567.42	41286.54
567.619	41036.69
567.818	41048.97
568.016	40969.1
568.215	40792.98
568.414	40645.52
568.612	40569.75
568.811	40207.26
569.01	40448.92
569.208	39908.26
569.407	40594.32
569.605	40162.2
569.804	40356.76
570.002	39789.47
570.201	40022.94
570.4	39658.4
570.598	39629.73
570.797	39121.84
570.995	39863.2
571.193	39701.41
571.392	40018.85
571.59	39293.86
571.789	39183.27
571.987	39388.07
572.186	39195.56
572.384	39277.48
572.582	39435.17
572.781	39515.05
572.979	38491.06
573.177	38917.04
573.376	39189.42
573.574	38536.12
573.772	38736.82
573.971	38607.79
574.169	38155.19
574.367	38230.97
574.565	38605.75
574.763	38009.79
574.962	38013.88
575.16	37870.53
575.358	38400.95
575.556	37415.88
575.754	38003.64
575.952	37272.52
576.151	38058.94
576.349	37395.4
576.547	37030.86
576.745	37637.06
576.943	37313.48
577.141	37497.8
577.339	37090.25
577.537	37264.33
577.735	37047.24
577.933	36850.64
578.131	37235.66
578.329	36936.65
578.527	36367.32
578.725	36479.96
578.923	36738
579.121	36139.99
579.319	36629.46
579.516	36215.77
579.714	36264.92
579.912	36180.95
580.11	36053.98
580.308	36008.92
580.506	35908.57
580.704	35396.58
580.901	35900.38
581.099	35771.36
581.297	35242.98
581.495	35116.01
581.692	35455.97
581.89	35165.16
582.088	35253.22
582.285	34929.64
582.483	35068.9
582.681	35023.85
582.878	34976.75
583.076	34653.17
583.274	34857.96
583.471	34477.04
583.669	34477.04
583.866	34556.91
584.064	34673.65
584.262	34335.73
584.459	34569.2
584.657	34196.47
584.854	34515.95
585.052	33590.27
585.249	33823.74
585.447	33952.76
585.644	33520.64
585.841	33864.7
586.039	34018.3
586.236	33537.02
586.434	33498.11
586.631	33360.9
586.828	33158.15
587.026	33414.15
587.223	33633.28
587.42	33221.64
587.618	33389.57
587.815	32803.85
588.012	33039.37
588.21	32408.59
588.407	33106.95
588.604	32732.17
588.801	32508.94
588.999	33000.46
589.196	32664.59
589.393	32396.31
589.59	32521.23
589.787	31982.62
589.984	32308.24
590.182	31570.97
590.379	32082.97
590.576	32037.91
590.773	32148.5
590.97	31865.88
591.167	31781.92
591.364	31362.08
591.561	31781.92
591.758	31149.09
591.955	31421.47
592.152	31902.75
592.349	31155.24
592.546	31601.69
592.743	31712.28
592.94	30837.8
593.137	31290.4
593.334	31396.9
593.531	30639.15
593.727	31288.35
593.924	30968.87
594.121	31097.89
594.318	31028.26
594.515	30542.89
594.712	30508.08
594.908	30616.62
595.105	31020.07
595.302	30440.5
595.499	30805.03
595.696	30790.7
595.892	30741.55
596.089	30628.91
596.286	30420.02
596.482	30329.91
596.679	30379.06
596.876	30139.44
597.072	30209.08
597.269	30092.34
597.466	30037.05
597.662	30147.64
597.859	30053.43
598.055	30258.23
598.252	30088.24
598.448	30252.08
598.645	29869.11
598.841	29752.38
599.038	29908.02
599.234	29893.69
599.431	29660.22
599.627	29719.61
599.824	29895.74
600.02	29695.03
600.217	29951.03
600.413	29482.05
600.609	29203.52
600.806	29535.29
601.002	29709.37
601.198	29512.77
601.395	29373.5
601.591	29412.42
601.787	29406.27
601.984	29645.88
602.18	29512.77
602.376	29531.2
602.572	29543.49
602.769	29326.4
602.965	29246.53
603.161	29422.66
603.357	28947.53
603.553	29398.08
603.75	29221.95
603.946	29084.74
604.142	29264.96
604.338	29025.35
604.534	29262.91
604.73	28908.61
604.926	29215.81
605.122	29340.74
605.318	29183.04
605.514	28943.43
605.71	29299.78
605.906	28800.07
606.102	28955.72
606.298	29144.13
606.494	29338.69
606.69	29273.15
606.886	29197.38
607.082	28961.86
607.278	29310.02
607.474	29109.32
607.67	29553.73
607.866	28662.86
608.062	29283.39
608.257	29193.28
608.453	29154.37
608.649	29086.79
608.845	28644.43
609.041	29322.3
609.236	29248.58
609.432	29131.84
609.628	29275.2
609.824	28957.77
610.019	28941.38
610.215	29094.98
610.411	29381.7
610.606	29041.73
610.802	29156.42
610.998	28920.9
611.193	29494.33
611.389	29129.8
611.584	29166.66
611.78	28916.81
611.976	29178.95
612.171	29105.22
612.367	29076.55
612.562	29076.55
612.758	28910.66
612.953	28886.09
613.149	29353.02
613.344	29000.77
613.539	29238.34
613.735	28996.68
613.93	29064.26
614.126	28859.46
614.321	29291.59
614.517	29174.85
614.712	28970.05
614.907	29232.19
615.103	28916.81
615.298	28959.81
615.493	29482.05
615.688	28718.15
615.884	29764.67
616.079	28763.21
616.274	29205.57
616.47	28892.23
616.665	28900.42
616.86	28881.99
617.055	28972.1
617.25	28822.6
617.445	29262.91
617.641	28544.08
617.836	28757.07
618.031	28394.57
618.226	28990.53
618.421	28648.52
618.616	28834.89
618.811	28152.91
619.006	28810.31
619.201	27989.08
619.396	28318.8
619.591	27917.4
619.786	28275.79
619.981	28017.75
620.176	28236.88
620.371	27249.76
620.566	28167.25
620.761	27769.94
620.956	27612.25
621.151	27153.51
621.346	27595.87
621.541	26895.46
621.735	27538.52
621.93	27092.07
622.125	27212.9
622.32	26780.78
622.515	27255.9
622.709	26911.85
622.904	26846.31
623.099	26678.38
623.294	26498.16
623.488	26469.48
623.683	26377.33
623.878	25914.48
624.072	25916.53
624.267	25797.75
624.462	25787.51
624.656	25595
624.851	25703.54
625.046	25414.78
625.24	25250.94
625.435	24892.55
625.629	24951.94
625.824	24951.94
626.018	24923.27
626.213	24458.38
626.407	24333.45
626.602	24349.84
626.796	24542.35
626.991	24372.36
627.185	24439.95
627.38	23768.21
627.574	23915.67
627.768	23655.58
627.963	23587.99
628.157	23436.44
628.352	23397.53
628.546	22957.22
628.74	23553.18
628.935	23409.82
629.129	23184.54
629.323	22602.92
629.517	22639.78
629.712	22617.25
629.906	22453.42
630.1	21972.14
630.294	22330.54
630.489	21955.76
630.683	22285.48
630.877	21931.19
631.071	21873.84
631.265	21951.67
631.459	21920.95
631.653	21533.88
631.848	21576.89
632.042	21400.76
632.236	21279.93
632.43	21009.6
632.624	21120.19
632.818	20964.54
633.012	20894.91
633.206	20567.24
633.4	20757.7
633.594	20423.88
633.788	20509.9
633.982	20376.78
634.176	20462.79
634.369	20272.33
634.563	20178.12
634.757	19958.99
634.951	20110.54
635.145	19739.86
635.339	19770.58
635.533	19356.89
635.726	19416.28
635.92	19193.05
636.114	19160.28
636.308	19045.6
636.501	19205.34
636.695	19135.71
636.889	18869.47
637.083	18709.73
637.276	18541.8
637.47	18461.93
637.664	18554.08
637.857	18736.35
638.051	18646.24
638.244	18179.31
638.438	18025.71
638.632	17976.56
638.825	17831.15
639.019	17894.64
639.212	17730.8
639.406	17710.32
639.599	17282.3
639.793	17526
639.986	17095.93
640.18	17368.31
640.373	17104.12
640.567	17020.16
640.76	17134.84
640.954	16690.43
641.147	16841.98
641.34	16702.72
641.534	16686.34
641.727	16708.87
641.92	16393.48
642.114	15985.93
642.307	16078.09
642.5	16080.14
642.694	15713.55
642.887	15809.81
643.08	16098.57
643.273	15891.73
643.467	16053.52
643.66	15744.27
643.853	15541.52
644.046	15359.25
644.239	15109.4
644.432	15451.41
644.626	15324.44
644.819	15084.83
645.012	15170.84
645.205	15054.11
645.398	14722.34
645.591	14699.81
645.784	14546.21
645.977	14384.42
646.17	14705.95
646.363	14368.04
646.556	14214.44
646.749	14236.97
646.942	14331.17
647.135	14191.91
647.328	14013.74
647.521	13862.19
647.714	13845.8
647.907	14023.98
648.099	13733.17
648.292	13739.31
648.485	13471.03
648.678	13290.81
648.871	13483.31
649.064	13266.23
649.256	13591.86
649.449	13313.33
649.642	13143.35
649.835	12979.51
650.027	12995.9
650.22	12930.36
650.413	12641.6
650.605	12680.51
650.798	12766.53
650.991	12578.11
651.183	12590.4
651.376	12467.52
651.568	12356.93
651.761	12379.46
651.954	12348.74
652.146	12195.14
652.339	12100.94
652.531	12260.68
652.724	12105.03
652.916	12008.78
653.109	11930.95
653.301	11920.71
653.494	11851.08
653.686	11599.18
653.879	11828.56
654.071	11562.32
654.263	11378
654.456	11578.7
654.648	11496.78
654.84	11351.38
655.033	11177.3
655.225	11183.45
655.417	11248.98
655.61	11203.93
655.802	10927.45
655.994	10874.2
656.186	11095.38
656.379	10995.03
656.571	10935.64
656.763	10661.21
656.955	10792.28
657.148	10667.36
657.34	10751.32
657.532	10599.77
657.724	10466.66
657.916	10413.41
658.108	10509.66
658.3	10464.61
658.492	10345.83
658.684	10112.36
658.876	10124.65
659.068	10151.27
659.26	10052.97
659.452	10143.08
659.644	9854.31
659.836	9862.51
660.028	9997.67
660.22	9647.47
660.412	9903.46
660.604	9647.47
660.796	9616.75
660.988	9657.71
661.18	9497.97
661.372	9510.25
661.563	9540.97
661.755	9409.9
661.947	9385.33
662.139	9246.07
662.331	9151.86
662.522	9315.7
662.714	9229.68
662.906	8965.5
663.097	8936.82
663.289	8844.67
663.481	8803.71
663.673	8963.45
663.864	8957.3
664.056	8660.35
664.247	8977.78
664.439	8455.55
664.631	8613.24
664.822	8643.96
665.014	8723.83
665.205	8504.7
665.397	8504.7
665.588	8310.15
665.78	8213.89
665.971	8213.89
666.163	8406.4
666.354	8383.87
666.546	8174.98
666.737	8101.25
666.929	8189.32
667.12	8009.09
667.311	8127.88
667.503	8109.44
667.694	8054.15
667.885	7945.61
668.077	7808.39
668.268	7736.71
668.459	7724.43
668.651	7777.67
668.842	7890.31
669.033	7454.09
669.224	7546.25
669.416	7749
669.607	7376.27
669.798	7429.52
669.989	7566.73
670.18	7415.18
670.371	7460.24
670.563	7443.85
670.754	7464.33
670.945	7343.5
671.136	7134.61
671.327	7443.85
671.518	7247.25
671.709	7253.39
671.9	7243.15
672.091	7284.11
672.282	7085.46
672.473	6841.75
672.664	7011.73
672.855	6866.33
673.046	6991.25
673.237	7005.59
673.428	6776.22
673.619	6790.55
673.809	6954.39
674	6874.52
674.191	6815.13
674.382	6733.21
674.573	6800.79
674.764	6892.95
674.954	6636.95
675.145	6618.52
675.336	6675.87
675.527	6487.45
675.717	6573.47
675.908	6518.17
676.099	6485.41
676.289	6344.1
676.48	6296.99
676.671	6548.89
676.861	6405.53
677.052	6434.21
677.243	6413.73
677.433	6372.77
677.624	6174.11
677.814	6389.15
678.005	6311.33
678.195	6350.24
678.386	6413.73
678.576	6118.82
678.767	6372.77
678.957	6253.98
679.148	6296.99
679.338	6061.48
679.529	6204.83
679.719	6104.48
679.909	6161.83
680.1	5965.22
680.29	6151.59
680.481	6153.63
680.671	6041
680.861	5815.72
681.052	6022.56
681.242	5893.54
681.432	6170.02
681.622	5825.96
681.813	5916.07
682.003	5971.36
682.193	5971.36
682.383	6034.85
682.573	5957.03
682.764	5901.73
682.954	5864.87
683.144	5770.66
683.334	5864.87
683.524	5741.99
683.714	5774.76
683.904	5694.89
684.094	5842.34
684.284	5569.96
684.474	5760.42
684.664	5727.66
684.854	5731.75
685.044	5696.94
685.234	5531.05
685.424	5664.17
685.614	5637.55
685.804	5572.01
685.994	5565.87
686.184	5709.22
686.374	5602.73
686.564	5471.66
686.753	5610.92
686.943	5463.47
687.133	5438.89
687.323	5414.32
687.513	5359.02
687.702	5561.77
687.892	5367.21
688.082	5414.32
688.272	5369.26
688.461	5301.68
688.651	5383.6
688.841	5080.5
689.03	5273.01
689.22	5277.1
689.41	5295.54
689.599	5324.21
689.789	5111.22
689.979	5283.25
690.168	5279.15
690.358	5041.59
690.547	4963.76
690.737	5141.94
690.926	5103.03
691.116	5010.87
691.305	4996.53
691.495	5094.83
691.684	4922.8
691.874	5103.03
692.063	4861.37
692.252	5090.74
692.442	4957.62
692.631	4746.68
692.82	4971.96
693.01	4859.32
693.199	4900.28
693.388	4763.06
693.578	4816.31
693.767	4791.73
693.956	4799.93
694.146	4879.8
694.335	4713.91
694.524	4734.39
694.713	4746.68
694.902	4656.57
695.092	4840.89
695.281	4640.19
695.47	4834.74
695.659	4521.4
695.848	4492.73
696.037	4468.16
696.226	4605.37
696.415	4668.86
696.604	4642.23
696.793	4539.83
696.982	4433.34
697.171	4586.94
697.36	4605.37
697.549	4466.11
697.738	4410.81
697.927	4464.06
698.116	4390.33
698.305	4406.72
698.494	4398.52
698.683	4316.61
698.872	4412.86
699.061	4435.39
699.25	4416.96
699.438	4099.52
699.627	4210.11
699.816	4439.48
700.005	4242.88
700.193	4197.82
700.382	4474.3
700.571	4316.61
700.76	4144.58
700.948	4197.82
701.137	4310.46
701.326	4246.98
701.514	4328.89
701.703	4136.38
701.892	4138.43
702.08	4326.85
702.269	4242.88
702.457	4046.27
702.646	4214.21
702.834	4128.19
703.023	4070.85
703.212	4115.91
703.4	4023.75
703.589	3980.74
703.777	4097.47
703.965	4103.62
704.154	4023.75
704.342	3872.2
704.531	3898.82
704.719	3845.57
704.907	3976.64
705.096	3880.39
705.284	3974.6
705.472	3958.21
705.661	3861.96
705.849	3876.29
706.037	3880.39
706.226	3763.65
706.414	3689.93
706.602	3866.05
706.79	3790.28
706.979	3720.65
707.167	3722.7
707.355	3681.74
707.543	3638.73
707.731	3685.83
707.919	3644.87
708.107	3618.25
708.296	3694.02
708.484	3612.1
708.672	3651.02
708.86	3517.9
709.048	3562.95
709.236	3614.15
709.424	3689.93
709.612	3718.6
709.8	3583.43
709.988	3524.04
710.176	3591.63
710.364	3597.77
710.551	3450.32
710.739	3440.08
710.927	3546.57
711.115	3405.26
711.303	3440.08
711.491	3337.68
711.679	3431.88
711.866	3360.2
712.054	3472.84
712.242	3481.03
712.43	3386.83
712.617	3472.84
712.805	3341.77
712.993	3274.19
713.181	3319.25
713.368	3384.78
713.556	3227.09
713.744	3202.51
713.931	3294.67
714.119	3298.77
714.306	3202.51
714.494	3194.32
714.682	3079.63
714.869	3145.17
715.057	3118.54
715.244	3098.06
715.432	3194.32
715.619	3218.89
715.807	3257.81
715.994	3280.33
716.182	3196.37
716.369	3102.16
716.556	3243.47
716.744	2874.84
716.931	3227.09
717.119	3071.44
717.306	3091.92
717.493	3071.44
717.681	3007.95
717.868	3055.06
718.055	2969.04
718.242	3038.67
718.43	2874.84
718.617	2954.71
718.804	3050.96
718.991	3057.11
719.179	2885.08
719.366	2864.6
719.553	2962.9
719.74	2932.18
719.927	2915.8
720.114	2770.39
720.301	2739.67
720.488	2883.03
720.676	2768.34
720.863	2940.37
721.05	2966.99
721.237	2817.49
721.424	2868.69
721.611	2727.38
721.798	2751.96
721.985	2772.44
722.172	2749.91
722.358	2719.19
722.545	2776.53
722.732	2694.61
722.919	2788.82
723.106	2588.12
723.293	2711
723.48	2749.91
723.667	2606.55
723.853	2711
724.04	2653.66
724.227	2737.62
724.414	2618.84
724.6	2688.47
724.787	2598.36
724.974	2715.09
725.161	2670.04
725.347	2620.89
725.534	2614.74
725.72	2598.36
725.907	2649.56
726.094	2723.29
726.28	2633.18
726.467	2467.29
726.653	2440.67
726.84	2692.57
727.027	2549.21
727.213	2571.74
727.4	2530.78
727.586	2620.89
727.773	2506.2
727.959	2491.87
728.145	2530.78
728.332	2514.39
728.518	2248.16
728.705	2463.19
728.891	2401.76
729.077	2391.52
729.264	2420.19
729.45	2434.52
729.636	2481.63
729.823	2354.65
730.009	2399.71
730.195	2467.29
730.382	2325.98
730.568	2248.16
730.754	2334.17
730.94	2194.91
731.126	2383.32
731.313	2295.26
731.499	2188.77
731.685	2305.5
731.871	2291.17
732.057	2254.3
732.243	2303.45
732.429	2317.79
732.615	2295.26
732.801	2231.77
732.987	2199.01
733.173	2186.72
733.359	2184.67
733.545	2297.31
733.731	2272.73
733.917	2371.04
734.103	2166.24
734.289	2162.14
734.475	2098.66
734.661	2280.93
734.847	2145.76
735.033	2141.66
735.219	2250.21
735.404	2272.73
735.59	2256.35
735.776	2219.49
735.962	2137.57
736.148	2080.22
736.333	2047.46
736.519	2016.74
736.705	2072.03
736.89	2043.36
737.076	2112.99
737.262	2098.66
737.447	2072.03
737.633	1986.02
737.819	2024.93
738.004	2016.74
738.19	2010.59
738.375	2000.35
738.561	2121.18
738.747	2024.93
738.932	2014.69
739.118	2010.59
739.303	2082.27
739.489	2035.17
739.674	1947.11
739.859	2002.4
740.045	1936.87
740.23	1908.19
740.416	1953.25
740.601	1943.01
740.786	1900
740.972	1867.24
741.157	1949.15
741.342	1902.05
741.528	1777.12
741.713	1932.77
741.898	1953.25
742.084	1891.81
742.269	1762.79
742.454	1811.94
742.639	1936.87
742.824	1826.28
743.01	1797.6
743.195	1916.39
743.38	1904.1
743.565	1842.66
743.75	1824.23
743.935	1754.6
744.12	1900
744.305	1738.21
744.49	1744.36
744.675	1693.16
744.86	1711.59
745.045	1756.65
745.23	1713.64
745.415	1805.8
745.6	1736.17
745.785	1684.97
745.97	1682.92
746.155	1785.32
746.34	1711.59
746.525	1629.67
746.71	1660.39
746.895	1664.49
747.079	1498.6
747.264	1623.53
747.449	1662.44
747.634	1576.42
747.819	1596.9
748.003	1621.48
748.188	1594.86
748.373	1601
748.557	1680.87
748.742	1672.68
748.927	1547.75
749.111	1457.64
749.296	1484.27
749.481	1504.75
749.665	1531.37
749.85	1441.26
750.034	1492.46
750.219	1517.03
750.404	1457.64
750.588	1445.35
750.773	1318.38
750.957	1390.06
751.141	1367.53
751.326	1449.45
751.51	1398.25
751.695	1347.05
751.879	1293.8
752.064	1383.91
752.248	1228.27
752.432	1355.24
752.617	1402.35
752.801	1330.67
752.985	1256.94
753.17	1295.85
753.354	1271.28
753.538	1310.19
753.722	1291.76
753.907	1244.65
754.091	1220.08
754.275	1353.2
754.459	1250.8
754.643	1189.36
754.828	1177.07
755.012	1170.93
755.196	1162.73
755.38	1291.76
755.564	1271.28
755.748	1215.98
755.932	1252.84
756.116	1175.02
756.3	1189.36
756.484	1119.73
756.668	1166.83
756.852	1056.24
757.036	1148.4
757.22	1084.91
757.404	1050.1
757.588	1121.77
757.772	1093.1
757.956	1113.58
758.14	1224.17
758.323	1109.49
758.507	1101.3
758.691	1052.14
758.875	1025.52
759.059	1203.69
759.242	998.9
759.426	1080.82
759.61	1039.86
759.794	1129.97
759.977	1007.09
760.161	1080.82
760.345	1021.42
760.528	1064.43
760.712	966.13
760.895	880.11
761.079	1007.09
761.263	982.51
761.446	1037.81
761.63	976.37
761.813	992.75
761.997	867.83
762.18	927.22
762.364	994.8
762.547	871.92
762.731	992.75
762.914	861.68
763.098	851.44
763.281	886.26
763.464	908.79
763.648	910.83
763.831	876.02
764.015	945.65
764.198	849.4
764.381	904.69
764.564	851.44
764.748	888.31
764.931	900.59
765.114	902.64
765.297	894.45
765.481	845.3
765.664	876.02
765.847	826.87
766.03	845.3
766.213	830.96
766.397	841.2
766.58	826.87
766.763	814.58
766.946	785.91
767.129	919.03
767.312	785.91
767.495	736.76
767.678	753.14
767.861	921.07
768.044	826.87
768.227	835.06
768.41	812.53
768.593	820.72
768.776	822.77
768.959	749.04
769.142	714.23
769.324	796.15
769.507	847.35
769.69	851.44
769.873	810.48
770.056	929.27
770.239	773.62
770.421	763.38
770.604	835.06
770.787	765.43
770.97	884.21
771.152	693.75
771.335	779.76
771.518	769.52
771.7	835.06
771.883	755.19
772.066	738.8
772.248	663.03
772.431	798.2
772.613	765.43
772.796	763.38
772.978	785.91
773.161	804.34
773.343	785.91
773.526	695.8
773.708	761.33
773.891	671.22
774.073	761.33
774.256	603.64
774.438	689.65
774.621	687.61
774.803	697.85
774.985	620.02
775.168	775.67
775.35	742.9
775.532	712.18
775.715	609.78
775.897	654.84
776.079	607.73
776.261	687.61
776.444	605.69
776.626	583.16
776.808	589.3
776.99	617.97
777.173	577.02
777.355	566.78
777.537	638.45
777.719	720.37
777.901	624.12
778.083	654.84
778.265	613.88
778.447	736.76
778.629	509.43
778.811	589.3
778.993	564.73
779.175	564.73
779.357	572.92
779.539	511.48
779.721	515.58
779.903	656.89
780.085	548.34
780.267	558.58
780.449	634.36
780.631	441.85
780.812	544.25
780.994	550.39
781.176	476.66
781.358	523.77
781.54	433.66
781.721	589.3
781.903	466.42
782.085	523.77
782.267	538.1
782.448	480.76
782.63	474.62
782.812	540.15
782.993	452.09
783.175	517.62
783.357	404.99
783.538	515.58
783.72	484.86
783.901	402.94
784.083	495.1
784.264	501.24
784.446	476.66
784.627	464.38
784.809	472.57
784.99	409.08
785.172	476.66
785.353	353.79
785.535	466.42
785.716	519.67
785.897	433.66
786.079	458.23
786.26	364.03
786.441	462.33
786.623	351.74
786.804	384.51
786.985	349.69
787.167	374.27
787.348	343.55
787.529	370.17
787.71	404.99
787.891	384.51
788.073	376.31
788.254	398.84
788.435	394.75
788.616	359.93
788.797	321.02
788.978	392.7
789.159	337.4
789.34	425.47
789.522	331.26
789.703	349.69
789.884	351.74
790.065	292.35
790.246	345.59
790.427	361.98
790.607	355.83
790.788	407.03
790.969	318.97
791.15	372.22
791.331	296.44
791.512	337.4
791.693	325.12
791.874	353.79
792.054	359.93
792.235	376.31
792.416	361.98
792.597	261.63
792.778	359.93
792.958	337.4
793.139	269.82
793.32	337.4
793.5	306.68
793.681	353.79
793.862	353.79
794.042	312.83
794.223	288.25
794.404	339.45
794.584	228.86
794.765	298.49
794.945	247.29
795.126	351.74
795.306	294.4
795.487	286.2
795.667	318.97
795.848	302.59
796.028	312.83
796.209	310.78
796.389	357.88
796.57	216.57
796.75	273.92
796.93	263.68
797.111	245.24
797.291	376.31
797.471	275.96
797.652	290.3
797.832	259.58
798.012	310.78
798.192	212.48
798.373	189.95
798.553	232.96
798.733	255.48
798.913	105.98
799.093	278.01
799.274	292.35
799.454	228.86
799.634	280.06
799.814	163.33
799.994	189.95
800.174	183.81
800.354	239.1
800.534	187.9
800.714	265.72
800.894	314.88
801.074	138.75
801.254	214.52
801.434	206.33
801.614	196.09
801.794	232.96
801.974	818.68
802.154	167.42
802.334	255.48
802.514	192
802.693	161.28
802.873	196.09
803.053	247.29
803.233	228.86
803.413	161.28
803.592	237.05
803.772	171.52
803.952	267.77
804.131	189.95
804.311	120.32
804.491	208.38
804.67	157.18
804.85	171.52
805.03	194.05
805.209	198.14
805.389	189.95
805.568	151.04
805.748	187.9
805.928	220.67
806.107	261.63
806.287	200.19
806.466	237.05
806.646	132.61
806.825	65.02
807.004	140.8
807.184	212.48
807.363	179.71
807.543	179.71
807.722	126.46
807.901	224.76
808.081	175.61
808.26	108.03
808.439	206.33
808.619	163.33
808.798	151.04
808.977	130.56
809.156	200.19
809.336	138.75
809.515	132.61
809.694	179.71
809.873	114.17
810.052	159.23
810.231	142.85
810.411	255.48
810.59	204.28
810.769	91.65
810.948	175.61
811.127	108.03
811.306	132.61
811.485	126.46
811.664	130.56
811.843	173.57
812.022	173.57
812.201	241.15
812.38	132.61
812.559	40.45
812.737	114.17
812.916	105.98
813.095	138.75
813.274	134.65
813.453	87.55
813.632	118.27
813.811	142.85
813.989	130.56
814.168	105.98
814.347	138.75
814.526	138.75
814.704	263.68
814.883	116.22
815.062	130.56
815.24	208.38
815.419	85.5
815.598	146.94
815.776	108.03
815.955	124.41
816.133	9.73
816.312	144.89
816.49	179.71
816.669	97.79
816.847	165.37
817.026	163.33
817.204	97.79
817.383	69.12
817.561	89.6
817.74	196.09
817.918	-6.66
818.097	97.79
818.275	65.02
818.453	126.46
818.632	124.41
818.81	108.03
818.988	67.07
819.167	165.37
819.345	108.03
819.523	81.41
819.701	75.26
819.879	151.04
820.058	146.94
820.236	155.13
820.414	146.94
820.592	171.52
820.77	81.41
820.948	77.31
821.127	65.02
821.305	148.99
821.483	134.65
821.661	220.67
821.839	60.93
822.017	-6.66
822.195	81.41
822.373	181.76
822.551	89.6
822.729	122.37
822.907	60.93
823.085	108.03
823.262	108.03
823.44	136.7
823.618	108.03
823.796	130.56
823.974	15.87
824.152	73.21
824.329	30.21
824.507	67.07
824.685	108.03
824.863	151.04
825.04	17.92
825.218	103.93
825.396	69.12
825.574	212.48
825.751	140.8
825.929	167.42
826.107	101.89
826.284	52.74
826.462	77.31
826.639	75.26
826.817	91.65
826.994	67.07
827.172	140.8
827.349	116.22
827.527	40.45
827.704	56.83
827.882	110.08
828.059	114.17
828.237	155.13
828.414	118.27
828.591	44.54
828.769	116.22
828.946	67.07
829.124	148.99
829.301	116.22
829.478	71.17
829.655	101.89
829.833	67.07
830.01	-4.61
830.187	97.79
830.364	17.92
830.542	99.84
830.719	146.94
830.896	26.11
831.073	73.21
831.25	114.17
831.427	85.5
831.604	108.03
831.782	34.3
831.959	130.56
832.136	108.03
832.313	93.69
832.49	83.45
832.667	65.02
832.844	7.68
833.021	101.89
833.198	-33.28
833.374	52.74
833.551	101.89
833.728	52.74
833.905	136.7
834.082	-25.09
834.259	89.6
834.436	118.27
834.612	67.07
834.789	60.93
834.966	99.84
835.143	93.69
835.319	22.02
835.496	73.21
835.673	83.45
835.85	136.7
836.026	97.79
836.203	69.12
836.38	7.68
836.556	73.21
836.733	-4.61
836.909	40.45
837.086	48.64
837.262	89.6
837.439	36.35
837.616	52.74
837.792	138.75
837.968	28.16
838.145	7.68
838.321	69.12
838.498	58.88
838.674	122.37
838.851	71.17
839.027	60.93
839.203	32.26
839.38	122.37
839.556	1.54
839.732	75.26
839.909	60.93
840.085	67.07
840.261	58.88
840.437	32.26
840.614	32.26
840.79	140.8
840.966	95.74
841.142	56.83
841.318	81.41
841.494	114.17
841.671	124.41
841.847	-8.7
842.023	114.17
842.199	91.65
842.375	67.07
842.551	40.45
842.727	-8.7
842.903	181.76
843.079	26.11
843.255	50.69
843.431	48.64
843.607	91.65
843.783	-10.75
843.959	40.45
844.134	13.82
844.31	40.45
844.486	79.36
844.662	42.5
844.838	-45.57
845.013	54.78
845.189	15.87
845.365	1.54
845.541	32.26
845.716	81.41
845.892	28.16
846.068	50.69
846.244	122.37
846.419	13.82
846.595	28.16
846.77	-25.09
846.946	30.21
847.122	83.45
847.297	24.06
847.473	85.5
847.648	42.5
847.824	40.45
847.999	-33.28
848.175	44.54
848.35	56.83
848.526	24.06
848.701	62.98
848.876	132.61
849.052	67.07
849.227	11.78
849.403	34.3
849.578	46.59
849.753	48.64
849.929	50.69
850.104	56.83
850.279	97.79
850.454	44.54
850.63	1.54
850.805	48.64
850.98	83.45
851.155	15.87
851.33	65.02
851.505	9.73
851.681	-14.85
851.856	13.82
852.031	-0.51
852.206	36.35
852.381	-88.57
852.556	3.58
852.731	110.08
852.906	42.5
853.081	46.59
853.256	24.06
853.431	15.87
853.606	-23.04
853.781	114.17
853.956	-25.09
854.131	65.02
854.305	-49.66
854.48	17.92
854.655	1.54
854.83	9.73
855.005	1.54
855.18	-31.23
855.354	48.64
855.529	38.4
855.704	24.06
855.879	24.06
856.053	26.11
856.228	-14.85
856.403	-33.28
856.577	71.17
856.752	9.73
856.926	11.78
857.101	73.21
857.276	32.26
857.45	3.58
857.625	17.92
857.799	97.79
857.974	56.83
858.148	-66.05
858.323	40.45
858.497	-12.8
858.672	44.54
858.846	-72.19
859.02	81.41
859.195	-16.9
859.369	46.59
859.543	50.69
859.718	36.35
859.892	81.41
860.066	73.21
860.241	-39.42
860.415	81.41
860.589	24.06
860.763	46.59
860.938	24.06
861.112	-33.28
861.286	58.88
861.46	73.21
861.634	13.82
861.808	93.69
861.982	-66.05
862.157	75.26
862.331	9.73
862.505	17.92
862.679	-18.94
862.853	40.45
863.027	5.63
863.201	99.84
863.375	-84.48
863.549	-20.99
863.722	-27.14
863.896	-33.28
864.07	-37.38
864.244	48.64
864.418	56.83
864.592	-8.7
864.766	13.82
864.939	32.26
865.113	-45.57
865.287	97.79
865.461	32.26
865.634	1.54
865.808	9.73
865.982	7.68
866.156	-33.28
866.329	-33.28
866.503	9.73
866.676	44.54
866.85	114.17
867.024	17.92
867.197	19.97
867.371	-8.7
867.544	7.68
867.718	75.26
867.891	38.4
868.065	11.78
868.238	-53.76
868.412	40.45
868.585	32.26
868.759	56.83
868.932	-10.75
869.105	-20.99
869.279	34.3
869.452	-25.09
869.625	-18.94
869.799	11.78
869.972	7.68
870.145	32.26
870.319	32.26
870.492	3.58
870.665	-0.51
870.838	-41.47
871.011	-31.23
871.185	-0.51
871.358	-29.18
871.531	40.45
871.704	42.5
871.877	-4.61
872.05	7.68
872.223	-57.86
872.396	40.45
872.569	7.68
872.742	-66.05
872.915	26.11
873.088	40.45
873.261	-0.51
873.434	-31.23
873.607	38.4
873.78	15.87
873.953	-49.66
874.126	-0.51
874.299	81.41
874.471	89.6
874.644	65.02
874.817	15.87
874.99	32.26
875.163	-4.61
875.335	50.69
875.508	-53.76
875.681	26.11
875.853	-4.61
876.026	73.21
876.199	15.87
876.371	60.93
876.544	3.58
876.717	62.98
876.889	1.54
877.062	26.11
877.234	-115.2
877.407	-0.51
877.579	15.87
877.752	-0.51
877.924	38.4
878.097	32.26
878.269	19.97
878.442	32.26
878.614	-0.51
878.786	48.64
878.959	-23.04
879.131	42.5
879.303	-31.23
879.476	-14.85
879.648	50.69
879.82	3.58
879.993	-33.28
880.165	3.58
880.337	9.73
880.509	60.93
880.681	-29.18
880.854	-37.38
881.026	-20.99
881.198	34.3
881.37	-61.95
881.542	-31.23
881.714	-35.33
881.886	1.54
882.058	-0.51
882.23	-37.38
882.402	34.3
882.574	-33.28
882.746	32.26
882.918	56.83
883.09	-6.66
883.262	-82.43
883.434	-31.23
883.606	13.82
883.778	7.68
883.95	44.54
884.122	17.92
884.293	-23.04
884.465	-53.76
884.637	7.68
884.809	-35.33
884.98	99.84
885.152	-57.86
885.324	17.92
885.496	17.92
885.667	15.87
885.839	7.68
886.011	77.31
886.182	9.73
886.354	105.98
886.525	85.5
886.697	24.06
886.869	60.93
887.04	-16.9
887.212	17.92
887.383	56.83
887.555	-27.14
887.726	-14.85
887.897	17.92
888.069	-74.24
888.24	101.89
888.412	75.26
888.583	-45.57
888.754	-39.42
888.926	-8.7
889.097	-25.09
889.268	-37.38
889.44	42.5
889.611	7.68
889.782	17.92
889.953	-33.28
890.125	62.98
890.296	7.68
890.467	19.97
890.638	-0.51
890.809	-78.33
890.98	-29.18
891.151	81.41
891.323	46.59
891.494	-25.09
891.665	-14.85
891.836	-16.9
892.007	-37.38
892.178	40.45
892.349	7.68
892.52	-31.23
892.691	1.54
892.862	-86.53
893.032	-20.99
893.203	-8.7
893.374	-41.47
893.545	40.45
893.716	-35.33
893.887	112.13
894.057	7.68
894.228	65.02
894.399	-8.7
894.57	-49.66
894.74	15.87
894.911	-74.24
895.082	15.87
895.253	-31.23
895.423	9.73
895.594	3.58
895.764	1.54
895.935	-18.94
896.106	-4.61
896.276	17.92
896.447	-23.04
896.617	-119.29
896.788	-98.81
896.958	-41.47
897.129	-25.09
897.299	-10.75
897.47	24.06
897.64	-16.9
897.81	9.73
897.981	-8.7
898.151	-61.95
898.322	15.87
898.492	75.26
898.662	30.21
898.832	9.73
899.003	-0.51
899.173	101.89
899.343	-55.81
899.513	-8.7
