Data from USB4F104151__312__14-35-06-070.txt Node

Date: Thu Mar 13 14:35:06 EDT 2025
User: louis
Spectrometer: USB4F10415
Trigger mode: 4
Integration Time (sec): 2.500000E-2
Scans to average: 1
Electric dark correction enabled: true
Nonlinearity correction enabled: false
Boxcar width: 0
XAxis mode: Wavelengths
Number of Pixels in Spectrum: 3648
>>>>>Begin Spectral Data<<<<<
178.204	-121
178.424	-121
178.644	-121
178.864	-170.15
179.084	-114.86
179.304	42.84
179.524	-14.51
179.744	36.69
179.964	96.08
180.184	-26.79
180.404	1.88
180.624	-77.99
180.844	-63.66
181.064	-18.6
181.283	28.5
181.503	-30.89
181.723	26.45
181.943	-24.75
182.163	100.18
182.383	18.26
182.602	30.55
182.822	1.88
183.042	91.99
183.262	-77.99
183.482	98.13
183.701	1.88
183.921	51.03
184.141	59.22
184.361	14.17
184.58	20.31
184.8	46.93
185.02	1.88
185.239	87.89
185.459	87.89
185.679	38.74
185.898	-30.89
186.118	77.65
186.338	40.79
186.557	85.84
186.777	3.93
186.997	83.8
187.216	1.88
187.436	75.6
187.655	77.65
187.875	34.64
188.095	10.07
188.314	77.65
188.534	102.23
188.753	14.17
188.973	24.4
189.192	120.66
189.412	-51.37
189.631	63.32
189.851	20.31
190.07	100.18
190.29	-18.6
190.509	36.69
190.729	44.88
190.948	51.03
191.168	239.44
191.387	91.99
191.607	28.5
191.826	59.22
192.045	75.6
192.265	44.88
192.484	14.17
192.704	71.51
192.923	26.45
193.142	165.71
193.362	112.47
193.581	124.76
193.8	59.22
194.02	38.74
194.239	-10.41
194.458	20.31
194.678	75.6
194.897	69.46
195.116	42.84
195.335	71.51
195.555	83.8
195.774	26.45
195.993	12.12
196.212	-4.27
196.432	30.55
196.651	20.31
196.87	59.22
197.089	100.18
197.308	87.89
197.528	67.41
197.747	-14.51
197.966	24.4
198.185	122.71
198.404	5.97
198.623	83.8
198.842	102.23
199.062	57.17
199.281	34.64
199.5	-37.03
199.719	114.52
199.938	51.03
200.157	118.61
200.376	36.69
200.595	65.36
200.814	65.36
201.033	67.41
201.252	-10.41
201.471	22.36
201.69	59.22
201.909	53.08
202.128	16.21
202.347	22.36
202.566	-61.61
202.785	26.45
203.004	3.93
203.223	85.84
203.442	59.22
203.661	-12.46
203.879	69.46
204.098	20.31
204.317	83.8
204.536	91.99
204.755	55.12
204.974	100.18
205.193	34.64
205.411	83.8
205.63	59.22
205.849	28.5
206.068	71.51
206.287	18.26
206.505	102.23
206.724	-14.51
206.943	20.31
207.162	46.93
207.381	153.43
207.599	46.93
207.818	34.64
208.037	75.6
208.255	114.52
208.474	53.08
208.693	83.8
208.911	-22.7
209.13	24.4
209.349	145.24
209.567	116.56
209.786	120.66
210.005	55.12
210.223	-12.46
210.442	-18.6
210.661	1.88
210.879	51.03
211.098	69.46
211.316	-8.36
211.535	94.04
211.753	46.93
211.972	20.31
212.191	12.12
212.409	44.88
212.628	100.18
212.846	55.12
213.065	102.23
213.283	147.28
213.502	46.93
213.72	87.89
213.938	3.93
214.157	10.07
214.375	32.6
214.594	85.84
214.812	12.12
215.031	75.6
215.249	36.69
215.467	51.03
215.686	96.08
215.904	83.8
216.122	18.26
216.341	77.65
216.559	44.88
216.778	69.46
216.996	67.41
217.214	-2.22
217.432	12.12
217.651	79.7
217.869	81.75
218.087	59.22
218.306	-14.51
218.524	94.04
218.742	30.55
218.96	63.32
219.179	-39.08
219.397	96.08
219.615	122.71
219.833	67.41
220.051	-14.51
220.27	83.8
220.488	100.18
220.706	24.4
220.924	10.07
221.142	77.65
221.36	83.8
221.578	36.69
221.796	22.36
222.015	91.99
222.233	14.17
222.451	116.56
222.669	22.36
222.887	20.31
223.105	18.26
223.323	51.03
223.541	34.64
223.759	128.85
223.977	59.22
224.195	36.69
224.413	12.12
224.631	89.94
224.849	77.65
225.067	51.03
225.285	-2.22
225.503	20.31
225.721	-6.31
225.939	26.45
226.157	46.93
226.375	67.41
226.592	34.64
226.81	-4.27
227.028	85.84
227.246	67.41
227.464	81.75
227.682	28.5
227.9	53.08
228.117	69.46
228.335	104.28
228.553	42.84
228.771	46.93
228.989	96.08
229.206	57.17
229.424	-8.36
229.642	1.88
229.86	-41.13
230.077	55.12
230.295	-2.22
230.513	83.8
230.731	75.6
230.948	87.89
231.166	85.84
231.384	1.88
231.601	22.36
231.819	135
232.037	-24.75
232.254	22.36
232.472	-18.6
232.689	28.5
232.907	28.5
233.125	100.18
233.342	3.93
233.56	-20.65
233.777	14.17
233.995	59.22
234.213	169.81
234.43	91.99
234.648	32.6
234.865	55.12
235.083	69.46
235.3	71.51
235.518	75.6
235.735	59.22
235.953	83.8
236.17	59.22
236.388	36.69
236.605	51.03
236.822	100.18
237.04	20.31
237.257	83.8
237.475	18.26
237.692	44.88
237.909	55.12
238.127	87.89
238.344	51.03
238.562	38.74
238.779	14.17
238.996	18.26
239.214	69.46
239.431	116.56
239.648	3.93
239.865	67.41
240.083	55.12
240.3	42.84
240.517	-47.27
240.735	42.84
240.952	55.12
241.169	46.93
241.386	102.23
241.603	71.51
241.821	48.98
242.038	102.23
242.255	106.32
242.472	26.45
242.689	67.41
242.907	10.07
243.124	65.36
243.341	81.75
243.558	28.5
243.775	-4.27
243.992	-88.23
244.209	67.41
244.426	57.17
244.643	151.38
244.86	-18.6
245.078	96.08
245.295	18.26
245.512	102.23
245.729	67.41
245.946	51.03
246.163	59.22
246.38	46.93
246.597	5.97
246.814	104.28
247.031	1.88
247.248	-34.99
247.464	26.45
247.681	116.56
247.898	42.84
248.115	102.23
248.332	38.74
248.549	85.84
248.766	53.08
248.983	137.04
249.2	42.84
249.417	128.85
249.633	36.69
249.85	44.88
250.067	57.17
250.284	98.13
250.501	42.84
250.717	91.99
250.934	34.64
251.151	-14.51
251.368	108.37
251.585	120.66
251.801	8.02
252.018	53.08
252.235	40.79
252.451	-14.51
252.668	-12.46
252.885	126.8
253.102	26.45
253.318	126.8
253.535	28.5
253.752	1.88
253.968	61.27
254.185	12.12
254.401	79.7
254.618	69.46
254.835	18.26
255.051	114.52
255.268	85.84
255.484	20.31
255.701	10.07
255.917	46.93
256.134	34.64
256.351	77.65
256.567	42.84
256.784	20.31
257	42.84
257.217	53.08
257.433	75.6
257.65	44.88
257.866	96.08
258.082	3.93
258.299	-39.08
258.515	75.6
258.732	67.41
258.948	114.52
259.165	87.89
259.381	1.88
259.597	24.4
259.814	91.99
260.03	28.5
260.246	77.65
260.463	108.37
260.679	75.6
260.895	91.99
261.112	42.84
261.328	42.84
261.544	30.55
261.761	104.28
261.977	-6.31
262.193	34.64
262.409	40.79
262.626	40.79
262.842	-6.31
263.058	1.88
263.274	155.47
263.49	34.64
263.707	132.95
263.923	-4.27
264.139	20.31
264.355	124.76
264.571	108.37
264.787	46.93
265.004	118.61
265.22	53.08
265.436	51.03
265.652	61.27
265.868	51.03
266.084	38.74
266.3	83.8
266.516	46.93
266.732	-6.31
266.948	40.79
267.164	69.46
267.38	34.64
267.596	114.52
267.812	79.7
268.028	30.55
268.244	18.26
268.46	57.17
268.676	118.61
268.892	69.46
269.108	-18.6
269.324	51.03
269.54	12.12
269.756	89.94
269.972	-37.03
270.188	38.74
270.403	-16.55
270.619	75.6
270.835	14.17
271.051	26.45
271.267	-18.6
271.483	110.42
271.698	30.55
271.914	151.38
272.13	26.45
272.346	73.56
272.562	12.12
272.777	55.12
272.993	83.8
273.209	71.51
273.425	28.5
273.64	26.45
273.856	77.65
274.072	89.94
274.287	10.07
274.503	63.32
274.719	53.08
274.934	126.8
275.15	-34.99
275.366	108.37
275.581	8.02
275.797	1.88
276.012	42.84
276.228	42.84
276.444	69.46
276.659	175.95
276.875	-4.27
277.09	89.94
277.306	-2.22
277.521	118.61
277.737	30.55
277.952	59.22
278.168	36.69
278.383	67.41
278.599	81.75
278.814	77.65
279.03	38.74
279.245	116.56
279.461	65.36
279.676	65.36
279.892	40.79
280.107	59.22
280.322	10.07
280.538	67.41
280.753	1.88
280.969	20.31
281.184	44.88
281.399	83.8
281.615	34.64
281.83	71.51
282.045	-22.7
282.26	61.27
282.476	28.5
282.691	55.12
282.906	3.93
283.122	30.55
283.337	-14.51
283.552	126.8
283.767	-0.17
283.983	102.23
284.198	67.41
284.413	71.51
284.628	67.41
284.843	94.04
285.058	38.74
285.274	10.07
285.489	-47.27
285.704	67.41
285.919	-0.17
286.134	42.84
286.349	51.03
286.564	18.26
286.779	83.8
286.995	-34.99
287.21	20.31
287.425	135
287.64	59.22
287.855	118.61
288.07	-4.27
288.285	69.46
288.5	135
288.715	59.22
288.93	42.84
289.145	10.07
289.36	36.69
289.575	44.88
289.79	91.99
290.004	94.04
290.219	89.94
290.434	12.12
290.649	83.8
290.864	83.8
291.079	-6.31
291.294	55.12
291.509	75.6
291.724	28.5
291.938	-8.36
292.153	69.46
292.368	34.64
292.583	67.41
292.798	83.8
293.012	83.8
293.227	94.04
293.442	79.7
293.657	71.51
293.871	165.71
294.086	-6.31
294.301	91.99
294.516	63.32
294.73	26.45
294.945	-14.51
295.16	63.32
295.374	32.6
295.589	26.45
295.804	61.27
296.018	79.7
296.233	126.8
296.447	149.33
296.662	-22.7
296.877	151.38
297.091	75.6
297.306	65.36
297.52	1.88
297.735	42.84
297.949	1.88
298.164	26.45
298.378	22.36
298.593	12.12
298.807	55.12
299.022	87.89
299.236	28.5
299.451	26.45
299.665	-49.32
299.88	65.36
300.094	-2.22
300.309	87.89
300.523	59.22
300.737	-53.42
300.952	75.6
301.166	12.12
301.381	26.45
301.595	77.65
301.809	-4.27
302.024	34.64
302.238	22.36
302.452	110.42
302.667	132.95
302.881	87.89
303.095	79.7
303.309	108.37
303.524	42.84
303.738	91.99
303.952	53.08
304.166	36.69
304.381	28.5
304.595	118.61
304.809	12.12
305.023	26.45
305.237	85.84
305.452	108.37
305.666	100.18
305.88	79.7
306.094	53.08
306.308	75.6
306.522	36.69
306.736	59.22
306.95	83.8
307.164	65.36
307.379	18.26
307.593	79.7
307.807	124.76
308.021	44.88
308.235	18.26
308.449	34.64
308.663	42.84
308.877	141.14
309.091	26.45
309.305	98.13
309.519	-26.79
309.733	128.85
309.947	-22.7
310.161	65.36
310.374	94.04
310.588	128.85
310.802	24.4
311.016	26.45
311.23	163.67
311.444	-43.18
311.658	63.32
311.872	124.76
312.085	100.18
312.299	83.8
312.513	206.67
312.727	18.26
312.941	22.36
313.154	59.22
313.368	42.84
313.582	124.76
313.796	77.65
314.009	120.66
314.223	73.56
314.437	36.69
314.651	51.03
314.864	14.17
315.078	71.51
315.292	44.88
315.505	65.36
315.719	59.22
315.933	5.97
316.146	42.84
316.36	42.84
316.573	102.23
316.787	59.22
317.001	112.47
317.214	53.08
317.428	85.84
317.641	-26.79
317.855	38.74
318.068	83.8
318.282	1.88
318.495	147.28
318.709	59.22
318.922	85.84
319.136	116.56
319.349	94.04
319.563	71.51
319.776	98.13
319.99	81.75
320.203	40.79
320.417	63.32
320.63	63.32
320.843	110.42
321.057	42.84
321.27	-26.79
321.483	89.94
321.697	75.6
321.91	-28.84
322.124	94.04
322.337	137.04
322.55	100.18
322.763	91.99
322.977	169.81
323.19	38.74
323.403	-4.27
323.617	22.36
323.83	75.6
324.043	51.03
324.256	34.64
324.469	-18.6
324.683	79.7
324.896	81.75
325.109	53.08
325.322	-47.27
325.535	100.18
325.748	65.36
325.962	59.22
326.175	26.45
326.388	73.56
326.601	46.93
326.814	30.55
327.027	114.52
327.24	26.45
327.453	51.03
327.666	116.56
327.879	137.04
328.092	112.47
328.305	28.5
328.518	100.18
328.731	46.93
328.944	91.99
329.157	12.12
329.37	18.26
329.583	139.09
329.796	132.95
330.009	18.26
330.222	118.61
330.435	96.08
330.648	51.03
330.861	44.88
331.073	77.65
331.286	18.26
331.499	61.27
331.712	1.88
331.925	-30.89
332.138	69.46
332.35	126.8
332.563	-39.08
332.776	202.58
332.989	118.61
333.202	46.93
333.414	46.93
333.627	79.7
333.84	44.88
334.053	53.08
334.265	83.8
334.478	48.98
334.691	14.17
334.903	91.99
335.116	-18.6
335.329	100.18
335.541	22.36
335.754	118.61
335.966	69.46
336.179	36.69
336.392	34.64
336.604	34.64
336.817	46.93
337.029	57.17
337.242	63.32
337.454	110.42
337.667	94.04
337.88	75.6
338.092	46.93
338.305	108.37
338.517	73.56
338.729	108.37
338.942	42.84
339.154	18.26
339.367	34.64
339.579	85.84
339.792	3.93
340.004	94.04
340.217	53.08
340.429	83.8
340.641	53.08
340.854	100.18
341.066	83.8
341.278	67.41
341.491	104.28
341.703	96.08
341.915	18.26
342.128	94.04
342.34	5.97
342.552	53.08
342.764	53.08
342.977	38.74
343.189	87.89
343.401	1.88
343.613	100.18
343.826	30.55
344.038	53.08
344.25	94.04
344.462	8.02
344.674	57.17
344.886	-8.36
345.099	65.36
345.311	96.08
345.523	46.93
345.735	3.93
345.947	36.69
346.159	38.74
346.371	63.32
346.583	53.08
346.795	206.67
347.007	53.08
347.219	3.93
347.431	32.6
347.643	102.23
347.855	42.84
348.067	126.8
348.279	-18.6
348.491	147.28
348.703	34.64
348.915	94.04
349.127	59.22
349.339	69.46
349.551	18.26
349.763	83.8
349.975	100.18
350.187	10.07
350.399	83.8
350.61	61.27
350.822	26.45
351.034	34.64
351.246	161.62
351.458	36.69
351.669	24.4
351.881	108.37
352.093	51.03
352.305	67.41
352.517	81.75
352.728	63.32
352.94	124.76
353.152	69.46
353.363	46.93
353.575	59.22
353.787	167.76
353.999	83.8
354.21	135
354.422	-26.79
354.633	75.6
354.845	38.74
355.057	67.41
355.268	151.38
355.48	48.98
355.692	75.6
355.903	75.6
356.115	42.84
356.326	14.17
356.538	96.08
356.749	18.26
356.961	36.69
357.172	75.6
357.384	-6.31
357.595	100.18
357.807	20.31
358.018	10.07
358.23	51.03
358.441	149.33
358.653	28.5
358.864	-6.31
359.075	63.32
359.287	30.55
359.498	83.8
359.709	91.99
359.921	53.08
360.132	48.98
360.344	61.27
360.555	67.41
360.766	69.46
360.977	85.84
361.189	100.18
361.4	83.8
361.611	69.46
361.823	135
362.034	-6.31
362.245	-28.84
362.456	-12.46
362.667	51.03
362.879	55.12
363.09	132.95
363.301	118.61
363.512	51.03
363.723	94.04
363.935	44.88
364.146	51.03
364.357	75.6
364.568	108.37
364.779	-8.36
364.99	110.42
365.201	75.6
365.412	143.19
365.623	42.84
365.834	85.84
366.045	110.42
366.256	67.41
366.467	75.6
366.678	10.07
366.889	57.17
367.1	79.7
367.311	51.03
367.522	-4.27
367.733	73.56
367.944	42.84
368.155	102.23
368.366	63.32
368.577	145.24
368.788	71.51
368.999	-53.42
369.209	71.51
369.42	149.33
369.631	128.85
369.842	122.71
370.053	55.12
370.264	67.41
370.474	5.97
370.685	112.47
370.896	91.99
371.107	91.99
371.317	94.04
371.528	51.03
371.739	67.41
371.95	55.12
372.16	96.08
372.371	-2.22
372.582	63.32
372.792	61.27
373.003	67.41
373.214	51.03
373.424	96.08
373.635	51.03
373.846	55.12
374.056	18.26
374.267	63.32
374.477	30.55
374.688	26.45
374.898	32.6
375.109	151.38
375.319	73.56
375.53	169.81
375.74	91.99
375.951	18.26
376.161	36.69
376.372	124.76
376.582	26.45
376.793	85.84
377.003	44.88
377.214	91.99
377.424	69.46
377.635	98.13
377.845	141.14
378.055	100.18
378.266	34.64
378.476	124.76
378.686	61.27
378.897	3.93
379.107	102.23
379.317	81.75
379.528	53.08
379.738	120.66
379.948	75.6
380.158	120.66
380.369	38.74
380.579	44.88
380.789	36.69
380.999	59.22
381.21	30.55
381.42	116.56
381.63	48.98
381.84	124.76
382.05	46.93
382.261	141.14
382.471	36.69
382.681	67.41
382.891	165.71
383.101	63.32
383.311	83.8
383.521	73.56
383.731	85.84
383.941	85.84
384.151	96.08
384.361	22.36
384.571	120.66
384.781	69.46
384.991	116.56
385.201	104.28
385.411	3.93
385.621	79.7
385.831	32.6
386.041	55.12
386.251	81.75
386.461	71.51
386.671	34.64
386.881	75.6
387.091	59.22
387.301	120.66
387.511	180.05
387.72	67.41
387.93	61.27
388.14	73.56
388.35	75.6
388.56	100.18
388.769	79.7
388.979	143.19
389.189	-20.65
389.399	100.18
389.609	114.52
389.818	157.52
390.028	42.84
390.238	96.08
390.447	51.03
390.657	83.8
390.867	91.99
391.076	102.23
391.286	79.7
391.496	77.65
391.705	44.88
391.915	116.56
392.125	71.51
392.334	100.18
392.544	151.38
392.753	108.37
392.963	73.56
393.172	53.08
393.382	108.37
393.591	206.67
393.801	28.5
394.01	143.19
394.22	149.33
394.429	87.89
394.639	104.28
394.848	91.99
395.058	149.33
395.267	77.65
395.477	100.18
395.686	102.23
395.895	167.76
396.105	173.91
396.314	143.19
396.524	116.56
396.733	102.23
396.942	163.67
397.152	147.28
397.361	151.38
397.57	167.76
397.78	147.28
397.989	77.65
398.198	145.24
398.407	112.47
398.617	51.03
398.826	151.38
399.035	149.33
399.244	165.71
399.453	116.56
399.663	116.56
399.872	141.14
400.081	128.85
400.29	173.91
400.499	108.37
400.708	223.06
400.917	116.56
401.127	149.33
401.336	149.33
401.545	247.63
401.754	155.47
401.963	194.39
402.172	116.56
402.381	206.67
402.59	167.76
402.799	218.96
403.008	235.35
403.217	173.91
403.426	175.95
403.635	182.1
403.844	214.87
404.053	190.29
404.262	167.76
404.471	173.91
404.68	186.19
404.888	126.8
405.097	169.81
405.306	218.96
405.515	274.26
405.724	218.96
405.933	214.87
406.142	227.15
406.35	231.25
406.559	255.83
406.768	247.63
406.977	259.92
407.185	323.41
407.394	280.4
407.603	210.77
407.812	259.92
408.02	296.78
408.229	251.73
408.438	264.02
408.646	288.59
408.855	366.42
409.064	255.83
409.272	309.07
409.481	427.85
409.69	386.9
409.898	300.88
410.107	347.98
410.315	415.57
410.524	407.38
410.733	468.81
410.941	411.47
411.15	460.62
411.358	503.63
411.567	526.16
411.775	548.68
411.984	477.01
412.192	534.35
412.401	575.31
412.609	651.08
412.818	687.95
413.026	603.98
413.234	694.09
413.443	618.32
413.651	649.04
413.86	694.09
414.068	837.45
414.276	739.15
414.485	829.26
414.693	823.11
414.901	962.37
415.11	888.65
415.318	902.98
415.526	939.85
415.734	984.9
415.943	1052.49
416.151	1068.87
416.359	1087.3
416.567	1034.05
416.776	1156.93
416.984	1247.04
417.192	1300.29
417.4	1269.57
417.608	1247.04
417.817	1365.82
418.025	1484.61
418.233	1484.61
418.441	1423.17
418.649	1558.33
418.857	1697.6
419.065	1713.98
419.273	1632.06
419.481	1730.36
419.689	1896.25
419.897	1902.39
420.105	1959.74
420.313	1939.26
420.521	2019.13
420.729	2156.34
420.937	2119.48
421.145	2289.46
421.353	2379.57
421.561	2490.16
421.769	2449.2
421.977	2557.74
422.185	2674.48
422.393	2762.54
422.601	2926.38
422.809	2893.61
423.017	2768.68
423.224	3002.15
423.432	3225.38
423.64	3176.23
423.848	3430.18
424.056	3358.5
424.263	3815.2
424.471	3614.49
424.679	3698.46
424.887	3815.2
425.094	3950.36
425.302	4048.66
425.51	4161.3
425.718	4228.88
425.925	4271.89
426.133	4525.84
426.341	4728.59
426.548	4927.24
426.756	4945.67
426.964	5039.88
427.171	5187.33
427.379	5418.75
427.586	5558.02
427.794	5707.52
428.001	5879.55
428.209	6123.26
428.417	6315.76
428.624	6498.03
428.832	6545.14
429.039	6608.62
429.247	6514.42
429.454	7106.28
429.662	7476.96
429.869	7032.55
430.076	7642.85
430.284	7321.32
430.491	7808.73
430.699	7999.2
430.906	8193.75
431.114	8423.12
431.321	8681.17
431.528	8730.32
431.736	9365.19
431.943	9696.96
432.15	9365.19
432.358	9445.06
432.565	9975.49
432.772	9885.37
432.979	10456.76
433.187	10555.06
433.394	10800.82
433.601	11378.34
433.808	11290.28
434.016	11321
434.223	11841.18
434.43	12504.73
434.637	12207.77
434.844	13127.31
435.052	13276.81
435.259	13092.49
435.466	13250.19
435.673	13209.23
435.88	13921.92
436.087	15066.74
436.294	14845.55
436.501	14528.12
436.708	14603.89
436.915	15554.15
437.122	15879.78
437.329	15826.53
437.537	16367.2
437.743	16789.08
437.95	16303.71
438.157	17272.4
438.364	17962.56
438.571	17978.95
438.778	18044.48
438.985	19531.31
439.192	18871.86
439.399	19404.33
439.606	18812.47
439.813	20235.81
440.02	21222.93
440.227	20817.43
440.433	20753.94
440.64	21466.64
440.847	21259.79
441.054	21722.63
441.261	23164.4
441.467	23166.45
441.674	23283.19
441.881	24147.43
442.088	24178.15
442.294	23907.82
442.501	24327.65
442.708	24991.19
442.914	26088.9
443.121	26922.43
443.328	26209.73
443.534	28192.17
443.741	27262.39
443.948	26940.86
444.154	28609.95
444.361	28781.98
444.568	28974.49
444.774	29029.79
444.981	29531.54
445.187	30168.46
445.394	31526.26
445.6	31081.85
445.807	33901.9
446.013	32038.25
446.22	33011.04
446.426	34299.21
446.633	34997.57
446.839	35824.95
447.046	34520.39
447.252	36361.51
447.459	36273.45
447.665	36324.65
447.871	37788.95
448.078	39525.63
448.284	37106.98
448.491	38434.06
448.697	40084.72
448.903	40695.02
449.11	40518.89
449.316	40189.17
449.522	40844.52
449.728	41719
449.935	42308.82
450.141	42144.98
450.347	43347.14
450.553	41745.62
450.76	42450.13
450.966	43412.67
451.172	42814.66
451.378	44190.9
451.584	43691.19
451.791	44387.5
451.997	43965.62
452.203	44866.73
452.409	44604.59
452.615	44793
452.821	42939.59
453.027	42679.5
453.233	44596.4
453.44	42902.73
453.646	43418.81
453.852	43582.65
454.058	44141.75
454.264	42996.93
454.47	43939
454.676	42833.1
454.882	44264.63
455.088	40989.92
455.294	41071.84
455.5	41516.25
455.705	42398.93
455.911	40582.38
456.117	39881.97
456.323	39427.32
456.529	37324.06
456.735	38855.94
456.941	38229.26
457.147	37285.15
457.352	36095.28
457.558	35648.82
457.764	36123.95
457.97	35251.52
458.176	34461
458.381	34274.63
458.587	32879.97
458.793	32892.26
458.999	30655.87
459.204	33111.39
459.41	32230.76
459.616	30215.56
459.821	29865.36
460.027	30041.48
460.233	29429.14
460.438	27936.17
460.644	28016.04
460.85	27215.29
461.055	26402.24
461.261	26344.9
461.466	24714.72
461.672	23791.08
461.878	25284.05
462.083	23625.2
462.289	23229.94
462.494	22982.13
462.7	21788.17
462.905	21468.69
463.111	22314.5
463.316	22148.61
463.522	21992.97
463.727	21818.89
463.932	21689.87
464.138	21386.77
464.343	21450.25
464.549	20887.06
464.754	21583.37
464.959	21032.47
465.165	21210.64
465.37	20114.98
465.575	19502.64
465.781	20618.78
465.986	20346.4
466.191	19963.43
466.397	19412.53
466.602	18449.98
466.807	19050.03
467.012	19230.26
467.218	19072.56
467.423	18961.97
467.628	19082.8
467.833	19623.47
468.038	18693.69
468.244	18456.12
468.449	18939.44
468.654	18490.94
468.859	18196.03
469.064	18421.31
469.269	17669.7
469.474	17507.91
469.679	18232.9
469.885	17620.55
470.09	17825.35
470.295	17606.22
470.5	17139.28
470.705	17432.14
470.91	17008.21
471.115	16897.62
471.32	17081.94
471.525	16860.76
471.73	16729.69
471.935	16434.78
472.139	15924.83
472.344	15980.13
472.549	15896.16
472.754	15771.24
472.959	15746.66
473.164	15150.7
473.369	15005.3
473.574	15464.04
473.778	15220.33
473.983	15148.65
474.188	15021.68
474.393	14405.24
474.598	14554.74
474.802	14175.87
475.007	14118.53
475.212	14079.61
475.417	13651.59
475.621	13563.53
475.826	13885.06
476.031	13543.05
476.235	13088.4
476.44	13368.97
476.645	13313.67
476.849	13248.14
477.054	13090.45
477.259	12697.24
477.463	12861.07
477.668	12586.65
477.872	12861.07
478.077	12424.86
478.282	12254.87
478.486	12129.95
478.691	11925.15
478.895	12103.32
479.1	11994.78
479.304	12019.36
479.509	11589.28
479.713	11654.82
479.918	11658.92
480.122	11347.62
480.326	11396.78
480.531	11404.97
480.735	11245.23
480.94	11169.45
481.144	11501.22
481.348	10966.7
481.553	11151.02
481.757	10753.71
481.961	11087.53
482.166	11142.83
482.37	11034.28
482.574	10915.5
482.778	10987.18
482.983	11243.18
483.187	11050.67
483.391	11130.54
483.595	10811.06
483.8	10643.12
484.004	10866.35
484.208	11130.54
484.412	11112.11
484.616	10964.65
484.821	10985.13
485.025	10776.24
485.229	10888.88
485.433	10884.78
485.637	10817.2
485.841	10823.34
486.045	10688.18
486.249	10761.91
486.453	10696.37
486.657	11013.81
486.861	10718.9
487.065	10749.62
487.269	10847.92
487.473	10655.41
487.677	10938.03
487.881	10927.79
488.085	10786.48
488.289	10819.25
488.493	10845.87
488.697	11167.4
488.901	10958.51
489.105	10782.38
489.309	10823.34
489.512	10907.31
489.716	11011.76
489.92	10991.28
490.124	11015.85
490.328	11112.11
490.531	11099.82
490.735	11134.64
490.939	10989.23
491.143	11036.33
491.346	10899.12
491.55	10995.37
491.754	11173.55
491.958	11298.47
492.161	11185.83
492.365	11167.4
492.569	11224.75
492.772	11161.26
492.976	11427.49
493.18	11398.82
493.383	11343.53
493.587	11773.6
493.79	11904.67
493.994	11527.85
494.197	11765.41
494.401	11853.47
494.605	11777.7
494.808	11720.35
495.012	12015.26
495.215	12015.26
495.419	12082.84
495.622	11945.63
495.825	12285.59
496.029	12375.7
496.232	12486.29
496.436	12537.49
496.639	12789.39
496.843	12543.64
497.046	12723.86
497.249	12938.9
497.453	13153.93
497.656	13203.08
497.859	13487.75
498.063	13424.26
498.266	13528.71
498.469	13665.92
498.673	13829.76
498.876	13911.68
499.079	13971.07
499.282	13997.7
499.485	14249.6
499.689	14485.11
499.892	14454.39
500.095	14683.77
500.298	15144.56
500.501	15019.63
500.705	15085.17
500.908	15201.9
501.111	15429.23
501.314	15674.98
501.517	15695.46
501.72	16156.25
501.923	15887.97
502.126	16543.32
502.329	16408.15
502.532	16354.91
502.735	16551.51
502.938	17071.7
503.141	17118.8
503.344	17245.77
503.547	17290.83
503.75	17327.69
503.953	17909.32
504.156	17903.17
504.359	17747.53
504.562	18058.82
504.765	18462.27
504.968	18773.56
505.17	18974.26
505.373	18828.85
505.576	19164.72
505.779	19363.37
505.982	19686.95
506.185	19906.09
506.387	19951.14
506.59	20495.9
506.793	20528.67
506.996	20416.03
507.198	20946.45
507.401	20688.41
507.604	20860.44
507.807	21693.96
508.009	21743.11
508.212	21741.07
508.415	22021.64
508.617	22246.91
508.82	21980.68
509.022	22040.07
509.225	22703.61
509.428	23041.53
509.63	22926.84
509.833	23059.96
510.035	23774.7
510.238	23487.98
510.44	23832.04
510.643	24339.94
510.845	24518.11
511.048	24495.58
511.25	24673.76
511.453	24946.14
511.655	25857.48
511.858	25857.48
512.06	25701.84
512.262	26084.81
512.465	26252.74
512.667	26463.68
512.87	26600.9
513.072	26871.23
513.274	27282.87
513.477	27600.3
513.679	27719.09
513.881	28159.4
514.084	28304.81
514.286	28478.88
514.488	28370.34
514.69	28640.67
514.893	29253.01
515.095	29246.87
515.297	29547.92
515.499	29595.03
515.701	29998.48
515.904	30465.41
516.106	30559.62
516.308	30649.73
516.51	31057.28
516.712	31092.09
516.914	31501.68
517.116	31796.59
517.318	31901.04
517.52	32212.33
517.722	32284.01
517.925	32738.66
518.127	32974.17
518.329	33363.29
518.531	32812.38
518.733	33549.65
518.935	33848.66
519.136	33809.75
519.338	34162
519.54	34129.23
519.742	34704.71
519.944	35009.86
520.146	34975.04
520.348	35298.62
520.55	35421.5
520.752	35835.19
520.954	36183.34
521.155	35597.62
521.357	36214.06
521.559	36732.2
521.761	37094.69
521.963	37000.48
522.164	36787.49
522.366	37182.75
522.568	37661.97
522.77	37805.33
522.971	38356.24
523.173	37688.6
523.375	38247.69
523.576	38294.8
523.778	38253.84
523.98	38575.37
524.181	38706.44
524.383	38952.19
524.584	39269.63
524.786	39017.73
524.988	39025.92
525.189	39429.37
525.391	39527.67
525.592	39830.77
525.794	39988.47
525.995	39865.59
526.197	39763.19
526.398	39761.14
526.6	40084.72
526.801	40051.95
527.003	40129.78
527.204	40082.67
527.406	40287.47
527.607	40303.85
527.808	40465.64
528.01	39609.59
528.211	40148.21
528.412	41014.5
528.614	40713.45
528.815	40451.31
529.016	40877.29
529.218	40555.75
529.419	40832.23
529.62	40752.36
529.822	40635.63
530.023	40641.77
530.224	40740.07
530.425	40371.44
530.626	40387.82
530.828	40047.86
531.029	40836.33
531.23	40428.78
531.431	40346.86
531.632	40367.34
531.833	40621.29
532.035	40324.33
532.236	40561.9
532.437	40666.34
532.638	40086.77
532.839	40299.76
533.04	40545.51
533.241	40066.29
533.442	40668.39
533.643	40109.3
533.844	40193.26
534.045	40400.11
534.246	39974.13
534.447	40371.44
534.648	40441.07
534.849	40113.39
535.05	39967.99
535.251	40070.39
535.451	39849.21
535.652	40434.92
535.853	39818.49
536.054	40277.23
536.255	39875.83
536.456	39705.85
536.657	39920.88
536.857	39613.69
537.058	39369.98
537.259	40408.3
537.46	39730.42
537.66	39759.09
537.861	39630.07
538.062	39406.84
538.263	39664.89
538.463	39386.36
538.664	39208.19
538.865	39447.8
539.065	39404.8
539.266	38927.62
539.466	39619.83
539.667	38960.39
539.868	39836.92
540.068	39298.3
540.269	39230.72
540.469	39484.67
540.67	38905.09
540.87	39159.04
541.071	39130.37
541.271	39042.31
541.472	38866.18
541.672	38550.79
541.873	38845.7
542.073	38571.27
542.274	39136.51
542.474	38733.06
542.675	38518.03
542.875	39275.77
543.075	38638.86
543.276	38178.06
543.476	39138.56
543.676	38493.45
543.877	38898.95
544.077	38710.53
544.277	38698.25
544.478	38436.11
544.678	38819.08
544.878	38649.1
545.078	38298.89
545.279	38530.31
545.479	38681.86
545.679	38796.55
545.879	38831.36
546.079	38624.52
546.28	38362.38
546.48	38348.04
546.68	38542.6
546.88	38671.62
547.08	38747.4
547.28	38505.74
547.48	38128.91
547.68	38589.7
547.88	38266.13
548.081	38477.07
548.281	38405.39
548.481	38737.16
548.681	38972.67
548.881	38749.45
549.081	38591.75
549.28	38618.38
549.48	38663.43
549.68	38712.58
549.88	39179.52
550.08	38139.15
550.28	38540.55
550.48	38618.38
550.68	38927.62
550.88	38264.08
551.08	38169.87
551.279	38374.67
551.479	38106.38
551.679	38444.3
551.879	38452.49
552.079	38542.6
552.278	38305.04
552.478	38503.69
552.678	38565.13
552.878	38909.19
553.077	38599.94
553.277	38481.16
553.477	38767.88
553.676	38991.11
553.876	38577.42
554.076	38452.49
554.275	38403.34
554.475	38317.32
554.674	38814.98
554.874	38972.67
555.074	38595.85
555.273	38745.35
555.473	38923.52
555.672	38948.1
555.872	38749.45
556.071	39048.45
556.271	38868.23
556.47	38835.46
556.67	38464.78
556.869	38690.05
557.068	38741.25
557.268	38452.49
557.467	38575.37
557.667	38804.74
557.866	39073.03
558.065	38614.28
558.265	38558.98
558.464	38376.72
558.663	39165.18
558.863	38317.32
559.062	39197.95
559.261	38419.72
559.461	39156.99
559.66	38389
559.859	38585.61
560.058	38196.49
560.258	39001.35
560.457	38518.03
560.656	39044.35
560.855	38583.56
561.054	39046.4
561.253	38233.36
561.453	38421.77
561.652	38667.53
561.851	38731.01
562.05	38268.17
562.249	38216.97
562.448	38831.36
562.647	38866.18
562.846	38204.69
563.045	38587.66
563.244	38419.72
563.443	38610.18
563.642	38280.46
563.841	38599.94
564.04	38151.44
564.239	38694.15
564.438	38302.99
564.637	38771.97
564.836	38558.98
565.035	38100.24
565.234	38280.46
565.432	38014.23
565.631	38126.86
565.83	38530.31
566.029	37897.49
566.228	38008.08
566.427	37854.48
566.625	37903.63
566.824	37653.78
567.023	37942.55
567.222	37352.73
567.42	37684.5
567.619	37793.04
567.818	37588.25
568.016	37455.13
568.215	37532.95
568.414	37426.46
568.612	37809.43
568.811	37436.7
569.01	37121.31
569.208	36637.99
569.407	37299.48
569.605	36828.45
569.804	37141.79
570.002	36951.33
570.201	37025.06
570.4	36242.73
570.598	36527.4
570.797	36767.01
570.995	36652.33
571.193	36048.18
571.392	36543.78
571.59	36388.14
571.789	36259.12
571.987	36334.89
572.186	35859.76
572.384	35679.54
572.582	35896.63
572.781	36201.77
572.979	35435.83
573.177	35564.85
573.376	35632.44
573.574	35558.71
573.772	35536.18
573.971	35325.24
574.169	35181.88
574.367	34876.74
574.565	35128.64
574.763	35329.34
574.962	34725.19
575.16	34626.88
575.358	34936.13
575.556	34477.38
575.754	34817.35
575.952	34487.62
576.151	34821.44
576.349	34352.46
576.547	34256.2
576.745	34303.31
576.943	34377.03
577.141	33811.79
577.339	33932.62
577.537	33797.46
577.735	33725.78
577.933	33551.7
578.131	33480.02
578.329	33627.48
578.527	33219.93
578.725	33334.62
578.923	33248.6
579.121	32957.79
579.319	32853.34
579.516	33142.11
579.714	33056.09
579.912	32841.06
580.11	33076.57
580.308	32855.39
580.506	32466.28
580.704	31972.72
580.901	32453.99
581.099	32591.2
581.297	32091.5
581.495	32320.87
581.692	32402.79
581.89	31939.95
582.088	32335.21
582.285	31743.34
582.483	31913.33
582.681	31765.87
582.878	31645.04
583.076	31364.47
583.274	31599.99
583.471	31315.32
583.669	31624.56
583.866	31495.54
584.064	31157.63
584.262	30842.24
584.459	31245.69
584.657	30774.66
584.854	30823.81
585.052	30780.8
585.249	30995.84
585.447	30940.54
585.644	30336.39
585.841	30588.29
586.039	30492.04
586.236	30502.28
586.434	30274.95
586.631	30393.73
586.828	30277
587.026	30213.51
587.223	30088.59
587.42	30268.81
587.618	29949.32
587.815	29961.61
588.012	29758.86
588.21	29678.99
588.407	29926.8
588.604	29500.82
588.801	29185.43
588.999	29101.47
589.196	29476.24
589.393	29355.41
589.59	29443.48
589.787	29066.65
589.984	29371.8
590.182	29040.03
590.379	29089.18
590.576	28982.68
590.773	28892.57
590.97	28796.32
591.167	29044.12
591.364	28753.31
591.561	28812.7
591.758	28745.12
591.955	28724.64
592.152	28714.4
592.349	28378.53
592.546	28528.03
592.743	28614.05
592.94	28259.75
593.137	28208.55
593.334	28374.44
593.531	28085.67
593.727	28335.52
593.924	28011.95
594.121	27944.36
594.318	28085.67
594.515	27827.63
594.712	28145.06
594.908	27782.57
595.105	27944.36
595.302	27899.31
595.499	28122.54
595.696	27954.6
595.892	27676.08
596.089	27762.09
596.286	27829.68
596.482	27688.37
596.679	27643.31
596.876	27485.62
597.072	27671.98
597.269	27618.74
597.466	27516.34
597.662	27424.18
597.859	27495.86
598.055	27250.1
598.252	27266.49
598.448	27426.23
598.645	27135.42
598.841	27043.26
599.038	27252.15
599.234	27276.73
599.431	27323.83
599.627	27080.12
599.824	27502
600.02	27069.88
600.217	27303.35
600.413	27133.37
600.609	27190.71
600.806	26914.23
601.002	27274.68
601.198	27207.09
601.395	26947
601.591	26840.51
601.787	27243.96
601.984	27037.11
602.18	27360.69
602.376	27067.83
602.572	26803.64
602.769	27135.42
602.965	27139.51
603.161	27192.76
603.357	26947
603.553	26832.32
603.75	27082.17
603.946	26992.06
604.142	27018.68
604.338	26752.45
604.534	27155.89
604.73	27061.69
604.926	26959.29
605.122	27280.82
605.318	26742.21
605.514	26822.08
605.71	27053.5
605.906	26914.23
606.102	27295.16
606.298	27205.05
606.494	27080.12
606.69	26985.91
606.886	27542.96
607.082	26863.04
607.278	27139.51
607.474	26930.62
607.67	27385.27
607.866	26977.72
608.062	27411.89
608.257	27192.76
608.453	27342.26
608.649	27264.44
608.845	26887.61
609.041	27112.89
609.236	27436.47
609.432	27329.97
609.628	27276.73
609.824	27377.08
610.019	27225.53
610.215	27422.13
610.411	27585.97
610.606	27379.12
610.802	27379.12
610.998	27073.98
611.193	27456.95
611.389	27260.34
611.584	27291.06
611.78	26830.27
611.976	27538.87
612.171	27372.98
612.367	27508.15
612.562	27284.92
612.758	27205.05
612.953	27323.83
613.149	27448.75
613.344	27395.51
613.539	27919.79
613.735	27680.17
613.93	27667.89
614.126	27643.31
614.321	27598.26
614.517	27522.48
614.712	27266.49
614.907	27368.88
615.103	27499.95
615.298	27258.29
615.493	27899.31
615.688	27289.01
615.884	27770.29
616.079	27344.31
616.274	27651.5
616.47	27653.55
616.665	27534.77
616.86	27323.83
617.055	27387.32
617.25	27311.54
617.445	27686.32
617.641	27063.74
617.836	27397.56
618.031	27112.89
618.226	27526.58
618.421	27043.26
618.616	27219.38
618.811	26643.9
619.006	27309.49
619.201	26858.94
619.396	27104.7
619.591	26631.61
619.786	27030.97
619.981	26557.89
620.176	26680.77
620.371	26559.94
620.566	26449.35
620.761	26031.56
620.956	26516.93
621.151	26275.27
621.346	26000.84
621.541	25724.36
621.735	26285.51
621.93	25425.36
622.125	25939.4
622.32	25558.48
622.515	25683.41
622.709	25451.98
622.904	25576.91
623.099	25296.34
623.294	25171.41
623.488	24552.93
623.683	25052.63
623.878	24368.61
624.072	24610.27
624.267	24747.48
624.462	24546.78
624.656	24534.49
624.851	24272.35
625.046	24198.63
625.24	24253.92
625.435	24083.94
625.629	23952.87
625.824	23297.52
626.018	23600.62
626.213	23285.23
626.407	23215.6
626.602	23406.06
626.796	23285.23
626.991	23430.64
627.185	23258.61
627.38	23074.29
627.574	22547.97
627.768	22545.92
627.963	22441.47
628.157	22406.66
628.352	22461.95
628.546	21968.39
628.74	22322.69
628.935	22124.04
629.129	21876.23
629.323	21702.15
629.517	21472.78
629.712	21771.79
629.906	21566.99
630.1	21145.11
630.294	21536.27
630.489	20921.88
630.683	21136.91
630.877	21011.99
631.071	21098
631.265	20760.09
631.459	20956.69
631.653	20416.03
631.848	20827.67
632.042	20313.63
632.236	20254.24
632.43	20461.09
632.624	20063.78
632.818	19713.58
633.012	19766.82
633.206	19721.77
633.4	20006.44
633.594	19695.14
633.788	19445.29
633.982	19680.81
634.176	19248.69
634.369	19160.62
634.563	19105.33
634.757	18951.73
634.951	19166.77
635.145	18822.71
635.339	18961.97
635.533	18556.47
635.726	18662.97
635.92	18347.58
636.114	18761.27
636.308	18097.73
636.501	18454.08
636.695	18165.31
636.889	17909.32
637.083	18024
637.276	17860.16
637.47	17575.5
637.664	17591.88
637.857	17612.36
638.051	17532.49
638.244	17071.7
638.438	17057.36
638.632	17172.05
638.825	16952.91
639.019	16969.3
639.212	16727.64
639.406	16606.81
639.599	16674.39
639.793	16541.27
639.986	16526.94
640.18	16483.93
640.373	16299.61
640.567	16131.68
640.76	16055.9
640.954	16258.65
641.147	16006.75
641.34	15869.54
641.534	15900.26
641.727	15717.99
641.92	15576.68
642.114	15423.08
642.307	15345.26
642.5	15373.93
642.694	15218.29
642.887	14964.34
643.08	15242.86
643.273	15013.49
643.467	15083.12
643.66	14812.79
643.853	14575.22
644.046	14581.37
644.239	14634.61
644.432	14489.21
644.626	14204.54
644.819	14218.88
645.012	14132.86
645.205	14315.13
645.398	14161.53
645.591	13852.29
645.784	13878.91
645.977	13614.73
646.17	13702.79
646.363	13561.48
646.556	13407.88
646.749	13506.18
646.942	13301.39
647.135	13256.33
647.328	13278.86
647.521	13201.04
647.714	13084.3
647.907	13080.21
648.099	12955.28
648.292	12846.74
648.485	12869.26
648.678	12859.03
648.871	12545.69
649.064	12672.66
649.256	12480.15
649.449	12730
649.642	12445.34
649.835	12289.69
650.027	12050.08
650.22	12007.07
650.413	12134.04
650.605	12201.63
650.798	12019.36
650.991	11660.96
651.183	12103.32
651.376	11681.44
651.568	11759.27
651.761	11683.49
651.954	11663.01
652.146	11507.37
652.339	11501.22
652.531	11572.9
652.724	11499.17
652.916	11224.75
653.109	11171.5
653.301	11175.59
653.494	11085.48
653.686	10874.54
653.879	10983.09
654.071	10849.97
654.263	10886.83
654.456	10788.53
654.648	10917.55
654.84	10741.43
655.033	10710.71
655.225	10596.02
655.417	10370.74
655.61	10423.99
655.802	10389.17
655.994	10473.14
656.186	10401.46
656.379	10374.84
656.571	10200.76
656.763	10118.84
656.955	10188.47
657.148	9866.94
657.34	10106.56
657.532	9883.33
657.724	9850.56
657.916	9746.11
658.108	9807.55
658.3	9684.67
658.492	9692.87
658.684	9518.79
658.876	9541.32
659.068	9381.57
659.26	9414.34
659.452	9469.64
659.644	9397.96
659.836	9230.02
660.028	9410.25
660.22	9156.3
660.412	9262.79
660.604	9178.83
660.796	9144.01
660.988	8971.98
661.18	9039.56
661.372	8867.53
661.563	8963.79
661.755	8656.59
661.947	8820.43
662.139	8670.93
662.331	8799.95
662.522	8611.54
662.714	8552.15
662.906	8464.08
663.097	8492.76
663.289	8396.5
663.481	8242.9
663.673	8345.3
663.864	8326.87
664.056	8220.38
664.247	8251.1
664.439	8136.41
664.631	8132.31
664.822	8054.49
665.014	7948
665.205	8068.83
665.397	7984.86
665.588	7966.43
665.78	7837.41
665.971	7628.51
666.163	7765.73
666.354	7821.02
666.546	7603.94
666.737	7655.14
666.929	7575.27
667.12	7646.94
667.311	7665.38
667.503	7460.58
667.694	7509.73
667.885	7405.28
668.077	7440.1
668.268	7255.78
668.459	7218.92
668.651	7223.02
668.842	7349.99
669.033	7235.3
669.224	7137
669.416	7274.21
669.607	7106.28
669.798	6928.11
669.989	7182.06
670.18	6924.01
670.371	6876.91
670.563	7046.89
670.754	6659.82
670.945	6903.53
671.136	7016.17
671.327	6883.05
671.518	6819.57
671.709	6878.96
671.9	6860.52
672.091	6813.42
672.282	6430.45
672.473	6731.5
672.664	6723.31
672.855	6555.38
673.046	6829.81
673.237	6788.85
673.428	6579.95
673.619	6547.19
673.809	6547.19
674	6457.07
674.191	6432.5
674.382	6522.61
674.573	6473.46
674.764	6334.2
674.954	6401.78
675.145	6465.27
675.336	6409.97
675.527	6328.05
675.717	6289.14
675.908	6211.32
676.099	6338.29
676.289	6291.19
676.48	6225.65
676.671	6244.09
676.861	6383.35
677.052	6156.02
677.243	6090.49
677.433	6024.95
677.624	6252.28
677.814	6115.06
678.005	6104.82
678.195	6194.93
678.386	6139.64
678.576	6039.29
678.767	6147.83
678.957	5961.47
679.148	6096.63
679.338	6119.16
679.529	5883.64
679.719	6092.54
679.909	5981.95
680.1	5912.32
680.29	5983.99
680.481	5910.27
680.671	5959.42
680.861	5914.36
681.052	6082.3
681.242	5842.68
681.432	5875.45
681.622	5842.68
681.813	5900.03
682.003	5973.75
682.193	5859.07
682.383	5926.65
682.573	5900.03
682.764	5844.73
682.954	5932.79
683.144	5916.41
683.334	5691.13
683.524	5705.47
683.714	5881.6
683.904	5768.96
684.094	5711.61
684.284	5848.83
684.474	5816.06
684.664	5719.81
684.854	5771.01
685.044	5607.17
685.234	5818.11
685.424	5654.27
685.614	5695.23
685.804	5705.47
685.994	5652.22
686.184	5715.71
686.374	5617.41
686.564	5474.05
686.753	5629.7
686.943	5416.71
687.133	5498.63
687.323	5512.96
687.513	5453.57
687.702	5388.04
687.892	5388.04
688.082	5414.66
688.272	5484.29
688.461	5457.67
688.651	5455.62
688.841	5435.14
689.03	5441.28
689.22	5285.64
689.41	5338.88
689.599	5302.02
689.789	5349.12
689.979	5187.33
690.168	5222.15
690.358	5304.07
690.547	5230.34
690.737	5367.56
690.926	5187.33
691.116	5129.99
691.305	5072.65
691.495	4998.92
691.684	5254.92
691.874	5277.44
692.063	4925.19
692.252	5060.36
692.442	5109.51
692.631	4933.39
692.82	5033.74
693.01	4894.47
693.199	5132.04
693.388	4986.63
693.578	4867.85
693.767	4986.63
693.956	4818.7
694.146	4972.3
694.335	4851.47
694.524	4998.92
694.713	4835.08
694.902	4826.89
695.092	4951.82
695.281	4695.82
695.47	4708.11
695.659	4843.28
695.848	4843.28
696.037	4669.2
696.226	4761.36
696.415	4794.12
696.604	4775.69
696.793	4720.4
696.982	4589.33
697.171	4810.51
697.36	4581.14
697.549	4622.09
697.738	4622.09
697.927	4681.49
698.116	4476.69
698.305	4654.86
698.494	4734.73
698.683	4579.09
698.872	4658.96
699.061	4460.31
699.25	4620.05
699.438	4558.61
699.627	4415.25
699.816	4534.03
700.005	4552.46
700.193	4425.49
700.382	4476.69
700.571	4652.81
700.76	4525.84
700.948	4493.07
701.137	4470.55
701.326	4466.45
701.514	4458.26
701.703	4396.82
701.892	4304.66
702.08	4591.38
702.269	4327.19
702.457	4355.86
702.646	4529.94
702.834	4220.69
703.023	4200.21
703.212	4343.57
703.4	4294.42
703.589	4245.27
703.777	4288.28
703.965	4175.64
704.154	4247.32
704.342	4228.88
704.531	4210.45
704.719	4146.97
704.907	4187.93
705.096	4206.36
705.284	4142.87
705.472	4253.46
705.661	4073.24
705.849	4151.06
706.037	4116.25
706.226	4155.16
706.414	4036.38
706.602	4159.25
706.79	4001.56
706.979	4052.76
707.167	3886.87
707.355	4015.9
707.543	4038.42
707.731	4034.33
707.919	3952.41
708.107	3956.5
708.296	3925.79
708.484	3876.63
708.672	3876.63
708.86	3901.21
709.048	3860.25
709.236	3860.25
709.424	3737.37
709.612	4138.77
709.8	3952.41
709.988	3931.93
710.176	3913.5
710.364	3974.94
710.551	3811.1
710.739	3792.67
710.927	3786.52
711.115	3772.19
711.303	3946.27
711.491	3784.48
711.679	3704.6
711.866	3753.76
712.054	3798.81
712.242	3591.97
712.43	3761.95
712.617	3790.62
712.805	3524.38
712.993	3606.3
713.181	3573.53
713.368	3690.27
713.556	3786.52
713.744	3516.19
713.931	3786.52
714.119	3499.81
714.306	3647.26
714.494	3536.67
714.682	3696.41
714.869	3479.33
715.057	3481.38
715.244	3532.58
715.432	3508
715.619	3448.61
715.807	3462.94
715.994	3587.87
716.182	3397.41
716.369	3526.43
716.556	3501.86
716.744	3315.49
716.931	3473.18
717.119	3346.21
717.306	3442.46
717.493	3262.24
717.681	3491.62
717.868	3413.79
718.055	3426.08
718.242	3264.29
718.43	3344.16
718.617	3491.62
718.804	3231.52
718.991	3362.59
719.179	3256.1
719.366	3385.12
719.553	3434.27
719.74	3180.32
719.927	3313.44
720.114	3170.08
720.301	3342.11
720.488	3272.48
720.676	3204.9
720.863	3335.97
721.05	3266.34
721.237	3178.28
721.424	3254.05
721.611	3223.33
721.798	3229.48
721.985	3180.32
722.172	3049.25
722.358	3184.42
722.545	3077.93
722.732	3143.46
722.919	3049.25
723.106	2955.05
723.293	3268.39
723.48	3127.08
723.667	3161.89
723.853	3059.49
724.04	3155.75
724.227	3145.51
724.414	2983.72
724.6	3149.61
724.787	3084.07
724.974	3049.25
725.161	2963.24
725.347	2914.09
725.534	2993.96
725.72	3012.39
725.907	2914.09
726.094	3014.44
726.28	3014.44
726.467	2873.13
726.653	2934.57
726.84	2936.62
727.027	3184.42
727.213	2942.76
727.4	3045.16
727.586	2959.14
727.773	2838.31
727.959	2953
728.145	2901.8
728.332	2787.11
728.518	2889.51
728.705	2975.53
728.891	2918.18
729.077	2973.48
729.264	2864.94
729.45	2864.94
729.636	2957.1
729.823	2791.21
730.009	2840.36
730.195	2969.38
730.382	2989.86
730.568	2705.2
730.754	2766.64
730.94	2840.36
731.126	2805.55
731.313	2815.79
731.499	2719.53
731.685	2836.27
731.871	2807.59
732.057	2721.58
732.243	2864.94
732.429	2731.82
732.615	2799.4
732.801	2705.2
732.987	2754.35
733.173	2721.58
733.359	2817.83
733.545	2760.49
733.731	2752.3
733.917	2731.82
734.103	2674.48
734.289	2731.82
734.475	2688.81
734.661	2735.92
734.847	2703.15
735.033	2656.04
735.219	2625.33
735.404	2594.61
735.59	2688.81
735.776	2598.7
735.962	2697
736.148	2719.53
736.333	2649.9
736.519	2541.36
736.705	2484.02
736.89	2656.04
737.076	2594.61
737.262	2502.45
737.447	2557.74
737.633	2627.37
737.819	2553.65
738.004	2543.41
738.19	2545.45
738.375	2492.21
738.561	2541.36
738.747	2504.5
738.932	2516.78
739.118	2504.5
739.303	2549.55
739.489	2424.62
739.674	2359.09
739.859	2436.91
740.045	2420.53
740.23	2426.67
740.416	2373.43
740.601	2500.4
740.786	2240.31
740.972	2334.51
741.157	2434.86
741.342	2305.84
741.528	2371.38
741.713	2354.99
741.898	2365.23
742.084	2410.29
742.269	2344.75
742.454	2393.9
742.639	2271.03
742.824	2215.73
743.01	2389.81
743.195	2254.64
743.38	2406.19
743.565	2240.31
743.75	2301.75
743.935	2182.96
744.12	2271.03
744.305	2336.56
744.49	2115.38
744.675	2221.88
744.86	2139.96
745.045	2180.92
745.23	2215.73
745.415	2250.55
745.6	2150.2
745.785	2164.53
745.97	2103.09
746.155	2164.53
746.34	2232.12
746.525	2152.24
746.71	2228.02
746.895	2045.75
747.079	2058.04
747.264	1986.36
747.449	2055.99
747.634	2107.19
747.819	2062.13
748.003	1969.98
748.188	1935.16
748.373	1902.39
748.557	1963.83
748.742	1890.1
748.927	1984.31
749.111	1818.43
749.296	1931.06
749.481	1939.26
749.665	1847.1
749.85	1820.47
750.034	1873.72
750.219	1724.22
750.404	1759.03
750.588	1883.96
750.773	1754.94
750.957	1797.95
751.141	1754.94
751.326	1773.37
751.51	1615.68
751.695	1812.28
751.879	1644.35
752.064	1804.09
752.248	1738.55
752.432	1691.45
752.617	1705.79
752.801	1623.87
752.985	1623.87
753.17	1707.84
753.354	1689.4
753.538	1568.57
753.722	1623.87
753.907	1636.16
754.091	1535.81
754.275	1560.38
754.459	1593.15
754.643	1468.22
754.828	1525.57
755.012	1582.91
755.196	1609.53
755.38	1511.23
755.564	1468.22
755.748	1478.46
755.932	1591.1
756.116	1503.04
756.3	1529.66
756.484	1484.61
756.668	1472.32
756.852	1296.19
757.036	1378.11
757.22	1480.51
757.404	1394.5
757.588	1421.12
757.772	1304.39
757.956	1353.54
758.14	1406.78
758.323	1326.91
758.507	1363.78
758.691	1337.15
758.875	1384.26
759.059	1355.58
759.242	1328.96
759.426	1369.92
759.61	1206.08
759.794	1294.15
759.977	1234.75
760.161	1324.87
760.345	1267.52
760.528	1378.11
760.712	1247.04
760.895	1259.33
761.079	1199.94
761.263	1115.97
761.446	1247.04
761.63	1214.27
761.813	1242.95
761.997	1058.63
762.18	1296.19
762.364	1173.32
762.547	1132.36
762.731	1191.75
762.914	1150.79
763.098	1165.12
763.281	1197.89
763.464	1118.02
763.648	1183.56
763.831	1130.31
764.015	1042.25
764.198	1140.55
764.381	1060.68
764.564	1036.1
764.748	1136.45
764.931	1206.08
765.114	1066.82
765.297	1146.69
765.481	1048.39
765.664	1109.83
765.847	1042.25
766.03	1085.25
766.213	1052.49
766.397	1103.68
766.58	1124.16
766.763	1107.78
766.946	1025.86
767.129	1034.05
767.312	927.56
767.495	1021.77
767.678	925.51
767.861	997.19
768.044	1070.92
768.227	962.37
768.41	1052.49
768.593	1011.53
768.776	1034.05
768.959	948.04
769.142	1091.4
769.324	984.9
769.507	1036.1
769.69	952.13
769.873	1003.33
770.056	1058.63
770.239	1007.43
770.421	1058.63
770.604	1066.82
770.787	964.42
770.97	902.98
771.152	913.22
771.335	935.75
771.518	966.47
771.7	958.28
771.883	993.09
772.066	927.56
772.248	966.47
772.431	1003.33
772.613	935.75
772.796	806.73
772.978	911.18
773.161	919.37
773.343	886.6
773.526	905.03
773.708	833.35
773.891	808.78
774.073	921.42
774.256	866.12
774.438	943.94
774.621	749.39
774.803	837.45
774.985	771.91
775.168	894.79
775.35	821.06
775.532	782.15
775.715	806.73
775.897	870.22
776.079	804.68
776.261	788.3
776.444	835.4
776.626	808.78
776.808	790.35
776.99	698.19
777.173	776.01
777.355	657.23
777.537	743.24
777.719	741.19
777.901	724.81
778.083	722.76
778.265	730.95
778.447	708.43
778.629	761.67
778.811	702.28
778.993	685.9
779.175	741.19
779.357	724.81
779.539	692.04
779.721	642.89
779.903	653.13
780.085	675.66
780.267	667.47
780.449	657.23
780.631	560.97
780.812	673.61
780.994	675.66
781.176	710.47
781.358	558.92
781.54	702.28
781.721	722.76
781.903	624.46
782.085	599.88
782.267	708.43
782.448	560.97
782.63	632.65
782.812	603.98
782.993	591.69
783.175	618.32
783.357	618.32
783.538	614.22
783.72	520.01
783.901	550.73
784.083	577.36
784.264	655.18
784.446	515.92
784.627	530.25
784.809	528.21
784.99	477.01
785.172	558.92
785.353	489.29
785.535	563.02
785.716	538.45
785.897	526.16
786.079	468.81
786.26	499.53
786.441	511.82
786.623	522.06
786.804	477.01
786.985	493.39
787.167	509.77
787.348	522.06
787.529	487.25
787.71	610.12
787.891	452.43
788.073	427.85
788.254	454.48
788.435	481.1
788.616	479.05
788.797	407.38
788.978	468.81
789.159	468.81
789.34	530.25
789.522	405.33
789.703	452.43
789.884	452.43
790.065	411.47
790.246	444.24
790.427	468.81
790.607	495.44
790.788	485.2
790.969	395.09
791.15	438.09
791.331	411.47
791.512	460.62
791.693	413.52
791.874	362.32
792.054	386.9
792.235	339.79
792.416	405.33
792.597	366.42
792.778	362.32
792.958	431.95
793.139	436.05
793.32	378.7
793.5	341.84
793.681	347.98
793.862	345.94
794.042	438.09
794.223	323.41
794.404	331.6
794.584	382.8
794.765	405.33
794.945	401.23
795.126	444.24
795.306	382.8
795.487	313.17
795.667	296.78
795.848	380.75
796.028	266.07
796.209	352.08
796.389	384.85
796.57	354.13
796.75	313.17
796.93	350.03
797.111	282.45
797.291	304.98
797.471	261.97
797.652	304.98
797.832	335.7
798.012	405.33
798.192	317.26
798.373	274.26
798.553	231.25
798.733	313.17
798.913	241.49
799.093	298.83
799.274	321.36
799.454	354.13
799.634	333.65
799.814	329.55
799.994	325.46
800.174	239.44
800.354	286.54
800.534	233.3
800.714	255.83
800.894	313.17
801.074	182.1
801.254	247.63
801.434	264.02
801.614	280.4
801.794	198.48
801.974	1083.2
802.154	309.07
802.334	325.46
802.514	231.25
802.693	266.07
802.873	241.49
803.053	264.02
803.233	225.11
803.413	313.17
803.592	276.31
803.772	210.77
803.952	276.31
804.131	253.78
804.311	257.87
804.491	278.35
804.67	231.25
804.85	169.81
805.03	243.54
805.209	255.83
805.389	296.78
805.568	247.63
805.748	165.71
805.928	264.02
806.107	264.02
806.287	247.63
806.466	223.06
806.646	241.49
806.825	257.87
807.004	247.63
807.184	198.48
807.363	227.15
807.543	196.43
807.722	200.53
807.901	268.11
808.081	264.02
808.26	202.58
808.439	239.44
808.619	280.4
808.798	216.91
808.977	257.87
809.156	282.45
809.336	186.19
809.515	223.06
809.694	218.96
809.873	206.67
810.052	231.25
810.231	239.44
810.411	233.3
810.59	261.97
810.769	255.83
810.948	200.53
811.127	161.62
811.306	231.25
811.485	194.39
811.664	259.92
811.843	225.11
812.022	182.1
812.201	104.28
812.38	178
812.559	229.2
812.737	231.25
812.916	143.19
813.095	192.34
813.274	208.72
813.453	137.04
813.632	255.83
813.811	198.48
813.989	69.46
814.168	235.35
814.347	141.14
814.526	223.06
814.704	159.57
814.883	225.11
815.062	132.95
815.24	143.19
815.419	175.95
815.598	153.43
815.776	149.33
815.955	120.66
816.133	110.42
816.312	120.66
816.49	229.2
816.669	198.48
816.847	182.1
817.026	194.39
817.204	182.1
817.383	214.87
817.561	73.56
817.74	173.91
817.918	157.52
818.097	186.19
818.275	182.1
818.453	159.57
818.632	130.9
818.81	165.71
818.988	147.28
819.167	169.81
819.345	173.91
819.523	114.52
819.701	96.08
819.879	135
820.058	128.85
820.236	180.05
820.414	145.24
820.592	151.38
820.77	159.57
820.948	194.39
821.127	165.71
821.305	149.33
821.483	83.8
821.661	141.14
821.839	178
822.017	118.61
822.195	75.6
822.373	83.8
822.551	182.1
822.729	135
822.907	169.81
823.085	87.89
823.262	102.23
823.44	67.41
823.618	161.62
823.796	139.09
823.974	102.23
824.152	83.8
824.329	110.42
824.507	104.28
824.685	135
824.863	91.99
825.04	175.95
825.218	169.81
825.396	91.99
825.574	161.62
825.751	69.46
825.929	184.15
826.107	153.43
826.284	67.41
826.462	135
826.639	10.07
826.817	83.8
826.994	100.18
827.172	85.84
827.349	83.8
827.527	112.47
827.704	83.8
827.882	63.32
828.059	102.23
828.237	81.75
828.414	110.42
828.591	91.99
828.769	73.56
828.946	110.42
829.124	75.6
829.301	229.2
829.478	122.71
829.655	178
829.833	51.03
830.01	46.93
830.187	126.8
830.364	42.84
830.542	69.46
830.719	182.1
830.896	112.47
831.073	3.93
831.25	132.95
831.427	165.71
831.604	132.95
831.782	135
831.959	75.6
832.136	91.99
832.313	116.56
832.49	79.7
832.667	112.47
832.844	114.52
833.021	83.8
833.198	83.8
833.374	116.56
833.551	126.8
833.728	100.18
833.905	116.56
834.082	34.64
834.259	100.18
834.436	94.04
834.612	112.47
834.789	153.43
834.966	110.42
835.143	124.76
835.319	77.65
835.496	118.61
835.673	165.71
835.85	165.71
836.026	40.79
836.203	128.85
836.38	48.98
836.556	75.6
836.733	122.71
836.909	124.76
837.086	108.37
837.262	-2.22
837.439	145.24
837.616	77.65
837.792	32.6
837.968	94.04
838.145	91.99
838.321	57.17
838.498	79.7
838.674	167.76
838.851	-10.41
839.027	104.28
839.203	55.12
839.38	135
839.556	137.04
839.732	206.67
839.909	139.09
840.085	98.13
840.261	44.88
840.437	42.84
840.614	46.93
840.79	135
840.966	-10.41
841.142	59.22
841.318	36.69
841.494	102.23
841.671	100.18
841.847	75.6
842.023	32.6
842.199	75.6
842.375	126.8
842.551	1.88
842.727	73.56
842.903	145.24
843.079	28.5
843.255	83.8
843.431	34.64
843.607	114.52
843.783	3.93
843.959	36.69
844.134	32.6
844.31	63.32
844.486	75.6
844.662	42.84
844.838	34.64
845.013	63.32
845.189	132.95
845.365	18.26
845.541	59.22
845.716	83.8
845.892	116.56
846.068	51.03
846.244	83.8
846.419	1.88
846.595	108.37
846.77	-6.31
846.946	40.79
847.122	106.32
847.297	51.03
847.473	69.46
847.648	94.04
847.824	36.69
847.999	38.74
848.175	-18.6
848.35	24.4
848.526	110.42
848.701	112.47
848.876	132.95
849.052	112.47
849.227	3.93
849.403	1.88
849.578	44.88
849.753	61.27
849.929	18.26
850.104	46.93
850.279	85.84
850.454	42.84
850.63	100.18
850.805	61.27
850.98	28.5
851.155	42.84
851.33	26.45
851.505	-80.04
851.681	153.43
851.856	-57.51
852.031	59.22
852.206	26.45
852.381	3.93
852.556	145.24
852.731	18.26
852.906	124.76
853.081	34.64
853.256	85.84
853.431	36.69
853.606	55.12
853.781	59.22
853.956	-20.65
854.131	28.5
854.305	-8.36
854.48	-10.41
854.655	24.4
854.83	59.22
855.005	135
855.18	141.14
855.354	79.7
855.529	18.26
855.704	18.26
855.879	112.47
856.053	26.45
856.228	34.64
856.403	67.41
856.577	55.12
856.752	46.93
856.926	55.12
857.101	20.31
857.276	38.74
857.45	34.64
857.625	61.27
857.799	48.98
857.974	69.46
858.148	34.64
858.323	59.22
858.497	46.93
858.672	-6.31
858.846	32.6
859.02	75.6
859.195	34.64
859.369	-4.27
859.543	67.41
859.718	14.17
859.892	83.8
860.066	71.51
860.241	-0.17
860.415	-20.65
860.589	108.37
860.763	18.26
860.938	-14.51
861.112	63.32
861.286	-26.79
861.46	65.36
861.634	42.84
861.808	28.5
861.982	14.17
862.157	67.41
862.331	48.98
862.505	18.26
862.679	-34.99
862.853	38.74
863.027	-14.51
863.201	94.04
863.375	-47.27
863.549	71.51
863.722	18.26
863.896	75.6
864.07	63.32
864.244	51.03
864.418	30.55
864.592	59.22
864.766	1.88
864.939	42.84
865.113	12.12
865.287	-6.31
865.461	-75.95
865.634	118.61
865.808	18.26
865.982	1.88
866.156	59.22
866.329	-65.71
866.503	124.76
866.676	51.03
866.85	12.12
867.024	65.36
867.197	51.03
867.371	126.8
867.544	12.12
867.718	51.03
867.891	65.36
868.065	34.64
868.238	1.88
868.412	38.74
868.585	28.5
868.759	3.93
868.932	67.41
869.105	-22.7
869.279	-22.7
869.452	57.17
869.625	32.6
869.799	26.45
869.972	-34.99
870.145	1.88
870.319	-30.89
870.492	75.6
870.665	46.93
870.838	63.32
871.011	-30.89
871.185	1.88
871.358	5.97
871.531	-12.46
871.704	-37.03
871.877	18.26
872.05	-51.37
872.223	1.88
872.396	85.84
872.569	40.79
872.742	-4.27
872.915	-34.99
873.088	-18.6
873.261	22.36
873.434	36.69
873.607	53.08
873.78	75.6
873.953	36.69
874.126	69.46
874.299	79.7
874.471	-14.51
874.644	81.75
874.817	26.45
874.99	83.8
875.163	-20.65
875.335	42.84
875.508	-22.7
875.681	46.93
875.853	1.88
876.026	34.64
876.199	67.41
876.371	30.55
876.544	51.03
876.717	38.74
876.889	40.79
877.062	-8.36
877.234	1.88
877.407	83.8
877.579	42.84
877.752	-80.04
877.924	20.31
878.097	26.45
878.269	81.75
878.442	34.64
878.614	-26.79
878.786	38.74
878.959	83.8
879.131	-18.6
879.303	-16.55
879.476	34.64
879.648	-4.27
879.82	26.45
879.993	1.88
880.165	67.41
880.337	1.88
880.509	63.32
880.681	5.97
880.854	-14.51
881.026	85.84
881.198	73.56
881.37	28.5
881.542	10.07
881.714	61.27
881.886	-6.31
882.058	79.7
882.23	51.03
882.402	63.32
882.574	46.93
882.746	-12.46
882.918	110.42
883.09	53.08
883.262	36.69
883.434	-26.79
883.606	-65.71
883.778	40.79
883.95	145.24
884.122	3.93
884.293	53.08
884.465	42.84
884.637	51.03
884.809	-18.6
884.98	10.07
885.152	1.88
885.324	5.97
885.496	34.64
885.667	1.88
885.839	16.21
886.011	38.74
886.182	79.7
886.354	69.46
886.525	42.84
886.697	57.17
886.869	10.07
887.04	38.74
887.212	55.12
887.383	120.66
887.555	22.36
887.726	5.97
887.897	36.69
888.069	42.84
888.24	42.84
888.412	42.84
888.583	26.45
888.754	-14.51
888.926	-6.31
889.097	32.6
889.268	-80.04
889.44	-45.23
889.611	-26.79
889.782	12.12
889.953	-10.41
890.125	18.26
890.296	-55.47
890.467	8.02
890.638	-6.31
890.809	116.56
890.98	-4.27
891.151	69.46
891.323	91.99
891.494	-6.31
891.665	-26.79
891.836	22.36
892.007	30.55
892.178	59.22
892.349	5.97
892.52	42.84
892.691	14.17
892.862	26.45
893.032	-28.84
893.203	34.64
893.374	-55.47
893.545	100.18
893.716	108.37
893.887	141.14
894.057	30.55
894.228	77.65
894.399	-10.41
894.57	91.99
894.74	-4.27
894.911	-22.7
895.082	83.8
895.253	57.17
895.423	87.89
895.594	83.8
895.764	71.51
895.935	14.17
896.106	-20.65
896.276	3.93
896.447	-2.22
896.617	-51.37
896.788	20.31
896.958	42.84
897.129	-10.41
897.299	18.26
897.47	151.38
897.64	-2.22
897.81	-34.99
897.981	20.31
898.151	81.75
898.322	-28.84
898.492	44.88
898.662	-22.7
898.832	-4.27
899.003	28.5
899.173	-10.41
899.343	-45.23
899.513	5.97
