Data from USB4F104151__282__14-34-45-976.txt Node

Date: Thu Mar 13 14:34:45 EDT 2025
User: louis
Spectrometer: USB4F10415
Trigger mode: 4
Integration Time (sec): 2.500000E-2
Scans to average: 1
Electric dark correction enabled: true
Nonlinearity correction enabled: false
Boxcar width: 0
XAxis mode: Wavelengths
Number of Pixels in Spectrum: 3648
>>>>>Begin Spectral Data<<<<<
178.204	-98.3
178.424	-98.3
178.644	-98.3
178.864	-159.74
179.084	-219.13
179.304	2.05
179.524	16.38
179.744	2.05
179.964	-6.14
180.184	22.53
180.404	-40.96
180.624	32.77
180.844	30.72
181.064	-38.91
181.283	22.53
181.503	-28.67
181.723	-14.34
181.943	-16.38
182.163	98.3
182.383	32.77
182.602	114.69
182.822	88.06
183.042	26.62
183.262	24.58
183.482	-8.19
183.701	24.58
183.921	-2.05
184.141	-16.38
184.361	22.53
184.58	14.34
184.8	32.77
185.02	38.91
185.239	47.1
185.459	10.24
185.679	75.77
185.898	-40.96
186.118	34.82
186.338	79.87
186.557	59.39
186.777	-14.34
186.997	16.38
187.216	49.15
187.436	30.72
187.655	61.44
187.875	38.91
188.095	14.34
188.314	-10.24
188.534	16.38
188.753	59.39
188.973	59.39
189.192	139.26
189.412	10.24
189.631	43.01
189.851	67.58
190.07	79.87
190.29	-67.58
190.509	-2.05
190.729	38.91
190.948	94.21
191.168	153.6
191.387	81.92
191.607	45.06
191.826	38.91
192.045	71.68
192.265	18.43
192.484	34.82
192.704	90.11
192.923	-24.58
193.142	108.54
193.362	88.06
193.581	92.16
193.8	67.58
194.02	26.62
194.239	77.82
194.458	65.54
194.678	-26.62
194.897	112.64
195.116	-8.19
195.335	71.68
195.555	-14.34
195.774	18.43
195.993	30.72
196.212	-2.05
196.432	20.48
196.651	-51.2
196.87	63.49
197.089	71.68
197.308	30.72
197.528	65.54
197.747	96.25
197.966	61.44
198.185	104.45
198.404	-4.1
198.623	-18.43
198.842	122.88
199.062	112.64
199.281	51.2
199.5	22.53
199.719	-10.24
199.938	-55.3
200.157	30.72
200.376	63.49
200.595	71.68
200.814	100.35
201.033	43.01
201.252	6.14
201.471	120.83
201.69	10.24
201.909	47.1
202.128	71.68
202.347	114.69
202.566	26.62
202.785	-59.39
203.004	-18.43
203.223	161.79
203.442	38.91
203.661	24.58
203.879	26.62
204.098	71.68
204.317	22.53
204.536	30.72
204.755	14.34
204.974	0
205.193	63.49
205.411	98.3
205.63	100.35
205.849	59.39
206.068	63.49
206.287	18.43
206.505	57.34
206.724	32.77
206.943	79.87
207.162	8.19
207.381	86.01
207.599	8.19
207.818	88.06
208.037	-8.19
208.255	47.1
208.474	36.86
208.693	75.77
208.911	63.49
209.13	79.87
209.349	47.1
209.567	92.16
209.786	47.1
210.005	88.06
210.223	-6.14
210.442	-75.77
210.661	-43.01
210.879	34.82
211.098	73.73
211.316	6.14
211.535	14.34
211.753	53.25
211.972	-10.24
212.191	-67.58
212.409	88.06
212.628	-10.24
212.846	47.1
213.065	32.77
213.283	30.72
213.502	14.34
213.72	16.38
213.938	14.34
214.157	-10.24
214.375	4.1
214.594	-10.24
214.812	79.87
215.031	51.2
215.249	53.25
215.467	8.19
215.686	-2.05
215.904	73.73
216.122	47.1
216.341	55.3
216.559	53.25
216.778	43.01
216.996	157.69
217.214	53.25
217.432	24.58
217.651	-10.24
217.869	-2.05
218.087	-18.43
218.306	10.24
218.524	8.19
218.742	-24.58
218.96	47.1
219.179	-18.43
219.397	18.43
219.615	96.25
219.833	69.63
220.051	14.34
220.27	40.96
220.488	77.82
220.706	108.54
220.924	-32.77
221.142	49.15
221.36	47.1
221.578	67.58
221.796	-8.19
222.015	55.3
222.233	88.06
222.451	22.53
222.669	-51.2
222.887	71.68
223.105	22.53
223.323	-10.24
223.541	-49.15
223.759	47.1
223.977	10.24
224.195	75.77
224.413	114.69
224.631	73.73
224.849	40.96
225.067	129.02
225.285	0
225.503	100.35
225.721	-53.25
225.939	126.97
226.157	69.63
226.375	63.49
226.592	-32.77
226.81	106.49
227.028	30.72
227.246	143.36
227.464	83.97
227.682	98.3
227.9	-10.24
228.117	71.68
228.335	38.91
228.553	49.15
228.771	6.14
228.989	47.1
229.206	65.54
229.424	43.01
229.642	-2.05
229.86	38.91
230.077	24.58
230.295	55.3
230.513	38.91
230.731	75.77
230.948	114.69
231.166	30.72
231.384	10.24
231.601	-30.72
231.819	106.49
232.037	24.58
232.254	12.29
232.472	-10.24
232.689	24.58
232.907	75.77
233.125	63.49
233.342	-12.29
233.56	0
233.777	-16.38
233.995	24.58
234.213	47.1
234.43	55.3
234.648	61.44
234.865	-18.43
235.083	63.49
235.3	49.15
235.518	53.25
235.735	81.92
235.953	161.79
236.17	-4.1
236.388	47.1
236.605	90.11
236.822	73.73
237.04	57.34
237.257	63.49
237.475	-67.58
237.692	47.1
237.909	71.68
238.127	-10.24
238.344	38.91
238.562	0
238.779	14.34
238.996	88.06
239.214	6.14
239.431	75.77
239.648	55.3
239.865	38.91
240.083	43.01
240.3	53.25
240.517	43.01
240.735	47.1
240.952	47.1
241.169	122.88
241.386	18.43
241.603	16.38
241.821	-2.05
242.038	96.25
242.255	-16.38
242.472	16.38
242.689	38.91
242.907	47.1
243.124	63.49
243.341	40.96
243.558	51.2
243.775	-14.34
243.992	36.86
244.209	55.3
244.426	79.87
244.643	65.54
244.86	10.24
245.078	40.96
245.295	20.48
245.512	100.35
245.729	110.59
245.946	49.15
246.163	75.77
246.38	-26.62
246.597	30.72
246.814	73.73
247.031	38.91
247.248	71.68
247.464	22.53
247.681	79.87
247.898	24.58
248.115	30.72
248.332	65.54
248.549	55.3
248.766	120.83
248.983	79.87
249.2	67.58
249.417	-6.14
249.633	71.68
249.85	79.87
250.067	34.82
250.284	24.58
250.501	88.06
250.717	-10.24
250.934	18.43
251.151	36.86
251.368	32.77
251.585	51.2
251.801	67.58
252.018	-2.05
252.235	129.02
252.451	34.82
252.668	28.67
252.885	63.49
253.102	24.58
253.318	16.38
253.535	0
253.752	63.49
253.968	26.62
254.185	24.58
254.401	-18.43
254.618	55.3
254.835	24.58
255.051	92.16
255.268	63.49
255.484	0
255.701	63.49
255.917	71.68
256.134	-14.34
256.351	75.77
256.567	-16.38
256.784	18.43
257	-10.24
257.217	65.54
257.433	10.24
257.65	71.68
257.866	36.86
258.082	-8.19
258.299	-28.67
258.515	-43.01
258.732	0
258.948	14.34
259.165	30.72
259.381	47.1
259.597	67.58
259.814	-4.1
260.03	-57.34
260.246	30.72
260.463	135.17
260.679	40.96
260.895	69.63
261.112	49.15
261.328	71.68
261.544	-16.38
261.761	38.91
261.977	-22.53
262.193	-18.43
262.409	96.25
262.626	12.29
262.842	79.87
263.058	-12.29
263.274	114.69
263.49	81.92
263.707	32.77
263.923	67.58
264.139	2.05
264.355	20.48
264.571	22.53
264.787	10.24
265.004	65.54
265.22	16.38
265.436	38.91
265.652	-63.49
265.868	16.38
266.084	30.72
266.3	92.16
266.516	-6.14
266.732	53.25
266.948	49.15
267.164	61.44
267.38	112.64
267.596	49.15
267.812	174.08
268.028	30.72
268.244	34.82
268.46	73.73
268.676	88.06
268.892	51.2
269.108	-22.53
269.324	40.96
269.54	22.53
269.756	22.53
269.972	6.14
270.188	55.3
270.403	20.48
270.619	22.53
270.835	49.15
271.051	-30.72
271.267	63.49
271.483	88.06
271.698	49.15
271.914	40.96
272.13	55.3
272.346	73.73
272.562	59.39
272.777	108.54
272.993	75.77
273.209	47.1
273.425	49.15
273.64	-12.29
273.856	88.06
274.072	55.3
274.287	79.87
274.503	36.86
274.719	-18.43
274.934	57.34
275.15	-18.43
275.366	20.48
275.581	63.49
275.797	24.58
276.012	71.68
276.228	-43.01
276.444	47.1
276.659	71.68
276.875	-8.19
277.09	-10.24
277.306	28.67
277.521	88.06
277.737	24.58
277.952	40.96
278.168	75.77
278.383	47.1
278.599	73.73
278.814	32.77
279.03	55.3
279.245	165.89
279.461	57.34
279.676	83.97
279.892	47.1
280.107	-8.19
280.322	67.58
280.538	55.3
280.753	6.14
280.969	43.01
281.184	-16.38
281.399	100.35
281.615	28.67
281.83	77.82
282.045	43.01
282.26	47.1
282.476	26.62
282.691	6.14
282.906	40.96
283.122	92.16
283.337	26.62
283.552	-4.1
283.767	-36.86
283.983	55.3
284.198	43.01
284.413	24.58
284.628	22.53
284.843	2.05
285.058	67.58
285.274	-6.14
285.489	20.48
285.704	98.3
285.919	55.3
286.134	92.16
286.349	16.38
286.564	73.73
286.779	45.06
286.995	-8.19
287.21	-30.72
287.425	83.97
287.64	55.3
287.855	71.68
288.07	57.34
288.285	112.64
288.5	75.77
288.715	14.34
288.93	43.01
289.145	79.87
289.36	51.2
289.575	-34.82
289.79	90.11
290.004	32.77
290.219	77.82
290.434	8.19
290.649	-20.48
290.864	79.87
291.079	38.91
291.294	79.87
291.509	65.54
291.724	-14.34
291.938	51.2
292.153	2.05
292.368	43.01
292.583	45.06
292.798	63.49
293.012	71.68
293.227	63.49
293.442	34.82
293.657	73.73
293.871	63.49
294.086	-4.1
294.301	131.07
294.516	137.21
294.73	55.3
294.945	-43.01
295.16	90.11
295.374	141.31
295.589	79.87
295.804	-6.14
296.018	69.63
296.233	83.97
296.447	55.3
296.662	-49.15
296.877	10.24
297.091	67.58
297.306	-8.19
297.52	-30.72
297.735	124.93
297.949	16.38
298.164	114.69
298.378	47.1
298.593	16.38
298.807	-30.72
299.022	96.25
299.236	112.64
299.451	55.3
299.665	71.68
299.88	22.53
300.094	18.43
300.309	49.15
300.523	-20.48
300.737	38.91
300.952	-2.05
301.166	104.45
301.381	-18.43
301.595	32.77
301.809	-57.34
302.024	24.58
302.238	-6.14
302.452	24.58
302.667	65.54
302.881	100.35
303.095	-14.34
303.309	67.58
303.524	8.19
303.738	71.68
303.952	6.14
304.166	88.06
304.381	-34.82
304.595	40.96
304.809	34.82
305.023	63.49
305.237	18.43
305.452	79.87
305.666	-10.24
305.88	24.58
306.094	28.67
306.308	96.25
306.522	28.67
306.736	67.58
306.95	114.69
307.164	8.19
307.379	63.49
307.593	63.49
307.807	12.29
308.021	73.73
308.235	14.34
308.449	47.1
308.663	-22.53
308.877	108.54
309.091	112.64
309.305	26.62
309.519	49.15
309.733	38.91
309.947	-28.67
310.161	75.77
310.374	92.16
310.588	36.86
310.802	75.77
311.016	26.62
311.23	57.34
311.444	49.15
311.658	-61.44
311.872	112.64
312.085	18.43
312.299	32.77
312.513	100.35
312.727	12.29
312.941	-6.14
313.154	38.91
313.368	55.3
313.582	26.62
313.796	53.25
314.009	6.14
314.223	92.16
314.437	75.77
314.651	-2.05
314.864	26.62
315.078	59.39
315.292	-10.24
315.505	2.05
315.719	34.82
315.933	65.54
316.146	49.15
316.36	-71.68
316.573	49.15
316.787	51.2
317.001	73.73
317.214	-18.43
317.428	49.15
317.641	14.34
317.855	-2.05
318.068	59.39
318.282	71.68
318.495	55.3
318.709	47.1
318.922	2.05
319.136	14.34
319.349	81.92
319.563	83.97
319.776	16.38
319.99	26.62
320.203	32.77
320.417	30.72
320.63	79.87
320.843	135.17
321.057	38.91
321.27	34.82
321.483	43.01
321.697	65.54
321.91	73.73
322.124	81.92
322.337	43.01
322.55	-22.53
322.763	47.1
322.977	-16.38
323.19	-6.14
323.403	30.72
323.617	116.73
323.83	98.3
324.043	71.68
324.256	30.72
324.469	34.82
324.683	75.77
324.896	-10.24
325.109	-16.38
325.322	47.1
325.535	67.58
325.748	26.62
325.962	94.21
326.175	38.91
326.388	92.16
326.601	-10.24
326.814	-2.05
327.027	67.58
327.24	106.49
327.453	-32.77
327.666	65.54
327.879	67.58
328.092	43.01
328.305	104.45
328.518	38.91
328.731	51.2
328.944	22.53
329.157	-30.72
329.37	18.43
329.583	73.73
329.796	10.24
330.009	10.24
330.222	114.69
330.435	116.73
330.648	71.68
330.861	47.1
331.073	59.39
331.286	65.54
331.499	34.82
331.712	47.1
331.925	75.77
332.138	63.49
332.35	106.49
332.563	10.24
332.776	-18.43
332.989	-10.24
333.202	55.3
333.414	55.3
333.627	43.01
333.84	104.45
334.053	75.77
334.265	-8.19
334.478	34.82
334.691	47.1
334.903	32.77
335.116	22.53
335.329	10.24
335.541	116.73
335.754	83.97
335.966	12.29
336.179	65.54
336.392	32.77
336.604	92.16
336.817	96.25
337.029	86.01
337.242	45.06
337.454	83.97
337.667	55.3
337.88	106.49
338.092	100.35
338.305	55.3
338.517	-65.54
338.729	38.91
338.942	139.26
339.154	67.58
339.367	14.34
339.579	47.1
339.792	36.86
340.004	63.49
340.217	-26.62
340.429	10.24
340.641	22.53
340.854	6.14
341.066	22.53
341.278	81.92
341.491	104.45
341.703	30.72
341.915	49.15
342.128	47.1
342.34	-18.43
342.552	-47.1
342.764	65.54
342.977	6.14
343.189	90.11
343.401	81.92
343.613	36.86
343.826	45.06
344.038	14.34
344.25	38.91
344.462	30.72
344.674	22.53
344.886	57.34
345.099	43.01
345.311	4.1
345.523	38.91
345.735	36.86
345.947	8.19
346.159	14.34
346.371	96.25
346.583	18.43
346.795	145.41
347.007	-14.34
347.219	45.06
347.431	-10.24
347.643	116.73
347.855	14.34
348.067	63.49
348.279	32.77
348.491	-10.24
348.703	81.92
348.915	79.87
349.127	43.01
349.339	90.11
349.551	67.58
349.763	14.34
349.975	88.06
350.187	81.92
350.399	2.05
350.61	38.91
350.822	22.53
351.034	75.77
351.246	88.06
351.458	59.39
351.669	16.38
351.881	67.58
352.093	98.3
352.305	96.25
352.517	81.92
352.728	38.91
352.94	55.3
353.152	83.97
353.363	38.91
353.575	98.3
353.787	129.02
353.999	106.49
354.21	118.78
354.422	-18.43
354.633	59.39
354.845	28.67
355.057	36.86
355.268	-4.1
355.48	24.58
355.692	-18.43
355.903	38.91
356.115	108.54
356.326	18.43
356.538	40.96
356.749	120.83
356.961	73.73
357.172	83.97
357.384	86.01
357.595	129.02
357.807	90.11
358.018	-2.05
358.23	83.97
358.441	79.87
358.653	96.25
358.864	88.06
359.075	-8.19
359.287	61.44
359.498	57.34
359.709	47.1
359.921	47.1
360.132	108.54
360.344	51.2
360.555	75.77
360.766	143.36
360.977	43.01
361.189	116.73
361.4	-2.05
361.611	116.73
361.823	28.67
362.034	79.87
362.245	20.48
362.456	47.1
362.667	120.83
362.879	73.73
363.09	88.06
363.301	-2.05
363.512	22.53
363.723	34.82
363.935	14.34
364.146	100.35
364.357	-20.48
364.568	20.48
364.779	47.1
364.99	124.93
365.201	30.72
365.412	53.25
365.623	-4.1
365.834	-2.05
366.045	6.14
366.256	57.34
366.467	55.3
366.678	32.77
366.889	45.06
367.1	22.53
367.311	63.49
367.522	0
367.733	71.68
367.944	96.25
368.155	6.14
368.366	120.83
368.577	88.06
368.788	122.88
368.999	-6.14
369.209	98.3
369.42	118.78
369.631	104.45
369.842	90.11
370.053	100.35
370.264	141.31
370.474	38.91
370.685	71.68
370.896	38.91
371.107	49.15
371.317	51.2
371.528	10.24
371.739	63.49
371.95	49.15
372.16	83.97
372.371	-30.72
372.582	57.34
372.792	92.16
373.003	129.02
373.214	90.11
373.424	40.96
373.635	-18.43
373.846	114.69
374.056	61.44
374.267	124.93
374.477	38.91
374.688	-18.43
374.898	18.43
375.109	26.62
375.319	71.68
375.53	98.3
375.74	28.67
375.951	49.15
376.161	61.44
376.372	47.1
376.582	43.01
376.793	47.1
377.003	22.53
377.214	30.72
377.424	73.73
377.635	75.77
377.845	-14.34
378.055	45.06
378.266	30.72
378.476	129.02
378.686	81.92
378.897	51.2
379.107	51.2
379.317	32.77
379.528	38.91
379.738	120.83
379.948	-10.24
380.158	51.2
380.369	34.82
380.579	88.06
380.789	-61.44
380.999	129.02
381.21	38.91
381.42	47.1
381.63	-24.58
381.84	59.39
382.05	106.49
382.261	147.45
382.471	47.1
382.681	47.1
382.891	114.69
383.101	61.44
383.311	88.06
383.521	90.11
383.731	43.01
383.941	73.73
384.151	57.34
384.361	0
384.571	172.03
384.781	40.96
384.991	165.89
385.201	32.77
385.411	40.96
385.621	75.77
385.831	24.58
386.041	57.34
386.251	34.82
386.461	112.64
386.671	18.43
386.881	106.49
387.091	79.87
387.301	90.11
387.511	104.45
387.72	135.17
387.93	65.54
388.14	-22.53
388.35	47.1
388.56	47.1
388.769	116.73
388.979	34.82
389.189	-32.77
389.399	10.24
389.609	73.73
389.818	90.11
390.028	61.44
390.238	10.24
390.447	-2.05
390.657	96.25
390.867	98.3
391.076	0
391.286	30.72
391.496	112.64
391.705	92.16
391.915	83.97
392.125	81.92
392.334	26.62
392.544	104.45
392.753	96.25
392.963	122.88
393.172	75.77
393.382	59.39
393.591	63.49
393.801	40.96
394.01	161.79
394.22	51.2
394.429	55.3
394.639	-6.14
394.848	88.06
395.058	77.82
395.267	135.17
395.477	112.64
395.686	75.77
395.895	96.25
396.105	194.56
396.314	69.63
396.524	88.06
396.733	22.53
396.942	137.21
397.152	116.73
397.361	163.84
397.57	133.12
397.78	88.06
397.989	30.72
398.198	184.32
398.407	73.73
398.617	104.45
398.826	153.6
399.035	137.21
399.244	116.73
399.453	131.07
399.663	145.41
399.872	114.69
400.081	104.45
400.29	178.17
400.499	118.78
400.708	79.87
400.917	30.72
401.127	71.68
401.336	116.73
401.545	245.76
401.754	137.21
401.963	77.82
402.172	88.06
402.381	178.17
402.59	71.68
402.799	116.73
403.008	182.27
403.217	135.17
403.426	124.93
403.635	145.41
403.844	139.26
404.053	83.97
404.262	131.07
404.471	262.14
404.68	116.73
404.888	169.98
405.097	178.17
405.306	169.98
405.515	137.21
405.724	178.17
405.933	112.64
406.142	204.8
406.35	217.08
406.559	227.32
406.768	163.84
406.977	245.76
407.185	167.93
407.394	172.03
407.603	131.07
407.812	237.56
408.02	204.8
408.229	186.37
408.438	219.13
408.646	196.61
408.855	221.18
409.064	276.48
409.272	294.91
409.481	325.63
409.69	210.94
409.898	284.67
410.107	333.82
410.315	262.14
410.524	382.97
410.733	311.29
410.941	288.76
411.15	358.39
411.358	360.44
411.567	425.98
411.775	385.02
411.984	456.7
412.192	464.89
412.401	409.59
412.609	524.28
412.818	516.09
413.026	477.18
413.234	573.43
413.443	542.71
413.651	630.77
413.86	571.38
414.068	665.59
414.276	653.3
414.485	665.59
414.693	628.73
414.901	767.99
415.11	677.88
415.318	694.26
415.526	718.84
415.734	817.14
415.943	851.96
416.151	831.48
416.359	868.34
416.567	923.63
416.776	866.29
416.984	1013.74
417.192	968.69
417.4	1007.6
417.608	983.02
417.817	1122.29
418.025	1175.53
418.233	1327.08
418.441	1089.52
418.649	1308.65
418.857	1206.25
419.065	1230.83
419.273	1218.54
419.481	1409
419.689	1445.87
419.897	1507.31
420.105	1488.87
420.313	1644.52
420.521	1589.22
420.729	1734.63
420.937	1744.87
421.145	1820.64
421.353	1877.99
421.561	1994.72
421.769	2060.26
421.977	2041.82
422.185	2052.06
422.393	2308.06
422.601	2312.16
422.809	2308.06
423.017	2351.07
423.224	2365.4
423.432	2553.82
423.64	2498.52
423.848	2858.96
424.056	2496.47
424.263	2840.53
424.471	2861.01
424.679	2889.68
424.887	3008.47
425.094	2973.65
425.302	3184.59
425.51	3393.48
425.718	3389.39
425.925	3489.74
426.133	3643.34
426.341	3809.22
426.548	3893.19
426.756	3891.14
426.964	3923.91
427.171	4114.37
427.379	4216.77
427.586	4456.38
427.794	4552.63
428.001	4708.28
428.209	4958.13
428.417	4882.36
428.624	5240.75
428.832	5093.3
429.039	5175.22
429.247	5050.29
429.454	5588.91
429.662	6125.47
429.869	5687.21
430.076	6119.33
430.284	5883.81
430.491	6113.19
430.699	6430.62
430.906	6520.73
431.114	6510.49
431.321	6766.49
431.528	6838.17
431.736	7200.66
431.943	7567.24
432.15	7487.37
432.358	7675.79
432.565	7853.96
432.772	7894.92
432.979	8165.25
433.187	8279.94
433.394	8488.83
433.601	8923
433.808	9224.05
434.016	8894.33
434.223	9344.88
434.43	9805.67
434.637	9807.72
434.844	10205.03
435.052	10356.58
435.259	10411.87
435.466	10454.88
435.673	10262.37
435.88	10829.66
436.087	11499.34
436.294	11501.39
436.501	11327.32
436.708	11693.9
436.915	11956.04
437.122	12496.71
437.329	12625.73
437.537	12711.74
437.743	13170.49
437.95	13121.34
438.157	13748.01
438.364	14341.93
438.571	13956.91
438.778	14251.81
438.985	15302.42
439.192	14620.45
439.399	15322.9
439.606	14753.57
439.813	15562.51
440.02	16576.26
440.227	16039.69
440.433	16113.42
440.64	16623.36
440.847	16713.47
441.054	17358.58
441.261	18390.76
441.467	17798.9
441.674	18194.15
441.881	19398.36
442.088	19080.92
442.294	19037.92
442.501	19152.6
442.708	19640.02
442.914	20127.44
443.121	21165.76
443.328	20670.15
443.534	22003.38
443.741	21677.75
443.948	21190.33
444.154	22951.59
444.361	22546.09
444.568	22617.77
444.774	22916.77
444.981	22947.49
445.187	23533.21
445.394	24796.81
445.6	24342.16
445.807	26629.74
446.013	25398.91
446.22	25869.94
446.426	27129.44
446.633	27383.39
446.839	28157.52
447.046	26908.26
447.252	28354.13
447.459	28655.18
447.665	28374.61
447.871	29425.21
448.078	30512.69
448.284	29548.09
448.491	30125.62
448.697	31034.92
448.903	31639.07
449.11	31712.8
449.316	31518.24
449.522	31829.53
449.728	32972.3
449.935	33105.41
450.141	33234.44
450.347	33844.73
450.553	32486.93
450.76	32957.96
450.966	33947.13
451.172	33781.24
451.378	34639.34
451.584	33906.17
451.791	34952.68
451.997	34663.92
452.203	35100.14
452.409	35376.61
452.615	34977.26
452.821	33412.61
453.027	33609.22
453.233	35309.03
453.44	33613.31
453.646	34182.65
453.852	34196.98
454.058	34786.8
454.264	33523.2
454.47	34717.17
454.676	33758.72
454.882	34639.34
455.088	31753.76
455.294	32085.53
455.5	32761.36
455.705	33043.98
455.911	31733.28
456.117	30856.75
456.323	30608.94
456.529	29007.43
456.735	30240.31
456.941	29736.51
457.147	28804.68
457.352	27985.49
457.558	27567.71
457.764	27817.56
457.97	27231.84
458.176	26832.49
458.381	26607.21
458.587	25292.41
458.793	25196.16
458.999	24073.87
459.204	25550.46
459.41	25243.26
459.616	23498.39
459.821	23291.55
460.027	23101.09
460.233	22693.54
460.438	21628.6
460.644	21567.16
460.85	20758.21
461.055	20457.16
461.261	20477.64
461.466	18949.85
461.672	18159.34
461.878	19416.79
462.083	18009.84
462.289	17958.64
462.494	17819.38
462.7	17016.57
462.905	16422.66
463.111	17006.33
463.316	16992
463.522	16580.35
463.727	16637.7
463.932	16465.67
464.138	16330.5
464.343	16594.69
464.549	15935.24
464.754	16543.49
464.959	16500.48
465.165	16348.93
465.37	15431.44
465.575	15105.82
465.781	15669.01
465.986	15775.5
466.191	15408.92
466.397	15032.09
466.602	14264.1
466.807	14749.47
467.012	14835.49
467.218	14565.15
467.423	14374.69
467.628	14411.56
467.833	14958.36
468.038	14540.58
468.244	14083.88
468.449	14763.81
468.654	14110.5
468.859	14186.28
469.064	13977.39
469.269	13575.98
469.474	13594.42
469.679	13647.66
469.885	13399.86
470.09	13823.79
470.295	13371.19
470.5	12902.2
470.705	13086.52
470.91	12638.02
471.115	12810.04
471.32	12951.35
471.525	12859.2
471.73	12588.86
471.935	12414.79
472.139	11980.62
472.344	12291.91
472.549	12103.5
472.754	12160.84
472.959	11714.38
473.164	11255.64
473.369	11396.95
473.574	11652.94
473.778	11630.41
473.983	11501.39
474.188	11458.39
474.393	10878.81
474.598	11018.07
474.802	10721.12
475.007	10729.31
475.212	10757.98
475.417	10389.35
475.621	10342.24
475.826	10461.02
476.031	10215.27
476.235	10047.33
476.44	10061.67
476.645	9987.94
476.849	9975.66
477.054	9944.94
477.259	9674.6
477.463	9705.32
477.668	9668.46
477.872	9604.97
478.077	9518.96
478.282	9308.02
478.486	9080.69
478.691	9201.52
478.895	9133.94
479.1	8976.25
479.304	9049.97
479.509	8755.07
479.713	9043.83
479.918	8804.22
480.122	8568.7
480.326	8685.44
480.531	8732.54
480.735	8601.47
480.94	8644.48
481.144	8722.3
481.348	8208.26
481.553	8519.55
481.757	8288.13
481.961	8519.55
482.166	8460.16
482.37	8468.35
482.574	8257.41
482.778	8261.51
482.983	8556.41
483.187	8349.57
483.391	8542.08
483.595	8337.28
483.8	8275.84
484.004	8492.93
484.208	8370.05
484.412	8226.69
484.616	8372.1
484.821	8206.21
485.025	7980.93
485.229	8161.16
485.433	8124.29
485.637	8228.74
485.841	8089.48
486.045	8183.68
486.249	8279.94
486.453	8099.72
486.657	8095.62
486.861	8069
487.065	8066.95
487.269	8286.08
487.473	8083.33
487.677	8267.65
487.881	8396.67
488.085	8114.05
488.289	8165.25
488.493	8050.57
488.697	8269.7
488.901	8103.81
489.105	8142.72
489.309	8263.55
489.512	8202.11
489.716	8355.71
489.92	8228.74
490.124	8238.98
490.328	8431.49
490.531	8433.54
490.735	8433.54
490.939	8298.37
491.143	8191.87
491.346	8249.22
491.55	8679.29
491.754	8378.24
491.958	8497.02
492.161	8513.41
492.365	8382.34
492.569	8572.8
492.772	8544.13
492.976	8599.42
493.18	8509.31
493.383	8800.12
493.587	8722.3
493.79	8753.02
493.994	8705.92
494.197	8839.03
494.401	8873.85
494.605	8961.91
494.808	8943.48
495.012	9011.06
495.215	9092.98
495.419	9353.07
495.622	8916.86
495.825	9156.47
496.029	9074.55
496.232	9215.86
496.436	9168.76
496.639	9592.69
496.843	9217.91
497.046	9662.32
497.249	9869.16
497.453	9914.22
497.656	9781.1
497.859	9791.34
498.063	9860.97
498.266	10127.21
498.469	9949.03
498.673	10135.4
498.876	10415.97
499.079	10524.51
499.282	10491.74
499.485	10573.66
499.689	10846.04
499.892	10991.45
500.095	10854.23
500.298	11083.61
500.501	10968.92
500.705	11386.71
500.908	11489.1
501.111	11517.78
501.314	11626.32
501.517	11657.04
501.72	11962.19
501.923	11763.53
502.126	12083.02
502.329	12083.02
502.532	12166.98
502.735	12302.15
502.938	12861.24
503.141	12576.58
503.344	12740.41
503.547	12945.21
503.75	12791.61
503.953	13205.3
504.156	13217.59
504.359	13170.49
504.562	13305.65
504.765	13614.9
504.968	13963.05
505.17	14139.18
505.373	14108.46
505.576	14008.11
505.779	14493.47
505.982	14319.4
506.185	14620.45
506.387	14722.85
506.59	14915.36
506.793	15283.99
506.996	15056.67
507.198	15634.19
507.401	15484.69
507.604	15613.71
507.807	15742.74
508.009	15990.54
508.212	16291.59
508.415	16162.57
508.617	16281.35
508.82	16598.79
509.022	16733.95
509.225	17180.41
509.428	16977.66
509.63	17141.5
509.833	17385.21
510.035	17405.69
510.238	17606.39
510.44	17952.49
510.643	18075.37
510.845	18099.95
511.048	18243.31
511.25	18278.12
511.453	18722.53
511.655	19138.27
511.858	19187.42
512.06	19259.1
512.262	19445.46
512.465	19160.8
512.667	19881.68
512.87	20045.52
513.072	19959.5
513.274	20270.79
513.477	20549.32
513.679	20674.24
513.881	20958.91
514.084	21276.35
514.286	21360.31
514.488	20973.25
514.69	21757.62
514.893	21667.51
515.095	21847.73
515.297	22083.25
515.499	22146.73
515.701	22267.56
515.904	22462.12
516.106	23060.13
516.308	22967.97
516.51	23101.09
516.712	23320.22
516.914	23522.97
517.116	23889.56
517.318	23965.33
517.52	24188.56
517.722	23987.86
517.925	24303.25
518.127	24544.91
518.329	24589.96
518.531	24518.28
518.733	25292.41
518.935	25263.74
519.136	25202.3
519.338	25736.82
519.54	25691.77
519.742	25958
519.944	25806.45
520.146	26287.73
520.348	26523.24
520.55	26728.04
520.752	26875.49
520.954	27041.38
521.155	26977.89
521.357	27041.38
521.559	27450.97
521.761	27674.2
521.963	27420.25
522.164	27883.09
522.366	27725.4
522.568	28145.23
522.77	28182.1
522.971	28597.84
523.173	28522.06
523.375	28458.57
523.576	28538.44
523.778	28671.56
523.98	28794.44
524.181	28835.4
524.383	29021.77
524.584	29294.14
524.786	29339.2
524.988	28849.74
525.189	29410.88
525.391	29587
525.592	29797.95
525.794	29605.44
525.995	29402.69
526.197	29576.76
526.398	29851.19
526.6	29974.07
526.801	29734.46
527.003	29750.84
527.204	29904.44
527.406	30000.69
527.607	30223.92
527.808	30205.49
528.01	29455.93
528.211	29949.49
528.412	30277.17
528.614	30004.79
528.815	30133.81
529.016	30498.35
529.218	30336.56
529.419	30058.04
529.62	30205.49
529.822	30101.04
530.023	29935.16
530.224	30361.14
530.425	30170.68
530.626	29916.73
530.828	29953.59
531.029	30658.09
531.23	30109.24
531.431	29992.5
531.632	30328.37
531.833	30092.85
532.035	29746.75
532.236	30064.18
532.437	30123.57
532.638	29498.94
532.839	29967.93
533.04	29984.31
533.241	29818.42
533.442	30289.46
533.643	29890.1
533.844	29759.03
534.045	29990.45
534.246	29503.04
534.447	29445.69
534.648	29288
534.849	29650.49
535.05	29402.69
535.251	29390.4
535.451	29541.95
535.652	29419.07
535.853	29351.49
536.054	29564.48
536.255	29605.44
536.456	29007.43
536.657	29660.73
536.857	29302.34
537.058	28898.89
537.259	29539.9
537.46	29097.54
537.66	29029.96
537.861	28999.24
538.062	28952.13
538.263	28982.85
538.463	28952.13
538.664	28995.14
538.865	28792.39
539.065	29269.57
539.266	28870.22
539.466	29021.77
539.667	28743.24
539.868	29072.96
540.068	29189.7
540.269	28753.48
540.469	28943.94
540.67	28810.82
540.87	28700.23
541.071	28528.2
541.271	28786.25
541.472	28393.04
541.672	28315.22
541.873	28325.46
542.073	28202.58
542.274	29064.77
542.474	28663.37
542.675	28122.71
542.875	28587.6
543.075	28558.92
543.276	28171.86
543.476	28528.2
543.676	28255.82
543.877	28636.75
544.077	28452.43
544.277	28311.12
544.478	28581.45
544.678	28460.62
544.878	28163.67
545.078	28270.16
545.279	28460.62
545.479	28178
545.679	28456.53
545.879	28440.14
546.079	28067.41
546.28	28243.54
546.48	27737.69
546.68	28434
546.88	28454.48
547.08	28204.63
547.28	28411.47
547.48	28237.39
547.68	28399.18
547.88	28012.12
548.081	28337.74
548.281	28335.7
548.481	27762.26
548.681	28776.01
548.881	28278.35
549.081	28216.91
549.28	28390.99
549.48	28421.71
549.68	28184.15
549.88	28907.08
550.08	28257.87
550.28	28319.31
550.48	28470.86
550.68	28462.67
550.88	28388.94
551.08	28591.69
551.279	28761.67
551.479	28403.28
551.679	28237.39
551.879	28225.11
552.079	28520.01
552.278	28524.11
552.478	28434
552.678	28407.37
552.878	28720.71
553.077	28159.57
553.277	28327.5
553.477	28714.57
553.676	28292.69
553.876	28253.78
554.076	28317.26
554.275	28657.23
554.475	28257.87
554.674	28683.85
554.874	28491.34
555.074	28630.6
555.273	28737.1
555.473	28733
555.672	28587.6
555.872	28440.14
556.071	28554.83
556.271	28810.82
556.47	28548.68
556.67	28708.43
556.869	28689.99
557.068	28741.19
557.268	28667.47
557.467	28874.31
557.667	28872.26
557.866	28909.13
558.065	28708.43
558.265	28855.88
558.464	28958.28
558.663	29134.4
558.863	28628.56
559.062	29251.14
559.261	28878.41
559.461	28970.57
559.66	28696.14
559.859	28829.26
560.058	28630.6
560.258	28665.42
560.457	28837.45
560.656	29087.3
560.855	28984.9
561.054	28583.5
561.253	28499.53
561.453	28362.32
561.652	28794.44
561.851	28634.7
562.05	28806.73
562.249	28560.97
562.448	29079.11
562.647	28913.22
562.846	28833.35
563.045	28872.26
563.244	28393.04
563.443	28700.23
563.642	28235.35
563.841	28778.06
564.04	28218.96
564.239	28866.12
564.438	28429.9
564.637	28726.86
564.836	28528.2
565.035	28444.24
565.234	28460.62
565.432	28212.82
565.631	28153.43
565.83	28282.45
566.029	28339.79
566.228	28091.99
566.427	28167.76
566.625	27817.56
566.824	28063.32
567.023	28372.56
567.222	27668.06
567.42	28208.72
567.619	28083.8
567.818	27889.24
568.016	28030.55
568.215	28032.6
568.414	27819.61
568.612	27907.67
568.811	27692.63
569.01	27510.36
569.208	27592.28
569.407	27551.32
569.605	27371.1
569.804	27801.18
570.002	27280.99
570.201	27530.84
570.4	27420.25
570.598	27051.62
570.797	27297.38
570.995	26949.22
571.193	26728.04
571.392	26981.99
571.59	26631.79
571.789	26799.72
571.987	26971.75
572.186	26781.29
572.384	26494.57
572.582	26400.37
572.781	26621.55
572.979	26168.94
573.177	26482.28
573.376	26525.29
573.574	26267.25
573.772	26510.96
573.971	25994.87
574.169	25933.43
574.367	26031.73
574.565	26121.84
574.763	25966.2
574.962	25679.48
575.16	25556.6
575.358	25912.95
575.556	25378.43
575.754	25534.07
575.952	25634.42
576.151	25532.03
576.349	25140.86
576.547	25329.28
576.745	25458.3
576.943	25177.73
577.141	25046.66
577.339	24989.31
577.537	24612.49
577.735	25026.18
577.933	24694.41
578.131	24915.59
578.329	24721.03
578.527	24379.02
578.725	24452.75
578.923	24665.74
579.121	24528.52
579.319	24403.6
579.516	24151.7
579.714	24254.09
579.912	24209.04
580.11	23695
580.308	23819.92
580.506	23922.32
580.704	23619.22
580.901	23772.82
581.099	23942.8
581.297	23488.15
581.495	23332.51
581.692	23715.48
581.89	23572.12
582.088	23557.78
582.285	23451.29
582.483	23389.85
582.681	23635.61
582.878	23211.68
583.076	23133.85
583.274	23217.82
583.471	22951.59
583.669	23109.28
583.866	22664.87
584.064	23129.76
584.262	22296.24
584.459	23228.06
584.657	22630.05
584.854	23062.18
585.052	22636.2
585.249	22634.15
585.447	22787.75
585.644	22421.16
585.841	22605.48
586.039	22509.22
586.236	22337.2
586.434	22083.25
586.631	22146.73
586.828	22331.05
587.026	22023.86
587.223	22107.82
587.42	22283.95
587.618	22036.14
587.815	22193.84
588.012	21778.1
588.21	21665.46
588.407	22040.24
588.604	21698.23
588.801	21888.69
588.999	21610.17
589.196	21536.44
589.393	21610.17
589.59	21651.13
589.787	21270.2
589.984	21290.68
590.182	21388.99
590.379	21272.25
590.576	21305.02
590.773	21124.8
590.97	21255.87
591.167	21087.93
591.364	20960.96
591.561	21298.88
591.758	20848.32
591.955	21110.46
592.152	21081.79
592.349	20821.7
592.546	20870.85
592.743	21020.35
592.94	20694.72
593.137	21063.36
593.334	21112.51
593.531	20643.52
593.727	20829.89
593.924	20760.26
594.121	20422.34
594.318	20836.03
594.515	20700.87
594.712	20768.45
594.908	20422.34
595.105	20655.81
595.302	20461.26
595.499	20711.11
595.696	20670.15
595.892	20430.54
596.089	20719.3
596.286	20653.76
596.482	20256.46
596.679	20444.87
596.876	20776.64
597.072	20289.23
597.269	20629.19
597.466	20641.48
597.662	20227.79
597.859	20141.77
598.055	20524.74
598.252	20555.46
598.448	20451.02
598.645	20287.18
598.841	20231.88
599.038	20195.02
599.234	20412.1
599.431	20240.08
599.627	19887.82
599.824	20229.84
600.02	20166.35
600.217	20274.89
600.413	20168.4
600.609	20434.63
600.806	20199.12
601.002	20395.72
601.198	20215.5
601.395	20129.48
601.591	20475.59
601.787	20481.74
601.984	20317.9
602.18	20694.72
602.376	20618.95
602.572	20586.18
602.769	20190.92
602.965	20254.41
603.161	20526.79
603.357	20426.44
603.553	20782.79
603.75	20414.15
603.946	20631.24
604.142	20514.5
604.338	20422.34
604.534	20913.86
604.73	20436.68
604.926	20694.72
605.122	21067.45
605.318	20932.29
605.514	21022.4
605.71	21059.26
605.906	20920
606.102	21061.31
606.298	20707.01
606.494	20750.02
606.69	20905.66
606.886	20870.85
607.082	20686.53
607.278	21008.06
607.474	21118.65
607.67	21429.94
607.866	20860.61
608.062	21391.03
608.257	21157.57
608.453	21223.1
608.649	21352.12
608.845	21280.44
609.041	21182.14
609.236	21520.06
609.432	21384.89
609.628	21554.87
609.824	21546.68
610.019	21655.22
610.215	21833.39
610.411	21745.33
610.606	21475
610.802	21759.67
610.998	21716.66
611.193	21872.31
611.389	21731
611.584	21595.83
611.78	21886.64
611.976	21462.71
612.171	21911.22
612.367	21913.27
612.562	21892.79
612.758	21862.07
612.953	21356.22
613.149	21925.55
613.344	21984.94
613.539	22451.88
613.735	22118.06
613.93	22351.53
614.126	22128.3
614.321	22347.43
614.517	22070.96
614.712	21958.32
614.907	22140.59
615.103	22566.57
615.298	22154.93
615.493	22412.97
615.688	22224.56
615.884	22455.98
616.079	22021.81
616.274	22191.79
616.47	22159.02
616.665	22189.74
616.86	22281.9
617.055	22165.17
617.25	22275.76
617.445	22494.89
617.641	22048.43
617.836	22312.62
618.031	21550.78
618.226	22435.5
618.421	22019.76
618.616	22404.78
618.811	21677.75
619.006	22529.7
619.201	21874.35
619.396	22369.96
619.591	21620.41
619.786	22089.39
619.981	21810.87
620.176	22003.38
620.371	21724.85
620.566	21628.6
620.761	21745.33
620.956	21741.24
621.151	21554.87
621.346	21554.87
621.541	21124.8
621.735	21372.6
621.93	20833.99
622.125	21204.67
622.32	20780.74
622.515	21001.92
622.709	20948.67
622.904	20840.13
623.099	20932.29
623.294	20883.14
623.488	20575.94
623.683	20805.31
623.878	20367.05
624.072	20457.16
624.267	20352.71
624.462	19941.07
624.656	20178.64
624.851	20207.31
625.046	19859.15
625.24	19691.22
625.435	19783.38
625.629	19619.54
625.824	19693.27
626.018	19674.84
626.213	19318.49
626.407	19431.13
626.602	19058.4
626.796	19271.39
626.991	18976.48
627.185	19234.52
627.38	18890.46
627.574	18773.73
627.768	18761.44
627.963	18671.33
628.157	18607.84
628.352	18654.95
628.546	18243.31
628.74	18517.73
628.935	18151.15
629.129	18237.16
629.323	17970.93
629.517	18048.75
629.712	17911.53
629.906	17837.81
630.1	17739.51
630.294	17770.22
630.489	17463.03
630.683	17571.57
630.877	17364.73
631.071	17184.51
631.265	17323.77
631.459	17237.75
631.653	17166.07
631.848	16852.73
632.042	16899.84
632.236	16948.99
632.43	16776.96
632.624	16709.38
632.818	16643.84
633.012	16344.84
633.206	16666.37
633.4	16580.35
633.594	16203.53
633.788	16375.56
633.982	16150.28
634.176	16066.31
634.369	15793.93
634.563	15750.93
634.757	15957.77
634.951	15906.57
635.145	15853.33
635.339	15724.3
635.533	15595.28
635.726	15564.56
635.92	15259.42
636.114	15329.05
636.308	15206.17
636.501	15169.3
636.695	15132.44
636.889	14907.16
637.083	14817.05
637.276	14720.8
637.47	14747.42
637.664	14739.23
637.857	14466.85
638.051	14755.61
638.244	14286.63
638.438	14276.39
638.632	14303.01
638.825	14182.18
639.019	14077.74
639.212	13985.58
639.406	13936.43
639.599	13834.03
639.793	13850.41
639.986	13481.78
640.18	13520.69
640.373	13676.34
640.567	13379.38
640.76	13365.04
640.954	13287.22
641.147	13104.95
641.34	13080.38
641.534	13066.04
641.727	13070.14
641.92	12799.8
642.114	13008.7
642.307	12830.52
642.5	12652.35
642.694	12488.51
642.887	12427.07
643.08	12539.71
643.273	12332.87
643.467	12197.7
643.66	12330.82
643.853	12347.2
644.046	12068.68
644.239	11974.47
644.432	11902.79
644.626	11657.04
644.819	11665.23
645.012	11558.74
645.205	11654.99
645.398	11435.86
645.591	11700.05
645.784	11409.23
645.977	11216.72
646.17	11372.37
646.363	11188.05
646.556	10897.24
646.749	10944.34
646.942	11036.5
647.135	10985.3
647.328	10764.12
647.521	10803.04
647.714	10704.73
647.907	10796.89
648.099	10596.19
648.292	10610.53
648.485	10409.83
648.678	10465.12
648.871	10383.2
649.064	10387.3
649.256	10205.03
649.449	10131.3
649.642	10338.15
649.835	10047.33
650.027	10076.01
650.22	10033
650.413	9871.21
650.605	9897.83
650.798	9742.19
650.991	9549.68
651.183	9721.71
651.376	9535.34
651.568	9512.81
651.761	9762.67
651.954	9643.88
652.146	9318.26
652.339	9338.74
652.531	9189.24
652.724	9133.94
652.916	8996.73
653.109	9109.36
653.301	9394.03
653.494	9287.54
653.686	9025.4
653.879	8894.33
654.071	8976.25
654.263	8839.03
654.456	8701.82
654.648	8796.03
654.84	8732.54
655.033	8617.85
655.225	8767.35
655.417	8533.89
655.61	8658.81
655.802	8781.69
655.994	8462.21
656.186	8550.27
656.379	8322.94
656.571	8349.57
656.763	8269.7
656.955	8204.16
657.148	8097.67
657.34	8105.86
657.532	8075.14
657.724	8271.75
657.916	8202.11
658.108	7995.27
658.3	7782.28
658.492	7919.5
658.684	7870.34
658.876	7948.17
659.068	7749.51
659.26	7690.12
659.452	7706.51
659.644	7620.49
659.836	7509.9
660.028	7632.78
660.22	7444.37
660.412	7493.52
660.604	7399.31
660.796	7327.63
660.988	7436.17
661.18	7399.31
661.372	7045.01
661.563	7227.28
661.755	7167.89
661.947	7190.42
662.139	7247.76
662.331	6952.85
662.522	6985.62
662.714	7014.29
662.906	6954.9
663.097	6952.85
663.289	6965.14
663.481	6809.5
663.673	6776.73
663.864	6711.19
664.056	6682.52
664.247	6625.18
664.439	6477.73
664.631	6635.42
664.822	6467.49
665.014	6449.05
665.205	6510.49
665.397	6444.96
665.588	6604.7
665.78	6336.42
665.971	6463.39
666.163	6320.03
666.354	6172.58
666.546	6254.5
666.737	6248.35
666.929	6199.2
667.12	6242.21
667.311	6107.04
667.503	5988.26
667.694	6258.59
667.885	6094.76
668.077	6094.76
668.268	5799.85
668.459	5889.96
668.651	5937.06
668.842	5980.07
669.033	5855.14
669.224	5851.05
669.416	5728.17
669.607	5857.19
669.798	5713.83
669.989	5859.24
670.18	5707.69
670.371	5734.31
670.563	5646.25
670.754	5621.67
670.945	5595.05
671.136	5701.55
671.327	5736.36
671.518	5554.09
671.709	5556.14
671.9	5506.99
672.091	5468.08
672.282	5396.4
672.473	5439.4
672.664	5533.61
672.855	5453.74
673.046	5457.84
673.237	5486.51
673.428	5402.54
673.619	5363.63
673.809	5285.81
674	5418.93
674.191	5259.18
674.382	5242.8
674.573	5257.14
674.764	5324.72
674.954	5248.94
675.145	5115.83
675.336	5201.84
675.527	5064.63
675.717	5244.85
675.908	5218.22
676.099	5179.31
676.289	5060.53
676.48	5128.11
676.671	5193.65
676.861	4995
677.052	5173.17
677.243	5052.34
677.433	5134.26
677.624	5195.7
677.814	4939.7
678.005	5056.43
678.195	5013.43
678.386	4954.04
678.576	4980.66
678.767	5015.48
678.957	5095.35
679.148	5042.1
679.338	4962.23
679.529	4839.35
679.719	4884.41
679.909	4947.89
680.1	5044.15
680.29	4855.73
680.481	4855.73
680.671	4863.93
680.861	4921.27
681.052	4917.17
681.242	4728.76
681.432	4759.48
681.622	4802.49
681.813	4792.25
682.003	4816.82
682.193	4779.96
682.383	4888.5
682.573	4937.65
682.764	4849.59
682.954	4853.69
683.144	4818.87
683.334	4790.2
683.524	4835.25
683.714	4798.39
683.904	4843.45
684.094	4855.73
684.284	4739
684.474	4968.37
684.664	4667.32
684.854	4800.44
685.044	4808.63
685.234	4677.56
685.424	4726.71
685.614	4800.44
685.804	4636.6
685.994	4636.6
686.184	4755.38
686.374	4626.36
686.564	4685.75
686.753	4691.9
686.943	4546.49
687.133	4726.71
687.323	4652.98
687.513	4652.98
687.702	4560.83
687.892	4552.63
688.082	4511.68
688.272	4675.51
688.461	4626.36
688.651	4614.07
688.841	4364.22
689.03	4632.51
689.22	4636.6
689.41	4427.71
689.599	4587.45
689.789	4448.19
689.979	4609.98
690.168	4401.08
690.358	4390.85
690.547	4396.99
690.737	4339.65
690.926	4536.25
691.116	4362.17
691.305	4362.17
691.495	4454.33
691.684	4409.28
691.874	4333.5
692.063	4362.17
692.252	4335.55
692.442	4265.92
692.631	4368.32
692.82	4401.08
693.01	4298.69
693.199	4298.69
693.388	4233.15
693.578	4304.83
693.767	4245.44
693.956	4292.54
694.146	4057.03
694.335	4298.69
694.524	4145.09
694.713	4175.81
694.902	4095.94
695.092	4151.23
695.281	4038.59
695.47	4184
695.659	4102.08
695.848	4102.08
696.037	4077.51
696.226	4016.07
696.415	4124.61
696.604	4093.89
696.793	4036.55
696.982	4136.9
697.171	4222.91
697.36	4097.99
697.549	4065.22
697.738	4042.69
697.927	3989.44
698.116	4038.59
698.305	4106.18
698.494	4020.16
698.683	3979.2
698.872	4001.73
699.061	4038.59
699.25	3905.48
699.438	4003.78
699.627	4032.45
699.816	3885
700.005	3934.15
700.193	3999.68
700.382	3979.2
700.571	3958.72
700.76	3905.48
700.948	3889.09
701.137	3950.53
701.326	3790.79
701.514	3780.55
701.703	3708.87
701.892	3803.08
702.08	3917.76
702.269	3712.97
702.457	3905.48
702.646	3774.41
702.834	3743.69
703.023	3643.34
703.212	3692.49
703.4	3684.3
703.589	3776.45
703.777	3749.83
703.965	3665.86
704.154	3721.16
704.342	3618.76
704.531	3680.2
704.719	3665.86
704.907	3819.46
705.096	3561.42
705.284	3715.02
705.472	3547.08
705.661	3463.12
705.849	3614.66
706.037	3819.46
706.226	3540.94
706.414	3649.48
706.602	3549.13
706.79	3727.3
706.979	3571.66
707.167	3547.08
707.355	3422.16
707.543	3645.38
707.731	3631.05
707.919	3596.23
708.107	3522.51
708.296	3395.53
708.484	3442.64
708.672	3463.12
708.86	3569.61
709.048	3528.65
709.236	3557.32
709.424	3422.16
709.612	3389.39
709.8	3448.78
709.988	3487.69
710.176	3504.07
710.364	3266.51
710.551	3340.24
710.739	3325.9
710.927	3299.28
711.115	3217.36
711.303	3420.11
711.491	3194.83
711.679	3270.61
711.866	3213.26
712.054	3327.95
712.242	3278.8
712.43	3340.24
712.617	3233.74
712.805	3348.43
712.993	3303.37
713.181	3186.64
713.368	3180.5
713.556	3317.71
713.744	3096.53
713.931	3270.61
714.119	3217.36
714.306	3096.53
714.494	3319.76
714.682	3096.53
714.869	3069.91
715.057	3055.57
715.244	3071.95
715.432	3192.78
715.619	3131.34
715.807	3139.54
715.994	3149.78
716.182	3000.27
716.369	2959.31
716.556	3080.15
716.744	3160.02
716.931	3145.68
717.119	2975.7
717.306	3108.82
717.493	2918.36
717.681	2994.13
717.868	3028.95
718.055	3016.66
718.242	2977.75
718.43	3053.52
718.617	3028.95
718.804	2959.31
718.991	2990.03
719.179	2924.5
719.366	2897.88
719.553	2977.75
719.74	2955.22
719.927	2928.6
720.114	2893.78
720.301	2768.85
720.488	2840.53
720.676	2875.35
720.863	2949.07
721.05	2844.63
721.237	2965.46
721.424	2762.71
721.611	2883.54
721.798	2881.49
721.985	2705.37
722.172	2719.7
722.358	2770.9
722.545	2768.85
722.732	2777.05
722.919	2783.19
723.106	2705.37
723.293	2801.62
723.48	2805.72
723.667	2742.23
723.853	2652.12
724.04	2766.81
724.227	2588.63
724.414	2613.21
724.6	2660.31
724.787	2684.89
724.974	2686.94
725.161	2627.54
725.347	2613.21
725.534	2617.3
725.72	2537.43
725.907	2633.69
726.094	2725.85
726.28	2566.1
726.467	2613.21
726.653	2596.82
726.84	2586.58
727.027	2631.64
727.213	2635.74
727.4	2514.91
727.586	2531.29
727.773	2621.4
727.959	2564.06
728.145	2498.52
728.332	2572.25
728.518	2389.98
728.705	2570.2
728.891	2465.75
729.077	2461.66
729.264	2490.33
729.45	2373.6
729.636	2545.63
729.823	2463.71
730.009	2490.33
730.195	2385.88
730.382	2455.51
730.568	2351.07
730.754	2484.19
730.94	2521.05
731.126	2416.6
731.313	2578.39
731.499	2566.1
731.685	2435.03
731.871	2414.56
732.057	2428.89
732.243	2392.03
732.429	2342.88
732.615	2342.88
732.801	2383.84
732.987	2437.08
733.173	2385.88
733.359	2383.84
733.545	2373.6
733.731	2332.64
733.917	2373.6
734.103	2439.13
734.289	2340.83
734.475	2293.72
734.661	2500.57
734.847	2254.81
735.033	2201.57
735.219	2303.96
735.404	2324.44
735.59	2279.39
735.776	2205.66
735.962	2303.96
736.148	2193.37
736.333	2260.96
736.519	2320.35
736.705	2213.85
736.89	2324.44
737.076	2131.94
737.262	2193.37
737.447	2136.03
737.633	2176.99
737.819	2162.65
738.004	2189.28
738.19	2195.42
738.375	2181.09
738.561	2248.67
738.747	2226.14
738.932	2056.16
739.118	2211.81
739.303	2211.81
739.489	2160.61
739.674	2090.98
739.859	2103.26
740.045	2179.04
740.23	2097.12
740.416	2019.3
740.601	2131.94
740.786	2205.66
740.972	2041.82
741.157	2054.11
741.342	2004.96
741.528	1947.62
741.713	2201.57
741.898	1988.58
742.084	2041.82
742.269	2119.65
742.454	2064.35
742.639	1980.39
742.824	2023.39
743.01	2015.2
743.195	1976.29
743.38	1959.91
743.565	1947.62
743.75	2007.01
743.935	1951.71
744.12	1947.62
744.305	1972.19
744.49	1849.32
744.675	1849.32
744.86	1779.68
745.045	1880.04
745.23	1814.5
745.415	1834.98
745.6	1875.94
745.785	1791.97
745.97	1787.88
746.155	1783.78
746.34	1791.97
746.525	1828.84
746.71	1744.87
746.895	1705.96
747.079	1779.68
747.264	1714.15
747.449	1722.34
747.634	1751.01
747.819	1675.24
748.003	1767.4
748.188	1669.09
748.373	1699.81
748.557	1619.94
748.742	1644.52
748.927	1695.72
749.111	1628.14
749.296	1644.52
749.481	1685.48
749.665	1619.94
749.85	1656.81
750.034	1624.04
750.219	1515.5
750.404	1550.31
750.588	1611.75
750.773	1511.4
750.957	1509.35
751.141	1392.62
751.326	1492.97
751.51	1472.49
751.695	1488.87
751.879	1583.08
752.064	1441.77
752.248	1503.21
752.432	1540.07
752.617	1435.63
752.801	1529.83
752.985	1472.49
753.17	1415.15
753.354	1427.43
753.538	1474.54
753.722	1318.89
753.907	1314.8
754.091	1349.61
754.275	1376.23
754.459	1437.67
754.643	1300.46
754.828	1394.67
755.012	1343.47
755.196	1277.93
755.38	1318.89
755.564	1241.07
755.748	1212.4
755.932	1308.65
756.116	1337.32
756.3	1284.08
756.484	1259.5
756.668	1329.13
756.852	1171.44
757.036	1165.29
757.22	1177.58
757.404	1132.53
757.588	1116.14
757.772	1079.28
757.956	1157.1
758.14	1185.77
758.323	1153.01
758.507	1148.91
758.691	1095.66
758.875	1062.9
759.059	1073.14
759.242	1118.19
759.426	1054.7
759.61	1165.29
759.794	1128.43
759.977	1073.14
760.161	1167.34
760.345	1107.95
760.528	1107.95
760.712	1097.71
760.895	1107.95
761.079	1062.9
761.263	987.12
761.446	1009.65
761.63	983.02
761.813	993.26
761.997	913.39
762.18	1040.37
762.364	970.74
762.547	841.72
762.731	1009.65
762.914	1050.61
763.098	1056.75
763.281	923.63
763.464	1001.46
763.648	1017.84
763.831	915.44
764.015	1001.46
764.198	985.07
764.381	964.59
764.564	866.29
764.748	890.87
764.931	940.02
765.114	1009.65
765.297	966.64
765.481	849.91
765.664	995.31
765.847	808.95
766.03	917.49
766.213	899.06
766.397	917.49
766.58	825.33
766.763	931.83
766.946	915.44
767.129	845.81
767.312	899.06
767.495	858.1
767.678	876.53
767.861	919.54
768.044	876.53
768.227	933.87
768.41	868.34
768.593	876.53
768.776	870.39
768.959	825.33
769.142	849.91
769.324	860.15
769.507	899.06
769.69	761.84
769.873	821.24
770.056	849.91
770.239	849.91
770.421	835.57
770.604	870.39
770.787	813.04
770.97	890.87
771.152	776.18
771.335	862.19
771.518	731.12
771.7	911.35
771.883	864.24
772.066	714.74
772.248	778.23
772.431	845.81
772.613	790.52
772.796	776.18
772.978	761.84
773.161	776.18
773.343	819.19
773.526	788.47
773.708	817.14
773.891	686.07
774.073	767.99
774.256	718.84
774.438	825.33
774.621	663.54
774.803	729.08
774.985	671.73
775.168	767.99
775.35	694.26
775.532	704.5
775.715	657.4
775.897	677.88
776.079	661.49
776.261	763.89
776.444	688.12
776.626	688.12
776.808	702.45
776.99	653.3
777.173	677.88
777.355	688.12
777.537	686.07
777.719	665.59
777.901	636.92
778.083	595.96
778.265	591.86
778.447	649.21
778.629	579.58
778.811	600.05
778.993	604.15
779.175	665.59
779.357	632.82
779.539	514.04
779.721	585.72
779.903	552.95
780.085	565.24
780.267	583.67
780.449	587.77
780.631	636.92
780.812	616.44
780.994	464.89
781.176	475.13
781.358	557.05
781.54	491.51
781.721	579.58
781.903	532.47
782.085	493.56
782.267	573.43
782.448	505.85
782.63	481.27
782.812	481.27
782.993	481.27
783.175	507.9
783.357	522.23
783.538	475.13
783.72	405.5
783.901	450.55
784.083	450.55
784.264	407.55
784.446	436.22
784.627	417.79
784.809	514.04
784.99	438.27
785.172	423.93
785.353	452.6
785.535	354.3
785.716	425.98
785.897	473.08
786.079	393.21
786.26	511.99
786.441	452.6
786.623	411.64
786.804	450.55
786.985	477.18
787.167	442.36
787.348	407.55
787.529	473.08
787.71	391.16
787.891	333.82
788.073	399.35
788.254	401.4
788.435	356.35
788.616	423.93
788.797	374.78
788.978	360.44
789.159	399.35
789.34	342.01
789.522	360.44
789.703	409.59
789.884	327.67
790.065	376.83
790.246	425.98
790.427	389.11
790.607	370.68
790.788	391.16
790.969	317.44
791.15	327.67
791.331	350.2
791.512	352.25
791.693	382.97
791.874	264.19
792.054	409.59
792.235	346.11
792.416	288.76
792.597	346.11
792.778	415.74
792.958	358.39
793.139	319.48
793.32	366.59
793.5	212.99
793.681	366.59
793.862	362.49
794.042	309.24
794.223	272.38
794.404	276.48
794.584	294.91
794.765	292.86
794.945	258.04
795.126	227.32
795.306	344.06
795.487	331.77
795.667	223.23
795.848	319.48
796.028	178.17
796.209	288.76
796.389	219.13
796.57	331.77
796.75	219.13
796.93	313.34
797.111	198.65
797.291	286.72
797.471	272.38
797.652	256
797.832	311.29
798.012	344.06
798.192	280.57
798.373	229.37
798.553	333.82
798.733	249.85
798.913	253.95
799.093	329.72
799.274	241.66
799.454	301.05
799.634	319.48
799.814	249.85
799.994	243.71
800.174	296.96
800.354	225.28
800.534	251.9
800.714	284.67
800.894	243.71
801.074	206.84
801.254	190.46
801.434	288.76
801.614	268.28
801.794	206.84
801.974	966.64
802.154	176.13
802.334	180.22
802.514	153.6
802.693	333.82
802.873	188.41
803.053	272.38
803.233	237.56
803.413	268.28
803.592	237.56
803.772	286.72
803.952	202.75
804.131	104.45
804.311	217.08
804.491	172.03
804.67	157.69
804.85	124.93
805.03	151.55
805.209	161.79
805.389	243.71
805.568	219.13
805.748	268.28
805.928	245.76
806.107	180.22
806.287	124.93
806.466	276.48
806.646	239.61
806.825	174.08
807.004	260.09
807.184	198.65
807.363	145.41
807.543	165.89
807.722	137.21
807.901	172.03
808.081	159.74
808.26	118.78
808.439	202.75
808.619	182.27
808.798	98.3
808.977	186.37
809.156	204.8
809.336	206.84
809.515	215.04
809.694	137.21
809.873	139.26
810.052	210.94
810.231	235.52
810.411	147.45
810.59	157.69
810.769	194.56
810.948	96.25
811.127	90.11
811.306	79.87
811.485	79.87
811.664	221.18
811.843	206.84
812.022	124.93
812.201	120.83
812.38	182.27
812.559	79.87
812.737	194.56
812.916	139.26
813.095	268.28
813.274	147.45
813.453	153.6
813.632	202.75
813.811	186.37
813.989	104.45
814.168	120.83
814.347	71.68
814.526	98.3
814.704	155.65
814.883	110.59
815.062	149.5
815.24	122.88
815.419	194.56
815.598	104.45
815.776	90.11
815.955	163.84
816.133	77.82
816.312	149.5
816.49	129.02
816.669	178.17
816.847	137.21
817.026	129.02
817.204	63.49
817.383	63.49
817.561	106.49
817.74	145.41
817.918	174.08
818.097	153.6
818.275	116.73
818.453	75.77
818.632	96.25
818.81	155.65
818.988	96.25
819.167	88.06
819.345	157.69
819.523	137.21
819.701	79.87
819.879	133.12
820.058	131.07
820.236	112.64
820.414	112.64
820.592	137.21
820.77	83.97
820.948	129.02
821.127	63.49
821.305	161.79
821.483	30.72
821.661	129.02
821.839	135.17
822.017	147.45
822.195	116.73
822.373	129.02
822.551	204.8
822.729	239.61
822.907	114.69
823.085	120.83
823.262	102.4
823.44	112.64
823.618	53.25
823.796	116.73
823.974	55.3
824.152	104.45
824.329	53.25
824.507	145.41
824.685	192.51
824.863	100.35
825.04	129.02
825.218	133.12
825.396	92.16
825.574	79.87
825.751	81.92
825.929	122.88
826.107	-34.82
826.284	75.77
826.462	155.65
826.639	129.02
826.817	69.63
826.994	137.21
827.172	71.68
827.349	137.21
827.527	40.96
827.704	143.36
827.882	122.88
828.059	131.07
828.237	79.87
828.414	149.5
828.591	63.49
828.769	67.58
828.946	59.39
829.124	120.83
829.301	36.86
829.478	47.1
829.655	63.49
829.833	79.87
830.01	24.58
830.187	131.07
830.364	106.49
830.542	104.45
830.719	167.93
830.896	92.16
831.073	118.78
831.25	71.68
831.427	169.98
831.604	155.65
831.782	96.25
831.959	108.54
832.136	83.97
832.313	71.68
832.49	14.34
832.667	71.68
832.844	98.3
833.021	104.45
833.198	131.07
833.374	120.83
833.551	73.73
833.728	137.21
833.905	71.68
834.082	79.87
834.259	110.59
834.436	116.73
834.612	71.68
834.789	112.64
834.966	71.68
835.143	18.43
835.319	61.44
835.496	155.65
835.673	30.72
835.85	83.97
836.026	137.21
836.203	137.21
836.38	57.34
836.556	145.41
836.733	47.1
836.909	43.01
837.086	2.05
837.262	2.05
837.439	67.58
837.616	86.01
837.792	57.34
837.968	-2.05
838.145	20.48
838.321	32.77
838.498	131.07
838.674	67.58
838.851	-6.14
839.027	79.87
839.203	118.78
839.38	143.36
839.556	40.96
839.732	79.87
839.909	-12.29
840.085	96.25
840.261	-8.19
840.437	81.92
840.614	67.58
840.79	102.4
840.966	22.53
841.142	73.73
841.318	-47.1
841.494	88.06
841.671	120.83
841.847	-18.43
842.023	49.15
842.199	38.91
842.375	100.35
842.551	18.43
842.727	94.21
842.903	131.07
843.079	30.72
843.255	120.83
843.431	43.01
843.607	137.21
843.783	34.82
843.959	151.55
844.134	18.43
844.31	108.54
844.486	24.58
844.662	43.01
844.838	59.39
845.013	77.82
845.189	-24.58
845.365	83.97
845.541	26.62
845.716	104.45
845.892	88.06
846.068	47.1
846.244	88.06
846.419	122.88
846.595	75.77
846.77	106.49
846.946	16.38
847.122	-24.58
847.297	49.15
847.473	92.16
847.648	-34.82
847.824	34.82
847.999	-20.48
848.175	-18.43
848.35	28.67
848.526	38.91
848.701	55.3
848.876	34.82
849.052	36.86
849.227	40.96
849.403	30.72
849.578	79.87
849.753	83.97
849.929	53.25
850.104	71.68
850.279	16.38
850.454	88.06
850.63	26.62
850.805	51.2
850.98	8.19
851.155	14.34
851.33	88.06
851.505	28.67
851.681	-22.53
851.856	38.91
852.031	100.35
852.206	92.16
852.381	59.39
852.556	24.58
852.731	30.72
852.906	94.21
853.081	77.82
853.256	122.88
853.431	53.25
853.606	-47.1
853.781	20.48
853.956	22.53
854.131	57.34
854.305	-34.82
854.48	24.58
854.655	-57.34
854.83	55.3
855.005	-10.24
855.18	22.53
855.354	-6.14
855.529	38.91
855.704	2.05
855.879	108.54
856.053	-6.14
856.228	26.62
856.403	47.1
856.577	38.91
856.752	-18.43
856.926	69.63
857.101	43.01
857.276	26.62
857.45	-14.34
857.625	67.58
857.799	38.91
857.974	-24.58
858.148	43.01
858.323	47.1
858.497	24.58
858.672	-34.82
858.846	2.05
859.02	90.11
859.195	65.54
859.369	26.62
859.543	-8.19
859.718	61.44
859.892	32.77
860.066	65.54
860.241	-28.67
860.415	51.2
860.589	71.68
860.763	-10.24
860.938	22.53
861.112	10.24
861.286	0
861.46	108.54
861.634	73.73
861.808	53.25
861.982	-81.92
862.157	36.86
862.331	14.34
862.505	12.29
862.679	6.14
862.853	6.14
863.027	6.14
863.201	28.67
863.375	-26.62
863.549	26.62
863.722	106.49
863.896	61.44
864.07	59.39
864.244	18.43
864.418	112.64
864.592	71.68
864.766	57.34
864.939	-16.38
865.113	-18.43
865.287	-51.2
865.461	-12.29
865.634	114.69
865.808	-18.43
865.982	-4.1
866.156	-59.39
866.329	43.01
866.503	73.73
866.676	47.1
866.85	-8.19
867.024	32.77
867.197	-24.58
867.371	47.1
867.544	36.86
867.718	-32.77
867.891	32.77
868.065	-26.62
868.238	75.77
868.412	43.01
868.585	43.01
868.759	-61.44
868.932	49.15
869.105	0
869.279	-38.91
869.452	32.77
869.625	90.11
869.799	30.72
869.972	-16.38
870.145	-4.1
870.319	16.38
870.492	38.91
870.665	-36.86
870.838	-10.24
871.011	10.24
871.185	30.72
871.358	2.05
871.531	67.58
871.704	-49.15
871.877	22.53
872.05	-38.91
872.223	-6.14
872.396	114.69
872.569	51.2
872.742	-16.38
872.915	67.58
873.088	2.05
873.261	22.53
873.434	32.77
873.607	-24.58
873.78	81.92
873.953	79.87
874.126	102.4
874.299	-22.53
874.471	40.96
874.644	51.2
874.817	-4.1
874.99	112.64
875.163	36.86
875.335	-32.77
875.508	16.38
875.681	79.87
875.853	-51.2
876.026	81.92
876.199	18.43
876.371	30.72
876.544	-16.38
876.717	122.88
876.889	40.96
877.062	28.67
877.234	-6.14
877.407	-26.62
877.579	57.34
877.752	47.1
877.924	2.05
878.097	65.54
878.269	22.53
878.442	12.29
878.614	-24.58
878.786	-2.05
878.959	-34.82
879.131	-26.62
879.303	-28.67
879.476	2.05
879.648	34.82
879.82	32.77
879.993	16.38
880.165	-51.2
880.337	-69.63
880.509	-83.97
880.681	-34.82
880.854	-139.26
881.026	-34.82
881.198	137.21
881.37	-2.05
881.542	61.44
881.714	-45.06
881.886	55.3
882.058	16.38
882.23	47.1
882.402	75.77
882.574	-2.05
882.746	6.14
882.918	71.68
883.09	-4.1
883.262	18.43
883.434	38.91
883.606	73.73
883.778	51.2
883.95	79.87
884.122	-14.34
884.293	28.67
884.465	18.43
884.637	6.14
884.809	79.87
884.98	65.54
885.152	-34.82
885.324	40.96
885.496	-34.82
885.667	38.91
885.839	38.91
886.011	71.68
886.182	2.05
886.354	0
886.525	18.43
886.697	-2.05
886.869	-14.34
887.04	6.14
887.212	61.44
887.383	26.62
887.555	38.91
887.726	0
887.897	14.34
888.069	73.73
888.24	8.19
888.412	55.3
888.583	118.78
888.754	55.3
888.926	-34.82
889.097	2.05
889.268	-92.16
889.44	-10.24
889.611	-30.72
889.782	-26.62
889.953	4.1
890.125	-22.53
890.296	-14.34
890.467	45.06
890.638	2.05
890.809	14.34
890.98	28.67
891.151	2.05
891.323	124.93
891.494	-10.24
891.665	30.72
891.836	28.67
892.007	-30.72
892.178	14.34
892.349	14.34
892.52	6.14
892.691	47.1
892.862	6.14
893.032	-47.1
893.203	88.06
893.374	-34.82
893.545	40.96
893.716	-32.77
893.887	-22.53
894.057	-2.05
894.228	10.24
894.399	-6.14
894.57	59.39
894.74	22.53
894.911	63.49
895.082	-10.24
895.253	-81.92
895.423	-24.58
895.594	26.62
895.764	40.96
895.935	-18.43
896.106	16.38
896.276	22.53
896.447	55.3
896.617	-8.19
896.788	-10.24
896.958	65.54
897.129	-45.06
897.299	-32.77
897.47	32.77
897.64	71.68
897.81	47.1
897.981	22.53
898.151	30.72
898.322	-32.77
898.492	-18.43
898.662	-18.43
898.832	6.14
899.003	24.58
899.173	55.3
899.343	-32.77
899.513	-36.86
