Data from USB4F104151__189__14-32-58-631.txt Node

Date: Thu Mar 13 14:32:58 EDT 2025
User: louis
Spectrometer: USB4F10415
Trigger mode: 4
Integration Time (sec): 2.500000E-2
Scans to average: 1
Electric dark correction enabled: true
Nonlinearity correction enabled: false
Boxcar width: 0
XAxis mode: Wavelengths
Number of Pixels in Spectrum: 3648
>>>>>Begin Spectral Data<<<<<
178.204	-152.91
178.424	-152.91
178.644	-152.91
178.864	-157.01
179.084	-161.11
179.304	-54.61
179.524	10.92
179.744	15.02
179.964	12.97
180.184	-32.08
180.404	86.7
180.624	68.27
180.844	-54.61
181.064	-25.94
181.283	39.59
181.503	-38.23
181.723	-27.99
181.943	-19.8
182.163	51.88
182.383	-60.76
182.602	133.8
182.822	27.31
183.042	39.59
183.262	-19.8
183.482	-36.18
183.701	19.11
183.921	27.31
184.141	-21.85
184.361	-3.41
184.58	37.55
184.8	78.51
185.02	-5.46
185.239	113.32
185.459	53.93
185.679	72.36
185.898	-87.38
186.118	101.03
186.338	-40.28
186.557	45.74
186.777	-13.65
186.997	23.21
187.216	-62.8
187.436	92.84
187.655	80.55
187.875	107.18
188.095	-62.8
188.314	60.07
188.534	35.5
188.753	53.93
188.973	-19.8
189.192	17.07
189.412	68.27
189.631	27.31
189.851	10.92
190.07	129.7
190.29	27.31
190.509	19.11
190.729	-21.85
190.948	80.55
191.168	166.57
191.387	78.51
191.607	-11.61
191.826	31.4
192.045	37.55
192.265	21.16
192.484	-38.23
192.704	21.16
192.923	60.07
193.142	76.46
193.362	-21.85
193.581	2.73
193.8	10.92
194.02	10.92
194.239	-3.41
194.458	62.12
194.678	29.35
194.897	51.88
195.116	-44.37
195.335	19.11
195.555	45.74
195.774	-19.8
195.993	51.88
196.212	53.93
196.432	82.6
196.651	10.92
196.87	21.16
197.089	58.03
197.308	64.17
197.528	19.11
197.747	-27.99
197.966	6.83
198.185	139.94
198.404	-11.61
198.623	76.46
198.842	53.93
199.062	12.97
199.281	60.07
199.5	-44.37
199.719	-11.61
199.938	-21.85
200.157	76.46
200.376	39.59
200.595	115.37
200.814	-54.61
201.033	23.21
201.252	121.51
201.471	68.27
201.69	43.69
201.909	19.11
202.128	-3.41
202.347	21.16
202.566	-25.94
202.785	-21.85
203.004	-48.47
203.223	117.42
203.442	27.31
203.661	-13.65
203.879	60.07
204.098	84.65
204.317	41.64
204.536	-5.46
204.755	21.16
204.974	70.31
205.193	47.79
205.411	107.18
205.63	72.36
205.849	76.46
206.068	-11.61
206.287	35.5
206.505	84.65
206.724	70.31
206.943	47.79
207.162	47.79
207.381	43.69
207.599	-25.94
207.818	-25.94
208.037	2.73
208.255	-5.46
208.474	111.27
208.693	25.26
208.911	-30.04
209.13	82.6
209.349	70.31
209.567	37.55
209.786	33.45
210.005	60.07
210.223	-27.99
210.442	-38.23
210.661	47.79
210.879	-34.13
211.098	-13.65
211.316	8.87
211.535	111.27
211.753	4.78
211.972	51.88
212.191	-46.42
212.409	39.59
212.628	49.83
212.846	21.16
213.065	17.07
213.283	6.83
213.502	109.23
213.72	2.73
213.938	19.11
214.157	49.83
214.375	-3.41
214.594	51.88
214.812	35.5
215.031	68.27
215.249	-21.85
215.467	60.07
215.686	-21.85
215.904	51.88
216.122	6.83
216.341	117.42
216.559	60.07
216.778	94.89
216.996	39.59
217.214	-34.13
217.432	19.11
217.651	39.59
217.869	78.51
218.087	4.78
218.306	43.69
218.524	10.92
218.742	29.35
218.96	55.98
219.179	-19.8
219.397	10.92
219.615	64.17
219.833	21.16
220.051	49.83
220.27	17.07
220.488	66.22
220.706	-5.46
220.924	51.88
221.142	-25.94
221.36	-21.85
221.578	84.65
221.796	-1.37
222.015	4.78
222.233	60.07
222.451	94.89
222.669	-3.41
222.887	-1.37
223.105	-19.8
223.323	-17.75
223.541	-101.72
223.759	23.21
223.977	43.69
224.195	43.69
224.413	39.59
224.631	72.36
224.849	66.22
225.067	121.51
225.285	23.21
225.503	-25.94
225.721	-30.04
225.939	43.69
226.157	35.5
226.375	113.32
226.592	-44.37
226.81	35.5
227.028	101.03
227.246	94.89
227.464	-5.46
227.682	64.17
227.9	74.41
228.117	60.07
228.335	10.92
228.553	-11.61
228.771	-27.99
228.989	80.55
229.206	33.45
229.424	19.11
229.642	60.07
229.86	27.31
230.077	21.16
230.295	43.69
230.513	23.21
230.731	39.59
230.948	76.46
231.166	133.8
231.384	51.88
231.601	64.17
231.819	64.17
232.037	-50.52
232.254	15.02
232.472	-9.56
232.689	45.74
232.907	21.16
233.125	15.02
233.342	-9.56
233.56	2.73
233.777	78.51
233.995	-3.41
234.213	2.73
234.43	68.27
234.648	4.78
234.865	2.73
235.083	101.03
235.3	49.83
235.518	45.74
235.735	113.32
235.953	35.5
236.17	-13.65
236.388	10.92
236.605	107.18
236.822	62.12
237.04	127.66
237.257	19.11
237.475	-5.46
237.692	31.4
237.909	19.11
238.127	-44.37
238.344	4.78
238.562	29.35
238.779	-38.23
238.996	-5.46
239.214	-54.61
239.431	27.31
239.648	25.26
239.865	-5.46
240.083	53.93
240.3	45.74
240.517	37.55
240.735	76.46
240.952	66.22
241.169	39.59
241.386	31.4
241.603	-62.8
241.821	15.02
242.038	-54.61
242.255	31.4
242.472	29.35
242.689	-23.89
242.907	72.36
243.124	6.83
243.341	6.83
243.558	55.98
243.775	-1.37
243.992	-11.61
244.209	64.17
244.426	64.17
244.643	117.42
244.86	15.02
245.078	21.16
245.295	39.59
245.512	51.88
245.729	6.83
245.946	68.27
246.163	55.98
246.38	55.98
246.597	37.55
246.814	2.73
247.031	35.5
247.248	49.83
247.464	72.36
247.681	43.69
247.898	21.16
248.115	10.92
248.332	-5.46
248.549	15.02
248.766	74.41
248.983	105.13
249.2	53.93
249.417	-13.65
249.633	29.35
249.85	68.27
250.067	4.78
250.284	6.83
250.501	-13.65
250.717	-19.8
250.934	-15.7
251.151	68.27
251.368	60.07
251.585	23.21
251.801	-5.46
252.018	10.92
252.235	-42.32
252.451	27.31
252.668	-7.51
252.885	-5.46
253.102	101.03
253.318	76.46
253.535	15.02
253.752	8.87
253.968	109.23
254.185	-46.42
254.401	-30.04
254.618	-40.28
254.835	27.31
255.051	72.36
255.268	62.12
255.484	55.98
255.701	-9.56
255.917	15.02
256.134	-46.42
256.351	66.22
256.567	-7.51
256.784	96.94
257	-62.8
257.217	121.51
257.433	127.66
257.65	-11.61
257.866	92.84
258.082	88.75
258.299	45.74
258.515	37.55
258.732	66.22
258.948	10.92
259.165	101.03
259.381	-15.7
259.597	-48.47
259.814	2.73
260.03	35.5
260.246	78.51
260.463	62.12
260.679	53.93
260.895	-21.85
261.112	17.07
261.328	2.73
261.544	19.11
261.761	58.03
261.977	-5.46
262.193	-21.85
262.409	15.02
262.626	21.16
262.842	-30.04
263.058	-38.23
263.274	98.99
263.49	35.5
263.707	107.18
263.923	41.64
264.139	41.64
264.355	51.88
264.571	68.27
264.787	-9.56
265.004	23.21
265.22	8.87
265.436	35.5
265.652	-5.46
265.868	35.5
266.084	21.16
266.3	43.69
266.516	-13.65
266.732	53.93
266.948	-62.8
267.164	10.92
267.38	23.21
267.596	27.31
267.812	78.51
268.028	15.02
268.244	-9.56
268.46	27.31
268.676	15.02
268.892	-54.61
269.108	2.73
269.324	-5.46
269.54	-13.65
269.756	47.79
269.972	-25.94
270.188	68.27
270.403	60.07
270.619	2.73
270.835	47.79
271.051	-52.56
271.267	-21.85
271.483	4.78
271.698	35.5
271.914	-42.32
272.13	-15.7
272.346	84.65
272.562	-5.46
272.777	68.27
272.993	-42.32
273.209	39.59
273.425	51.88
273.64	-27.99
273.856	133.8
274.072	55.98
274.287	25.26
274.503	101.03
274.719	101.03
274.934	-15.7
275.15	-1.37
275.366	-1.37
275.581	19.11
275.797	55.98
276.012	6.83
276.228	39.59
276.444	39.59
276.659	21.16
276.875	31.4
277.09	-1.37
277.306	-3.41
277.521	76.46
277.737	76.46
277.952	19.11
278.168	-34.13
278.383	37.55
278.599	55.98
278.814	-1.37
279.03	-11.61
279.245	121.51
279.461	31.4
279.676	47.79
279.892	-9.56
280.107	-11.61
280.322	-46.42
280.538	43.69
280.753	2.73
280.969	2.73
281.184	15.02
281.399	2.73
281.615	-27.99
281.83	84.65
282.045	-21.85
282.26	-54.61
282.476	27.31
282.691	76.46
282.906	29.35
283.122	-27.99
283.337	29.35
283.552	51.88
283.767	-3.41
283.983	76.46
284.198	-3.41
284.413	51.88
284.628	-50.52
284.843	23.21
285.058	170.66
285.274	-13.65
285.489	15.02
285.704	23.21
285.919	-13.65
286.134	6.83
286.349	-25.94
286.564	-3.41
286.779	27.31
286.995	-11.61
287.21	12.97
287.425	-13.65
287.64	53.93
287.855	-9.56
288.07	-3.41
288.285	51.88
288.5	39.59
288.715	107.18
288.93	-1.37
289.145	-5.46
289.36	125.61
289.575	70.31
289.79	-11.61
290.004	45.74
290.219	2.73
290.434	45.74
290.649	-38.23
290.864	84.65
291.079	2.73
291.294	72.36
291.509	2.73
291.724	-3.41
291.938	21.16
292.153	29.35
292.368	39.59
292.583	-30.04
292.798	10.92
293.012	80.55
293.227	43.69
293.442	70.31
293.657	8.87
293.871	55.98
294.086	4.78
294.301	109.23
294.516	86.7
294.73	43.69
294.945	25.26
295.16	17.07
295.374	23.21
295.589	78.51
295.804	60.07
296.018	15.02
296.233	70.31
296.447	10.92
296.662	-34.13
296.877	43.69
297.091	82.6
297.306	33.45
297.52	25.26
297.735	60.07
297.949	27.31
298.164	51.88
298.378	-11.61
298.593	-13.65
298.807	-17.75
299.022	8.87
299.236	2.73
299.451	15.02
299.665	47.79
299.88	-3.41
300.094	74.41
300.309	80.55
300.523	15.02
300.737	8.87
300.952	62.12
301.166	35.5
301.381	-13.65
301.595	-19.8
301.809	21.16
302.024	47.79
302.238	-50.52
302.452	2.73
302.667	60.07
302.881	58.03
303.095	101.03
303.309	35.5
303.524	6.83
303.738	17.07
303.952	-3.41
304.166	-17.75
304.381	-89.43
304.595	39.59
304.809	-5.46
305.023	-21.85
305.237	-25.94
305.452	2.73
305.666	51.88
305.88	37.55
306.094	60.07
306.308	19.11
306.522	51.88
306.736	68.27
306.95	62.12
307.164	-3.41
307.379	58.03
307.593	66.22
307.807	49.83
308.021	92.84
308.235	10.92
308.449	-93.52
308.663	-54.61
308.877	37.55
309.091	-3.41
309.305	133.8
309.519	-54.61
309.733	19.11
309.947	15.02
310.161	33.45
310.374	43.69
310.588	101.03
310.802	51.88
311.016	-42.32
311.23	45.74
311.444	45.74
311.658	80.55
311.872	-1.37
312.085	94.89
312.299	195.24
312.513	103.08
312.727	92.84
312.941	-13.65
313.154	55.98
313.368	8.87
313.582	49.83
313.796	-19.8
314.009	45.74
314.223	53.93
314.437	8.87
314.651	88.75
314.864	68.27
315.078	4.78
315.292	27.31
315.505	-34.13
315.719	109.23
315.933	-30.04
316.146	35.5
316.36	37.55
316.573	74.41
316.787	29.35
317.001	92.84
317.214	21.16
317.428	19.11
317.641	-21.85
317.855	60.07
318.068	19.11
318.282	29.35
318.495	152.23
318.709	47.79
318.922	-3.41
319.136	68.27
319.349	84.65
319.563	84.65
319.776	49.83
319.99	-38.23
320.203	17.07
320.417	43.69
320.63	94.89
320.843	60.07
321.057	31.4
321.27	-21.85
321.483	-5.46
321.697	70.31
321.91	35.5
322.124	43.69
322.337	45.74
322.55	62.12
322.763	84.65
322.977	35.5
323.19	-77.14
323.403	43.69
323.617	43.69
323.83	92.84
324.043	12.97
324.256	88.75
324.469	21.16
324.683	78.51
324.896	-34.13
325.109	80.55
325.322	-5.46
325.535	64.17
325.748	12.97
325.962	31.4
326.175	4.78
326.388	41.64
326.601	23.21
326.814	111.27
327.027	41.64
327.24	96.94
327.453	-3.41
327.666	43.69
327.879	70.31
328.092	76.46
328.305	35.5
328.518	-11.61
328.731	47.79
328.944	43.69
329.157	60.07
329.37	45.74
329.583	158.38
329.796	111.27
330.009	-9.56
330.222	45.74
330.435	41.64
330.648	37.55
330.861	66.22
331.073	150.18
331.286	53.93
331.499	86.7
331.712	-30.04
331.925	-27.99
332.138	45.74
332.35	27.31
332.563	-5.46
332.776	43.69
332.989	51.88
333.202	-15.7
333.414	55.98
333.627	45.74
333.84	47.79
334.053	86.7
334.265	4.78
334.478	21.16
334.691	15.02
334.903	68.27
335.116	-68.95
335.329	80.55
335.541	2.73
335.754	96.94
335.966	35.5
336.179	-17.75
336.392	-5.46
336.604	-1.37
336.817	47.79
337.029	121.51
337.242	43.69
337.454	19.11
337.667	-13.65
337.88	176.81
338.092	-46.42
338.305	101.03
338.517	35.5
338.729	125.61
338.942	92.84
339.154	35.5
339.367	6.83
339.579	92.84
339.792	-7.51
340.004	10.92
340.217	60.07
340.429	21.16
340.641	27.31
340.854	60.07
341.066	-52.56
341.278	84.65
341.491	84.65
341.703	4.78
341.915	55.98
342.128	43.69
342.34	37.55
342.552	25.26
342.764	-11.61
342.977	2.73
343.189	15.02
343.401	64.17
343.613	60.07
343.826	-21.85
344.038	-3.41
344.25	68.27
344.462	-36.18
344.674	84.65
344.886	74.41
345.099	43.69
345.311	58.03
345.523	-54.61
345.735	-54.61
345.947	53.93
346.159	6.83
346.371	27.31
346.583	6.83
346.795	125.61
347.007	64.17
347.219	23.21
347.431	-15.7
347.643	80.55
347.855	12.97
348.067	33.45
348.279	-13.65
348.491	41.64
348.703	80.55
348.915	35.5
349.127	-5.46
349.339	4.78
349.551	-87.38
349.763	31.4
349.975	-25.94
350.187	68.27
350.399	51.88
350.61	37.55
350.822	96.94
351.034	27.31
351.246	64.17
351.458	76.46
351.669	76.46
351.881	88.75
352.093	35.5
352.305	47.79
352.517	60.07
352.728	19.11
352.94	51.88
353.152	37.55
353.363	27.31
353.575	10.92
353.787	117.42
353.999	10.92
354.21	49.83
354.422	68.27
354.633	62.12
354.845	-17.75
355.057	45.74
355.268	58.03
355.48	-17.75
355.692	-50.52
355.903	10.92
356.115	55.98
356.326	35.5
356.538	125.61
356.749	88.75
356.961	41.64
357.172	19.11
357.384	-7.51
357.595	94.89
357.807	86.7
358.018	68.27
358.23	94.89
358.441	43.69
358.653	35.5
358.864	23.21
359.075	31.4
359.287	-11.61
359.498	4.78
359.709	37.55
359.921	-13.65
360.132	-5.46
360.344	78.51
360.555	-19.8
360.766	43.69
360.977	29.35
361.189	31.4
361.4	15.02
361.611	55.98
361.823	53.93
362.034	37.55
362.245	-15.7
362.456	-9.56
362.667	-5.46
362.879	19.11
363.09	15.02
363.301	29.35
363.512	-17.75
363.723	88.75
363.935	12.97
364.146	113.32
364.357	51.88
364.568	10.92
364.779	-64.85
364.99	117.42
365.201	29.35
365.412	45.74
365.623	-46.42
365.834	-11.61
366.045	-25.94
366.256	45.74
366.467	55.98
366.678	55.98
366.889	43.69
367.1	23.21
367.311	70.31
367.522	2.73
367.733	86.7
367.944	80.55
368.155	58.03
368.366	43.69
368.577	64.17
368.788	84.65
368.999	27.31
369.209	45.74
369.42	55.98
369.631	107.18
369.842	88.75
370.053	10.92
370.264	101.03
370.474	2.73
370.685	17.07
370.896	53.93
371.107	68.27
371.317	-1.37
371.528	80.55
371.739	101.03
371.95	-9.56
372.16	43.69
372.371	6.83
372.582	-27.99
372.792	72.36
373.003	19.11
373.214	-19.8
373.424	51.88
373.635	31.4
373.846	-11.61
374.056	15.02
374.267	27.31
374.477	6.83
374.688	37.55
374.898	-5.46
375.109	53.93
375.319	64.17
375.53	74.41
375.74	-27.99
375.951	113.32
376.161	43.69
376.372	84.65
376.582	2.73
376.793	29.35
377.003	-11.61
377.214	-3.41
377.424	43.69
377.635	-5.46
377.845	76.46
378.055	68.27
378.266	-13.65
378.476	70.31
378.686	8.87
378.897	119.46
379.107	53.93
379.317	53.93
379.528	4.78
379.738	109.23
379.948	17.07
380.158	125.61
380.369	27.31
380.579	119.46
380.789	-52.56
380.999	90.79
381.21	43.69
381.42	111.27
381.63	-1.37
381.84	12.97
382.05	78.51
382.261	74.41
382.471	45.74
382.681	133.8
382.891	51.88
383.101	35.5
383.311	-15.7
383.521	88.75
383.731	86.7
383.941	76.46
384.151	76.46
384.361	70.31
384.571	74.41
384.781	47.79
384.991	141.99
385.201	170.66
385.411	94.89
385.621	53.93
385.831	72.36
386.041	27.31
386.251	49.83
386.461	166.57
386.671	-17.75
386.881	66.22
387.091	43.69
387.301	-5.46
387.511	109.23
387.72	39.59
387.93	43.69
388.14	-27.99
388.35	15.02
388.56	125.61
388.769	109.23
388.979	43.69
389.189	35.5
389.399	51.88
389.609	33.45
389.818	76.46
390.028	10.92
390.238	182.95
390.447	31.4
390.657	105.13
390.867	-36.18
391.076	15.02
391.286	80.55
391.496	158.38
391.705	60.07
391.915	113.32
392.125	160.42
392.334	76.46
392.544	70.31
392.753	78.51
392.963	23.21
393.172	29.35
393.382	27.31
393.591	105.13
393.801	66.22
394.01	58.03
394.22	2.73
394.429	15.02
394.639	70.31
394.848	133.8
395.058	76.46
395.267	0.68
395.477	51.88
395.686	115.37
395.895	113.32
396.105	60.07
396.314	27.31
396.524	35.5
396.733	72.36
396.942	125.61
397.152	78.51
397.361	94.89
397.57	84.65
397.78	27.31
397.989	80.55
398.198	82.6
398.407	78.51
398.617	125.61
398.826	51.88
399.035	68.27
399.244	141.99
399.453	62.12
399.663	43.69
399.872	84.65
400.081	64.17
400.29	154.28
400.499	19.11
400.708	94.89
400.917	103.08
401.127	88.75
401.336	94.89
401.545	127.66
401.754	84.65
401.963	105.13
402.172	62.12
402.381	117.42
402.59	141.99
402.799	113.32
403.008	117.42
403.217	150.18
403.426	84.65
403.635	6.83
403.844	170.66
404.053	92.84
404.262	53.93
404.471	191.14
404.68	137.9
404.888	180.9
405.097	60.07
405.306	162.47
405.515	203.43
405.724	103.08
405.933	182.95
406.142	150.18
406.35	170.66
406.559	117.42
406.768	150.18
406.977	176.81
407.185	191.14
407.394	223.91
407.603	133.8
407.812	209.58
408.02	195.24
408.229	191.14
408.438	281.25
408.646	133.8
408.855	250.53
409.064	211.62
409.272	273.06
409.481	281.25
409.69	232.1
409.898	273.06
410.107	209.58
410.315	260.77
410.524	342.69
410.733	266.92
410.941	318.12
411.15	305.83
411.358	289.45
411.567	350.89
411.775	309.93
411.984	387.75
412.192	381.6
412.401	357.03
412.609	369.32
412.818	453.28
413.026	486.05
413.234	412.32
413.443	449.19
413.651	432.8
413.86	504.48
414.068	559.78
414.276	484
414.485	502.43
414.693	504.48
414.901	625.31
415.11	572.07
415.318	477.86
415.526	563.87
415.734	721.57
415.943	584.35
416.151	715.42
416.359	643.74
416.567	668.32
416.776	723.62
416.984	823.97
417.192	834.21
417.4	725.66
417.608	823.97
417.817	838.3
418.025	889.5
418.233	897.69
418.441	893.6
418.649	938.65
418.857	1034.91
419.065	1049.24
419.273	1065.63
419.481	1088.15
419.689	1118.87
419.897	1192.6
420.105	1157.78
420.313	1274.52
420.521	1219.22
420.729	1348.25
420.937	1342.1
421.145	1338.01
421.353	1415.83
421.561	1493.65
421.769	1501.84
421.977	1612.43
422.185	1671.83
422.393	1684.11
422.601	1788.56
422.809	1649.3
423.017	1800.85
423.224	1823.37
423.432	1890.96
423.64	1933.97
423.848	2218.63
424.056	2112.14
424.263	2095.75
424.471	2167.43
424.679	2149
424.887	2316.94
425.094	2378.37
425.302	2378.37
425.51	2503.3
425.718	2585.22
425.925	2648.71
426.133	2615.94
426.341	2902.65
426.548	2906.75
426.756	3000.96
426.964	2896.51
427.171	3168.89
427.379	3295.86
427.586	3291.77
427.794	3361.4
428.001	3598.96
428.209	3676.79
428.417	3592.82
428.624	3857.01
428.832	3811.95
429.039	4004.46
429.247	3770.99
429.454	4213.35
429.662	4412.01
429.869	4246.12
430.076	4516.45
430.284	4371.05
430.491	4608.61
430.699	4889.18
430.906	4778.59
431.114	4856.42
431.321	5012.06
431.528	5278.3
431.736	5390.94
431.943	5835.35
432.15	5425.75
432.358	5714.52
432.565	6042.19
432.772	5812.82
432.979	6167.12
433.187	6392.39
433.394	6402.63
433.601	6638.15
433.808	6822.47
434.016	6720.07
434.223	7039.55
434.43	7572.02
434.637	7334.46
434.844	7705.14
435.052	7950.9
435.259	7778.87
435.466	7987.76
435.673	7862.83
435.88	8589.86
436.087	8741.41
436.294	8788.52
436.501	8686.12
436.708	8792.61
436.915	9151.01
437.122	9349.66
437.329	9619.99
437.537	9837.08
437.743	10054.16
437.95	9847.32
438.157	10463.75
438.364	10613.26
438.571	10603.02
438.778	10889.73
438.985	11557.37
439.192	11241.98
439.399	11571.71
439.606	11399.68
439.813	12100.08
440.02	12861.93
440.227	12294.64
440.433	12169.71
440.64	12659.18
440.847	12485.1
441.054	12952.04
441.261	13945.3
441.467	13597.15
441.674	13928.92
441.881	14387.66
442.088	14146
442.294	14135.76
442.501	14504.4
442.708	14821.83
442.914	15364.54
443.121	15917.5
443.328	15591.87
443.534	16757.16
443.741	16314.8
443.948	15944.12
444.154	17369.51
444.361	17201.57
444.568	17162.66
444.774	17361.31
444.981	17332.64
445.187	17830.3
445.394	18604.43
445.6	18469.26
445.807	20019.58
446.013	19024.26
446.22	19433.86
446.426	20474.23
446.633	20642.16
446.839	21377.38
447.046	20472.18
447.252	21858.65
447.459	21694.82
447.665	21354.85
447.871	22538.58
448.078	23488.84
448.284	22126.94
448.491	22780.24
448.697	23714.11
448.903	24129.85
449.11	24052.03
449.316	23845.18
449.522	24449.33
449.728	25106.73
449.935	25184.55
450.141	25166.12
450.347	25542.95
450.553	24846.64
450.76	25018.67
450.966	26073.37
451.172	25823.52
451.378	26218.78
451.584	25676.07
451.791	26401.05
451.997	26470.68
452.203	26790.16
452.409	27072.78
452.615	26343.7
452.821	25717.03
453.027	25096.49
453.233	26706.2
453.44	25667.88
453.646	25831.71
453.852	25868.58
454.058	26499.35
454.264	25344.3
454.47	26065.18
454.676	25557.28
454.882	25844
455.088	24267.06
455.294	24570.16
455.5	24848.69
455.705	24998.19
455.911	24265.02
456.117	23353.67
456.323	23218.5
456.529	22069.59
456.735	23058.76
456.941	22247.77
457.147	21918.04
457.352	20842.86
457.558	20996.46
457.764	21141.86
457.97	20670.83
458.176	20097.4
458.381	20119.93
458.587	19087.75
458.793	19157.38
458.999	18098.58
459.204	19356.04
459.41	18842
459.616	17701.28
459.821	17750.43
460.027	17676.7
460.233	17076.65
460.438	16484.78
460.644	16480.69
460.85	15837.62
461.055	15501.76
461.261	15395.26
461.466	14612.94
461.672	13902.29
461.878	15088.07
462.083	14125.52
462.289	13533.66
462.494	13394.4
462.7	12775.91
462.905	12532.2
463.111	13162.98
463.316	13107.68
463.522	12855.78
463.727	12693.99
463.932	13017.57
464.138	12577.26
464.343	12763.62
464.549	12364.27
464.754	12661.23
464.959	12460.52
465.165	12435.95
465.37	11911.67
465.575	11614.71
465.781	12085.75
465.986	12364.27
466.191	11805.17
466.397	11497.98
466.602	10891.78
466.807	11416.06
467.012	11295.23
467.218	11065.86
467.423	11258.37
467.628	11004.42
467.833	11655.67
468.038	11135.49
468.244	10840.58
468.449	11115.01
468.654	10869.25
468.859	10713.61
469.064	10662.41
469.269	10560.01
469.474	10414.6
469.679	10695.18
469.885	10265.1
470.09	10566.15
470.295	10301.97
470.5	10140.18
470.705	10209.81
470.91	10039.83
471.115	9890.32
471.32	9892.37
471.525	10005.01
471.73	9835.03
471.935	9568.79
472.139	9331.23
472.344	9409.05
472.549	9374.24
472.754	9196.06
472.959	9083.42
473.164	8874.53
473.369	8765.99
473.574	8976.93
473.778	9034.27
473.983	8743.46
474.188	8948.26
474.393	8614.44
474.598	8526.38
474.802	8516.14
475.007	8329.77
475.212	8333.87
475.417	8135.21
475.621	7924.27
475.826	8065.58
476.031	7852.59
476.235	7811.64
476.44	7893.55
476.645	7752.24
476.849	7647.8
477.054	7623.22
477.259	7604.79
477.463	7596.6
477.668	7432.76
477.872	7359.03
478.077	7268.92
478.282	7111.23
478.486	7178.81
478.691	6947.39
478.895	6951.49
479.1	6990.4
479.304	7121.47
479.509	6654.53
479.713	7008.83
479.918	6797.89
480.122	6597.19
480.326	6826.56
480.531	6804.03
480.735	6896.19
480.94	6752.84
481.144	6904.39
481.348	6638.15
481.553	6457.93
481.757	6525.51
481.961	6638.15
482.166	6732.36
482.37	6556.23
482.574	6533.7
482.778	6511.18
482.983	6566.47
483.187	6597.19
483.391	6677.06
483.595	6457.93
483.8	6582.85
484.004	6591.05
484.208	6656.58
484.412	6474.31
484.616	6636.1
484.821	6459.98
485.025	6222.41
485.229	6474.31
485.433	6414.92
485.637	6416.97
485.841	6388.3
486.045	6486.6
486.249	6523.46
486.453	6439.5
486.657	6371.91
486.861	6621.77
487.065	6384.2
487.269	6406.73
487.473	6406.73
487.677	6445.64
487.881	6464.07
488.085	6419.02
488.289	6476.36
488.493	6455.88
488.697	6521.42
488.901	6517.32
489.105	6484.55
489.309	6486.6
489.512	6638.15
489.716	6582.85
489.92	6632.01
490.124	6552.13
490.328	6658.63
490.531	6523.46
490.735	6728.26
490.939	6566.47
491.143	6683.2
491.346	6494.79
491.55	6761.03
491.754	6699.59
491.958	6720.07
492.161	6533.7
492.365	6638.15
492.569	6910.53
492.772	6681.16
492.976	6607.43
493.18	6695.49
493.383	7008.83
493.587	6935.1
493.79	7010.88
493.994	6851.14
494.197	7084.61
494.401	7170.62
494.605	7037.5
494.808	7090.75
495.012	7311.93
495.215	7141.95
495.419	7318.07
495.622	7197.24
495.825	7191.1
496.029	7248.44
496.232	7399.99
496.436	7447.1
496.639	7582.26
496.843	7588.41
497.046	7637.56
497.249	7672.37
497.453	7776.82
497.656	7963.19
497.859	7889.46
498.063	8163.89
498.266	8124.97
498.469	8335.92
498.673	8313.39
498.876	8190.51
499.079	8264.24
499.282	8202.8
499.485	8522.28
499.689	8481.32
499.892	8645.16
500.095	8739.37
500.298	8925.73
500.501	8981.03
500.705	9243.17
500.908	9163.29
501.111	9185.82
501.314	9284.12
501.517	9505.31
501.72	9562.65
501.923	9402.91
502.126	9673.24
502.329	10025.49
502.532	9951.76
502.735	9937.43
502.938	10295.82
503.141	10064.4
503.344	10367.5
503.547	10455.56
503.75	10539.53
503.953	10504.71
504.156	10783.24
504.359	11057.67
504.562	10785.29
504.765	11145.73
504.968	10961.41
505.17	11344.38
505.373	11352.57
505.576	11547.13
505.779	11573.75
505.982	11602.43
506.185	11753.98
506.387	11921.91
506.59	11997.68
506.793	12200.43
506.996	12341.74
507.198	12683.75
507.401	12413.42
507.604	12491.24
507.807	12990.95
508.009	13038.05
508.212	13054.44
508.415	12929.51
508.617	13400.54
508.82	13490.65
509.022	13339.1
509.225	13519.32
509.428	13736.41
509.63	13963.73
509.833	13898.2
510.035	14070.23
510.238	14164.43
510.44	14469.58
510.643	14696.91
510.845	14797.26
511.048	14725.58
511.25	14893.51
511.453	15088.07
511.655	15585.72
511.858	15167.94
512.06	15362.5
512.262	15839.67
512.465	15669.69
512.667	15845.82
512.87	15952.31
513.072	15968.69
513.274	16527.79
513.477	16568.75
513.679	16583.09
513.881	16791.98
514.084	16945.58
514.286	17023.4
514.488	16986.54
514.69	17570.21
514.893	17439.14
515.095	17435.04
515.297	17947.03
515.499	17861.02
515.701	18264.47
515.904	18102.68
516.106	18360.72
516.308	18694.54
516.51	18598.29
516.712	18733.45
516.914	18774.41
517.116	19151.24
517.318	19054.98
517.52	19526.02
517.722	19515.78
517.925	19759.49
518.127	19671.42
518.329	20294
518.531	19849.6
518.733	20222.33
518.935	20474.23
519.136	20392.31
519.338	20607.34
519.54	20683.12
519.742	20820.33
519.944	21061.99
520.146	21270.89
520.348	21172.58
520.55	21608.8
520.752	21500.26
520.954	21791.07
521.155	21430.63
521.357	22018.39
521.559	21938.52
521.761	22677.84
521.963	22264.15
522.164	22380.89
522.366	22579.54
522.568	22702.42
522.77	22733.14
522.971	22923.6
523.173	22649.17
523.375	22999.37
523.576	23034.19
523.778	22972.75
523.98	23525.7
524.181	23300.42
524.383	23234.89
524.584	23470.4
524.786	23564.61
524.988	23480.64
525.189	23865.66
525.391	24107.32
525.592	23898.43
525.794	23970.11
525.995	24269.11
526.197	24170.81
526.398	24058.17
526.6	23986.49
526.801	24224.06
527.003	24185.15
527.204	24105.27
527.406	24453.43
527.607	24224.06
527.808	24645.94
528.01	24078.65
528.211	24283.45
528.412	24717.62
528.614	24373.56
528.815	24570.16
529.016	24473.91
529.218	24453.43
529.419	24570.16
529.62	24656.18
529.822	24478.01
530.023	24357.17
530.224	24484.15
530.425	24506.68
530.626	24367.41
530.828	24439.09
531.029	24781.1
531.23	24455.48
531.431	24293.69
531.632	24690.99
531.833	24447.29
532.035	24568.12
532.236	24351.03
532.437	24447.29
532.638	24281.4
532.839	24262.97
533.04	24488.24
533.241	24332.6
533.442	24930.61
533.643	24459.57
533.844	24437.05
534.045	24279.35
534.246	23988.54
534.447	24095.03
534.648	24400.18
534.849	24428.85
535.05	24287.54
535.251	23800.13
535.451	24013.12
535.652	24371.51
535.853	24066.36
536.054	24097.08
536.255	24127.8
536.456	23949.63
536.657	24428.85
536.857	23904.57
537.058	23730.5
537.259	23824.7
537.46	23929.15
537.66	23603.52
537.861	23808.32
538.062	23789.89
538.263	24035.64
538.463	23910.72
538.664	23814.46
538.865	23945.53
539.065	23955.77
539.266	23478.6
539.466	24099.13
539.667	23316.81
539.868	24049.98
540.068	23513.41
540.269	23646.53
540.469	23804.22
540.67	23695.68
540.87	23695.68
541.071	23400.77
541.271	23716.16
541.472	23771.46
541.672	23580.99
541.873	23243.08
542.073	23214.41
542.274	23558.47
542.474	23079.24
542.675	23468.36
542.875	23578.95
543.075	23439.68
543.276	23316.81
543.476	23447.88
543.676	23419.21
543.877	23677.25
544.077	23341.38
544.277	23421.25
544.478	23275.85
544.678	23433.54
544.878	23517.51
545.078	22985.04
545.279	23159.11
545.479	23308.61
545.679	23417.16
545.879	23318.85
546.079	23380.29
546.28	23363.91
546.48	23238.98
546.68	23529.8
546.88	23634.24
547.08	23570.75
547.28	23163.21
547.48	23066.95
547.68	23423.3
547.88	23370.05
548.081	23554.37
548.281	23216.46
548.481	23333.19
548.681	23595.33
548.881	23486.79
549.081	23300.42
549.28	23404.87
549.48	23730.5
549.68	23329.09
549.88	23591.23
550.08	23396.68
550.28	23372.1
550.48	23421.25
550.68	23370.05
550.88	23327.05
551.08	23300.42
551.279	23325
551.479	22823.25
551.679	23462.21
551.879	23476.55
552.079	23363.91
552.278	23494.98
552.478	23044.43
552.678	23441.73
552.878	23636.29
553.077	23413.06
553.277	23316.81
553.477	23439.68
553.676	23400.77
553.876	23466.31
554.076	23363.91
554.275	23388.49
554.475	23169.35
554.674	23417.16
554.874	23255.37
555.074	23470.4
555.273	23595.33
555.473	23570.75
555.672	23447.88
555.872	23519.56
556.071	23437.64
556.271	23742.78
556.47	23509.32
556.67	23173.45
556.869	23646.53
557.068	23851.33
557.268	23408.97
557.467	23716.16
557.667	23513.41
557.866	23662.91
558.065	23525.7
558.265	23576.9
558.464	23259.46
558.663	23734.59
558.863	22931.79
559.062	23963.97
559.261	23497.03
559.461	23984.44
559.66	23243.08
559.859	23656.77
560.058	23544.13
560.258	23566.66
560.457	23388.49
560.656	23941.44
560.855	23218.5
561.054	23351.62
561.253	23015.76
561.453	23587.14
561.652	23556.42
561.851	23689.54
562.05	23642.43
562.249	23243.08
562.448	23427.4
562.647	23570.75
562.846	23437.64
563.045	23488.84
563.244	23304.52
563.443	23626.05
563.642	23042.38
563.841	23411.01
564.04	23400.77
564.239	23740.74
564.438	23040.33
564.637	23488.84
564.836	23423.3
565.035	23118.15
565.234	23181.64
565.432	23441.73
565.631	23163.21
565.83	23095.63
566.029	23036.24
566.228	23187.78
566.427	23087.43
566.625	23144.78
566.824	22587.73
567.023	23177.54
567.222	22464.85
567.42	22991.18
567.619	23001.42
567.818	22683.98
568.016	22954.32
568.215	22853.97
568.414	22587.73
568.612	22638.93
568.811	22643.03
569.01	22907.21
569.208	22464.85
569.407	22638.93
569.605	22579.54
569.804	22710.61
570.002	22448.47
570.201	22559.06
570.4	22389.08
570.598	22432.08
570.797	22094.17
570.995	22602.07
571.193	21746.01
571.392	22190.42
571.59	21995.87
571.789	22260.06
571.987	22116.7
572.186	21913.95
572.384	22192.47
572.582	21952.86
572.781	21997.91
572.979	21946.72
573.177	21903.71
573.376	21832.03
573.574	21678.43
573.772	21614.94
573.971	21406.05
574.169	21375.33
574.367	21277.03
574.565	21688.67
574.763	21393.76
574.962	21248.36
575.16	20932.97
575.358	21229.93
575.556	21059.95
575.754	21432.68
575.952	20705.65
576.151	21209.45
576.349	21004.65
576.547	20578.67
576.745	20777.33
576.943	21188.97
577.141	21008.75
577.339	21072.23
577.537	20949.35
577.735	20771.18
577.933	20527.47
578.131	20851.05
578.329	20525.43
578.527	20105.59
578.725	20132.22
578.923	20490.61
579.121	20463.99
579.319	20296.05
579.516	20236.66
579.714	20312.44
579.912	20289.91
580.11	19892.6
580.308	20433.27
580.506	20015.48
580.704	19763.58
580.901	20003.19
581.099	20058.49
581.297	19648.89
581.495	19665.28
581.692	19882.36
581.89	19663.23
582.088	19734.91
582.285	19435.91
582.483	19458.43
582.681	19364.23
582.878	19560.83
583.076	19198.34
583.274	19503.49
583.471	19231.11
583.669	19050.89
583.866	18983.31
584.064	19454.34
584.262	19022.22
584.459	19212.68
584.657	18796.94
584.854	19077.51
585.052	18557.33
585.249	18737.55
585.447	18887.05
585.644	18289.04
585.841	18917.77
586.039	18807.18
586.236	18737.55
586.434	18928.01
586.631	18604.43
586.828	18475.41
587.026	18434.45
587.223	18809.23
587.42	18223.51
587.618	18563.47
587.815	18137.49
588.012	18172.31
588.21	18186.65
588.407	18254.23
588.604	18311.57
588.801	18090.39
588.999	18008.47
589.196	17854.87
589.393	18016.66
589.59	18188.69
589.787	17811.87
589.984	18033.05
590.182	17813.91
590.379	17996.18
590.576	17666.46
590.773	17729.95
590.97	17693.08
591.167	17895.83
591.364	17729.95
591.561	17754.52
591.758	17533.34
591.955	17617.31
592.152	17674.65
592.349	17269.16
592.546	17363.36
592.743	17303.97
592.94	17105.32
593.137	17414.56
593.334	17346.98
593.531	17107.37
593.727	17314.21
593.924	17332.64
594.121	17009.06
594.318	17541.53
594.515	17166.76
594.712	17359.27
594.908	17013.16
595.105	17185.19
595.302	16890.28
595.499	17037.73
595.696	17058.21
595.892	16861.61
596.089	16890.28
596.286	16863.66
596.482	16818.6
596.679	16916.9
596.876	16873.9
597.072	16765.35
597.269	17037.73
597.466	16734.64
597.662	16742.83
597.859	16673.2
598.055	16708.01
598.252	16691.63
598.448	16644.52
598.645	16765.35
598.841	16589.23
599.038	16632.24
599.234	16730.54
599.431	16710.06
599.627	16515.5
599.824	16603.57
600.02	16560.56
600.217	16615.85
600.413	16775.59
600.609	16423.34
600.806	16583.09
601.002	16941.48
601.198	16462.26
601.395	16519.6
601.591	16472.5
601.787	16757.16
601.984	16345.52
602.18	16482.74
602.376	16372.14
602.572	16380.34
602.769	16517.55
602.965	16232.88
603.161	16480.69
603.357	16296.37
603.553	16406.96
603.75	16503.21
603.946	16378.29
604.142	16585.13
604.338	16386.48
604.534	16599.47
604.73	16304.56
604.926	16687.53
605.122	16800.17
605.318	16611.76
605.514	16380.34
605.71	16394.67
605.906	16439.73
606.102	16482.74
606.298	16544.17
606.494	16572.85
606.69	16435.63
606.886	16605.61
607.082	16462.26
607.278	16411.06
607.474	16206.26
607.67	16656.81
607.866	16556.46
608.062	16880.04
608.257	16742.83
608.453	16855.47
608.649	16679.34
608.845	16591.28
609.041	16751.02
609.236	16603.57
609.432	16624.04
609.628	16982.44
609.824	16894.38
610.019	16578.99
610.215	16751.02
610.411	16972.2
610.606	16695.72
610.802	16822.7
610.998	16789.93
611.193	16918.95
611.389	16818.6
611.584	16779.69
611.78	16607.66
611.976	16748.97
612.171	17310.11
612.367	16957.86
612.562	16546.22
612.758	16652.72
612.953	16564.65
613.149	16943.53
613.344	16798.12
613.539	16851.37
613.735	16814.51
613.93	16755.11
614.126	17078.69
614.321	16943.53
614.517	16837.03
614.712	16906.66
614.907	16896.42
615.103	17142.18
615.298	16914.86
615.493	17070.5
615.688	16863.66
615.884	17189.28
616.079	16871.85
616.274	17097.13
616.47	16923.05
616.665	17138.09
616.86	16814.51
617.055	16898.47
617.25	17000.87
617.445	17015.21
617.641	16607.66
617.836	16982.44
618.031	16640.43
618.226	17097.13
618.421	16658.86
618.616	17007.02
618.811	16736.68
619.006	17029.54
619.201	16509.36
619.396	16771.5
619.591	16368.05
619.786	16802.22
619.981	16533.93
620.176	16853.42
620.371	16329.14
620.566	16247.22
620.761	16335.28
620.956	16527.79
621.151	16208.31
621.346	16191.92
621.541	16253.36
621.735	16384.43
621.93	16069.05
622.125	16202.16
622.32	15913.4
622.515	16058.81
622.709	15659.45
622.904	15802.81
623.099	15876.54
623.294	15751.61
623.488	15374.78
623.683	15557.05
623.878	15448.51
624.072	15456.7
624.267	15323.58
624.462	15192.51
624.656	15124.93
624.851	15045.06
625.046	15077.83
625.24	14926.28
625.435	14701
625.629	14856.65
625.824	14768.59
626.018	14729.67
626.213	14496.21
626.407	14664.14
626.602	14518.73
626.796	14674.38
626.991	14539.21
627.185	14244.31
627.38	14354.9
627.574	14381.52
627.768	14080.47
627.963	14207.44
628.157	13640.15
628.352	13914.58
628.546	13791.7
628.74	13697.5
628.935	13765.08
629.129	14029.27
629.323	13765.08
629.517	13443.55
629.712	13502.94
629.906	13511.13
630.1	13255.14
630.294	13447.65
630.489	13052.39
630.683	13275.62
630.877	13085.15
631.071	12904.93
631.265	13007.33
631.459	12833.25
631.653	12886.5
631.848	12863.97
632.042	12790.25
632.236	12861.93
632.43	12573.16
632.624	12749.29
632.818	12374.51
633.012	12532.2
633.206	12378.61
633.4	12331.5
633.594	12057.07
633.788	12177.9
633.982	12134.9
634.176	12188.14
634.369	11942.39
634.563	12057.07
634.757	12173.81
634.951	11930.1
635.145	11811.32
635.339	11770.36
635.533	11569.66
635.726	11760.12
635.92	11526.65
636.114	11463.16
636.308	11356.67
636.501	11627
636.695	11479.55
636.889	11067.91
637.083	11129.34
637.276	11104.77
637.47	10965.51
637.664	11162.11
637.857	11072
638.051	10955.27
638.244	10727.94
638.438	10840.58
638.632	10674.7
638.825	10809.86
639.019	10668.55
639.212	10549.77
639.406	10517
639.599	10506.76
639.793	10457.61
639.986	10244.62
640.18	10508.81
640.373	10230.29
640.567	10131.98
640.76	10052.11
640.954	10148.37
641.147	10082.83
641.34	10099.22
641.534	9892.37
641.727	9968.15
641.92	9914.9
642.114	9763.35
642.307	9675.29
642.5	9634.33
642.694	9337.37
642.887	9581.08
643.08	9566.74
643.273	9431.58
643.467	9368.09
643.66	9206.3
643.853	9214.49
644.046	9083.42
644.239	9161.25
644.432	8917.54
644.626	9003.55
644.819	8966.69
645.012	8960.55
645.205	8966.69
645.398	8809
645.591	8882.72
645.784	8657.45
645.977	8747.56
646.17	8727.08
646.363	8694.31
646.556	8524.33
646.749	8407.59
646.942	8399.4
647.135	8563.24
647.328	8559.14
647.521	8272.43
647.714	8354.35
647.907	8307.24
648.099	8223.28
648.292	8022.58
648.485	8131.12
648.678	7809.59
648.871	8047.15
649.064	7844.4
649.256	7981.62
649.449	7834.16
649.642	7748.15
649.835	7778.87
650.027	7817.78
650.22	7674.42
650.413	7557.69
650.605	7612.98
650.798	7377.47
650.991	7447.1
651.183	7451.19
651.376	7373.37
651.568	7483.96
651.761	7320.12
651.954	7277.12
652.146	7227.96
652.339	7303.74
652.531	7322.17
652.724	7158.33
652.916	7111.23
653.109	7049.79
653.301	7080.51
653.494	7092.8
653.686	6957.63
653.879	6883.91
654.071	6982.21
654.263	6920.77
654.456	6894.15
654.648	6836.8
654.84	6722.12
655.033	6500.94
655.225	6756.93
655.417	6494.79
655.61	6607.43
655.802	6736.45
655.994	6449.74
656.186	6482.5
656.379	6699.59
656.571	6433.35
656.763	6191.69
656.955	6486.6
657.148	6187.6
657.34	6298.19
657.532	6113.87
657.724	6138.44
657.916	6171.21
658.108	6203.98
658.3	5982.8
658.492	6050.38
658.684	5976.66
658.876	5988.94
659.068	5954.13
659.26	6001.23
659.452	5964.37
659.644	6025.81
659.836	5792.34
660.028	6036.05
660.22	5778
660.412	5757.52
660.604	5651.03
660.796	5839.44
660.988	5648.98
661.18	5646.93
661.372	5632.6
661.563	5642.84
661.755	5648.98
661.947	5507.67
662.139	5476.95
662.331	5417.56
662.522	5442.14
662.714	5313.11
662.906	5421.66
663.097	5337.69
663.289	5216.86
663.481	5309.02
663.673	5280.35
663.864	5294.68
664.056	5038.69
664.247	5223
664.439	5139.04
664.631	5251.67
664.822	5065.31
665.014	5100.12
665.205	4993.63
665.397	4940.38
665.588	4997.73
665.78	4962.91
665.971	4950.62
666.163	4975.2
666.354	4856.42
666.546	4903.52
666.737	4780.64
666.929	4737.63
667.12	4670.05
667.311	4598.37
667.503	4688.48
667.694	4680.29
667.885	4526.69
668.077	4614.76
668.268	4571.75
668.459	4586.08
668.651	4508.26
668.842	4526.69
669.033	4510.31
669.224	4586.08
669.416	4569.7
669.607	4385.38
669.798	4473.45
669.989	4405.86
670.18	4385.38
670.371	4336.23
670.563	4223.59
670.754	4313.7
670.945	4295.27
671.136	4420.2
671.327	4289.13
671.518	4307.56
671.709	4258.41
671.9	4168.3
672.091	4213.35
672.282	4041.32
672.473	4266.6
672.664	4108.91
672.855	4188.78
673.046	3983.98
673.237	4051.56
673.428	3983.98
673.619	4102.76
673.809	4045.42
674	4008.56
674.191	4029.04
674.382	4010.61
674.573	3900.02
674.764	4055.66
674.954	3981.93
675.145	3814
675.336	3936.88
675.527	3820.14
675.717	3975.79
675.908	3789.42
676.099	3756.66
676.289	3730.03
676.48	3891.82
676.671	3781.23
676.861	3652.21
677.052	3871.34
677.243	3779.18
677.433	3854.96
677.624	3766.9
677.814	3656.31
678.005	3785.33
678.195	3797.62
678.386	3641.97
678.576	3582.58
678.767	3689.07
678.957	3592.82
679.148	3564.15
679.338	3568.24
679.529	3697.27
679.719	3492.47
679.909	3621.49
680.1	3549.81
680.29	3625.59
680.481	3517.05
680.671	3431.03
680.861	3490.42
681.052	3551.86
681.242	3361.4
681.432	3453.56
681.622	3402.36
681.813	3338.87
682.003	3445.37
682.193	3357.3
682.383	3435.13
682.573	3314.3
682.764	3422.84
682.954	3349.11
683.144	3437.17
683.334	3418.74
683.524	3437.17
683.714	3441.27
683.904	3398.26
684.094	3369.59
684.284	3340.92
684.474	3287.67
684.664	3254.9
684.854	3312.25
685.044	3281.53
685.234	3263.1
685.424	3306.1
685.614	3336.82
685.804	3353.21
685.994	3279.48
686.184	3308.15
686.374	3361.4
686.564	3209.85
686.753	3287.67
686.943	3197.56
687.133	3181.18
687.323	3218.04
687.513	3277.43
687.702	3207.8
687.892	3058.3
688.082	3119.74
688.272	3263.1
688.461	3279.48
688.651	3156.6
688.841	3136.12
689.03	3164.79
689.22	3172.99
689.41	3046.01
689.599	3125.88
689.789	3183.23
689.979	3095.16
690.168	3109.5
690.358	3068.54
690.547	3052.16
690.737	3050.11
690.926	3115.64
691.116	3005.05
691.305	3103.36
691.495	2957.95
691.684	2947.71
691.874	3019.39
692.063	3046.01
692.252	3003
692.442	2843.26
692.631	2871.93
692.82	2853.5
693.01	2855.55
693.199	2878.08
693.388	2898.56
693.578	2849.41
693.767	2880.13
693.956	2873.98
694.146	2812.54
694.335	2839.17
694.524	2849.41
694.713	2988.67
694.902	2822.78
695.092	2843.26
695.281	2781.82
695.47	2701.95
695.659	2747.01
695.848	2898.56
696.037	2871.93
696.226	2685.57
696.415	2716.29
696.604	2796.16
696.793	2755.2
696.982	2716.29
697.171	2765.44
697.36	2712.19
697.549	2650.75
697.738	2732.67
697.927	2636.42
698.116	2724.48
698.305	2714.24
698.494	2718.34
698.683	2658.95
698.872	2841.22
699.061	2751.1
699.25	2697.86
699.438	2650.75
699.627	2675.33
699.816	2790.02
700.005	2550.4
700.193	2534.02
700.382	2560.64
700.571	2603.65
700.76	2636.42
700.948	2626.18
701.137	2572.93
701.326	2675.33
701.514	2689.67
701.703	2609.79
701.892	2583.17
702.08	2595.46
702.269	2476.68
702.457	2527.88
702.646	2515.59
702.834	2507.4
703.023	2407.05
703.212	2405
703.4	2454.15
703.589	2456.2
703.777	2476.68
703.965	2345.61
704.154	2478.72
704.342	2493.06
704.531	2366.09
704.719	2413.19
704.907	2402.95
705.096	2433.67
705.284	2423.43
705.472	2288.26
705.661	2323.08
705.849	2361.99
706.037	2359.94
706.226	2427.53
706.414	2359.94
706.602	2314.89
706.79	2316.94
706.979	2218.63
707.167	2333.32
707.355	2271.88
707.543	2271.88
707.731	2327.18
707.919	2312.84
708.107	2267.78
708.296	2153.1
708.484	2331.27
708.672	2282.12
708.86	2185.87
709.048	2192.01
709.236	2269.83
709.424	2300.55
709.612	2255.5
709.8	2103.95
709.988	2155.15
710.176	2237.06
710.364	2194.06
710.551	2214.54
710.739	2235.02
710.927	2132.62
711.115	2192.01
711.303	2243.21
711.491	2103.95
711.679	2134.67
711.866	2075.28
712.054	2099.85
712.242	2187.91
712.43	2050.7
712.617	2081.42
712.805	2095.75
712.993	2034.32
713.181	2042.51
713.368	2046.6
713.556	2007.69
713.744	1952.4
713.931	2075.28
714.119	2087.56
714.306	1952.4
714.494	2038.41
714.682	2042.51
714.869	1905.29
715.057	1976.97
715.244	1929.87
715.432	1956.49
715.619	2069.13
715.807	1976.97
715.994	1964.68
716.182	2060.94
716.369	1956.49
716.556	1960.59
716.744	1919.63
716.931	1944.2
717.119	2011.79
717.306	1921.68
717.493	1847.95
717.681	1907.34
717.868	1841.81
718.055	1919.63
718.242	1831.57
718.43	1790.61
718.617	1895.05
718.804	1821.33
718.991	1923.73
719.179	1870.48
719.366	1927.82
719.553	1714.83
719.74	1768.08
719.927	1858.19
720.114	1788.56
720.301	1759.89
720.488	1796.75
720.676	1665.68
720.863	1907.34
721.05	1770.13
721.237	1766.03
721.424	1766.03
721.611	1850
721.798	1739.41
721.985	1815.18
722.172	1763.98
722.358	1712.78
722.545	1766.03
722.732	1739.41
722.919	1766.03
723.106	1661.59
723.293	1733.26
723.48	1684.11
723.667	1677.97
723.853	1716.88
724.04	1704.59
724.227	1673.87
724.414	1649.3
724.6	1723.02
724.787	1563.28
724.974	1690.26
725.161	1620.63
725.347	1725.07
725.534	1608.34
725.72	1620.63
725.907	1620.63
726.094	1596.05
726.28	1610.39
726.467	1583.76
726.653	1659.54
726.84	1612.43
727.027	1657.49
727.213	1505.94
727.4	1550.99
727.586	1550.99
727.773	1643.15
727.959	1657.49
728.145	1596.05
728.332	1575.57
728.518	1419.93
728.705	1675.92
728.891	1503.89
729.077	1569.43
729.264	1555.09
729.45	1596.05
729.636	1583.76
729.823	1577.62
730.009	1501.84
730.195	1469.08
730.382	1518.23
730.568	1456.79
730.754	1510.04
730.94	1448.6
731.126	1475.22
731.313	1446.55
731.499	1524.37
731.685	1469.08
731.871	1514.13
732.057	1579.67
732.243	1548.95
732.429	1426.07
732.615	1514.13
732.801	1383.06
732.987	1426.07
733.173	1503.89
733.359	1381.01
733.545	1456.79
733.731	1485.46
733.917	1419.93
734.103	1460.88
734.289	1477.27
734.475	1438.36
734.661	1565.33
734.847	1389.21
735.033	1407.64
735.219	1452.69
735.404	1440.4
735.59	1432.21
735.776	1331.86
735.962	1342.1
736.148	1346.2
736.333	1419.93
736.519	1305.24
736.705	1391.25
736.89	1297.05
737.076	1274.52
737.262	1274.52
737.447	1333.91
737.633	1378.97
737.819	1282.71
738.004	1319.57
738.19	1239.7
738.375	1315.48
738.561	1364.63
738.747	1331.86
738.932	1243.8
739.118	1409.69
739.303	1301.14
739.489	1247.9
739.674	1274.52
739.859	1284.76
740.045	1280.66
740.23	1143.45
740.416	1292.95
740.601	1184.41
740.786	1264.28
740.972	1204.89
741.157	1227.42
741.342	1260.18
741.528	1178.26
741.713	1251.99
741.898	1256.09
742.084	1280.66
742.269	1131.16
742.454	1159.83
742.639	1172.12
742.824	1125.02
743.01	1254.04
743.195	1215.13
743.38	1176.22
743.565	1112.73
743.75	1165.98
743.935	1096.35
744.12	1151.64
744.305	1116.83
744.49	1165.98
744.675	1125.02
744.86	1180.31
745.045	1131.16
745.23	1192.6
745.415	1133.21
745.6	1059.48
745.785	1051.29
745.97	1104.54
746.155	1102.49
746.34	1034.91
746.525	1026.72
746.71	1110.68
746.895	952.99
747.079	1051.29
747.264	918.17
747.449	938.65
747.634	1153.69
747.819	963.23
748.003	973.47
748.188	1026.72
748.373	1018.52
748.557	977.56
748.742	971.42
748.927	1030.81
749.111	993.95
749.296	1043.1
749.481	983.71
749.665	944.8
749.85	985.76
750.034	1030.81
750.219	1049.24
750.404	946.84
750.588	871.07
750.773	952.99
750.957	987.8
751.141	1043.1
751.326	887.45
751.51	871.07
751.695	785.05
751.879	938.65
752.064	821.92
752.248	838.3
752.432	889.5
752.617	965.28
752.801	940.7
752.985	846.49
753.17	846.49
753.354	942.75
753.538	856.73
753.722	789.15
753.907	856.73
754.091	727.71
754.275	854.69
754.459	817.82
754.643	862.88
754.828	866.97
755.012	809.63
755.196	801.44
755.38	856.73
755.564	758.43
755.748	756.38
755.932	780.96
756.116	887.45
756.3	807.58
756.484	789.15
756.668	750.24
756.852	662.18
757.036	750.24
757.22	686.75
757.404	690.85
757.588	758.43
757.772	670.37
757.956	727.71
758.14	672.42
758.323	721.57
758.507	740
758.691	723.62
758.875	686.75
759.059	637.6
759.242	694.94
759.426	744.1
759.61	756.38
759.794	694.94
759.977	670.37
760.161	815.77
760.345	656.03
760.528	737.95
760.712	682.66
760.895	594.59
761.079	658.08
761.263	610.98
761.446	578.21
761.63	617.12
761.813	690.85
761.997	570.02
762.18	619.17
762.364	613.03
762.547	576.16
762.731	660.13
762.914	641.7
763.098	604.83
763.281	563.87
763.464	547.49
763.648	594.59
763.831	578.21
764.015	658.08
764.198	545.44
764.381	633.51
764.564	559.78
764.748	584.35
764.931	627.36
765.114	666.27
765.297	617.12
765.481	545.44
765.664	629.41
765.847	602.79
766.03	682.66
766.213	494.24
766.397	535.2
766.58	596.64
766.763	567.97
766.946	557.73
767.129	600.74
767.312	500.39
767.495	578.21
767.678	592.55
767.861	570.02
768.044	520.87
768.227	514.72
768.41	567.97
768.593	660.13
768.776	559.78
768.959	465.57
769.142	545.44
769.324	539.3
769.507	576.16
769.69	537.25
769.873	522.91
770.056	629.41
770.239	635.55
770.421	551.59
770.604	494.24
770.787	559.78
770.97	623.27
771.152	471.72
771.335	481.96
771.518	461.48
771.7	469.67
771.883	543.39
772.066	484
772.248	502.43
772.431	567.97
772.613	529.06
772.796	432.8
772.978	547.49
773.161	563.87
773.343	506.53
773.526	449.19
773.708	471.72
773.891	445.09
774.073	506.53
774.256	459.43
774.438	496.29
774.621	430.76
774.803	537.25
774.985	512.67
775.168	547.49
775.35	461.48
775.532	412.32
775.715	393.89
775.897	510.63
776.079	488.1
776.261	475.81
776.444	316.07
776.626	445.09
776.808	404.13
776.99	420.52
777.173	418.47
777.355	436.9
777.537	406.18
777.719	479.91
777.901	432.8
778.083	428.71
778.265	397.99
778.447	469.67
778.629	359.08
778.811	408.23
778.993	416.42
779.175	381.6
779.357	404.13
779.539	389.8
779.721	363.17
779.903	324.26
780.085	350.89
780.267	346.79
780.449	438.95
780.631	453.28
780.812	383.65
780.994	414.37
781.176	363.17
781.358	334.5
781.54	318.12
781.721	469.67
781.903	350.89
782.085	342.69
782.267	363.17
782.448	395.94
782.63	371.37
782.812	322.21
782.993	346.79
783.175	287.4
783.357	354.98
783.538	340.65
783.72	258.73
783.901	346.79
784.083	293.54
784.264	354.98
784.446	230.06
784.627	285.35
784.809	318.12
784.99	309.93
785.172	412.32
785.353	324.26
785.535	252.58
785.716	283.3
785.897	326.31
786.079	268.97
786.26	424.61
786.441	295.59
786.623	246.44
786.804	225.96
786.985	301.73
787.167	262.82
787.348	303.78
787.529	185
787.71	359.08
787.891	297.64
788.073	283.3
788.254	262.82
788.435	297.64
788.616	297.64
788.797	162.47
788.978	273.06
789.159	232.1
789.34	305.83
789.522	209.58
789.703	283.3
789.884	217.77
790.065	260.77
790.246	291.49
790.427	250.53
790.607	348.84
790.788	295.59
790.969	170.66
791.15	354.98
791.331	150.18
791.512	268.97
791.693	256.68
791.874	258.73
792.054	354.98
792.235	244.39
792.416	223.91
792.597	248.49
792.778	283.3
792.958	277.16
793.139	193.19
793.32	166.57
793.5	109.23
793.681	246.44
793.862	191.14
794.042	248.49
794.223	232.1
794.404	209.58
794.584	137.9
794.765	252.58
794.945	187.05
795.126	207.53
795.306	225.96
795.487	240.3
795.667	189.1
795.848	246.44
796.028	256.68
796.209	299.69
796.389	117.42
796.57	217.77
796.75	166.57
796.93	199.34
797.111	201.38
797.291	238.25
797.471	240.3
797.652	225.96
797.832	232.1
798.012	221.86
798.192	166.57
798.373	180.9
798.553	154.28
798.733	228.01
798.913	213.67
799.093	150.18
799.274	203.43
799.454	228.01
799.634	182.95
799.814	215.72
799.994	189.1
800.174	158.38
800.354	101.03
800.534	76.46
800.714	127.66
800.894	191.14
801.074	178.86
801.254	162.47
801.434	166.57
801.614	137.9
801.794	88.75
801.974	899.74
802.154	187.05
802.334	111.27
802.514	117.42
802.693	152.23
802.873	174.76
803.053	197.29
803.233	146.09
803.413	154.28
803.592	205.48
803.772	117.42
803.952	172.71
804.131	64.17
804.311	160.42
804.491	170.66
804.67	103.08
804.85	168.62
805.03	189.1
805.209	117.42
805.389	121.51
805.568	113.32
805.748	133.8
805.928	150.18
806.107	191.14
806.287	125.61
806.466	117.42
806.646	215.72
806.825	141.99
807.004	96.94
807.184	119.46
807.363	174.76
807.543	152.23
807.722	154.28
807.901	141.99
808.081	168.62
808.26	115.37
808.439	168.62
808.619	119.46
808.798	41.64
808.977	127.66
809.156	174.76
809.336	113.32
809.515	127.66
809.694	94.89
809.873	101.03
810.052	117.42
810.231	119.46
810.411	51.88
810.59	168.62
810.769	92.84
810.948	154.28
811.127	103.08
811.306	53.93
811.485	109.23
811.664	156.33
811.843	109.23
812.022	125.61
812.201	141.99
812.38	92.84
812.559	101.03
812.737	232.1
812.916	27.31
813.095	92.84
813.274	121.51
813.453	117.42
813.632	223.91
813.811	121.51
813.989	92.84
814.168	121.51
814.347	109.23
814.526	144.04
814.704	119.46
814.883	47.79
815.062	76.46
815.24	84.65
815.419	19.11
815.598	105.13
815.776	117.42
815.955	92.84
816.133	0.68
816.312	101.03
816.49	92.84
816.669	80.55
816.847	78.51
817.026	84.65
817.204	39.59
817.383	29.35
817.561	2.73
817.74	101.03
817.918	158.38
818.097	156.33
818.275	53.93
818.453	125.61
818.632	45.74
818.81	4.78
818.988	80.55
819.167	62.12
819.345	35.5
819.523	70.31
819.701	76.46
819.879	84.65
820.058	125.61
820.236	103.08
820.414	84.65
820.592	119.46
820.77	43.69
820.948	94.89
821.127	60.07
821.305	123.56
821.483	10.92
821.661	76.46
821.839	127.66
822.017	78.51
822.195	-54.61
822.373	141.99
822.551	19.11
822.729	137.9
822.907	70.31
823.085	94.89
823.262	105.13
823.44	53.93
823.618	84.65
823.796	47.79
823.974	101.03
824.152	51.88
824.329	47.79
824.507	117.42
824.685	113.32
824.863	109.23
825.04	37.55
825.218	92.84
825.396	68.27
825.574	125.61
825.751	-21.85
825.929	80.55
826.107	10.92
826.284	64.17
826.462	84.65
826.639	60.07
826.817	39.59
826.994	-13.65
827.172	-46.42
827.349	141.99
827.527	84.65
827.704	-11.61
827.882	39.59
828.059	135.85
828.237	51.88
828.414	105.13
828.591	70.31
828.769	84.65
828.946	55.98
829.124	101.03
829.301	160.42
829.478	43.69
829.655	74.41
829.833	12.97
830.01	51.88
830.187	51.88
830.364	62.12
830.542	113.32
830.719	82.6
830.896	90.79
831.073	76.46
831.25	72.36
831.427	53.93
831.604	80.55
831.782	45.74
831.959	82.6
832.136	43.69
832.313	88.75
832.49	-17.75
832.667	76.46
832.844	17.07
833.021	62.12
833.198	51.88
833.374	125.61
833.551	76.46
833.728	10.92
833.905	92.84
834.082	27.31
834.259	43.69
834.436	51.88
834.612	-23.89
834.789	94.89
834.966	-30.04
835.143	68.27
835.319	-9.56
835.496	49.83
835.673	78.51
835.85	84.65
836.026	111.27
836.203	98.99
836.38	37.55
836.556	117.42
836.733	58.03
836.909	60.07
837.086	88.75
837.262	-38.23
837.439	51.88
837.616	33.45
837.792	88.75
837.968	92.84
838.145	-19.8
838.321	90.79
838.498	23.21
838.674	51.88
838.851	58.03
839.027	43.69
839.203	29.35
839.38	39.59
839.556	35.5
839.732	68.27
839.909	27.31
840.085	19.11
840.261	-46.42
840.437	35.5
840.614	37.55
840.79	92.84
840.966	84.65
841.142	19.11
841.318	37.55
841.494	51.88
841.671	21.16
841.847	10.92
842.023	80.55
842.199	88.75
842.375	35.5
842.551	2.73
842.727	19.11
842.903	135.85
843.079	53.93
843.255	105.13
843.431	45.74
843.607	111.27
843.783	58.03
843.959	78.51
844.134	76.46
844.31	84.65
844.486	6.83
844.662	92.84
844.838	10.92
845.013	55.98
845.189	84.65
845.365	78.51
845.541	51.88
845.716	51.88
845.892	68.27
846.068	68.27
846.244	37.55
846.419	76.46
846.595	-27.99
846.77	-1.37
846.946	103.08
847.122	-1.37
847.297	-3.41
847.473	82.6
847.648	-34.13
847.824	37.55
847.999	-75.09
848.175	4.78
848.35	-62.8
848.526	37.55
848.701	72.36
848.876	53.93
849.052	-64.85
849.227	23.21
849.403	47.79
849.578	21.16
849.753	47.79
849.929	-5.46
850.104	8.87
850.279	10.92
850.454	2.73
850.63	92.84
850.805	53.93
850.98	43.69
851.155	-1.37
851.33	2.73
851.505	-68.95
851.681	21.16
851.856	-32.08
852.031	27.31
852.206	12.97
852.381	-17.75
852.556	-21.85
852.731	96.94
852.906	21.16
853.081	55.98
853.256	15.02
853.431	92.84
853.606	45.74
853.781	68.27
853.956	23.21
854.131	-46.42
854.305	-19.8
854.48	43.69
854.655	-5.46
854.83	0.68
855.005	-21.85
855.18	43.69
855.354	25.26
855.529	43.69
855.704	2.73
855.879	10.92
856.053	6.83
856.228	-17.75
856.403	92.84
856.577	49.83
856.752	-73.04
856.926	23.21
857.101	23.21
857.276	12.97
857.45	43.69
857.625	35.5
857.799	17.07
857.974	27.31
858.148	10.92
858.323	-13.65
858.497	2.73
858.672	17.07
858.846	39.59
859.02	70.31
859.195	-83.28
859.369	4.78
859.543	19.11
859.718	45.74
859.892	21.16
860.066	43.69
860.241	6.83
860.415	6.83
860.589	94.89
860.763	4.78
860.938	15.02
861.112	-19.8
861.286	15.02
861.46	-75.09
861.634	-13.65
861.808	68.27
861.982	47.79
862.157	-1.37
862.331	51.88
862.505	35.5
862.679	-38.23
862.853	10.92
863.027	10.92
863.201	51.88
863.375	-46.42
863.549	64.17
863.722	10.92
863.896	64.17
864.07	-5.46
864.244	33.45
864.418	35.5
864.592	19.11
864.766	90.79
864.939	4.78
865.113	10.92
865.287	27.31
865.461	-1.37
865.634	27.31
865.808	12.97
865.982	-9.56
866.156	-38.23
866.329	43.69
866.503	-21.85
866.676	33.45
866.85	-3.41
867.024	-25.94
867.197	43.69
867.371	-19.8
867.544	10.92
867.718	-46.42
867.891	35.5
868.065	-79.19
868.238	27.31
868.412	51.88
868.585	25.26
868.759	29.35
868.932	10.92
869.105	12.97
869.279	6.83
869.452	-87.38
869.625	62.12
869.799	2.73
869.972	-38.23
870.145	101.03
870.319	-40.28
870.492	15.02
870.665	-52.56
870.838	15.02
871.011	-27.99
871.185	-1.37
871.358	-52.56
871.531	15.02
871.704	-13.65
871.877	6.83
872.05	-62.8
872.223	-1.37
872.396	72.36
872.569	60.07
872.742	-13.65
872.915	29.35
873.088	-3.41
873.261	-27.99
873.434	25.26
873.607	68.27
873.78	64.17
873.953	-32.08
874.126	-9.56
874.299	12.97
874.471	-27.99
874.644	19.11
874.817	135.85
874.99	47.79
875.163	-103.76
875.335	10.92
875.508	-93.52
875.681	109.23
875.853	0.68
876.026	-15.7
876.199	47.79
876.371	43.69
876.544	-23.89
876.717	-13.65
876.889	-36.18
877.062	-13.65
877.234	-25.94
877.407	-5.46
877.579	23.21
877.752	-79.19
877.924	-38.23
878.097	-40.28
878.269	-64.85
878.442	117.42
878.614	-30.04
878.786	37.55
878.959	55.98
879.131	27.31
879.303	-54.61
879.476	35.5
879.648	-38.23
879.82	37.55
879.993	-38.23
880.165	-11.61
880.337	-46.42
880.509	29.35
880.681	-68.95
880.854	12.97
881.026	12.97
881.198	-42.32
881.37	39.59
881.542	53.93
881.714	-19.8
881.886	-38.23
882.058	19.11
882.23	27.31
882.402	10.92
882.574	29.35
882.746	-38.23
882.918	60.07
883.09	-5.46
883.262	92.84
883.434	-30.04
883.606	-21.85
883.778	6.83
883.95	60.07
884.122	17.07
884.293	-19.8
884.465	-30.04
884.637	10.92
884.809	-71
884.98	19.11
885.152	35.5
885.324	58.03
885.496	-11.61
885.667	35.5
885.839	-34.13
886.011	139.94
886.182	21.16
886.354	15.02
886.525	-40.28
886.697	17.07
886.869	-46.42
887.04	-93.52
887.212	27.31
887.383	70.31
887.555	-5.46
887.726	2.73
887.897	-11.61
888.069	-21.85
888.24	-66.9
888.412	-38.23
888.583	2.73
888.754	-48.47
888.926	-99.67
889.097	-25.94
889.268	-7.51
889.44	15.02
889.611	-60.76
889.782	-5.46
889.953	-21.85
890.125	-15.7
890.296	8.87
890.467	15.02
890.638	-7.51
890.809	-13.65
890.98	31.4
891.151	6.83
891.323	-3.41
891.494	23.21
891.665	-46.42
891.836	35.5
892.007	21.16
892.178	37.55
892.349	60.07
892.52	-30.04
892.691	-38.23
892.862	-44.37
893.032	-50.52
893.203	-44.37
893.374	53.93
893.545	-11.61
893.716	33.45
893.887	19.11
894.057	35.5
894.228	39.59
894.399	-9.56
894.57	51.88
894.74	-23.89
894.911	10.92
895.082	-13.65
895.253	0.68
895.423	10.92
895.594	68.27
895.764	-52.56
895.935	37.55
896.106	-11.61
896.276	-21.85
896.447	-56.66
896.617	47.79
896.788	-46.42
896.958	10.92
897.129	-89.43
897.299	-34.13
897.47	55.98
897.64	2.73
897.81	10.92
897.981	31.4
898.151	-54.61
898.322	-27.99
898.492	-3.41
898.662	-48.47
898.832	25.26
899.003	-56.66
899.173	62.12
899.343	-46.42
899.513	-42.32
