Data from USB4F104151__39__14-29-45-886.txt Node

Date: Thu Mar 13 14:29:45 EDT 2025
User: louis
Spectrometer: USB4F10415
Trigger mode: 4
Integration Time (sec): 2.500000E-2
Scans to average: 1
Electric dark correction enabled: true
Nonlinearity correction enabled: false
Boxcar width: 0
XAxis mode: Wavelengths
Number of Pixels in Spectrum: 3648
>>>>>Begin Spectral Data<<<<<
178.204	-106.32
178.424	-106.32
178.644	-106.32
178.864	-118.61
179.084	-132.95
179.304	-44.88
179.524	-16.21
179.744	-26.45
179.964	45.23
180.184	-40.79
180.404	45.23
180.624	55.47
180.844	-18.26
181.064	-24.4
181.283	-28.5
181.503	20.65
181.723	32.94
181.943	4.27
182.163	69.8
182.383	8.36
182.602	106.67
182.822	43.18
183.042	-26.45
183.262	-22.36
183.482	6.31
183.701	61.61
183.921	26.79
184.141	-36.69
184.361	14.51
184.58	67.75
184.8	22.7
185.02	10.41
185.239	121
185.459	47.27
185.679	-1.88
185.898	8.36
186.118	73.9
186.338	16.55
186.557	53.42
186.777	75.95
186.997	65.71
187.216	-8.02
187.436	147.62
187.655	16.55
187.875	69.8
188.095	75.95
188.314	37.03
188.534	57.51
188.753	20.65
188.973	-8.02
189.192	88.23
189.412	12.46
189.631	4.27
189.851	30.89
190.07	108.71
190.29	-14.17
190.509	8.36
190.729	-28.5
190.948	104.62
191.168	151.72
191.387	121
191.607	86.19
191.826	77.99
192.045	37.03
192.265	14.51
192.484	45.23
192.704	92.33
192.923	20.65
193.142	178.34
193.362	118.95
193.581	55.47
193.8	18.6
194.02	45.23
194.239	92.33
194.458	86.19
194.678	53.42
194.897	39.08
195.116	30.89
195.335	61.61
195.555	86.19
195.774	67.75
195.993	49.32
196.212	77.99
196.432	57.51
196.651	61.61
196.87	-12.12
197.089	69.8
197.308	37.03
197.528	77.99
197.747	82.09
197.966	-26.45
198.185	53.42
198.404	12.46
198.623	86.19
198.842	61.61
199.062	63.66
199.281	106.67
199.5	61.61
199.719	63.66
199.938	147.62
200.157	96.43
200.376	96.43
200.595	125.1
200.814	32.94
201.033	22.7
201.252	63.66
201.471	20.65
201.69	63.66
201.909	20.65
202.128	61.61
202.347	63.66
202.566	6.31
202.785	20.65
203.004	55.47
203.223	80.04
203.442	-3.93
203.661	-12.12
203.879	28.84
204.098	96.43
204.317	69.8
204.536	24.75
204.755	8.36
204.974	45.23
205.193	34.99
205.411	121
205.63	30.89
205.849	18.6
206.068	16.55
206.287	53.42
206.505	104.62
206.724	39.08
206.943	53.42
207.162	45.23
207.381	69.8
207.599	10.41
207.818	28.84
208.037	18.6
208.255	24.75
208.474	73.9
208.693	73.9
208.911	39.08
209.13	53.42
209.349	110.76
209.567	88.23
209.786	63.66
210.005	94.38
210.223	20.65
210.442	8.36
210.661	45.23
210.879	151.72
211.098	73.9
211.316	92.33
211.535	90.28
211.753	102.57
211.972	49.32
212.191	45.23
212.409	41.13
212.628	28.84
212.846	20.65
213.065	49.32
213.283	69.8
213.502	43.18
213.72	-34.64
213.938	104.62
214.157	24.75
214.375	65.71
214.594	37.03
214.812	37.03
215.031	-24.4
215.249	4.27
215.467	-3.93
215.686	82.09
215.904	49.32
216.122	4.27
216.341	-20.31
216.559	47.27
216.778	34.99
216.996	67.75
217.214	39.08
217.432	4.27
217.651	-3.93
217.869	4.27
218.087	-20.31
218.306	71.85
218.524	86.19
218.742	61.61
218.96	22.7
219.179	-40.79
219.397	14.51
219.615	176.3
219.833	-12.12
220.051	65.71
220.27	94.38
220.488	26.79
220.706	114.86
220.924	67.75
221.142	37.03
221.36	102.57
221.578	49.32
221.796	20.65
222.015	12.46
222.233	20.65
222.451	32.94
222.669	-32.6
222.887	112.81
223.105	37.03
223.323	94.38
223.541	82.09
223.759	100.52
223.977	37.03
224.195	63.66
224.413	45.23
224.631	96.43
224.849	4.27
225.067	121
225.285	22.7
225.503	102.57
225.721	55.47
225.939	20.65
226.157	143.53
226.375	151.72
226.592	-36.69
226.81	65.71
227.028	100.52
227.246	127.14
227.464	39.08
227.682	110.76
227.9	112.81
228.117	47.27
228.335	57.51
228.553	22.7
228.771	73.9
228.989	77.99
229.206	55.47
229.424	49.32
229.642	30.89
229.86	22.7
230.077	28.84
230.295	-1.88
230.513	110.76
230.731	86.19
230.948	104.62
231.166	2.22
231.384	20.65
231.601	61.61
231.819	96.43
232.037	-69.46
232.254	53.42
232.472	20.65
232.689	-28.5
232.907	82.09
233.125	77.99
233.342	-44.88
233.56	59.56
233.777	-16.21
233.995	4.27
234.213	8.36
234.43	112.81
234.648	88.23
234.865	-26.45
235.083	16.55
235.3	69.8
235.518	145.58
235.735	184.49
235.953	86.19
236.17	16.55
236.388	47.27
236.605	94.38
236.822	69.8
237.04	-24.4
237.257	69.8
237.475	-34.64
237.692	45.23
237.909	90.28
238.127	47.27
238.344	30.89
238.562	61.61
238.779	4.27
238.996	-34.64
239.214	20.65
239.431	14.51
239.648	82.09
239.865	96.43
240.083	8.36
240.3	32.94
240.517	55.47
240.735	80.04
240.952	112.81
241.169	139.43
241.386	77.99
241.603	-16.21
241.821	12.46
242.038	39.08
242.255	61.61
242.472	-20.31
242.689	10.41
242.907	65.71
243.124	4.27
243.341	10.41
243.558	55.47
243.775	8.36
243.992	-57.17
244.209	-36.69
244.426	133.29
244.643	82.09
244.86	-1.88
245.078	94.38
245.295	80.04
245.512	88.23
245.729	41.13
245.946	166.06
246.163	16.55
246.38	41.13
246.597	110.76
246.814	2.22
247.031	16.55
247.248	4.27
247.464	104.62
247.681	71.85
247.898	98.47
248.115	137.38
248.332	84.14
248.549	102.57
248.766	112.81
248.983	71.85
249.2	30.89
249.417	57.51
249.633	118.95
249.85	41.13
250.067	28.84
250.284	69.8
250.501	61.61
250.717	37.03
250.934	-87.89
251.151	-16.21
251.368	-18.26
251.585	90.28
251.801	151.72
252.018	53.42
252.235	45.23
252.451	69.8
252.668	-44.88
252.885	131.24
253.102	51.37
253.318	47.27
253.535	26.79
253.752	-12.12
253.968	20.65
254.185	-34.64
254.401	102.57
254.618	6.31
254.835	108.71
255.051	63.66
255.268	80.04
255.484	4.27
255.701	-14.17
255.917	28.84
256.134	-16.21
256.351	63.66
256.567	14.51
256.784	14.51
257	53.42
257.217	71.85
257.433	73.9
257.65	127.14
257.866	55.47
258.082	-36.69
258.299	49.32
258.515	39.08
258.732	-20.31
258.948	53.42
259.165	86.19
259.381	-34.64
259.597	45.23
259.814	63.66
260.03	-71.51
260.246	65.71
260.463	104.62
260.679	53.42
260.895	71.85
261.112	118.95
261.328	45.23
261.544	-30.55
261.761	118.95
261.977	55.47
262.193	59.56
262.409	77.99
262.626	43.18
262.842	102.57
263.058	-102.23
263.274	61.61
263.49	129.19
263.707	86.19
263.923	125.1
264.139	67.75
264.355	-12.12
264.571	92.33
264.787	28.84
265.004	53.42
265.22	102.57
265.436	20.65
265.652	-8.02
265.868	59.56
266.084	39.08
266.3	-8.02
266.516	121
266.732	30.89
266.948	39.08
267.164	51.37
267.38	104.62
267.596	71.85
267.812	106.67
268.028	104.62
268.244	32.94
268.46	71.85
268.676	86.19
268.892	121
269.108	-3.93
269.324	49.32
269.54	-1.88
269.756	94.38
269.972	-53.08
270.188	82.09
270.403	12.46
270.619	88.23
270.835	37.03
271.051	80.04
271.267	-10.07
271.483	47.27
271.698	69.8
271.914	55.47
272.13	88.23
272.346	16.55
272.562	22.7
272.777	135.34
272.993	14.51
273.209	8.36
273.425	139.43
273.64	-42.84
273.856	114.86
274.072	41.13
274.287	14.51
274.503	30.89
274.719	94.38
274.934	16.55
275.15	22.7
275.366	-3.93
275.581	-1.88
275.797	30.89
276.012	-8.02
276.228	63.66
276.444	94.38
276.659	118.95
276.875	24.75
277.09	28.84
277.306	98.47
277.521	24.75
277.737	28.84
277.952	30.89
278.168	127.14
278.383	51.37
278.599	37.03
278.814	102.57
279.03	20.65
279.245	96.43
279.461	45.23
279.676	-1.88
279.892	37.03
280.107	80.04
280.322	61.61
280.538	98.47
280.753	45.23
280.969	96.43
281.184	82.09
281.399	69.8
281.615	61.61
281.83	55.47
282.045	22.7
282.26	69.8
282.476	18.6
282.691	20.65
282.906	82.09
283.122	41.13
283.337	-36.69
283.552	82.09
283.767	30.89
283.983	6.31
284.198	14.51
284.413	106.67
284.628	-12.12
284.843	53.42
285.058	67.75
285.274	90.28
285.489	14.51
285.704	73.9
285.919	55.47
286.134	90.28
286.349	-12.12
286.564	47.27
286.779	123.05
286.995	14.51
287.21	-77.65
287.425	135.34
287.64	75.95
287.855	12.46
288.07	53.42
288.285	151.72
288.5	110.76
288.715	73.9
288.93	92.33
289.145	-18.26
289.36	98.47
289.575	12.46
289.79	139.43
290.004	90.28
290.219	53.42
290.434	20.65
290.649	28.84
290.864	94.38
291.079	24.75
291.294	67.75
291.509	41.13
291.724	94.38
291.938	20.65
292.153	104.62
292.368	12.46
292.583	-12.12
292.798	47.27
293.012	22.7
293.227	22.7
293.442	86.19
293.657	49.32
293.871	69.8
294.086	73.9
294.301	108.71
294.516	71.85
294.73	-20.31
294.945	69.8
295.16	28.84
295.374	71.85
295.589	63.66
295.804	55.47
296.018	16.55
296.233	98.47
296.447	34.99
296.662	92.33
296.877	77.99
297.091	59.56
297.306	55.47
297.52	10.41
297.735	69.8
297.949	82.09
298.164	104.62
298.378	12.46
298.593	-34.64
298.807	59.56
299.022	43.18
299.236	51.37
299.451	-12.12
299.665	-40.79
299.88	49.32
300.094	16.55
300.309	12.46
300.523	45.23
300.737	45.23
300.952	86.19
301.166	47.27
301.381	55.47
301.595	102.57
301.809	22.7
302.024	41.13
302.238	57.51
302.452	86.19
302.667	12.46
302.881	127.14
303.095	57.51
303.309	61.61
303.524	-16.21
303.738	82.09
303.952	28.84
304.166	110.76
304.381	39.08
304.595	102.57
304.809	135.34
305.023	73.9
305.237	55.47
305.452	77.99
305.666	110.76
305.88	39.08
306.094	88.23
306.308	20.65
306.522	71.85
306.736	88.23
306.95	69.8
307.164	92.33
307.379	45.23
307.593	37.03
307.807	39.08
308.021	73.9
308.235	20.65
308.449	45.23
308.663	37.03
308.877	131.24
309.091	63.66
309.305	118.95
309.519	63.66
309.733	104.62
309.947	47.27
310.161	80.04
310.374	61.61
310.588	-3.93
310.802	88.23
311.016	45.23
311.23	37.03
311.444	24.75
311.658	32.94
311.872	88.23
312.085	82.09
312.299	121
312.513	80.04
312.727	45.23
312.941	20.65
313.154	98.47
313.368	8.36
313.582	96.43
313.796	32.94
314.009	51.37
314.223	127.14
314.437	51.37
314.651	-12.12
314.864	30.89
315.078	28.84
315.292	57.51
315.505	57.51
315.719	86.19
315.933	61.61
316.146	80.04
316.36	20.65
316.573	96.43
316.787	55.47
317.001	34.99
317.214	47.27
317.428	-10.07
317.641	47.27
317.855	57.51
318.068	77.99
318.282	102.57
318.495	200.87
318.709	94.38
318.922	-12.12
319.136	39.08
319.349	37.03
319.563	41.13
319.776	69.8
319.99	-26.45
320.203	47.27
320.417	57.51
320.63	82.09
320.843	63.66
321.057	65.71
321.27	94.38
321.483	77.99
321.697	135.34
321.91	69.8
322.124	104.62
322.337	96.43
322.55	80.04
322.763	34.99
322.977	51.37
323.19	28.84
323.403	8.36
323.617	47.27
323.83	100.52
324.043	-5.97
324.256	63.66
324.469	61.61
324.683	65.71
324.896	12.46
325.109	30.89
325.322	20.65
325.535	53.42
325.748	65.71
325.962	129.19
326.175	69.8
326.388	-10.07
326.601	63.66
326.814	14.51
327.027	45.23
327.24	127.14
327.453	-36.69
327.666	80.04
327.879	55.47
328.092	41.13
328.305	43.18
328.518	6.31
328.731	-12.12
328.944	26.79
329.157	49.32
329.37	200.87
329.583	110.76
329.796	73.9
330.009	-36.69
330.222	94.38
330.435	65.71
330.648	41.13
330.861	59.56
331.073	114.86
331.286	55.47
331.499	37.03
331.712	-20.31
331.925	47.27
332.138	69.8
332.35	55.47
332.563	-16.21
332.776	28.84
332.989	2.22
333.202	96.43
333.414	28.84
333.627	-3.93
333.84	20.65
334.053	88.23
334.265	28.84
334.478	20.65
334.691	-28.5
334.903	61.61
335.116	73.9
335.329	6.31
335.541	90.28
335.754	114.86
335.966	80.04
336.179	26.79
336.392	-8.02
336.604	47.27
336.817	24.75
337.029	0.17
337.242	37.03
337.454	57.51
337.667	22.7
337.88	112.81
338.092	53.42
338.305	41.13
338.517	32.94
338.729	86.19
338.942	176.3
339.154	45.23
339.367	63.66
339.579	37.03
339.792	-12.12
340.004	61.61
340.217	51.37
340.429	133.29
340.641	-1.88
340.854	-20.31
341.066	82.09
341.278	110.76
341.491	176.3
341.703	67.75
341.915	51.37
342.128	77.99
342.34	102.57
342.552	118.95
342.764	98.47
342.977	43.18
343.189	18.6
343.401	32.94
343.613	10.41
343.826	77.99
344.038	8.36
344.25	112.81
344.462	-1.88
344.674	151.72
344.886	-53.08
345.099	53.42
345.311	-69.46
345.523	26.79
345.735	61.61
345.947	96.43
346.159	45.23
346.371	59.56
346.583	77.99
346.795	137.38
347.007	73.9
347.219	63.66
347.431	69.8
347.643	143.53
347.855	80.04
348.067	172.2
348.279	67.75
348.491	49.32
348.703	127.14
348.915	39.08
349.127	20.65
349.339	4.27
349.551	45.23
349.763	73.9
349.975	53.42
350.187	45.23
350.399	20.65
350.61	90.28
350.822	24.75
351.034	61.61
351.246	94.38
351.458	112.81
351.669	73.9
351.881	155.82
352.093	37.03
352.305	94.38
352.517	59.56
352.728	69.8
352.94	55.47
353.152	98.47
353.363	37.03
353.575	0.17
353.787	53.42
353.999	118.95
354.21	123.05
354.422	30.89
354.633	28.84
354.845	45.23
355.057	45.23
355.268	20.65
355.48	92.33
355.692	-26.45
355.903	20.65
356.115	14.51
356.326	0.17
356.538	69.8
356.749	73.9
356.961	61.61
357.172	82.09
357.384	94.38
357.595	151.72
357.807	73.9
358.018	30.89
358.23	20.65
358.441	116.9
358.653	63.66
358.864	-8.02
359.075	53.42
359.287	24.75
359.498	26.79
359.709	20.65
359.921	24.75
360.132	106.67
360.344	16.55
360.555	178.34
360.766	12.46
360.977	69.8
361.189	84.14
361.4	0.17
361.611	61.61
361.823	123.05
362.034	45.23
362.245	-36.69
362.456	67.75
362.667	30.89
362.879	30.89
363.09	53.42
363.301	20.65
363.512	-8.02
363.723	57.51
363.935	102.57
364.146	102.57
364.357	12.46
364.568	18.6
364.779	80.04
364.99	90.28
365.201	98.47
365.412	121
365.623	-10.07
365.834	88.23
366.045	20.65
366.256	-34.64
366.467	104.62
366.678	75.95
366.889	90.28
367.1	32.94
367.311	86.19
367.522	84.14
367.733	159.91
367.944	69.8
368.155	34.99
368.366	106.67
368.577	45.23
368.788	114.86
368.999	80.04
369.209	-20.31
369.42	164.01
369.631	71.85
369.842	123.05
370.053	69.8
370.264	88.23
370.474	57.51
370.685	-48.98
370.896	55.47
371.107	84.14
371.317	96.43
371.528	24.75
371.739	69.8
371.95	28.84
372.16	28.84
372.371	4.27
372.582	-3.93
372.792	82.09
373.003	22.7
373.214	26.79
373.424	118.95
373.635	41.13
373.846	110.76
374.056	82.09
374.267	77.99
374.477	71.85
374.688	-12.12
374.898	-10.07
375.109	106.67
375.319	96.43
375.53	137.38
375.74	34.99
375.951	49.32
376.161	12.46
376.372	49.32
376.582	24.75
376.793	131.24
377.003	39.08
377.214	-10.07
377.424	94.38
377.635	47.27
377.845	16.55
378.055	88.23
378.266	53.42
378.476	82.09
378.686	77.99
378.897	45.23
379.107	112.81
379.317	90.28
379.528	71.85
379.738	71.85
379.948	77.99
380.158	121
380.369	65.71
380.579	69.8
380.789	39.08
380.999	59.56
381.21	112.81
381.42	100.52
381.63	16.55
381.84	145.58
382.05	96.43
382.261	174.25
382.471	96.43
382.681	65.71
382.891	98.47
383.101	129.19
383.311	86.19
383.521	102.57
383.731	55.47
383.941	112.81
384.151	82.09
384.361	57.51
384.571	32.94
384.781	86.19
384.991	104.62
385.201	123.05
385.411	82.09
385.621	67.75
385.831	14.51
386.041	90.28
386.251	80.04
386.461	53.42
386.671	135.34
386.881	59.56
387.091	112.81
387.301	37.03
387.511	-12.12
387.72	32.94
387.93	123.05
388.14	-36.69
388.35	116.9
388.56	172.2
388.769	53.42
388.979	86.19
389.189	86.19
389.399	80.04
389.609	98.47
389.818	86.19
390.028	102.57
390.238	73.9
390.447	47.27
390.657	55.47
390.867	77.99
391.076	12.46
391.286	71.85
391.496	112.81
391.705	118.95
391.915	121
392.125	123.05
392.334	112.81
392.544	137.38
392.753	102.57
392.963	92.33
393.172	118.95
393.382	131.24
393.591	131.24
393.801	0.17
394.01	88.23
394.22	71.85
394.429	28.84
394.639	92.33
394.848	96.43
395.058	77.99
395.267	16.55
395.477	153.77
395.686	139.43
395.895	161.96
396.105	155.82
396.314	172.2
396.524	104.62
396.733	73.9
396.942	176.3
397.152	209.06
397.361	110.76
397.57	149.67
397.78	86.19
397.989	102.57
398.198	161.96
398.407	41.13
398.617	161.96
398.826	143.53
399.035	71.85
399.244	102.57
399.453	98.47
399.663	161.96
399.872	114.86
400.081	37.03
400.29	118.95
400.499	114.86
400.708	215.21
400.917	151.72
401.127	75.95
401.336	192.68
401.545	192.68
401.754	170.15
401.963	118.95
402.172	82.09
402.381	92.33
402.59	65.71
402.799	69.8
403.008	123.05
403.217	131.24
403.426	202.92
403.635	47.27
403.844	209.06
404.053	86.19
404.262	168.1
404.471	209.06
404.68	143.53
404.888	96.43
405.097	176.3
405.306	172.2
405.515	293.03
405.724	166.06
405.933	151.72
406.142	172.2
406.35	151.72
406.559	200.87
406.768	241.83
406.977	276.65
407.185	221.35
407.394	219.3
407.603	155.82
407.812	233.64
408.02	290.98
408.229	190.63
408.438	278.69
408.646	250.02
408.855	266.41
409.064	282.79
409.272	309.41
409.481	336.04
409.69	276.65
409.898	311.46
410.107	256.17
410.315	362.66
410.524	254.12
410.733	356.52
410.941	282.79
411.15	458.92
411.358	385.19
411.567	528.55
411.775	340.13
411.984	426.15
412.192	512.16
412.401	499.88
412.609	520.35
412.818	514.21
413.026	506.02
413.234	561.31
413.443	522.4
413.651	471.2
413.86	569.51
414.068	645.28
414.276	651.42
414.485	577.7
414.693	698.53
414.901	714.91
415.11	712.86
415.318	768.16
415.526	725.15
415.734	860.32
415.943	823.45
416.151	950.43
416.359	929.95
416.567	929.95
416.776	958.62
416.984	946.33
417.192	1028.25
417.4	1058.97
417.608	948.38
417.817	1177.75
418.025	1153.18
418.233	1226.9
418.441	1259.67
418.649	1245.34
418.857	1265.82
419.065	1335.45
419.273	1339.54
419.481	1386.65
419.689	1489.04
419.897	1480.85
420.105	1585.3
420.313	1566.87
420.521	1654.93
420.729	1691.79
420.937	1790.1
421.145	1720.46
421.353	2023.56
421.561	2093.19
421.769	2027.66
421.977	2113.67
422.185	2121.87
422.393	2154.63
422.601	2392.2
422.809	2406.53
423.017	2404.49
423.224	2543.75
423.432	2574.47
423.64	2605.19
423.848	2777.22
424.056	2611.33
424.263	3018.88
424.471	2908.29
424.679	3004.54
424.887	3127.42
425.094	3332.22
425.302	3295.35
425.51	3373.18
425.718	3414.13
425.925	3440.76
426.133	3530.87
426.341	3813.49
426.548	3969.13
426.756	4085.87
426.964	4132.97
427.171	4296.81
427.379	4388.97
427.586	4427.88
427.794	4683.88
428.001	4669.54
428.209	5025.89
428.417	5044.32
428.624	5378.14
428.832	5337.18
429.039	5216.35
429.247	5195.87
429.454	5816.4
429.662	6174.8
429.869	5740.63
430.076	6068.3
430.284	6000.72
430.491	6176.84
430.699	6690.88
430.906	6625.35
431.114	6647.88
431.321	6852.67
431.528	7151.68
431.736	7485.5
431.943	7745.59
432.15	7581.75
432.358	7602.23
432.565	8167.47
432.772	7893.04
432.979	8517.67
433.187	8552.49
433.394	8495.15
433.601	9058.34
433.808	9246.75
434.016	9213.98
434.223	9596.95
434.43	10129.42
434.637	9953.3
434.844	10584.07
435.052	10774.53
435.259	10553.35
435.466	10725.38
435.673	10729.48
435.88	11325.44
436.087	12095.47
436.294	12029.94
436.501	11638.78
436.708	11751.42
436.915	12144.63
437.122	12785.64
437.329	12726.25
437.537	13031.4
437.743	13225.95
437.95	13264.86
438.157	13998.04
438.364	14292.94
438.571	14299.09
438.778	14507.98
438.985	15914.94
439.192	15110.08
439.399	15591.36
439.606	15404.99
439.813	16183.22
440.02	17285.03
440.227	16592.81
440.433	16480.18
440.64	17211.3
440.847	17145.77
441.054	17364.9
441.261	18503.57
441.467	18048.92
441.674	18685.84
441.881	19142.53
442.088	19433.35
442.294	19148.68
442.501	19541.89
442.708	19818.36
442.914	20954.99
443.121	21602.15
443.328	20907.88
443.534	22372.18
443.741	21876.57
443.948	21528.42
444.154	23641.92
444.361	22968.14
444.568	23123.79
444.774	22998.86
444.981	23318.34
445.187	24004.41
445.394	25030.44
445.6	24905.52
445.807	27260.68
446.013	25917.22
446.22	26523.41
446.426	27410.18
446.633	27729.67
446.839	28380.92
447.046	27068.17
447.252	28837.62
447.459	29210.35
447.665	28587.77
447.871	30140.13
448.078	31547.08
448.284	29877.99
448.491	30756.57
448.697	32095.94
448.903	32296.64
449.11	32624.31
449.316	31821.51
449.522	32583.35
449.728	33392.3
449.935	33611.43
450.141	33644.2
450.347	34266.78
450.553	33607.34
450.76	33775.27
450.966	34850.45
451.172	34598.55
451.378	34948.76
451.584	34524.83
451.791	35761.8
451.997	35321.49
452.203	36230.79
452.409	35970.69
452.615	35407.5
452.821	34512.54
453.027	33627.82
453.233	35749.51
453.44	34184.87
453.646	34596.51
453.852	34858.65
454.058	35389.07
454.264	34150.05
454.47	34827.93
454.676	33908.39
454.882	35061.4
455.088	32282.3
455.294	32695.99
455.5	33191.6
455.705	33158.83
455.911	32038.59
456.117	31428.3
456.323	31174.35
456.529	29605.61
456.735	30455.51
456.941	29910.75
457.147	29247.21
457.352	28382.97
457.558	28202.75
457.764	28499.7
457.97	27774.72
458.176	26906.38
458.381	27209.48
458.587	25595.68
458.793	25548.58
458.999	24092.48
459.204	26226.46
459.41	25229.1
459.616	23263.05
459.821	23801.66
460.027	23185.22
460.233	22978.38
460.438	21763.93
460.644	22103.9
460.85	21118.82
461.055	20944.75
461.261	20399.99
461.466	18880.39
461.672	18583.44
461.878	19773.31
462.083	18636.69
462.289	18159.51
462.494	17950.62
462.7	17344.42
462.905	16629.68
463.111	17352.61
463.316	17577.89
463.522	17037.22
463.727	16857
463.932	16938.92
464.138	16652.2
464.343	16709.55
464.549	16089.01
464.754	16787.37
464.959	16338.87
465.165	16615.34
465.37	15658.94
465.575	15513.53
465.781	15841.21
465.986	16058.29
466.191	15431.62
466.397	15216.58
466.602	14376.91
466.807	14940.1
467.012	14823.37
467.218	14675.91
467.423	14702.54
467.628	14950.34
467.833	15290.31
468.038	14739.4
468.244	14151.63
468.449	14626.76
468.654	14454.73
468.859	14219.22
469.064	14151.63
469.269	13621.21
469.474	13662.17
469.679	14008.28
469.885	13438.94
470.09	13725.66
470.295	13645.79
470.5	13363.17
470.705	13336.54
470.91	13113.31
471.115	12816.36
471.32	13117.41
471.525	13105.12
471.73	12529.64
471.935	12543.98
472.139	12216.3
472.344	12406.77
472.549	12218.35
472.754	12058.61
472.959	11862.01
473.164	11472.89
473.369	11452.41
473.574	11919.35
473.778	11769.85
473.983	11515.9
474.188	11386.88
474.393	11081.73
474.598	11087.87
474.802	10979.33
475.007	10901.51
475.212	10672.14
475.417	10567.69
475.621	10596.36
475.826	10366.99
476.031	10385.42
476.235	10215.44
476.44	10301.45
476.645	10067.99
476.849	9947.15
477.054	9889.81
477.259	9773.08
477.463	9846.8
477.668	9676.82
477.872	9590.81
478.077	9652.25
478.282	9310.24
478.486	9379.87
478.691	9146.4
478.895	9130.02
479.1	9150.5
479.304	9230.37
479.509	8781.86
479.713	9060.38
479.918	8796.2
480.122	8493.1
480.326	8847.4
480.531	8876.07
480.735	8562.73
480.94	8515.62
481.144	8714.28
481.348	8378.41
481.553	8605.74
481.757	8233.01
481.961	8499.24
482.166	8681.51
482.37	8613.93
482.574	8343.6
482.778	8210.48
482.983	8460.33
483.187	8411.18
483.391	8448.04
483.595	8423.47
483.8	8071.22
484.004	8300.59
484.208	8450.09
484.412	8265.77
484.616	8544.3
484.821	8374.31
485.025	8198.19
485.229	8374.31
485.433	8372.27
485.637	8241.2
485.841	8124.46
486.045	8237.1
486.249	8405.03
486.453	8265.77
486.657	8257.58
486.861	8183.85
487.065	8024.11
487.269	8273.96
487.473	8101.94
487.677	8425.51
487.881	8280.11
488.085	8337.45
488.289	8220.72
488.493	8159.28
488.697	8151.09
488.901	8351.79
489.105	8220.72
489.309	8212.53
489.512	8179.76
489.716	8370.22
489.92	8302.64
490.124	8243.24
490.328	8351.79
490.531	8331.31
490.735	8521.77
490.939	8450.09
491.143	8384.55
491.346	8269.87
491.55	8454.19
491.754	8411.18
491.958	8478.76
492.161	8484.91
492.365	8515.62
492.569	8476.71
492.772	8468.52
492.976	8513.58
493.18	8615.98
493.383	8749.09
493.587	8779.81
493.79	8859.68
493.994	8552.49
494.197	8714.28
494.401	8658.98
494.605	8855.59
494.808	8859.68
495.012	8878.12
495.215	9162.78
495.419	9013.28
495.622	9087.01
495.825	9203.74
496.029	9082.91
496.232	9373.72
496.436	9246.75
496.639	9672.73
496.843	9310.24
497.046	9752.6
497.249	9826.32
497.453	9654.3
497.656	9826.32
497.859	9934.87
498.063	9975.83
498.266	10156.05
498.469	10080.27
498.673	10362.89
498.876	10393.61
499.079	10309.65
499.282	10563.59
499.485	10846.21
499.689	10629.13
499.892	10840.07
500.095	10717.19
500.298	11223.04
500.501	10860.55
500.705	11266.05
500.908	11360.25
501.111	11335.68
501.314	11706.36
501.517	11360.25
501.72	11864.05
501.923	11710.46
502.126	12115.95
502.329	12038.13
502.532	12292.08
502.735	12212.21
502.938	12582.89
503.141	12629.99
503.344	12707.82
503.547	12521.45
503.75	12894.18
503.953	12787.69
504.156	13201.38
504.359	13340.64
504.562	13361.12
504.765	13524.96
504.968	13701.08
505.17	13889.49
505.373	13819.86
505.576	14106.58
505.779	14145.49
505.982	14082
506.185	14469.07
506.387	14589.9
506.59	14847.94
506.793	15011.78
506.996	15108.04
507.198	15259.59
507.401	15300.55
507.604	15411.14
507.807	15880.12
508.009	15722.43
508.212	16037.81
508.415	16422.83
508.617	16207.8
508.82	16166.84
509.022	16408.5
509.225	16830.38
509.428	16789.42
509.63	17127.33
509.833	17020.84
510.035	17588.13
510.238	17307.55
510.44	17727.39
510.643	17880.99
510.845	17917.85
511.048	18141.08
511.25	18417.55
511.453	18313.11
511.655	19097.48
511.858	18591.63
512.06	18995.08
512.262	19300.23
512.465	19261.32
512.667	19455.87
512.87	19603.33
513.072	19605.38
513.274	20164.47
513.477	20283.25
513.679	20381.56
513.881	20574.06
514.084	20387.7
514.286	20838.25
514.488	20938.6
514.69	21671.78
514.893	21458.79
515.095	21397.35
515.297	21780.32
515.499	21962.59
515.701	22323.03
515.904	22503.25
516.106	22904.65
516.308	22564.69
516.51	22978.38
516.712	23017.29
516.914	23363.4
517.116	23406.41
517.318	23715.65
517.52	23744.32
517.722	24190.78
517.925	24131.39
518.127	24530.74
518.329	24223.55
518.531	24344.38
518.733	24670
518.935	24954.67
519.136	25317.16
519.338	25509.67
519.54	25425.7
519.742	25542.44
519.944	25857.82
520.146	26066.72
520.348	26169.12
520.55	26271.51
520.752	26240.79
520.954	26773.27
521.155	26418.97
521.357	27047.69
521.559	27100.94
521.761	27502.34
521.963	27096.85
522.164	27416.33
522.366	27490.06
522.568	27584.26
522.77	28038.91
522.971	28133.12
523.173	27834.11
523.375	28038.91
523.576	28210.94
523.778	28010.24
523.98	28487.42
524.181	28600.05
524.383	28602.1
524.584	28661.49
524.786	28659.45
524.988	28772.08
525.189	28874.48
525.391	28681.97
525.592	29255.4
525.794	29134.57
525.995	28985.07
526.197	29015.79
526.398	29056.75
526.6	29312.75
526.801	29505.26
527.003	29212.4
527.204	29376.23
527.406	29447.91
527.607	29679.33
527.808	29357.8
528.01	29617.89
528.211	29916.9
528.412	29982.43
528.614	29624.04
528.815	29861.6
529.016	29974.24
529.218	29314.8
529.419	29705.96
529.62	29556.46
529.822	29546.22
530.023	29517.54
530.224	29386.47
530.425	29286.12
530.626	29294.32
530.828	29365.99
531.029	29624.04
531.23	29257.45
531.431	29187.82
531.632	29644.52
531.833	29687.53
532.035	29216.49
532.236	29167.34
532.437	29445.87
532.638	29396.71
532.839	29159.15
533.04	29263.6
533.241	29099.76
533.442	29351.66
533.643	29200.11
533.844	29017.84
534.045	29011.7
534.246	28944.11
534.447	28825.33
534.648	28770.04
534.849	29009.65
535.05	28573.43
535.251	28772.08
535.451	28823.28
535.652	28634.87
535.853	28432.12
536.054	28841.71
536.255	28624.63
536.456	28249.85
536.657	28933.87
536.857	28501.75
537.058	28456.7
537.259	28835.57
537.46	28489.46
537.66	27926.27
537.861	28114.69
538.062	28122.88
538.263	28075.77
538.463	27842.31
538.664	28290.81
538.865	28315.39
539.065	28583.67
539.266	27815.68
539.466	28335.87
539.667	27707.14
539.868	28231.42
540.068	27774.72
540.269	27909.89
540.469	27973.38
540.67	27934.46
540.87	27846.4
541.071	27629.32
541.271	27893.51
541.472	28010.24
541.672	27766.53
541.873	28012.29
542.073	27346.7
542.274	27827.97
542.474	27768.58
542.675	27447.05
542.875	27916.03
543.075	27662.08
543.276	27477.77
543.476	27516.68
543.676	27377.42
543.877	27606.79
544.077	27633.41
544.277	27232.01
544.478	27537.16
544.678	27766.53
544.878	27494.15
545.078	27528.97
545.279	27485.96
545.479	27375.37
545.679	27516.68
545.879	27320.07
546.079	27434.76
546.28	27395.85
546.48	27340.55
546.68	27342.6
546.88	27672.32
547.08	27537.16
547.28	27498.25
547.48	27279.11
547.68	27324.17
547.88	27164.43
548.081	27539.21
548.281	27373.32
548.481	27670.28
548.681	27625.22
548.881	27365.13
549.081	27639.56
549.28	27555.59
549.48	27764.48
549.68	27354.89
549.88	27471.62
550.08	27352.84
550.28	27621.13
550.48	27299.59
550.68	27688.71
550.88	27701
551.08	27504.39
551.279	27739.91
551.479	27281.16
551.679	27483.91
551.879	27490.06
552.079	27399.94
552.278	27686.66
552.478	27657.99
552.678	27746.05
552.878	27455.24
553.077	27696.9
553.277	27301.64
553.477	27701
553.676	27674.37
553.876	27911.94
554.076	27541.25
554.275	27594.5
554.475	27410.18
554.674	27901.7
554.874	27780.87
555.074	27563.78
555.273	27832.07
555.473	28049.15
555.672	27727.62
555.872	27365.13
556.071	27956.99
556.271	27842.31
556.47	27836.16
556.67	27782.91
556.869	28071.68
557.068	27651.84
557.268	27494.15
557.467	27766.53
557.667	27944.7
557.866	28059.39
558.065	28083.97
558.265	27649.8
558.464	27977.47
558.663	27983.62
558.863	27277.07
559.062	27989.76
559.261	27827.97
559.461	28182.27
559.66	27983.62
559.859	27926.27
560.058	27768.58
560.258	27866.88
560.457	27647.75
560.656	27946.75
560.855	27635.46
561.054	27930.37
561.253	27432.71
561.453	27549.45
561.652	27932.42
561.851	27832.07
562.05	27754.24
562.249	27520.77
562.448	28014.34
562.647	27918.08
562.846	27621.13
563.045	27807.49
563.244	27381.51
563.443	27971.33
563.642	27676.42
563.841	27584.26
564.04	27567.88
564.239	28147.45
564.438	27254.54
564.637	27438.86
564.836	27733.76
565.035	27311.88
565.234	27703.04
565.432	27207.44
565.631	27311.88
565.83	27479.82
566.029	26914.58
566.228	27156.24
566.427	27324.17
566.625	27162.38
566.824	27209.48
567.023	27379.46
567.222	26644.24
567.42	27158.28
567.619	27172.62
567.818	27324.17
568.016	27105.04
568.215	27248.39
568.414	27111.18
568.612	27205.39
568.811	26646.29
569.01	27029.26
569.208	26533.65
569.407	26791.7
569.605	26597.14
569.804	26595.09
570.002	26511.13
570.201	26341.14
570.4	26314.52
570.598	26199.83
570.797	25847.58
570.995	26230.55
571.193	25706.27
571.392	26332.95
571.59	25765.67
571.789	25855.78
571.987	25904.93
572.186	26007.33
572.384	25730.85
572.582	25679.65
572.781	26033.95
572.979	25384.74
573.177	25904.93
573.376	25454.37
573.574	25542.44
573.772	25481
573.971	25087.79
574.169	25151.27
574.367	25405.22
574.565	25042.73
574.763	24936.24
574.962	24573.75
575.16	24561.46
575.358	24966.96
575.556	24485.69
575.754	25218.86
575.952	24678.19
576.151	24690.48
576.349	24295.22
576.547	24203.07
576.745	24504.12
576.943	24358.71
577.141	24319.8
577.339	24346.42
577.537	24043.32
577.735	24102.71
577.933	24039.23
578.131	24047.42
578.329	23695.17
578.527	23670.59
578.725	23734.08
578.923	23605.06
579.121	23596.87
579.319	23617.35
579.516	23172.94
579.714	23398.21
579.912	23383.88
580.11	23306.06
580.308	23435.08
580.506	23127.88
580.704	22802.25
580.901	23263.05
581.099	23244.62
581.297	22644.56
581.495	22996.81
581.692	23310.15
581.89	22712.14
582.088	22814.54
582.285	22589.27
582.483	22740.82
582.681	22724.43
582.878	22400.85
583.076	22171.48
583.274	22597.46
583.471	22062.94
583.669	22339.41
583.866	22288.21
584.064	22159.19
584.262	21839.71
584.459	22347.61
584.657	21905.24
584.854	22005.59
585.052	21796.7
585.249	21706.59
585.447	21854.05
585.644	21509.99
585.841	21978.97
586.039	21960.54
586.236	21456.74
586.434	21288.81
586.631	21391.2
586.828	21507.94
587.026	21188.46
587.223	21417.83
587.42	21170.02
587.618	21493.6
587.815	21172.07
588.012	21290.85
588.21	20903.79
588.407	21323.62
588.604	21088.1
588.801	20922.22
588.999	21077.87
589.196	20891.5
589.393	20934.51
589.59	20836.2
589.787	20809.58
589.984	20844.4
590.182	20524.91
590.379	20729.71
590.576	20553.59
590.773	20723.57
590.97	20768.62
591.167	20799.34
591.364	20369.27
591.561	20447.09
591.758	20262.77
591.955	20307.83
592.152	20328.31
592.349	20223.86
592.546	20399.99
592.743	20363.12
592.94	20103.03
593.137	20289.4
593.334	20426.61
593.531	19875.71
593.727	20369.27
593.924	20125.56
594.121	19931
594.318	20305.78
594.515	19924.86
594.712	20156.28
594.908	20010.87
595.105	20019.07
595.302	19775.36
595.499	20012.92
595.696	19828.6
595.892	19916.67
596.089	20162.42
596.286	20152.18
596.482	19535.74
596.679	19771.26
596.876	19842.94
597.072	19832.7
597.269	19654.53
597.466	19632
597.662	19701.63
597.859	19576.7
598.055	20029.31
598.252	19529.6
598.448	19806.08
598.645	19722.11
598.841	19550.08
599.038	20041.59
599.234	19898.24
599.431	19718.01
599.627	19507.07
599.824	19857.28
600.02	19840.89
600.217	20244.34
600.413	19728.25
600.609	19466.11
600.806	19883.9
601.002	19748.73
601.198	19740.54
601.395	19797.88
601.591	19830.65
601.787	19984.25
601.984	19687.29
602.18	19851.13
602.376	19865.47
602.572	19959.67
602.769	19806.08
602.965	19771.26
603.161	20170.61
603.357	19832.7
603.553	20131.7
603.75	20139.9
603.946	20068.22
604.142	20109.18
604.338	19976.06
604.534	20320.12
604.73	19986.3
604.926	19976.06
605.122	20387.7
605.318	20158.33
605.514	20258.68
605.71	20166.52
605.906	20180.85
606.102	20262.77
606.298	20352.88
606.494	20594.54
606.69	20705.13
606.886	20486
607.082	20371.32
607.278	20850.54
607.474	20660.08
607.67	20592.5
607.866	20320.12
608.062	20918.12
608.257	20711.28
608.453	20574.06
608.649	21041
608.845	20561.78
609.041	20801.39
609.236	20844.4
609.432	21112.68
609.628	21305.19
609.824	21030.76
610.019	20969.32
610.215	21303.14
610.411	21497.7
610.606	20911.98
610.802	21466.98
610.998	21268.33
611.193	21450.6
611.389	21190.5
611.584	21423.97
611.78	21194.6
611.976	21129.06
612.171	21571.43
612.367	21616.48
612.562	21561.19
612.758	21196.65
612.953	21647.2
613.149	22114.14
613.344	21548.9
613.539	21886.81
613.735	21720.93
613.93	22067.03
614.126	21659.49
614.321	21972.83
614.517	21835.61
614.712	21708.64
614.907	21591.91
615.103	22148.95
615.298	21727.07
615.493	22048.6
615.688	21686.11
615.884	22447.96
616.079	21798.75
616.274	22083.42
616.47	21886.81
616.665	21942.11
616.86	22253.4
617.055	21831.52
617.25	21897.05
617.445	22159.19
617.641	21303.14
617.836	22132.57
618.031	22001.5
618.226	21763.93
618.421	21929.82
618.616	22048.6
618.811	21452.64
619.006	22046.55
619.201	21763.93
619.396	21854.05
619.591	21651.3
619.786	21718.88
619.981	21378.92
620.176	21614.43
620.371	21253.99
620.566	21403.49
620.761	21385.06
620.956	21716.83
621.151	21122.92
621.346	21215.08
621.541	21045.1
621.735	21065.58
621.93	20844.4
622.125	21043.05
622.32	20662.13
622.515	21006.19
622.709	20481.91
622.904	20836.2
623.099	20483.95
623.294	20393.84
623.488	20256.63
623.683	20412.28
623.878	20195.19
624.072	20242.29
624.267	20127.61
624.462	19916.67
624.656	19771.26
624.851	19885.95
625.046	19947.39
625.24	19539.84
625.435	19349.38
625.629	19578.75
625.824	19623.81
626.018	19285.89
626.213	18907.02
626.407	19423.11
626.602	19017.61
626.796	18866.06
626.991	18804.62
627.185	18818.96
627.38	18347.92
627.574	18796.43
627.768	18485.14
627.963	18309.01
628.157	18528.14
628.352	18569.1
628.546	17907.61
628.74	18464.66
628.935	17885.08
629.129	18245.52
629.323	17936.28
629.517	17948.57
629.712	17647.52
629.906	17541.02
630.1	17356.71
630.294	17616.8
630.489	17317.79
630.683	17471.39
630.877	17119.14
631.071	17094.57
631.265	17072.04
631.459	16979.88
631.653	16813.99
631.848	16551.85
632.042	16822.19
632.236	16773.03
632.43	16639.92
632.624	16791.47
632.818	16494.51
633.012	16185.27
633.206	16281.52
633.4	16523.18
633.594	16074.68
633.788	15855.54
633.982	16033.72
634.176	15908.79
634.369	15824.83
634.563	15753.15
634.757	15722.43
634.951	15470.53
635.145	15548.35
635.339	15593.4
635.533	15228.87
635.726	15144.9
635.92	15161.28
636.114	15130.56
636.308	15003.59
636.501	14995.4
636.695	14921.67
636.889	14645.2
637.083	14739.4
637.276	14755.79
637.47	14569.42
637.664	14288.85
637.857	14413.77
638.051	14452.69
638.244	14108.63
638.438	14194.64
638.632	14346.19
638.825	14057.43
639.019	13901.78
639.212	13522.91
639.406	13807.58
639.599	13729.75
639.793	13803.48
639.986	13414.37
640.18	13328.35
640.373	13527
640.567	13215.71
640.76	13488.09
640.954	13127.65
641.147	12881.89
641.34	12818.41
641.534	12832.74
641.727	12842.98
641.92	12763.11
642.114	12603.37
642.307	12435.44
642.5	12578.79
642.694	12167.15
642.887	12396.53
643.08	12320.75
643.273	12271.6
643.467	12175.34
643.66	12052.47
643.853	12097.52
644.046	11694.07
644.239	11911.16
644.432	11941.88
644.626	11550.71
644.819	11454.46
645.012	11429.88
645.205	11546.62
645.398	11415.55
645.591	11489.28
645.784	11329.53
645.977	11096.07
646.17	11268.09
646.363	10981.38
646.556	10965
646.749	10862.6
646.942	11042.82
647.135	10795.01
647.328	10690.57
647.521	10838.02
647.714	10696.71
647.907	10481.67
648.099	10539.02
648.292	10516.49
648.485	10547.21
648.678	10215.44
648.871	10399.76
649.064	10182.67
649.256	10254.35
649.449	10129.42
649.642	9918.48
649.835	9914.39
650.027	9951.25
650.22	9809.94
650.413	9771.03
650.605	9660.44
650.798	9502.75
650.991	9547.8
651.183	9492.51
651.376	9611.29
651.568	9465.88
651.761	9492.51
651.954	9590.81
652.146	9322.52
652.339	9519.13
652.531	9244.7
652.724	9044
652.916	8968.23
653.109	8992.8
653.301	9056.29
653.494	9170.97
653.686	8794.15
653.879	9015.33
654.071	8912.93
654.263	8771.62
654.456	8853.54
654.648	8765.48
654.84	8687.65
655.033	8552.49
655.225	8577.06
655.417	8460.33
655.61	8552.49
655.802	8491.05
655.994	8413.23
656.186	8398.89
656.379	8362.03
656.571	8261.68
656.763	8071.22
656.955	8165.42
657.148	8003.63
657.34	8069.17
657.532	8087.6
657.724	7966.77
657.916	7936.05
658.108	7802.93
658.3	7870.51
658.492	7870.51
658.684	7827.51
658.876	7782.45
659.068	7737.4
659.26	7704.63
659.452	7671.86
659.644	7706.68
659.836	7450.68
660.028	7600.18
660.22	7450.68
660.412	7370.81
660.604	7168.06
660.796	7340.09
660.988	7247.93
661.18	7006.27
661.372	6971.46
661.563	7151.68
661.755	7039.04
661.947	7206.97
662.139	6811.71
662.331	7018.56
662.522	6803.52
662.714	6916.16
662.906	6881.35
663.097	6746.18
663.289	6723.65
663.481	6672.45
663.673	6625.35
663.864	6783.04
664.056	6500.42
664.247	6729.8
664.439	6574.15
664.631	6535.24
664.822	6414.41
665.014	6469.7
665.205	6279.24
665.397	6258.76
665.588	6293.58
665.78	6281.29
665.971	6217.8
666.163	6352.97
666.354	6205.52
666.546	6082.64
666.737	6043.73
666.929	5818.45
667.12	6076.49
667.311	6115.41
667.503	5896.27
667.694	5902.42
667.885	5961.81
668.077	6031.44
668.268	5589.08
668.459	5804.11
668.651	5822.55
668.842	5771.35
669.033	5816.4
669.224	5824.59
669.416	5570.65
669.607	5578.84
669.798	5701.72
669.989	5675.09
670.18	5599.32
670.371	5443.67
670.563	5619.8
670.754	5697.62
670.945	5564.5
671.136	5640.28
671.327	5533.78
671.518	5460.06
671.709	5470.3
671.9	5427.29
672.091	5349.47
672.282	5410.9
672.473	5320.79
672.664	5369.94
672.855	5242.97
673.046	5509.21
673.237	5322.84
673.428	5322.84
673.619	5220.44
673.809	5398.62
674	5312.6
674.191	5148.76
674.382	5167.2
674.573	5187.68
674.764	5017.69
674.954	5345.37
675.145	5275.74
675.336	5075.04
675.527	5150.81
675.717	5095.52
675.908	5187.68
676.099	4968.54
676.289	5001.31
676.48	4943.97
676.671	5095.52
676.861	5118.04
677.052	4995.17
677.243	4864.1
677.433	5042.27
677.624	5066.85
677.814	4978.78
678.005	5011.55
678.195	4972.64
678.386	4905.06
678.576	4808.8
678.767	4677.73
678.957	4921.44
679.148	4839.52
679.338	4954.21
679.529	4921.44
679.719	4806.75
679.909	4755.55
680.1	4894.82
680.29	4839.52
680.481	4847.71
680.671	4878.43
680.861	4714.59
681.052	4898.91
681.242	4819.04
681.432	4931.68
681.622	4833.38
681.813	4618.34
682.003	4708.45
682.193	4642.92
682.383	4880.48
682.573	4751.46
682.764	4794.47
682.954	4710.5
683.144	4724.83
683.334	4704.35
683.524	4601.96
683.714	4788.32
683.904	4716.64
684.094	4763.75
684.284	4757.6
684.474	4706.4
684.664	4857.95
684.854	4698.21
685.044	4618.34
685.234	4571.24
685.424	4604
685.614	4616.29
685.804	4657.25
685.994	4638.82
686.184	4685.92
686.374	4565.09
686.564	4716.64
686.753	4591.72
686.943	4493.41
687.133	4681.83
687.323	4606.05
687.513	4487.27
687.702	4587.62
687.892	4634.72
688.082	4561
688.272	4644.96
688.461	4382.82
688.651	4515.94
688.841	4501.61
689.03	4462.69
689.22	4442.21
689.41	4477.03
689.599	4364.39
689.789	4528.23
689.979	4386.92
690.168	4470.89
690.358	4380.78
690.547	4474.98
690.737	4419.69
690.926	4337.77
691.116	4255.85
691.305	4411.5
691.495	4210.79
691.684	4427.88
691.874	4378.73
692.063	4268.14
692.252	4378.73
692.442	4417.64
692.631	4184.17
692.82	4241.51
693.01	4087.92
693.199	4057.2
693.388	4173.93
693.578	4227.18
693.767	4227.18
693.956	4249.71
694.146	4208.75
694.335	4145.26
694.524	4100.2
694.713	4225.13
694.902	4182.12
695.092	4135.02
695.281	4165.74
695.47	4034.67
695.659	4079.72
695.848	4049
696.037	4206.7
696.226	4317.29
696.415	3879.02
696.604	4016.24
696.793	4073.58
696.982	4102.25
697.171	3987.57
697.36	4112.49
697.549	3915.89
697.738	3995.76
697.927	3903.6
698.116	4012.14
698.305	4038.77
698.494	3993.71
698.683	3897.46
698.872	4020.33
699.061	3952.75
699.25	3821.68
699.438	3760.24
699.627	3946.61
699.816	3872.88
700.005	3960.94
700.193	3883.12
700.382	3975.28
700.571	3862.64
700.76	3862.64
700.948	3897.46
701.137	3862.64
701.326	3842.16
701.514	3885.17
701.703	3702.9
701.892	3803.25
702.08	3833.97
702.269	3840.11
702.457	3799.15
702.646	3827.82
702.834	3692.66
703.023	3721.33
703.212	3739.76
703.4	3700.85
703.589	3663.99
703.777	3809.39
703.965	3653.75
704.154	3659.89
704.342	3625.08
704.531	3739.76
704.719	3706.99
704.907	3625.08
705.096	3577.97
705.284	3580.02
705.472	3600.5
705.661	3661.94
705.849	3522.68
706.037	3575.92
706.226	3586.16
706.414	3674.23
706.602	3567.73
706.79	3510.39
706.979	3528.82
707.167	3360.89
707.355	3418.23
707.543	3418.23
707.731	3651.7
707.919	3463.29
708.107	3360.89
708.296	3504.25
708.484	3348.6
708.672	3502.2
708.86	3362.94
709.048	3494.01
709.236	3401.85
709.424	3352.7
709.612	3373.18
709.8	3389.56
709.988	3332.22
710.176	3428.47
710.364	3278.97
710.551	3348.6
710.739	3238.01
710.927	3346.55
711.115	3233.91
711.303	3293.3
711.491	3256.44
711.679	3137.66
711.866	3192.95
712.054	3225.72
712.242	3086.46
712.43	3274.87
712.617	3172.47
712.805	3240.06
712.993	3141.75
713.181	3217.53
713.368	3174.52
713.556	3168.38
713.744	3154.04
713.931	3272.82
714.119	3213.43
714.306	3061.88
714.494	2994.3
714.682	3076.22
714.869	3119.23
715.057	3010.68
715.244	3043.45
715.432	3086.46
715.619	3049.6
715.807	2979.97
715.994	3045.5
716.182	3061.88
716.369	3070.08
716.556	3121.28
716.744	2961.53
716.931	2889.85
717.119	3027.07
717.306	2992.25
717.493	2975.87
717.681	2838.66
717.868	2939.01
718.055	2889.85
718.242	3010.68
718.43	2898.05
718.617	2986.11
718.804	2918.53
718.991	2910.33
719.179	2840.7
719.366	2838.66
719.553	2904.19
719.74	2846.85
719.927	2783.36
720.114	2764.93
720.301	2723.97
720.488	2883.71
720.676	2709.63
720.863	2904.19
721.05	2859.14
721.237	2672.77
721.424	2687.11
721.611	2850.94
721.798	2746.5
721.985	2586.76
722.172	2547.84
722.358	2728.07
722.545	2711.68
722.732	2537.6
722.919	2683.01
723.106	2574.47
723.293	2510.98
723.48	2572.42
723.667	2441.35
723.853	2631.81
724.04	2687.11
724.227	2611.33
724.414	2707.59
724.6	2670.72
724.787	2543.75
724.974	2664.58
725.161	2609.28
725.347	2560.13
725.534	2642.05
725.72	2465.93
725.907	2504.84
726.094	2640
726.28	2488.45
726.467	2429.06
726.653	2465.93
726.84	2590.85
727.027	2543.75
727.213	2470.02
727.4	2515.08
727.586	2523.27
727.773	2476.16
727.959	2386.05
728.145	2447.49
728.332	2351.24
728.518	2373.77
728.705	2402.44
728.891	2336.9
729.077	2422.92
729.264	2422.92
729.45	2349.19
729.636	2377.86
729.823	2365.57
730.009	2384.01
730.195	2355.33
730.382	2398.34
730.568	2363.53
730.754	2338.95
730.94	2390.15
731.126	2349.19
731.313	2341
731.499	2275.46
731.685	2371.72
731.871	2404.49
732.057	2320.52
732.243	2263.18
732.429	2257.03
732.615	2244.74
732.801	2240.65
732.987	2373.77
733.173	2300.04
733.359	2259.08
733.545	2297.99
733.731	2322.57
733.917	2240.65
734.103	2171.02
734.289	2273.42
734.475	2232.46
734.661	2306.18
734.847	2265.22
735.033	2166.92
735.219	2269.32
735.404	2128.01
735.59	2166.92
735.776	2191.5
735.962	2216.07
736.148	2154.63
736.333	2207.88
736.519	2044.04
736.705	2130.06
736.89	2193.55
737.076	2177.16
737.262	2046.09
737.447	2113.67
737.633	2056.33
737.819	2189.45
738.004	2117.77
738.19	2093.19
738.375	2117.77
738.561	2101.39
738.747	2070.67
738.932	2029.71
739.118	2197.64
739.303	2087.05
739.489	2076.81
739.674	1996.94
739.859	2101.39
740.045	2087.05
740.23	2128.01
740.416	1955.98
740.601	2019.47
740.786	1941.65
740.972	1908.88
741.157	2029.71
741.342	1921.17
741.528	1894.54
741.713	1910.93
741.898	1986.7
742.084	1896.59
742.269	2019.47
742.454	1859.73
742.639	1970.32
742.824	1822.86
743.01	1964.17
743.195	1980.56
743.38	1943.69
743.565	1908.88
743.75	1931.41
743.935	1812.62
744.12	1876.11
744.305	1822.86
744.49	1843.34
744.675	1728.66
744.86	1822.86
745.045	1765.52
745.23	1722.51
745.415	1765.52
745.6	1732.75
745.785	1642.64
745.97	1761.42
746.155	1724.56
746.34	1667.22
746.525	1661.07
746.71	1839.25
746.895	1593.49
747.079	1609.87
747.264	1644.69
747.449	1677.46
747.634	1689.74
747.819	1671.31
748.003	1652.88
748.188	1585.3
748.373	1611.92
748.557	1603.73
748.742	1540.24
748.927	1601.68
749.111	1519.76
749.296	1487
749.481	1620.11
749.665	1599.63
749.85	1489.04
750.034	1511.57
750.219	1452.18
750.404	1448.08
750.588	1511.57
750.773	1388.69
750.957	1487
751.141	1415.32
751.326	1443.99
751.51	1398.93
751.695	1429.65
751.879	1446.04
752.064	1398.93
752.248	1423.51
752.432	1437.84
752.617	1382.55
752.801	1405.08
752.985	1347.73
753.17	1323.16
753.354	1355.93
753.538	1276.06
753.722	1370.26
753.907	1241.24
754.091	1200.28
754.275	1226.9
754.459	1237.14
754.643	1251.48
754.828	1300.63
755.012	1249.43
755.196	1200.28
755.38	1237.14
755.564	1278.1
755.748	1177.75
755.932	1310.87
756.116	1159.32
756.3	1216.66
756.484	1126.55
756.668	1136.79
756.852	1134.75
757.036	1128.6
757.22	1071.26
757.404	1130.65
757.588	1089.69
757.772	1214.62
757.956	1054.87
758.14	1206.42
758.323	940.19
758.507	1147.03
758.691	1028.25
758.875	1144.99
759.059	1044.63
759.242	1185.94
759.426	999.58
759.61	1101.98
759.794	929.95
759.977	1009.82
760.161	1147.03
760.345	1077.4
760.528	1038.49
760.712	1061.02
760.895	1077.4
761.079	1046.68
761.263	970.91
761.446	954.52
761.63	1003.68
761.813	1018.01
761.997	979.1
762.18	946.33
762.364	1038.49
762.547	964.76
762.731	901.28
762.914	841.89
763.098	880.8
763.281	975
763.464	888.99
763.648	915.61
763.831	817.31
764.015	921.76
764.198	956.57
764.381	958.62
764.564	938.14
764.748	946.33
764.931	970.91
765.114	876.7
765.297	968.86
765.481	940.19
765.664	897.18
765.847	962.72
766.03	1003.68
766.213	895.13
766.397	825.5
766.58	819.36
766.763	757.92
766.946	831.65
767.129	852.13
767.312	856.22
767.495	970.91
767.678	872.61
767.861	796.83
768.044	815.26
768.227	891.04
768.41	774.3
768.593	870.56
768.776	782.49
768.959	809.12
769.142	864.41
769.324	831.65
769.507	817.31
769.69	829.6
769.873	774.3
770.056	895.13
770.239	778.4
770.421	848.03
770.604	809.12
770.787	766.11
770.97	786.59
771.152	743.58
771.335	811.17
771.518	749.73
771.7	741.54
771.883	848.03
772.066	817.31
772.248	719.01
772.431	848.03
772.613	772.25
772.796	712.86
772.978	807.07
773.161	815.26
773.343	612.51
773.526	762.02
773.708	725.15
773.891	659.62
774.073	708.77
774.256	762.02
774.438	735.39
774.621	645.28
774.803	766.11
774.985	725.15
775.168	651.42
775.35	561.31
775.532	716.96
775.715	655.52
775.897	694.43
776.079	520.35
776.261	708.77
776.444	669.86
776.626	530.59
776.808	632.99
776.99	645.28
777.173	546.98
777.355	622.75
777.537	663.71
777.719	573.6
777.901	671.9
778.083	592.03
778.265	614.56
778.447	637.09
778.629	694.43
778.811	610.47
778.993	620.71
779.175	571.55
779.357	602.27
779.539	589.99
779.721	497.83
779.903	534.69
780.085	512.16
780.267	557.22
780.449	561.31
780.631	522.4
780.812	614.56
780.994	495.78
781.176	501.92
781.358	483.49
781.54	512.16
781.721	506.02
781.903	510.11
782.085	456.87
782.267	538.79
782.448	512.16
782.63	528.55
782.812	485.54
782.993	475.3
783.175	620.71
783.357	489.64
783.538	569.51
783.72	440.48
783.901	426.15
784.083	495.78
784.264	487.59
784.446	448.68
784.627	467.11
784.809	399.52
784.99	409.76
785.172	516.26
785.353	446.63
785.535	487.59
785.716	454.82
785.897	413.86
786.079	370.85
786.26	387.24
786.441	481.44
786.623	348.33
786.804	395.43
786.985	360.61
787.167	391.33
787.348	379.04
787.529	368.81
787.71	534.69
787.891	465.06
788.073	356.52
788.254	381.09
788.435	391.33
788.616	387.24
788.797	344.23
788.978	422.05
789.159	331.94
789.34	415.91
789.522	370.85
789.703	342.18
789.884	340.13
790.065	293.03
790.246	348.33
790.427	319.65
790.607	409.76
790.788	313.51
790.969	368.81
791.15	340.13
791.331	342.18
791.512	360.61
791.693	356.52
791.874	364.71
792.054	368.81
792.235	299.17
792.416	389.28
792.597	331.94
792.778	319.65
792.958	315.56
793.139	333.99
793.32	290.98
793.5	329.89
793.681	348.33
793.862	301.22
794.042	290.98
794.223	319.65
794.404	352.42
794.584	284.84
794.765	276.65
794.945	209.06
795.126	422.05
795.306	293.03
795.487	356.52
795.667	290.98
795.848	241.83
796.028	252.07
796.209	297.13
796.389	250.02
796.57	270.5
796.75	254.12
796.93	278.69
797.111	274.6
797.291	301.22
797.471	309.41
797.652	299.17
797.832	260.26
798.012	319.65
798.192	266.41
798.373	196.78
798.553	211.11
798.733	192.68
798.913	200.87
799.093	274.6
799.274	223.4
799.454	346.28
799.634	307.37
799.814	235.69
799.994	360.61
800.174	260.26
800.354	217.26
800.534	245.93
800.714	211.11
800.894	176.3
801.074	176.3
801.254	237.74
801.434	299.17
801.614	209.06
801.794	159.91
801.974	921.76
802.154	237.74
802.334	274.6
802.514	151.72
802.693	278.69
802.873	192.68
803.053	262.31
803.233	276.65
803.413	194.73
803.592	192.68
803.772	209.06
803.952	159.91
804.131	80.04
804.311	188.58
804.491	235.69
804.67	213.16
804.85	219.3
805.03	209.06
805.209	288.93
805.389	176.3
805.568	178.34
805.748	153.77
805.928	237.74
806.107	184.49
806.287	250.02
806.466	229.54
806.646	207.02
806.825	200.87
807.004	192.68
807.184	139.43
807.363	188.58
807.543	211.11
807.722	200.87
807.901	129.19
808.081	198.82
808.26	94.38
808.439	129.19
808.619	192.68
808.798	241.83
808.977	157.86
809.156	198.82
809.336	266.41
809.515	123.05
809.694	114.86
809.873	219.3
810.052	254.12
810.231	127.14
810.411	168.1
810.59	221.35
810.769	247.97
810.948	121
811.127	84.14
811.306	176.3
811.485	139.43
811.664	202.92
811.843	129.19
812.022	155.82
812.201	145.58
812.38	211.11
812.559	98.47
812.737	241.83
812.916	92.33
813.095	139.43
813.274	237.74
813.453	159.91
813.632	145.58
813.811	258.21
813.989	84.14
814.168	151.72
814.347	139.43
814.526	90.28
814.704	250.02
814.883	135.34
815.062	110.76
815.24	209.06
815.419	86.19
815.598	118.95
815.776	73.9
815.955	112.81
816.133	94.38
816.312	114.86
816.49	145.58
816.669	98.47
816.847	153.77
817.026	88.23
817.204	114.86
817.383	102.57
817.561	90.28
817.74	184.49
817.918	174.25
818.097	186.54
818.275	94.38
818.453	188.58
818.632	129.19
818.81	86.19
818.988	176.3
819.167	121
819.345	133.29
819.523	131.24
819.701	129.19
819.879	110.76
820.058	121
820.236	198.82
820.414	86.19
820.592	102.57
820.77	106.67
820.948	141.48
821.127	86.19
821.305	104.62
821.483	125.1
821.661	55.47
821.839	106.67
822.017	100.52
822.195	159.91
822.373	151.72
822.551	168.1
822.729	168.1
822.907	116.9
823.085	166.06
823.262	123.05
823.44	86.19
823.618	118.95
823.796	94.38
823.974	63.66
824.152	139.43
824.329	43.18
824.507	112.81
824.685	106.67
824.863	184.49
825.04	86.19
825.218	106.67
825.396	151.72
825.574	174.25
825.751	69.8
825.929	77.99
826.107	65.71
826.284	57.51
826.462	110.76
826.639	86.19
826.817	67.75
826.994	176.3
827.172	63.66
827.349	159.91
827.527	104.62
827.704	116.9
827.882	114.86
828.059	86.19
828.237	59.56
828.414	182.44
828.591	0.17
828.769	90.28
828.946	84.14
829.124	114.86
829.301	100.52
829.478	102.57
829.655	121
829.833	104.62
830.01	86.19
830.187	90.28
830.364	168.1
830.542	86.19
830.719	118.95
830.896	137.38
831.073	125.1
831.25	47.27
831.427	153.77
831.604	188.58
831.782	112.81
831.959	118.95
832.136	129.19
832.313	57.51
832.49	77.99
832.667	47.27
832.844	61.61
833.021	102.57
833.198	135.34
833.374	143.53
833.551	110.76
833.728	69.8
833.905	194.73
834.082	47.27
834.259	8.36
834.436	131.24
834.612	118.95
834.789	77.99
834.966	41.13
835.143	151.72
835.319	90.28
835.496	51.37
835.673	92.33
835.85	116.9
836.026	114.86
836.203	61.61
836.38	24.75
836.556	90.28
836.733	-5.97
836.909	164.01
837.086	75.95
837.262	-12.12
837.439	151.72
837.616	69.8
837.792	90.28
837.968	118.95
838.145	-3.93
838.321	139.43
838.498	77.99
838.674	73.9
838.851	63.66
839.027	96.43
839.203	65.71
839.38	20.65
839.556	86.19
839.732	43.18
839.909	82.09
840.085	118.95
840.261	39.08
840.437	86.19
840.614	69.8
840.79	110.76
840.966	129.19
841.142	82.09
841.318	41.13
841.494	90.28
841.671	57.51
841.847	37.03
842.023	73.9
842.199	71.85
842.375	14.51
842.551	73.9
842.727	80.04
842.903	176.3
843.079	4.27
843.255	104.62
843.431	90.28
843.607	131.24
843.783	-28.5
843.959	53.42
844.134	77.99
844.31	102.57
844.486	34.99
844.662	2.22
844.838	61.61
845.013	24.75
845.189	59.56
845.365	69.8
845.541	84.14
845.716	24.75
845.892	200.87
846.068	-26.45
846.244	39.08
846.419	157.86
846.595	63.66
846.77	22.7
846.946	45.23
847.122	39.08
847.297	45.23
847.473	151.72
847.648	8.36
847.824	30.89
847.999	69.8
848.175	20.65
848.35	112.81
848.526	61.61
848.701	71.85
848.876	63.66
849.052	55.47
849.227	55.47
849.403	24.75
849.578	110.76
849.753	28.84
849.929	75.95
850.104	-3.93
850.279	39.08
850.454	102.57
850.63	86.19
850.805	20.65
850.98	82.09
851.155	22.7
851.33	86.19
851.505	8.36
851.681	149.67
851.856	34.99
852.031	0.17
852.206	90.28
852.381	-10.07
852.556	39.08
852.731	34.99
852.906	10.41
853.081	45.23
853.256	104.62
853.431	63.66
853.606	80.04
853.781	71.85
853.956	-24.4
854.131	51.37
854.305	53.42
854.48	-3.93
854.655	-1.88
854.83	24.75
855.005	12.46
855.18	30.89
855.354	37.03
855.529	28.84
855.704	82.09
855.879	63.66
856.053	8.36
856.228	102.57
856.403	30.89
856.577	41.13
856.752	12.46
856.926	-18.26
857.101	90.28
857.276	30.89
857.45	26.79
857.625	37.03
857.799	61.61
857.974	55.47
858.148	12.46
858.323	75.95
858.497	28.84
858.672	18.6
858.846	77.99
859.02	59.56
859.195	16.55
859.369	49.32
859.543	16.55
859.718	45.23
859.892	39.08
860.066	26.79
860.241	0.17
860.415	90.28
860.589	47.27
860.763	82.09
860.938	67.75
861.112	37.03
861.286	24.75
861.46	69.8
861.634	53.42
861.808	61.61
861.982	20.65
862.157	24.75
862.331	-16.21
862.505	37.03
862.679	-3.93
862.853	92.33
863.027	16.55
863.201	30.89
863.375	45.23
863.549	-24.4
863.722	59.56
863.896	20.65
864.07	57.51
864.244	12.46
864.418	77.99
864.592	112.81
864.766	-61.27
864.939	43.18
865.113	84.14
865.287	86.19
865.461	-18.26
865.634	28.84
865.808	75.95
865.982	71.85
866.156	-53.08
866.329	-8.02
866.503	-1.88
866.676	71.85
866.85	47.27
867.024	49.32
867.197	69.8
867.371	96.43
867.544	0.17
867.718	6.31
867.891	43.18
868.065	-28.5
868.238	63.66
868.412	77.99
868.585	12.46
868.759	61.61
868.932	12.46
869.105	-28.5
869.279	41.13
869.452	69.8
869.625	69.8
869.799	-16.21
869.972	8.36
870.145	4.27
870.319	86.19
870.492	20.65
870.665	-36.69
870.838	12.46
871.011	8.36
871.185	65.71
871.358	-12.12
871.531	-36.69
871.704	28.84
871.877	-5.97
872.05	-24.4
872.223	6.31
872.396	14.51
872.569	24.75
872.742	49.32
872.915	22.7
873.088	61.61
873.261	-28.5
873.434	24.75
873.607	37.03
873.78	-53.08
873.953	-94.04
874.126	47.27
874.299	57.51
874.471	0.17
874.644	84.14
874.817	41.13
874.99	121
875.163	30.89
875.335	63.66
875.508	-8.02
875.681	14.51
875.853	4.27
876.026	61.61
876.199	-16.21
876.371	20.65
876.544	61.61
876.717	61.61
876.889	94.38
877.062	63.66
877.234	45.23
877.407	37.03
877.579	-12.12
877.752	39.08
877.924	37.03
878.097	108.71
878.269	28.84
878.442	114.86
878.614	77.99
878.786	-38.74
878.959	-10.07
879.131	39.08
879.303	-10.07
879.476	69.8
879.648	22.7
879.82	37.03
879.993	-10.07
880.165	127.14
880.337	-10.07
880.509	32.94
880.681	-85.84
880.854	-85.84
881.026	57.51
881.198	55.47
881.37	12.46
881.542	24.75
881.714	-12.12
881.886	63.66
882.058	53.42
882.23	69.8
882.402	34.99
882.574	30.89
882.746	61.61
882.918	53.42
883.09	51.37
883.262	12.46
883.434	108.71
883.606	-1.88
883.778	-5.97
883.95	49.32
884.122	-28.5
884.293	22.7
884.465	37.03
884.637	55.47
884.809	47.27
884.98	63.66
885.152	67.75
885.324	12.46
885.496	12.46
885.667	63.66
885.839	14.51
886.011	53.42
886.182	-14.17
886.354	41.13
886.525	41.13
886.697	-10.07
886.869	30.89
887.04	-18.26
887.212	61.61
887.383	57.51
887.555	18.6
887.726	39.08
887.897	61.61
888.069	59.56
888.24	30.89
888.412	26.79
888.583	14.51
888.754	22.7
888.926	-32.6
889.097	47.27
889.268	-81.75
889.44	4.27
889.611	-16.21
889.782	65.71
889.953	22.7
890.125	96.43
890.296	-63.32
890.467	-14.17
890.638	26.79
890.809	53.42
890.98	-42.84
891.151	-53.08
891.323	100.52
891.494	-36.69
891.665	71.85
891.836	-12.12
892.007	8.36
892.178	73.9
892.349	-44.88
892.52	30.89
892.691	45.23
892.862	26.79
893.032	-12.12
893.203	-16.21
893.374	102.57
893.545	53.42
893.716	61.61
893.887	53.42
894.057	2.22
894.228	53.42
894.399	47.27
894.57	41.13
894.74	45.23
894.911	37.03
895.082	75.95
895.253	8.36
895.423	-24.4
895.594	43.18
895.764	-12.12
895.935	39.08
896.106	61.61
896.276	16.55
896.447	-12.12
896.617	37.03
896.788	24.75
896.958	-14.17
897.129	-61.27
897.299	45.23
897.47	43.18
897.64	-8.02
897.81	14.51
897.981	-3.93
898.151	10.41
898.322	41.13
898.492	57.51
898.662	37.03
898.832	-32.6
899.003	-57.17
899.173	-8.02
899.343	63.66
899.513	-42.84
