Data from USB4F104151__286__14-34-49-424.txt Node

Date: Thu Mar 13 14:34:49 EDT 2025
User: louis
Spectrometer: USB4F10415
Trigger mode: 4
Integration Time (sec): 2.500000E-2
Scans to average: 1
Electric dark correction enabled: true
Nonlinearity correction enabled: false
Boxcar width: 0
XAxis mode: Wavelengths
Number of Pixels in Spectrum: 3648
>>>>>Begin Spectral Data<<<<<
178.204	-99.33
178.424	-99.33
178.644	-99.33
178.864	-162.81
179.084	-152.57
179.304	5.12
179.524	29.7
179.744	-89.09
179.964	37.89
180.184	41.98
180.404	1.02
180.624	-17.41
180.844	62.46
181.064	-76.8
181.283	9.22
181.503	-35.84
181.723	31.74
181.943	-33.79
182.163	78.85
182.383	-27.65
182.602	48.13
182.822	50.18
183.042	33.79
183.262	-17.41
183.482	27.65
183.701	-72.7
183.921	-9.22
184.141	3.07
184.361	15.36
184.58	29.7
184.8	23.55
185.02	-23.55
185.239	-11.26
185.459	46.08
185.679	1.02
185.898	-115.71
186.118	117.76
186.338	1.02
186.557	37.89
186.777	-3.07
186.997	52.22
187.216	-33.79
187.436	44.03
187.655	27.65
187.875	66.56
188.095	-27.65
188.314	5.12
188.534	66.56
188.753	-74.75
188.973	46.08
189.192	78.85
189.412	7.17
189.631	56.32
189.851	-50.18
190.07	37.89
190.29	13.31
190.509	-7.17
190.729	29.7
190.948	-15.36
191.168	128
191.387	99.33
191.607	29.7
191.826	41.98
192.045	44.03
192.265	-31.74
192.484	25.6
192.704	9.22
192.923	-68.61
193.142	48.13
193.362	23.55
193.581	66.56
193.8	-7.17
194.02	48.13
194.239	-44.03
194.458	17.41
194.678	-19.46
194.897	21.5
195.116	7.17
195.335	-44.03
195.555	-21.5
195.774	39.94
195.993	29.7
196.212	37.89
196.432	37.89
196.651	5.12
196.87	-31.74
197.089	37.89
197.308	74.75
197.528	58.37
197.747	-62.46
197.966	84.99
198.185	58.37
198.404	13.31
198.623	-17.41
198.842	56.32
199.062	33.79
199.281	89.09
199.5	-25.6
199.719	39.94
199.938	-3.07
200.157	-11.26
200.376	37.89
200.595	41.98
200.814	31.74
201.033	-7.17
201.252	5.12
201.471	58.37
201.69	17.41
201.909	-23.55
202.128	-48.13
202.347	54.27
202.566	29.7
202.785	-50.18
203.004	-35.84
203.223	95.23
203.442	35.84
203.661	-31.74
203.879	13.31
204.098	56.32
204.317	-37.89
204.536	60.42
204.755	58.37
204.974	5.12
205.193	29.7
205.411	132.09
205.63	31.74
205.849	15.36
206.068	11.26
206.287	70.65
206.505	37.89
206.724	37.89
206.943	-31.74
207.162	35.84
207.381	39.94
207.599	66.56
207.818	29.7
208.037	23.55
208.255	13.31
208.474	13.31
208.693	3.07
208.911	66.56
209.13	-35.84
209.349	15.36
209.567	78.85
209.786	54.27
210.005	25.6
210.223	-3.07
210.442	13.31
210.661	13.31
210.879	19.46
211.098	-27.65
211.316	41.98
211.535	50.18
211.753	39.94
211.972	58.37
212.191	37.89
212.409	11.26
212.628	-1.02
212.846	-21.5
213.065	17.41
213.283	-44.03
213.502	-11.26
213.72	1.02
213.938	95.23
214.157	29.7
214.375	37.89
214.594	25.6
214.812	13.31
215.031	56.32
215.249	-3.07
215.467	56.32
215.686	64.51
215.904	-41.98
216.122	15.36
216.341	56.32
216.559	-9.22
216.778	60.42
216.996	113.66
217.214	-5.12
217.432	13.31
217.651	-89.09
217.869	7.17
218.087	25.6
218.306	-27.65
218.524	-3.07
218.742	72.7
218.96	37.89
219.179	-5.12
219.397	103.42
219.615	123.9
219.833	54.27
220.051	50.18
220.27	99.33
220.488	58.37
220.706	58.37
220.924	46.08
221.142	37.89
221.36	-7.17
221.578	62.46
221.796	-7.17
222.015	21.5
222.233	31.74
222.451	39.94
222.669	33.79
222.887	9.22
223.105	-17.41
223.323	-3.07
223.541	-35.84
223.759	-5.12
223.977	13.31
224.195	103.42
224.413	70.65
224.631	-13.31
224.849	37.89
225.067	60.42
225.285	-46.08
225.503	-9.22
225.721	15.36
225.939	11.26
226.157	-13.31
226.375	87.04
226.592	-62.46
226.81	46.08
227.028	-17.41
227.246	37.89
227.464	21.5
227.682	-25.6
227.9	-3.07
228.117	23.55
228.335	25.6
228.553	-56.32
228.771	17.41
228.989	-9.22
229.206	29.7
229.424	46.08
229.642	25.6
229.86	-11.26
230.077	62.46
230.295	1.02
230.513	9.22
230.731	35.84
230.948	87.04
231.166	54.27
231.384	-27.65
231.601	-3.07
231.819	25.6
232.037	-7.17
232.254	72.7
232.472	-23.55
232.689	-1.02
232.907	52.22
233.125	-7.17
233.342	29.7
233.56	103.42
233.777	72.7
233.995	-41.98
234.213	89.09
234.43	58.37
234.648	87.04
234.865	-21.5
235.083	29.7
235.3	-3.07
235.518	58.37
235.735	46.08
235.953	15.36
236.17	13.31
236.388	74.75
236.605	31.74
236.822	39.94
237.04	54.27
237.257	31.74
237.475	7.17
237.692	31.74
237.909	46.08
238.127	5.12
238.344	33.79
238.562	29.7
238.779	-39.94
238.996	-52.22
239.214	-17.41
239.431	52.22
239.648	21.5
239.865	44.03
240.083	29.7
240.3	50.18
240.517	29.7
240.735	54.27
240.952	74.75
241.169	56.32
241.386	-56.32
241.603	-3.07
241.821	-60.42
242.038	54.27
242.255	1.02
242.472	9.22
242.689	76.8
242.907	103.42
243.124	17.41
243.341	56.32
243.558	-9.22
243.775	-13.31
243.992	-3.07
244.209	3.07
244.426	52.22
244.643	21.5
244.86	3.07
245.078	-1.02
245.295	27.65
245.512	29.7
245.729	-93.18
245.946	64.51
246.163	39.94
246.38	13.31
246.597	5.12
246.814	-58.37
247.031	5.12
247.248	48.13
247.464	74.75
247.681	78.85
247.898	13.31
248.115	13.31
248.332	-19.46
248.549	91.13
248.766	105.47
248.983	-48.13
249.2	64.51
249.417	74.75
249.633	13.31
249.85	37.89
250.067	17.41
250.284	37.89
250.501	-70.65
250.717	113.66
250.934	52.22
251.151	46.08
251.368	7.17
251.585	58.37
251.801	37.89
252.018	-35.84
252.235	7.17
252.451	46.08
252.668	70.65
252.885	21.5
253.102	41.98
253.318	54.27
253.535	5.12
253.752	54.27
253.968	54.27
254.185	21.5
254.401	-25.6
254.618	54.27
254.835	21.5
255.051	99.33
255.268	29.7
255.484	13.31
255.701	23.55
255.917	27.65
256.134	37.89
256.351	15.36
256.567	-15.36
256.784	29.7
257	1.02
257.217	37.89
257.433	91.13
257.65	-29.7
257.866	29.7
258.082	-44.03
258.299	13.31
258.515	89.09
258.732	21.5
258.948	60.42
259.165	17.41
259.381	-64.51
259.597	37.89
259.814	21.5
260.03	17.41
260.246	15.36
260.463	50.18
260.679	66.56
260.895	37.89
261.112	35.84
261.328	-41.98
261.544	-41.98
261.761	93.18
261.977	46.08
262.193	5.12
262.409	37.89
262.626	70.65
262.842	-35.84
263.058	-17.41
263.274	-56.32
263.49	41.98
263.707	44.03
263.923	46.08
264.139	-46.08
264.355	-7.17
264.571	46.08
264.787	-66.56
265.004	35.84
265.22	-3.07
265.436	29.7
265.652	80.89
265.868	54.27
266.084	-19.46
266.3	56.32
266.516	46.08
266.732	29.7
266.948	70.65
267.164	52.22
267.38	50.18
267.596	54.27
267.812	95.23
268.028	58.37
268.244	-29.7
268.46	-11.26
268.676	82.94
268.892	5.12
269.108	-17.41
269.324	1.02
269.54	5.12
269.756	66.56
269.972	-3.07
270.188	87.04
270.403	9.22
270.619	48.13
270.835	99.33
271.051	-44.03
271.267	5.12
271.483	-13.31
271.698	3.07
271.914	17.41
272.13	-1.02
272.346	5.12
272.562	74.75
272.777	-3.07
272.993	-1.02
273.209	5.12
273.425	56.32
273.64	-7.17
273.856	50.18
274.072	-35.84
274.287	37.89
274.503	46.08
274.719	44.03
274.934	39.94
275.15	-23.55
275.366	15.36
275.581	31.74
275.797	-50.18
276.012	13.31
276.228	13.31
276.444	-15.36
276.659	15.36
276.875	15.36
277.09	72.7
277.306	-11.26
277.521	17.41
277.737	78.85
277.952	37.89
278.168	54.27
278.383	80.89
278.599	60.42
278.814	41.98
279.03	31.74
279.245	99.33
279.461	62.46
279.676	23.55
279.892	-41.98
280.107	13.31
280.322	-3.07
280.538	60.42
280.753	29.7
280.969	78.85
281.184	13.31
281.399	39.94
281.615	-11.26
281.83	-13.31
282.045	70.65
282.26	41.98
282.476	-3.07
282.691	46.08
282.906	25.6
283.122	21.5
283.337	15.36
283.552	-15.36
283.767	37.89
283.983	56.32
284.198	-58.37
284.413	23.55
284.628	-5.12
284.843	21.5
285.058	64.51
285.274	39.94
285.489	-15.36
285.704	68.61
285.919	19.46
286.134	37.89
286.349	37.89
286.564	17.41
286.779	54.27
286.995	89.09
287.21	33.79
287.425	-7.17
287.64	-7.17
287.855	80.89
288.07	-25.6
288.285	82.94
288.5	17.41
288.715	-27.65
288.93	-21.5
289.145	-35.84
289.36	29.7
289.575	33.79
289.79	41.98
290.004	11.26
290.219	39.94
290.434	39.94
290.649	-41.98
290.864	-44.03
291.079	-3.07
291.294	76.8
291.509	-66.56
291.724	64.51
291.938	21.5
292.153	70.65
292.368	29.7
292.583	5.12
292.798	41.98
293.012	25.6
293.227	-25.6
293.442	54.27
293.657	-3.07
293.871	136.19
294.086	76.8
294.301	80.89
294.516	70.65
294.73	58.37
294.945	-1.02
295.16	-1.02
295.374	74.75
295.589	70.65
295.804	9.22
296.018	105.47
296.233	9.22
296.447	13.31
296.662	64.51
296.877	70.65
297.091	62.46
297.306	9.22
297.52	1.02
297.735	21.5
297.949	-21.5
298.164	62.46
298.378	5.12
298.593	-9.22
298.807	-44.03
299.022	23.55
299.236	103.42
299.451	54.27
299.665	-54.27
299.88	68.61
300.094	-27.65
300.309	-7.17
300.523	9.22
300.737	-1.02
300.952	138.24
301.166	-9.22
301.381	-31.74
301.595	31.74
301.809	48.13
302.024	23.55
302.238	7.17
302.452	52.22
302.667	89.09
302.881	46.08
303.095	33.79
303.309	46.08
303.524	5.12
303.738	64.51
303.952	-11.26
304.166	64.51
304.381	-11.26
304.595	103.42
304.809	21.5
305.023	62.46
305.237	-7.17
305.452	70.65
305.666	66.56
305.88	74.75
306.094	33.79
306.308	-3.07
306.522	58.37
306.736	87.04
306.95	70.65
307.164	9.22
307.379	-9.22
307.593	70.65
307.807	-23.55
308.021	70.65
308.235	-1.02
308.449	-7.17
308.663	7.17
308.877	132.09
309.091	23.55
309.305	64.51
309.519	-21.5
309.733	62.46
309.947	-17.41
310.161	105.47
310.374	46.08
310.588	7.17
310.802	-25.6
311.016	74.75
311.23	39.94
311.444	-13.31
311.658	-68.61
311.872	54.27
312.085	115.71
312.299	-3.07
312.513	54.27
312.727	62.46
312.941	-3.07
313.154	39.94
313.368	56.32
313.582	66.56
313.796	33.79
314.009	103.42
314.223	66.56
314.437	70.65
314.651	107.52
314.864	23.55
315.078	9.22
315.292	-1.02
315.505	15.36
315.719	95.23
315.933	72.7
316.146	21.5
316.36	-23.55
316.573	138.24
316.787	9.22
317.001	128
317.214	-56.32
317.428	-70.65
317.641	23.55
317.855	13.31
318.068	-5.12
318.282	37.89
318.495	95.23
318.709	60.42
318.922	37.89
319.136	31.74
319.349	62.46
319.563	29.7
319.776	-23.55
319.99	-56.32
320.203	95.23
320.417	128
320.63	27.65
320.843	99.33
321.057	39.94
321.27	80.89
321.483	35.84
321.697	62.46
321.91	66.56
322.124	62.46
322.337	37.89
322.55	119.81
322.763	-1.02
322.977	-11.26
323.19	-35.84
323.403	72.7
323.617	60.42
323.83	21.5
324.043	31.74
324.256	46.08
324.469	95.23
324.683	89.09
324.896	1.02
325.109	54.27
325.322	-50.18
325.535	66.56
325.748	62.46
325.962	-35.84
326.175	58.37
326.388	37.89
326.601	46.08
326.814	97.28
327.027	5.12
327.24	107.52
327.453	23.55
327.666	-5.12
327.879	52.22
328.092	89.09
328.305	48.13
328.518	54.27
328.731	-17.41
328.944	29.7
329.157	132.09
329.37	25.6
329.583	62.46
329.796	46.08
330.009	29.7
330.222	7.17
330.435	60.42
330.648	91.13
330.861	-15.36
331.073	17.41
331.286	-19.46
331.499	-1.02
331.712	-60.42
331.925	5.12
332.138	-68.61
332.35	132.09
332.563	-33.79
332.776	13.31
332.989	78.85
333.202	21.5
333.414	66.56
333.627	68.61
333.84	13.31
334.053	31.74
334.265	37.89
334.478	48.13
334.691	15.36
334.903	-9.22
335.116	13.31
335.329	62.46
335.541	37.89
335.754	5.12
335.966	-7.17
336.179	56.32
336.392	-33.79
336.604	66.56
336.817	78.85
337.029	56.32
337.242	13.31
337.454	74.75
337.667	13.31
337.88	37.89
338.092	58.37
338.305	37.89
338.517	21.5
338.729	46.08
338.942	37.89
339.154	-27.65
339.367	-1.02
339.579	3.07
339.792	62.46
340.004	62.46
340.217	72.7
340.429	87.04
340.641	-13.31
340.854	41.98
341.066	25.6
341.278	46.08
341.491	95.23
341.703	87.04
341.915	39.94
342.128	-1.02
342.34	70.65
342.552	50.18
342.764	11.26
342.977	-7.17
343.189	99.33
343.401	7.17
343.613	-68.61
343.826	29.7
344.038	-19.46
344.25	54.27
344.462	-15.36
344.674	-1.02
344.886	111.61
345.099	1.02
345.311	15.36
345.523	46.08
345.735	-44.03
345.947	46.08
346.159	-27.65
346.371	87.04
346.583	70.65
346.795	78.85
347.007	-27.65
347.219	87.04
347.431	-31.74
347.643	41.98
347.855	-31.74
348.067	72.7
348.279	-3.07
348.491	-3.07
348.703	-27.65
348.915	41.98
349.127	-17.41
349.339	-1.02
349.551	-17.41
349.763	46.08
349.975	44.03
350.187	62.46
350.399	62.46
350.61	41.98
350.822	97.28
351.034	87.04
351.246	119.81
351.458	105.47
351.669	66.56
351.881	80.89
352.093	119.81
352.305	173.05
352.517	39.94
352.728	70.65
352.94	39.94
353.152	21.5
353.363	46.08
353.575	33.79
353.787	132.09
353.999	1.02
354.21	29.7
354.422	29.7
354.633	-35.84
354.845	62.46
355.057	54.27
355.268	13.31
355.48	74.75
355.692	31.74
355.903	99.33
356.115	41.98
356.326	-11.26
356.538	-1.02
356.749	58.37
356.961	64.51
357.172	1.02
357.384	-27.65
357.595	152.57
357.807	70.65
358.018	5.12
358.23	87.04
358.441	117.76
358.653	74.75
358.864	72.7
359.075	11.26
359.287	74.75
359.498	78.85
359.709	54.27
359.921	21.5
360.132	46.08
360.344	5.12
360.555	9.22
360.766	80.89
360.977	54.27
361.189	105.47
361.4	-11.26
361.611	107.52
361.823	37.89
362.034	5.12
362.245	21.5
362.456	82.94
362.667	58.37
362.879	25.6
363.09	31.74
363.301	-3.07
363.512	9.22
363.723	21.5
363.935	39.94
364.146	115.71
364.357	13.31
364.568	29.7
364.779	-17.41
364.99	95.23
365.201	19.46
365.412	3.07
365.623	33.79
365.834	95.23
366.045	1.02
366.256	91.13
366.467	117.76
366.678	41.98
366.889	60.42
367.1	72.7
367.311	89.09
367.522	82.94
367.733	46.08
367.944	52.22
368.155	52.22
368.366	119.81
368.577	76.8
368.788	70.65
368.999	-27.65
369.209	54.27
369.42	64.51
369.631	89.09
369.842	13.31
370.053	103.42
370.264	87.04
370.474	5.12
370.685	31.74
370.896	72.7
371.107	66.56
371.317	13.31
371.528	3.07
371.739	72.7
371.95	95.23
372.16	74.75
372.371	29.7
372.582	64.51
372.792	21.5
373.003	113.66
373.214	70.65
373.424	80.89
373.635	-68.61
373.846	37.89
374.056	60.42
374.267	107.52
374.477	78.85
374.688	70.65
374.898	62.46
375.109	70.65
375.319	72.7
375.53	66.56
375.74	62.46
375.951	23.55
376.161	136.19
376.372	46.08
376.582	23.55
376.793	54.27
377.003	17.41
377.214	13.31
377.424	62.46
377.635	33.79
377.845	74.75
378.055	39.94
378.266	56.32
378.476	-7.17
378.686	7.17
378.897	17.41
379.107	72.7
379.317	9.22
379.528	46.08
379.738	41.98
379.948	-35.84
380.158	76.8
380.369	-9.22
380.579	-31.74
380.789	80.89
380.999	87.04
381.21	121.85
381.42	64.51
381.63	33.79
381.84	123.9
382.05	15.36
382.261	111.61
382.471	-19.46
382.681	48.13
382.891	25.6
383.101	-9.22
383.311	29.7
383.521	31.74
383.731	117.76
383.941	132.09
384.151	78.85
384.361	37.89
384.571	-19.46
384.781	72.7
384.991	128
385.201	72.7
385.411	50.18
385.621	64.51
385.831	58.37
386.041	46.08
386.251	17.41
386.461	87.04
386.671	7.17
386.881	29.7
387.091	15.36
387.301	115.71
387.511	97.28
387.72	62.46
387.93	119.81
388.14	33.79
388.35	-58.37
388.56	87.04
388.769	72.7
388.979	46.08
389.189	5.12
389.399	5.12
389.609	54.27
389.818	37.89
390.028	70.65
390.238	37.89
390.447	80.89
390.657	37.89
390.867	130.05
391.076	70.65
391.286	119.81
391.496	66.56
391.705	99.33
391.915	80.89
392.125	130.05
392.334	15.36
392.544	138.24
392.753	101.37
392.963	-9.22
393.172	72.7
393.382	15.36
393.591	154.62
393.801	37.89
394.01	111.61
394.22	87.04
394.429	82.94
394.639	48.13
394.848	154.62
395.058	95.23
395.267	103.42
395.477	64.51
395.686	130.05
395.895	136.19
396.105	189.44
396.314	181.25
396.524	115.71
396.733	54.27
396.942	72.7
397.152	72.7
397.361	31.74
397.57	132.09
397.78	125.95
397.989	193.53
398.198	189.44
398.407	87.04
398.617	107.52
398.826	78.85
399.035	70.65
399.244	35.84
399.453	76.8
399.663	95.23
399.872	93.18
400.081	72.7
400.29	60.42
400.499	64.51
400.708	177.15
400.917	74.75
401.127	95.23
401.336	72.7
401.545	205.82
401.754	111.61
401.963	76.8
402.172	214.01
402.381	128
402.59	74.75
402.799	128
403.008	150.53
403.217	74.75
403.426	160.77
403.635	44.03
403.844	130.05
404.053	152.57
404.262	183.29
404.471	187.39
404.68	140.29
404.888	146.43
405.097	152.57
405.306	177.15
405.515	130.05
405.724	164.86
405.933	203.77
406.142	185.34
406.35	250.88
406.559	242.68
406.768	177.15
406.977	259.07
407.185	195.58
407.394	207.87
407.603	209.92
407.812	226.3
408.02	316.41
408.229	314.36
408.438	261.12
408.646	267.26
408.855	283.64
409.064	330.75
409.272	238.59
409.481	371.71
409.69	271.36
409.898	261.12
410.107	349.18
410.315	398.33
410.524	365.56
410.733	476.15
410.941	422.91
411.15	463.86
411.358	451.58
411.567	488.44
411.775	474.1
411.984	488.44
412.192	535.54
412.401	539.64
412.609	572.41
412.818	551.93
413.026	603.13
413.234	586.74
413.443	607.22
413.651	656.37
413.86	734.2
414.068	619.51
414.276	842.74
414.485	717.81
414.693	803.83
414.901	857.07
415.11	922.61
415.318	883.7
415.526	879.6
415.734	1045.49
415.943	924.66
416.151	1094.64
416.359	930.8
416.567	990.19
416.776	1139.69
416.984	1143.79
417.192	1151.98
417.4	1270.76
417.608	1192.94
417.817	1225.71
418.025	1254.38
418.233	1465.32
418.441	1403.88
418.649	1440.75
418.857	1520.62
419.065	1557.48
419.273	1604.58
419.481	1618.92
419.689	1661.93
419.897	1922.02
420.105	1891.3
420.313	1864.68
420.521	1948.64
420.729	1958.88
420.937	1999.84
421.145	2077.66
421.353	2227.17
421.561	2331.61
421.769	2380.76
421.977	2462.68
422.185	2522.07
422.393	2554.84
422.601	2724.82
422.809	2733.01
423.017	2837.46
423.224	2933.72
423.432	3101.65
423.64	3044.31
423.848	3288.01
424.056	3220.43
424.263	3556.3
424.471	3445.71
424.679	3562.44
424.887	3773.38
425.094	3906.5
425.302	3935.17
425.51	3990.47
425.718	4127.68
425.925	4162.5
426.133	4305.85
426.341	4570.04
426.548	4813.75
426.756	4856.76
426.964	4813.75
427.171	5071.79
427.379	5157.81
427.586	5313.45
427.794	5591.98
428.001	5745.58
428.209	5944.23
428.417	6003.62
428.624	6220.71
428.832	6210.47
429.039	6364.06
429.247	6167.46
429.454	6847.38
429.662	7207.83
429.869	6884.25
430.076	7422.86
430.284	6955.93
430.491	7461.77
430.699	7895.94
430.906	7877.51
431.114	7750.54
431.321	8240
431.528	8481.66
431.736	8805.24
431.943	9491.31
432.15	9130.87
432.358	9061.24
432.565	9853.8
432.772	9692.01
432.979	10136.42
433.187	10193.76
433.394	10165.09
433.601	11082.58
433.808	11144.02
434.016	10695.52
434.223	11467.6
434.43	12018.5
434.637	12034.89
434.844	12632.9
435.052	12856.12
435.259	12776.25
435.466	12739.39
435.673	12772.16
435.88	13374.26
436.087	14197.54
436.294	14359.33
436.501	13783.85
436.708	14025.51
436.915	14605.09
437.122	15239.96
437.329	15223.58
437.537	15729.42
437.743	16003.85
437.95	15991.56
438.157	16683.78
438.364	17234.68
438.571	17253.11
438.778	17169.15
438.985	18959.07
439.192	18023.15
439.399	18940.64
439.606	18328.3
439.813	19624.66
440.02	20470.47
440.227	20011.73
440.433	19669.72
440.64	20888.26
440.847	20497.1
441.054	21205.69
441.261	22618.79
441.467	22164.14
441.674	22346.41
441.881	23163.55
442.088	23208.61
442.294	22987.43
442.501	23546.52
442.708	24267.41
442.914	25205.38
443.121	26186.35
443.328	25100.93
443.534	27146.85
443.741	26284.65
443.948	26047.09
444.154	27728.47
444.361	27507.29
444.568	27744.86
444.774	28058.2
444.981	28328.53
445.187	28629.58
445.394	30261.81
445.6	30149.17
445.807	33233.41
446.013	31134.24
446.22	31519.26
446.426	32840.2
446.633	33315.33
446.839	34185.72
447.046	33186.31
447.252	34992.62
447.459	35031.53
447.665	34773.49
447.871	36125.14
448.078	37310.92
448.284	36430.29
448.491	37140.94
448.697	38121.91
448.903	39180.71
449.11	39078.32
449.316	38660.53
449.522	39264.68
449.728	40225.18
449.935	40333.72
450.141	40638.87
450.347	41693.57
450.553	40034.72
450.76	40763.79
450.966	42015.1
451.172	41587.08
451.378	42529.14
451.584	41656.71
451.791	42953.07
451.997	42359.16
452.203	43319.66
452.409	43559.27
452.615	43391.34
452.821	41472.39
453.027	40995.21
453.233	43022.7
453.44	41556.36
453.646	41910.66
453.852	41867.65
454.058	42932.59
454.264	41382.28
454.47	42461.56
454.676	41161.1
454.882	42561.91
455.088	38871.47
455.294	39829.92
455.5	39983.52
455.705	40352.15
455.911	38961.58
456.117	38318.52
456.323	37964.22
456.529	35764.7
456.735	36989.39
456.941	36006.36
457.147	35733.98
457.352	34544.11
457.558	33958.39
457.764	34714.09
457.97	33657.34
458.176	33188.36
458.381	32776.72
458.587	31515.17
458.793	31201.83
458.999	29770.3
459.204	31754.78
459.41	31117.86
459.616	28611.15
459.821	29065.8
460.027	28912.2
460.233	28176.98
460.438	27056.74
460.644	27226.72
460.85	25774.71
461.055	25612.92
461.261	25164.42
461.466	23530.14
461.672	22454.95
461.878	24171.15
462.083	23061.15
462.289	22358.7
462.494	22076.08
462.7	21041.85
462.905	20742.85
463.111	21224.12
463.316	21375.67
463.522	20746.95
463.727	20902.59
463.932	21033.66
464.138	20249.29
464.343	20703.94
464.549	20034.25
464.754	20818.63
464.959	20542.15
465.165	20329.16
465.37	19317.47
465.575	18756.32
465.781	19729.11
465.986	19694.29
466.191	19161.82
466.397	18748.13
466.602	17957.61
466.807	18170.6
467.012	18572
467.218	18340.58
467.423	17992.43
467.628	18268.91
467.833	18930.4
468.038	18019.05
468.244	17650.42
468.449	18078.44
468.654	17945.33
468.859	17709.81
469.064	17492.73
469.269	17044.22
469.474	17150.71
469.679	17208.06
469.885	16855.81
470.09	16982.78
470.295	16823.04
470.5	16413.45
470.705	16501.51
470.91	16077.58
471.115	16360.2
471.32	16358.15
471.525	16225.03
471.73	15858.45
471.935	15670.03
472.139	15155.99
472.344	15399.7
472.549	15244.06
472.754	15289.11
472.959	15039.26
473.164	14435.11
473.369	14234.41
473.574	14746.4
473.778	14807.84
473.983	14459.68
474.188	14261.03
474.393	13970.22
474.598	14011.18
474.802	13626.16
475.007	13775.66
475.212	13732.65
475.417	13110.07
475.621	13177.65
475.826	13173.56
476.031	13050.68
476.235	12360.52
476.44	12866.36
476.645	12573.5
476.849	12608.32
477.054	12538.69
477.259	12206.92
477.463	12157.77
477.668	12004.17
477.872	12182.34
478.077	12137.29
478.282	11688.78
478.486	11684.69
478.691	11451.22
478.895	11471.7
479.1	11361.11
479.304	11637.58
479.509	11187.03
479.713	11225.94
479.918	10894.17
480.122	10845.02
480.326	10955.61
480.531	11010.9
480.735	11105.11
480.94	10912.6
481.144	11180.89
481.348	10441.57
481.553	10885.98
481.757	10531.68
481.961	10675.04
482.166	10820.44
482.37	10699.61
482.574	10640.22
482.778	10548.06
482.983	10918.75
483.187	10615.65
483.391	10658.65
483.595	10621.79
483.8	10388.32
484.004	10638.17
484.208	10707.8
484.412	10406.75
484.616	10500.96
484.821	10425.18
485.025	10488.67
485.229	10564.45
485.433	10490.72
485.637	10640.22
485.841	10386.27
486.045	10548.06
486.249	10519.39
486.453	10349.41
486.657	10632.03
486.861	10445.66
487.065	10275.68
487.269	10523.49
487.473	10126.18
487.677	10474.34
487.881	10482.53
488.085	10484.58
488.289	10576.73
488.493	10490.72
488.697	10503.01
488.901	10662.75
489.105	10531.68
489.309	10654.56
489.512	10486.62
489.716	10402.66
489.92	10658.65
490.124	10597.21
490.328	10675.04
490.531	10779.48
490.735	10797.92
490.939	10896.22
491.143	10734.43
491.346	10703.71
491.55	10670.94
491.754	10857.31
491.958	10826.59
492.161	10912.6
492.365	10777.44
492.569	11019.1
492.772	10926.94
492.976	11131.73
493.18	10937.18
493.383	10974.04
493.587	11350.87
493.79	11504.46
493.994	11154.26
494.197	11295.57
494.401	11320.15
494.605	11436.88
494.808	11627.34
495.012	11653.97
495.215	11406.16
495.419	11760.46
495.622	11858.76
495.825	11940.68
496.029	11801.42
496.232	12170.05
496.436	12079.94
496.639	12233.54
496.843	12333.89
497.046	12430.15
497.249	12776.25
497.453	12821.31
497.656	12995.39
497.859	12819.26
498.063	13077.3
498.266	13329.2
498.469	13130.55
498.673	13179.7
498.876	13273.91
499.079	13650.74
499.282	13792.05
499.485	13912.88
499.689	13855.53
499.892	14140.2
500.095	14117.67
500.298	14351.14
500.501	14351.14
500.705	14535.46
500.908	14775.07
501.111	14807.84
501.314	15045.4
501.517	15483.67
501.72	15502.1
501.923	15295.25
502.126	15825.68
502.329	16010
502.532	15971.08
502.735	15915.79
502.938	16276.23
503.141	16507.65
503.344	16956.16
503.547	17015.55
503.75	17003.26
503.953	17437.43
504.156	17369.85
504.359	17670.9
504.562	17691.38
504.765	17996.53
504.968	18098.92
505.17	18379.5
505.373	18375.4
505.576	18750.18
505.779	18586.34
505.982	19004.13
506.185	19499.73
506.387	19067.61
506.59	19780.31
506.793	19866.32
506.996	19772.11
507.198	20232.91
507.401	20079.31
507.604	20239.05
507.807	20765.38
508.009	20978.37
508.212	20937.41
508.415	21224.12
508.617	21699.25
508.82	21547.7
509.022	21746.36
509.225	22166.19
509.428	22196.91
509.63	22567.59
509.833	22622.89
510.035	23184.03
510.238	23159.45
510.44	23472.79
510.643	23691.93
510.845	23788.18
511.048	23528.09
511.25	24076.94
511.453	24134.29
511.655	24961.67
511.858	24668.81
512.06	24785.54
512.262	25254.53
512.465	25254.53
512.667	25631.35
512.87	25911.92
513.072	25997.94
513.274	26616.43
513.477	26542.7
513.679	26706.54
513.881	27370.08
514.084	27193.95
514.286	27640.41
514.488	27859.54
514.69	28072.53
514.893	28086.87
515.095	28224.08
515.297	28441.17
515.499	28789.32
515.701	28985.93
515.904	29577.79
516.106	29403.71
516.308	29864.5
516.51	30104.12
516.712	30528.05
516.914	30437.94
517.116	30935.59
517.318	30872.1
517.52	31117.86
517.722	31222.31
517.925	31803.93
518.127	31949.34
518.329	32350.74
518.531	31863.32
518.733	32756.24
518.935	33208.84
519.136	32909.83
519.338	33583.62
519.54	33278.47
519.742	33630.72
519.944	33714.69
520.146	34146.81
520.348	34259.45
520.55	34472.43
520.752	34609.65
520.954	34988.52
521.155	34707.95
521.357	35240.42
521.559	35551.71
521.761	35957.21
521.963	35887.58
522.164	36264.41
522.366	36334.04
522.568	36610.51
522.77	36219.35
522.971	37071.31
523.173	36571.6
523.375	36948.43
523.576	37095.88
523.778	36930
523.98	37312.97
524.181	38013.37
524.383	37769.66
524.584	37710.27
524.786	37802.43
524.988	37609.92
525.189	38400.44
525.391	38461.88
525.592	38173.11
525.794	38601.14
525.995	38578.61
526.197	38691.25
526.398	38855.09
526.6	38685.11
526.801	38693.3
527.003	38840.75
527.204	39281.06
527.406	38953.39
527.607	39356.84
527.808	39008.68
528.01	38554.04
528.211	39039.4
528.412	39905.7
528.614	38986.16
528.815	39496.1
529.016	39506.34
529.218	39412.13
529.419	39535.01
529.62	39637.41
529.822	39143.85
530.023	39539.11
530.224	39575.97
530.425	39322.02
530.626	38859.18
530.828	38898.09
531.029	39727.52
531.23	39217.58
531.431	39362.98
531.632	39418.28
531.833	39264.68
532.035	38922.67
532.236	39510.44
532.437	39522.72
532.638	39098.8
532.839	39276.97
533.04	39596.45
533.241	38740.4
533.442	39780.77
533.643	39055.79
533.844	38934.96
534.045	39203.24
534.246	38814.13
534.447	39371.18
534.648	38887.85
534.849	39604.64
535.05	39010.73
535.251	39291.3
535.451	38638
535.652	39334.31
535.853	39160.23
536.054	39104.94
536.255	38861.23
536.456	38625.71
536.657	39047.6
536.857	38488.5
537.058	38355.38
537.259	39014.83
537.46	38775.22
537.66	38359.48
537.861	38631.86
538.062	38494.64
538.263	38572.47
538.463	38705.59
538.664	38396.34
538.865	38445.49
539.065	38625.71
539.266	38205.88
539.466	38617.52
539.667	37865.92
539.868	38355.38
540.068	38371.77
540.269	38040
540.469	38566.32
540.67	38068.67
540.87	38300.09
541.071	38339
541.271	38429.11
541.472	38037.95
541.672	38300.09
541.873	37898.69
542.073	37726.66
542.274	37966.27
542.474	38040
542.675	37659.07
542.875	37839.29
543.075	38218.17
543.276	37816.77
543.476	38238.65
543.676	37978.56
543.877	38080.95
544.077	37765.57
544.277	37581.25
544.478	37798.34
544.678	37906.88
544.878	38050.24
545.078	37976.51
545.279	38001.08
545.479	37769.66
545.679	38072.76
545.879	38201.79
546.079	37751.23
546.28	37478.85
546.48	37360.07
546.68	37904.83
546.88	37872.06
547.08	37511.62
547.28	37777.86
547.48	37222.86
547.68	37857.73
547.88	37460.42
548.081	38097.34
548.281	37646.79
548.481	37646.79
548.681	37841.34
548.881	37808.58
549.081	37556.67
549.28	37724.61
549.48	37898.69
549.68	37765.57
549.88	38345.14
550.08	37824.96
550.28	37939.65
550.48	37579.2
550.68	37781.95
550.88	37548.48
551.08	38113.72
551.279	37859.77
551.479	37433.8
551.679	38074.81
551.879	38156.73
552.079	38011.32
552.278	37509.57
552.478	37714.37
552.678	37603.78
552.878	37755.33
553.077	37814.72
553.277	37491.14
553.477	38103.48
553.676	38078.91
553.876	38064.57
554.076	37888.45
554.275	37652.93
554.475	37392.84
554.674	37640.64
554.874	37833.15
555.074	37788.1
555.273	38033.85
555.473	38160.83
555.672	37544.39
555.872	37740.99
556.071	38164.92
556.271	38033.85
556.47	37765.57
556.67	37341.64
556.869	38062.52
557.068	38025.66
557.268	37589.44
557.467	37900.73
557.667	37923.26
557.866	37822.91
558.065	37702.08
558.265	37720.51
558.464	37708.22
558.663	38195.64
558.863	37386.69
559.062	38080.95
559.261	37857.73
559.461	38402.49
559.66	37765.57
559.859	37945.79
560.058	37835.2
560.258	37689.79
560.457	37644.74
560.656	37956.03
560.855	37900.73
561.054	38005.18
561.253	37894.59
561.453	38097.34
561.652	38171.07
561.851	38017.47
562.05	37945.79
562.249	37646.79
562.448	37812.67
562.647	37786.05
562.846	37882.3
563.045	37409.22
563.244	37290.44
563.443	38015.42
563.642	37571.01
563.841	37671.36
564.04	37501.38
564.239	37609.92
564.438	37155.27
564.637	37638.59
564.836	37628.35
565.035	37591.49
565.234	37509.57
565.432	37376.45
565.631	37118.41
565.83	37185.99
566.029	37233.1
566.228	37013.96
566.427	37065.16
566.625	37202.38
566.824	36569.55
567.023	37030.35
567.222	36569.55
567.42	37089.74
567.619	37040.59
567.818	36946.38
568.016	36661.71
568.215	36823.5
568.414	37046.73
568.612	37181.9
568.811	36432.34
569.01	36921.8
569.208	36059.61
569.407	36620.75
569.605	35977.69
569.804	36559.31
570.002	35961.31
570.201	36280.79
570.4	35850.72
570.598	35811.81
570.797	35897.82
570.995	35848.67
571.193	35621.34
571.392	35922.4
571.59	35400.16
571.789	35938.78
571.987	35443.17
572.186	35267.05
572.384	34910.7
572.582	35250.66
572.781	34968.04
572.979	34994.67
573.177	35123.69
573.376	34972.14
573.574	34396.66
573.772	35174.89
573.971	34716.14
574.169	34587.12
574.367	34327.03
574.565	34501.11
574.763	34621.94
574.962	33903.1
575.16	33837.56
575.358	34136.57
575.556	33511.94
575.754	34574.83
575.952	33731.07
576.151	34247.16
576.349	33413.63
576.547	33425.92
576.745	33698.3
576.943	33442.31
577.141	33303.04
577.339	33565.18
577.537	33364.48
577.735	33423.87
577.933	32881.16
578.131	33114.63
578.329	33014.28
578.527	32590.35
578.725	32973.32
578.923	32915.98
579.121	32791.05
579.319	32762.38
579.516	32811.53
579.714	32793.1
579.912	32672.27
580.11	32350.74
580.308	32418.32
580.506	32178.71
580.704	31509.02
580.901	32213.52
581.099	32043.54
581.297	31785.5
581.495	31808.03
581.692	32041.5
581.89	31210.02
582.088	31701.53
582.285	31502.88
582.483	31580.7
582.681	31371.81
582.878	31140.39
583.076	30992.94
583.274	31259.17
583.471	30900.78
583.669	31136.29
583.866	30972.46
584.064	31130.15
584.262	30706.22
584.459	30882.34
584.657	30550.57
584.854	30868.01
585.052	30122.55
585.249	30663.21
585.447	30149.17
585.644	30026.29
585.841	30239.28
586.039	30356.02
586.236	30018.1
586.434	29923.9
586.631	29794.87
586.828	30003.77
587.026	30110.26
587.223	29628.99
587.42	29706.81
587.618	29758.01
587.815	29329.98
588.012	29153.86
588.21	29207.11
588.407	29542.97
588.604	29598.27
588.801	29108.8
588.999	29157.96
589.196	29200.96
589.393	29098.56
589.59	29332.03
589.787	29278.79
589.984	28799.56
590.182	28940.87
590.379	29086.28
590.576	28684.87
590.773	28942.92
590.97	28699.21
591.167	28783.18
591.364	28015.19
591.561	28686.92
591.758	27998.8
591.955	28295.76
592.152	28625.48
592.349	27611.74
592.546	28265.04
592.743	28029.52
592.94	27685.47
593.137	27923.03
593.334	28189.27
593.531	27920.98
593.727	27929.17
593.924	27886.17
594.121	27601.5
594.318	27791.96
594.515	27525.72
594.712	27753.05
594.908	27517.53
595.105	27478.62
595.302	27327.07
595.499	27726.42
595.696	27228.77
595.892	27046.5
596.089	27492.96
596.286	27062.88
596.482	27259.49
596.679	27077.22
596.876	27368.03
597.072	27140.71
597.269	27214.43
597.466	26995.3
597.662	27091.55
597.859	26964.58
598.055	27144.8
598.252	26671.72
598.448	26839.65
598.645	26915.43
598.841	26616.43
599.038	26919.53
599.234	26903.14
599.431	26671.72
599.627	26962.53
599.824	26813.03
600.02	26636.91
600.217	26483.31
600.413	26862.18
600.609	26712.68
600.806	26835.56
601.002	26841.7
601.198	26804.84
601.395	26362.48
601.591	26681.96
601.787	26583.66
601.984	26536.56
602.18	26915.43
602.376	26706.54
602.572	26618.47
602.769	26589.8
602.965	26178.16
603.161	26595.95
603.357	26382.96
603.553	26391.15
603.75	26172.02
603.946	26593.9
604.142	26411.63
604.338	26178.16
604.534	26581.61
604.73	26178.16
604.926	26055.28
605.122	26569.32
605.318	26348.14
605.514	26253.94
605.71	26581.61
605.906	26493.55
606.102	26620.52
606.298	26796.65
606.494	26475.12
606.69	26546.79
606.886	26868.33
607.082	26497.64
607.278	26628.71
607.474	26428.01
607.67	26679.91
607.866	26403.44
608.062	26946.15
608.257	26765.93
608.453	26542.7
608.649	26569.32
608.845	26604.14
609.041	26749.54
609.236	26978.92
609.432	27220.58
609.628	26921.57
609.824	26806.89
610.019	27198.05
610.215	26985.06
610.411	27277.92
610.606	26788.46
610.802	26980.96
610.998	27161.19
611.193	27200.1
611.389	26980.96
611.584	27208.29
611.78	26831.46
611.976	27218.53
612.171	27191.91
612.367	27294.3
612.562	26972.77
612.758	26886.76
612.953	26999.4
613.149	27347.55
613.344	26876.52
613.539	27230.82
613.735	27032.16
613.93	27290.21
614.126	27040.36
614.321	27400.8
614.517	27249.25
614.712	26925.67
614.907	27234.91
615.103	27310.69
615.298	27212.38
615.493	27458.14
615.688	26923.62
615.884	27867.73
616.079	26878.57
616.274	27142.75
616.47	27322.98
616.665	27482.72
616.86	27038.31
617.055	26894.95
617.25	27232.86
617.445	27273.82
617.641	26649.19
617.836	27171.43
618.031	26636.91
618.226	27318.88
618.421	27003.49
618.616	27011.68
618.811	26864.23
619.006	27196
619.201	26440.3
619.396	26628.71
619.591	26614.38
619.786	26485.36
619.981	26262.13
620.176	26557.03
620.371	26135.15
620.566	26405.49
620.761	26006.13
620.956	26430.06
621.151	25717.37
621.346	26141.3
621.541	25291.39
621.735	25983.6
621.93	25610.87
622.125	25789.05
622.32	25229.95
622.515	25543.29
622.709	25334.4
622.904	25352.83
623.099	25197.18
623.294	25004.67
623.488	24535.69
623.683	24988.29
623.878	24347.28
624.072	24646.28
624.267	24466.06
624.462	24384.14
624.656	24240.78
624.851	24273.55
625.046	24050.32
625.24	24074.9
625.435	23480.99
625.629	23681.69
625.824	23788.18
626.018	23583.38
626.213	22893.22
626.407	23468.7
626.602	23050.91
626.796	23014.05
626.991	22780.58
627.185	22735.53
627.38	22954.66
627.574	22538.92
627.768	22483.62
627.963	22274.73
628.157	22313.64
628.352	22237.87
628.546	21926.58
628.74	22487.72
628.935	21848.75
629.129	21772.98
629.323	21799.6
629.517	21699.25
629.712	21465.78
629.906	21555.9
630.1	20894.4
630.294	21308.09
630.489	21199.55
630.683	21002.94
630.877	20705.99
631.071	20642.5
631.265	20759.24
631.459	20499.14
631.653	20488.9
631.848	20298.44
632.042	20173.52
632.236	20177.61
632.43	20179.66
632.624	19894.99
632.818	19888.85
633.012	19831.51
633.206	19575.51
633.4	19759.83
633.594	19714.77
633.788	19434.2
633.982	19393.24
634.176	19374.81
634.369	19399.38
634.563	18866.91
634.757	19149.53
634.951	19075.8
635.145	18934.5
635.339	18705.12
635.533	18590.44
635.726	18864.86
635.92	18305.77
636.114	18590.44
636.308	18244.33
636.501	18172.65
636.695	18088.68
636.889	17980.14
637.083	17777.39
637.276	17801.97
637.47	17351.42
637.664	17459.96
637.857	17621.75
638.051	17560.31
638.244	17240.82
638.438	17363.7
638.632	17214.2
638.825	16962.3
639.019	16927.49
639.212	16716.54
639.406	16497.41
639.599	16909.05
639.793	16489.22
639.986	16483.08
640.18	16599.81
640.373	16306.95
640.567	16134.92
640.76	16110.35
640.954	16005.9
641.147	15790.86
641.34	15670.03
641.534	15670.03
641.727	15608.59
641.92	15729.42
642.114	15235.86
642.307	15455
642.5	15276.82
642.694	14947.1
642.887	15053.59
643.08	15053.59
643.273	14965.53
643.467	15022.87
643.66	14773.02
643.853	14574.37
644.046	14476.07
644.239	14613.28
644.432	14541.6
644.626	14281.51
644.819	14127.91
645.012	14252.84
645.205	14258.98
645.398	14101.29
645.591	13794.09
645.784	13814.57
645.977	13681.46
646.17	13628.21
646.363	13640.5
646.556	13493.04
646.749	13443.89
646.942	13288.25
647.135	13042.49
647.328	13062.97
647.521	12983.1
647.714	12948.28
647.907	13128.5
648.099	12778.3
648.292	12968.76
648.485	12686.14
648.678	12616.51
648.871	12663.61
649.064	12751.68
649.256	12553.02
649.449	12299.08
649.642	12299.08
649.835	12180.29
650.027	12286.79
650.22	11916.11
650.413	12024.65
650.605	12026.7
650.798	11719.5
650.991	12008.26
651.183	11756.36
651.376	11793.23
651.568	11817.8
651.761	11572.05
651.954	11619.15
652.146	11543.38
652.339	11297.62
652.531	11287.38
652.724	11260.76
652.916	11217.75
653.109	11139.93
653.301	11369.3
653.494	11318.1
653.686	10851.16
653.879	10998.62
654.071	11158.36
654.263	10793.82
654.456	10574.69
654.648	10726.24
654.84	10681.18
655.033	10681.18
655.225	10640.22
655.417	10484.58
655.61	10705.76
655.802	10507.1
655.994	10335.07
656.186	10285.92
656.379	10173.28
656.571	10134.37
656.763	9948.01
656.955	10128.23
657.148	9892.71
657.34	10128.23
657.532	9919.34
657.724	9710.44
657.916	9665.39
658.108	9786.22
658.3	9698.16
658.492	9511.79
658.684	9442.16
658.876	9687.92
659.068	9444.21
659.26	9517.93
659.452	9493.36
659.644	9450.35
659.836	9081.72
660.028	9294.71
660.22	9067.38
660.412	9261.94
660.604	8864.63
660.796	9106.29
660.988	8926.07
661.18	8962.94
661.372	8868.73
661.563	8926.07
661.755	8735.61
661.947	8661.88
662.139	8635.26
662.331	8622.97
662.522	8418.18
662.714	8622.97
662.906	8422.27
663.097	8403.84
663.289	8414.08
663.481	8344.45
663.673	8287.11
663.864	8237.95
664.056	8082.31
664.247	8131.46
664.439	8076.16
664.631	8092.55
664.822	8070.02
665.014	8039.3
665.205	7975.81
665.397	7875.46
665.588	7947.14
665.78	7668.62
665.971	7895.94
666.163	7621.52
666.354	7666.57
666.546	7656.33
666.737	7590.8
666.929	7490.45
667.12	7512.97
667.311	7508.88
667.503	7160.72
667.694	7402.38
667.885	7218.07
668.077	7222.16
668.268	7238.55
668.459	7134.1
668.651	7166.87
668.842	7160.72
669.033	7023.51
669.224	7164.82
669.416	7291.79
669.607	7195.54
669.798	7199.63
669.989	7087
670.18	7033.75
670.371	6996.89
670.563	6947.73
670.754	6953.88
670.945	6820.76
671.136	6810.52
671.327	6714.27
671.518	6874.01
671.709	6724.51
671.9	6777.75
672.091	6699.93
672.282	6544.28
672.473	6701.98
672.664	6671.26
672.855	6728.6
673.046	6669.21
673.237	6525.85
673.428	6552.48
673.619	6583.2
673.809	6417.31
674	6585.24
674.191	6431.65
674.382	6450.08
674.573	6374.3
674.764	6427.55
674.954	6392.73
675.145	6427.55
675.336	6192.03
675.527	6288.29
675.717	6228.9
675.908	6198.18
676.099	6192.03
676.289	6200.23
676.48	6149.03
676.671	6175.65
676.861	6054.82
677.052	6079.4
677.243	6048.68
677.433	6038.44
677.624	5952.42
677.814	6081.44
678.005	6026.15
678.195	6020
678.386	6048.68
678.576	6011.81
678.767	5946.28
678.957	5936.04
679.148	6046.63
679.338	5993.38
679.529	5962.66
679.719	5944.23
679.909	6116.26
680.1	5874.6
680.29	5657.51
680.481	5747.62
680.671	5884.84
680.861	5800.87
681.052	5727.14
681.242	5804.97
681.432	5706.66
681.622	5704.62
681.813	5700.52
682.003	5772.2
682.193	5755.82
682.383	5692.33
682.573	5766.06
682.764	5800.87
682.954	5583.79
683.144	5723.05
683.334	5657.51
683.524	5698.47
683.714	5776.3
683.904	5594.03
684.094	5680.04
684.284	5469.1
684.474	5698.47
684.664	5755.82
684.854	5632.94
685.044	5411.76
685.234	5467.05
685.424	5559.21
685.614	5438.38
685.804	5518.25
685.994	5561.26
686.184	5634.99
686.374	5436.33
686.564	5372.85
686.753	5292.98
686.943	5254.06
687.133	5422
687.323	5301.17
687.513	5409.71
687.702	5368.75
687.892	5305.26
688.082	5307.31
688.272	5411.76
688.461	5389.23
688.651	5229.49
688.841	5364.65
689.03	5192.62
689.22	5168.05
689.41	5241.78
689.599	5161.91
689.789	5063.6
689.979	5143.47
690.168	5030.84
690.358	5043.12
690.547	4926.39
690.737	5067.7
690.926	5108.66
691.116	5073.84
691.305	5047.22
691.495	5127.09
691.684	5116.85
691.874	5090.23
692.063	4965.3
692.252	5006.26
692.442	5030.84
692.631	4854.71
692.82	4895.67
693.01	4977.59
693.199	4699.06
693.388	4750.26
693.578	4838.33
693.767	4756.41
693.956	4668.34
694.146	4805.56
694.335	4744.12
694.524	4701.11
694.713	4832.18
694.902	4758.46
695.092	4852.66
695.281	4682.68
695.47	4817.85
695.659	4787.13
695.848	4735.93
696.037	4690.87
696.226	4690.87
696.415	4701.11
696.604	4656.06
696.793	4643.77
696.982	4592.57
697.171	4748.22
697.36	4576.19
697.549	4551.61
697.738	4670.39
697.927	4535.23
698.116	4625.34
698.305	4608.95
698.494	4459.45
698.683	4494.27
698.872	4617.15
699.061	4371.39
699.25	4328.38
699.438	4453.31
699.627	4299.71
699.816	4299.71
700.005	4592.57
700.193	4438.97
700.382	4453.31
700.571	4355.01
700.76	4316.09
700.948	4359.1
701.137	4307.9
701.326	4283.33
701.514	4277.18
701.703	4338.62
701.892	4215.74
702.08	4299.71
702.269	4203.46
702.457	4299.71
702.646	4101.06
702.834	4129.73
703.023	4127.68
703.212	4164.54
703.4	4199.36
703.589	4225.98
703.777	4125.63
703.965	4158.4
704.154	4062.15
704.342	4062.15
704.531	4072.39
704.719	4135.87
704.907	4084.67
705.096	3967.94
705.284	4021.19
705.472	4017.09
705.661	3896.26
705.849	3937.22
706.037	3959.75
706.226	4070.34
706.414	3957.7
706.602	4096.96
706.79	4060.1
706.979	3918.79
707.167	4101.06
707.355	3929.03
707.543	3908.55
707.731	4035.52
707.919	3750.85
708.107	3912.64
708.296	3818.44
708.484	3814.34
708.672	3881.92
708.86	3849.16
709.048	3611.59
709.236	3924.93
709.424	3945.41
709.612	3771.33
709.8	3771.33
709.988	3754.95
710.176	3720.14
710.364	3662.79
710.551	3668.94
710.739	3640.26
710.927	3640.26
711.115	3609.54
711.303	3683.27
711.491	3623.88
711.679	3627.98
711.866	3587.02
712.054	3720.14
712.242	3527.63
712.43	3638.22
712.617	3523.53
712.805	3642.31
712.993	3619.78
713.181	3449.8
713.368	3609.54
713.556	3560.39
713.744	3417.04
713.931	3683.27
714.119	3589.07
714.306	3394.51
714.494	3458
714.682	3439.56
714.869	3380.17
715.057	3437.52
715.244	3204.05
715.432	3455.95
715.619	3316.69
715.807	3396.56
715.994	3421.13
716.182	3414.99
716.369	3331.02
716.556	3380.17
716.744	3265.49
716.931	3197.9
717.119	3382.22
717.306	3236.81
717.493	3316.69
717.681	3253.2
717.868	3228.62
718.055	3179.47
718.242	3333.07
718.43	3314.64
718.617	3310.54
718.804	3273.68
718.991	3269.58
719.179	3183.57
719.366	3199.95
719.553	3109.84
719.74	3156.94
719.927	3236.81
720.114	3003.35
720.301	3054.55
720.488	3118.03
720.676	3019.73
720.863	3150.8
721.05	3089.36
721.237	3136.46
721.424	3216.33
721.611	3011.54
721.798	3072.98
721.985	2954.19
722.172	3038.16
722.358	3015.63
722.545	3068.88
722.732	3038.16
722.919	2905.04
723.106	2929.62
723.293	2964.43
723.48	2991.06
723.667	2896.85
723.853	2989.01
724.04	2933.72
724.227	2915.28
724.414	2782.17
724.6	3003.35
724.787	2876.37
724.974	3005.39
725.161	2816.98
725.347	2825.17
725.534	2903
725.72	2767.83
725.907	2835.41
726.094	2833.36
726.28	2892.76
726.467	2790.36
726.653	2679.77
726.84	2849.75
727.027	2814.93
727.213	2735.06
727.4	2845.65
727.586	2765.78
727.773	2720.73
727.959	2692.05
728.145	2757.59
728.332	2685.91
728.518	2651.1
728.705	2765.78
728.891	2655.19
729.077	2851.8
729.264	2728.92
729.45	2587.61
729.636	2644.95
729.823	2640.86
730.009	2622.42
730.195	2665.43
730.382	2595.8
730.568	2583.51
730.754	2677.72
730.94	2661.34
731.126	2513.88
731.313	2647
731.499	2577.37
731.685	2554.84
731.871	2728.92
732.057	2538.46
732.243	2704.34
732.429	2497.5
732.615	2573.27
732.801	2560.98
732.987	2497.5
733.173	2554.84
733.359	2536.41
733.545	2644.95
733.731	2462.68
733.917	2454.49
734.103	2507.74
734.289	2495.45
734.475	2509.79
734.661	2634.71
734.847	2429.91
735.033	2462.68
735.219	2524.12
735.404	2366.43
735.59	2360.28
735.776	2354.14
735.962	2356.19
736.148	2356.19
736.333	2413.53
736.519	2358.24
736.705	2372.57
736.89	2368.48
737.076	2278.37
737.262	2261.98
737.447	2456.54
737.633	2292.7
737.819	2374.62
738.004	2323.42
738.19	2270.17
738.375	2331.61
738.561	2208.73
738.747	2223.07
738.932	2315.23
739.118	2343.9
739.303	2360.28
739.489	2335.71
739.674	2237.41
739.859	2272.22
740.045	2227.17
740.23	2294.75
740.416	2028.51
740.601	2239.45
740.786	2061.28
740.972	2159.58
741.157	2057.18
741.342	2098.14
741.528	2102.24
741.713	2175.97
741.898	2147.3
742.084	2167.77
742.269	2081.76
742.454	2122.72
742.639	2225.12
742.824	2188.25
743.01	2077.66
743.195	2094.05
743.38	2067.42
743.565	2075.62
743.75	2044.9
743.935	1997.79
744.12	2065.38
744.305	2036.7
744.49	2092
744.675	1944.55
744.86	1954.79
745.045	1899.49
745.23	1999.84
745.415	1940.45
745.6	1922.02
745.785	1922.02
745.97	2016.23
746.155	1971.17
746.34	1887.2
746.525	1768.42
746.71	1979.36
746.895	1725.41
747.079	1807.33
747.264	1872.87
747.449	1965.03
747.634	1823.72
747.819	1713.13
748.003	1801.19
748.188	1749.99
748.373	1692.65
748.557	1774.56
748.742	1778.66
748.927	1719.27
749.111	1663.97
749.296	1694.69
749.481	1702.89
749.665	1606.63
749.85	1688.55
750.034	1719.27
750.219	1684.45
750.404	1651.69
750.588	1596.39
750.773	1567.72
750.957	1682.41
751.141	1602.54
751.326	1543.14
751.51	1498.09
751.695	1577.96
751.879	1491.95
752.064	1516.52
752.248	1532.9
752.432	1653.73
752.617	1498.09
752.801	1571.82
752.985	1530.86
753.17	1455.08
753.354	1518.57
753.538	1553.38
753.722	1508.33
753.907	1397.74
754.091	1414.12
754.275	1410.03
754.459	1371.12
754.643	1407.98
754.828	1430.51
755.012	1520.62
755.196	1350.64
755.38	1414.12
755.564	1274.86
755.748	1285.1
755.932	1375.21
756.116	1377.26
756.3	1231.85
756.484	1324.01
756.668	1324.01
756.852	1266.67
757.036	1260.52
757.22	1254.38
757.404	1264.62
757.588	1324.01
757.772	1194.99
757.956	1250.28
758.14	1229.81
758.323	1254.38
758.507	1340.4
758.691	1180.65
758.875	1219.57
759.059	1242.09
759.242	1184.75
759.426	1115.12
759.61	1156.08
759.794	1135.6
759.977	1217.52
760.161	1215.47
760.345	1053.68
760.528	1129.45
760.712	1070.06
760.895	1170.41
761.079	1037.3
761.263	1133.55
761.446	1094.64
761.63	1041.39
761.813	1186.8
761.997	1037.3
762.18	1098.74
762.364	1031.15
762.547	990.19
762.731	996.34
762.914	1043.44
763.098	1016.82
763.281	1029.1
763.464	1051.63
763.648	1082.35
763.831	998.38
764.015	1025.01
764.198	1008.62
764.381	975.86
764.564	998.38
764.748	949.23
764.931	1025.01
765.114	947.19
765.297	975.86
765.481	969.71
765.664	922.61
765.847	1045.49
766.03	1080.3
766.213	900.08
766.397	928.75
766.58	930.8
766.763	963.57
766.946	928.75
767.129	869.36
767.312	900.08
767.495	990.19
767.678	977.91
767.861	961.52
768.044	941.04
768.227	906.23
768.41	924.66
768.593	992.24
768.776	932.85
768.959	898.03
769.142	977.91
769.324	877.55
769.507	963.57
769.69	914.42
769.873	861.17
770.056	998.38
770.239	881.65
770.421	834.55
770.604	898.03
770.787	889.84
770.97	875.51
771.152	824.31
771.335	893.94
771.518	814.07
771.7	807.92
771.883	955.38
772.066	795.64
772.248	869.36
772.431	889.84
772.613	807.92
772.796	836.6
772.978	793.59
773.161	902.13
773.343	766.96
773.526	693.24
773.708	699.38
773.891	701.43
774.073	777.2
774.256	670.71
774.438	861.17
774.621	760.82
774.803	795.64
774.985	730.1
775.168	734.2
775.35	742.39
775.532	783.35
775.715	726
775.897	695.29
776.079	678.9
776.261	766.96
776.444	721.91
776.626	730.1
776.808	654.33
776.99	621.56
777.173	709.62
777.355	672.76
777.537	693.24
777.719	680.95
777.901	713.72
778.083	627.7
778.265	615.41
778.447	805.88
778.629	693.24
778.811	603.13
778.993	631.8
779.175	779.25
779.357	582.65
779.539	660.47
779.721	687.09
779.903	594.93
780.085	599.03
780.267	529.4
780.449	678.9
780.631	599.03
780.812	590.84
780.994	627.7
781.176	541.69
781.358	639.99
781.54	508.92
781.721	627.7
781.903	578.55
782.085	672.76
782.267	623.61
782.448	486.39
782.63	527.35
782.812	502.78
782.993	594.93
783.175	515.06
783.357	504.82
783.538	547.83
783.72	553.98
783.901	435.19
784.083	472.06
784.264	488.44
784.446	562.17
784.627	416.76
784.809	474.1
784.99	422.91
785.172	420.86
785.353	416.76
785.535	461.82
785.716	463.86
785.897	369.66
786.079	510.97
786.26	482.3
786.441	510.97
786.623	441.34
786.804	402.43
786.985	496.63
787.167	455.67
787.348	433.15
787.529	398.33
787.71	461.82
787.891	422.91
788.073	422.91
788.254	459.77
788.435	390.14
788.616	367.61
788.797	447.48
788.978	404.47
789.159	383.99
789.34	418.81
789.522	394.23
789.703	455.67
789.884	347.13
790.065	394.23
790.246	381.95
790.427	365.56
790.607	435.19
790.788	381.95
790.969	383.99
791.15	361.47
791.331	406.52
791.512	259.07
791.693	316.41
791.874	369.66
792.054	457.72
792.235	361.47
792.416	394.23
792.597	351.23
792.778	324.6
792.958	326.65
793.139	316.41
793.32	351.23
793.5	300.03
793.681	357.37
793.862	357.37
794.042	302.08
794.223	304.12
794.404	318.46
794.584	189.44
794.765	244.73
794.945	314.36
795.126	306.17
795.306	316.41
795.487	283.64
795.667	304.12
795.848	375.8
796.028	283.64
796.209	386.04
796.389	322.56
796.57	263.16
796.75	242.68
796.93	238.59
797.111	295.93
797.291	277.5
797.471	279.55
797.652	357.37
797.832	195.58
798.012	283.64
798.192	265.21
798.373	238.59
798.553	293.88
798.733	365.56
798.913	173.05
799.093	287.74
799.274	244.73
799.454	267.26
799.634	295.93
799.814	220.16
799.994	320.51
800.174	283.64
800.354	267.26
800.534	193.53
800.714	271.36
800.894	250.88
801.074	214.01
801.254	168.96
801.434	248.83
801.614	279.55
801.794	189.44
801.974	1002.48
802.154	201.72
802.334	304.12
802.514	111.61
802.693	162.81
802.873	250.88
803.053	297.98
803.233	275.45
803.413	203.77
803.592	207.87
803.772	119.81
803.952	185.34
804.131	136.19
804.311	295.93
804.491	177.15
804.67	252.92
804.85	246.78
805.03	218.11
805.209	103.42
805.389	183.29
805.568	171.01
805.748	130.05
805.928	250.88
806.107	158.72
806.287	218.11
806.466	291.84
806.646	168.96
806.825	158.72
807.004	168.96
807.184	216.06
807.363	162.81
807.543	181.25
807.722	175.1
807.901	226.3
808.081	230.4
808.26	162.81
808.439	201.72
808.619	234.49
808.798	152.57
808.977	160.77
809.156	226.3
809.336	171.01
809.515	168.96
809.694	111.61
809.873	168.96
810.052	201.72
810.231	164.86
810.411	222.2
810.59	275.45
810.769	111.61
810.948	152.57
811.127	128
811.306	132.09
811.485	91.13
811.664	226.3
811.843	144.38
812.022	138.24
812.201	128
812.38	164.86
812.559	195.58
812.737	78.85
812.916	91.13
813.095	160.77
813.274	160.77
813.453	183.29
813.632	197.63
813.811	214.01
813.989	140.29
814.168	209.92
814.347	97.28
814.526	70.65
814.704	193.53
814.883	158.72
815.062	113.66
815.24	150.53
815.419	105.47
815.598	179.2
815.776	185.34
815.955	146.43
816.133	58.37
816.312	123.9
816.49	109.57
816.669	164.86
816.847	136.19
817.026	152.57
817.204	146.43
817.383	87.04
817.561	103.42
817.74	52.22
817.918	115.71
818.097	144.38
818.275	70.65
818.453	119.81
818.632	119.81
818.81	148.48
818.988	117.76
819.167	48.13
819.345	115.71
819.523	103.42
819.701	148.48
819.879	82.94
820.058	136.19
820.236	173.05
820.414	173.05
820.592	99.33
820.77	62.46
820.948	78.85
821.127	95.23
821.305	197.63
821.483	39.94
821.661	91.13
821.839	80.89
822.017	33.79
822.195	58.37
822.373	160.77
822.551	74.75
822.729	111.61
822.907	29.7
823.085	107.52
823.262	148.48
823.44	-7.17
823.618	62.46
823.796	105.47
823.974	11.26
824.152	91.13
824.329	46.08
824.507	95.23
824.685	142.33
824.863	58.37
825.04	97.28
825.218	95.23
825.396	87.04
825.574	107.52
825.751	105.47
825.929	136.19
826.107	72.7
826.284	130.05
826.462	101.37
826.639	62.46
826.817	37.89
826.994	119.81
827.172	70.65
827.349	105.47
827.527	117.76
827.704	121.85
827.882	111.61
828.059	160.77
828.237	29.7
828.414	103.42
828.591	-7.17
828.769	89.09
828.946	89.09
829.124	119.81
829.301	123.9
829.478	56.32
829.655	70.65
829.833	58.37
830.01	54.27
830.187	107.52
830.364	78.85
830.542	70.65
830.719	5.12
830.896	123.9
831.073	48.13
831.25	87.04
831.427	183.29
831.604	160.77
831.782	132.09
831.959	74.75
832.136	27.65
832.313	1.02
832.49	46.08
832.667	72.7
832.844	1.02
833.021	103.42
833.198	70.65
833.374	48.13
833.551	78.85
833.728	41.98
833.905	123.9
834.082	-27.65
834.259	54.27
834.436	62.46
834.612	17.41
834.789	89.09
834.966	37.89
835.143	58.37
835.319	33.79
835.496	95.23
835.673	78.85
835.85	56.32
836.026	87.04
836.203	97.28
836.38	66.56
836.556	62.46
836.733	54.27
836.909	128
837.086	13.31
837.262	70.65
837.439	70.65
837.616	1.02
837.792	105.47
837.968	15.36
838.145	-9.22
838.321	144.38
838.498	46.08
838.674	70.65
838.851	138.24
839.027	7.17
839.203	35.84
839.38	52.22
839.556	35.84
839.732	25.6
839.909	21.5
840.085	119.81
840.261	-72.7
840.437	39.94
840.614	23.55
840.79	103.42
840.966	99.33
841.142	130.05
841.318	-19.46
841.494	39.94
841.671	78.85
841.847	-19.46
842.023	-21.5
842.199	66.56
842.375	93.18
842.551	13.31
842.727	-15.36
842.903	70.65
843.079	13.31
843.255	37.89
843.431	15.36
843.607	48.13
843.783	-3.07
843.959	54.27
844.134	58.37
844.31	56.32
844.486	58.37
844.662	17.41
844.838	54.27
845.013	13.31
845.189	39.94
845.365	89.09
845.541	-23.55
845.716	54.27
845.892	48.13
846.068	-1.02
846.244	80.89
846.419	95.23
846.595	74.75
846.77	37.89
846.946	107.52
847.122	-9.22
847.297	23.55
847.473	78.85
847.648	-1.02
847.824	29.7
847.999	-7.17
848.175	39.94
848.35	13.31
848.526	37.89
848.701	5.12
848.876	1.02
849.052	37.89
849.227	62.46
849.403	29.7
849.578	37.89
849.753	31.74
849.929	54.27
850.104	-50.18
850.279	78.85
850.454	-9.22
850.63	41.98
850.805	82.94
850.98	21.5
851.155	21.5
851.33	46.08
851.505	9.22
851.681	123.9
851.856	17.41
852.031	7.17
852.206	111.61
852.381	-70.65
852.556	-7.17
852.731	29.7
852.906	3.07
853.081	3.07
853.256	5.12
853.431	41.98
853.606	54.27
853.781	7.17
853.956	-97.28
854.131	58.37
854.305	-31.74
854.48	19.46
854.655	-27.65
854.83	35.84
855.005	-3.07
855.18	50.18
855.354	-82.94
855.529	95.23
855.704	21.5
855.879	54.27
856.053	37.89
856.228	25.6
856.403	37.89
856.577	23.55
856.752	-17.41
856.926	-9.22
857.101	44.03
857.276	41.98
857.45	-1.02
857.625	37.89
857.799	89.09
857.974	62.46
858.148	-76.8
858.323	72.7
858.497	29.7
858.672	54.27
858.846	-44.03
859.02	56.32
859.195	5.12
859.369	-11.26
859.543	62.46
859.718	-87.04
859.892	19.46
860.066	19.46
860.241	-11.26
860.415	29.7
860.589	-64.51
860.763	46.08
860.938	-27.65
861.112	72.7
861.286	-31.74
861.46	37.89
861.634	-3.07
861.808	87.04
861.982	-1.02
862.157	62.46
862.331	5.12
862.505	9.22
862.679	-27.65
862.853	-11.26
863.027	62.46
863.201	62.46
863.375	-46.08
863.549	37.89
863.722	3.07
863.896	66.56
864.07	-11.26
864.244	9.22
864.418	33.79
864.592	29.7
864.766	29.7
864.939	37.89
865.113	-9.22
865.287	58.37
865.461	-3.07
865.634	7.17
865.808	1.02
865.982	-37.89
866.156	-58.37
866.329	-62.46
866.503	9.22
866.676	-7.17
866.85	-3.07
867.024	-11.26
867.197	-46.08
867.371	37.89
867.544	21.5
867.718	56.32
867.891	-19.46
868.065	-11.26
868.238	-17.41
868.412	82.94
868.585	-19.46
868.759	-84.99
868.932	-62.46
869.105	-44.03
869.279	13.31
869.452	-60.42
869.625	39.94
869.799	78.85
869.972	5.12
870.145	25.6
870.319	-5.12
870.492	1.02
870.665	-74.75
870.838	15.36
871.011	-60.42
871.185	-17.41
871.358	5.12
871.531	72.7
871.704	-17.41
871.877	15.36
872.05	35.84
872.223	-17.41
872.396	48.13
872.569	-68.61
872.742	-66.56
872.915	29.7
873.088	3.07
873.261	-66.56
873.434	91.13
873.607	-25.6
873.78	25.6
873.953	-35.84
874.126	-7.17
874.299	29.7
874.471	-3.07
874.644	5.12
874.817	-33.79
874.99	13.31
875.163	64.51
875.335	-11.26
875.508	-15.36
875.681	87.04
875.853	-19.46
876.026	54.27
876.199	41.98
876.371	-25.6
876.544	46.08
876.717	37.89
876.889	-1.02
877.062	29.7
877.234	37.89
877.407	-50.18
877.579	-41.98
877.752	15.36
877.924	80.89
878.097	-11.26
878.269	-60.42
878.442	-1.02
878.614	15.36
878.786	-11.26
878.959	9.22
879.131	13.31
879.303	-35.84
879.476	-78.85
879.648	-27.65
879.82	-15.36
879.993	-48.13
880.165	15.36
880.337	-76.8
880.509	46.08
880.681	25.6
880.854	-48.13
881.026	50.18
881.198	58.37
881.37	5.12
881.542	11.26
881.714	-3.07
881.886	60.42
882.058	-25.6
882.23	29.7
882.402	3.07
882.574	-23.55
882.746	44.03
882.918	62.46
883.09	64.51
883.262	62.46
883.434	62.46
883.606	-39.94
883.778	-68.61
883.95	37.89
884.122	7.17
884.293	37.89
884.465	-3.07
884.637	13.31
884.809	-35.84
884.98	44.03
885.152	33.79
885.324	-17.41
885.496	-99.33
885.667	-68.61
885.839	-11.26
886.011	37.89
886.182	-11.26
886.354	7.17
886.525	-3.07
886.697	9.22
886.869	-9.22
887.04	-39.94
887.212	1.02
887.383	46.08
887.555	-25.6
887.726	3.07
887.897	-74.75
888.069	44.03
888.24	130.05
888.412	-17.41
888.583	37.89
888.754	60.42
888.926	-15.36
889.097	-72.7
889.268	-56.32
889.44	56.32
889.611	-33.79
889.782	29.7
889.953	-19.46
890.125	48.13
890.296	-19.46
890.467	-3.07
890.638	-82.94
890.809	17.41
890.98	-89.09
891.151	-27.65
891.323	25.6
891.494	62.46
891.665	-23.55
891.836	-35.84
892.007	-41.98
892.178	13.31
892.349	-11.26
892.52	-76.8
892.691	13.31
892.862	-19.46
893.032	35.84
893.203	-35.84
893.374	62.46
893.545	46.08
893.716	-44.03
893.887	-7.17
894.057	-87.04
894.228	48.13
894.399	-25.6
894.57	31.74
894.74	3.07
894.911	-3.07
895.082	-7.17
895.253	50.18
895.423	-27.65
895.594	-1.02
895.764	-3.07
895.935	-107.52
896.106	-3.07
896.276	-9.22
896.447	37.89
896.617	-84.99
896.788	-44.03
896.958	13.31
897.129	-23.55
897.299	-68.61
897.47	25.6
897.64	46.08
897.81	1.02
897.981	-35.84
898.151	-35.84
898.322	39.94
898.492	29.7
898.662	-1.02
898.832	21.5
899.003	109.57
899.173	78.85
899.343	-27.65
899.513	-58.37
