Data from USB4F104151__197__14-33-11-352.txt Node

Date: Thu Mar 13 14:33:11 EDT 2025
User: louis
Spectrometer: USB4F10415
Trigger mode: 4
Integration Time (sec): 2.500000E-2
Scans to average: 1
Electric dark correction enabled: true
Nonlinearity correction enabled: false
Boxcar width: 0
XAxis mode: Wavelengths
Number of Pixels in Spectrum: 3648
>>>>>Begin Spectral Data<<<<<
178.204	-93.18
178.424	-93.18
178.644	-93.18
178.864	-228.35
179.084	-125.95
179.304	25.6
179.524	-58.37
179.744	35.84
179.964	25.6
180.184	-72.7
180.404	5.12
180.624	15.36
180.844	66.56
181.064	-29.7
181.283	-21.5
181.503	-1.02
181.723	9.22
181.943	19.46
182.163	80.89
182.383	-5.12
182.602	91.13
182.822	74.75
183.042	41.98
183.262	31.74
183.482	35.84
183.701	99.33
183.921	95.23
184.141	-1.02
184.361	115.71
184.58	13.31
184.8	82.94
185.02	66.56
185.239	74.75
185.459	-11.26
185.679	82.94
185.898	3.07
186.118	17.41
186.338	23.55
186.557	13.31
186.777	-21.5
186.997	21.5
187.216	7.17
187.436	115.71
187.655	74.75
187.875	66.56
188.095	-31.74
188.314	99.33
188.534	50.18
188.753	132.09
188.973	66.56
189.192	80.89
189.412	99.33
189.631	66.56
189.851	78.85
190.07	50.18
190.29	-21.5
190.509	44.03
190.729	66.56
190.948	72.7
191.168	107.52
191.387	95.23
191.607	21.5
191.826	82.94
192.045	11.26
192.265	-15.36
192.484	66.56
192.704	89.09
192.923	-21.5
193.142	164.86
193.362	50.18
193.581	111.61
193.8	37.89
194.02	82.94
194.239	21.5
194.458	35.84
194.678	70.65
194.897	41.98
195.116	29.7
195.335	9.22
195.555	58.37
195.774	62.46
195.993	60.42
196.212	17.41
196.432	33.79
196.651	62.46
196.87	-33.79
197.089	82.94
197.308	29.7
197.528	117.76
197.747	-56.32
197.966	1.02
198.185	95.23
198.404	56.32
198.623	50.18
198.842	115.71
199.062	111.61
199.281	119.81
199.5	95.23
199.719	109.57
199.938	72.7
200.157	66.56
200.376	76.8
200.595	150.53
200.814	72.7
201.033	54.27
201.252	29.7
201.471	84.99
201.69	84.99
201.909	74.75
202.128	78.85
202.347	33.79
202.566	41.98
202.785	89.09
203.004	-25.6
203.223	144.38
203.442	50.18
203.661	33.79
203.879	58.37
204.098	70.65
204.317	54.27
204.536	68.61
204.755	33.79
204.974	66.56
205.193	58.37
205.411	183.29
205.63	101.37
205.849	27.65
206.068	58.37
206.287	84.99
206.505	58.37
206.724	99.33
206.943	27.65
207.162	17.41
207.381	80.89
207.599	58.37
207.818	46.08
208.037	60.42
208.255	109.57
208.474	1.02
208.693	-5.12
208.911	99.33
209.13	37.89
209.349	13.31
209.567	29.7
209.786	148.48
210.005	17.41
210.223	-1.02
210.442	46.08
210.661	84.99
210.879	33.79
211.098	68.61
211.316	74.75
211.535	78.85
211.753	99.33
211.972	33.79
212.191	19.46
212.409	68.61
212.628	58.37
212.846	17.41
213.065	84.99
213.283	148.48
213.502	62.46
213.72	60.42
213.938	3.07
214.157	87.04
214.375	41.98
214.594	50.18
214.812	87.04
215.031	33.79
215.249	101.37
215.467	33.79
215.686	37.89
215.904	41.98
216.122	17.41
216.341	91.13
216.559	164.86
216.778	60.42
216.996	17.41
217.214	74.75
217.432	56.32
217.651	25.6
217.869	35.84
218.087	132.09
218.306	54.27
218.524	91.13
218.742	50.18
218.96	29.7
219.179	78.85
219.397	11.26
219.615	121.85
219.833	25.6
220.051	-48.13
220.27	58.37
220.488	117.76
220.706	87.04
220.924	54.27
221.142	74.75
221.36	74.75
221.578	134.14
221.796	41.98
222.015	117.76
222.233	60.42
222.451	132.09
222.669	17.41
222.887	-1.02
223.105	17.41
223.323	13.31
223.541	-21.5
223.759	25.6
223.977	101.37
224.195	144.38
224.413	105.47
224.631	70.65
224.849	74.75
225.067	107.52
225.285	15.36
225.503	27.65
225.721	-15.36
225.939	82.94
226.157	82.94
226.375	82.94
226.592	7.17
226.81	44.03
227.028	52.22
227.246	52.22
227.464	95.23
227.682	68.61
227.9	84.99
228.117	78.85
228.335	-13.31
228.553	66.56
228.771	35.84
228.989	-13.31
229.206	82.94
229.424	70.65
229.642	66.56
229.86	37.89
230.077	107.52
230.295	44.03
230.513	113.66
230.731	27.65
230.948	132.09
231.166	87.04
231.384	25.6
231.601	33.79
231.819	136.19
232.037	9.22
232.254	41.98
232.472	25.6
232.689	37.89
232.907	25.6
233.125	9.22
233.342	3.07
233.56	-7.17
233.777	66.56
233.995	107.52
234.213	95.23
234.43	68.61
234.648	35.84
234.865	41.98
235.083	-13.31
235.3	103.42
235.518	46.08
235.735	41.98
235.953	68.61
236.17	-29.7
236.388	11.26
236.605	23.55
236.822	101.37
237.04	93.18
237.257	78.85
237.475	87.04
237.692	-7.17
237.909	121.85
238.127	3.07
238.344	164.86
238.562	50.18
238.779	3.07
238.996	25.6
239.214	1.02
239.431	58.37
239.648	13.31
239.865	68.61
240.083	150.53
240.3	31.74
240.517	17.41
240.735	91.13
240.952	46.08
241.169	115.71
241.386	107.52
241.603	84.99
241.821	9.22
242.038	115.71
242.255	29.7
242.472	54.27
242.689	95.23
242.907	97.28
243.124	78.85
243.341	62.46
243.558	50.18
243.775	-23.55
243.992	-15.36
244.209	125.95
244.426	99.33
244.643	54.27
244.86	37.89
245.078	101.37
245.295	70.65
245.512	107.52
245.729	-5.12
245.946	99.33
246.163	76.8
246.38	-15.36
246.597	37.89
246.814	-5.12
247.031	-15.36
247.248	89.09
247.464	84.99
247.681	66.56
247.898	74.75
248.115	123.9
248.332	50.18
248.549	50.18
248.766	99.33
248.983	62.46
249.2	119.81
249.417	1.02
249.633	-19.46
249.85	41.98
250.067	41.98
250.284	101.37
250.501	50.18
250.717	89.09
250.934	-19.46
251.151	41.98
251.368	62.46
251.585	72.7
251.801	140.29
252.018	41.98
252.235	109.57
252.451	-39.94
252.668	60.42
252.885	62.46
253.102	117.76
253.318	41.98
253.535	15.36
253.752	121.85
253.968	35.84
254.185	56.32
254.401	72.7
254.618	84.99
254.835	35.84
255.051	76.8
255.268	58.37
255.484	70.65
255.701	11.26
255.917	21.5
256.134	25.6
256.351	50.18
256.567	50.18
256.784	115.71
257	-21.5
257.217	109.57
257.433	93.18
257.65	103.42
257.866	58.37
258.082	74.75
258.299	44.03
258.515	44.03
258.732	1.02
258.948	41.98
259.165	50.18
259.381	123.9
259.597	58.37
259.814	84.99
260.03	119.81
260.246	1.02
260.463	33.79
260.679	70.65
260.895	68.61
261.112	76.8
261.328	111.61
261.544	9.22
261.761	168.96
261.977	27.65
262.193	9.22
262.409	17.41
262.626	54.27
262.842	64.51
263.058	-41.98
263.274	66.56
263.49	80.89
263.707	58.37
263.923	54.27
264.139	9.22
264.355	21.5
264.571	128
264.787	99.33
265.004	66.56
265.22	44.03
265.436	93.18
265.652	44.03
265.868	33.79
266.084	11.26
266.3	35.84
266.516	123.9
266.732	23.55
266.948	3.07
267.164	66.56
267.38	56.32
267.596	50.18
267.812	29.7
268.028	70.65
268.244	50.18
268.46	95.23
268.676	62.46
268.892	107.52
269.108	-64.51
269.324	84.99
269.54	70.65
269.756	66.56
269.972	29.7
270.188	107.52
270.403	58.37
270.619	93.18
270.835	-11.26
271.051	89.09
271.267	41.98
271.483	54.27
271.698	54.27
271.914	115.71
272.13	87.04
272.346	3.07
272.562	-5.12
272.777	115.71
272.993	-19.46
273.209	5.12
273.425	17.41
273.64	50.18
273.856	80.89
274.072	91.13
274.287	29.7
274.503	82.94
274.719	52.22
274.934	33.79
275.15	70.65
275.366	-29.7
275.581	37.89
275.797	1.02
276.012	74.75
276.228	3.07
276.444	-15.36
276.659	156.67
276.875	35.84
277.09	7.17
277.306	60.42
277.521	111.61
277.737	50.18
277.952	107.52
278.168	111.61
278.383	44.03
278.599	95.23
278.814	121.85
279.03	123.9
279.245	158.72
279.461	17.41
279.676	128
279.892	66.56
280.107	-39.94
280.322	33.79
280.538	29.7
280.753	101.37
280.969	66.56
281.184	99.33
281.399	84.99
281.615	117.76
281.83	23.55
282.045	-3.07
282.26	70.65
282.476	58.37
282.691	99.33
282.906	84.99
283.122	82.94
283.337	50.18
283.552	68.61
283.767	107.52
283.983	123.9
284.198	25.6
284.413	78.85
284.628	87.04
284.843	84.99
285.058	99.33
285.274	9.22
285.489	-39.94
285.704	-7.17
285.919	134.14
286.134	50.18
286.349	66.56
286.564	41.98
286.779	82.94
286.995	11.26
287.21	41.98
287.425	105.47
287.64	-11.26
287.855	48.13
288.07	44.03
288.285	177.15
288.5	-9.22
288.715	123.9
288.93	121.85
289.145	66.56
289.36	66.56
289.575	52.22
289.79	50.18
290.004	3.07
290.219	95.23
290.434	13.31
290.649	93.18
290.864	33.79
291.079	41.98
291.294	-23.55
291.509	-7.17
291.724	68.61
291.938	87.04
292.153	119.81
292.368	33.79
292.583	41.98
292.798	78.85
293.012	58.37
293.227	156.67
293.442	103.42
293.657	82.94
293.871	101.37
294.086	1.02
294.301	166.91
294.516	48.13
294.73	46.08
294.945	25.6
295.16	80.89
295.374	54.27
295.589	66.56
295.804	76.8
296.018	50.18
296.233	140.29
296.447	105.47
296.662	44.03
296.877	107.52
297.091	15.36
297.306	101.37
297.52	150.53
297.735	72.7
297.949	56.32
298.164	82.94
298.378	119.81
298.593	41.98
298.807	27.65
299.022	58.37
299.236	115.71
299.451	78.85
299.665	35.84
299.88	29.7
300.094	99.33
300.309	44.03
300.523	25.6
300.737	27.65
300.952	27.65
301.166	119.81
301.381	13.31
301.595	99.33
301.809	35.84
302.024	33.79
302.238	25.6
302.452	66.56
302.667	19.46
302.881	76.8
303.095	72.7
303.309	74.75
303.524	41.98
303.738	50.18
303.952	-29.7
304.166	35.84
304.381	1.02
304.595	103.42
304.809	87.04
305.023	72.7
305.237	84.99
305.452	62.46
305.666	99.33
305.88	107.52
306.094	41.98
306.308	80.89
306.522	99.33
306.736	54.27
306.95	84.99
307.164	27.65
307.379	101.37
307.593	93.18
307.807	78.85
308.021	115.71
308.235	142.33
308.449	37.89
308.663	91.13
308.877	166.91
309.091	87.04
309.305	173.05
309.519	41.98
309.733	68.61
309.947	-64.51
310.161	54.27
310.374	21.5
310.588	103.42
310.802	3.07
311.016	107.52
311.23	41.98
311.444	76.8
311.658	56.32
311.872	97.28
312.085	115.71
312.299	117.76
312.513	62.46
312.727	74.75
312.941	82.94
313.154	136.19
313.368	41.98
313.582	66.56
313.796	33.79
314.009	58.37
314.223	148.48
314.437	21.5
314.651	95.23
314.864	74.75
315.078	27.65
315.292	103.42
315.505	82.94
315.719	64.51
315.933	21.5
316.146	82.94
316.36	17.41
316.573	142.33
316.787	27.65
317.001	58.37
317.214	11.26
317.428	101.37
317.641	91.13
317.855	93.18
318.068	82.94
318.282	80.89
318.495	103.42
318.709	128
318.922	50.18
319.136	117.76
319.349	150.53
319.563	84.99
319.776	25.6
319.99	99.33
320.203	74.75
320.417	74.75
320.63	113.66
320.843	164.86
321.057	91.13
321.27	95.23
321.483	41.98
321.697	19.46
321.91	87.04
322.124	91.13
322.337	44.03
322.55	13.31
322.763	50.18
322.977	78.85
323.19	44.03
323.403	19.46
323.617	140.29
323.83	115.71
324.043	35.84
324.256	101.37
324.469	29.7
324.683	107.52
324.896	93.18
325.109	58.37
325.322	7.17
325.535	156.67
325.748	91.13
325.962	91.13
326.175	58.37
326.388	101.37
326.601	3.07
326.814	-11.26
327.027	91.13
327.24	84.99
327.453	19.46
327.666	101.37
327.879	101.37
328.092	144.38
328.305	29.7
328.518	9.22
328.731	35.84
328.944	35.84
329.157	91.13
329.37	95.23
329.583	156.67
329.796	123.9
330.009	-58.37
330.222	70.65
330.435	-5.12
330.648	23.55
330.861	1.02
331.073	46.08
331.286	132.09
331.499	78.85
331.712	1.02
331.925	115.71
332.138	35.84
332.35	72.7
332.563	54.27
332.776	103.42
332.989	33.79
333.202	115.71
333.414	33.79
333.627	99.33
333.84	70.65
334.053	80.89
334.265	54.27
334.478	19.46
334.691	78.85
334.903	89.09
335.116	33.79
335.329	66.56
335.541	74.75
335.754	117.76
335.966	48.13
336.179	52.22
336.392	25.6
336.604	82.94
336.817	70.65
337.029	87.04
337.242	60.42
337.454	50.18
337.667	29.7
337.88	97.28
338.092	150.53
338.305	103.42
338.517	-3.07
338.729	91.13
338.942	46.08
339.154	70.65
339.367	66.56
339.579	89.09
339.792	52.22
340.004	66.56
340.217	103.42
340.429	29.7
340.641	37.89
340.854	41.98
341.066	41.98
341.278	162.81
341.491	33.79
341.703	150.53
341.915	87.04
342.128	130.05
342.34	41.98
342.552	64.51
342.764	121.85
342.977	101.37
343.189	89.09
343.401	1.02
343.613	33.79
343.826	64.51
344.038	1.02
344.25	128
344.462	9.22
344.674	68.61
344.886	82.94
345.099	150.53
345.311	87.04
345.523	107.52
345.735	-5.12
345.947	60.42
346.159	21.5
346.371	58.37
346.583	105.47
346.795	150.53
347.007	17.41
347.219	66.56
347.431	44.03
347.643	31.74
347.855	68.61
348.067	156.67
348.279	46.08
348.491	132.09
348.703	76.8
348.915	35.84
349.127	41.98
349.339	140.29
349.551	21.5
349.763	84.99
349.975	68.61
350.187	101.37
350.399	87.04
350.61	115.71
350.822	25.6
351.034	123.9
351.246	125.95
351.458	91.13
351.669	140.29
351.881	107.52
352.093	115.71
352.305	72.7
352.517	11.26
352.728	121.85
352.94	33.79
353.152	107.52
353.363	15.36
353.575	185.34
353.787	168.96
353.999	144.38
354.21	136.19
354.422	62.46
354.633	130.05
354.845	44.03
355.057	54.27
355.268	82.94
355.48	60.42
355.692	99.33
355.903	72.7
356.115	25.6
356.326	54.27
356.538	140.29
356.749	33.79
356.961	76.8
357.172	50.18
357.384	76.8
357.595	93.18
357.807	87.04
358.018	19.46
358.23	46.08
358.441	95.23
358.653	74.75
358.864	72.7
359.075	35.84
359.287	103.42
359.498	177.15
359.709	52.22
359.921	50.18
360.132	125.95
360.344	103.42
360.555	142.33
360.766	103.42
360.977	115.71
361.189	119.81
361.4	107.52
361.611	95.23
361.823	70.65
362.034	50.18
362.245	-15.36
362.456	87.04
362.667	82.94
362.879	37.89
363.09	142.33
363.301	154.62
363.512	76.8
363.723	132.09
363.935	58.37
364.146	107.52
364.357	9.22
364.568	27.65
364.779	-23.55
364.99	115.71
365.201	35.84
365.412	74.75
365.623	50.18
365.834	115.71
366.045	74.75
366.256	80.89
366.467	52.22
366.678	91.13
366.889	58.37
367.1	68.61
367.311	91.13
367.522	52.22
367.733	66.56
367.944	72.7
368.155	113.66
368.366	119.81
368.577	117.76
368.788	103.42
368.999	41.98
369.209	160.77
369.42	70.65
369.631	168.96
369.842	115.71
370.053	27.65
370.264	17.41
370.474	105.47
370.685	115.71
370.896	84.99
371.107	144.38
371.317	123.9
371.528	107.52
371.739	99.33
371.95	54.27
372.16	189.44
372.371	82.94
372.582	117.76
372.792	142.33
373.003	156.67
373.214	52.22
373.424	52.22
373.635	-1.02
373.846	78.85
374.056	70.65
374.267	-5.12
374.477	93.18
374.688	25.6
374.898	111.61
375.109	117.76
375.319	107.52
375.53	84.99
375.74	76.8
375.951	84.99
376.161	74.75
376.372	60.42
376.582	82.94
376.793	101.37
377.003	33.79
377.214	50.18
377.424	140.29
377.635	107.52
377.845	-3.07
378.055	152.57
378.266	-3.07
378.476	103.42
378.686	97.28
378.897	54.27
379.107	113.66
379.317	148.48
379.528	33.79
379.738	115.71
379.948	62.46
380.158	95.23
380.369	60.42
380.579	107.52
380.789	91.13
380.999	111.61
381.21	181.25
381.42	166.91
381.63	44.03
381.84	171.01
382.05	70.65
382.261	205.82
382.471	62.46
382.681	29.7
382.891	134.14
383.101	82.94
383.311	123.9
383.521	91.13
383.731	35.84
383.941	140.29
384.151	128
384.361	93.18
384.571	91.13
384.781	164.86
384.991	154.62
385.201	152.57
385.411	93.18
385.621	50.18
385.831	60.42
386.041	50.18
386.251	25.6
386.461	113.66
386.671	119.81
386.881	91.13
387.091	17.41
387.301	115.71
387.511	87.04
387.72	54.27
387.93	164.86
388.14	41.98
388.35	66.56
388.56	134.14
388.769	156.67
388.979	64.51
389.189	50.18
389.399	95.23
389.609	156.67
389.818	74.75
390.028	74.75
390.238	76.8
390.447	109.57
390.657	201.72
390.867	93.18
391.076	78.85
391.286	123.9
391.496	101.37
391.705	164.86
391.915	156.67
392.125	119.81
392.334	117.76
392.544	82.94
392.753	87.04
392.963	115.71
393.172	201.72
393.382	99.33
393.591	132.09
393.801	50.18
394.01	150.53
394.22	115.71
394.429	140.29
394.639	107.52
394.848	203.77
395.058	132.09
395.267	52.22
395.477	105.47
395.686	140.29
395.895	148.48
396.105	199.68
396.314	160.77
396.524	125.95
396.733	152.57
396.942	173.05
397.152	142.33
397.361	205.82
397.57	123.9
397.78	115.71
397.989	181.25
398.198	181.25
398.407	183.29
398.617	160.77
398.826	91.13
399.035	181.25
399.244	181.25
399.453	99.33
399.663	66.56
399.872	199.68
400.081	128
400.29	168.96
400.499	111.61
400.708	232.44
400.917	115.71
401.127	142.33
401.336	134.14
401.545	214.01
401.754	160.77
401.963	160.77
402.172	101.37
402.381	181.25
402.59	254.97
402.799	158.72
403.008	189.44
403.217	128
403.426	160.77
403.635	193.53
403.844	177.15
404.053	216.06
404.262	216.06
404.471	162.81
404.68	295.93
404.888	322.56
405.097	234.49
405.306	295.93
405.515	265.21
405.724	197.63
405.933	295.93
406.142	222.2
406.35	238.59
406.559	209.92
406.768	271.36
406.977	320.51
407.185	289.79
407.394	322.56
407.603	238.59
407.812	214.01
408.02	429.05
408.229	361.47
408.438	328.7
408.646	281.6
408.855	357.37
409.064	340.99
409.272	377.85
409.481	445.43
409.69	363.51
409.898	386.04
410.107	480.25
410.315	453.63
410.524	470.01
410.733	510.97
410.941	494.58
411.15	543.74
411.358	486.39
411.567	574.46
411.775	443.39
411.984	582.65
412.192	590.84
412.401	586.74
412.609	680.95
412.818	764.92
413.026	680.95
413.234	699.38
413.443	771.06
413.651	738.29
413.86	781.3
414.068	912.37
414.276	922.61
414.485	879.6
414.693	961.52
414.901	1115.12
415.11	1051.63
415.318	953.33
415.526	1078.26
415.734	1180.65
415.943	1098.74
416.151	1117.17
416.359	1160.17
416.567	1205.23
416.776	1362.92
416.984	1422.31
417.192	1334.25
417.4	1344.49
417.608	1375.21
417.817	1467.37
418.025	1502.19
418.233	1721.32
418.441	1575.91
418.649	1713.13
418.857	1821.67
419.065	1870.82
419.273	1745.89
419.481	1876.96
419.689	2081.76
419.897	2059.23
420.105	2085.86
420.313	2141.15
420.521	2229.21
420.729	2304.99
420.937	2362.33
421.145	2419.68
421.353	2565.08
421.561	2614.23
421.769	2675.67
421.977	2862.04
422.185	2829.27
422.393	2868.18
422.601	3167.18
422.809	3171.28
423.017	3197.9
423.224	3177.42
423.432	3498.95
423.64	3554.25
423.848	3777.48
424.056	3709.9
424.263	3933.12
424.471	3806.15
424.679	4080.58
424.887	4172.74
425.094	4520.89
425.302	4350.91
425.51	4541.37
425.718	4744.12
425.925	4752.31
426.133	4953.01
426.341	5270.45
426.548	5245.87
426.756	5256.11
426.964	5426.09
427.171	5776.3
427.379	5903.27
427.586	6052.77
427.794	6263.71
428.001	6661.02
428.209	6742.94
428.417	6648.73
428.624	7193.49
428.832	7109.52
429.039	7052.18
429.247	7218.07
429.454	7693.19
429.662	8297.35
429.869	7797.64
430.076	8283.01
430.284	7918.47
430.491	8418.18
430.699	8919.93
430.906	8991.61
431.114	8993.65
431.321	9374.58
431.528	9343.86
431.736	10072.93
431.943	10797.92
432.15	10195.81
432.358	10445.66
432.565	11049.82
432.772	10869.59
432.979	11473.74
433.187	11529.04
433.394	11678.54
433.601	12448.58
433.808	12370.76
434.016	12329.8
434.223	12804.92
434.43	13853.48
434.637	13407.03
434.844	14453.54
435.052	14443.3
435.259	14332.71
435.466	14279.46
435.673	14529.31
435.88	15160.09
436.087	16014.09
436.294	15983.37
436.501	15737.62
436.708	16155.4
436.915	16368.39
437.122	17359.61
437.329	17357.56
437.537	18137.84
437.743	18324.2
437.95	18066.16
438.157	18940.64
438.364	19645.14
438.571	19501.78
438.778	19923.66
438.985	21473.98
439.192	20501.19
439.399	21289.66
439.606	20730.56
439.813	22086.32
440.02	23194.27
440.227	22721.19
440.433	22280.88
440.64	23241.37
440.847	23087.78
441.054	23765.65
441.261	25504.38
441.467	24863.36
441.674	25203.33
441.881	26331.76
442.088	26219.12
442.294	26147.44
442.501	26630.76
442.708	27032.16
442.914	28201.55
443.121	29284.93
443.328	28349.01
443.534	30448.18
443.741	29850.17
443.948	29413.95
444.154	31803.93
444.361	31367.71
444.568	31455.78
444.774	31527.45
444.981	32150.04
445.187	32936.46
445.394	34179.57
445.6	33757.69
445.807	36839.89
446.013	35480.03
446.22	35813.85
446.426	37306.82
446.633	37345.73
446.839	38736.3
447.046	37200.33
447.252	39190.95
447.459	39633.32
447.665	39281.06
447.871	40901.01
448.078	42572.15
448.284	40495.51
448.491	41685.38
448.697	43114.86
448.903	43716.96
449.11	43960.67
449.316	43405.67
449.522	44290.4
449.728	45250.89
449.935	45414.73
450.141	45517.13
450.347	46922.04
450.553	44917.07
450.76	45586.76
450.966	47100.21
451.172	46633.27
451.378	47950.12
451.584	46774.58
451.791	47849.77
451.997	47745.32
452.203	48587.03
452.409	48775.45
452.615	48142.63
452.821	46338.36
453.027	46084.42
453.233	48576.79
453.44	46659.9
453.646	46991.67
453.852	46901.56
454.058	48208.16
454.264	46469.43
454.47	47493.42
454.676	46539.07
454.882	48034.08
455.088	44054.88
455.294	44177.76
455.5	45046.1
455.705	45535.56
455.911	43678.05
456.117	42887.54
456.323	42563.96
456.529	40061.34
456.735	41824.64
456.941	40575.38
457.147	40188.31
457.352	39045.55
457.558	38678.96
457.764	38721.97
457.97	37749.18
458.176	36823.5
458.381	37056.97
458.587	35260.9
458.793	34849.26
458.999	33767.93
459.204	35545.57
459.41	35140.07
459.616	32604.69
459.821	32770.57
460.027	32152.09
460.233	31840.79
460.438	30337.59
460.644	30386.74
460.85	29184.58
461.055	28467.79
461.261	28525.13
461.466	26655.34
461.672	25594.49
461.878	27664.99
462.083	25563.77
462.289	25086.59
462.494	24767.11
462.7	23739.03
462.905	23208.61
463.111	23900.82
463.316	23925.39
463.522	23427.74
463.727	23419.55
463.932	23161.5
464.138	23104.16
464.343	23364.25
464.549	22645.41
464.754	23591.58
464.959	23134.88
465.165	22962.85
465.37	21981.87
465.575	21154.49
465.781	22278.83
465.986	22391.47
466.191	21549.75
466.397	21072.57
466.602	20265.67
466.807	20728.52
467.012	20710.08
467.218	20843.2
467.423	20531.91
467.628	20579.01
467.833	21410.49
468.038	20689.6
468.244	20081.36
468.449	20886.21
468.654	19698.39
468.859	20024.01
469.064	19655.38
469.269	19069.66
469.474	19112.67
469.679	19630.8
469.885	19194.59
470.09	19354.33
470.295	18922.21
470.5	18682.59
470.705	18516.71
470.91	18227.95
471.115	18164.46
471.32	18662.12
471.525	18410.22
471.73	18273
471.935	17812.21
472.139	17179.39
472.344	17302.26
472.549	17167.1
472.754	17206.01
472.959	16771.84
473.164	16360.2
473.369	16083.72
473.574	16675.59
473.778	16550.66
473.983	16165.64
474.188	16509.7
474.393	15803.15
474.598	15770.38
474.802	15661.84
475.007	15676.18
475.212	15573.78
475.417	14869.28
475.621	14893.85
475.826	15010.59
476.031	14588.71
476.235	14232.36
476.44	14474.02
476.645	14230.31
476.849	14504.74
477.054	14218.02
477.259	13966.12
477.463	14050.09
477.668	13435.7
477.872	13763.37
478.077	13384.5
478.282	13153.08
478.486	13198.13
478.691	13239.09
478.895	13124.41
479.1	13224.76
479.304	13028.15
479.509	12530.5
479.713	12890.94
479.918	12174.15
480.122	12202.82
480.326	12614.46
480.531	12702.53
480.735	12411.71
480.94	12176.2
481.144	12741.44
481.348	11961.16
481.553	12352.32
481.757	11987.79
481.961	12211.01
482.166	12102.47
482.37	12079.94
482.574	11989.83
482.778	11866.95
482.983	12190.53
483.187	12141.38
483.391	11936.59
483.595	12098.38
483.8	11750.22
484.004	12104.52
484.208	12178.25
484.412	12075.85
484.616	12122.95
484.821	12239.69
485.025	11811.66
485.229	12004.17
485.433	11891.53
485.637	11893.58
485.841	12051.27
486.045	11879.24
486.249	11987.79
486.453	12075.85
486.657	11946.83
486.861	12063.56
487.065	11674.45
487.269	11973.45
487.473	11742.03
487.677	12010.31
487.881	12151.62
488.085	11838.28
488.289	12014.41
488.493	11875.15
488.697	12047.18
488.901	12004.17
489.105	11920.2
489.309	11975.5
489.512	12038.98
489.716	11998.02
489.92	11979.59
490.124	12100.42
490.328	12241.73
490.531	12079.94
490.735	12028.74
490.939	12321.6
491.143	11971.4
491.346	12088.14
491.55	12272.45
491.754	12337.99
491.958	12280.64
492.161	12073.8
492.365	12157.77
492.569	12446.53
492.772	12493.63
492.976	12587.84
493.18	12852.03
493.383	12682.05
493.587	12755.77
493.79	12962.62
493.994	12626.75
494.197	12960.57
494.401	13050.68
494.605	12731.2
494.808	13108.02
495.012	13050.68
495.215	13151.03
495.419	13507.38
495.622	13296.44
495.825	13501.23
496.029	13699.89
496.232	13861.68
496.436	13585.2
496.639	14056.23
496.843	14015.27
497.046	14306.09
497.249	14654.24
497.453	14383.91
497.656	14480.16
497.859	14734.11
498.063	14639.9
498.266	15137.56
498.469	15194.9
498.673	15084.31
498.876	15270.68
499.079	15237.91
499.282	15366.93
499.485	15858.45
499.689	15905.55
499.892	16233.22
500.095	16198.41
500.298	16573.19
500.501	16366.34
500.705	16929.53
500.908	16777.98
501.111	16999.16
501.314	17142.52
501.517	17394.42
501.72	17707.76
501.923	17593.08
502.126	17988.33
502.329	17967.85
502.532	18273
502.735	18375.4
502.938	18901.73
503.141	18817.76
503.344	18782.95
503.547	19053.28
503.75	19483.35
503.953	19600.08
504.156	19927.76
504.359	20218.57
504.562	20026.06
504.765	20619.97
504.968	20794.05
505.17	20933.31
505.373	20964.03
505.576	21084.86
505.779	21441.21
505.982	21486.26
506.185	21764.79
506.387	21902
506.59	21985.97
506.793	22440.62
506.996	22543.02
507.198	23114.4
507.401	23118.5
507.604	23368.35
507.807	23790.23
508.009	23818.9
508.212	24144.53
508.415	24486.54
508.617	24517.26
508.82	24613.51
509.022	24564.36
509.225	25164.42
509.428	25301.63
509.63	25635.45
509.833	25954.93
510.035	26514.03
510.238	26251.89
510.44	26511.98
510.643	26790.5
510.845	27009.64
511.048	26985.06
511.25	27222.62
511.453	27540.06
511.655	28840.52
511.858	28050
512.06	28418.64
512.262	28768.84
512.465	28486.22
512.667	29243.97
512.87	29491.77
513.072	29397.57
513.274	30065.21
513.477	30599.73
513.679	30677.55
513.881	30800.43
514.084	31447.58
514.286	31302.18
514.488	30999.08
514.69	32291.35
514.893	32336.4
515.095	32999.94
515.297	32623.12
515.499	32899.59
515.701	33280.52
515.904	33667.58
516.106	34073.08
516.308	34386.42
516.51	34777.58
516.712	34726.38
516.914	34793.97
517.116	35414.5
517.318	35437.03
517.52	35512.8
517.722	35697.12
517.925	36155.86
518.127	36407.76
518.329	36962.76
518.531	36235.74
518.733	37016.01
518.935	37024.2
519.136	37343.69
519.338	37689.79
519.54	37812.67
519.742	38234.55
519.944	38259.13
520.146	38717.87
520.348	38977.97
520.55	38902.19
520.752	39369.13
520.954	39762.34
521.155	39610.79
521.357	39913.89
521.559	40198.55
521.761	40901.01
521.963	40583.57
522.164	40771.99
522.366	40901.01
522.568	41458.06
522.77	41462.15
522.971	42187.13
523.173	41654.66
523.375	41824.64
523.576	42250.62
523.778	41988.48
523.98	42514.81
524.181	42725.75
524.383	42535.29
524.584	43102.57
524.786	43219.31
524.988	43080.05
525.189	43542.89
525.391	43751.78
525.592	43651.43
525.794	44003.68
525.995	44050.78
526.197	43837.8
526.398	44243.29
526.6	44001.63
526.801	43993.44
527.003	44196.19
527.204	44093.79
527.406	44675.41
527.607	44388.7
527.808	44525.91
528.01	43960.67
528.211	44423.51
528.412	45003.09
528.614	45017.43
528.815	44857.68
529.016	45136.21
529.218	44407.13
529.419	44921.17
529.62	45005.14
529.822	44710.23
530.023	44677.46
530.224	44865.88
530.425	44786
530.626	44593.5
530.828	43917.67
531.029	45085.01
531.23	44650.84
531.431	44847.44
531.632	44837.2
531.833	44898.64
532.035	44382.55
532.236	44495.19
532.437	44982.61
532.638	44280.16
532.839	44736.85
533.04	44736.85
533.241	44489.05
533.442	45240.65
533.643	44669.27
533.844	44624.22
534.045	44642.65
534.246	43798.88
534.447	44765.52
534.648	44544.34
534.849	44618.07
535.05	44108.13
535.251	44194.14
535.451	44067.17
535.652	44360.03
535.853	44261.72
536.054	44374.36
536.255	44007.78
536.456	43520.36
536.657	44530.01
536.857	44224.86
537.058	43508.07
537.259	44548.44
537.46	44239.2
537.66	43809.12
537.861	43643.24
538.062	43839.84
538.263	43848.03
538.463	44097.89
538.664	43880.8
538.865	43684.2
539.065	43741.54
539.266	43383.15
539.466	43981.15
539.667	43362.67
539.868	43647.33
540.068	43544.94
540.269	43749.73
540.469	44083.55
540.67	43258.22
540.87	43399.53
541.071	43379.05
541.271	43319.66
541.472	43391.34
541.672	43258.22
541.873	43168.11
542.073	42817.91
542.274	43227.5
542.474	43282.8
542.675	42996.08
542.875	43577.7
543.075	43002.22
543.276	42983.79
543.476	43358.57
543.676	43118.96
543.877	43514.22
544.077	42905.97
544.277	42715.51
544.478	42871.15
544.678	42862.96
544.878	42881.39
545.078	43094.38
545.279	42531.19
545.479	42682.74
545.679	43295.08
545.879	42781.04
546.079	42989.94
546.28	42539.38
546.48	42731.89
546.68	42881.39
546.88	42842.48
547.08	42557.81
547.28	42629.49
547.48	42406.26
547.68	42545.53
547.88	42455.42
548.081	43168.11
548.281	42836.34
548.481	42686.84
548.681	42860.91
548.881	42748.28
549.081	42652.02
549.28	42346.87
549.48	43112.81
549.68	42701.17
549.88	43592.04
550.08	42426.74
550.28	43114.86
550.48	42871.15
550.68	42901.87
550.88	42201.47
551.08	42791.28
551.279	43047.28
551.479	42666.36
551.679	42727.8
551.879	42533.24
552.079	43110.77
552.278	42477.94
552.478	42924.4
552.678	42807.67
552.878	42787.19
553.077	42283.39
553.277	42373.5
553.477	42953.07
553.676	42547.57
553.876	42856.82
554.076	42596.73
554.275	42635.64
554.475	42178.94
554.674	42705.27
554.874	42858.87
555.074	42656.12
555.273	43114.86
555.473	43362.67
555.672	42525.05
555.872	42674.55
556.071	42891.63
556.271	43127.15
556.47	42600.82
556.67	42340.73
556.869	42881.39
557.068	43073.9
557.268	42594.68
557.467	42963.31
557.667	42899.83
557.866	43153.77
558.065	42826.1
558.265	42604.92
558.464	42590.58
558.663	43114.86
558.863	42408.31
559.062	43325.8
559.261	42809.71
559.461	43104.62
559.66	42283.39
559.859	42484.09
560.058	42785.14
560.258	42977.65
560.457	42344.83
560.656	42969.46
560.855	42504.57
561.054	42824.05
561.253	42576.25
561.453	42793.33
561.652	43016.56
561.851	42951.02
562.05	42416.5
562.249	42639.73
562.448	43118.96
562.647	42946.93
562.846	42725.75
563.045	42897.78
563.244	42377.59
563.443	42979.7
563.642	42373.5
563.841	42508.66
564.04	42369.4
564.239	43100.53
564.438	41871.75
564.637	42611.06
564.836	42547.57
565.035	41943.42
565.234	42252.67
565.432	42330.49
565.631	42047.87
565.83	42406.26
566.029	42189.18
566.228	42375.55
566.427	42162.56
566.625	41972.1
566.824	41359.75
567.023	42156.41
567.222	41191.82
567.42	41728.39
567.619	41689.48
567.818	41953.66
568.016	41513.35
568.215	41597.32
568.414	41148.81
568.612	41511.3
568.811	41095.56
569.01	41290.12
569.208	40841.62
569.407	40978.83
569.605	40870.29
569.804	41169.29
570.002	40784.27
570.201	41171.34
570.4	40618.39
570.598	40759.7
570.797	40552.85
570.995	40653.2
571.193	40239.51
571.392	40638.87
571.59	40126.88
571.789	40235.42
571.987	40204.7
572.186	39965.09
572.384	39555.49
572.582	40530.33
572.781	40290.71
572.979	39356.84
573.177	39715.23
573.376	40120.73
573.574	39639.46
573.772	39467.43
573.971	39111.08
574.169	38873.52
574.367	38898.09
574.565	39467.43
574.763	39143.85
574.962	38656.43
575.16	38664.63
575.358	38781.36
575.556	38076.86
575.754	38795.7
575.952	38035.9
576.151	38472.12
576.349	37562.82
576.547	38072.76
576.745	38492.6
576.943	38113.72
577.141	38300.09
577.339	38050.24
577.537	37513.67
577.735	37788.1
577.933	37480.9
578.131	37468.61
578.329	37392.84
578.527	36966.86
578.725	37421.51
578.923	37319.11
579.121	37091.79
579.319	37200.33
579.516	37087.69
579.714	36927.95
579.912	36952.52
580.11	36682.19
580.308	36661.71
580.506	36487.64
580.704	36116.95
580.901	36282.84
581.099	36237.78
581.297	36100.57
581.495	36209.11
581.692	35897.82
581.89	35768.8
582.088	35809.76
582.285	35647.97
582.483	36067.8
582.681	35721.69
582.878	35387.88
583.076	35625.44
583.274	35733.98
583.471	35201.51
583.669	34910.7
583.866	35076.58
584.064	35504.61
584.262	34605.55
584.459	34996.71
584.657	34806.25
584.854	35170.79
585.052	34406.9
585.249	34347.51
585.447	34710
585.644	34535.92
585.841	34306.55
586.039	33856
586.236	34167.29
586.434	34058.74
586.631	33987.07
586.828	33964.54
587.026	34025.98
587.223	33989.11
587.42	33624.57
587.618	33704.45
587.815	33174.02
588.012	33610.24
588.21	33358.34
588.407	33731.07
588.604	33047.05
588.801	32829.96
588.999	33141.25
589.196	32907.79
589.393	32811.53
589.59	32694.8
589.787	32789
589.984	32762.38
590.182	32494.1
590.379	32899.59
590.576	32111.13
590.773	32516.62
590.97	32313.87
591.167	32502.29
591.364	32360.98
591.561	32158.23
591.758	32098.84
591.955	32068.12
592.152	32027.16
592.349	31830.55
592.546	32025.11
592.743	31984.15
592.94	31488.54
593.137	31648.29
593.334	31822.36
593.531	31408.67
593.727	31642.14
593.924	31136.29
594.121	31363.62
594.318	31160.87
594.515	31031.85
594.712	31513.12
594.908	31179.3
595.105	31248.93
595.302	30906.92
595.499	31105.57
595.696	31169.06
595.892	30870.06
596.089	30849.58
596.286	30745.13
596.482	30882.34
596.679	30446.13
596.876	30906.92
597.072	30575.15
597.269	30356.02
597.466	30454.32
597.662	30364.21
597.859	30399.02
598.055	30296.63
598.252	30421.55
598.448	30464.56
598.645	30343.73
598.841	30040.63
599.038	30198.32
599.234	30333.49
599.431	29807.16
599.627	30005.81
599.824	30394.93
600.02	29987.38
600.217	29704.76
600.413	29868.6
600.609	30050.87
600.806	29905.46
601.002	29938.23
601.198	29803.07
601.395	29712.95
601.591	29827.64
601.787	29942.33
601.984	29409.86
602.18	30116.4
602.376	29803.07
602.572	30132.79
602.769	29983.29
602.965	29731.39
603.161	29702.71
603.357	29475.39
603.553	29483.58
603.75	30034.49
603.946	29639.23
604.142	29819.45
604.338	29563.45
604.534	29612.6
604.73	29274.69
604.926	29403.71
605.122	29596.22
605.318	29631.04
605.514	29469.25
605.71	29239.87
605.906	29520.45
606.102	29637.18
606.298	29575.74
606.494	29428.29
606.69	29831.74
606.886	29813.31
607.082	29495.87
607.278	29565.5
607.474	29438.53
607.67	29708.86
607.866	29280.83
608.062	29993.53
608.257	29581.88
608.453	29755.96
608.649	29899.32
608.845	29319.74
609.041	29745.72
609.236	29798.97
609.432	29598.27
609.628	29792.83
609.824	29561.4
610.019	29997.62
610.215	29536.83
610.411	29819.45
610.606	29655.61
610.802	29694.52
610.998	29700.67
611.193	29927.99
611.389	29610.56
611.584	29450.81
611.78	29700.67
611.976	29678.14
612.171	29833.78
612.367	29809.21
612.562	30030.39
612.758	29157.96
612.953	29860.41
613.149	30081.59
613.344	29502.01
613.539	29952.57
613.735	29669.95
613.93	29852.22
614.126	29813.31
614.321	30020.15
614.517	30071.35
614.712	29833.78
614.907	29532.73
615.103	29942.33
615.298	29512.25
615.493	29932.09
615.688	29606.46
615.884	30102.07
616.079	29395.52
616.274	29811.26
616.47	29639.23
616.665	29829.69
616.86	29516.35
617.055	29745.72
617.25	29565.5
617.445	30179.89
617.641	29284.93
617.836	29495.87
618.031	29008.45
618.226	29209.15
618.421	29196.87
618.616	29841.98
618.811	28908.1
619.006	29397.57
619.201	28664.39
619.396	29063.75
619.591	28484.17
619.786	28983.88
619.981	28439.12
620.176	29108.8
620.371	28783.18
620.566	28717.64
620.761	28527.18
620.956	28625.48
621.151	28187.22
621.346	28654.15
621.541	28033.62
621.735	27972.18
621.93	28174.93
622.125	27890.26
622.32	27857.49
622.515	27380.32
622.709	27431.52
622.904	27296.35
623.099	27161.19
623.294	27488.86
623.488	27249.25
623.683	26964.58
623.878	26417.77
624.072	26942.05
624.267	26692.2
624.462	26657.39
624.656	26616.43
624.851	26198.64
625.046	25981.56
625.24	25741.94
625.435	25928.31
625.629	26026.61
625.824	25524.86
626.018	25789.05
626.213	25186.94
626.407	25481.85
626.602	24939.14
626.796	25033.35
626.991	25035.39
627.185	24781.45
627.38	24574.6
627.574	24578.7
627.768	24146.58
627.963	24183.44
628.157	24302.22
628.352	24402.57
628.546	23964.31
628.74	24222.35
628.935	23960.21
629.129	23732.89
629.323	23491.23
629.517	23311
629.712	23394.97
629.906	23302.81
630.1	23089.82
630.294	23032.48
630.489	22694.57
630.683	23067.3
630.877	22551.21
631.071	22422.19
631.265	22655.65
631.459	22465.19
631.653	22321.84
631.848	22336.17
632.042	22002.35
632.236	22022.83
632.43	21945.01
632.624	21758.64
632.818	21750.45
633.012	21416.63
633.206	21457.59
633.4	21435.06
633.594	21303.99
633.788	21078.72
633.982	20880.07
634.176	20955.84
634.369	20949.7
634.563	20880.07
634.757	20570.82
634.951	20622.02
635.145	20316.87
635.339	20101.84
635.533	20222.67
635.726	20128.46
635.92	19786.45
636.114	19825.36
636.308	19722.96
636.501	19731.15
636.695	19530.45
636.889	19606.23
637.083	19342.04
637.276	19301.08
637.47	19292.89
637.664	19026.65
637.857	19090.14
638.051	19081.95
638.244	18711.27
638.438	18643.68
638.632	18465.51
638.825	18459.37
639.019	18580.2
639.212	18082.54
639.406	18418.41
639.599	18119.4
639.793	18133.74
639.986	17834.74
640.18	18080.49
640.373	17824.5
640.567	17556.21
640.76	17636.08
640.954	17414.9
641.147	17236.73
641.34	17163
641.534	17242.87
641.727	17060.6
641.92	17099.52
642.114	16810.75
642.307	17046.27
642.5	16591.62
642.694	16384.77
642.887	16476.93
643.08	16435.97
643.273	16380.68
643.467	16311.05
643.66	16012.04
643.853	15848.21
644.046	15741.71
644.239	15897.36
644.432	15606.55
644.626	15694.61
644.819	15452.95
645.012	15502.1
645.205	15555.35
645.398	15231.77
645.591	15395.61
645.784	15172.38
645.977	14912.28
646.17	15166.23
646.363	14852.89
646.556	14727.97
646.749	14697.25
646.942	14795.55
647.135	14639.9
647.328	14713.63
647.521	14385.96
647.714	14338.85
647.907	14400.29
648.099	14234.41
648.292	14005.03
648.485	14246.69
648.678	13859.63
648.871	13916.97
649.064	13511.47
649.256	13650.74
649.449	13732.65
649.642	13472.56
649.835	13345.59
650.027	13333.3
650.22	13118.26
650.413	13067.06
650.605	13134.65
650.798	13132.6
650.991	13022.01
651.183	13161.27
651.376	12804.92
651.568	12919.61
651.761	12909.37
651.954	12741.44
652.146	12546.88
652.339	12542.78
652.531	12475.2
652.724	12405.57
652.916	12292.93
653.109	12229.45
653.301	12145.48
653.494	12092.23
653.686	11705.17
653.879	11987.79
654.071	12008.26
654.263	11891.53
654.456	11889.48
654.648	11864.91
654.84	11748.17
655.033	11526.99
655.225	11629.39
655.417	11453.27
655.61	11766.6
655.802	11383.63
655.994	11338.58
656.186	11461.46
656.379	11197.27
656.571	11184.98
656.763	11092.82
656.955	10865.5
657.148	11084.63
657.34	10951.51
657.532	10765.15
657.724	10832.73
657.916	10689.37
658.108	10648.41
658.3	10771.29
658.492	10629.98
658.684	10482.53
658.876	10505.06
659.068	10425.18
659.26	10378.08
659.452	10171.24
659.644	10283.88
659.836	10081.13
660.028	10183.52
660.22	10029.93
660.412	9986.92
660.604	9939.82
660.796	9829.23
660.988	9945.96
661.18	9821.03
661.372	9638.76
661.563	9737.07
661.755	9552.75
661.947	9692.01
662.139	9665.39
662.331	9593.71
662.522	9114.48
662.714	9460.59
662.906	9284.47
663.097	9306.99
663.289	9128.82
663.481	8977.27
663.673	8995.7
663.864	9096.05
664.056	8833.91
664.247	8731.51
664.439	8887.16
664.631	9016.18
664.822	8893.3
665.014	8614.78
665.205	8833.91
665.397	8770.43
665.588	8432.51
665.78	8532.86
665.971	8409.98
666.163	8467.33
666.354	8375.17
666.546	8258.43
666.737	8180.61
666.929	8369.02
667.12	8201.09
667.311	8221.57
667.503	7965.57
667.694	8098.69
667.885	8012.68
668.077	8061.83
668.268	7916.42
668.459	8020.87
668.651	7971.72
668.842	7781.26
669.033	7943.05
669.224	7816.07
669.416	7840.65
669.607	7668.62
669.798	7621.52
669.989	7637.9
670.18	7539.6
670.371	7445.39
670.563	7390.1
670.754	7447.44
670.945	7308.18
671.136	7562.12
671.327	7381.9
671.518	7523.21
671.709	7256.98
671.9	7392.14
672.091	7291.79
672.282	7205.78
672.473	7236.5
672.664	7187.35
672.855	7056.28
673.046	7050.13
673.237	7007.13
673.428	7140.24
673.619	7005.08
673.809	6966.17
674	7052.18
674.191	7179.15
674.382	6800.28
674.573	6992.79
674.764	7013.27
674.954	6986.65
675.145	6783.9
675.336	6763.42
675.527	6736.79
675.717	6783.9
675.908	6636.44
676.099	6783.9
676.289	6554.52
676.48	6579.1
676.671	6595.48
676.861	6669.21
677.052	6753.18
677.243	6423.45
677.433	6609.82
677.624	6646.68
677.814	6585.24
678.005	6480.8
678.195	6593.44
678.386	6597.53
678.576	6343.58
678.767	6443.93
678.957	6466.46
679.148	6310.82
679.338	6480.8
679.529	6470.56
679.719	6376.35
679.909	6316.96
680.1	6153.12
680.29	6396.83
680.481	6005.67
680.671	6392.73
680.861	6247.33
681.052	6286.24
681.242	6288.29
681.432	6517.66
681.622	6136.74
681.813	6269.86
682.003	6063.01
682.193	6099.87
682.383	6040.48
682.573	5974.95
682.764	6046.63
682.954	6128.55
683.144	6013.86
683.334	6056.87
683.524	5968.8
683.714	5983.14
683.904	5893.03
684.094	5999.52
684.284	6108.07
684.474	5936.04
684.664	5792.68
684.854	5755.82
685.044	5866.41
685.234	5729.19
685.424	5786.54
685.614	5837.73
685.804	5876.65
685.994	5940.13
686.184	5860.26
686.374	5751.72
686.564	5706.66
686.753	5807.02
686.943	5665.71
687.133	5796.78
687.323	5548.97
687.513	5755.82
687.702	5630.89
687.892	5716.9
688.082	5620.65
688.272	5620.65
688.461	5596.07
688.651	5542.83
688.841	5473.2
689.03	5440.43
689.22	5505.96
689.41	5399.47
689.599	5538.73
689.789	5446.57
689.979	5385.13
690.168	5372.85
690.358	5448.62
690.547	5424.05
690.737	5350.32
690.926	5252.02
691.116	5317.55
691.305	5297.07
691.495	5204.91
691.684	5098.42
691.874	5209.01
692.063	5225.39
692.252	5137.33
692.442	5247.92
692.631	5049.27
692.82	5202.86
693.01	4971.44
693.199	5157.81
693.388	4942.77
693.578	4932.53
693.767	5229.49
693.956	5110.71
694.146	5055.41
694.335	5012.4
694.524	5030.84
694.713	5063.6
694.902	4912.05
695.092	4877.24
695.281	5004.21
695.47	4961.2
695.659	4950.96
695.848	4875.19
696.037	4942.77
696.226	4862.9
696.415	4766.65
696.604	4893.62
696.793	4877.24
696.982	4864.95
697.171	4858.81
697.36	4711.35
697.549	4617.15
697.738	4631.48
697.927	4502.46
698.116	4631.48
698.305	4547.51
698.494	4670.39
698.683	4543.42
698.872	4547.51
699.061	4754.36
699.25	4707.26
699.438	4611
699.627	4643.77
699.816	4600.76
700.005	4629.43
700.193	4527.03
700.382	4664.25
700.571	4635.58
700.76	4420.54
700.948	4494.27
701.137	4477.88
701.326	4557.75
701.514	4443.07
701.703	4570.04
701.892	4363.2
702.08	4449.21
702.269	4504.51
702.457	4277.18
702.646	4426.68
702.834	4307.9
703.023	4139.97
703.212	4328.38
703.4	4309.95
703.589	4117.44
703.777	4232.13
703.965	4215.74
704.154	4084.67
704.342	4217.79
704.531	4291.52
704.719	4088.77
704.907	4146.11
705.096	4008.9
705.284	4062.15
705.472	4107.2
705.661	4080.58
705.849	4056
706.037	4031.43
706.226	4125.63
706.414	4174.78
706.602	4033.47
706.79	4162.5
706.979	4008.9
707.167	3957.7
707.355	3918.79
707.543	3965.89
707.731	3894.21
707.919	4105.15
708.107	3896.26
708.296	3900.36
708.484	3810.25
708.672	3904.45
708.86	3865.54
709.048	3847.11
709.236	3871.68
709.424	3892.16
709.612	3859.4
709.8	3742.66
709.988	3808.2
710.176	3800.01
710.364	3810.25
710.551	3748.81
710.739	3697.61
710.927	3679.18
711.115	3716.04
711.303	3853.25
711.491	3597.26
711.679	3566.54
711.866	3556.3
712.054	3851.21
712.242	3589.07
712.43	3695.56
712.617	3535.82
712.805	3638.22
712.993	3664.84
713.181	3584.97
713.368	3503.05
713.556	3652.55
713.744	3380.17
713.931	3597.26
714.119	3593.16
714.306	3578.83
714.494	3556.3
714.682	3533.77
714.869	3453.9
715.057	3214.29
715.244	3408.84
715.432	3421.13
715.619	3437.52
715.807	3566.54
715.994	3433.42
716.182	3414.99
716.369	3421.13
716.556	3455.95
716.744	3359.69
716.931	3341.26
717.119	3507.15
717.306	3273.68
717.493	3224.53
717.681	3163.09
717.868	3312.59
718.055	3234.77
718.242	3306.45
718.43	3236.81
718.617	3310.54
718.804	3230.67
718.991	3204.05
719.179	3158.99
719.366	3075.03
719.553	3220.43
719.74	3193.81
719.927	3089.36
720.114	3019.73
720.301	3156.94
720.488	3013.59
720.676	3038.16
720.863	3189.71
721.05	3015.63
721.237	3134.42
721.424	3040.21
721.611	3132.37
721.798	3027.92
721.985	3015.63
722.172	2978.77
722.358	3023.83
722.545	3142.61
722.732	2974.67
722.919	3017.68
723.106	3011.54
723.293	2864.08
723.48	2819.03
723.667	2810.84
723.853	2950.1
724.04	2958.29
724.227	2716.63
724.414	2853.84
724.6	2859.99
724.787	2812.89
724.974	2933.72
725.161	2771.93
725.347	2741.21
725.534	2886.61
725.72	2769.88
725.907	2790.36
726.094	2802.65
726.28	2831.32
726.467	2792.41
726.653	2769.88
726.84	2821.08
727.027	2798.55
727.213	2636.76
727.4	2769.88
727.586	2730.97
727.773	2647
727.959	2624.47
728.145	2702.29
728.332	2630.62
728.518	2778.07
728.705	2591.7
728.891	2669.53
729.077	2640.86
729.264	2733.01
729.45	2622.42
729.636	2819.03
729.823	2499.55
730.009	2671.58
730.195	2606.04
730.382	2622.42
730.568	2610.14
730.754	2567.13
730.94	2540.51
731.126	2503.64
731.313	2526.17
731.499	2659.29
731.685	2540.51
731.871	2567.13
732.057	2595.8
732.243	2491.35
732.429	2573.27
732.615	2581.46
732.801	2569.18
732.987	2483.16
733.173	2495.45
733.359	2524.12
733.545	2477.02
733.731	2434.01
733.917	2532.31
734.103	2601.94
734.289	2442.2
734.475	2423.77
734.661	2517.98
734.847	2436.06
735.033	2409.44
735.219	2427.87
735.404	2493.4
735.59	2458.59
735.776	2339.8
735.962	2522.07
736.148	2442.2
736.333	2460.63
736.519	2386.91
736.705	2376.67
736.89	2319.32
737.076	2264.03
737.262	2343.9
737.447	2335.71
737.633	2182.11
737.819	2241.5
738.004	2229.21
738.19	2395.1
738.375	2337.76
738.561	2429.91
738.747	2325.47
738.932	2098.14
739.118	2235.36
739.303	2192.35
739.489	2304.99
739.674	2286.56
739.859	2210.78
740.045	2157.54
740.23	2204.64
740.416	2034.66
740.601	2190.3
740.786	2214.88
740.972	2102.24
741.157	2089.95
741.342	2221.02
741.528	2188.25
741.713	2130.91
741.898	2114.53
742.084	2067.42
742.269	2106.34
742.454	2032.61
742.639	2167.77
742.824	2104.29
743.01	2083.81
743.195	2204.64
743.38	2010.08
743.565	2098.14
743.75	2016.23
743.935	2028.51
744.12	2067.42
744.305	1987.55
744.49	1934.31
744.675	1967.07
744.86	1985.51
745.045	1876.96
745.23	1893.35
745.415	1848.29
745.6	1926.11
745.785	1860.58
745.97	1952.74
746.155	1967.07
746.34	1891.3
746.525	1907.68
746.71	1897.44
746.895	1733.61
747.079	1729.51
747.264	1780.71
747.449	1852.39
747.634	1860.58
747.819	1811.43
748.003	1827.81
748.188	1719.27
748.373	1770.47
748.557	1784.8
748.742	1590.25
748.927	1682.41
749.111	1713.13
749.296	1729.51
749.481	1672.17
749.665	1672.17
749.85	1663.97
750.034	1739.75
750.219	1696.74
750.404	1565.67
750.588	1586.15
750.773	1659.88
750.957	1614.82
751.141	1479.66
751.326	1614.82
751.51	1577.96
751.695	1532.9
751.879	1616.87
752.064	1442.79
752.248	1496.04
752.432	1524.71
752.617	1489.9
752.801	1575.91
752.985	1434.6
753.17	1436.65
753.354	1434.6
753.538	1434.6
753.722	1410.03
753.907	1436.65
754.091	1369.07
754.275	1426.41
754.459	1297.39
754.643	1393.64
754.828	1434.6
755.012	1461.23
755.196	1342.44
755.38	1330.16
755.564	1360.88
755.748	1321.96
755.932	1289.2
756.116	1338.35
756.3	1328.11
756.484	1332.2
756.668	1289.2
756.852	1278.96
757.036	1330.16
757.22	1330.16
757.404	1319.92
757.588	1248.24
757.772	1319.92
757.956	1266.67
758.14	1291.24
758.323	1274.86
758.507	1221.61
758.691	1082.35
758.875	1227.76
759.059	1295.34
759.242	1074.16
759.426	1061.87
759.61	1133.55
759.794	1139.69
759.977	1190.89
760.161	1248.24
760.345	1147.89
760.528	1156.08
760.712	1115.12
760.895	1158.13
761.079	1246.19
761.263	1201.13
761.446	1037.3
761.63	1111.02
761.813	1178.61
761.997	936.95
762.18	1057.78
762.364	1086.45
762.547	1102.83
762.731	1006.58
762.914	1055.73
763.098	1000.43
763.281	1106.93
763.464	1074.16
763.648	1100.78
763.831	961.52
764.015	969.71
764.198	1012.72
764.381	961.52
764.564	984.05
764.748	945.14
764.931	1049.58
765.114	984.05
765.297	1096.69
765.481	934.9
765.664	1043.44
765.847	1049.58
766.03	1033.2
766.213	895.99
766.397	938.99
766.58	969.71
766.763	963.57
766.946	904.18
767.129	951.28
767.312	984.05
767.495	898.03
767.678	889.84
767.861	953.33
768.044	893.94
768.227	902.13
768.41	992.24
768.593	885.75
768.776	1008.62
768.959	902.13
769.142	938.99
769.324	914.42
769.507	959.47
769.69	869.36
769.873	895.99
770.056	910.32
770.239	920.56
770.421	887.79
770.604	848.88
770.787	836.6
770.97	926.71
771.152	803.83
771.335	906.23
771.518	721.91
771.7	883.7
771.883	926.71
772.066	795.64
772.248	834.55
772.431	818.16
772.613	857.07
772.796	795.64
772.978	918.51
773.161	926.71
773.343	812.02
773.526	754.68
773.708	762.87
773.891	654.33
774.073	787.44
774.256	738.29
774.438	748.53
774.621	828.4
774.803	730.1
774.985	830.45
775.168	746.48
775.35	820.21
775.532	832.5
775.715	803.83
775.897	744.44
776.079	713.72
776.261	766.96
776.444	734.2
776.626	754.68
776.808	680.95
776.99	695.29
777.173	734.2
777.355	644.09
777.537	705.53
777.719	713.72
777.901	650.23
778.083	697.33
778.265	590.84
778.447	672.76
778.629	639.99
778.811	705.53
778.993	594.93
779.175	662.52
779.357	652.28
779.539	537.59
779.721	642.04
779.903	654.33
780.085	568.31
780.267	672.76
780.449	558.07
780.631	639.99
780.812	668.66
780.994	599.03
781.176	590.84
781.358	525.3
781.54	584.7
781.721	730.1
781.903	639.99
782.085	513.02
782.267	646.13
782.448	437.24
782.63	525.3
782.812	533.5
782.993	549.88
783.175	623.61
783.357	461.82
783.538	553.98
783.72	582.65
783.901	562.17
784.083	551.93
784.264	539.64
784.446	490.49
784.627	590.84
784.809	549.88
784.99	521.21
785.172	502.78
785.353	429.05
785.535	451.58
785.716	459.77
785.897	504.82
786.079	488.44
786.26	439.29
786.441	492.54
786.623	402.43
786.804	383.99
786.985	517.11
787.167	478.2
787.348	439.29
787.529	472.06
787.71	521.21
787.891	435.19
788.073	451.58
788.254	347.13
788.435	541.69
788.616	457.72
788.797	472.06
788.978	463.86
789.159	412.67
789.34	343.03
789.522	390.14
789.703	361.47
789.884	373.75
790.065	406.52
790.246	510.97
790.427	386.04
790.607	467.96
790.788	410.62
790.969	330.75
791.15	472.06
791.331	377.85
791.512	365.56
791.693	390.14
791.874	371.71
792.054	424.95
792.235	369.66
792.416	353.27
792.597	330.75
792.778	390.14
792.958	347.13
793.139	353.27
793.32	484.34
793.5	379.9
793.681	422.91
793.862	340.99
794.042	383.99
794.223	355.32
794.404	361.47
794.584	259.07
794.765	349.18
794.945	330.75
795.126	340.99
795.306	291.84
795.487	390.14
795.667	369.66
795.848	336.89
796.028	324.6
796.209	297.98
796.389	379.9
796.57	257.02
796.75	205.82
796.93	271.36
797.111	312.32
797.291	363.51
797.471	312.32
797.652	310.27
797.832	254.97
798.012	369.66
798.192	199.68
798.373	306.17
798.553	320.51
798.733	316.41
798.913	259.07
799.093	216.06
799.274	287.74
799.454	336.89
799.634	287.74
799.814	265.21
799.994	322.56
800.174	183.29
800.354	279.55
800.534	289.79
800.714	373.75
800.894	259.07
801.074	257.02
801.254	254.97
801.434	238.59
801.614	246.78
801.794	269.31
801.974	1010.67
802.154	242.68
802.334	306.17
802.514	281.6
802.693	181.25
802.873	287.74
803.053	293.88
803.233	306.17
803.413	209.92
803.592	230.4
803.772	238.59
803.952	228.35
804.131	168.96
804.311	279.55
804.491	191.49
804.67	295.93
804.85	281.6
805.03	197.63
805.209	281.6
805.389	234.49
805.568	271.36
805.748	191.49
805.928	283.64
806.107	271.36
806.287	150.53
806.466	191.49
806.646	308.22
806.825	230.4
807.004	166.91
807.184	220.16
807.363	214.01
807.543	228.35
807.722	148.48
807.901	269.31
808.081	244.73
808.26	152.57
808.439	308.22
808.619	195.58
808.798	226.3
808.977	144.38
809.156	265.21
809.336	265.21
809.515	144.38
809.694	224.25
809.873	166.91
810.052	254.97
810.231	269.31
810.411	205.82
810.59	218.11
810.769	173.05
810.948	168.96
811.127	173.05
811.306	152.57
811.485	166.91
811.664	226.3
811.843	158.72
812.022	183.29
812.201	199.68
812.38	205.82
812.559	160.77
812.737	216.06
812.916	158.72
813.095	156.67
813.274	166.91
813.453	230.4
813.632	156.67
813.811	209.92
813.989	115.71
814.168	185.34
814.347	144.38
814.526	193.53
814.704	111.61
814.883	248.83
815.062	152.57
815.24	199.68
815.419	64.51
815.598	218.11
815.776	101.37
815.955	148.48
816.133	115.71
816.312	136.19
816.49	91.13
816.669	207.87
816.847	177.15
817.026	82.94
817.204	166.91
817.383	144.38
817.561	160.77
817.74	183.29
817.918	140.29
818.097	117.76
818.275	134.14
818.453	132.09
818.632	136.19
818.81	156.67
818.988	168.96
819.167	224.25
819.345	175.1
819.523	168.96
819.701	150.53
819.879	173.05
820.058	205.82
820.236	209.92
820.414	84.99
820.592	132.09
820.77	136.19
820.948	158.72
821.127	109.57
821.305	37.89
821.483	132.09
821.661	156.67
821.839	166.91
822.017	115.71
822.195	115.71
822.373	173.05
822.551	107.52
822.729	224.25
822.907	33.79
823.085	173.05
823.262	199.68
823.44	48.13
823.618	138.24
823.796	150.53
823.974	87.04
824.152	109.57
824.329	199.68
824.507	168.96
824.685	101.37
824.863	99.33
825.04	128
825.218	218.11
825.396	144.38
825.574	70.65
825.751	101.37
825.929	134.14
826.107	166.91
826.284	132.09
826.462	162.81
826.639	19.46
826.817	46.08
826.994	164.86
827.172	99.33
827.349	128
827.527	123.9
827.704	74.75
827.882	58.37
828.059	156.67
828.237	93.18
828.414	142.33
828.591	21.5
828.769	144.38
828.946	66.56
829.124	148.48
829.301	142.33
829.478	91.13
829.655	82.94
829.833	76.8
830.01	95.23
830.187	189.44
830.364	168.96
830.542	87.04
830.719	181.25
830.896	123.9
831.073	84.99
831.25	125.95
831.427	134.14
831.604	136.19
831.782	84.99
831.959	107.52
832.136	107.52
832.313	148.48
832.49	115.71
832.667	82.94
832.844	136.19
833.021	84.99
833.198	105.47
833.374	144.38
833.551	128
833.728	68.61
833.905	166.91
834.082	62.46
834.259	121.85
834.436	119.81
834.612	82.94
834.789	89.09
834.966	152.57
835.143	95.23
835.319	48.13
835.496	148.48
835.673	132.09
835.85	128
836.026	70.65
836.203	99.33
836.38	33.79
836.556	84.99
836.733	41.98
836.909	93.18
837.086	50.18
837.262	66.56
837.439	84.99
837.616	150.53
837.792	107.52
837.968	111.61
838.145	19.46
838.321	115.71
838.498	66.56
838.674	164.86
838.851	68.61
839.027	27.65
839.203	101.37
839.38	132.09
839.556	19.46
839.732	74.75
839.909	128
840.085	95.23
840.261	17.41
840.437	58.37
840.614	58.37
840.79	119.81
840.966	117.76
841.142	70.65
841.318	50.18
841.494	95.23
841.671	11.26
841.847	25.6
842.023	41.98
842.199	117.76
842.375	93.18
842.551	91.13
842.727	101.37
842.903	207.87
843.079	13.31
843.255	101.37
843.431	99.33
843.607	58.37
843.783	46.08
843.959	72.7
844.134	74.75
844.31	107.52
844.486	66.56
844.662	37.89
844.838	1.02
845.013	117.76
845.189	91.13
845.365	99.33
845.541	84.99
845.716	78.85
845.892	95.23
846.068	76.8
846.244	1.02
846.419	27.65
846.595	52.22
846.77	31.74
846.946	95.23
847.122	17.41
847.297	52.22
847.473	54.27
847.648	17.41
847.824	101.37
847.999	9.22
848.175	29.7
848.35	121.85
848.526	125.95
848.701	164.86
848.876	68.61
849.052	93.18
849.227	99.33
849.403	50.18
849.578	76.8
849.753	50.18
849.929	27.65
850.104	52.22
850.279	52.22
850.454	52.22
850.63	76.8
850.805	44.03
850.98	93.18
851.155	78.85
851.33	99.33
851.505	46.08
851.681	115.71
851.856	37.89
852.031	111.61
852.206	41.98
852.381	78.85
852.556	44.03
852.731	44.03
852.906	74.75
853.081	101.37
853.256	115.71
853.431	25.6
853.606	99.33
853.781	44.03
853.956	25.6
854.131	76.8
854.305	25.6
854.48	66.56
854.655	35.84
854.83	37.89
855.005	29.7
855.18	76.8
855.354	-7.17
855.529	54.27
855.704	50.18
855.879	52.22
856.053	17.41
856.228	58.37
856.403	33.79
856.577	46.08
856.752	11.26
856.926	17.41
857.101	15.36
857.276	33.79
857.45	1.02
857.625	46.08
857.799	107.52
857.974	60.42
858.148	-13.31
858.323	66.56
858.497	33.79
858.672	46.08
858.846	60.42
859.02	35.84
859.195	64.51
859.369	54.27
859.543	144.38
859.718	41.98
859.892	56.32
860.066	158.72
860.241	54.27
860.415	64.51
860.589	68.61
860.763	-11.26
860.938	41.98
861.112	99.33
861.286	93.18
861.46	17.41
861.634	54.27
861.808	11.26
861.982	84.99
862.157	33.79
862.331	1.02
862.505	33.79
862.679	46.08
862.853	27.65
863.027	27.65
863.201	39.94
863.375	37.89
863.549	60.42
863.722	87.04
863.896	52.22
864.07	48.13
864.244	50.18
864.418	9.22
864.592	27.65
864.766	17.41
864.939	58.37
865.113	-39.94
865.287	144.38
865.461	13.31
865.634	50.18
865.808	54.27
865.982	58.37
866.156	87.04
866.329	9.22
866.503	35.84
866.676	91.13
866.85	72.7
867.024	11.26
867.197	41.98
867.371	66.56
867.544	62.46
867.718	74.75
867.891	27.65
868.065	-5.12
868.238	46.08
868.412	97.28
868.585	58.37
868.759	11.26
868.932	25.6
869.105	25.6
869.279	107.52
869.452	-54.27
869.625	7.17
869.799	17.41
869.972	-7.17
870.145	17.41
870.319	107.52
870.492	23.55
870.665	41.98
870.838	11.26
871.011	-35.84
871.185	-23.55
871.358	-35.84
871.531	70.65
871.704	23.55
871.877	140.29
872.05	3.07
872.223	-7.17
872.396	46.08
872.569	41.98
872.742	-19.46
872.915	1.02
873.088	25.6
873.261	25.6
873.434	31.74
873.607	82.94
873.78	64.51
873.953	3.07
874.126	107.52
874.299	44.03
874.471	1.02
874.644	-11.26
874.817	74.75
874.99	66.56
875.163	-11.26
875.335	125.95
875.508	27.65
875.681	9.22
875.853	99.33
876.026	99.33
876.199	111.61
876.371	17.41
876.544	58.37
876.717	72.7
876.889	9.22
877.062	58.37
877.234	-44.03
877.407	-3.07
877.579	60.42
877.752	78.85
877.924	23.55
878.097	64.51
878.269	27.65
878.442	60.42
878.614	33.79
878.786	-15.36
878.959	91.13
879.131	58.37
879.303	-37.89
879.476	-11.26
879.648	-19.46
879.82	58.37
879.993	23.55
880.165	33.79
880.337	-60.42
880.509	84.99
880.681	-52.22
880.854	7.17
881.026	11.26
881.198	82.94
881.37	-31.74
881.542	82.94
881.714	50.18
881.886	37.89
882.058	23.55
882.23	1.02
882.402	101.37
882.574	74.75
882.746	132.09
882.918	78.85
883.09	23.55
883.262	-3.07
883.434	60.42
883.606	11.26
883.778	-15.36
883.95	93.18
884.122	41.98
884.293	76.8
884.465	82.94
884.637	25.6
884.809	-7.17
884.98	52.22
885.152	50.18
885.324	93.18
885.496	3.07
885.667	27.65
885.839	21.5
886.011	125.95
886.182	33.79
886.354	19.46
886.525	41.98
886.697	-48.13
886.869	1.02
887.04	50.18
887.212	74.75
887.383	150.53
887.555	37.89
887.726	58.37
887.897	82.94
888.069	50.18
888.24	82.94
888.412	50.18
888.583	62.46
888.754	46.08
888.926	-21.5
889.097	-7.17
889.268	7.17
889.44	25.6
889.611	-31.74
889.782	1.02
889.953	-11.26
890.125	37.89
890.296	-5.12
890.467	46.08
890.638	27.65
890.809	-15.36
890.98	1.02
891.151	107.52
891.323	72.7
891.494	91.13
891.665	11.26
891.836	82.94
892.007	50.18
892.178	33.79
892.349	78.85
892.52	58.37
892.691	58.37
892.862	-64.51
893.032	-21.5
893.203	1.02
893.374	5.12
893.545	52.22
893.716	33.79
893.887	19.46
894.057	19.46
894.228	68.61
894.399	-15.36
894.57	56.32
894.74	-13.31
894.911	41.98
895.082	25.6
895.253	-29.7
895.423	25.6
895.594	48.13
895.764	44.03
895.935	-19.46
896.106	-48.13
896.276	35.84
896.447	58.37
896.617	-103.42
896.788	-7.17
896.958	35.84
897.129	-5.12
897.299	60.42
897.47	7.17
897.64	50.18
897.81	-31.74
897.981	33.79
898.151	-1.02
898.322	1.02
898.492	-9.22
898.662	-64.51
898.832	-31.74
899.003	-3.07
899.173	9.22
899.343	9.22
899.513	-56.32
