Data from USB4F104151__256__14-34-19-133.txt Node

Date: Thu Mar 13 14:34:19 EDT 2025
User: louis
Spectrometer: USB4F10415
Trigger mode: 4
Integration Time (sec): 2.500000E-2
Scans to average: 1
Electric dark correction enabled: true
Nonlinearity correction enabled: false
Boxcar width: 0
XAxis mode: Wavelengths
Number of Pixels in Spectrum: 3648
>>>>>Begin Spectral Data<<<<<
178.204	-113.15
178.424	-113.15
178.644	-113.15
178.864	-133.63
179.084	-113.15
179.304	-43.52
179.524	-43.52
179.744	17.92
179.964	58.88
180.184	3.58
180.404	9.73
180.624	-6.66
180.844	-35.33
181.064	-29.18
181.283	60.93
181.503	-37.38
181.723	44.54
181.943	-70.14
182.163	128.51
182.383	11.78
182.602	177.66
182.822	56.83
183.042	42.5
183.262	69.12
183.482	1.54
183.701	11.78
183.921	30.21
184.141	34.3
184.361	99.84
184.58	19.97
184.8	15.87
185.02	-0.51
185.239	75.26
185.459	73.21
185.679	75.26
185.898	50.69
186.118	42.5
186.338	-37.38
186.557	91.65
186.777	50.69
186.997	77.31
187.216	9.73
187.436	118.27
187.655	91.65
187.875	22.02
188.095	-51.71
188.314	34.3
188.534	165.37
188.753	85.5
188.973	67.07
189.192	116.22
189.412	17.92
189.631	120.32
189.851	87.55
190.07	87.55
190.29	17.92
190.509	13.82
190.729	26.11
190.948	30.21
191.168	181.76
191.387	62.98
191.607	50.69
191.826	65.02
192.045	77.31
192.265	52.74
192.484	-4.61
192.704	93.69
192.923	-14.85
193.142	120.32
193.362	-6.66
193.581	85.5
193.8	50.69
194.02	103.93
194.239	60.93
194.458	79.36
194.678	60.93
194.897	62.98
195.116	-10.75
195.335	42.5
195.555	54.78
195.774	34.3
195.993	120.32
196.212	67.07
196.432	-6.66
196.651	38.4
196.87	36.35
197.089	91.65
197.308	62.98
197.528	60.93
197.747	-23.04
197.966	44.54
198.185	42.5
198.404	30.21
198.623	26.11
198.842	50.69
199.062	91.65
199.281	67.07
199.5	50.69
199.719	108.03
199.938	73.21
200.157	99.84
200.376	52.74
200.595	91.65
200.814	42.5
201.033	19.97
201.252	118.27
201.471	56.83
201.69	60.93
201.909	93.69
202.128	40.45
202.347	75.26
202.566	42.5
202.785	89.6
203.004	26.11
203.223	7.68
203.442	105.98
203.661	34.3
203.879	34.3
204.098	34.3
204.317	83.45
204.536	126.46
204.755	126.46
204.974	91.65
205.193	1.54
205.411	87.55
205.63	75.26
205.849	85.5
206.068	17.92
206.287	91.65
206.505	40.45
206.724	83.45
206.943	34.3
207.162	62.98
207.381	11.78
207.599	108.03
207.818	36.35
208.037	44.54
208.255	22.02
208.474	17.92
208.693	62.98
208.911	11.78
209.13	22.02
209.349	108.03
209.567	126.46
209.786	42.5
210.005	91.65
210.223	91.65
210.442	7.68
210.661	89.6
210.879	38.4
211.098	17.92
211.316	60.93
211.535	75.26
211.753	69.12
211.972	93.69
212.191	36.35
212.409	17.92
212.628	-10.75
212.846	-6.66
213.065	38.4
213.283	118.27
213.502	44.54
213.72	11.78
213.938	91.65
214.157	83.45
214.375	44.54
214.594	7.68
214.812	19.97
215.031	38.4
215.249	97.79
215.467	56.83
215.686	26.11
215.904	108.03
216.122	81.41
216.341	52.74
216.559	50.69
216.778	50.69
216.996	93.69
217.214	1.54
217.432	-2.56
217.651	-37.38
217.869	24.06
218.087	60.93
218.306	36.35
218.524	50.69
218.742	52.74
218.96	75.26
219.179	36.35
219.397	69.12
219.615	93.69
219.833	144.89
220.051	83.45
220.27	95.74
220.488	91.65
220.706	11.78
220.924	1.54
221.142	-33.28
221.36	112.13
221.578	83.45
221.796	26.11
222.015	112.13
222.233	77.31
222.451	140.8
222.669	65.02
222.887	126.46
223.105	-14.85
223.323	54.78
223.541	1.54
223.759	87.55
223.977	58.88
224.195	91.65
224.413	50.69
224.631	161.28
224.849	34.3
225.067	161.28
225.285	9.73
225.503	77.31
225.721	50.69
225.939	71.17
226.157	99.84
226.375	161.28
226.592	-14.85
226.81	-6.66
227.028	140.8
227.246	118.27
227.464	-6.66
227.682	58.88
227.9	91.65
228.117	91.65
228.335	91.65
228.553	34.3
228.771	83.45
228.989	34.3
229.206	54.78
229.424	17.92
229.642	50.69
229.86	1.54
230.077	114.17
230.295	11.78
230.513	95.74
230.731	30.21
230.948	36.35
231.166	99.84
231.384	112.13
231.601	44.54
231.819	79.36
232.037	9.73
232.254	11.78
232.472	108.03
232.689	34.3
232.907	42.5
233.125	26.11
233.342	50.69
233.56	54.78
233.777	79.36
233.995	108.03
234.213	71.17
234.43	30.21
234.648	62.98
234.865	91.65
235.083	103.93
235.3	148.99
235.518	34.3
235.735	136.7
235.953	85.5
236.17	1.54
236.388	34.3
236.605	50.69
236.822	142.85
237.04	28.16
237.257	116.22
237.475	26.11
237.692	17.92
237.909	95.74
238.127	67.07
238.344	11.78
238.562	42.5
238.779	28.16
238.996	65.02
239.214	75.26
239.431	93.69
239.648	-4.61
239.865	83.45
240.083	28.16
240.3	1.54
240.517	5.63
240.735	75.26
240.952	60.93
241.169	126.46
241.386	7.68
241.603	11.78
241.821	-2.56
242.038	26.11
242.255	42.5
242.472	-10.75
242.689	71.17
242.907	52.74
243.124	7.68
243.341	30.21
243.558	62.98
243.775	5.63
243.992	26.11
244.209	5.63
244.426	77.31
244.643	46.59
244.86	22.02
245.078	52.74
245.295	120.32
245.512	-23.04
245.729	83.45
245.946	67.07
246.163	54.78
246.38	58.88
246.597	22.02
246.814	-2.56
247.031	83.45
247.248	124.41
247.464	26.11
247.681	50.69
247.898	62.98
248.115	13.82
248.332	13.82
248.549	108.03
248.766	140.8
248.983	58.88
249.2	62.98
249.417	67.07
249.633	9.73
249.85	73.21
250.067	28.16
250.284	36.35
250.501	108.03
250.717	126.46
250.934	-47.62
251.151	-6.66
251.368	71.17
251.585	73.21
251.801	22.02
252.018	-12.8
252.235	60.93
252.451	-12.8
252.668	83.45
252.885	124.41
253.102	24.06
253.318	38.4
253.535	67.07
253.752	17.92
253.968	112.13
254.185	58.88
254.401	58.88
254.618	132.61
254.835	38.4
255.051	122.37
255.268	101.89
255.484	-12.8
255.701	-64
255.917	112.13
256.134	38.4
256.351	32.26
256.567	-27.14
256.784	60.93
257	46.59
257.217	75.26
257.433	105.98
257.65	95.74
257.866	58.88
258.082	-41.47
258.299	54.78
258.515	28.16
258.732	22.02
258.948	58.88
259.165	30.21
259.381	42.5
259.597	60.93
259.814	-8.7
260.03	48.64
260.246	134.65
260.463	157.18
260.679	60.93
260.895	-2.56
261.112	67.07
261.328	50.69
261.544	42.5
261.761	173.57
261.977	-14.85
262.193	30.21
262.409	67.07
262.626	99.84
262.842	50.69
263.058	-18.94
263.274	118.27
263.49	42.5
263.707	91.65
263.923	-10.75
264.139	-59.9
264.355	52.74
264.571	54.78
264.787	50.69
265.004	83.45
265.22	62.98
265.436	67.07
265.652	87.55
265.868	34.3
266.084	1.54
266.3	52.74
266.516	60.93
266.732	-20.99
266.948	101.89
267.164	58.88
267.38	36.35
267.596	101.89
267.812	48.64
268.028	13.82
268.244	9.73
268.46	-2.56
268.676	11.78
268.892	-2.56
269.108	77.31
269.324	19.97
269.54	17.92
269.756	-10.75
269.972	34.3
270.188	75.26
270.403	30.21
270.619	36.35
270.835	3.58
271.051	67.07
271.267	60.93
271.483	11.78
271.698	38.4
271.914	34.3
272.13	26.11
272.346	5.63
272.562	50.69
272.777	77.31
272.993	22.02
273.209	34.3
273.425	101.89
273.64	9.73
273.856	67.07
274.072	60.93
274.287	44.54
274.503	-39.42
274.719	120.32
274.934	26.11
275.15	5.63
275.366	79.36
275.581	9.73
275.797	28.16
276.012	34.3
276.228	34.3
276.444	60.93
276.659	50.69
276.875	-10.75
277.09	11.78
277.306	83.45
277.521	58.88
277.737	89.6
277.952	99.84
278.168	36.35
278.383	83.45
278.599	83.45
278.814	93.69
279.03	81.41
279.245	50.69
279.461	38.4
279.676	34.3
279.892	-64
280.107	3.58
280.322	71.17
280.538	60.93
280.753	1.54
280.969	46.59
281.184	-4.61
281.399	42.5
281.615	17.92
281.83	48.64
282.045	-25.09
282.26	22.02
282.476	30.21
282.691	58.88
282.906	-18.94
283.122	17.92
283.337	46.59
283.552	99.84
283.767	50.69
283.983	110.08
284.198	38.4
284.413	71.17
284.628	9.73
284.843	17.92
285.058	42.5
285.274	85.5
285.489	3.58
285.704	50.69
285.919	17.92
286.134	87.55
286.349	19.97
286.564	62.98
286.779	99.84
286.995	60.93
287.21	-78.33
287.425	58.88
287.64	22.02
287.855	108.03
288.07	11.78
288.285	28.16
288.5	13.82
288.715	62.98
288.93	103.93
289.145	13.82
289.36	75.26
289.575	36.35
289.79	67.07
290.004	-10.75
290.219	19.97
290.434	116.22
290.649	67.07
290.864	15.87
291.079	38.4
291.294	69.12
291.509	46.59
291.724	54.78
291.938	73.21
292.153	69.12
292.368	58.88
292.583	77.31
292.798	5.63
293.012	83.45
293.227	9.73
293.442	71.17
293.657	87.55
293.871	60.93
294.086	85.5
294.301	126.46
294.516	65.02
294.73	60.93
294.945	95.74
295.16	153.09
295.374	65.02
295.589	62.98
295.804	58.88
296.018	73.21
296.233	165.37
296.447	36.35
296.662	58.88
296.877	75.26
297.091	38.4
297.306	87.55
297.52	34.3
297.735	75.26
297.949	-23.04
298.164	65.02
298.378	30.21
298.593	69.12
298.807	19.97
299.022	67.07
299.236	75.26
299.451	62.98
299.665	54.78
299.88	44.54
300.094	46.59
300.309	52.74
300.523	3.58
300.737	128.51
300.952	1.54
301.166	75.26
301.381	-18.94
301.595	73.21
301.809	5.63
302.024	42.5
302.238	-20.99
302.452	108.03
302.667	13.82
302.881	126.46
303.095	122.37
303.309	52.74
303.524	-35.33
303.738	87.55
303.952	26.11
304.166	77.31
304.381	-18.94
304.595	65.02
304.809	58.88
305.023	151.04
305.237	17.92
305.452	44.54
305.666	65.02
305.88	97.79
306.094	65.02
306.308	75.26
306.522	87.55
306.736	87.55
306.95	87.55
307.164	46.59
307.379	50.69
307.593	163.33
307.807	118.27
308.021	91.65
308.235	124.41
308.449	62.98
308.663	99.84
308.877	58.88
309.091	58.88
309.305	77.31
309.519	22.02
309.733	34.3
309.947	9.73
310.161	132.61
310.374	-31.23
310.588	126.46
310.802	-29.18
311.016	91.65
311.23	77.31
311.444	81.41
311.658	58.88
311.872	116.22
312.085	60.93
312.299	108.03
312.513	75.26
312.727	134.65
312.941	36.35
313.154	91.65
313.368	42.5
313.582	95.74
313.796	65.02
314.009	67.07
314.223	67.07
314.437	17.92
314.651	83.45
314.864	40.45
315.078	83.45
315.292	-70.14
315.505	67.07
315.719	62.98
315.933	46.59
316.146	32.26
316.36	22.02
316.573	58.88
316.787	75.26
317.001	60.93
317.214	-4.61
317.428	79.36
317.641	24.06
317.855	118.27
318.068	58.88
318.282	65.02
318.495	132.61
318.709	30.21
318.922	30.21
319.136	30.21
319.349	85.5
319.563	42.5
319.776	11.78
319.99	-10.75
320.203	140.8
320.417	36.35
320.63	34.3
320.843	175.61
321.057	1.54
321.27	13.82
321.483	44.54
321.697	83.45
321.91	114.17
322.124	11.78
322.337	36.35
322.55	-6.66
322.763	81.41
322.977	42.5
323.19	65.02
323.403	54.78
323.617	93.69
323.83	83.45
324.043	44.54
324.256	-6.66
324.469	32.26
324.683	120.32
324.896	85.5
325.109	30.21
325.322	-31.23
325.535	13.82
325.748	58.88
325.962	7.68
326.175	112.13
326.388	42.5
326.601	77.31
326.814	73.21
327.027	50.69
327.24	65.02
327.453	99.84
327.666	157.18
327.879	52.74
328.092	108.03
328.305	75.26
328.518	69.12
328.731	3.58
328.944	75.26
329.157	28.16
329.37	-27.14
329.583	112.13
329.796	116.22
330.009	67.07
330.222	124.41
330.435	140.8
330.648	83.45
330.861	108.03
331.073	32.26
331.286	77.31
331.499	71.17
331.712	56.83
331.925	65.02
332.138	46.59
332.35	44.54
332.563	77.31
332.776	44.54
332.989	48.64
333.202	85.5
333.414	19.97
333.627	38.4
333.84	71.17
334.053	1.54
334.265	26.11
334.478	79.36
334.691	-10.75
334.903	42.5
335.116	28.16
335.329	58.88
335.541	54.78
335.754	126.46
335.966	110.08
336.179	44.54
336.392	83.45
336.604	56.83
336.817	179.71
337.029	9.73
337.242	42.5
337.454	71.17
337.667	38.4
337.88	108.03
338.092	85.5
338.305	50.69
338.517	26.11
338.729	60.93
338.942	73.21
339.154	73.21
339.367	83.45
339.579	116.22
339.792	54.78
340.004	157.18
340.217	54.78
340.429	60.93
340.641	28.16
340.854	28.16
341.066	1.54
341.278	17.92
341.491	169.47
341.703	34.3
341.915	108.03
342.128	108.03
342.34	17.92
342.552	13.82
342.764	103.93
342.977	95.74
343.189	103.93
343.401	83.45
343.613	87.55
343.826	79.36
344.038	85.5
344.25	-23.04
344.462	46.59
344.674	58.88
344.886	54.78
345.099	75.26
345.311	148.99
345.523	-10.75
345.735	46.59
345.947	108.03
346.159	50.69
346.371	11.78
346.583	58.88
346.795	124.41
347.007	44.54
347.219	118.27
347.431	85.5
347.643	83.45
347.855	58.88
348.067	40.45
348.279	75.26
348.491	22.02
348.703	58.88
348.915	46.59
349.127	79.36
349.339	85.5
349.551	79.36
349.763	112.13
349.975	30.21
350.187	108.03
350.399	89.6
350.61	91.65
350.822	42.5
351.034	112.13
351.246	50.69
351.458	46.59
351.669	140.8
351.881	124.41
352.093	128.51
352.305	108.03
352.517	132.61
352.728	54.78
352.94	17.92
353.152	97.79
353.363	95.74
353.575	99.84
353.787	95.74
353.999	67.07
354.21	93.69
354.422	7.68
354.633	62.98
354.845	77.31
355.057	81.41
355.268	89.6
355.48	77.31
355.692	22.02
355.903	116.22
356.115	-25.09
356.326	75.26
356.538	101.89
356.749	91.65
356.961	140.8
357.172	44.54
357.384	60.93
357.595	124.41
357.807	34.3
358.018	17.92
358.23	24.06
358.441	105.98
358.653	36.35
358.864	-6.66
359.075	3.58
359.287	54.78
359.498	34.3
359.709	151.04
359.921	91.65
360.132	34.3
360.344	22.02
360.555	5.63
360.766	67.07
360.977	110.08
361.189	124.41
361.4	26.11
361.611	144.89
361.823	95.74
362.034	42.5
362.245	-23.04
362.456	85.5
362.667	108.03
362.879	77.31
363.09	105.98
363.301	-4.61
363.512	58.88
363.723	69.12
363.935	34.3
364.146	44.54
364.357	-4.61
364.568	134.65
364.779	-23.04
364.99	75.26
365.201	48.64
365.412	157.18
365.623	17.92
365.834	142.85
366.045	99.84
366.256	9.73
366.467	116.22
366.678	83.45
366.889	95.74
367.1	83.45
367.311	116.22
367.522	128.51
367.733	5.63
367.944	99.84
368.155	140.8
368.366	52.74
368.577	159.23
368.788	95.74
368.999	91.65
369.209	50.69
369.42	140.8
369.631	177.66
369.842	52.74
370.053	38.4
370.264	118.27
370.474	83.45
370.685	-6.66
370.896	83.45
371.107	91.65
371.317	52.74
371.528	95.74
371.739	83.45
371.95	44.54
372.16	112.13
372.371	85.5
372.582	103.93
372.792	83.45
373.003	77.31
373.214	11.78
373.424	124.41
373.635	-14.85
373.846	79.36
374.056	52.74
374.267	124.41
374.477	140.8
374.688	77.31
374.898	48.64
375.109	116.22
375.319	50.69
375.53	124.41
375.74	60.93
375.951	46.59
376.161	97.79
376.372	132.61
376.582	128.51
376.793	52.74
377.003	79.36
377.214	93.69
377.424	71.17
377.635	69.12
377.845	52.74
378.055	99.84
378.266	101.89
378.476	60.93
378.686	87.55
378.897	124.41
379.107	60.93
379.317	132.61
379.528	62.98
379.738	42.5
379.948	22.02
380.158	126.46
380.369	91.65
380.579	26.11
380.789	99.84
380.999	99.84
381.21	79.36
381.42	138.75
381.63	58.88
381.84	167.42
382.05	116.22
382.261	91.65
382.471	87.55
382.681	44.54
382.891	52.74
383.101	99.84
383.311	71.17
383.521	58.88
383.731	101.89
383.941	52.74
384.151	151.04
384.361	120.32
384.571	89.6
384.781	101.89
384.991	118.27
385.201	175.61
385.411	151.04
385.621	62.98
385.831	73.21
386.041	48.64
386.251	58.88
386.461	58.88
386.671	50.69
386.881	124.41
387.091	77.31
387.301	103.93
387.511	58.88
387.72	99.84
387.93	5.63
388.14	-4.61
388.35	83.45
388.56	116.22
388.769	71.17
388.979	97.79
389.189	44.54
389.399	101.89
389.609	116.22
389.818	30.21
390.028	19.97
390.238	140.8
390.447	19.97
390.657	110.08
390.867	99.84
391.076	73.21
391.286	50.69
391.496	132.61
391.705	83.45
391.915	93.69
392.125	67.07
392.334	142.85
392.544	126.46
392.753	175.61
392.963	173.57
393.172	89.6
393.382	28.16
393.591	118.27
393.801	42.5
394.01	124.41
394.22	124.41
394.429	124.41
394.639	91.65
394.848	36.35
395.058	79.36
395.267	69.12
395.477	75.26
395.686	67.07
395.895	144.89
396.105	116.22
396.314	112.13
396.524	13.82
396.733	105.98
396.942	110.08
397.152	142.85
397.361	151.04
397.57	148.99
397.78	124.41
397.989	173.57
398.198	255.48
398.407	89.6
398.617	73.21
398.826	126.46
399.035	60.93
399.244	181.76
399.453	130.56
399.663	144.89
399.872	167.42
400.081	112.13
400.29	128.51
400.499	132.61
400.708	183.81
400.917	79.36
401.127	108.03
401.336	148.99
401.545	241.15
401.754	116.22
401.963	232.96
402.172	222.72
402.381	157.18
402.59	124.41
402.799	167.42
403.008	136.7
403.217	173.57
403.426	198.14
403.635	110.08
403.844	108.03
404.053	142.85
404.262	132.61
404.471	222.72
404.68	189.95
404.888	120.32
405.097	187.9
405.306	171.52
405.515	181.76
405.724	153.09
405.933	181.76
406.142	251.39
406.35	290.3
406.559	255.48
406.768	265.72
406.977	232.96
407.185	255.48
407.394	239.1
407.603	140.8
407.812	263.68
408.02	288.25
408.229	333.31
408.438	200.19
408.646	275.96
408.855	310.78
409.064	372.22
409.272	290.3
409.481	411.13
409.69	351.74
409.898	306.68
410.107	366.07
410.315	431.61
410.524	386.55
410.733	443.9
410.941	460.28
411.15	476.66
411.358	437.75
411.567	513.53
411.775	468.47
411.984	536.06
412.192	542.2
412.401	443.9
412.609	534.01
412.818	615.93
413.026	568.82
413.234	634.36
413.443	583.16
413.651	536.06
413.86	650.74
414.068	749.04
414.276	812.53
414.485	703.99
414.693	792.05
414.901	853.49
415.11	919.03
415.318	812.53
415.526	869.87
415.734	927.22
415.943	978.42
416.151	1000.94
416.359	1015.28
416.567	1052.14
416.776	1093.1
416.984	1160.69
417.192	1263.08
417.4	1281.52
417.608	1228.27
417.817	1230.32
418.025	1316.33
418.233	1402.35
418.441	1312.24
418.649	1435.11
418.857	1607.14
419.065	1644.01
419.273	1590.76
419.481	1789.41
419.689	1791.46
419.897	1730.02
420.105	1730.02
420.313	1904.1
420.521	1969.63
420.729	1912.29
420.937	1891.81
421.145	2035.17
421.353	2295.26
421.561	2242.01
421.769	2254.3
421.977	2401.76
422.185	2299.36
422.393	2446.81
422.601	2680.28
422.809	2631.13
423.017	2772.44
423.224	2958.8
423.432	2854.36
423.64	2977.23
423.848	3229.13
424.056	3139.02
424.263	3458.51
424.471	3364.3
424.679	3464.65
424.887	3661.26
425.094	3798.47
425.302	3786.18
425.51	3890.63
425.718	3859.91
425.925	4081.09
426.133	4206.02
426.341	4580.79
426.548	4648.38
426.756	4638.14
426.964	4636.09
427.171	4918.71
427.379	5053.87
427.586	5184.94
427.794	5326.25
428.001	5559.72
428.209	5752.23
428.417	5490.09
428.624	6071.72
428.832	6309.28
429.039	6112.67
429.247	5893.54
429.454	6462.88
429.662	7103.89
429.869	6565.28
430.076	7087.51
430.284	6882.71
430.491	7069.08
430.699	7493.01
430.906	7671.18
431.114	7859.59
431.321	7800.2
431.528	8033.67
431.736	8574.33
431.943	9000.31
432.15	8676.73
432.358	8709.5
432.565	9350.51
432.772	9237.88
432.979	9463.15
433.187	9882.99
433.394	9799.02
433.601	10612.06
433.808	10718.56
434.016	10505.57
434.223	11079
434.43	11496.78
434.637	11359.57
434.844	12236.1
435.052	12383.56
435.259	12354.88
435.466	12690.75
435.673	12299.59
435.88	13139.26
436.087	13823.28
436.294	13583.66
436.501	13366.58
436.708	13593.9
436.915	14046.51
437.122	15041.82
437.329	14869.79
437.537	15236.38
437.743	15465.75
437.95	15205.66
438.157	15942.92
438.364	16735.49
438.571	16764.16
438.778	16635.14
438.985	18298.09
439.192	17233.15
439.399	17935.6
439.606	17642.74
439.813	18801.89
440.02	19612.88
440.227	19375.32
440.433	19184.86
440.64	19778.77
440.847	19690.71
441.054	20161.74
441.261	21503.16
441.467	20982.98
441.674	21781.68
441.881	22725.8
442.088	22262.96
442.294	22178.99
442.501	22807.72
442.708	23059.62
442.914	24177.81
443.121	24835.21
443.328	24325.26
443.534	25785.46
443.741	25412.73
443.948	24855.68
444.154	26874.98
444.361	26559.59
444.568	26582.12
444.774	26940.52
444.981	27128.93
445.187	27425.89
445.394	29170.75
445.6	28746.83
445.807	31423.52
446.013	29922.36
446.22	30256.18
446.426	31790.11
446.633	32080.92
446.839	32930.83
447.046	31904.79
447.252	33473.54
447.459	33285.12
447.665	33430.53
447.871	34831.34
448.078	36068.31
448.284	34604.02
448.491	35601.38
448.697	36770.77
448.903	37884.86
449.11	37669.83
449.316	37073.87
449.522	37643.2
449.728	38722.48
449.935	39160.75
450.141	38904.75
450.347	40049.56
450.553	38540.21
450.76	39250.86
450.966	40450.97
451.172	40262.55
451.378	40893.33
451.584	40141.72
451.791	40999.82
451.997	40881.04
452.203	41765.76
452.409	41458.57
452.615	41679.75
452.821	39754.66
453.027	39912.35
453.233	41472.9
453.44	39695.27
453.646	40143.77
453.852	40276.89
454.058	41059.21
454.264	39922.59
454.47	40778.64
454.676	40100.76
454.882	41323.4
455.088	37600.19
455.294	38454.2
455.5	38796.21
455.705	39117.74
455.911	38015.93
456.117	36871.12
456.323	36633.55
456.529	34515.95
456.735	35812.32
456.941	34814.96
457.147	34591.73
457.352	33287.17
457.558	33063.94
457.764	33002.5
457.97	32465.94
458.176	31886.36
458.381	31671.32
458.587	30149.68
458.793	30276.66
458.999	29004.87
459.204	30411.82
459.41	29752.38
459.616	27522.14
459.821	27894.87
460.027	27778.14
460.233	26995.81
460.438	25762.93
460.644	25916.53
460.85	25021.57
461.055	24630.41
461.261	24403.08
461.466	22701.22
461.672	21814.45
461.878	23676.05
462.083	21677.24
462.289	21583.03
462.494	21173.44
462.7	20485.32
462.905	19784.91
463.111	20311.24
463.316	20325.58
463.522	20167.88
463.727	20196.56
463.932	19920.08
464.138	19481.81
464.343	19686.61
464.549	19025.12
464.754	19852.5
464.959	19719.38
465.165	19604.69
465.37	18496.74
465.575	18146.54
465.781	18836.7
465.986	18982.11
466.191	18138.35
466.397	17741.04
466.602	16829.7
466.807	17833.2
467.012	17517.81
467.218	17263.86
467.423	17247.48
467.628	17368.31
467.833	18050.28
468.038	17462.52
468.244	16821.5
468.449	17687.79
468.654	16766.21
468.859	16743.68
469.064	16911.61
469.269	16084.23
469.474	16184.59
469.679	16540.93
469.885	16016.65
470.09	16235.78
470.295	16221.45
470.5	15621.39
470.705	15879.44
470.91	15529.24
471.115	15207.7
471.32	15674.64
471.525	15451.41
471.73	14908.7
471.935	15291.67
472.139	14495.01
472.344	14699.81
472.549	14429.48
472.754	14466.34
472.959	13962.54
473.164	13708.59
473.369	13675.82
473.574	14417.19
473.778	13880.62
473.983	13722.93
474.188	13600.05
474.393	13071.67
474.598	13196.6
474.802	13051.19
475.007	13004.09
475.212	12838.2
475.417	12555.58
475.621	12571.97
475.826	12674.37
476.031	12199.24
476.235	11877.71
476.44	12082.5
476.645	11941.19
476.849	12137.8
477.054	11885.9
477.259	11705.68
477.463	11732.3
477.668	11396.43
477.872	11500.88
478.077	11236.69
478.282	11244.88
478.486	10964.31
478.691	10782.04
478.895	10925.4
479.1	10722.65
479.304	10814.81
479.509	10648.93
479.713	10638.69
479.918	10487.14
480.122	10227.04
480.326	10460.51
480.531	10456.42
480.735	10243.43
480.94	10249.57
481.144	10749.28
481.348	10028.39
481.553	10265.96
481.757	10040.68
481.961	10120.55
482.166	10278.24
482.37	10130.79
482.574	9934.18
482.778	10116.45
482.983	10163.56
483.187	10175.84
483.391	10349.92
483.595	9921.9
483.8	9872.75
484.004	10036.58
484.208	10263.91
484.412	9985.38
484.616	9698.67
484.821	10059.11
485.025	9821.55
485.229	10003.82
485.433	9831.79
485.637	9856.36
485.841	9880.94
486.045	9934.18
486.249	9850.22
486.453	9786.73
486.657	9964.9
486.861	9803.11
487.065	9713
487.269	9917.8
487.473	9596.27
487.677	10009.96
487.881	9907.56
488.085	9692.52
488.289	9954.66
488.493	9882.99
488.697	10069.35
488.901	9934.18
489.105	9817.45
489.309	9864.55
489.512	9786.73
489.716	9899.37
489.92	9815.4
490.124	9856.36
490.328	10083.69
490.531	9780.59
490.735	9882.99
490.939	10061.16
491.143	9790.83
491.346	10120.55
491.55	10233.19
491.754	10020.2
491.958	10143.08
492.161	10335.59
492.365	10235.24
492.569	10122.6
492.772	10186.08
492.976	10192.23
493.18	10388.83
493.383	10368.35
493.587	10454.37
493.79	10601.82
493.994	10401.12
494.197	10681.69
494.401	10677.6
494.605	10771.8
494.808	10732.89
495.012	10782.04
495.215	10857.82
495.419	11015.51
495.622	10958.17
495.825	11148.63
496.029	11052.38
496.232	11294.04
496.436	11128.15
496.639	11478.35
496.843	11298.13
497.046	11627.85
497.249	11500.88
497.453	11629.9
497.656	11814.22
497.859	11777.36
498.063	12154.18
498.266	12412.23
498.469	12045.64
498.673	12098.89
498.876	12377.41
499.079	12784.96
499.282	12506.43
499.485	12887.36
499.689	12946.75
499.892	13086.01
500.095	13143.35
500.298	13348.15
500.501	13161.78
500.705	13608.24
500.908	13647.15
501.111	13737.26
501.314	14050.6
501.517	14153
501.72	14153
501.923	14247.21
502.126	14400.8
502.329	14775.58
502.532	14533.92
502.735	15095.07
502.938	15314.2
503.141	15199.51
503.344	15451.41
503.547	15394.07
503.75	15719.7
503.953	15588.63
504.156	15990.03
504.359	16049.42
504.562	16164.11
504.765	16409.86
504.968	16665.86
505.17	16913.66
505.373	16700.67
505.576	17138.94
505.779	17296.63
505.982	17415.41
506.185	17575.16
506.387	17870.06
506.59	17814.77
506.793	18224.36
506.996	17802.48
507.198	18615.52
507.401	18580.71
507.604	18687.2
507.807	18963.68
508.009	19463.38
508.212	19234.01
508.415	19465.43
508.617	20149.45
508.82	19754.19
509.022	19784.91
509.225	20411.59
509.428	20761.8
509.63	20759.75
509.833	20698.31
510.035	21193.92
510.238	21169.34
510.44	21298.36
510.643	21580.98
510.845	21869.75
511.048	21720.24
511.25	22019.25
511.453	22049.97
511.655	22934.69
511.858	22594.73
512.06	23129.25
512.262	23385.24
512.465	23243.93
512.667	23536.79
512.87	23755.93
513.072	24116.37
513.274	24425.61
513.477	24636.55
513.679	24814.73
513.881	25044.1
514.084	25367.68
514.286	25072.77
514.488	25369.72
514.69	25988.21
514.893	25908.34
515.095	26197.1
515.297	26276.98
515.499	26614.89
515.701	27106.4
515.904	26942.56
516.106	27245.66
516.308	27495.52
516.51	27655.26
516.712	27559
516.914	27976.79
517.116	28513.36
517.318	28417.1
517.52	28980.29
517.722	28953.67
517.925	28937.29
518.127	29602.88
518.329	29934.65
518.531	29396.03
518.733	29932.6
518.935	30141.49
519.136	30311.47
519.338	30542.89
519.54	30342.19
519.742	30798.89
519.944	30759.98
520.146	31894.55
520.348	31693.85
520.55	31605.79
520.752	31874.07
520.954	32418.83
521.155	32295.96
521.357	32474.13
521.559	32902.15
521.761	33002.5
521.963	33031.18
522.164	33342.47
522.366	33438.72
522.568	33455.11
522.77	33453.06
522.971	34143.22
523.173	33393.67
523.375	33965.05
523.576	34063.35
523.778	34325.49
523.98	34569.2
524.181	34862.06
524.383	34565.1
524.584	35326.95
524.786	35255.27
524.988	35216.36
525.189	35257.32
525.391	35187.69
525.592	35341.28
525.794	35933.15
525.995	35455.97
526.197	35599.33
526.398	35484.64
526.6	36031.45
526.801	35927
527.003	36111.32
527.204	35654.62
527.406	36328.41
527.607	35922.91
527.808	36242.39
528.01	35908.57
528.211	35894.24
528.412	36346.84
528.614	36393.94
528.815	36410.32
529.016	36897.74
529.218	36146.14
529.419	36393.94
529.62	36049.88
529.822	36381.65
530.023	36248.53
530.224	36195.29
530.425	36103.13
530.626	36021.21
530.828	35908.57
531.029	36467.67
531.23	36191.19
531.431	35963.87
531.632	36439
531.833	36172.76
532.035	36383.7
532.236	36178.9
532.437	36371.41
532.638	35797.98
532.839	36262.87
533.04	35992.54
533.241	35797.98
533.442	36506.58
533.643	36105.18
533.844	36019.16
534.045	35900.38
534.246	35390.44
534.447	35726.3
534.648	35351.52
534.849	36371.41
535.05	35638.24
535.251	35701.73
535.451	35421.16
535.652	35247.08
535.853	35490.79
536.054	35593.18
536.255	35632.1
536.456	35068.9
536.657	35953.63
536.857	35027.95
537.058	34745.33
537.259	35544.03
537.46	35367.91
537.66	34857.96
537.861	35261.41
538.062	35359.72
538.263	35058.67
538.463	34909.16
538.664	34491.38
538.865	35027.95
539.065	34972.65
539.266	34554.86
539.466	35296.23
539.667	34333.68
539.868	34808.81
540.068	34685.93
540.269	34405.36
540.469	34868.2
540.67	34147.32
540.87	34403.32
541.071	34481.14
541.271	34782.19
541.472	34653.17
541.672	34452.47
541.873	34331.64
542.073	34239.48
542.274	34595.82
542.474	34216.95
542.675	34266.1
542.875	34804.72
543.075	34593.78
543.276	33829.88
543.476	34253.81
543.676	33907.71
543.877	34184.18
544.077	33747.97
544.277	34092.02
544.478	34319.35
544.678	34288.63
544.878	34087.93
545.078	34276.34
545.279	33895.42
545.479	34092.02
545.679	33922.04
545.879	34038.78
546.079	33856.51
546.28	33893.37
546.48	33655.81
546.68	34319.35
546.88	34386.93
547.08	33922.04
547.28	34077.69
547.48	33633.28
547.68	33928.19
547.88	33729.53
548.081	34200.57
548.281	34116.6
548.481	33932.28
548.681	33975.29
548.881	34341.88
549.081	34483.19
549.28	33948.67
549.48	33977.34
549.68	34202.61
549.88	34341.88
550.08	33821.69
550.28	34206.71
550.48	34126.84
550.68	34157.56
550.88	33848.32
551.08	33963
551.279	34333.68
551.479	33838.08
551.679	34208.76
551.879	33766.4
552.079	34386.93
552.278	34425.84
552.478	33973.24
552.678	34280.44
552.878	34413.55
553.077	34059.26
553.277	34145.27
553.477	34720.75
553.676	34198.52
553.876	34055.16
554.076	34196.47
554.275	34262.01
554.475	34114.55
554.674	34577.39
554.874	34339.83
555.074	33993.72
555.273	34581.49
555.473	34466.8
555.672	34102.26
555.872	34337.78
556.071	34345.97
556.271	34862.06
556.47	34333.68
556.67	34163.7
556.869	34098.17
557.068	34591.73
557.268	34741.23
557.467	34855.92
557.667	34663.41
557.866	34591.73
558.065	34796.53
558.265	34524.15
558.464	34505.71
558.663	34653.17
558.863	34321.4
559.062	34935.79
559.261	34323.44
559.461	34817
559.66	34466.8
559.859	34606.06
560.058	34276.34
560.258	34544.62
560.457	34456.56
560.656	34644.98
560.855	34175.99
561.054	34579.44
561.253	34016.25
561.453	34665.46
561.652	34356.21
561.851	34386.93
562.05	34653.17
562.249	34067.45
562.448	34864.11
562.647	34087.93
562.846	34241.53
563.045	34704.37
563.244	34104.31
563.443	34608.11
563.642	33938.43
563.841	34536.43
564.04	33969.15
564.239	34417.65
564.438	34092.02
564.637	34040.82
564.836	34268.15
565.035	33854.46
565.234	33999.87
565.432	33838.08
565.631	33973.24
565.83	34284.53
566.029	34022.39
566.228	33790.97
566.427	33913.85
566.625	33879.04
566.824	33537.02
567.023	33858.56
567.222	33141.77
567.42	33860.6
567.619	33696.77
567.818	33244.16
568.016	33246.21
568.215	33616.9
568.414	33141.77
568.612	33688.57
568.811	33055.75
569.01	33381.38
569.208	32828.43
569.407	33090.57
569.605	32803.85
569.804	33303.56
570.002	32787.47
570.201	32820.24
570.4	32281.62
570.598	32670.73
570.797	32615.44
570.995	32586.77
571.193	32295.96
571.392	32465.94
571.59	32115.73
571.789	32324.63
571.987	32015.38
572.186	31917.08
572.384	32121.88
572.582	31974.42
572.781	32009.24
572.979	31718.43
573.177	31779.87
573.376	31642.65
573.574	31274.02
573.772	31630.37
573.971	31202.34
574.169	31278.11
574.367	30927.91
574.565	31620.13
574.763	31022.12
574.962	31106.09
575.16	30852.14
575.358	30757.93
575.556	30409.78
575.754	30694.44
575.952	30254.13
576.151	30970.92
576.349	30471.22
576.547	30434.35
576.745	30250.03
576.943	30458.93
577.141	29944.89
577.339	30237.75
577.537	29889.59
577.735	29815.87
577.933	29807.67
578.131	29654.08
578.329	29500.48
578.527	29750.33
578.725	29385.79
578.923	29799.48
579.121	29232.19
579.319	28892.23
579.516	29340.74
579.714	29142.08
579.912	29213.76
580.11	29000.77
580.308	28800.07
580.506	28781.64
580.704	28456.01
580.901	28677.19
581.099	28933.19
581.297	28535.88
581.495	28218.45
581.692	28681.29
581.89	28126.29
582.088	28527.69
582.285	28085.33
582.483	28173.39
582.681	27923.54
582.878	27841.62
583.076	27763.8
583.274	28093.52
583.471	27288.67
583.669	27860.05
583.866	27540.57
584.064	27698.27
584.262	27268.19
584.459	27350.11
584.657	27554.91
584.854	27319.39
585.052	27079.78
585.249	27421.79
585.447	27137.12
585.644	26604.65
585.841	27208.8
586.039	27294.82
586.236	26707.05
586.434	26645.61
586.631	26616.94
586.828	26661.99
587.026	26752.1
587.223	26668.14
587.42	26203.25
587.618	26270.83
587.815	26068.08
588.012	26264.69
588.21	26106.99
588.407	26432.62
588.604	26238.06
588.801	26018.93
588.999	25799.8
589.196	25865.33
589.393	25861.24
589.59	25781.37
589.787	25508.99
589.984	25566.33
590.182	25404.54
590.379	25863.29
590.576	25605.24
590.773	25586.81
590.97	25269.37
591.167	25361.53
591.364	25130.11
591.561	25707.64
591.758	25494.65
591.955	25248.89
592.152	25252.99
592.349	25152.64
592.546	25132.16
592.743	25042.05
592.94	24560.78
593.137	24802.44
593.334	25142.4
593.531	24931.46
593.727	25121.92
593.924	25064.58
594.121	24937.6
594.318	25013.38
594.515	24474.76
594.712	24820.87
594.908	24890.5
595.105	24861.83
595.302	24736.9
595.499	24689.8
595.696	24442
595.892	24431.76
596.089	24581.26
596.286	24487.05
596.482	24673.42
596.679	24587.4
596.876	24446.09
597.072	24308.88
597.269	24345.74
597.466	24233.1
597.662	24304.78
597.859	24145.04
598.055	24454.28
598.252	24077.46
598.448	24108.18
598.645	24792.2
598.841	24378.51
599.038	24142.99
599.234	24509.58
599.431	24362.12
599.627	24292.49
599.824	24620.17
600.02	24337.55
600.217	24478.86
600.413	24220.81
600.609	24358.03
600.806	24046.74
601.002	24396.94
601.198	24020.11
601.395	24151.18
601.591	24358.03
601.787	24591.5
601.984	24355.98
602.18	24380.56
602.376	24282.25
602.572	24022.16
602.769	24077.46
602.965	23909.52
603.161	24403.08
603.357	24061.07
603.553	24259.73
603.75	24220.81
603.946	24040.59
604.142	24435.85
604.338	23749.78
604.534	24489.1
604.73	23991.44
604.926	24454.28
605.122	24347.79
605.318	23958.67
605.514	24335.5
605.71	24321.16
605.906	24616.07
606.102	24661.13
606.298	24474.76
606.494	24343.69
606.69	24673.42
606.886	24360.08
607.082	24573.07
607.278	24753.29
607.474	24247.44
607.67	24704.14
607.866	24247.44
608.062	24722.57
608.257	24501.39
608.453	24654.98
608.649	24677.51
608.845	24777.86
609.041	24507.53
609.236	24829.06
609.432	24708.23
609.628	24761.48
609.824	24870.02
610.019	24933.51
610.215	25097.35
610.411	25314.43
610.606	24945.8
610.802	25083.01
610.998	24886.4
611.193	25341.05
611.389	25023.62
611.584	24986.75
611.78	24910.98
611.976	25289.85
612.171	25042.05
612.367	25193.6
612.562	25074.82
612.758	24708.23
612.953	24988.8
613.149	25246.85
613.344	25164.93
613.539	25543.8
613.735	25089.15
613.93	25482.36
614.126	25279.61
614.321	25410.68
614.517	25418.88
614.712	25367.68
614.907	25437.31
615.103	25783.41
615.298	25207.94
615.493	25427.07
615.688	25070.72
615.884	25894
616.079	25263.23
616.274	25519.23
616.47	25308.29
616.665	25367.68
616.86	25425.02
617.055	25130.11
617.25	25627.77
617.445	25390.2
617.641	24788.1
617.836	25484.41
618.031	25009.28
618.226	25603.19
618.421	25283.71
618.616	25283.71
618.811	24681.61
619.006	25502.84
619.201	24958.08
619.396	24974.47
619.591	24663.18
619.786	24986.75
619.981	24362.12
620.176	24728.71
620.371	24200.33
620.566	24437.9
620.761	24403.08
620.956	24697.99
621.151	24059.02
621.346	24515.72
621.541	24097.94
621.735	24327.31
621.93	23555.22
622.125	23743.64
622.32	23311.52
622.515	23979.15
622.709	23577.75
622.904	23454.87
623.099	23225.5
623.294	23587.99
623.488	23260.32
623.683	23440.54
623.878	22963.36
624.072	23245.98
624.267	22936.74
624.462	22912.16
624.656	22449.32
624.851	22598.82
625.046	22490.28
625.24	22473.9
625.435	22033.58
625.629	22289.58
625.824	22146.22
626.018	22162.61
626.213	21798.07
626.407	21972.14
626.602	21660.85
626.796	21537.98
626.991	21781.68
627.185	21429.43
627.38	21349.56
627.574	21159.1
627.768	21279.93
627.963	21126.33
628.157	20778.18
628.352	20581.57
628.546	20749.51
628.74	20532.42
628.935	20587.72
629.129	20393.16
629.323	20176.08
629.517	20030.67
629.712	20276.43
629.906	20245.71
630.1	19842.26
630.294	20384.97
630.489	19447
630.683	19803.35
630.877	19645.65
631.071	19399.9
631.265	19432.66
631.459	19129.56
631.653	19211.48
631.848	19156.19
632.042	19131.61
632.236	19086.56
632.43	19043.55
632.624	19037.41
632.818	18732.26
633.012	18523.37
633.206	18689.25
633.4	18449.64
633.594	18191.59
633.788	18091.24
633.982	18351.34
634.176	18367.72
634.369	17958.13
634.563	17951.98
634.757	17728.75
634.951	17894.64
635.145	17728.75
635.339	17640.69
635.533	17497.33
635.726	17323.26
635.92	17196.28
636.114	17196.28
636.308	17091.84
636.501	17007.87
636.695	17100.03
636.889	16858.37
637.083	16467.2
637.276	16690.43
637.47	16768.26
637.664	16325.89
637.857	16547.08
638.051	16368.9
638.244	16379.14
638.438	16047.37
638.632	16108.81
638.825	15844.62
639.019	15815.95
639.212	15594.77
639.406	15650.07
639.599	15553.81
639.793	15473.94
639.986	15113.5
640.18	15527.19
640.373	15320.34
640.567	15074.59
640.76	15125.79
640.954	15009.05
641.147	15019.29
641.34	15019.29
641.534	14853.41
641.727	14779.68
641.92	14591.27
642.114	14312.74
642.307	14564.64
642.5	14404.9
642.694	14271.78
642.887	14214.44
643.08	14259.49
643.273	14038.31
643.467	13761.84
643.66	14013.74
643.853	13796.65
644.046	13452.59
644.239	13378.87
644.432	13733.17
644.626	13204.79
644.819	13225.27
645.012	13282.61
645.205	13161.78
645.398	13258.04
645.591	13258.04
645.784	13045.05
645.977	12963.13
646.17	12868.92
646.363	12713.28
646.556	12449.09
646.749	12567.87
646.942	12576.06
647.135	12776.77
647.328	12723.52
647.521	12291.4
647.714	12203.33
647.907	12322.12
648.099	12311.88
648.292	11984.2
648.485	11990.35
648.678	11822.41
648.871	11703.63
649.064	11668.81
649.256	11865.42
649.449	11707.73
649.642	11521.36
649.835	11406.67
650.027	11515.22
650.22	11322.71
650.413	11554.13
650.605	11291.99
650.798	11183.45
650.991	11273.56
651.183	11107.67
651.376	11019.61
651.568	11150.68
651.761	11023.7
651.954	10947.93
652.146	10982.74
652.339	10749.28
652.531	10831.19
652.724	10585.44
652.916	10282.34
653.109	10632.54
653.301	10327.39
653.494	10476.9
653.686	10364.26
653.879	10425.7
654.071	10184.04
654.263	10118.5
654.456	10278.24
654.648	10106.21
654.84	9966.95
655.033	9973.1
655.225	9921.9
655.417	9778.54
655.61	9747.82
655.802	9723.24
655.994	9760.11
656.186	9543.02
656.379	9557.36
656.571	9545.07
656.763	9420.14
656.955	9577.84
657.148	9438.58
657.34	9241.97
657.532	9274.74
657.724	9172.34
657.916	9225.59
658.108	9127.28
658.3	9227.64
658.492	8963.45
658.684	8850.81
658.876	8899.96
659.068	8785.27
659.26	8826.23
659.452	8842.62
659.644	8869.24
659.836	8531.33
660.028	8693.12
660.22	8541.57
660.412	8441.22
660.604	8648.06
660.796	8447.36
660.988	8197.51
661.18	8344.96
661.372	8283.52
661.563	8279.43
661.755	8168.84
661.947	8170.88
662.139	8015.24
662.331	8064.39
662.522	8025.48
662.714	7968.13
662.906	7941.51
663.097	7976.33
663.289	8005
663.481	7908.74
663.673	7789.96
663.864	7767.43
664.056	7705.99
664.247	7570.83
664.439	7394.7
664.631	7450
664.822	7529.87
665.014	7472.53
665.205	7345.55
665.397	7247.25
665.588	7284.11
665.78	7161.23
665.971	7294.35
666.163	7093.65
666.354	7157.14
666.546	7245.2
666.737	7112.08
666.929	6903.19
667.12	7011.73
667.311	6974.87
667.503	6995.35
667.694	6935.96
667.885	6874.52
668.077	6716.83
668.268	6886.81
668.459	6768.02
668.651	6788.5
668.842	6841.75
669.033	6792.6
669.224	6735.26
669.416	6790.55
669.607	6509.98
669.798	6579.61
669.989	6591.9
670.18	6522.27
670.371	6458.78
670.563	6415.77
670.754	6415.77
670.945	6362.53
671.136	6518.17
671.327	6286.75
671.518	6466.97
671.709	6319.52
671.9	6378.91
672.091	6364.57
672.282	6063.52
672.473	6245.79
672.664	6180.26
672.855	6018.47
673.046	5936.55
673.237	6112.67
673.428	6151.59
673.619	5989.8
673.809	6010.28
674	5965.22
674.191	5948.84
674.382	6024.61
674.573	5926.31
674.764	5862.82
674.954	5957.03
675.145	5754.28
675.336	5901.73
675.527	5860.77
675.717	5752.23
675.908	5729.7
676.099	5715.37
676.289	5842.34
676.48	5535.15
676.671	5588.39
676.861	5649.83
677.052	5637.55
677.243	5825.96
677.433	5543.34
677.624	5621.16
677.814	5551.53
678.005	5590.44
678.195	5696.94
678.386	5748.14
678.576	5537.2
678.767	5629.35
678.957	5578.15
679.148	5592.49
679.338	5705.13
679.529	5449.13
679.719	5543.34
679.909	5483.95
680.1	5516.72
680.29	5553.58
680.481	5354.93
680.671	5457.32
680.861	5572.01
681.052	5422.51
681.242	5244.34
681.432	5375.41
681.622	5399.98
681.813	5473.71
682.003	5402.03
682.193	5506.48
682.383	5354.93
682.573	5395.89
682.764	5334.45
682.954	5178.8
683.144	5381.55
683.334	5369.26
683.524	5350.83
683.714	5297.58
683.904	5215.66
684.094	5277.1
684.284	5318.06
684.474	5334.45
684.664	5256.62
684.854	5141.94
685.044	5207.47
685.234	5227.95
685.424	5211.57
685.614	5166.51
685.804	5150.13
685.994	5109.17
686.184	5137.84
686.374	5111.22
686.564	4969.91
686.753	5207.47
686.943	4990.39
687.133	5057.97
687.323	5088.69
687.513	5096.88
687.702	4986.29
687.892	5090.74
688.082	4898.23
688.272	4941.24
688.461	4867.51
688.651	4982.2
688.841	4859.32
689.03	4910.52
689.22	4924.85
689.41	4890.04
689.599	4820.41
689.789	4806.07
689.979	4902.33
690.168	4947.38
690.358	4664.76
690.547	4756.92
690.737	4842.93
690.926	4744.63
691.116	4697.53
691.305	4783.54
691.495	4797.88
691.684	4642.23
691.874	4777.4
692.063	4640.19
692.252	4644.28
692.442	4761.02
692.631	4474.3
692.82	4554.17
693.01	4638.14
693.199	4588.99
693.388	4564.41
693.578	4392.38
693.767	4597.18
693.956	4445.63
694.146	4453.82
694.335	4486.59
694.524	4408.76
694.713	4511.16
694.902	4507.07
695.092	4361.66
695.281	4435.39
695.47	4558.27
695.659	4445.63
695.848	4281.79
696.037	4380.09
696.226	4554.17
696.415	4367.81
696.604	4427.2
696.793	4357.57
696.982	4279.74
697.171	4394.43
697.36	4335.04
697.549	4302.27
697.738	4287.93
697.927	4300.22
698.116	4326.85
698.305	4363.71
698.494	4220.35
698.683	4294.08
698.872	4347.33
699.061	4240.83
699.25	4212.16
699.438	4171.2
699.627	4189.63
699.816	4343.23
700.005	4173.25
700.193	4154.82
700.382	4177.34
700.571	4222.4
700.76	4244.93
700.948	4191.68
701.137	4048.32
701.326	4216.26
701.514	3993.03
701.703	4023.75
701.892	4027.84
702.08	4054.47
702.269	4056.51
702.457	4031.94
702.646	3988.93
702.834	3958.21
703.023	4042.18
703.212	3958.21
703.4	3937.73
703.589	3935.68
703.777	3952.07
703.965	3829.19
704.154	4058.56
704.342	3909.06
704.531	3986.88
704.719	3915.2
704.907	3941.83
705.096	3808.71
705.284	3945.92
705.472	3954.12
705.661	3788.23
705.849	3849.67
706.037	3960.26
706.226	3782.09
706.414	3782.09
706.602	3769.8
706.79	3884.48
706.979	3773.89
707.167	3896.77
707.355	3612.1
707.543	3786.18
707.731	3739.08
707.919	3728.84
708.107	3583.43
708.296	3696.07
708.484	3550.67
708.672	3622.34
708.86	3732.94
709.048	3587.53
709.236	3589.58
709.424	3560.91
709.612	3755.46
709.8	3601.87
709.988	3622.34
710.176	3515.85
710.364	3630.54
710.551	3640.78
710.739	3558.86
710.927	3556.81
711.115	3567.05
711.303	3476.94
711.491	3485.13
711.679	3538.38
711.866	3491.27
712.054	3401.16
712.242	3542.47
712.43	3481.03
712.617	3431.88
712.805	3298.77
712.993	3397.07
713.181	3341.77
713.368	3435.98
713.556	3362.25
713.744	3327.44
713.931	3493.32
714.119	3325.39
714.306	3347.92
714.494	3327.44
714.682	3337.68
714.869	3165.65
715.057	3294.67
715.244	3130.83
715.432	3364.3
715.619	3257.81
715.807	3261.9
715.994	3145.17
716.182	3259.85
716.369	3198.42
716.556	3296.72
716.744	3253.71
716.931	3155.41
717.119	3233.23
717.306	3229.13
717.493	3243.47
717.681	3163.6
717.868	3249.61
718.055	3204.56
718.242	3157.46
718.43	3065.3
718.617	3050.96
718.804	3073.49
718.991	3132.88
719.179	3155.41
719.366	3116.5
719.553	3083.73
719.74	3061.2
719.927	3001.81
720.114	2975.19
720.301	3065.3
720.488	2919.89
720.676	2993.62
720.863	3018.19
721.05	2950.61
721.237	3091.92
721.424	2964.95
721.611	3022.29
721.798	2887.12
721.985	2989.52
722.172	2936.28
722.358	2942.42
722.545	3036.63
722.732	2897.36
722.919	2926.04
723.106	2966.99
723.293	2975.19
723.48	2878.93
723.667	2993.62
723.853	2833.88
724.04	2917.84
724.227	2928.08
724.414	2837.97
724.6	2829.78
724.787	2780.63
724.974	2837.97
725.161	2715.09
725.347	2786.77
725.534	2776.53
725.72	2860.5
725.907	2770.39
726.094	2991.57
726.28	2766.29
726.467	2778.58
726.653	2756.05
726.84	2698.71
727.027	2786.77
727.213	2663.9
727.4	2704.85
727.586	2766.29
727.773	2786.77
727.959	2622.94
728.145	2667.99
728.332	2733.53
728.518	2715.09
728.705	2680.28
728.891	2764.25
729.077	2604.5
729.264	2643.42
729.45	2532.83
729.636	2713.05
729.823	2602.46
730.009	2797.01
730.195	2631.13
730.382	2725.33
730.568	2651.61
730.754	2643.42
730.94	2471.39
731.126	2694.61
731.313	2706.9
731.499	2588.12
731.685	2577.88
731.871	2502.11
732.057	2532.83
732.243	2573.78
732.429	2622.94
732.615	2598.36
732.801	2557.4
732.987	2475.48
733.173	2412
733.359	2600.41
733.545	2354.65
733.731	2438.62
733.917	2489.82
734.103	2549.21
734.289	2459.1
734.475	2368.99
734.661	2442.71
734.847	2436.57
735.033	2442.71
735.219	2498.01
735.404	2500.06
735.59	2385.37
735.776	2420.19
735.962	2475.48
736.148	2397.66
736.333	2397.66
736.519	2467.29
736.705	2547.16
736.89	2319.84
737.076	2403.8
737.262	2336.22
737.447	2399.71
737.633	2295.26
737.819	2352.6
738.004	2278.88
738.19	2328.03
738.375	2295.26
738.561	2409.95
738.747	2242.01
738.932	2231.77
739.118	2268.64
739.303	2332.12
739.489	2280.93
739.674	2266.59
739.859	2328.03
740.045	2268.64
740.23	2352.6
740.416	2254.3
740.601	2354.65
740.786	2258.4
740.972	2289.12
741.157	2119.14
741.342	2123.23
741.528	2149.86
741.713	2196.96
741.898	2215.39
742.084	2119.14
742.269	2221.53
742.454	2180.57
742.639	2063.84
742.824	2102.75
743.01	2145.76
743.195	1983.97
743.38	2057.7
743.565	2086.37
743.75	2110.94
743.935	1893.86
744.12	2112.99
744.305	1983.97
744.49	2026.98
744.675	2072.03
744.86	1918.43
745.045	1990.11
745.23	2141.66
745.415	1930.72
745.6	1996.26
745.785	1945.06
745.97	1959.39
746.155	1893.86
746.34	1904.1
746.525	1920.48
746.71	1930.72
746.895	1893.86
747.079	1850.85
747.264	1865.19
747.449	1795.56
747.634	2074.08
747.819	1824.23
748.003	1918.43
748.188	1752.55
748.373	1918.43
748.557	1857
748.742	1797.6
748.927	1760.74
749.111	1668.58
749.296	1740.26
749.481	1682.92
749.665	1773.03
749.85	1656.29
750.034	1715.69
750.219	1650.15
750.404	1609.19
750.588	1574.38
750.773	1623.53
750.957	1584.62
751.141	1588.71
751.326	1656.29
751.51	1570.28
751.695	1607.14
751.879	1598.95
752.064	1551.85
752.248	1648.1
752.432	1582.57
752.617	1629.67
752.801	1500.65
752.985	1494.51
753.17	1570.28
753.354	1496.55
753.538	1486.31
753.722	1476.07
753.907	1426.92
754.091	1410.54
754.275	1451.5
754.459	1396.2
754.643	1342.96
754.828	1418.73
755.012	1435.11
755.196	1402.35
755.38	1336.81
755.564	1385.96
755.748	1258.99
755.932	1404.39
756.116	1377.77
756.3	1322.48
756.484	1338.86
756.668	1306.09
756.852	1265.13
757.036	1236.46
757.22	1304.04
757.404	1322.48
757.588	1267.18
757.772	1320.43
757.956	1312.24
758.14	1310.19
758.323	1189.36
758.507	1271.28
758.691	1271.28
758.875	1271.28
759.059	1172.97
759.242	1189.36
759.426	1162.73
759.61	1279.47
759.794	1293.8
759.977	1234.41
760.161	1189.36
760.345	1140.21
760.528	1132.01
760.712	1058.29
760.895	1086.96
761.079	1125.87
761.263	1222.13
761.446	1070.58
761.63	982.51
761.813	1115.63
761.997	988.66
762.18	1140.21
762.364	1070.58
762.547	1082.86
762.731	1033.71
762.914	1017.33
763.098	1054.19
763.281	1074.67
763.464	1021.42
763.648	1074.67
763.831	1084.91
764.015	1005.04
764.198	1058.29
764.381	935.41
764.564	1015.28
764.748	988.66
764.931	1109.49
765.114	1037.81
765.297	1025.52
765.481	1009.14
765.664	1005.04
765.847	976.37
766.03	1089.01
766.213	1017.33
766.397	1027.57
766.58	953.84
766.763	996.85
766.946	976.37
767.129	1005.04
767.312	919.03
767.495	1025.52
767.678	964.08
767.861	910.83
768.044	1043.95
768.227	978.42
768.41	933.36
768.593	974.32
768.776	964.08
768.959	902.64
769.142	978.42
769.324	925.17
769.507	962.03
769.69	888.31
769.873	867.83
770.056	914.93
770.239	861.68
770.421	978.42
770.604	857.59
770.787	861.68
770.97	855.54
771.152	841.2
771.335	873.97
771.518	818.68
771.7	902.64
771.883	927.22
772.066	880.11
772.248	790
772.431	900.59
772.613	873.97
772.796	837.11
772.978	880.11
773.161	921.07
773.343	871.92
773.526	800.24
773.708	787.96
773.891	796.15
774.073	830.96
774.256	759.28
774.438	824.82
774.621	804.34
774.803	790
774.985	796.15
775.168	781.81
775.35	751.09
775.532	763.38
775.715	828.92
775.897	771.57
776.079	822.77
776.261	685.56
776.444	773.62
776.626	755.19
776.808	681.46
776.99	724.47
777.173	757.24
777.355	699.89
777.537	747
777.719	710.13
777.901	675.32
778.083	697.85
778.265	665.08
778.447	724.47
778.629	652.79
778.811	695.8
778.993	663.03
779.175	667.13
779.357	656.89
779.539	718.33
779.721	734.71
779.903	558.58
780.085	712.18
780.267	646.65
780.449	617.97
780.631	677.37
780.812	601.59
780.994	587.26
781.176	642.55
781.358	626.17
781.54	648.69
781.721	640.5
781.903	638.45
782.085	558.58
782.267	607.73
782.448	544.25
782.63	601.59
782.812	609.78
782.993	566.78
783.175	624.12
783.357	579.06
783.538	521.72
783.72	519.67
783.901	536.06
784.083	624.12
784.264	503.29
784.446	431.61
784.627	435.71
784.809	583.16
784.99	495.1
785.172	507.38
785.353	558.58
785.535	513.53
785.716	474.62
785.897	488.95
786.079	447.99
786.26	544.25
786.441	536.06
786.623	411.13
786.804	509.43
786.985	493.05
787.167	501.24
787.348	402.94
787.529	380.41
787.71	462.33
787.891	534.01
788.073	488.95
788.254	493.05
788.435	460.28
788.616	476.66
788.797	484.86
788.978	378.36
789.159	447.99
789.34	386.55
789.522	370.17
789.703	347.64
789.884	372.22
790.065	394.75
790.246	484.86
790.427	394.75
790.607	427.51
790.788	409.08
790.969	413.18
791.15	339.45
791.331	370.17
791.512	341.5
791.693	310.78
791.874	323.07
792.054	425.47
792.235	380.41
792.416	347.64
792.597	296.44
792.778	355.83
792.958	341.5
793.139	339.45
793.32	378.36
793.5	390.65
793.681	411.13
793.862	411.13
794.042	323.07
794.223	321.02
794.404	251.39
794.584	280.06
794.765	351.74
794.945	312.83
795.126	372.22
795.306	323.07
795.487	366.07
795.667	265.72
795.848	325.12
796.028	361.98
796.209	378.36
796.389	310.78
796.57	253.44
796.75	312.83
796.93	282.11
797.111	288.25
797.291	273.92
797.471	269.82
797.652	312.83
797.832	325.12
798.012	282.11
798.192	273.92
798.373	230.91
798.553	302.59
798.733	323.07
798.913	290.3
799.093	226.81
799.274	300.54
799.454	282.11
799.634	321.02
799.814	312.83
799.994	257.53
800.174	337.4
800.354	296.44
800.534	249.34
800.714	271.87
800.894	247.29
801.074	245.24
801.254	304.64
801.434	273.92
801.614	194.05
801.794	230.91
801.974	1021.42
802.154	288.25
802.334	249.34
802.514	196.09
802.693	271.87
802.873	275.96
803.053	280.06
803.233	239.1
803.413	206.33
803.592	263.68
803.772	255.48
803.952	232.96
804.131	241.15
804.311	249.34
804.491	255.48
804.67	245.24
804.85	239.1
805.03	275.96
805.209	280.06
805.389	241.15
805.568	247.29
805.748	222.72
805.928	187.9
806.107	255.48
806.287	257.53
806.466	249.34
806.646	251.39
806.825	198.14
807.004	169.47
807.184	208.38
807.363	282.11
807.543	239.1
807.722	132.61
807.901	206.33
808.081	189.95
808.26	202.24
808.439	239.1
808.619	269.82
808.798	179.71
808.977	226.81
809.156	306.68
809.336	204.28
809.515	120.32
809.694	120.32
809.873	181.76
810.052	194.05
810.231	230.91
810.411	85.5
810.59	198.14
810.769	157.18
810.948	282.11
811.127	140.8
811.306	124.41
811.485	175.61
811.664	280.06
811.843	165.37
812.022	136.7
812.201	194.05
812.38	159.23
812.559	167.42
812.737	198.14
812.916	112.13
813.095	198.14
813.274	183.81
813.453	214.52
813.632	116.22
813.811	173.57
813.989	214.52
814.168	183.81
814.347	146.94
814.526	159.23
814.704	261.63
814.883	247.29
815.062	148.99
815.24	192
815.419	54.78
815.598	194.05
815.776	58.88
815.955	232.96
816.133	138.75
816.312	157.18
816.49	134.65
816.669	206.33
816.847	183.81
817.026	189.95
817.204	101.89
817.383	144.89
817.561	134.65
817.74	194.05
817.918	214.52
818.097	99.84
818.275	167.42
818.453	103.93
818.632	118.27
818.81	165.37
818.988	189.95
819.167	118.27
819.345	128.51
819.523	181.76
819.701	169.47
819.879	218.62
820.058	185.85
820.236	153.09
820.414	146.94
820.592	132.61
820.77	202.24
820.948	181.76
821.127	148.99
821.305	110.08
821.483	67.07
821.661	169.47
821.839	155.13
822.017	91.65
822.195	126.46
822.373	103.93
822.551	93.69
822.729	181.76
822.907	99.84
823.085	142.85
823.262	124.41
823.44	116.22
823.618	79.36
823.796	77.31
823.974	93.69
824.152	130.56
824.329	103.93
824.507	165.37
824.685	83.45
824.863	151.04
825.04	185.85
825.218	140.8
825.396	167.42
825.574	75.26
825.751	116.22
825.929	126.46
826.107	71.17
826.284	142.85
826.462	122.37
826.639	110.08
826.817	91.65
826.994	108.03
827.172	-23.04
827.349	177.66
827.527	181.76
827.704	91.65
827.882	99.84
828.059	177.66
828.237	83.45
828.414	101.89
828.591	87.55
828.769	116.22
828.946	140.8
829.124	142.85
829.301	124.41
829.478	79.36
829.655	171.52
829.833	77.31
830.01	5.63
830.187	169.47
830.364	83.45
830.542	46.59
830.719	151.04
830.896	206.33
831.073	85.5
831.25	151.04
831.427	148.99
831.604	151.04
831.782	116.22
831.959	116.22
832.136	87.55
832.313	103.93
832.49	32.26
832.667	153.09
832.844	95.74
833.021	148.99
833.198	44.54
833.374	140.8
833.551	54.78
833.728	148.99
833.905	85.5
834.082	71.17
834.259	42.5
834.436	99.84
834.612	40.45
834.789	97.79
834.966	67.07
835.143	22.02
835.319	62.98
835.496	130.56
835.673	153.09
835.85	38.4
836.026	85.5
836.203	120.32
836.38	75.26
836.556	118.27
836.733	24.06
836.909	151.04
837.086	62.98
837.262	5.63
837.439	46.59
837.616	132.61
837.792	54.78
837.968	60.93
838.145	26.11
838.321	114.17
838.498	77.31
838.674	101.89
838.851	83.45
839.027	105.98
839.203	124.41
839.38	126.46
839.556	52.74
839.732	101.89
839.909	69.12
840.085	75.26
840.261	-12.8
840.437	83.45
840.614	93.69
840.79	91.65
840.966	73.21
841.142	65.02
841.318	-72.19
841.494	108.03
841.671	114.17
841.847	95.74
842.023	79.36
842.199	9.73
842.375	124.41
842.551	60.93
842.727	83.45
842.903	132.61
843.079	17.92
843.255	136.7
843.431	48.64
843.607	142.85
843.783	38.4
843.959	46.59
844.134	-64
844.31	116.22
844.486	77.31
844.662	101.89
844.838	3.58
845.013	91.65
845.189	194.05
845.365	161.28
845.541	36.35
845.716	-39.42
845.892	95.74
846.068	126.46
846.244	85.5
846.419	22.02
846.595	83.45
846.77	91.65
846.946	148.99
847.122	44.54
847.297	77.31
847.473	50.69
847.648	83.45
847.824	58.88
847.999	46.59
848.175	83.45
848.35	42.5
848.526	75.26
848.701	60.93
848.876	108.03
849.052	26.11
849.227	7.68
849.403	34.3
849.578	38.4
849.753	44.54
849.929	81.41
850.104	-27.14
850.279	38.4
850.454	89.6
850.63	71.17
850.805	87.55
850.98	60.93
851.155	87.55
851.33	134.65
851.505	28.16
851.681	99.84
851.856	54.78
852.031	116.22
852.206	28.16
852.381	17.92
852.556	83.45
852.731	58.88
852.906	54.78
853.081	126.46
853.256	122.37
853.431	-39.42
853.606	108.03
853.781	9.73
853.956	22.02
854.131	93.69
854.305	65.02
854.48	44.54
854.655	5.63
854.83	91.65
855.005	46.59
855.18	69.12
855.354	62.98
855.529	19.97
855.704	22.02
855.879	93.69
856.053	-20.99
856.228	65.02
856.403	-23.04
856.577	-2.56
856.752	75.26
856.926	75.26
857.101	54.78
857.276	19.97
857.45	-4.61
857.625	26.11
857.799	112.13
857.974	9.73
858.148	-92.67
858.323	22.02
858.497	69.12
858.672	52.74
858.846	34.3
859.02	85.5
859.195	-0.51
859.369	58.88
859.543	89.6
859.718	34.3
859.892	38.4
860.066	38.4
860.241	9.73
860.415	-14.85
860.589	26.11
860.763	120.32
860.938	40.45
861.112	71.17
861.286	5.63
861.46	-45.57
861.634	42.5
861.808	42.5
861.982	77.31
862.157	28.16
862.331	54.78
862.505	-6.66
862.679	11.78
862.853	13.82
863.027	-35.33
863.201	34.3
863.375	42.5
863.549	44.54
863.722	83.45
863.896	34.3
864.07	19.97
864.244	44.54
864.418	71.17
864.592	87.55
864.766	-6.66
864.939	22.02
865.113	-14.85
865.287	93.69
865.461	105.98
865.634	56.83
865.808	71.17
865.982	50.69
866.156	-2.56
866.329	9.73
866.503	65.02
866.676	30.21
866.85	95.74
867.024	-6.66
867.197	17.92
867.371	93.69
867.544	91.65
867.718	-31.23
867.891	36.35
868.065	-14.85
868.238	1.54
868.412	54.78
868.585	93.69
868.759	-20.99
868.932	34.3
869.105	44.54
869.279	75.26
869.452	26.11
869.625	67.07
869.799	9.73
869.972	-23.04
870.145	-41.47
870.319	52.74
870.492	30.21
870.665	-47.62
870.838	-31.23
871.011	-45.57
871.185	-10.75
871.358	30.21
871.531	67.07
871.704	-64
871.877	34.3
872.05	34.3
872.223	44.54
872.396	52.74
872.569	91.65
872.742	-76.29
872.915	62.98
873.088	26.11
873.261	54.78
873.434	71.17
873.607	58.88
873.78	26.11
873.953	77.31
874.126	22.02
874.299	44.54
874.471	-10.75
874.644	28.16
874.817	69.12
874.99	91.65
875.163	17.92
875.335	-33.28
875.508	50.69
875.681	1.54
875.853	-33.28
876.026	36.35
876.199	46.59
876.371	-39.42
876.544	-14.85
876.717	46.59
876.889	42.5
877.062	17.92
877.234	83.45
877.407	-31.23
877.579	-41.47
877.752	-10.75
877.924	28.16
878.097	30.21
878.269	79.36
878.442	44.54
878.614	75.26
878.786	15.87
878.959	71.17
879.131	67.07
879.303	-14.85
879.476	99.84
879.648	128.51
879.82	-45.57
879.993	9.73
880.165	44.54
880.337	1.54
880.509	-20.99
880.681	-14.85
880.854	99.84
881.026	34.3
881.198	34.3
881.37	36.35
881.542	58.88
881.714	26.11
881.886	58.88
882.058	42.5
882.23	19.97
882.402	22.02
882.574	79.36
882.746	5.63
882.918	44.54
883.09	-33.28
883.262	91.65
883.434	1.54
883.606	5.63
883.778	44.54
883.95	87.55
884.122	-14.85
884.293	42.5
884.465	9.73
884.637	85.5
884.809	19.97
884.98	17.92
885.152	1.54
885.324	5.63
885.496	19.97
885.667	67.07
885.839	36.35
886.011	81.41
886.182	30.21
886.354	116.22
886.525	17.92
886.697	-31.23
886.869	54.78
887.04	-74.24
887.212	99.84
887.383	67.07
887.555	52.74
887.726	46.59
887.897	9.73
888.069	26.11
888.24	44.54
888.412	-4.61
888.583	50.69
888.754	17.92
888.926	-29.18
889.097	79.36
889.268	-29.18
889.44	69.12
889.611	60.93
889.782	50.69
889.953	-6.66
890.125	44.54
890.296	22.02
890.467	-23.04
890.638	15.87
890.809	17.92
890.98	11.78
891.151	62.98
891.323	30.21
891.494	-45.57
891.665	-2.56
891.836	11.78
892.007	38.4
892.178	-4.61
892.349	34.3
892.52	9.73
892.691	5.63
892.862	69.12
893.032	-18.94
893.203	38.4
893.374	48.64
893.545	50.69
893.716	26.11
893.887	1.54
894.057	75.26
894.228	-2.56
894.399	17.92
894.57	48.64
894.74	75.26
894.911	-53.76
895.082	30.21
895.253	9.73
895.423	5.63
895.594	28.16
895.764	44.54
895.935	48.64
896.106	9.73
896.276	5.63
896.447	19.97
896.617	-6.66
896.788	-12.8
896.958	7.68
897.129	36.35
897.299	75.26
897.47	1.54
897.64	75.26
897.81	56.83
897.981	75.26
898.151	5.63
898.322	-43.52
898.492	44.54
898.662	-8.7
898.832	-4.61
899.003	1.54
899.173	91.65
899.343	-20.99
899.513	-29.18
