Data from USB4F104151__117__14-31-13-761.txt Node

Date: Thu Mar 13 14:31:13 EDT 2025
User: louis
Spectrometer: USB4F10415
Trigger mode: 4
Integration Time (sec): 2.500000E-2
Scans to average: 1
Electric dark correction enabled: true
Nonlinearity correction enabled: false
Boxcar width: 0
XAxis mode: Wavelengths
Number of Pixels in Spectrum: 3648
>>>>>Begin Spectral Data<<<<<
178.204	-122.02
178.424	-122.02
178.644	-122.02
178.864	-187.56
179.084	-119.98
179.304	-1.19
179.524	19.29
179.744	9.05
179.964	-5.29
180.184	-62.63
180.404	25.43
180.624	43.86
180.844	25.43
181.064	-42.15
181.283	7
181.503	-68.78
181.723	50
181.943	-42.15
182.163	80.72
182.383	23.38
182.602	76.63
182.822	29.52
183.042	-50.35
183.262	-17.58
183.482	50
183.701	-19.63
183.921	39.76
184.141	-33.96
184.361	72.53
184.58	23.38
184.8	11.09
185.02	-64.68
185.239	109.4
185.459	31.57
185.679	70.48
185.898	-15.53
186.118	80.72
186.338	58.2
186.557	113.49
186.777	47.96
186.997	45.91
187.216	68.44
187.436	93.01
187.655	113.49
187.875	82.77
188.095	19.29
188.314	93.01
188.534	109.4
188.753	-48.3
188.973	39.76
189.192	68.44
189.412	9.05
189.631	-1.19
189.851	39.76
190.07	31.57
190.29	-42.15
190.509	15.19
190.729	-17.58
190.948	111.44
191.168	164.69
191.387	-7.34
191.607	-1.19
191.826	-50.35
192.045	41.81
192.265	64.34
192.484	11.09
192.704	64.34
192.923	19.29
193.142	127.83
193.362	90.96
193.581	66.39
193.8	99.16
194.02	47.96
194.239	-50.35
194.458	90.96
194.678	97.11
194.897	23.38
195.116	80.72
195.335	2.9
195.555	64.34
195.774	-1.19
195.993	101.2
196.212	72.53
196.432	-38.06
196.651	31.57
196.87	2.9
197.089	121.68
197.308	39.76
197.528	93.01
197.747	-15.53
197.966	33.62
198.185	72.53
198.404	-15.53
198.623	7
198.842	56.15
199.062	93.01
199.281	131.92
199.5	0.85
199.719	64.34
199.938	56.15
200.157	101.2
200.376	17.24
200.595	129.88
200.814	72.53
201.033	37.72
201.252	80.72
201.471	60.24
201.69	37.72
201.909	29.52
202.128	47.96
202.347	99.16
202.566	-17.58
202.785	-31.91
203.004	35.67
203.223	174.93
203.442	31.57
203.661	-38.06
203.879	86.87
204.098	47.96
204.317	72.53
204.536	21.33
204.755	23.38
204.974	66.39
205.193	105.3
205.411	84.82
205.63	80.72
205.849	-23.72
206.068	31.57
206.287	37.72
206.505	64.34
206.724	39.76
206.943	27.48
207.162	95.06
207.381	25.43
207.599	-46.25
207.818	19.29
208.037	7
208.255	-36.01
208.474	15.19
208.693	107.35
208.911	-9.39
209.13	72.53
209.349	-9.39
209.567	0.85
209.786	80.72
210.005	-56.49
210.223	125.78
210.442	21.33
210.661	-5.29
210.879	35.67
211.098	17.24
211.316	88.92
211.535	2.9
211.753	-9.39
211.972	43.86
212.191	86.87
212.409	-5.29
212.628	88.92
212.846	88.92
213.065	-11.43
213.283	80.72
213.502	90.96
213.72	-1.19
213.938	50
214.157	23.38
214.375	45.91
214.594	-25.77
214.812	86.87
215.031	33.62
215.249	39.76
215.467	72.53
215.686	31.57
215.904	125.78
216.122	93.01
216.341	80.72
216.559	27.48
216.778	105.3
216.996	41.81
217.214	56.15
217.432	31.57
217.651	-1.19
217.869	-46.25
218.087	39.76
218.306	74.58
218.524	54.1
218.742	35.67
218.96	162.64
219.179	-7.34
219.397	-9.39
219.615	64.34
219.833	68.44
220.051	25.43
220.27	99.16
220.488	117.59
220.706	39.76
220.924	17.24
221.142	-15.53
221.36	-3.24
221.578	21.33
221.796	-5.29
222.015	70.48
222.233	72.53
222.451	64.34
222.669	64.34
222.887	-36.01
223.105	-11.43
223.323	-33.96
223.541	23.38
223.759	52.05
223.977	41.81
224.195	72.53
224.413	11.09
224.631	39.76
224.849	-3.24
225.067	119.64
225.285	2.9
225.503	52.05
225.721	-21.67
225.939	33.62
226.157	-44.2
226.375	162.64
226.592	29.52
226.81	62.29
227.028	58.2
227.246	39.76
227.464	76.63
227.682	23.38
227.9	15.19
228.117	84.82
228.335	41.81
228.553	76.63
228.771	56.15
228.989	0.85
229.206	23.38
229.424	56.15
229.642	43.86
229.86	-9.39
230.077	56.15
230.295	107.35
230.513	74.58
230.731	90.96
230.948	99.16
231.166	60.24
231.384	52.05
231.601	33.62
231.819	129.88
232.037	-9.39
232.254	-9.39
232.472	88.92
232.689	60.24
232.907	88.92
233.125	72.53
233.342	97.11
233.56	-109.74
233.777	33.62
233.995	11.09
234.213	31.57
234.43	64.34
234.648	76.63
234.865	9.05
235.083	64.34
235.3	15.19
235.518	27.48
235.735	68.44
235.953	7
236.17	-31.91
236.388	99.16
236.605	60.24
236.822	43.86
237.04	109.4
237.257	64.34
237.475	7
237.692	84.82
237.909	58.2
238.127	86.87
238.344	62.29
238.562	11.09
238.779	-13.48
238.996	-17.58
239.214	27.48
239.431	39.76
239.648	84.82
239.865	121.68
240.083	-5.29
240.3	7
240.517	82.77
240.735	43.86
240.952	0.85
241.169	-13.48
241.386	17.24
241.603	-21.67
241.821	47.96
242.038	56.15
242.255	7
242.472	43.86
242.689	56.15
242.907	64.34
243.124	-23.72
243.341	62.29
243.558	-5.29
243.775	-99.5
243.992	-54.44
244.209	97.11
244.426	84.82
244.643	15.19
244.86	-17.58
245.078	52.05
245.295	29.52
245.512	90.96
245.729	-74.92
245.946	72.53
246.163	41.81
246.38	58.2
246.597	78.68
246.814	54.1
247.031	88.92
247.248	58.2
247.464	115.54
247.681	31.57
247.898	15.19
248.115	54.1
248.332	9.05
248.549	86.87
248.766	101.2
248.983	17.24
249.2	80.72
249.417	68.44
249.633	82.77
249.85	37.72
250.067	64.34
250.284	-7.34
250.501	15.19
250.717	90.96
250.934	17.24
251.151	-7.34
251.368	31.57
251.585	21.33
251.801	58.2
252.018	-25.77
252.235	56.15
252.451	-19.63
252.668	-17.58
252.885	64.34
253.102	23.38
253.318	41.81
253.535	-13.48
253.752	7
253.968	15.19
254.185	37.72
254.401	0.85
254.618	93.01
254.835	23.38
255.051	43.86
255.268	56.15
255.484	68.44
255.701	37.72
255.917	31.57
256.134	-13.48
256.351	7
256.567	-1.19
256.784	7
257	64.34
257.217	-9.39
257.433	54.1
257.65	47.96
257.866	66.39
258.082	23.38
258.299	62.29
258.515	-9.39
258.732	2.9
258.948	50
259.165	2.9
259.381	-21.67
259.597	121.68
259.814	19.29
260.03	50
260.246	23.38
260.463	115.54
260.679	68.44
260.895	25.43
261.112	47.96
261.328	27.48
261.544	9.05
261.761	195.41
261.977	105.3
262.193	27.48
262.409	37.72
262.626	60.24
262.842	68.44
263.058	31.57
263.274	64.34
263.49	25.43
263.707	90.96
263.923	76.63
264.139	-1.19
264.355	31.57
264.571	113.49
264.787	66.39
265.004	54.1
265.22	64.34
265.436	-9.39
265.652	72.53
265.868	64.34
266.084	-31.91
266.3	15.19
266.516	-79.02
266.732	27.48
266.948	-38.06
267.164	39.76
267.38	23.38
267.596	43.86
267.812	82.77
268.028	52.05
268.244	41.81
268.46	129.88
268.676	21.33
268.892	138.07
269.108	-29.87
269.324	19.29
269.54	43.86
269.756	33.62
269.972	39.76
270.188	125.78
270.403	27.48
270.619	117.59
270.835	56.15
271.051	-13.48
271.267	-11.43
271.483	-21.67
271.698	17.24
271.914	-83.11
272.13	80.72
272.346	97.11
272.562	-1.19
272.777	90.96
272.993	-7.34
273.209	88.92
273.425	160.59
273.64	-29.87
273.856	66.39
274.072	47.96
274.287	84.82
274.503	54.1
274.719	74.58
274.934	-17.58
275.15	-9.39
275.366	31.57
275.581	25.43
275.797	39.76
276.012	76.63
276.228	64.34
276.444	56.15
276.659	68.44
276.875	-46.25
277.09	90.96
277.306	47.96
277.521	82.77
277.737	47.96
277.952	0.85
278.168	52.05
278.383	101.2
278.599	31.57
278.814	154.45
279.03	9.05
279.245	41.81
279.461	15.19
279.676	31.57
279.892	-42.15
280.107	31.57
280.322	23.38
280.538	9.05
280.753	7
280.969	31.57
281.184	27.48
281.399	7
281.615	19.29
281.83	60.24
282.045	23.38
282.26	56.15
282.476	66.39
282.691	76.63
282.906	80.72
283.122	78.68
283.337	-1.19
283.552	154.45
283.767	7
283.983	39.76
284.198	88.92
284.413	23.38
284.628	17.24
284.843	93.01
285.058	0.85
285.274	31.57
285.489	-56.49
285.704	72.53
285.919	-38.06
286.134	-1.19
286.349	97.11
286.564	52.05
286.779	152.4
286.995	-50.35
287.21	9.05
287.425	105.3
287.64	-1.19
287.855	45.91
288.07	-15.53
288.285	35.67
288.5	9.05
288.715	19.29
288.93	93.01
289.145	88.92
289.36	107.35
289.575	31.57
289.79	64.34
290.004	105.3
290.219	-7.34
290.434	-7.34
290.649	76.63
290.864	9.05
291.079	54.1
291.294	72.53
291.509	66.39
291.724	82.77
291.938	52.05
292.153	117.59
292.368	58.2
292.583	47.96
292.798	121.68
293.012	113.49
293.227	103.25
293.442	-15.53
293.657	76.63
293.871	60.24
294.086	33.62
294.301	97.11
294.516	27.48
294.73	115.54
294.945	-38.06
295.16	29.52
295.374	37.72
295.589	66.39
295.804	43.86
296.018	31.57
296.233	29.52
296.447	138.07
296.662	2.9
296.877	70.48
297.091	93.01
297.306	121.68
297.52	11.09
297.735	31.57
297.949	27.48
298.164	45.91
298.378	68.44
298.593	31.57
298.807	39.76
299.022	64.34
299.236	54.1
299.451	25.43
299.665	15.19
299.88	-9.39
300.094	23.38
300.309	80.72
300.523	72.53
300.737	35.67
300.952	68.44
301.166	25.43
301.381	11.09
301.595	-15.53
301.809	-33.96
302.024	15.19
302.238	27.48
302.452	121.68
302.667	15.19
302.881	64.34
303.095	64.34
303.309	52.05
303.524	45.91
303.738	27.48
303.952	-9.39
304.166	21.33
304.381	64.34
304.595	117.59
304.809	-23.72
305.023	105.3
305.237	39.76
305.452	64.34
305.666	72.53
305.88	123.73
306.094	19.29
306.308	52.05
306.522	45.91
306.736	-46.25
306.95	84.82
307.164	23.38
307.379	70.48
307.593	97.11
307.807	90.96
308.021	101.2
308.235	74.58
308.449	-83.11
308.663	-7.34
308.877	70.48
309.091	37.72
309.305	-13.48
309.519	-40.11
309.733	64.34
309.947	9.05
310.161	68.44
310.374	25.43
310.588	109.4
310.802	58.2
311.016	50
311.23	21.33
311.444	56.15
311.658	39.76
311.872	123.73
312.085	80.72
312.299	93.01
312.513	35.67
312.727	97.11
312.941	23.38
313.154	50
313.368	-7.34
313.582	103.25
313.796	-29.87
314.009	17.24
314.223	111.44
314.437	105.3
314.651	80.72
314.864	35.67
315.078	74.58
315.292	35.67
315.505	88.92
315.719	41.81
315.933	64.34
316.146	68.44
316.36	47.96
316.573	15.19
316.787	43.86
317.001	-25.77
317.214	35.67
317.428	27.48
317.641	9.05
317.855	52.05
318.068	66.39
318.282	72.53
318.495	109.4
318.709	125.78
318.922	90.96
319.136	88.92
319.349	27.48
319.563	84.82
319.776	39.76
319.99	-1.19
320.203	88.92
320.417	-3.24
320.63	43.86
320.843	97.11
321.057	0.85
321.27	82.77
321.483	72.53
321.697	68.44
321.91	39.76
322.124	97.11
322.337	58.2
322.55	66.39
322.763	7
322.977	27.48
323.19	31.57
323.403	47.96
323.617	52.05
323.83	88.92
324.043	13.14
324.256	19.29
324.469	15.19
324.683	115.54
324.896	107.35
325.109	131.92
325.322	19.29
325.535	23.38
325.748	129.88
325.962	47.96
326.175	17.24
326.388	23.38
326.601	60.24
326.814	35.67
327.027	62.29
327.24	74.58
327.453	-1.19
327.666	80.72
327.879	43.86
328.092	13.14
328.305	33.62
328.518	54.1
328.731	56.15
328.944	39.76
329.157	25.43
329.37	35.67
329.583	90.96
329.796	68.44
330.009	72.53
330.222	84.82
330.435	115.54
330.648	80.72
330.861	29.52
331.073	88.92
331.286	23.38
331.499	-13.48
331.712	0.85
331.925	111.44
332.138	88.92
332.35	47.96
332.563	-29.87
332.776	115.54
332.989	33.62
333.202	113.49
333.414	58.2
333.627	72.53
333.84	131.92
334.053	88.92
334.265	33.62
334.478	39.76
334.691	64.34
334.903	33.62
335.116	-29.87
335.329	17.24
335.541	60.24
335.754	107.35
335.966	-9.39
336.179	90.96
336.392	9.05
336.604	82.77
336.817	72.53
337.029	66.39
337.242	90.96
337.454	74.58
337.667	82.77
337.88	101.2
338.092	4.95
338.305	54.1
338.517	15.19
338.729	162.64
338.942	97.11
339.154	-9.39
339.367	-1.19
339.579	68.44
339.792	-25.77
340.004	138.07
340.217	23.38
340.429	138.07
340.641	-1.19
340.854	39.76
341.066	15.19
341.278	58.2
341.491	121.68
341.703	131.92
341.915	68.44
342.128	76.63
342.34	54.1
342.552	82.77
342.764	43.86
342.977	93.01
343.189	17.24
343.401	47.96
343.613	0.85
343.826	80.72
344.038	25.43
344.25	107.35
344.462	31.57
344.674	19.29
344.886	-19.63
345.099	64.34
345.311	76.63
345.523	60.24
345.735	-46.25
345.947	97.11
346.159	115.54
346.371	-25.77
346.583	-25.77
346.795	158.55
347.007	60.24
347.219	72.53
347.431	33.62
347.643	47.96
347.855	2.9
348.067	156.5
348.279	52.05
348.491	97.11
348.703	19.29
348.915	-36.01
349.127	88.92
349.339	72.53
349.551	27.48
349.763	33.62
349.975	97.11
350.187	39.76
350.399	56.15
350.61	72.53
350.822	93.01
351.034	70.48
351.246	72.53
351.458	72.53
351.669	43.86
351.881	113.49
352.093	99.16
352.305	80.72
352.517	127.83
352.728	131.92
352.94	105.3
353.152	56.15
353.363	13.14
353.575	74.58
353.787	150.36
353.999	80.72
354.21	101.2
354.422	66.39
354.633	64.34
354.845	105.3
355.057	109.4
355.268	25.43
355.48	72.53
355.692	-48.3
355.903	88.92
356.115	27.48
356.326	47.96
356.538	97.11
356.749	52.05
356.961	82.77
357.172	80.72
357.384	47.96
357.595	172.88
357.807	17.24
358.018	-50.35
358.23	47.96
358.441	93.01
358.653	64.34
358.864	47.96
359.075	80.72
359.287	56.15
359.498	183.12
359.709	11.09
359.921	41.81
360.132	66.39
360.344	78.68
360.555	56.15
360.766	64.34
360.977	-21.67
361.189	146.26
361.4	72.53
361.611	121.68
361.823	101.2
362.034	56.15
362.245	39.76
362.456	31.57
362.667	17.24
362.879	43.86
363.09	47.96
363.301	109.4
363.512	127.83
363.723	97.11
363.935	43.86
364.146	82.77
364.357	-7.34
364.568	84.82
364.779	68.44
364.99	113.49
365.201	101.2
365.412	72.53
365.623	50
365.834	99.16
366.045	60.24
366.256	111.44
366.467	43.86
366.678	72.53
366.889	17.24
367.1	56.15
367.311	138.07
367.522	-9.39
367.733	56.15
367.944	101.2
368.155	52.05
368.366	56.15
368.577	123.73
368.788	66.39
368.999	-19.63
369.209	56.15
369.42	72.53
369.631	166.74
369.842	35.67
370.053	17.24
370.264	95.06
370.474	80.72
370.685	99.16
370.896	-33.96
371.107	131.92
371.317	-9.39
371.528	95.06
371.739	64.34
371.95	52.05
372.16	150.36
372.371	31.57
372.582	154.45
372.792	115.54
373.003	25.43
373.214	90.96
373.424	131.92
373.635	-1.19
373.846	66.39
374.056	62.29
374.267	35.67
374.477	66.39
374.688	-3.24
374.898	0.85
375.109	80.72
375.319	17.24
375.53	72.53
375.74	97.11
375.951	84.82
376.161	35.67
376.372	86.87
376.582	64.34
376.793	66.39
377.003	19.29
377.214	39.76
377.424	64.34
377.635	15.19
377.845	23.38
378.055	146.26
378.266	2.9
378.476	107.35
378.686	66.39
378.897	50
379.107	142.16
379.317	109.4
379.528	39.76
379.738	86.87
379.948	15.19
380.158	64.34
380.369	88.92
380.579	-9.39
380.789	74.58
380.999	-33.96
381.21	117.59
381.42	195.41
381.63	-3.24
381.84	19.29
382.05	43.86
382.261	62.29
382.471	105.3
382.681	45.91
382.891	107.35
383.101	101.2
383.311	-42.15
383.521	74.58
383.731	90.96
383.941	97.11
384.151	52.05
384.361	105.3
384.571	162.64
384.781	144.21
384.991	97.11
385.201	88.92
385.411	174.93
385.621	47.96
385.831	50
386.041	146.26
386.251	82.77
386.461	133.97
386.671	56.15
386.881	105.3
387.091	68.44
387.301	97.11
387.511	109.4
387.72	105.3
387.93	154.45
388.14	66.39
388.35	97.11
388.56	115.54
388.769	72.53
388.979	111.44
389.189	58.2
389.399	80.72
389.609	152.4
389.818	84.82
390.028	82.77
390.238	127.83
390.447	64.34
390.657	146.26
390.867	47.96
391.076	82.77
391.286	52.05
391.496	97.11
391.705	88.92
391.915	123.73
392.125	121.68
392.334	31.57
392.544	142.16
392.753	33.62
392.963	41.81
393.172	148.31
393.382	33.62
393.591	78.68
393.801	58.2
394.01	170.83
394.22	146.26
394.429	56.15
394.639	170.83
394.848	86.87
395.058	68.44
395.267	105.3
395.477	168.79
395.686	113.49
395.895	195.41
396.105	240.47
396.314	129.88
396.524	195.41
396.733	64.34
396.942	152.4
397.152	113.49
397.361	84.82
397.57	138.07
397.78	56.15
397.989	166.74
398.198	172.88
398.407	101.2
398.617	113.49
398.826	187.22
399.035	152.4
399.244	172.88
399.453	123.73
399.663	88.92
399.872	82.77
400.081	199.51
400.29	236.37
400.499	68.44
400.708	170.83
400.917	127.83
401.127	146.26
401.336	183.12
401.545	195.41
401.754	234.32
401.963	179.03
402.172	228.18
402.381	164.69
402.59	199.51
402.799	138.07
403.008	191.31
403.217	246.61
403.426	209.75
403.635	113.49
403.844	179.03
404.053	150.36
404.262	146.26
404.471	164.69
404.68	191.31
404.888	181.07
405.097	179.03
405.306	277.33
405.515	213.84
405.724	205.65
405.933	260.95
406.142	228.18
406.35	267.09
406.559	230.23
406.768	260.95
406.977	289.62
407.185	316.24
407.394	256.85
407.603	252.75
407.812	267.09
408.02	285.52
408.229	355.15
408.438	271.19
408.646	281.43
408.855	318.29
409.064	277.33
409.272	367.44
409.481	408.4
409.69	400.21
409.898	410.45
410.107	246.61
410.315	465.74
410.524	447.31
410.733	424.78
410.941	453.45
411.15	490.32
411.358	549.71
411.567	539.47
411.775	531.28
411.984	607.05
412.192	611.15
412.401	658.25
412.609	650.06
412.818	621.39
413.026	811.85
413.234	736.07
413.443	736.07
413.651	709.45
413.86	682.83
414.068	877.38
414.276	846.66
414.485	744.27
414.693	981.83
414.901	969.54
415.11	940.87
415.318	957.25
415.526	1041.22
415.734	1088.32
415.943	1008.45
416.151	1073.99
416.359	1176.39
416.567	1235.78
416.776	1248.07
416.984	1280.83
417.192	1309.51
417.4	1332.03
417.608	1383.23
417.817	1456.96
418.025	1508.16
418.233	1637.18
418.441	1575.74
418.649	1682.24
418.857	1794.87
419.065	1792.83
419.273	1792.83
419.481	1917.75
419.689	1952.57
419.897	2134.84
420.105	2194.23
420.313	2229.04
420.521	2302.77
420.729	2251.57
420.937	2333.49
421.145	2450.22
421.353	2403.12
421.561	2601.77
421.769	2796.33
421.977	2908.97
422.185	2767.66
422.393	2865.96
422.601	3183.4
422.809	3031.85
423.017	3140.39
423.224	3310.37
423.432	3472.16
423.64	3447.58
423.848	3668.77
424.056	3709.72
424.263	4080.41
424.471	3889.95
424.679	4090.65
424.887	4240.15
425.094	4360.98
425.302	4393.75
425.51	4524.82
425.718	4637.45
425.925	4705.04
426.133	5049.1
426.341	5145.35
426.548	5503.75
426.756	5505.79
426.964	5522.18
427.171	5993.21
427.379	5989.11
427.586	6142.71
427.794	6306.55
428.001	6578.93
428.209	6789.87
428.417	6691.57
428.624	7183.08
428.832	7070.44
429.039	7097.07
429.247	6851.31
429.454	7809.76
429.662	8241.88
429.869	7781.09
430.076	8260.31
430.284	8227.54
430.491	8415.96
430.699	9059.02
430.906	8979.15
431.114	8989.39
431.321	9229
431.528	9435.85
431.736	10052.28
431.943	10633.91
432.15	10197.69
432.358	10377.91
432.565	10975.92
432.772	10736.31
432.979	11541.16
433.187	11770.53
433.394	11666.08
433.601	12460.7
433.808	12491.41
434.016	12335.77
434.223	13011.6
434.43	13542.02
434.637	13607.56
434.844	14408.31
435.052	14596.73
435.259	14330.49
435.466	14625.4
435.673	14416.51
435.88	15145.58
436.087	16566.87
436.294	16544.34
436.501	15915.62
436.708	16079.46
436.915	16669.27
437.122	17578.57
437.329	17418.83
437.537	18111.04
437.743	18393.66
437.95	18074.18
438.157	19069.49
438.364	20040.23
438.571	19503.66
438.778	20058.66
438.985	21701.13
439.192	20746.78
439.399	21340.69
439.606	20744.73
439.813	22008.33
440.02	23452.14
440.227	23048.69
440.433	22747.64
440.64	23472.62
440.847	23245.3
441.054	23886.31
441.261	25577.94
441.467	25076.18
441.674	25997.77
441.881	26732.99
442.088	26558.91
442.294	26423.75
442.501	27001.27
442.708	27369.91
442.914	28658.08
443.121	29452.69
443.328	28871.07
443.534	30855.55
443.741	30044.55
443.948	29530.51
444.154	31885.68
444.361	31713.65
444.568	31715.7
444.774	31811.95
444.981	32143.72
445.187	33044.83
445.394	34285.9
445.6	34029.9
445.807	36974.88
446.013	35494.2
446.22	36184.37
446.426	37564.7
446.633	37859.6
446.839	38932.74
447.046	37423.39
447.252	39538.94
447.459	39364.86
447.665	39534.84
447.871	41095.39
448.078	42905.8
448.284	40900.84
448.491	41769.18
448.697	43606.2
448.903	44269.75
449.11	44421.3
449.316	44005.56
449.522	44726.44
449.728	45949.08
449.935	46149.78
450.141	45979.8
450.347	47081.61
450.553	45729.95
450.76	46184.6
450.966	47417.47
451.172	46817.42
451.378	48461.94
451.584	47237.25
451.791	48820.33
451.997	48537.71
452.203	49182.82
452.409	49098.86
452.615	49156.2
452.821	47026.31
453.027	46649.49
453.233	48988.27
453.44	47200.39
453.646	47335.56
453.852	47468.67
454.058	48719.98
454.264	47057.03
454.47	48046.2
454.676	46911.63
454.882	48380.02
455.088	44904.62
455.294	45035.69
455.5	46043.29
455.705	45922.46
455.911	44558.51
456.117	43757.75
456.323	43126.98
456.529	40665.32
456.735	42602.7
456.941	41406.69
457.147	40702.18
457.352	39799.03
457.558	39325.95
457.764	39252.22
457.97	38510.86
458.176	37775.64
458.381	37304.6
458.587	35670.33
458.793	35547.45
458.999	34095.44
459.204	36391.21
459.41	35311.93
459.616	33126.75
459.821	33155.42
460.027	33081.69
460.233	32020.84
460.438	30720.38
460.644	30937.47
460.85	29471.12
461.055	28789.15
461.261	29186.46
461.466	26870.2
461.672	26098.12
461.878	27931.05
462.083	26063.3
462.289	25463.25
462.494	25197.01
462.7	24345.06
462.905	23773.67
463.111	24134.12
463.316	24621.53
463.522	24033.77
463.727	23966.18
463.932	24119.78
464.138	23462.38
464.343	23886.31
464.549	23263.73
464.754	23658.99
464.959	23658.99
465.165	23548.4
465.37	22026.76
465.575	21754.38
465.781	22559.23
465.986	22522.37
466.191	21930.5
466.397	21463.57
466.602	20625.95
466.807	21299.73
467.012	21445.13
467.218	21230.1
467.423	20877.85
467.628	21056.02
467.833	21729.8
468.038	20890.13
468.244	20576.8
468.449	21047.83
468.654	20433.44
468.859	20318.75
469.064	20118.05
469.269	19550.76
469.474	19393.07
469.679	20019.75
469.885	19409.45
470.09	19712.55
470.295	19456.56
470.5	18983.48
470.705	19343.92
470.91	18711.1
471.115	18592.31
471.32	19059.25
471.525	18752.06
471.73	18387.52
471.935	18287.17
472.139	17613.38
472.344	17562.19
472.549	17259.09
472.754	17699.4
472.959	17375.82
473.164	16792.15
473.369	16663.13
473.574	17240.65
473.778	16806.48
473.983	16613.98
474.188	16573.02
474.393	16126.56
474.598	16077.41
474.802	15868.52
475.007	15667.81
475.212	15901.28
475.417	15354.48
475.621	15368.81
475.826	15317.61
476.031	14996.08
476.235	14795.38
476.44	15073.9
476.645	14572.15
476.849	14705.27
477.054	14547.58
477.259	14312.06
477.463	14267
477.668	13951.62
477.872	14293.63
478.077	13714.05
478.282	13384.33
478.486	13439.62
478.691	13425.29
478.895	13296.27
479.1	13281.93
479.304	13271.69
479.509	13003.41
479.713	13185.68
479.918	12677.78
480.122	12724.88
480.326	12855.95
480.531	12771.99
480.735	12507.8
480.94	12384.92
481.144	12892.82
481.348	12354.2
481.553	12602.01
481.757	12182.17
481.961	12325.53
482.166	12559
482.37	12442.26
482.574	12118.68
482.778	12515.99
482.983	12454.55
483.187	12354.2
483.391	12149.4
483.595	12171.93
483.8	11977.37
484.004	12374.68
484.208	12303
484.412	12288.67
484.616	12262.04
484.821	12331.67
485.025	11903.65
485.229	12196.51
485.433	12212.89
485.637	12190.36
485.841	11950.75
486.045	12221.08
486.249	12077.73
486.453	12167.84
486.657	12343.96
486.861	12352.15
487.065	11975.33
487.269	12335.77
487.473	12253.85
487.677	12194.46
487.881	12286.62
488.085	11924.13
488.289	12298.91
488.493	12159.64
488.697	12335.77
488.901	12077.73
489.105	12264.09
489.309	12294.81
489.512	12034.72
489.716	12255.9
489.92	12251.8
490.124	12212.89
490.328	12489.37
490.531	12372.63
490.735	12300.95
490.939	12436.12
491.143	12528.28
491.346	12294.81
491.55	12688.02
491.754	12393.11
491.958	12776.08
492.161	12599.96
492.365	12569.24
492.569	12855.95
492.772	12671.64
492.976	12933.78
493.18	12778.13
493.383	13154.96
493.587	13075.09
493.79	13257.36
493.994	13050.51
494.197	13351.56
494.401	13324.94
494.605	13292.17
494.808	13499.02
495.012	13539.97
495.215	13701.76
495.419	13646.47
495.622	13716.1
495.825	13918.85
496.029	13851.27
496.232	14148.22
496.436	14111.36
496.639	14647.93
496.843	14340.73
497.046	14746.23
497.249	14744.18
497.453	14520.95
497.656	14807.67
497.859	14965.36
498.063	15264.36
498.266	15530.6
498.469	15448.68
498.673	15506.02
498.876	15682.15
499.079	15739.49
499.282	15942.24
499.485	16427.61
499.689	16335.45
499.892	16706.13
500.095	16439.9
500.298	16810.58
500.501	16908.88
500.705	17193.55
500.908	17150.54
501.111	17560.14
501.314	17760.84
501.517	17773.13
501.72	18143.81
501.923	18127.42
502.126	18397.76
502.329	18733.62
502.532	18743.86
502.735	18852.41
502.938	19253.81
503.141	19309.1
503.344	19753.51
503.547	19657.26
503.75	20060.71
503.953	20159.01
504.156	20582.94
504.359	20576.8
504.562	20683.29
504.765	21357.07
504.968	21234.19
505.17	21713.42
505.373	21541.39
505.576	21787.14
505.779	22209.03
505.982	22305.28
506.185	22452.73
506.387	22612.48
506.59	22561.28
506.793	23103.99
506.996	23427.57
507.198	23902.7
507.401	23781.87
507.604	24023.53
507.807	24564.19
508.009	24830.43
508.212	24680.92
508.415	25266.64
508.617	25387.47
508.82	25418.19
509.022	25590.22
509.225	26073.54
509.428	26460.61
509.63	26524.1
509.833	26417.6
510.035	26982.84
510.238	27103.67
510.44	27040.18
510.643	27785.65
510.845	28098.98
511.048	27988.39
511.25	28404.13
511.453	28768.67
511.655	29448.6
511.858	28971.42
512.06	29811.09
512.262	29866.38
512.465	29759.89
512.667	30194.06
512.87	30423.43
513.072	30458.24
513.274	31086.97
513.477	31076.73
513.679	31684.98
513.881	31613.3
514.084	32350.57
514.286	31959.41
514.488	32272.74
514.69	33421.66
514.893	33157.47
515.095	33073.5
515.297	33575.25
515.499	33913.17
515.701	34292.04
515.904	34410.82
516.106	34459.98
516.308	34959.68
516.51	35160.38
516.712	35379.51
516.914	36010.29
517.116	36075.82
517.318	36473.13
517.52	36471.08
517.722	36401.45
517.925	36958.5
518.127	37228.83
518.329	37232.93
518.531	37550.36
518.733	38498.57
518.935	38297.87
519.136	38367.5
519.338	38693.13
519.54	38906.12
519.742	39403.77
519.944	39448.83
520.146	39858.42
520.348	40286.45
520.55	40149.23
520.752	40222.96
520.954	40939.75
521.155	40915.17
521.357	41314.53
521.559	41224.42
521.761	41695.45
521.963	41914.58
522.164	42064.08
522.366	41965.78
522.568	42029.27
522.77	42846.41
522.971	42883.27
523.173	42705.1
523.375	42991.81
523.576	43202.75
523.778	43233.47
523.98	43856.06
524.181	43845.82
524.383	43567.29
524.584	44232.88
524.786	44787.88
524.988	44028.09
525.189	44578.99
525.391	45078.69
525.592	44327.09
525.794	45371.55
525.995	44796.07
526.197	44834.99
526.398	45045.93
526.6	45617.31
526.801	45740.19
527.003	45719.71
527.204	45330.59
527.406	45533.34
527.607	45633.69
527.808	46045.33
528.01	45314.21
528.211	45828.25
528.412	46719.12
528.614	46278.8
528.815	46125.21
529.016	46618.77
529.218	45916.31
529.419	46510.22
529.62	46121.11
529.822	46213.27
530.023	46571.66
530.224	46282.9
530.425	45961.37
530.626	45967.51
530.828	45842.59
531.029	46903.43
531.23	46194.84
531.431	46166.16
531.632	46149.78
531.833	46583.95
532.035	45838.49
532.236	46321.81
532.437	46825.61
532.638	45981.85
532.839	46393.49
533.04	46479.5
533.241	45830.3
533.442	46364.82
533.643	46014.62
533.844	46284.95
534.045	45965.46
534.246	46002.33
534.447	46381.2
534.648	46063.77
534.849	45828.25
535.05	46076.05
535.251	45850.78
535.451	45555.87
535.652	45742.24
535.853	45678.75
536.054	45932.7
536.255	45985.94
536.456	45469.86
536.657	46213.27
536.857	45605.02
537.058	45424.8
537.259	46043.29
537.46	45807.77
537.66	45764.76
537.861	46057.62
538.062	45439.14
538.263	45519.01
538.463	45361.31
538.664	45643.93
538.865	45725.85
539.065	45787.29
539.266	45400.22
539.466	46000.28
539.667	45123.75
539.868	45922.46
540.068	45181.09
540.269	45263.01
540.469	45408.42
540.67	45043.88
540.87	45217.96
541.071	45230.24
541.271	45512.86
541.472	44988.58
541.672	44877.99
541.873	45093.03
542.073	44249.27
542.274	45772.95
542.474	45043.88
542.675	44572.85
542.875	45189.28
543.075	45420.7
543.276	44650.67
543.476	45168.8
543.676	44759.21
543.877	45293.73
544.077	44673.2
544.277	44566.7
544.478	44683.44
544.678	44714.16
544.878	44845.23
545.078	44718.25
545.279	44359.86
545.479	44808.36
545.679	44910.76
545.879	45162.66
546.079	44884.14
546.28	44783.79
546.48	44683.44
546.68	45045.93
546.88	44622
547.08	44548.27
547.28	44783.79
547.48	44081.33
547.68	44409.01
547.88	44552.37
548.081	45303.97
548.281	44667.05
548.481	44705.96
548.681	44992.68
548.881	44765.35
549.081	44720.3
549.28	44390.58
549.48	45148.32
549.68	44761.26
549.88	44970.15
550.08	44456.11
550.28	45076.65
550.48	44798.12
550.68	45336.74
550.88	44341.42
551.08	44628.14
551.279	44517.55
551.479	44388.53
551.679	44665
551.879	44472.49
552.079	45217.96
552.278	44267.7
552.478	44527.79
552.678	44738.73
552.878	44945.58
553.077	44538.03
553.277	44200.11
553.477	45174.95
553.676	44611.76
553.876	44763.31
554.076	44861.61
554.275	44871.85
554.475	44243.12
554.674	44548.27
554.874	44675.24
555.074	44517.55
555.273	44738.73
555.473	45168.8
555.672	44531.89
555.872	44630.19
556.071	44544.17
556.271	44888.23
556.47	44196.02
556.67	43970.74
556.869	44361.9
557.068	44726.44
557.268	44366
557.467	44490.93
557.667	44517.55
557.866	44818.6
558.065	44591.28
558.265	44472.49
558.464	44361.9
558.663	44984.49
558.863	44421.3
559.062	45179.04
559.261	44439.73
559.461	45002.92
559.66	44433.58
559.859	44492.97
560.058	44634.28
560.258	44798.12
560.457	44341.42
560.656	44961.96
560.855	44443.82
561.054	45117.6
561.253	44263.6
561.453	44452.02
561.652	44755.11
561.851	45045.93
562.05	44783.79
562.249	43888.82
562.448	44798.12
562.647	44288.18
562.846	44400.82
563.045	44417.2
563.244	44134.58
563.443	44570.8
563.642	44130.48
563.841	44259.51
564.04	43937.97
564.239	44519.6
564.438	43757.75
564.637	44333.23
564.836	44302.51
565.035	43778.23
565.234	43997.37
565.432	43862.2
565.631	43919.54
565.83	44038.33
566.029	43802.81
566.228	43806.9
566.427	43675.83
566.625	43354.3
566.824	43346.11
567.023	43473.09
567.222	42870.98
567.42	44042.42
567.619	43284.67
567.818	43454.65
568.016	43186.37
568.215	43425.98
568.414	43131.08
568.612	43905.21
568.811	43260.1
569.01	43122.88
569.208	42201.3
569.407	43260.1
569.605	43012.29
569.804	43030.72
570.002	42506.44
570.201	42801.35
570.4	42371.28
570.598	42576.08
570.797	42203.35
570.995	42758.34
571.193	42023.12
571.392	42518.73
571.59	41769.18
571.789	41914.58
571.987	41937.11
572.186	41820.38
572.384	41152.74
572.582	41914.58
572.781	41822.42
572.979	41044.2
573.177	41769.18
573.376	41482.46
573.574	40902.89
573.772	41269.47
573.971	41185.5
574.169	40722.66
574.367	41015.52
574.565	41089.25
574.763	40562.92
574.962	40892.65
575.16	40415.47
575.358	40648.94
575.556	39936.24
575.754	40659.18
575.952	40040.69
576.151	40450.28
576.349	39506.17
576.547	40034.55
576.745	40282.35
576.943	40419.56
577.141	39686.39
577.339	40362.22
577.537	39235.84
577.735	39409.92
577.933	39184.64
578.131	39258.37
578.329	39119.1
578.527	38875.4
578.725	38795.53
578.923	39133.44
579.121	38801.67
579.319	38893.83
579.516	39145.73
579.714	38957.31
579.912	38351.12
580.11	38316.3
580.308	38437.13
580.506	38277.39
580.704	38054.16
580.901	38560.01
581.099	38775.05
581.297	38336.78
581.495	37609.75
581.692	37968.15
581.89	37507.35
582.088	37767.45
582.285	37458.2
582.483	37407
582.681	37366.04
582.878	37194.01
583.076	37140.77
583.274	37533.98
583.471	36739.36
583.669	37017.89
583.866	36972.83
584.064	37056.8
584.262	36454.7
584.459	36671.78
584.657	36796.71
584.854	36503.85
585.052	35787.06
585.249	36303.15
585.447	36475.18
585.644	35803.44
585.841	35760.44
586.039	36426.03
586.236	35778.87
586.434	35813.68
586.631	35844.4
586.828	35535.16
587.026	35842.35
587.223	35748.15
587.42	35334.46
587.618	35191.1
587.815	35481.91
588.012	34885.95
588.21	35273.02
588.407	35332.41
588.604	34793.79
588.801	34867.52
588.999	34830.66
589.196	34939.2
589.393	34662.72
589.59	34672.96
589.787	34490.7
589.984	34160.97
590.182	34257.23
590.379	34646.34
590.576	33988.94
590.773	34371.91
590.97	34044.24
591.167	34206.03
591.364	33567.06
591.561	33685.84
591.758	33511.77
591.955	33325.4
592.152	33810.77
592.349	33681.75
592.546	33655.12
592.743	33548.63
592.94	33020.25
593.137	33399.13
593.334	33597.78
593.531	32837.98
593.727	33171.8
593.924	33091.93
594.121	32768.35
594.318	33237.34
594.515	32719.2
594.712	33091.93
594.908	32567.65
595.105	32581.99
595.302	32594.28
595.499	32573.8
595.696	32272.74
595.892	32403.81
596.089	32825.7
596.286	32192.87
596.482	32078.19
596.679	32258.41
596.876	32012.65
597.072	32170.35
597.269	32227.69
597.466	31727.99
597.662	31875.44
597.859	32067.95
598.055	31924.59
598.252	31562.1
598.448	31773.04
598.645	31713.65
598.841	31390.07
599.038	31861.1
599.234	31555.96
599.431	31394.17
599.627	31433.08
599.824	31906.16
600.02	31678.83
600.217	31277.43
600.413	31269.24
600.609	31461.75
600.806	31254.9
601.002	31084.92
601.198	31035.77
601.395	31476.09
601.591	31011.2
601.787	31445.37
601.984	30980.48
602.18	31455.61
602.376	31003
602.572	30738.82
602.769	30984.57
602.965	30531.97
603.161	30968.19
603.357	30759.3
603.553	30540.16
603.75	31033.72
603.946	30697.86
604.142	30855.55
604.338	30290.31
604.534	31138.17
604.73	30812.54
604.926	30642.56
605.122	31041.92
605.318	30359.94
605.514	30710.14
605.71	30519.68
605.906	30765.44
606.102	30697.86
606.298	30421.38
606.494	30235.02
606.69	30564.74
606.886	30837.12
607.082	30071.18
607.278	30744.96
607.474	30292.36
607.67	30765.44
607.866	30251.4
608.062	30933.37
608.257	30581.12
608.453	30398.85
608.649	30849.41
608.845	30386.57
609.041	30523.78
609.236	30861.69
609.432	30708.1
609.628	30615.94
609.824	30615.94
610.019	30306.69
610.215	30534.02
610.411	30812.54
610.606	30357.89
610.802	30407.05
610.998	30798.21
611.193	30630.27
611.389	30171.53
611.584	30292.36
611.78	30316.93
611.976	30605.7
612.171	30841.21
612.367	30800.26
612.562	30290.31
612.758	30280.07
612.953	30642.56
613.149	30665.09
613.344	30284.17
613.539	30679.43
613.735	30435.72
613.93	30638.47
614.126	30478.72
614.321	30663.04
614.517	30615.94
614.712	30685.57
614.907	30372.23
615.103	30693.76
615.298	30751.1
615.493	30976.38
615.688	30175.62
615.884	30908.8
616.079	30359.94
616.274	30648.71
616.47	30187.91
616.665	30351.75
616.86	30241.16
617.055	30294.41
617.25	30007.69
617.445	30384.52
617.641	29630.87
617.836	30298.5
618.031	29895.05
618.226	30226.82
618.421	29688.21
618.616	30415.24
618.811	29643.15
619.006	30062.99
619.201	29256.09
619.396	29729.17
619.591	29268.37
619.786	29536.66
619.981	29161.88
620.176	29577.62
620.371	28889.5
620.566	29039
620.761	28621.22
620.956	29047.19
621.151	28643.74
621.346	28811.68
621.541	28508.58
621.735	28690.85
621.93	28094.89
622.125	28062.12
622.32	27908.52
622.515	28070.31
622.709	27765.17
622.904	27859.37
623.099	27781.55
623.294	27652.53
623.488	27472.31
623.683	27795.89
623.878	27058.62
624.072	27281.85
624.267	27496.88
624.462	27040.18
624.656	26692.03
624.851	26923.45
625.046	26702.27
625.24	26577.34
625.435	26444.23
625.629	26229.19
625.824	26096.07
626.018	25940.43
626.213	25797.07
626.407	25999.82
626.602	25608.65
626.796	25467.34
626.991	25678.29
627.185	25106.9
627.38	24893.91
627.574	24779.23
627.768	24758.75
627.963	24834.52
628.157	24660.45
628.352	24568.29
628.546	24365.54
628.74	24715.74
628.935	23794.15
629.129	23912.94
629.323	24017.38
629.517	23906.79
629.712	23689.71
629.906	23667.18
630.1	23190
630.294	23384.56
630.489	23095.8
630.683	23290.35
630.877	22878.71
631.071	22919.67
631.265	22931.96
631.459	22858.23
631.653	22559.23
631.848	22823.42
632.042	22309.38
632.236	22497.79
632.43	21950.98
632.624	22209.03
632.818	21813.77
633.012	21590.54
633.206	21809.67
633.4	21678.6
633.594	21262.86
633.788	21551.63
633.982	21363.22
634.176	21393.93
634.369	21281.3
634.563	21029.4
634.757	21033.49
634.951	21060.12
635.145	20892.18
635.339	20595.23
635.533	20750.87
635.726	20498.97
635.92	20242.98
636.114	20206.11
636.308	20150.82
636.501	20300.32
636.695	19890.73
636.889	19845.67
637.083	19743.27
637.276	19532.33
637.47	19620.39
637.664	19098.16
637.857	19419.69
638.051	19221.04
638.244	18989.62
638.438	18709.05
638.632	18754.1
638.825	18823.73
639.019	18590.27
639.212	18592.31
639.406	18917.94
639.599	18344.51
639.793	18131.52
639.986	18072.13
640.18	18215.49
640.373	17879.62
640.567	17683.02
640.76	17709.64
640.954	17263.18
641.147	17594.95
641.34	17328.72
641.534	17416.78
641.727	17152.59
641.92	17115.73
642.114	17117.78
642.307	16882.26
642.5	16966.23
642.694	16704.09
642.887	16890.45
643.08	16718.42
643.273	16603.74
643.467	16509.53
643.66	16312.92
643.853	15979.11
644.046	15995.49
644.239	16052.83
644.432	15991.39
644.626	16061.02
644.819	15710.82
645.012	15843.94
645.205	15678.05
645.398	15596.14
645.591	15344.24
645.784	15252.08
645.977	15073.9
646.17	15301.23
646.363	14883.44
646.556	15170.16
646.749	14883.44
646.942	14903.92
647.135	14856.82
647.328	14809.72
647.521	14600.82
647.714	14473.85
647.907	14420.6
648.099	14267
648.292	14551.67
648.485	14361.21
648.678	14054.01
648.871	14172.8
649.064	13847.17
649.256	14105.21
649.449	13818.5
649.642	13712
649.835	13752.96
650.027	13609.61
650.22	13486.73
650.413	13601.41
650.605	13296.27
650.798	13382.28
650.991	13109.9
651.183	13304.46
651.376	13169.29
651.568	13015.69
651.761	12915.34
651.954	12935.82
652.146	13087.37
652.339	12847.76
652.531	12814.99
652.724	12722.84
652.916	12354.2
653.109	12612.24
653.301	12612.24
653.494	12405.4
653.686	12216.99
653.879	12386.97
654.071	12034.72
654.263	12081.82
654.456	11926.18
654.648	12161.69
654.84	12010.14
655.033	11860.64
655.225	11842.21
655.417	11737.76
655.61	11766.43
655.802	11682.47
655.994	11602.6
656.186	11545.25
656.379	11553.45
656.571	11244.2
656.763	11240.11
656.955	11354.79
657.148	11307.69
657.34	11322.02
657.532	10894
657.724	10916.53
657.916	10961.58
658.108	11143.85
658.3	10685.11
658.492	10730.16
658.684	10726.07
658.876	10730.16
659.068	10715.83
659.26	10629.81
659.452	10588.85
659.644	10607.28
659.836	10486.45
660.028	10500.79
660.22	10289.85
660.412	10375.86
660.604	10062.52
660.796	10144.44
660.988	10138.3
661.18	10033.85
661.372	9806.53
661.563	10042.04
661.755	9609.92
661.947	9894.59
662.139	9624.26
662.331	9511.62
662.522	9675.46
662.714	9538.24
662.906	9163.47
663.097	9474.76
663.289	9396.93
663.481	9421.51
663.673	9317.06
663.864	9237.19
664.056	9185.99
664.247	9167.56
664.439	9054.92
664.631	9075.4
664.822	9061.07
665.014	8975.05
665.205	8940.24
665.397	8850.13
665.588	8917.71
665.78	8745.68
665.971	8757.97
666.163	8985.29
666.354	8811.21
666.546	8653.52
666.737	8616.66
666.929	8536.79
667.12	8493.78
667.311	8506.07
667.503	8606.42
667.694	8252.12
667.885	8383.19
668.077	8313.56
668.268	8264.41
668.459	8184.54
668.651	8157.91
668.842	8084.19
669.033	8260.31
669.224	8047.32
669.416	8119
669.607	8192.73
669.798	8049.37
669.989	8080.09
670.18	8004.32
670.371	7926.49
670.563	7826.14
670.754	7865.05
670.945	7635.68
671.136	7713.5
671.327	7676.64
671.518	7619.3
671.709	7772.89
671.9	7611.11
672.091	7502.56
672.282	7467.75
672.473	7244.52
672.664	7439.08
672.855	7465.7
673.046	7500.51
673.237	7441.12
673.428	7377.64
673.619	7363.3
673.809	7359.21
674	7265
674.191	7375.59
674.382	7232.23
674.573	7277.29
674.764	7088.87
674.954	7312.1
675.145	7070.44
675.336	7037.67
675.527	6998.76
675.717	7312.1
675.908	7043.82
676.099	6922.99
676.289	7084.78
676.48	6988.52
676.671	6920.94
676.861	7019.24
677.052	6990.57
677.243	6707.95
677.433	6945.52
677.624	6900.46
677.814	6879.98
678.005	6757.1
678.195	6933.23
678.386	6707.95
678.576	6732.53
678.767	6669.04
678.957	6669.04
679.148	6814.45
679.338	6660.85
679.529	6710
679.719	6675.18
679.909	6814.45
680.1	6548.21
680.29	6544.11
680.481	6660.85
680.671	6769.39
680.861	6521.59
681.052	6333.17
681.242	6675.18
681.432	6470.39
681.622	6531.83
681.813	6523.63
682.003	6546.16
682.193	6429.43
682.383	6439.67
682.573	6546.16
682.764	6404.85
682.954	6513.39
683.144	6265.59
683.334	6365.94
683.524	6388.47
683.714	6445.81
683.904	6427.38
684.094	6429.43
684.284	6284.02
684.474	6361.84
684.664	6167.29
684.854	6298.36
685.044	6128.38
685.234	6286.07
685.424	6249.21
685.614	6179.58
685.804	6134.52
685.994	6126.33
686.184	6093.56
686.374	6140.66
686.564	6171.38
686.753	6159.1
686.943	6161.14
687.133	6202.1
687.323	5972.73
687.513	6118.14
687.702	6085.37
687.892	6046.46
688.082	5901.05
688.272	6060.79
688.461	5921.53
688.651	6032.12
688.841	5792.51
689.03	5806.84
689.22	5743.36
689.41	5958.39
689.599	5681.92
689.789	5796.6
689.979	5663.49
690.168	5856
690.358	5626.62
690.547	5643.01
690.737	5491.46
690.926	5657.34
691.116	5503.75
691.305	5643.01
691.495	5544.7
691.684	5372.68
691.874	5503.75
692.063	5505.79
692.252	5532.42
692.442	5475.07
692.631	5380.87
692.82	5397.25
693.01	5683.97
693.199	5384.96
693.388	5233.41
693.578	5321.48
693.767	5356.29
693.956	5382.92
694.146	5307.14
694.335	5372.68
694.524	5194.5
694.713	5118.73
694.902	5217.03
695.092	5124.87
695.281	5257.99
695.47	5100.3
695.659	5225.22
695.848	5202.69
696.037	5020.42
696.226	5202.69
696.415	5053.19
696.604	5006.09
696.793	4973.32
696.982	5118.73
697.171	5327.62
697.36	4999.95
697.549	4922.12
697.738	4954.89
697.927	4979.47
698.116	4948.75
698.305	5020.42
698.494	4889.35
698.683	4789
698.872	4815.63
699.061	4952.84
699.25	4858.64
699.438	4924.17
699.627	4705.04
699.816	4856.59
700.005	4786.96
700.193	4774.67
700.382	4733.71
700.571	4774.67
700.76	4809.48
700.948	4709.13
701.137	4707.09
701.326	4518.67
701.514	4832.01
701.703	4619.02
701.892	4584.21
702.08	4619.02
702.269	4578.06
702.457	4530.96
702.646	4528.91
702.834	4410.13
703.023	4606.74
703.212	4483.86
703.4	4524.82
703.589	4336.4
703.777	4586.26
703.965	4492.05
704.154	4453.14
704.342	4320.02
704.531	4315.92
704.719	4352.79
704.907	4295.44
705.096	4250.39
705.284	4309.78
705.472	4446.99
705.661	4317.97
705.849	4348.69
706.037	4209.43
706.226	4186.9
706.414	4340.5
706.602	4272.92
706.79	4279.06
706.979	4375.31
707.167	4342.55
707.355	4143.89
707.543	4227.86
707.731	4209.43
707.919	4184.85
708.107	4246.29
708.296	4129.56
708.484	4074.26
708.672	4086.55
708.86	4035.35
709.048	3988.25
709.236	4119.32
709.424	4174.61
709.612	3939.1
709.8	3926.81
709.988	4047.64
710.176	3922.71
710.364	3955.48
710.551	3820.32
710.739	3771.16
710.927	3959.58
711.115	3918.62
711.303	3867.42
711.491	3885.85
711.679	3855.13
711.866	3975.96
712.054	3857.18
712.242	3848.99
712.43	3885.85
712.617	3816.22
712.805	3787.55
712.993	3748.64
713.181	3750.68
713.368	3709.72
713.556	3693.34
713.744	3717.92
713.931	3836.7
714.119	3701.53
714.306	3636
714.494	3676.96
714.682	3777.31
714.869	3603.23
715.057	3656.48
715.244	3676.96
715.432	3746.59
715.619	3660.57
715.807	3658.53
715.994	3617.57
716.182	3660.57
716.369	3601.18
716.556	3701.53
716.744	3568.41
716.931	3562.27
717.119	3597.09
717.306	3502.88
717.493	3543.84
717.681	3425.06
717.868	3513.12
718.055	3484.45
718.242	3396.39
718.43	3466.02
718.617	3406.63
718.804	3451.68
718.991	3363.62
719.179	3513.12
719.366	3375.91
719.553	3400.48
719.74	3308.32
719.927	3408.67
720.114	3255.08
720.301	3312.42
720.488	3193.64
720.676	3259.17
720.863	3212.07
721.05	3390.24
721.237	3275.56
721.424	3152.68
721.611	3187.49
721.798	3201.83
721.985	3107.62
722.172	3154.73
722.358	3210.02
722.545	3236.64
722.732	3228.45
722.919	3169.06
723.106	3029.8
723.293	3236.64
723.48	3115.81
723.667	3162.92
723.853	3130.15
724.04	2974.5
724.227	3091.24
724.414	3119.91
724.6	3042.09
724.787	3167.01
724.974	3040.04
725.161	3056.42
725.347	2974.5
725.534	3046.18
725.72	3009.32
725.907	3074.85
726.094	3160.87
726.28	3089.19
726.467	2997.03
726.653	2935.59
726.84	2980.65
727.027	3091.24
727.213	2984.74
727.4	2929.45
727.586	2962.22
727.773	2865.96
727.959	2906.92
728.145	2972.46
728.332	2870.06
728.518	2825
728.705	2882.35
728.891	2911.02
729.077	2802.47
729.264	2790.19
729.45	2919.21
729.636	2892.59
729.823	2775.85
730.009	2947.88
730.195	2886.44
730.382	2931.5
730.568	2857.77
730.754	2827.05
730.94	2784.04
731.126	2738.99
731.313	2761.52
731.499	2808.62
731.685	2751.28
731.871	2767.66
732.057	2759.47
732.243	2796.33
732.429	2693.93
732.615	2788.14
732.801	2755.37
732.987	2708.27
733.173	2714.41
733.359	2829.1
733.545	2915.11
733.731	2614.06
733.917	2792.23
734.103	2655.02
734.289	2657.07
734.475	2784.04
734.661	2636.59
734.847	2636.59
735.033	2614.06
735.219	2646.83
735.404	2558.77
735.59	2644.78
735.776	2480.94
735.962	2628.4
736.148	2554.67
736.333	2616.11
736.519	2507.57
736.705	2542.38
736.89	2558.77
737.076	2513.71
737.262	2448.18
737.447	2521.9
737.633	2597.68
737.819	2669.36
738.004	2511.66
738.19	2521.9
738.375	2566.96
738.561	2710.32
738.747	2439.98
738.932	2409.26
739.118	2661.16
739.303	2517.81
739.489	2616.11
739.674	2313.01
739.859	2409.26
740.045	2351.92
740.23	2368.31
740.416	2249.52
740.601	2450.22
740.786	2358.07
740.972	2286.39
741.157	2450.22
741.342	2335.54
741.528	2317.11
741.713	2405.17
741.898	2247.48
742.084	2310.96
742.269	2396.98
742.454	2212.66
742.639	2243.38
742.824	2210.61
743.01	2321.2
743.195	2288.43
743.38	2177.84
743.565	2237.24
743.75	2120.5
743.935	2171.7
744.12	2218.8
744.305	2210.61
744.49	2075.45
744.675	2163.51
744.86	2065.21
745.045	2161.46
745.23	2122.55
745.415	2071.35
745.6	2040.63
745.785	2089.78
745.97	2177.84
746.155	1917.75
746.34	2075.45
746.525	2016.05
746.71	2024.25
746.895	1956.66
747.079	1915.7
747.264	1940.28
747.449	2112.31
747.634	1882.94
747.819	1997.62
748.003	1907.51
748.188	1958.71
748.373	1991.48
748.557	1889.08
748.742	2038.58
748.927	1895.22
749.111	1844.03
749.296	1895.22
749.481	1882.94
749.665	1835.83
749.85	1850.17
750.034	1850.17
750.219	1784.63
750.404	1702.72
750.588	1753.91
750.773	1723.2
750.957	1719.1
751.141	1782.59
751.326	1743.67
751.51	1663.8
751.695	1719.1
751.879	1655.61
752.064	1612.6
752.248	1616.7
752.432	1706.81
752.617	1669.95
752.801	1680.19
752.985	1588.03
753.17	1612.6
753.354	1661.76
753.538	1561.41
753.722	1641.28
753.907	1473.34
754.091	1520.45
754.275	1540.93
754.459	1557.31
754.643	1514.3
754.828	1518.4
755.012	1399.62
755.196	1473.34
755.38	1510.21
755.564	1452.86
755.748	1424.19
755.932	1528.64
756.116	1538.88
756.3	1481.53
756.484	1489.73
756.668	1375.04
756.852	1329.99
757.036	1416
757.22	1407.81
757.404	1329.99
757.588	1327.94
757.772	1409.86
757.956	1368.9
758.14	1297.22
758.323	1252.16
758.507	1364.8
758.691	1231.68
758.875	1362.75
759.059	1375.04
759.242	1194.82
759.426	1162.05
759.61	1145.67
759.794	1250.11
759.977	1227.59
760.161	1248.07
760.345	1174.34
760.528	1356.61
760.712	1276.74
760.895	1309.51
761.079	1235.78
761.263	1073.99
761.446	1096.52
761.63	1162.05
761.813	1164.1
761.997	1129.28
762.18	1131.33
762.364	1129.28
762.547	1203.01
762.731	1117
762.914	1211.2
763.098	1057.61
763.281	1092.42
763.464	1035.08
763.648	1160
763.831	1004.36
764.015	1123.14
764.198	1205.06
764.381	1071.94
764.564	1149.76
764.748	1100.61
764.931	1100.61
765.114	1157.96
765.297	1147.72
765.481	1055.56
765.664	1067.85
765.847	1084.23
766.03	1080.13
766.213	977.73
766.397	998.21
766.58	994.12
766.763	1133.38
766.946	1035.08
767.129	1084.23
767.312	959.3
767.495	985.93
767.678	992.07
767.861	998.21
768.044	983.88
768.227	1096.52
768.41	1014.6
768.593	1057.61
768.776	1024.84
768.959	1006.41
769.142	1078.08
769.324	918.34
769.507	910.15
769.69	920.39
769.873	987.97
770.056	965.45
770.239	854.86
770.421	949.06
770.604	891.72
770.787	846.66
770.97	936.78
771.152	924.49
771.335	930.63
771.518	910.15
771.7	1014.6
771.883	973.64
772.066	912.2
772.248	910.15
772.431	875.34
772.613	920.39
772.796	836.42
772.978	920.39
773.161	899.91
773.343	871.24
773.526	908.1
773.708	811.85
773.891	850.76
774.073	811.85
774.256	852.81
774.438	926.54
774.621	764.75
774.803	799.56
774.985	885.58
775.168	842.57
775.35	795.47
775.532	840.52
775.715	817.99
775.897	899.91
776.079	768.84
776.261	723.79
776.444	803.66
776.626	781.13
776.808	766.79
776.99	697.16
777.173	801.61
777.355	772.94
777.537	813.9
777.719	768.84
777.901	670.54
778.083	678.73
778.265	666.44
778.447	738.12
778.629	586.57
778.811	697.16
778.993	590.67
779.175	752.46
779.357	699.21
779.539	600.91
779.721	691.02
779.903	738.12
780.085	699.21
780.267	703.31
780.449	576.33
780.631	725.83
780.812	686.92
780.994	625.48
781.176	605
781.358	678.73
781.54	664.4
781.721	662.35
781.903	613.2
782.085	607.05
782.267	680.78
782.448	648.01
782.63	609.1
782.812	568.14
782.993	613.2
783.175	580.43
783.357	535.37
783.538	584.52
783.72	545.61
783.901	521.04
784.083	555.85
784.264	531.28
784.446	500.56
784.627	500.56
784.809	564.04
784.99	500.56
785.172	537.42
785.353	467.79
785.535	500.56
785.716	533.33
785.897	498.51
786.079	525.13
786.26	529.23
786.441	508.75
786.623	459.6
786.804	424.78
786.985	482.13
787.167	564.04
787.348	422.73
787.529	371.54
787.71	576.33
787.891	441.17
788.073	467.79
788.254	488.27
788.435	584.52
788.616	572.24
788.797	453.45
788.978	451.41
789.159	387.92
789.34	418.64
789.522	451.41
789.703	437.07
789.884	418.64
790.065	400.21
790.246	490.32
790.427	435.02
790.607	525.13
790.788	527.18
790.969	330.58
791.15	418.64
791.331	355.15
791.512	353.1
791.693	346.96
791.874	416.59
792.054	416.59
792.235	457.55
792.416	375.63
792.597	377.68
792.778	400.21
792.958	359.25
793.139	400.21
793.32	320.34
793.5	375.63
793.681	426.83
793.862	402.26
794.042	361.3
794.223	349.01
794.404	367.44
794.584	238.42
794.765	400.21
794.945	346.96
795.126	375.63
795.306	396.11
795.487	310.1
795.667	301.9
795.848	361.3
796.028	330.58
796.209	324.43
796.389	400.21
796.57	377.68
796.75	383.82
796.93	375.63
797.111	344.91
797.291	330.58
797.471	312.14
797.652	367.44
797.832	310.1
798.012	338.77
798.192	289.62
798.373	287.57
798.553	324.43
798.733	207.7
798.913	326.48
799.093	293.71
799.274	312.14
799.454	353.1
799.634	281.43
799.814	344.91
799.994	289.62
800.174	318.29
800.354	342.86
800.534	281.43
800.714	369.49
800.894	277.33
801.074	224.08
801.254	240.47
801.434	295.76
801.614	334.67
801.794	252.75
801.974	858.95
802.154	250.71
802.334	338.77
802.514	244.56
802.693	236.37
802.873	166.74
803.053	285.52
803.233	238.42
803.413	252.75
803.592	195.41
803.772	277.33
803.952	215.89
804.131	121.68
804.311	129.88
804.491	228.18
804.67	228.18
804.85	199.51
805.03	228.18
805.209	158.55
805.389	238.42
805.568	224.08
805.748	232.27
805.928	246.61
806.107	193.36
806.287	346.96
806.466	207.7
806.646	287.57
806.825	176.98
807.004	215.89
807.184	260.95
807.363	256.85
807.543	240.47
807.722	189.27
807.901	289.62
808.081	303.95
808.26	144.21
808.439	232.27
808.619	228.18
808.798	246.61
808.977	213.84
809.156	283.47
809.336	217.94
809.515	209.75
809.694	228.18
809.873	199.51
810.052	166.74
810.231	265.04
810.411	211.79
810.59	234.32
810.769	211.79
810.948	219.99
811.127	125.78
811.306	170.83
811.485	138.07
811.664	203.6
811.843	224.08
812.022	256.85
812.201	213.84
812.38	146.26
812.559	72.53
812.737	205.65
812.916	88.92
813.095	93.01
813.274	150.36
813.453	224.08
813.632	187.22
813.811	187.22
813.989	138.07
814.168	123.73
814.347	199.51
814.526	205.65
814.704	150.36
814.883	222.03
815.062	183.12
815.24	117.59
815.419	133.97
815.598	183.12
815.776	144.21
815.955	211.79
816.133	58.2
816.312	93.01
816.49	146.26
816.669	154.45
816.847	99.16
817.026	140.12
817.204	179.03
817.383	154.45
817.561	74.58
817.74	103.25
817.918	129.88
818.097	179.03
818.275	127.83
818.453	158.55
818.632	162.64
818.81	183.12
818.988	62.29
819.167	162.64
819.345	195.41
819.523	131.92
819.701	179.03
819.879	109.4
820.058	123.73
820.236	181.07
820.414	131.92
820.592	125.78
820.77	111.44
820.948	154.45
821.127	162.64
821.305	138.07
821.483	123.73
821.661	185.17
821.839	127.83
822.017	156.5
822.195	138.07
822.373	138.07
822.551	127.83
822.729	66.39
822.907	117.59
823.085	154.45
823.262	164.69
823.44	129.88
823.618	119.64
823.796	72.53
823.974	160.59
824.152	117.59
824.329	90.96
824.507	164.69
824.685	179.03
824.863	138.07
825.04	123.73
825.218	129.88
825.396	142.16
825.574	148.31
825.751	95.06
825.929	150.36
826.107	78.68
826.284	166.74
826.462	174.93
826.639	72.53
826.817	41.81
826.994	80.72
827.172	43.86
827.349	156.5
827.527	129.88
827.704	138.07
827.882	115.54
828.059	133.97
828.237	17.24
828.414	162.64
828.591	7
828.769	113.49
828.946	76.63
829.124	138.07
829.301	133.97
829.478	84.82
829.655	64.34
829.833	105.3
830.01	97.11
830.187	113.49
830.364	84.82
830.542	84.82
830.719	105.3
830.896	99.16
831.073	54.1
831.25	154.45
831.427	129.88
831.604	82.77
831.782	39.76
831.959	74.58
832.136	121.68
832.313	80.72
832.49	-11.43
832.667	113.49
832.844	125.78
833.021	179.03
833.198	78.68
833.374	97.11
833.551	84.82
833.728	123.73
833.905	99.16
834.082	127.83
834.259	-1.19
834.436	140.12
834.612	25.43
834.789	47.96
834.966	41.81
835.143	41.81
835.319	11.09
835.496	144.21
835.673	103.25
835.85	50
836.026	97.11
836.203	117.59
836.38	56.15
836.556	68.44
836.733	105.3
836.909	90.96
837.086	72.53
837.262	82.77
837.439	0.85
837.616	50
837.792	74.58
837.968	90.96
838.145	-33.96
838.321	113.49
838.498	123.73
838.674	60.24
838.851	19.29
839.027	72.53
839.203	56.15
839.38	64.34
839.556	115.54
839.732	56.15
839.909	47.96
840.085	76.63
840.261	99.16
840.437	54.1
840.614	95.06
840.79	138.07
840.966	76.63
841.142	95.06
841.318	66.39
841.494	138.07
841.671	7
841.847	2.9
842.023	80.72
842.199	31.57
842.375	88.92
842.551	4.95
842.727	80.72
842.903	113.49
843.079	19.29
843.255	121.68
843.431	80.72
843.607	121.68
843.783	31.57
843.959	66.39
844.134	80.72
844.31	82.77
844.486	-5.29
844.662	58.2
844.838	29.52
845.013	29.52
845.189	103.25
845.365	17.24
845.541	45.91
845.716	15.19
845.892	31.57
846.068	23.38
846.244	23.38
846.419	109.4
846.595	2.9
846.77	-17.58
846.946	52.05
847.122	23.38
847.297	-1.19
847.473	90.96
847.648	54.1
847.824	47.96
847.999	43.86
848.175	105.3
848.35	41.81
848.526	105.3
848.701	58.2
848.876	156.5
849.052	66.39
849.227	47.96
849.403	19.29
849.578	47.96
849.753	97.11
849.929	109.4
850.104	-46.25
850.279	70.48
850.454	74.58
850.63	21.33
850.805	31.57
850.98	-7.34
851.155	35.67
851.33	47.96
851.505	15.19
851.681	146.26
851.856	-56.49
852.031	84.82
852.206	54.1
852.381	9.05
852.556	50
852.731	80.72
852.906	19.29
853.081	39.76
853.256	90.96
853.431	15.19
853.606	15.19
853.781	7
853.956	-25.77
854.131	88.92
854.305	-38.06
854.48	-13.48
854.655	-7.34
854.83	19.29
855.005	-9.39
855.18	19.29
855.354	-33.96
855.529	66.39
855.704	0.85
855.879	43.86
856.053	-46.25
856.228	47.96
856.403	52.05
856.577	23.38
856.752	-42.15
856.926	39.76
857.101	50
857.276	39.76
857.45	19.29
857.625	80.72
857.799	56.15
857.974	60.24
858.148	-17.58
858.323	7
858.497	29.52
858.672	50
858.846	19.29
859.02	7
859.195	-9.39
859.369	45.91
859.543	-1.19
859.718	64.34
859.892	88.92
860.066	31.57
860.241	54.1
860.415	90.96
860.589	-25.77
860.763	60.24
860.938	-13.48
861.112	-29.87
861.286	0.85
861.46	88.92
861.634	-17.58
861.808	21.33
861.982	33.62
862.157	56.15
862.331	-33.96
862.505	-42.15
862.679	4.95
862.853	0.85
863.027	-40.11
863.201	19.29
863.375	-42.15
863.549	47.96
863.722	39.76
863.896	74.58
864.07	39.76
864.244	58.2
864.418	2.9
864.592	76.63
864.766	45.91
864.939	56.15
865.113	39.76
865.287	43.86
865.461	-9.39
865.634	23.38
865.808	29.52
865.982	-36.01
866.156	23.38
866.329	-17.58
866.503	62.29
866.676	41.81
866.85	58.2
867.024	15.19
867.197	88.92
867.371	-29.87
867.544	-1.19
867.718	-17.58
867.891	72.53
868.065	39.76
868.238	-5.29
868.412	33.62
868.585	9.05
868.759	31.57
868.932	21.33
869.105	-66.73
869.279	39.76
869.452	-68.78
869.625	-7.34
869.799	66.39
869.972	-58.54
870.145	19.29
870.319	105.3
870.492	11.09
870.665	39.76
870.838	-38.06
871.011	-17.58
871.185	2.9
871.358	11.09
871.531	101.2
871.704	-36.01
871.877	72.53
872.05	17.24
872.223	27.48
872.396	90.96
872.569	50
872.742	-31.91
872.915	88.92
873.088	52.05
873.261	-13.48
873.434	90.96
873.607	31.57
873.78	-5.29
873.953	-23.72
874.126	7
874.299	107.35
874.471	-79.02
874.644	23.38
874.817	19.29
874.99	64.34
875.163	17.24
875.335	41.81
875.508	2.9
875.681	-31.91
875.853	-1.19
876.026	-7.34
876.199	74.58
876.371	101.2
876.544	19.29
876.717	-9.39
876.889	39.76
877.062	47.96
877.234	31.57
877.407	-1.19
877.579	-13.48
877.752	58.2
877.924	7
878.097	47.96
878.269	-13.48
878.442	60.24
878.614	27.48
878.786	56.15
878.959	11.09
879.131	56.15
879.303	-56.49
879.476	47.96
879.648	56.15
879.82	78.68
879.993	23.38
880.165	-9.39
880.337	-23.72
880.509	-36.01
880.681	-50.35
880.854	-3.24
881.026	-9.39
881.198	90.96
881.37	15.19
881.542	2.9
881.714	-17.58
881.886	-7.34
882.058	-29.87
882.23	7
882.402	-1.19
882.574	9.05
882.746	76.63
882.918	21.33
883.09	39.76
883.262	23.38
883.434	15.19
883.606	-33.96
883.778	-81.07
883.95	41.81
884.122	-13.48
884.293	43.86
884.465	-29.87
884.637	74.58
884.809	-21.67
884.98	31.57
885.152	-15.53
885.324	19.29
885.496	-33.96
885.667	-70.83
885.839	2.9
886.011	43.86
886.182	-25.77
886.354	111.44
886.525	43.86
886.697	27.48
886.869	-17.58
887.04	-56.49
887.212	2.9
887.383	97.11
887.555	-9.39
887.726	0.85
887.897	-23.72
888.069	17.24
888.24	64.34
888.412	43.86
888.583	19.29
888.754	31.57
888.926	-7.34
889.097	-7.34
889.268	-38.06
889.44	33.62
889.611	0.85
889.782	23.38
889.953	-46.25
890.125	58.2
890.296	15.19
890.467	56.15
890.638	7
890.809	7
890.98	2.9
891.151	80.72
891.323	-17.58
891.494	68.44
891.665	-13.48
891.836	23.38
892.007	17.24
892.178	35.67
892.349	-5.29
892.52	47.96
892.691	37.72
892.862	7
893.032	-27.82
893.203	-9.39
893.374	9.05
893.545	-58.54
893.716	23.38
893.887	56.15
894.057	-58.54
894.228	66.39
894.399	15.19
894.57	-9.39
894.74	-5.29
894.911	31.57
895.082	37.72
895.253	-17.58
895.423	31.57
895.594	39.76
895.764	-21.67
895.935	-5.29
896.106	90.96
896.276	31.57
896.447	31.57
896.617	17.24
896.788	-11.43
896.958	-1.19
897.129	11.09
897.299	-9.39
897.47	50
897.64	74.58
897.81	15.19
897.981	15.19
898.151	-5.29
898.322	-11.43
898.492	27.48
898.662	31.57
898.832	-13.48
899.003	47.96
899.173	-38.06
899.343	15.19
899.513	-33.96
