Data from USB4F104151__180__14-32-50-508.txt Node

Date: Thu Mar 13 14:32:50 EDT 2025
User: louis
Spectrometer: USB4F10415
Trigger mode: 4
Integration Time (sec): 2.500000E-2
Scans to average: 1
Electric dark correction enabled: true
Nonlinearity correction enabled: false
Boxcar width: 0
XAxis mode: Wavelengths
Number of Pixels in Spectrum: 3648
>>>>>Begin Spectral Data<<<<<
178.204	-100.18
178.424	-100.18
178.644	-100.18
178.864	-137.04
179.084	-102.23
179.304	43.18
179.524	-1.88
179.744	77.99
179.964	45.23
180.184	4.27
180.404	-18.26
180.624	6.31
180.844	-28.5
181.064	-71.51
181.283	-42.84
181.503	-94.04
181.723	80.04
181.943	-67.41
182.163	55.47
182.383	26.79
182.602	51.37
182.822	37.03
183.042	-51.03
183.262	-100.18
183.482	34.99
183.701	-5.97
183.921	-14.17
184.141	14.51
184.361	-5.97
184.58	30.89
184.8	18.6
185.02	-32.6
185.239	96.43
185.459	18.6
185.679	-14.17
185.898	-61.27
186.118	43.18
186.338	2.22
186.557	55.47
186.777	-48.98
186.997	77.99
187.216	71.85
187.436	26.79
187.655	-1.88
187.875	102.57
188.095	-10.07
188.314	28.84
188.534	41.13
188.753	84.14
188.973	43.18
189.192	43.18
189.412	-14.17
189.631	59.56
189.851	106.67
190.07	47.27
190.29	-51.03
190.509	-1.88
190.729	59.56
190.948	-1.88
191.168	190.63
191.387	43.18
191.607	-3.93
191.826	-14.17
192.045	100.52
192.265	39.08
192.484	43.18
192.704	18.6
192.923	-81.75
193.142	55.47
193.362	18.6
193.581	67.75
193.8	-28.5
194.02	67.75
194.239	-10.07
194.458	43.18
194.678	43.18
194.897	84.14
195.116	-10.07
195.335	51.37
195.555	37.03
195.774	57.51
195.993	37.03
196.212	47.27
196.432	-36.69
196.651	30.89
196.87	16.55
197.089	149.67
197.308	-3.93
197.528	39.08
197.747	-12.12
197.966	-5.97
198.185	34.99
198.404	-5.97
198.623	-3.93
198.842	125.1
199.062	51.37
199.281	90.28
199.5	71.85
199.719	10.41
199.938	75.95
200.157	71.85
200.376	121
200.595	108.71
200.814	30.89
201.033	39.08
201.252	112.81
201.471	90.28
201.69	53.42
201.909	75.95
202.128	55.47
202.347	22.7
202.566	28.84
202.785	114.86
203.004	8.36
203.223	149.67
203.442	2.22
203.661	12.46
203.879	67.75
204.098	51.37
204.317	67.75
204.536	26.79
204.755	67.75
204.974	84.14
205.193	39.08
205.411	26.79
205.63	123.05
205.849	2.22
206.068	100.52
206.287	-14.17
206.505	92.33
206.724	-16.21
206.943	-22.36
207.162	22.7
207.381	43.18
207.599	34.99
207.818	12.46
208.037	108.71
208.255	63.66
208.474	26.79
208.693	59.56
208.911	73.9
209.13	14.51
209.349	10.41
209.567	80.04
209.786	28.84
210.005	30.89
210.223	37.03
210.442	53.42
210.661	34.99
210.879	82.09
211.098	86.19
211.316	30.89
211.535	100.52
211.753	8.36
211.972	59.56
212.191	34.99
212.409	102.57
212.628	2.22
212.846	-26.45
213.065	71.85
213.283	45.23
213.502	-75.6
213.72	26.79
213.938	-5.97
214.157	59.56
214.375	47.27
214.594	37.03
214.812	14.51
215.031	51.37
215.249	112.81
215.467	92.33
215.686	22.7
215.904	26.79
216.122	47.27
216.341	47.27
216.559	-20.31
216.778	14.51
216.996	37.03
217.214	75.95
217.432	55.47
217.651	2.22
217.869	32.94
218.087	34.99
218.306	-34.64
218.524	71.85
218.742	24.75
218.96	30.89
219.179	10.41
219.397	71.85
219.615	110.76
219.833	49.32
220.051	10.41
220.27	121
220.488	18.6
220.706	114.86
220.924	12.46
221.142	43.18
221.36	-63.32
221.578	88.23
221.796	30.89
222.015	69.8
222.233	51.37
222.451	51.37
222.669	4.27
222.887	37.03
223.105	26.79
223.323	2.22
223.541	-16.21
223.759	43.18
223.977	10.41
224.195	77.99
224.413	98.47
224.631	30.89
224.849	37.03
225.067	200.87
225.285	18.6
225.503	34.99
225.721	-44.88
225.939	61.61
226.157	135.34
226.375	104.62
226.592	18.6
226.81	106.67
227.028	26.79
227.246	43.18
227.464	61.61
227.682	45.23
227.9	6.31
228.117	14.51
228.335	49.32
228.553	47.27
228.771	84.14
228.989	51.37
229.206	10.41
229.424	45.23
229.642	-1.88
229.86	18.6
230.077	67.75
230.295	92.33
230.513	84.14
230.731	84.14
230.948	41.13
231.166	55.47
231.384	71.85
231.601	69.8
231.819	86.19
232.037	22.7
232.254	-28.5
232.472	-1.88
232.689	26.79
232.907	92.33
233.125	39.08
233.342	-48.98
233.56	-14.17
233.777	92.33
233.995	84.14
234.213	69.8
234.43	26.79
234.648	28.84
234.865	37.03
235.083	108.71
235.3	80.04
235.518	63.66
235.735	43.18
235.953	77.99
236.17	16.55
236.388	2.22
236.605	34.99
236.822	92.33
237.04	82.09
237.257	45.23
237.475	69.8
237.692	-12.12
237.909	96.43
238.127	-61.27
238.344	61.61
238.562	12.46
238.779	-36.69
238.996	-48.98
239.214	0.17
239.431	53.42
239.648	-73.56
239.865	43.18
240.083	75.95
240.3	45.23
240.517	-28.5
240.735	80.04
240.952	39.08
241.169	34.99
241.386	16.55
241.603	22.7
241.821	43.18
242.038	43.18
242.255	18.6
242.472	-22.36
242.689	100.52
242.907	69.8
243.124	34.99
243.341	47.27
243.558	71.85
243.775	43.18
243.992	-10.07
244.209	39.08
244.426	116.9
244.643	39.08
244.86	37.03
245.078	8.36
245.295	10.41
245.512	-77.65
245.729	2.22
245.946	-22.36
246.163	-63.32
246.38	-16.21
246.597	96.43
246.814	-20.31
247.031	22.7
247.248	129.19
247.464	43.18
247.681	90.28
247.898	80.04
248.115	18.6
248.332	-36.69
248.549	67.75
248.766	26.79
248.983	39.08
249.2	-32.6
249.417	18.6
249.633	61.61
249.85	69.8
250.067	47.27
250.284	12.46
250.501	37.03
250.717	69.8
250.934	-22.36
251.151	82.09
251.368	61.61
251.585	121
251.801	20.65
252.018	12.46
252.235	59.56
252.451	0.17
252.668	12.46
252.885	92.33
253.102	92.33
253.318	4.27
253.535	-14.17
253.752	-40.79
253.968	63.66
254.185	-8.02
254.401	24.75
254.618	30.89
254.835	-51.03
255.051	80.04
255.268	-14.17
255.484	65.71
255.701	65.71
255.917	100.52
256.134	-83.8
256.351	37.03
256.567	-30.55
256.784	10.41
257	-1.88
257.217	32.94
257.433	18.6
257.65	59.56
257.866	10.41
258.082	8.36
258.299	-18.26
258.515	-5.97
258.732	34.99
258.948	-34.64
259.165	84.14
259.381	-5.97
259.597	53.42
259.814	26.79
260.03	14.51
260.246	137.38
260.463	-5.97
260.679	129.19
260.895	-22.36
261.112	86.19
261.328	8.36
261.544	67.75
261.761	43.18
261.977	69.8
262.193	-79.7
262.409	61.61
262.626	20.65
262.842	-5.97
263.058	0.17
263.274	82.09
263.49	67.75
263.707	67.75
263.923	18.6
264.139	-34.64
264.355	125.1
264.571	141.48
264.787	-3.93
265.004	110.76
265.22	26.79
265.436	2.22
265.652	-22.36
265.868	94.38
266.084	-30.55
266.3	67.75
266.516	59.56
266.732	47.27
266.948	-8.02
267.164	-30.55
267.38	28.84
267.596	65.71
267.812	141.48
268.028	86.19
268.244	-22.36
268.46	114.86
268.676	51.37
268.892	100.52
269.108	16.55
269.324	22.7
269.54	-10.07
269.756	59.56
269.972	18.6
270.188	45.23
270.403	-20.31
270.619	43.18
270.835	59.56
271.051	8.36
271.267	-5.97
271.483	-24.4
271.698	43.18
271.914	26.79
272.13	37.03
272.346	-30.55
272.562	32.94
272.777	51.37
272.993	0.17
273.209	75.95
273.425	67.75
273.64	84.14
273.856	67.75
274.072	28.84
274.287	69.8
274.503	22.7
274.719	30.89
274.934	26.79
275.15	-51.03
275.366	69.8
275.581	30.89
275.797	26.79
276.012	-14.17
276.228	-22.36
276.444	16.55
276.659	49.32
276.875	-3.93
277.09	4.27
277.306	47.27
277.521	43.18
277.737	34.99
277.952	28.84
278.168	43.18
278.383	-44.88
278.599	71.85
278.814	69.8
279.03	67.75
279.245	67.75
279.461	84.14
279.676	116.9
279.892	-59.22
280.107	-5.97
280.322	26.79
280.538	47.27
280.753	45.23
280.969	-1.88
281.184	-55.12
281.399	32.94
281.615	90.28
281.83	82.09
282.045	-26.45
282.26	57.51
282.476	6.31
282.691	0.17
282.906	86.19
283.122	34.99
283.337	-67.41
283.552	125.1
283.767	30.89
283.983	47.27
284.198	22.7
284.413	45.23
284.628	24.75
284.843	67.75
285.058	39.08
285.274	-20.31
285.489	67.75
285.704	86.19
285.919	-26.45
286.134	-28.5
286.349	22.7
286.564	-22.36
286.779	30.89
286.995	55.47
287.21	75.95
287.425	18.6
287.64	-40.79
287.855	108.71
288.07	2.22
288.285	75.95
288.5	30.89
288.715	51.37
288.93	34.99
289.145	43.18
289.36	92.33
289.575	-12.12
289.79	73.9
290.004	4.27
290.219	4.27
290.434	-30.55
290.649	53.42
290.864	-100.18
291.079	-55.12
291.294	4.27
291.509	-22.36
291.724	-5.97
291.938	34.99
292.153	53.42
292.368	55.47
292.583	22.7
292.798	63.66
293.012	94.38
293.227	53.42
293.442	69.8
293.657	121
293.871	67.75
294.086	18.6
294.301	51.37
294.516	75.95
294.73	6.31
294.945	37.03
295.16	-3.93
295.374	112.81
295.589	-22.36
295.804	-1.88
296.018	-28.5
296.233	53.42
296.447	-30.55
296.662	26.79
296.877	71.85
297.091	26.79
297.306	47.27
297.52	22.7
297.735	86.19
297.949	-14.17
298.164	18.6
298.378	84.14
298.593	18.6
298.807	34.99
299.022	59.56
299.236	49.32
299.451	24.75
299.665	43.18
299.88	26.79
300.094	53.42
300.309	6.31
300.523	75.95
300.737	26.79
300.952	2.22
301.166	63.66
301.381	-5.97
301.595	0.17
301.809	-5.97
302.024	-8.02
302.238	26.79
302.452	108.71
302.667	67.75
302.881	63.66
303.095	112.81
303.309	84.14
303.524	-5.97
303.738	24.75
303.952	4.27
304.166	71.85
304.381	-71.51
304.595	61.61
304.809	-22.36
305.023	-5.97
305.237	20.65
305.452	34.99
305.666	-28.5
305.88	61.61
306.094	92.33
306.308	14.51
306.522	98.47
306.736	92.33
306.95	61.61
307.164	67.75
307.379	59.56
307.593	63.66
307.807	59.56
308.021	-3.93
308.235	26.79
308.449	-18.26
308.663	28.84
308.877	106.67
309.091	34.99
309.305	65.71
309.519	-77.65
309.733	20.65
309.947	2.22
310.161	34.99
310.374	10.41
310.588	116.9
310.802	39.08
311.016	-22.36
311.23	20.65
311.444	30.89
311.658	-42.84
311.872	53.42
312.085	65.71
312.299	22.7
312.513	129.19
312.727	-30.55
312.941	-20.31
313.154	14.51
313.368	28.84
313.582	53.42
313.796	61.61
314.009	53.42
314.223	77.99
314.437	-34.64
314.651	86.19
314.864	45.23
315.078	80.04
315.292	10.41
315.505	0.17
315.719	22.7
315.933	41.13
316.146	86.19
316.36	-20.31
316.573	57.51
316.787	4.27
317.001	69.8
317.214	14.51
317.428	75.95
317.641	43.18
317.855	-22.36
318.068	16.55
318.282	-63.32
318.495	116.9
318.709	57.51
318.922	10.41
319.136	-5.97
319.349	92.33
319.563	41.13
319.776	24.75
319.99	20.65
320.203	84.14
320.417	6.31
320.63	53.42
320.843	125.1
321.057	-5.97
321.27	92.33
321.483	10.41
321.697	34.99
321.91	45.23
322.124	94.38
322.337	86.19
322.55	55.47
322.763	71.85
322.977	18.6
323.19	-32.6
323.403	-22.36
323.617	34.99
323.83	80.04
324.043	26.79
324.256	47.27
324.469	-28.5
324.683	-10.07
324.896	37.03
325.109	-26.45
325.322	77.99
325.535	80.04
325.748	59.56
325.962	51.37
326.175	57.51
326.388	55.47
326.601	82.09
326.814	37.03
327.027	18.6
327.24	110.76
327.453	-20.31
327.666	63.66
327.879	14.51
328.092	32.94
328.305	47.27
328.518	37.03
328.731	20.65
328.944	8.36
329.157	73.9
329.37	86.19
329.583	100.52
329.796	92.33
330.009	-75.6
330.222	92.33
330.435	45.23
330.648	80.04
330.861	16.55
331.073	112.81
331.286	67.75
331.499	116.9
331.712	51.37
331.925	20.65
332.138	20.65
332.35	-12.12
332.563	104.62
332.776	102.57
332.989	59.56
333.202	4.27
333.414	0.17
333.627	59.56
333.84	34.99
334.053	30.89
334.265	121
334.478	4.27
334.691	2.22
334.903	49.32
335.116	4.27
335.329	-28.5
335.541	2.22
335.754	94.38
335.966	-18.26
336.179	75.95
336.392	106.67
336.604	75.95
336.817	0.17
337.029	51.37
337.242	41.13
337.454	34.99
337.667	55.47
337.88	16.55
338.092	37.03
338.305	59.56
338.517	-30.55
338.729	94.38
338.942	116.9
339.154	-28.5
339.367	-28.5
339.579	39.08
339.792	18.6
340.004	75.95
340.217	61.61
340.429	47.27
340.641	-14.17
340.854	67.75
341.066	32.94
341.278	67.75
341.491	92.33
341.703	20.65
341.915	18.6
342.128	75.95
342.34	-22.36
342.552	-36.69
342.764	4.27
342.977	30.89
343.189	41.13
343.401	34.99
343.613	-42.84
343.826	26.79
344.038	14.51
344.25	59.56
344.462	-14.17
344.674	63.66
344.886	-22.36
345.099	20.65
345.311	-55.12
345.523	43.18
345.735	37.03
345.947	30.89
346.159	100.52
346.371	-46.93
346.583	53.42
346.795	96.43
347.007	24.75
347.219	45.23
347.431	59.56
347.643	125.1
347.855	4.27
348.067	141.48
348.279	-30.55
348.491	34.99
348.703	28.84
348.915	45.23
349.127	8.36
349.339	104.62
349.551	26.79
349.763	43.18
349.975	20.65
350.187	61.61
350.399	10.41
350.61	8.36
350.822	-44.88
351.034	51.37
351.246	73.9
351.458	32.94
351.669	71.85
351.881	51.37
352.093	55.47
352.305	-26.45
352.517	55.47
352.728	12.46
352.94	59.56
353.152	51.37
353.363	-5.97
353.575	125.1
353.787	137.38
353.999	92.33
354.21	88.23
354.422	28.84
354.633	16.55
354.845	12.46
355.057	10.41
355.268	43.18
355.48	12.46
355.692	-12.12
355.903	96.43
356.115	-12.12
356.326	-5.97
356.538	82.09
356.749	69.8
356.961	67.75
357.172	45.23
357.384	26.79
357.595	75.95
357.807	51.37
358.018	-14.17
358.23	45.23
358.441	59.56
358.653	41.13
358.864	10.41
359.075	61.61
359.287	84.14
359.498	102.57
359.709	96.43
359.921	75.95
360.132	116.9
360.344	77.99
360.555	-71.51
360.766	47.27
360.977	26.79
361.189	61.61
361.4	55.47
361.611	4.27
361.823	77.99
362.034	92.33
362.245	43.18
362.456	100.52
362.667	90.28
362.879	-28.5
363.09	-30.55
363.301	26.79
363.512	12.46
363.723	-20.31
363.935	16.55
364.146	161.96
364.357	-44.88
364.568	88.23
364.779	-61.27
364.99	39.08
365.201	67.75
365.412	92.33
365.623	26.79
365.834	71.85
366.045	51.37
366.256	-1.88
366.467	161.96
366.678	24.75
366.889	39.08
367.1	26.79
367.311	145.58
367.522	-46.93
367.733	67.75
367.944	133.29
368.155	26.79
368.366	80.04
368.577	59.56
368.788	116.9
368.999	43.18
369.209	49.32
369.42	104.62
369.631	102.57
369.842	59.56
370.053	63.66
370.264	4.27
370.474	-22.36
370.685	32.94
370.896	20.65
371.107	86.19
371.317	51.37
371.528	-22.36
371.739	84.14
371.95	59.56
372.16	14.51
372.371	34.99
372.582	-10.07
372.792	112.81
373.003	51.37
373.214	59.56
373.424	94.38
373.635	67.75
373.846	86.19
374.056	30.89
374.267	127.14
374.477	125.1
374.688	41.13
374.898	61.61
375.109	-22.36
375.319	92.33
375.53	121
375.74	118.95
375.951	14.51
376.161	-1.88
376.372	75.95
376.582	53.42
376.793	108.71
377.003	84.14
377.214	51.37
377.424	84.14
377.635	67.75
377.845	47.27
378.055	100.52
378.266	10.41
378.476	-5.97
378.686	59.56
378.897	118.95
379.107	92.33
379.317	34.99
379.528	61.61
379.738	18.6
379.948	-26.45
380.158	100.52
380.369	18.6
380.579	53.42
380.789	65.71
380.999	84.14
381.21	112.81
381.42	137.38
381.63	28.84
381.84	51.37
382.05	34.99
382.261	100.52
382.471	86.19
382.681	2.22
382.891	102.57
383.101	6.31
383.311	10.41
383.521	22.7
383.731	34.99
383.941	112.81
384.151	-30.55
384.361	73.9
384.571	30.89
384.781	67.75
384.991	145.58
385.201	176.3
385.411	90.28
385.621	22.7
385.831	28.84
386.041	20.65
386.251	26.79
386.461	26.79
386.671	-5.97
386.881	86.19
387.091	65.71
387.301	174.25
387.511	49.32
387.72	59.56
387.93	57.51
388.14	112.81
388.35	57.51
388.56	75.95
388.769	49.32
388.979	53.42
389.189	61.61
389.399	55.47
389.609	67.75
389.818	75.95
390.028	75.95
390.238	90.28
390.447	47.27
390.657	116.9
390.867	96.43
391.076	45.23
391.286	10.41
391.496	6.31
391.705	43.18
391.915	125.1
392.125	75.95
392.334	34.99
392.544	133.29
392.753	77.99
392.963	47.27
393.172	80.04
393.382	-75.6
393.591	94.38
393.801	96.43
394.01	112.81
394.22	30.89
394.429	82.09
394.639	51.37
394.848	53.42
395.058	116.9
395.267	125.1
395.477	77.99
395.686	37.03
395.895	121
396.105	116.9
396.314	71.85
396.524	135.34
396.733	80.04
396.942	139.43
397.152	2.22
397.361	137.38
397.57	108.71
397.78	90.28
397.989	108.71
398.198	147.62
398.407	116.9
398.617	96.43
398.826	121
399.035	166.06
399.244	73.9
399.453	75.95
399.663	102.57
399.872	80.04
400.081	12.46
400.29	112.81
400.499	125.1
400.708	133.29
400.917	96.43
401.127	145.58
401.336	157.86
401.545	209.06
401.754	151.72
401.963	190.63
402.172	51.37
402.381	114.86
402.59	143.53
402.799	92.33
403.008	143.53
403.217	75.95
403.426	51.37
403.635	121
403.844	75.95
404.053	176.3
404.262	86.19
404.471	104.62
404.68	186.54
404.888	86.19
405.097	51.37
405.306	190.63
405.515	161.96
405.724	116.9
405.933	127.14
406.142	110.76
406.35	256.17
406.559	149.67
406.768	135.34
406.977	161.96
407.185	135.34
407.394	200.87
407.603	192.68
407.812	170.15
408.02	243.88
408.229	243.88
408.438	280.74
408.646	225.45
408.855	209.06
409.064	286.89
409.272	194.73
409.481	350.37
409.69	272.55
409.898	250.02
410.107	317.61
410.315	317.61
410.524	342.18
410.733	331.94
410.941	241.83
411.15	323.75
411.358	350.37
411.567	366.76
411.775	420
411.984	381.09
412.192	473.25
412.401	491.68
412.609	487.59
412.818	510.11
413.026	489.64
413.234	471.2
413.443	565.41
413.651	544.93
413.86	579.75
414.068	503.97
414.276	659.62
414.485	657.57
414.693	663.71
414.901	665.76
415.11	735.39
415.318	665.76
415.526	733.34
415.734	712.86
415.943	815.26
416.151	794.78
416.359	856.22
416.567	813.21
416.776	970.91
416.984	993.44
417.192	1044.63
417.4	960.67
417.608	932
417.817	1009.82
418.025	1181.85
418.233	1220.76
418.441	1142.94
418.649	1167.51
418.857	1300.63
419.065	1200.28
419.273	1226.9
419.481	1390.74
419.689	1394.84
419.897	1429.65
420.105	1566.87
420.313	1487
420.521	1591.44
420.729	1626.26
420.937	1616.02
421.145	1757.33
421.353	1837.2
421.561	1972.36
421.769	1896.59
421.977	2115.72
422.185	1964.17
422.393	2107.53
422.601	2347.14
422.809	2295.94
423.017	2257.03
423.224	2443.4
423.432	2406.53
423.64	2590.85
423.848	2644.1
424.056	2631.81
424.263	2889.85
424.471	2844.8
424.679	2928.77
424.887	2898.05
425.094	3192.95
425.302	3305.59
425.51	3274.87
425.718	3453.05
425.925	3485.81
426.133	3573.88
426.341	3780.72
426.548	3868.78
426.756	3852.4
426.964	3913.84
427.171	4126.83
427.379	4180.07
427.586	4395.11
427.794	4477.03
428.001	4575.33
428.209	4876.38
428.417	4909.15
428.624	5062.75
428.832	5232.73
429.039	5171.29
429.247	5001.31
429.454	5572.69
429.662	5828.69
429.869	5498.97
430.076	5900.37
430.284	5736.53
430.491	5765.2
430.699	6436.94
430.906	6375.5
431.114	6467.66
431.321	6674.5
431.528	6875.2
431.736	7358.52
431.943	7522.36
432.15	7448.63
432.358	7430.2
432.565	7876.66
432.772	8034.35
432.979	8304.68
433.187	8409.13
433.394	8525.86
433.601	8996.9
433.808	9072.67
434.016	9013.28
434.223	9312.28
434.43	9717.78
434.637	9947.15
434.844	10496.01
435.052	10659.85
435.259	10450.96
435.466	10631.18
435.673	10237.97
435.88	11233.28
436.087	11700.22
436.294	11622.39
436.501	11278.33
436.708	11532.28
436.915	12038.13
437.122	12470.25
437.329	12543.98
437.537	13025.25
437.743	12945.38
437.95	12875.75
438.157	13885.4
438.364	14147.54
438.571	14010.32
438.778	14208.98
438.985	15304.64
439.192	14772.17
439.399	15353.79
439.606	14806.98
439.813	15751.1
440.02	16519.09
440.227	16519.09
440.433	16164.79
440.64	16783.27
440.847	16443.31
441.054	16969.64
441.261	18253.72
441.467	17864.6
441.674	18272.15
441.881	19132.29
442.088	19058.57
442.294	18472.85
442.501	19017.61
442.708	19539.84
442.914	20250.49
443.121	21284.71
443.328	20690.8
443.534	22091.61
443.741	21374.82
443.948	21122.92
444.154	22796.11
444.361	22753.1
444.568	22882.13
444.774	22914.89
444.981	23148.36
445.187	23969.6
445.394	24706.87
445.6	24284.98
445.807	26576.66
446.013	25513.77
446.22	25909.02
446.426	26904.34
446.633	27598.6
446.839	28120.83
447.046	26892.05
447.252	28655.35
447.459	28561.14
447.665	28407.55
447.871	29607.65
448.078	30844.63
448.284	29134.57
448.491	30455.51
448.697	31553.23
448.903	31944.39
449.11	31991.49
449.316	31741.64
449.522	31844.04
449.728	32845.49
449.935	33162.93
450.141	33164.98
450.347	33609.39
450.553	32507.58
450.76	33076.91
450.966	34227.87
451.172	34021.03
451.378	34795.16
451.584	33922.73
451.791	34770.58
451.997	34616.99
452.203	35202.71
452.409	35391.12
452.615	34922.13
452.821	33701.54
453.027	33420.97
453.233	35133.07
453.44	33595.05
453.646	34211.49
453.852	34045.6
454.058	34672.28
454.264	33433.26
454.47	34203.3
454.676	33627.82
454.882	34924.18
455.088	31729.35
455.294	32503.48
455.5	32872.12
455.705	32849.59
455.911	31520.46
456.117	30947.03
456.323	30721.75
456.529	28778.23
456.735	30303.96
456.941	29693.67
457.147	28964.59
457.352	27928.32
457.558	27678.47
457.764	27766.53
457.97	27301.64
458.176	26636.05
458.381	26474.26
458.587	25304.87
458.793	25200.43
458.999	23908.16
459.204	25421.61
459.41	24842.03
459.616	23506.76
459.821	23416.65
460.027	23152.46
460.233	22890.32
460.438	21823.33
460.644	21911.39
460.85	20819.82
461.055	20555.63
461.261	20262.77
461.466	18579.34
461.672	18309.01
461.878	19756.93
462.083	18358.16
462.289	17979.29
462.494	17766.3
462.7	17309.6
462.905	16498.61
463.111	17029.03
463.316	17409.95
463.522	16979.88
463.727	16879.53
463.932	16670.64
464.138	16699.31
464.343	16764.84
464.549	16224.18
464.754	16680.88
464.959	16672.68
465.165	16439.22
465.37	15738.81
465.575	15650.75
465.781	15820.73
465.986	15992.76
466.191	15511.49
466.397	15175.62
466.602	14297.04
466.807	14821.32
467.012	15153.09
467.218	14878.66
467.423	14591.95
467.628	14829.51
467.833	15300.55
468.038	14653.39
468.244	14526.41
468.449	14849.99
468.654	14354.38
468.859	14307.28
469.064	14364.62
469.269	13854.68
469.474	13750.23
469.679	13903.83
469.885	13547.48
470.09	13891.54
470.295	13731.8
470.5	13258.72
470.705	13453.28
470.91	13174.75
471.115	13086.69
471.32	13207.52
471.525	13166.56
471.73	12957.67
471.935	12845.03
472.139	12300.27
472.344	12412.91
472.549	12365.81
472.754	12294.13
472.959	11978.74
473.164	11741.18
473.369	11741.18
473.574	11952.12
473.778	11757.56
473.983	11735.03
474.188	11667.45
474.393	11307.01
474.598	11288.57
474.802	11268.09
475.007	11003.91
475.212	11227.14
475.417	10717.19
475.621	10706.95
475.826	10774.53
476.031	10369.04
476.235	10518.54
476.44	10588.17
476.645	10205.2
476.849	10309.65
477.054	10145.81
477.259	10164.24
477.463	9959.44
477.668	9785.37
477.872	9990.16
478.077	9545.75
478.282	9644.06
478.486	9515.03
478.691	9451.55
478.895	9492.51
479.1	9209.89
479.304	9394.2
479.509	8890.4
479.713	9343
479.918	8935.46
480.122	8792.1
480.326	9113.63
480.531	8941.6
480.735	8808.48
480.94	8747.05
481.144	9107.49
481.348	8779.81
481.553	8810.53
481.757	8589.35
481.961	8685.61
482.166	8828.96
482.37	8738.85
482.574	8566.82
482.778	8693.8
482.983	8724.52
483.187	8704.04
483.391	8673.32
483.595	8482.86
483.8	8366.12
484.004	8501.29
484.208	8673.32
484.412	8566.82
484.616	8599.59
484.821	8568.87
485.025	8245.29
485.229	8605.74
485.433	8402.99
485.637	8359.98
485.841	8648.74
486.045	8493.1
486.249	8511.53
486.453	8628.26
486.657	8761.38
486.861	8673.32
487.065	8259.63
487.269	8595.5
487.473	8443.95
487.677	8720.42
487.881	8622.12
488.085	8300.59
488.289	8540.2
488.493	8237.1
488.697	8548.39
488.901	8581.16
489.105	8669.22
489.309	8525.86
489.512	8542.25
489.716	8579.11
489.92	8689.7
490.124	8595.5
490.328	8677.41
490.531	8740.9
490.735	8837.16
490.939	8824.87
491.143	8667.17
491.346	8779.81
491.55	8837.16
491.754	8765.48
491.958	8882.21
492.161	8890.4
492.365	8861.73
492.569	8771.62
492.772	8910.88
492.976	8833.06
493.18	8867.88
493.383	9107.49
493.587	9218.08
493.79	9234.46
493.994	8953.89
494.197	9289.76
494.401	9408.54
494.605	9226.27
494.808	9492.51
495.012	9506.84
495.215	9347.1
495.419	9674.78
495.622	9506.84
495.825	9543.71
496.029	9537.56
496.232	9771.03
496.436	9941.01
496.639	10070.03
496.843	9998.35
497.046	10340.36
497.249	10336.27
497.453	10373.13
497.656	10340.36
497.859	10455.05
498.063	10590.22
498.266	10645.51
498.469	10901.51
498.673	10897.41
498.876	10881.03
499.079	11161.6
499.282	10979.33
499.485	11331.58
499.689	11364.35
499.892	11732.98
500.095	11571.19
500.298	11767.8
500.501	11612.15
500.705	12029.94
500.908	12173.3
501.111	12279.79
501.314	12253.17
501.517	12404.72
501.72	12599.27
501.923	12431.34
502.126	12789.74
502.329	13125.6
502.532	13314.02
502.735	13195.23
502.938	13469.66
503.141	13586.4
503.344	13696.99
503.547	14000.09
503.75	14114.77
503.953	14100.44
504.156	14415.82
504.359	14264.27
504.562	14477.26
504.765	14712.78
504.968	14747.59
505.17	14913.48
505.373	15103.94
505.576	15511.49
505.779	15509.44
505.982	15439.81
506.185	15687.61
506.387	15638.46
506.59	15984.57
506.793	16265.14
506.996	15974.33
507.198	16621.49
507.401	16664.49
507.604	16875.43
507.807	17166.24
508.009	17285.03
508.212	16983.98
508.415	17500.06
508.617	17567.65
508.82	17754.01
509.022	17528.74
509.225	18388.88
509.428	18282.39
509.63	18634.64
509.833	18368.4
510.035	19003.27
510.238	18980.75
510.44	18929.55
510.643	19439.49
510.845	19550.08
511.048	19441.54
511.25	19638.14
511.453	19777.4
511.655	20701.04
511.858	20209.53
512.06	20207.48
512.262	20703.09
512.465	20864.88
512.667	21018.47
512.87	21161.83
513.072	21319.53
513.274	21800.8
513.477	21811.04
513.679	21632.86
513.881	21849.95
514.084	22646.61
514.286	22404.95
514.488	22431.57
514.69	23088.97
514.893	23349.06
515.095	23078.73
515.297	23441.22
515.499	23760.7
515.701	23897.92
515.904	24184.63
516.106	24311.61
516.308	24549.17
516.51	24596.28
516.712	24846.13
516.914	24928.05
517.116	25499.43
517.318	25622.31
517.52	25597.73
517.722	25945.89
517.925	26011.42
518.127	26144.54
518.329	26562.33
518.531	26253.08
518.733	26928.91
518.935	27152.14
519.136	27006.73
519.338	27410.18
519.54	27373.32
519.742	27520.77
519.944	27799.3
520.146	27977.47
520.348	28354.3
520.55	28434.17
520.752	28161.79
520.954	28802.8
521.155	28849.91
521.357	28827.38
521.559	29191.92
521.761	29613.8
521.963	29138.67
522.164	29427.43
522.366	29757.16
522.568	30000.86
522.77	29902.56
522.971	30297.82
523.173	30004.96
523.375	30594.78
523.576	30379.74
523.778	30402.27
523.98	30910.16
524.181	30850.77
524.383	30865.11
524.584	31088.34
524.786	31053.52
524.988	31219.41
525.189	31153.87
525.391	31334.09
525.592	31342.28
525.794	31422.16
525.995	31663.82
526.197	31698.63
526.398	31391.44
526.6	32014.02
526.801	31901.38
527.003	31803.08
527.204	32128.7
527.406	32265.92
527.607	32126.66
527.808	32497.34
528.01	31637.19
528.211	32409.28
528.412	32503.48
528.614	32515.77
528.815	32624.31
529.016	32626.36
529.218	32509.63
529.419	32308.93
529.62	32624.31
529.822	32333.5
530.023	32374.46
530.224	32104.13
530.425	32409.28
530.626	32054.98
530.828	32366.27
531.029	32331.45
531.23	32067.27
531.431	31862.47
531.632	32591.55
531.833	32181.95
532.035	32042.69
532.236	32280.25
532.437	32364.22
532.638	32294.59
532.839	32151.23
533.04	32519.87
533.241	32048.83
533.442	32634.55
533.643	32220.86
533.844	31993.54
534.045	32102.08
534.246	31923.91
534.447	32210.62
534.648	31661.77
534.849	32075.46
535.05	31919.81
535.251	32046.79
535.451	31829.7
535.652	31852.23
535.853	31866.56
536.054	32124.61
536.255	31624.9
536.456	31749.83
536.657	32020.16
536.857	31753.93
537.058	31461.07
537.259	31868.61
537.46	32005.83
537.66	31823.56
537.861	31801.03
538.062	31569.61
538.263	31559.37
538.463	31616.71
538.664	31299.28
538.865	31633.1
539.065	31282.89
539.266	31397.58
539.466	31516.36
539.667	31121.1
539.868	31895.24
540.068	31301.33
540.269	31250.13
540.469	31770.31
540.67	31350.48
540.87	31282.89
541.071	31260.37
541.271	31657.67
541.472	31358.67
541.672	31334.09
541.873	31135.44
542.073	31018.71
542.274	31409.87
542.474	31053.52
542.675	31160.02
542.875	31463.11
543.075	31157.97
543.276	30703.32
543.476	31571.66
543.676	31180.49
543.877	31307.47
544.077	31405.77
544.277	30944.98
544.478	31149.78
544.678	30836.44
544.878	31194.83
545.078	31366.86
545.279	30711.51
545.479	30666.45
545.679	31114.96
545.879	30758.61
546.079	31092.43
546.28	30998.23
546.48	30654.17
546.68	31022.8
546.88	31184.59
547.08	31033.04
547.28	30979.79
547.48	30594.78
547.68	30809.81
547.88	30762.71
548.081	30881.49
548.281	30992.08
548.481	30648.02
548.681	31035.09
548.881	30994.13
549.081	30740.18
549.28	31002.32
549.48	31035.09
549.68	31387.34
549.88	31299.28
550.08	30592.73
550.28	31049.42
550.48	30934.74
550.68	31078.1
550.88	30621.4
551.08	30832.34
551.279	31006.42
551.479	30996.18
551.679	31078.1
551.879	31182.54
552.079	31049.42
552.278	30904.02
552.478	31252.17
552.678	30944.98
552.878	31385.29
553.077	30895.83
553.277	30906.07
553.477	31606.47
553.676	30957.27
553.876	31096.53
554.076	30445.27
554.275	30949.07
554.475	30996.18
554.674	31055.57
554.874	31293.13
555.074	30899.92
555.273	31012.56
555.473	31229.65
555.672	30985.94
555.872	31141.58
556.071	30793.43
556.271	31565.51
556.47	30990.03
556.67	30783.19
556.869	30951.12
557.068	31090.38
557.268	30865.11
557.467	30979.79
557.667	31000.27
557.866	31446.73
558.065	31186.64
558.265	31170.26
558.464	30912.21
558.663	31344.33
558.863	30707.41
559.062	31577.8
559.261	31207.12
559.461	31499.98
559.66	30783.19
559.859	31010.51
560.058	31160.02
560.258	31090.38
560.457	30994.13
560.656	31459.02
560.855	30854.87
561.054	31117.01
561.253	30797.52
561.453	31233.74
561.652	30955.22
561.851	31442.63
562.05	30928.59
562.249	30875.35
562.448	31379.15
562.647	30840.53
562.846	31002.32
563.045	31014.61
563.244	30944.98
563.443	31276.75
563.642	30815.96
563.841	30928.59
564.04	30445.27
564.239	30893.78
564.438	30432.99
564.637	30711.51
564.836	30815.96
565.035	30545.62
565.234	30729.94
565.432	30564.06
565.631	30713.56
565.83	30457.56
566.029	30748.37
566.228	30643.93
566.427	30842.58
566.625	30385.88
566.824	30013.15
567.023	30469.85
567.222	30011.1
567.42	30586.58
567.619	30666.45
567.818	30328.54
568.016	30381.79
568.215	30396.12
568.414	30240.48
568.612	30070.5
568.811	29884.13
569.01	30015.2
569.208	29728.49
569.407	30144.22
569.605	29806.31
569.804	30168.8
570.002	29679.33
570.201	29816.55
570.4	29378.28
570.598	29396.71
570.797	29306.6
570.995	29669.09
571.193	29255.4
571.392	29306.6
571.59	28954.35
571.789	29155.05
571.987	29290.22
572.186	29081.33
572.384	29136.62
572.582	29191.92
572.781	28739.32
572.979	28636.92
573.177	28647.16
573.376	28784.37
573.574	28616.44
573.772	28745.46
573.971	28909.3
574.169	28428.02
574.367	28413.69
574.565	28745.46
574.763	28423.93
574.962	28260.09
575.16	27977.47
575.358	28092.16
575.556	27537.16
575.754	28167.93
575.952	28024.58
576.151	28284.67
576.349	27547.4
576.547	27520.77
576.745	27780.87
576.943	27674.37
577.141	27639.56
577.339	27844.35
577.537	27449.1
577.735	27457.29
577.933	27088.65
578.131	27430.66
578.329	27279.11
578.527	27285.26
578.725	27193.1
578.923	26890
579.121	26828.56
579.319	26679.06
579.516	26846.99
579.714	26713.88
579.912	26693.4
580.11	26699.54
580.308	26685.2
580.506	26476.31
580.704	26027.81
580.901	26332.95
581.099	26265.37
581.297	26052.38
581.495	26099.48
581.692	26261.27
581.89	26064.67
582.088	26308.38
582.285	25921.31
582.483	26033.95
582.681	26169.12
582.878	26009.37
583.076	25466.66
583.274	25814.82
583.471	25433.89
583.669	25679.65
583.866	25392.94
584.064	25790.24
584.262	24999.73
584.459	25423.65
584.657	25278.25
584.854	25179.95
585.052	24928.05
585.249	25190.19
585.447	25216.81
585.644	24786.74
585.841	25272.11
586.039	24801.07
586.236	24829.74
586.434	24524.6
586.631	24637.23
586.828	24661.81
587.026	24858.42
587.223	24594.23
587.42	24520.5
587.618	24684.34
587.815	24237.88
588.012	24239.93
588.21	24069.95
588.407	24358.71
588.604	24270.65
588.801	24373.05
588.999	24133.43
589.196	23856.96
589.393	24198.97
589.59	23955.26
589.787	23942.97
589.984	23517
590.182	23439.17
590.379	23797.57
590.576	23408.45
590.773	23674.69
590.97	23553.86
591.167	23113.55
591.364	23152.46
591.561	23246.66
591.758	23193.42
591.955	22947.66
592.152	23258.95
592.349	22886.22
592.546	23277.38
592.743	23207.75
592.94	22808.4
593.137	22972.24
593.334	23136.07
593.531	22685.52
593.727	22914.89
593.924	23025.48
594.121	22576.98
594.318	23048.01
594.515	22652.75
594.712	22880.08
594.908	22611.79
595.105	22871.89
595.302	22450
595.499	22486.87
595.696	22581.07
595.892	22218.58
596.089	22576.98
596.286	22677.33
596.482	22329.17
596.679	22466.39
596.876	22335.32
597.072	22138.71
597.269	22599.51
597.466	22206.3
597.662	21841.76
597.859	22257.5
598.055	22490.96
598.252	22169.43
598.448	22013.79
598.645	22232.92
598.841	21919.58
599.038	21884.76
599.234	21997.4
599.431	21917.53
599.627	21798.75
599.824	22015.83
600.02	22028.12
600.217	21808.99
600.413	21888.86
600.609	21974.88
600.806	21718.88
601.002	21825.37
601.198	21694.3
601.395	21682.02
601.591	21841.76
601.787	21874.52
601.984	21765.98
602.18	22028.12
602.376	21786.46
602.572	21383.01
602.769	21714.78
602.965	21985.12
603.161	21874.52
603.357	21698.4
603.553	21520.23
603.75	21866.33
603.946	21806.94
604.142	21888.86
604.338	21559.14
604.534	21819.23
604.73	21606.24
604.926	21841.76
605.122	21856.09
605.318	21806.94
605.514	21563.23
605.71	21630.82
605.906	21923.68
606.102	21571.43
606.298	22036.31
606.494	21892.96
606.69	21798.75
606.886	21958.49
607.082	21591.91
607.278	21727.07
607.474	21606.24
607.67	21821.28
607.866	21739.36
608.062	22091.61
608.257	21860.19
608.453	22040.41
608.649	21978.97
608.845	21843.81
609.041	22046.55
609.236	22120.28
609.432	21798.75
609.628	22038.36
609.824	22146.9
610.019	21620.58
610.215	22091.61
610.411	22220.63
610.606	22046.55
610.802	22202.2
610.998	22288.21
611.193	21917.53
611.389	21917.53
611.584	22114.14
611.78	21942.11
611.976	22089.56
612.171	22288.21
612.367	22146.9
612.562	22067.03
612.758	21919.58
612.953	21966.68
613.149	22163.29
613.344	22032.22
613.539	22155.1
613.735	22206.3
613.93	22069.08
614.126	22200.15
614.321	22597.46
614.517	22468.44
614.712	22335.32
614.907	21890.91
615.103	22513.49
615.298	22318.93
615.493	22456.15
615.688	22064.99
615.884	22419.28
616.079	22153.05
616.274	22171.48
616.47	22048.6
616.665	22085.47
616.86	22273.88
617.055	21942.11
617.25	21958.49
617.445	22445.91
617.641	21860.19
617.836	22177.62
618.031	21800.8
618.226	22286.17
618.421	21999.45
618.616	22224.73
618.811	21518.18
619.006	22327.13
619.201	21567.33
619.396	21772.13
619.591	21690.21
619.786	22005.59
619.981	21512.03
620.176	21864.29
620.371	21202.79
620.566	21548.9
620.761	21520.23
620.956	21686.11
621.151	21063.53
621.346	21399.4
621.541	20764.53
621.735	21106.54
621.93	20938.6
622.125	20977.51
622.32	20500.34
622.515	21043.05
622.709	20715.37
622.904	20469.62
623.099	20709.23
623.294	20463.47
623.488	20371.32
623.683	20215.67
623.878	19904.38
624.072	20133.75
624.267	20113.27
624.462	19959.67
624.656	19758.97
624.851	19910.52
625.046	19588.99
625.24	19720.06
625.435	19515.26
625.629	19523.46
625.824	19574.66
626.018	19271.56
626.213	18933.64
626.407	19191.69
626.602	18778
626.796	18657.17
626.991	18956.17
627.185	18943.88
627.38	18638.73
627.574	18323.35
627.768	18624.4
627.963	18259.86
628.157	18028.44
628.352	18147.22
628.546	17864.6
628.74	18040.73
628.935	17614.75
629.129	17811.35
629.323	17696.67
629.517	17663.9
629.712	17524.64
629.906	17674.14
630.1	17469.34
630.294	17227.68
630.489	16975.78
630.683	17258.4
630.877	17205.16
631.071	17100.71
631.265	16863.15
631.459	16895.91
631.653	16791.47
631.848	16721.84
632.042	16576.43
632.236	16787.37
632.43	16549.81
632.624	16455.6
632.818	16697.26
633.012	16263.09
633.206	16242.61
633.4	16400.3
633.594	15833.02
633.788	15943.61
633.982	16007.09
634.176	15859.64
634.369	15550.4
634.563	15716.28
634.757	15505.34
634.951	15521.73
635.145	15357.89
635.339	15495.1
635.533	15151.04
635.726	15146.95
635.92	15030.21
636.114	15124.42
636.308	15005.64
636.501	14979.01
636.695	14925.77
636.889	14694.35
637.083	14383.06
637.276	14624.72
637.47	14467.02
637.664	14526.41
637.857	14428.11
638.051	14231.51
638.244	14356.43
638.438	13998.04
638.632	14145.49
638.825	13735.9
639.019	13735.9
639.212	13619.16
639.406	13619.16
639.599	13881.3
639.793	13828.06
639.986	13504.48
640.18	13428.7
640.373	13371.36
640.567	13404.13
640.76	13232.1
640.954	13107.17
641.147	12953.57
641.34	12898.28
641.534	12996.58
641.727	12718.06
641.92	12820.46
642.114	12765.16
642.307	12670.95
642.5	12586.99
642.694	12310.51
642.887	12417.01
643.08	12742.63
643.273	12374
643.467	12146.67
643.66	12261.36
643.853	12062.71
644.046	11892.73
644.239	12038.13
644.432	11829.24
644.626	11821.05
644.819	11743.22
645.012	11728.89
645.205	11567.1
645.398	11708.41
645.591	11374.59
645.784	11538.43
645.977	11323.39
646.17	11167.74
646.363	11274.24
646.556	11044.87
646.749	11245.57
646.942	11075.59
647.135	11048.96
647.328	11003.91
647.521	10749.96
647.714	10680.33
647.907	10784.77
648.099	10655.75
648.292	10571.79
648.485	10577.93
648.678	10438.67
648.871	10471.43
649.064	10469.39
649.256	10520.59
649.449	10137.62
649.642	10178.58
649.835	10088.46
650.027	10012.69
650.22	10055.7
650.413	10057.75
650.605	10065.94
650.798	9758.74
650.991	10002.45
651.183	9803.8
651.376	9783.32
651.568	9738.26
651.761	9515.03
651.954	9377.82
652.146	9537.56
652.339	9445.4
652.531	9492.51
652.724	9213.98
652.916	9111.58
653.109	9256.99
653.301	9107.49
653.494	9197.6
653.686	8894.5
653.879	9177.12
654.071	8990.75
654.263	8984.61
654.456	9044
654.648	8912.93
654.84	8773.67
655.033	8828.96
655.225	8857.64
655.417	8792.1
655.61	8890.4
655.802	8788
655.994	8427.56
656.186	8595.5
656.379	8423.47
656.571	8525.86
656.763	8370.22
656.955	8265.77
657.148	8335.4
657.34	8212.53
657.532	8138.8
657.724	8177.71
657.916	8200.24
658.108	8169.52
658.3	8120.37
658.492	8007.73
658.684	7950.39
658.876	7907.38
659.068	7755.83
659.26	7774.26
659.452	7768.12
659.644	7759.92
659.836	7753.78
660.028	7739.44
660.22	7508.02
660.412	7553.08
660.604	7477.3
660.796	7495.74
660.988	7481.4
661.18	7295.04
661.372	7376.95
661.563	7268.41
661.755	7235.64
661.947	7233.6
662.139	7088.19
662.331	7198.78
662.522	6871.11
662.714	7139.39
662.906	7047.23
663.097	7092.29
663.289	7002.18
663.481	7043.14
663.673	6811.71
663.864	6783.04
664.056	6615.11
664.247	6778.95
664.439	6647.88
664.631	6737.99
664.822	6834.24
665.014	6740.04
665.205	6608.97
665.397	6666.31
665.588	6590.53
665.78	6686.79
665.971	6498.38
666.163	6342.73
666.354	6334.54
666.546	6363.21
666.737	6195.28
666.929	6412.36
667.12	6219.85
667.311	6033.49
667.503	6205.52
667.694	6283.34
667.885	6084.69
668.077	6219.85
668.268	6047.82
668.459	6094.93
668.651	5914.7
668.842	5795.92
669.033	5951.57
669.224	5926.99
669.416	6066.25
669.607	5853.27
669.798	5814.35
669.989	5881.94
670.18	5834.83
670.371	5863.51
670.563	5744.72
670.754	5789.78
670.945	5621.84
671.136	5619.8
671.327	5634.13
671.518	5419.1
671.709	5720.15
671.9	5675.09
672.091	5515.35
672.282	5501.01
672.473	5482.58
672.664	5580.89
672.855	5441.62
673.046	5501.01
673.237	5554.26
673.428	5369.94
673.619	5245.02
673.809	5288.03
674	5273.69
674.191	5343.32
674.382	5328.99
674.573	5122.14
674.764	5208.16
674.954	5249.11
675.145	5081.18
675.336	5195.87
675.527	5140.57
675.717	5281.88
675.908	5011.55
676.099	5140.57
676.289	5138.52
676.48	5093.47
676.671	5027.93
676.861	5015.65
677.052	4853.86
677.243	5081.18
677.433	5032.03
677.624	5060.7
677.814	5027.93
678.005	4911.2
678.195	4984.93
678.386	4851.81
678.576	4704.35
678.767	4825.19
678.957	4798.56
679.148	4790.37
679.338	4886.62
679.529	4704.35
679.719	4769.89
679.909	4909.15
680.1	5003.36
680.29	4798.56
680.481	4765.79
680.671	4851.81
680.861	4833.38
681.052	4802.66
681.242	4747.36
681.432	4860
681.622	4671.59
681.813	4638.82
682.003	4825.19
682.193	4692.07
682.383	4696.16
682.573	4638.82
682.764	4626.53
682.954	4716.64
683.144	4597.86
683.334	4624.48
683.524	4573.28
683.714	4567.14
683.904	4487.27
684.094	4614.24
684.284	4610.15
684.474	4630.63
684.664	4573.28
684.854	4517.99
685.044	4411.5
685.234	4550.76
685.424	4462.69
685.614	4331.62
685.804	4479.08
685.994	4425.83
686.184	4429.93
686.374	4591.72
686.564	4348.01
686.753	4294.76
686.943	4216.94
687.133	4270.19
687.323	4233.32
687.513	4210.79
687.702	4335.72
687.892	4098.16
688.082	4286.57
688.272	4323.43
688.461	4233.32
688.651	4253.8
688.841	4307.05
689.03	4192.36
689.22	4010.09
689.41	4253.8
689.599	4186.22
689.789	4268.14
689.979	4311.14
690.168	4141.16
690.358	3983.47
690.547	4067.44
690.737	3977.33
690.926	4155.5
691.116	4055.15
691.305	4124.78
691.495	4100.2
691.684	4003.95
691.874	3969.13
692.063	3993.71
692.252	3975.28
692.442	3973.23
692.631	3915.89
692.82	3924.08
693.01	3989.61
693.199	3872.88
693.388	3946.61
693.578	3793.01
693.767	3852.4
693.956	3938.41
694.146	3741.81
694.335	3829.87
694.524	3901.55
694.713	3811.44
694.902	3815.54
695.092	3876.98
695.281	3745.91
695.47	3774.58
695.659	3747.95
695.848	3735.67
696.037	3735.67
696.226	3795.06
696.415	3786.86
696.604	3674.23
696.793	3586.16
696.982	3676.27
697.171	3737.71
697.36	3758.19
697.549	3702.9
697.738	3514.49
697.927	3496.05
698.116	3569.78
698.305	3534.96
698.494	3692.66
698.683	3432.57
698.872	3573.88
699.061	3594.36
699.25	3532.92
699.438	3506.29
699.627	3565.68
699.816	3518.58
700.005	3451
700.193	3604.6
700.382	3571.83
700.571	3559.54
700.76	3397.75
700.948	3385.46
701.137	3502.2
701.326	3338.36
701.514	3467.38
701.703	3360.89
701.892	3352.7
702.08	3360.89
702.269	3364.98
702.457	3344.5
702.646	3422.33
702.834	3180.67
703.023	3287.16
703.212	3344.5
703.4	3180.67
703.589	3217.53
703.777	3260.54
703.965	3180.67
704.154	3254.39
704.342	3238.01
704.531	3143.8
704.719	3086.46
704.907	3164.28
705.096	3057.79
705.284	3174.52
705.472	3072.12
705.661	3172.47
705.849	3090.56
706.037	3199.1
706.226	3205.24
706.414	3127.42
706.602	3035.26
706.79	3135.61
706.979	3096.7
707.167	3100.8
707.355	2996.35
707.543	3057.79
707.731	3143.8
707.919	3049.6
708.107	2963.58
708.296	3121.28
708.484	2881.66
708.672	3121.28
708.86	2928.77
709.048	3045.5
709.236	2898.05
709.424	2953.34
709.612	3061.88
709.8	2850.94
709.988	2910.33
710.176	2963.58
710.364	2963.58
710.551	2828.42
710.739	2814.08
710.927	2861.18
711.115	2766.98
711.303	2754.69
711.491	2828.42
711.679	2680.96
711.866	2779.26
712.054	2752.64
712.242	2771.07
712.43	2865.28
712.617	2855.04
712.805	2754.69
712.993	2758.78
713.181	2721.92
713.368	2785.41
713.556	2719.87
713.744	2701.44
713.931	2693.25
714.119	2672.77
714.306	2705.54
714.494	2599.04
714.682	2541.7
714.869	2517.12
715.057	2599.04
715.244	2580.61
715.432	2711.68
715.619	2500.74
715.807	2631.81
715.994	2615.43
716.182	2533.51
716.369	2601.09
716.556	2541.7
716.744	2447.49
716.931	2521.22
717.119	2586.76
717.306	2566.28
717.493	2517.12
717.681	2328.71
717.868	2408.58
718.055	2613.38
718.242	2472.07
718.43	2459.78
718.617	2400.39
718.804	2476.16
718.991	2408.58
719.179	2353.29
719.366	2412.68
719.553	2410.63
719.74	2418.82
719.927	2308.23
720.114	2386.05
720.301	2328.71
720.488	2369.67
720.676	2353.29
720.863	2312.33
721.05	2357.38
721.237	2363.53
721.424	2396.29
721.611	2330.76
721.798	2412.68
721.985	2132.11
722.172	2295.94
722.358	2312.33
722.545	2265.22
722.732	2273.42
722.919	2158.73
723.106	2173.07
723.293	2343.05
723.48	2211.98
723.667	2142.35
723.853	2205.83
724.04	2293.9
724.227	2107.53
724.414	2148.49
724.6	2111.63
724.787	2181.26
724.974	2316.42
725.161	2281.61
725.347	2123.91
725.534	2238.6
725.72	2193.55
725.907	2117.77
726.094	2183.31
726.28	2078.86
726.467	2070.67
726.653	2105.48
726.84	2017.42
727.027	2132.11
727.213	2070.67
727.4	2076.81
727.586	2134.15
727.773	1931.41
727.959	2111.63
728.145	2132.11
728.332	2119.82
728.518	1970.32
728.705	1976.46
728.891	1953.93
729.077	2048.14
729.264	1874.06
729.45	1980.56
729.636	2123.91
729.823	2130.06
730.009	1992.84
730.195	1902.73
730.382	2023.56
730.568	2050.19
730.754	1925.26
730.94	1951.88
731.126	2005.13
731.313	1972.36
731.499	1861.77
731.685	1863.82
731.871	2007.18
732.057	1974.41
732.243	1994.89
732.429	1831.05
732.615	1831.05
732.801	1915.02
732.987	1941.65
733.173	1808.53
733.359	1872.01
733.545	1765.52
733.731	1820.81
733.917	1910.93
734.103	1910.93
734.289	1812.62
734.475	1841.29
734.661	1951.88
734.847	1855.63
735.033	1814.67
735.219	1824.91
735.404	1898.64
735.59	1792.14
735.776	1755.28
735.962	1685.65
736.148	1878.16
736.333	1814.67
736.519	1798.29
736.705	1783.95
736.89	1843.34
737.076	1628.31
737.262	1759.38
737.447	1742.99
737.633	1773.71
737.819	1740.94
738.004	1697.94
738.19	1681.55
738.375	1661.07
738.561	1751.18
738.747	1765.52
738.932	1691.79
739.118	1847.44
739.303	1638.55
739.489	1749.14
739.674	1622.16
739.859	1693.84
740.045	1697.94
740.23	1681.55
740.416	1591.44
740.601	1642.64
740.786	1634.45
740.972	1577.11
741.157	1622.16
741.342	1661.07
741.528	1575.06
741.713	1568.91
741.898	1622.16
742.084	1585.3
742.269	1519.76
742.454	1470.61
742.639	1566.87
742.824	1579.15
743.01	1566.87
743.195	1689.74
743.38	1564.82
743.565	1644.69
743.75	1521.81
743.935	1501.33
744.12	1542.29
744.305	1443.99
744.49	1450.13
744.675	1495.19
744.86	1499.28
745.045	1443.99
745.23	1423.51
745.415	1374.36
745.6	1480.85
745.785	1435.8
745.97	1476.76
746.155	1337.49
746.34	1540.24
746.525	1419.41
746.71	1525.91
746.895	1419.41
747.079	1405.08
747.264	1370.26
747.449	1403.03
747.634	1306.77
747.819	1280.15
748.003	1288.34
748.188	1370.26
748.373	1298.58
748.557	1339.54
748.742	1259.67
748.927	1308.82
749.111	1300.63
749.296	1239.19
749.481	1249.43
749.665	1247.38
749.85	1226.9
750.034	1300.63
750.219	1153.18
750.404	1249.43
750.588	1241.24
750.773	1134.75
750.957	1192.09
751.141	1200.28
751.326	1175.7
751.51	1222.81
751.695	1104.03
751.879	1124.51
752.064	1136.79
752.248	1185.94
752.432	1101.98
752.617	1155.23
752.801	1099.93
752.985	1110.17
753.17	1169.56
753.354	1116.31
753.538	1116.31
753.722	1091.74
753.907	1048.73
754.091	1009.82
754.275	1079.45
754.459	1030.3
754.643	1067.16
754.828	993.44
755.012	960.67
755.196	952.48
755.38	979.1
755.564	960.67
755.748	970.91
755.932	962.72
756.116	929.95
756.3	956.57
756.484	946.33
756.668	905.37
756.852	960.67
757.036	964.76
757.22	886.94
757.404	938.14
757.588	934.04
757.772	891.04
757.956	876.7
758.14	964.76
758.323	882.85
758.507	813.21
758.691	882.85
758.875	876.7
759.059	837.79
759.242	817.31
759.426	893.09
759.61	874.65
759.794	874.65
759.977	807.07
760.161	964.76
760.345	805.02
760.528	813.21
760.712	751.78
760.895	809.12
761.079	858.27
761.263	813.21
761.446	839.84
761.63	823.45
761.813	886.94
761.997	819.36
762.18	790.69
762.364	872.61
762.547	700.58
762.731	751.78
762.914	805.02
763.098	682.14
763.281	751.78
763.464	776.35
763.648	714.91
763.831	800.93
764.015	764.06
764.198	788.64
764.381	714.91
764.564	755.87
764.748	782.49
764.931	856.22
765.114	739.49
765.297	764.06
765.481	684.19
765.664	805.02
765.847	708.77
766.03	764.06
766.213	676
766.397	780.45
766.58	723.1
766.763	727.2
766.946	688.29
767.129	745.63
767.312	577.7
767.495	733.34
767.678	696.48
767.861	667.81
768.044	632.99
768.227	673.95
768.41	671.9
768.593	696.48
768.776	632.99
768.959	669.86
769.142	719.01
769.324	719.01
769.507	665.76
769.69	575.65
769.873	602.27
770.056	639.14
770.239	641.18
770.421	704.67
770.604	604.32
770.787	626.85
770.97	604.32
771.152	571.55
771.335	659.62
771.518	659.62
771.7	665.76
771.883	694.43
772.066	616.61
772.248	749.73
772.431	690.34
772.613	669.86
772.796	581.79
772.978	555.17
773.161	694.43
773.343	653.47
773.526	624.8
773.708	534.69
773.891	542.88
774.073	596.13
774.256	583.84
774.438	569.51
774.621	682.14
774.803	575.65
774.985	551.07
775.168	604.32
775.35	630.95
775.532	534.69
775.715	501.92
775.897	534.69
776.079	501.92
776.261	608.42
776.444	551.07
776.626	512.16
776.808	524.45
776.99	485.54
777.173	542.88
777.355	518.31
777.537	469.16
777.719	551.07
777.901	473.25
778.083	452.77
778.265	444.58
778.447	553.12
778.629	497.83
778.811	485.54
778.993	463.01
779.175	551.07
779.357	503.97
779.539	473.25
779.721	469.16
779.903	497.83
780.085	512.16
780.267	434.34
780.449	477.35
780.631	420
780.812	458.92
780.994	463.01
781.176	403.62
781.358	452.77
781.54	471.2
781.721	397.48
781.903	454.82
782.085	420
782.267	485.54
782.448	374.95
782.63	420
782.812	481.44
782.993	364.71
783.175	346.28
783.357	387.24
783.538	487.59
783.72	370.85
783.901	325.8
784.083	446.63
784.264	417.96
784.446	381.09
784.627	344.23
784.809	387.24
784.99	356.52
785.172	348.33
785.353	329.89
785.535	350.37
785.716	319.65
785.897	352.42
786.079	381.09
786.26	405.67
786.441	364.71
786.623	395.43
786.804	364.71
786.985	374.95
787.167	364.71
787.348	333.99
787.529	321.7
787.71	327.85
787.891	333.99
788.073	290.98
788.254	264.36
788.435	309.41
788.616	278.69
788.797	379.04
788.978	278.69
789.159	323.75
789.34	321.7
789.522	329.89
789.703	309.41
789.884	305.32
790.065	370.85
790.246	329.89
790.427	321.7
790.607	389.28
790.788	317.61
790.969	219.3
791.15	331.94
791.331	288.93
791.512	329.89
791.693	247.97
791.874	305.32
792.054	403.62
792.235	239.78
792.416	207.02
792.597	250.02
792.778	284.84
792.958	211.11
793.139	223.4
793.32	309.41
793.5	264.36
793.681	338.09
793.862	172.2
794.042	247.97
794.223	227.5
794.404	225.45
794.584	239.78
794.765	194.73
794.945	184.49
795.126	192.68
795.306	256.17
795.487	297.13
795.667	223.4
795.848	260.26
796.028	190.63
796.209	250.02
796.389	223.4
796.57	198.82
796.75	288.93
796.93	198.82
797.111	157.86
797.291	178.34
797.471	256.17
797.652	198.82
797.832	231.59
798.012	194.73
798.192	127.14
798.373	239.78
798.553	254.12
798.733	256.17
798.913	170.15
799.093	129.19
799.274	223.4
799.454	223.4
799.634	252.07
799.814	268.45
799.994	219.3
800.174	116.9
800.354	149.67
800.534	168.1
800.714	237.74
800.894	141.48
801.074	125.1
801.254	225.45
801.434	149.67
801.614	174.25
801.794	223.4
801.974	780.45
802.154	116.9
802.334	227.5
802.514	110.76
802.693	211.11
802.873	157.86
803.053	272.55
803.233	164.01
803.413	137.38
803.592	143.53
803.772	161.96
803.952	145.58
804.131	155.82
804.311	209.06
804.491	135.34
804.67	166.06
804.85	125.1
805.03	235.69
805.209	194.73
805.389	198.82
805.568	88.23
805.748	100.52
805.928	215.21
806.107	100.52
806.287	96.43
806.466	137.38
806.646	151.72
806.825	166.06
807.004	141.48
807.184	135.34
807.363	211.11
807.543	151.72
807.722	209.06
807.901	161.96
808.081	116.9
808.26	37.03
808.439	149.67
808.619	166.06
808.798	164.01
808.977	88.23
809.156	153.77
809.336	125.1
809.515	209.06
809.694	141.48
809.873	129.19
810.052	137.38
810.231	116.9
810.411	172.2
810.59	145.58
810.769	100.52
810.948	127.14
811.127	141.48
811.306	166.06
811.485	94.38
811.664	182.44
811.843	61.61
812.022	151.72
812.201	112.81
812.38	157.86
812.559	108.71
812.737	77.99
812.916	98.47
813.095	166.06
813.274	153.77
813.453	86.19
813.632	147.62
813.811	149.67
813.989	49.32
814.168	125.1
814.347	100.52
814.526	108.71
814.704	166.06
814.883	135.34
815.062	69.8
815.24	125.1
815.419	51.37
815.598	157.86
815.776	82.09
815.955	147.62
816.133	43.18
816.312	106.67
816.49	102.57
816.669	149.67
816.847	75.95
817.026	125.1
817.204	157.86
817.383	106.67
817.561	47.27
817.74	129.19
817.918	157.86
818.097	116.9
818.275	55.47
818.453	161.96
818.632	135.34
818.81	96.43
818.988	100.52
819.167	43.18
819.345	43.18
819.523	94.38
819.701	67.75
819.879	108.71
820.058	92.33
820.236	116.9
820.414	112.81
820.592	147.62
820.77	96.43
820.948	63.66
821.127	51.37
821.305	92.33
821.483	84.14
821.661	153.77
821.839	100.52
822.017	53.42
822.195	55.47
822.373	75.95
822.551	121
822.729	59.56
822.907	43.18
823.085	86.19
823.262	75.95
823.44	20.65
823.618	51.37
823.796	82.09
823.974	12.46
824.152	194.73
824.329	108.71
824.507	75.95
824.685	98.47
824.863	47.27
825.04	88.23
825.218	145.58
825.396	0.17
825.574	135.34
825.751	145.58
825.929	118.95
826.107	147.62
826.284	77.99
826.462	135.34
826.639	135.34
826.817	80.04
826.994	77.99
827.172	75.95
827.349	55.47
827.527	30.89
827.704	149.67
827.882	137.38
828.059	73.9
828.237	108.71
828.414	37.03
828.591	92.33
828.769	112.81
828.946	-5.97
829.124	92.33
829.301	108.71
829.478	102.57
829.655	69.8
829.833	90.28
830.01	67.75
830.187	125.1
830.364	26.79
830.542	188.58
830.719	102.57
830.896	127.14
831.073	116.9
831.25	14.51
831.427	67.75
831.604	90.28
831.782	45.23
831.959	100.52
832.136	47.27
832.313	82.09
832.49	45.23
832.667	12.46
832.844	-12.12
833.021	96.43
833.198	69.8
833.374	51.37
833.551	77.99
833.728	75.95
833.905	129.19
834.082	22.7
834.259	102.57
834.436	121
834.612	45.23
834.789	75.95
834.966	86.19
835.143	24.75
835.319	20.65
835.496	43.18
835.673	77.99
835.85	125.1
836.026	32.94
836.203	75.95
836.38	43.18
836.556	86.19
836.733	16.55
836.909	141.48
837.086	92.33
837.262	59.56
837.439	47.27
837.616	100.52
837.792	102.57
837.968	53.42
838.145	94.38
838.321	84.14
838.498	92.33
838.674	118.95
838.851	24.75
839.027	53.42
839.203	10.41
839.38	18.6
839.556	6.31
839.732	63.66
839.909	26.79
840.085	63.66
840.261	10.41
840.437	84.14
840.614	2.22
840.79	63.66
840.966	26.79
841.142	30.89
841.318	51.37
841.494	67.75
841.671	75.95
841.847	34.99
842.023	28.84
842.199	100.52
842.375	67.75
842.551	-42.84
842.727	-22.36
842.903	55.47
843.079	75.95
843.255	61.61
843.431	14.51
843.607	53.42
843.783	30.89
843.959	90.28
844.134	22.7
844.31	108.71
844.486	88.23
844.662	18.6
844.838	112.81
845.013	51.37
845.189	84.14
845.365	84.14
845.541	55.47
845.716	37.03
845.892	92.33
846.068	18.6
846.244	-1.88
846.419	63.66
846.595	2.22
846.77	22.7
846.946	-3.93
847.122	45.23
847.297	22.7
847.473	86.19
847.648	-20.31
847.824	67.75
847.999	57.51
848.175	108.71
848.35	75.95
848.526	45.23
848.701	12.46
848.876	59.56
849.052	2.22
849.227	2.22
849.403	22.7
849.578	43.18
849.753	59.56
849.929	28.84
850.104	-53.08
850.279	55.47
850.454	57.51
850.63	41.13
850.805	0.17
850.98	92.33
851.155	59.56
851.33	71.85
851.505	-20.31
851.681	100.52
851.856	-18.26
852.031	84.14
852.206	37.03
852.381	53.42
852.556	2.22
852.731	-12.12
852.906	51.37
853.081	84.14
853.256	145.58
853.431	34.99
853.606	77.99
853.781	18.6
853.956	-14.17
854.131	6.31
854.305	22.7
854.48	-28.5
854.655	51.37
854.83	6.31
855.005	-8.02
855.18	4.27
855.354	26.79
855.529	86.19
855.704	18.6
855.879	14.51
856.053	34.99
856.228	-8.02
856.403	10.41
856.577	2.22
856.752	-12.12
856.926	82.09
857.101	-22.36
857.276	-44.88
857.45	55.47
857.625	59.56
857.799	-22.36
857.974	47.27
858.148	-12.12
858.323	-20.31
858.497	-10.07
858.672	69.8
858.846	-12.12
859.02	75.95
859.195	-61.27
859.369	2.22
859.543	26.79
859.718	92.33
859.892	53.42
860.066	18.6
860.241	-28.5
860.415	-1.88
860.589	-3.93
860.763	-28.5
860.938	-73.56
861.112	51.37
861.286	43.18
861.46	73.9
861.634	-51.03
861.808	43.18
861.982	-30.55
862.157	10.41
862.331	18.6
862.505	-3.93
862.679	34.99
862.853	57.51
863.027	-63.32
863.201	69.8
863.375	-10.07
863.549	51.37
863.722	80.04
863.896	59.56
864.07	-5.97
864.244	69.8
864.418	61.61
864.592	71.85
864.766	-14.17
864.939	16.55
865.113	-3.93
865.287	55.47
865.461	-36.69
865.634	0.17
865.808	-22.36
865.982	-5.97
866.156	63.66
866.329	-12.12
866.503	-5.97
866.676	18.6
866.85	-77.65
867.024	-24.4
867.197	53.42
867.371	77.99
867.544	24.75
867.718	10.41
867.891	-5.97
868.065	20.65
868.238	26.79
868.412	63.66
868.585	30.89
868.759	47.27
868.932	-26.45
869.105	2.22
869.279	-22.36
869.452	59.56
869.625	77.99
869.799	-26.45
869.972	-16.21
870.145	55.47
870.319	10.41
870.492	59.56
870.665	-38.74
870.838	-28.5
871.011	-104.28
871.185	30.89
871.358	28.84
871.531	39.08
871.704	47.27
871.877	53.42
872.05	88.23
872.223	10.41
872.396	18.6
872.569	57.51
872.742	-26.45
872.915	0.17
873.088	14.51
873.261	-18.26
873.434	88.23
873.607	69.8
873.78	69.8
873.953	-20.31
874.126	-3.93
874.299	45.23
874.471	-55.12
874.644	59.56
874.817	71.85
874.99	12.46
875.163	22.7
875.335	-59.22
875.508	69.8
875.681	92.33
875.853	-48.98
876.026	2.22
876.199	-38.74
876.371	-5.97
876.544	39.08
876.717	-22.36
876.889	80.04
877.062	-5.97
877.234	-14.17
877.407	-30.55
877.579	22.7
877.752	-14.17
877.924	69.8
878.097	14.51
878.269	-30.55
878.442	45.23
878.614	55.47
878.786	26.79
878.959	-22.36
879.131	22.7
879.303	16.55
879.476	51.37
879.648	0.17
879.82	10.41
879.993	-12.12
880.165	34.99
880.337	-22.36
880.509	34.99
880.681	-71.51
880.854	34.99
881.026	43.18
881.198	80.04
881.37	-38.74
881.542	-38.74
881.714	-34.64
881.886	16.55
882.058	55.47
882.23	18.6
882.402	-44.88
882.574	75.95
882.746	100.52
882.918	77.99
883.09	10.41
883.262	-26.45
883.434	-42.84
883.606	-91.99
883.778	-16.21
883.95	71.85
884.122	-1.88
884.293	2.22
884.465	39.08
884.637	24.75
884.809	-5.97
884.98	45.23
885.152	-14.17
885.324	51.37
885.496	-81.75
885.667	-10.07
885.839	18.6
886.011	20.65
886.182	32.94
886.354	28.84
886.525	39.08
886.697	28.84
886.869	-5.97
887.04	-12.12
887.212	43.18
887.383	26.79
887.555	94.38
887.726	22.7
887.897	-59.22
888.069	39.08
888.24	-18.26
888.412	-69.46
888.583	-30.55
888.754	-26.45
888.926	-44.88
889.097	63.66
889.268	67.75
889.44	22.7
889.611	-102.23
889.782	37.03
889.953	-5.97
890.125	47.27
890.296	-42.84
890.467	-46.93
890.638	-77.65
890.809	-40.79
890.98	-46.93
891.151	37.03
891.323	26.79
891.494	8.36
891.665	-14.17
891.836	63.66
892.007	18.6
892.178	43.18
892.349	-30.55
892.52	-55.12
892.691	-51.03
892.862	-8.02
893.032	-61.27
893.203	12.46
893.374	-26.45
893.545	10.41
893.716	-14.17
893.887	20.65
894.057	26.79
894.228	-67.41
894.399	-8.02
894.57	104.62
894.74	-65.36
894.911	34.99
895.082	18.6
895.253	18.6
895.423	-55.12
895.594	53.42
895.764	18.6
895.935	-30.55
896.106	-10.07
896.276	-28.5
896.447	10.41
896.617	10.41
896.788	26.79
896.958	-34.64
897.129	14.51
897.299	-30.55
897.47	-38.74
897.64	26.79
897.81	39.08
897.981	75.95
898.151	-34.64
898.322	-5.97
898.492	-51.03
898.662	61.61
898.832	-51.03
899.003	67.75
899.173	2.22
899.343	-51.03
899.513	-3.93
