Data from USB4F104151__131__14-31-42-003.txt Node

Date: Thu Mar 13 14:31:42 EDT 2025
User: louis
Spectrometer: USB4F10415
Trigger mode: 4
Integration Time (sec): 2.500000E-2
Scans to average: 1
Electric dark correction enabled: true
Nonlinearity correction enabled: false
Boxcar width: 0
XAxis mode: Wavelengths
Number of Pixels in Spectrum: 3648
>>>>>Begin Spectral Data<<<<<
178.204	-122.88
178.424	-122.88
178.644	-122.88
178.864	-151.55
179.084	-106.49
179.304	65.53
179.524	0
179.744	-40.96
179.964	30.72
180.184	-49.15
180.404	36.86
180.624	36.86
180.844	-4.1
181.064	-67.58
181.283	53.25
181.503	-67.58
181.723	6.14
181.943	2.05
182.163	96.25
182.383	-4.1
182.602	79.87
182.822	45.06
183.042	45.06
183.262	22.53
183.482	36.86
183.701	4.1
183.921	12.29
184.141	-10.24
184.361	88.06
184.58	57.34
184.8	20.48
185.02	12.29
185.239	79.87
185.459	0
185.679	69.63
185.898	-71.68
186.118	77.82
186.338	61.44
186.557	24.58
186.777	8.19
186.997	-36.86
187.216	63.49
187.436	135.17
187.655	24.58
187.875	51.2
188.095	22.53
188.314	88.06
188.534	51.2
188.753	69.63
188.973	40.96
189.192	-2.05
189.412	22.53
189.631	61.44
189.851	40.96
190.07	88.06
190.29	-61.44
190.509	86.01
190.729	4.1
190.948	18.43
191.168	131.07
191.387	30.72
191.607	55.3
191.826	4.1
192.045	-57.34
192.265	-12.29
192.484	6.14
192.704	104.45
192.923	28.67
193.142	104.45
193.362	30.72
193.581	4.1
193.8	4.1
194.02	20.48
194.239	0
194.458	28.67
194.678	24.58
194.897	-8.19
195.116	77.82
195.335	61.44
195.555	49.15
195.774	53.25
195.993	-28.67
196.212	-40.96
196.432	-22.53
196.651	-6.14
196.87	-8.19
197.089	86.01
197.308	45.06
197.528	86.01
197.747	-40.96
197.966	45.06
198.185	40.96
198.404	-51.2
198.623	20.48
198.842	51.2
199.062	73.73
199.281	24.58
199.5	-30.72
199.719	53.25
199.938	36.86
200.157	-20.48
200.376	34.82
200.595	22.53
200.814	40.96
201.033	65.53
201.252	55.3
201.471	88.06
201.69	24.58
201.909	-12.29
202.128	30.72
202.347	47.1
202.566	12.29
202.785	-32.77
203.004	28.67
203.223	49.15
203.442	45.06
203.661	40.96
203.879	12.29
204.098	22.53
204.317	-12.29
204.536	36.86
204.755	22.53
204.974	36.86
205.193	8.19
205.411	45.06
205.63	40.96
205.849	61.44
206.068	69.63
206.287	94.21
206.505	47.1
206.724	4.1
206.943	30.72
207.162	28.67
207.381	38.91
207.599	24.58
207.818	28.67
208.037	-20.48
208.255	-49.15
208.474	-16.38
208.693	49.15
208.911	4.1
209.13	45.06
209.349	86.01
209.567	53.25
209.786	69.63
210.005	73.73
210.223	30.72
210.442	-28.67
210.661	79.87
210.879	22.53
211.098	-18.43
211.316	22.53
211.535	61.44
211.753	28.67
211.972	-10.24
212.191	81.92
212.409	18.43
212.628	16.38
212.846	45.06
213.065	36.86
213.283	14.34
213.502	-12.29
213.72	53.25
213.938	122.88
214.157	-28.67
214.375	69.63
214.594	43.01
214.812	28.67
215.031	10.24
215.249	4.1
215.467	14.34
215.686	65.53
215.904	86.01
216.122	131.07
216.341	63.49
216.559	4.1
216.778	73.73
216.996	38.91
217.214	61.44
217.432	40.96
217.651	8.19
217.869	45.06
218.087	94.21
218.306	-26.62
218.524	104.45
218.742	2.05
218.96	20.48
219.179	-55.3
219.397	-4.1
219.615	45.06
219.833	73.73
220.051	32.77
220.27	45.06
220.488	55.3
220.706	100.35
220.924	-28.67
221.142	6.14
221.36	0
221.578	55.3
221.796	-36.86
222.015	43.01
222.233	-40.96
222.451	69.63
222.669	28.67
222.887	47.1
223.105	-18.43
223.323	28.67
223.541	-79.87
223.759	94.21
223.977	4.1
224.195	36.86
224.413	129.02
224.631	28.67
224.849	65.53
225.067	57.34
225.285	24.58
225.503	-4.1
225.721	36.86
225.939	110.59
226.157	36.86
226.375	110.59
226.592	-2.05
226.81	20.48
227.028	120.83
227.246	104.45
227.464	14.34
227.682	12.29
227.9	57.34
228.117	40.96
228.335	-2.05
228.553	28.67
228.771	28.67
228.989	36.86
229.206	-32.77
229.424	-51.2
229.642	30.72
229.86	-53.25
230.077	8.19
230.295	79.87
230.513	49.15
230.731	45.06
230.948	77.82
231.166	-4.1
231.384	61.44
231.601	57.34
231.819	32.77
232.037	-73.73
232.254	-12.29
232.472	40.96
232.689	-53.25
232.907	57.34
233.125	57.34
233.342	63.49
233.56	2.05
233.777	36.86
233.995	-38.91
234.213	61.44
234.43	55.3
234.648	-36.86
234.865	45.06
235.083	88.06
235.3	-12.29
235.518	28.67
235.735	36.86
235.953	90.11
236.17	69.63
236.388	53.25
236.605	20.48
236.822	79.87
237.04	53.25
237.257	18.43
237.475	81.92
237.692	61.44
237.909	28.67
238.127	14.34
238.344	-16.38
238.562	0
238.779	-8.19
238.996	8.19
239.214	-12.29
239.431	36.86
239.648	22.53
239.865	79.87
240.083	6.14
240.3	43.01
240.517	94.21
240.735	90.11
240.952	77.82
241.169	30.72
241.386	-16.38
241.603	49.15
241.821	-28.67
242.038	98.3
242.255	63.49
242.472	16.38
242.689	14.34
242.907	81.92
243.124	61.44
243.341	47.1
243.558	-36.86
243.775	-40.96
243.992	6.14
244.209	-12.29
244.426	75.77
244.643	79.87
244.86	47.1
245.078	47.1
245.295	12.29
245.512	-34.82
245.729	-6.14
245.946	36.86
246.163	6.14
246.38	20.48
246.597	32.77
246.814	-4.1
247.031	40.96
247.248	20.48
247.464	47.1
247.681	0
247.898	-43.01
248.115	94.21
248.332	20.48
248.549	45.06
248.766	24.58
248.983	73.73
249.2	14.34
249.417	57.34
249.633	-6.14
249.85	4.1
250.067	79.87
250.284	-34.82
250.501	30.72
250.717	40.96
250.934	-69.63
251.151	-4.1
251.368	20.48
251.585	32.77
251.801	38.91
252.018	61.44
252.235	98.3
252.451	-34.82
252.668	36.86
252.885	88.06
253.102	57.34
253.318	67.58
253.535	-18.43
253.752	69.63
253.968	14.34
254.185	-12.29
254.401	10.24
254.618	28.67
254.835	20.48
255.051	65.53
255.268	14.34
255.484	12.29
255.701	-4.1
255.917	-12.29
256.134	8.19
256.351	40.96
256.567	30.72
256.784	20.48
257	10.24
257.217	55.3
257.433	61.44
257.65	36.86
257.866	45.06
258.082	-57.34
258.299	-36.86
258.515	28.67
258.732	53.25
258.948	36.86
259.165	73.73
259.381	47.1
259.597	14.34
259.814	24.58
260.03	53.25
260.246	18.43
260.463	67.58
260.679	96.25
260.895	34.82
261.112	16.38
261.328	16.38
261.544	2.05
261.761	94.21
261.977	-4.1
262.193	-43.01
262.409	45.06
262.626	61.44
262.842	71.68
263.058	0
263.274	36.86
263.49	-61.44
263.707	49.15
263.923	-12.29
264.139	-53.25
264.355	61.44
264.571	55.3
264.787	43.01
265.004	45.06
265.22	8.19
265.436	-12.29
265.652	-34.82
265.868	67.58
266.084	49.15
266.3	49.15
266.516	-45.06
266.732	45.06
266.948	69.63
267.164	20.48
267.38	45.06
267.596	63.49
267.812	81.92
268.028	73.73
268.244	-12.29
268.46	12.29
268.676	122.88
268.892	20.48
269.108	-71.68
269.324	-30.72
269.54	6.14
269.756	36.86
269.972	-4.1
270.188	45.06
270.403	18.43
270.619	18.43
270.835	45.06
271.051	20.48
271.267	28.67
271.483	34.82
271.698	71.68
271.914	-4.1
272.13	-2.05
272.346	-73.73
272.562	-36.86
272.777	36.86
272.993	-16.38
273.209	16.38
273.425	8.19
273.64	-77.82
273.856	45.06
274.072	16.38
274.287	0
274.503	30.72
274.719	47.1
274.934	-36.86
275.15	40.96
275.366	36.86
275.581	24.58
275.797	12.29
276.012	6.14
276.228	4.1
276.444	36.86
276.659	90.11
276.875	2.05
277.09	2.05
277.306	26.62
277.521	20.48
277.737	28.67
277.952	86.01
278.168	-18.43
278.383	90.11
278.599	28.67
278.814	-4.1
279.03	-36.86
279.245	63.49
279.461	-18.43
279.676	45.06
279.892	73.73
280.107	20.48
280.322	20.48
280.538	24.58
280.753	22.53
280.969	28.67
281.184	2.05
281.399	73.73
281.615	20.48
281.83	86.01
282.045	-6.14
282.26	-2.05
282.476	32.77
282.691	81.92
282.906	-43.01
283.122	81.92
283.337	49.15
283.552	-2.05
283.767	-36.86
283.983	12.29
284.198	-12.29
284.413	36.86
284.628	-18.43
284.843	94.21
285.058	-16.38
285.274	77.82
285.489	6.14
285.704	61.44
285.919	-4.1
286.134	38.91
286.349	-8.19
286.564	4.1
286.779	-26.62
286.995	73.73
287.21	18.43
287.425	-4.1
287.64	18.43
287.855	47.1
288.07	-51.2
288.285	-8.19
288.5	61.44
288.715	30.72
288.93	-12.29
289.145	-8.19
289.36	45.06
289.575	12.29
289.79	14.34
290.004	36.86
290.219	81.92
290.434	0
290.649	-38.91
290.864	-18.43
291.079	8.19
291.294	73.73
291.509	14.34
291.724	47.1
291.938	14.34
292.153	61.44
292.368	-16.38
292.583	71.68
292.798	14.34
293.012	38.91
293.227	-67.58
293.442	22.53
293.657	55.3
293.871	30.72
294.086	-6.14
294.301	45.06
294.516	30.72
294.73	45.06
294.945	30.72
295.16	94.21
295.374	24.58
295.589	24.58
295.804	12.29
296.018	-22.53
296.233	55.3
296.447	24.58
296.662	-14.34
296.877	30.72
297.091	83.97
297.306	-28.67
297.52	12.29
297.735	-2.05
297.949	-12.29
298.164	57.34
298.378	38.91
298.593	61.44
298.807	28.67
299.022	36.86
299.236	51.2
299.451	-18.43
299.665	18.43
299.88	-24.58
300.094	22.53
300.309	-4.1
300.523	63.49
300.737	45.06
300.952	-4.1
301.166	77.82
301.381	16.38
301.595	-12.29
301.809	47.1
302.024	-12.29
302.238	-16.38
302.452	36.86
302.667	45.06
302.881	-28.67
303.095	51.2
303.309	53.25
303.524	38.91
303.738	53.25
303.952	4.1
304.166	73.73
304.381	-2.05
304.595	-12.29
304.809	63.49
305.023	-4.1
305.237	71.68
305.452	-8.19
305.666	69.63
305.88	88.06
306.094	28.67
306.308	77.82
306.522	71.68
306.736	94.21
306.95	-20.48
307.164	-10.24
307.379	-16.38
307.593	67.58
307.807	69.63
308.021	73.73
308.235	-12.29
308.449	-20.48
308.663	83.97
308.877	40.96
309.091	61.44
309.305	137.21
309.519	-16.38
309.733	81.92
309.947	-36.86
310.161	106.49
310.374	28.67
310.588	45.06
310.802	-38.91
311.016	94.21
311.23	67.58
311.444	20.48
311.658	-32.77
311.872	14.34
312.085	73.73
312.299	96.25
312.513	14.34
312.727	30.72
312.941	8.19
313.154	22.53
313.368	30.72
313.582	77.82
313.796	108.54
314.009	14.34
314.223	69.63
314.437	73.73
314.651	49.15
314.864	-8.19
315.078	30.72
315.292	69.63
315.505	-51.2
315.719	90.11
315.933	-4.1
316.146	-4.1
316.36	8.19
316.573	131.07
316.787	32.77
317.001	-12.29
317.214	30.72
317.428	28.67
317.641	8.19
317.855	22.53
318.068	14.34
318.282	73.73
318.495	63.49
318.709	36.86
318.922	22.53
319.136	79.87
319.349	-6.14
319.563	-4.1
319.776	45.06
319.99	-45.06
320.203	61.44
320.417	20.48
320.63	45.06
320.843	-4.1
321.057	45.06
321.27	45.06
321.483	20.48
321.697	96.25
321.91	104.45
322.124	36.86
322.337	6.14
322.55	12.29
322.763	53.25
322.977	36.86
323.19	36.86
323.403	20.48
323.617	100.35
323.83	12.29
324.043	4.1
324.256	18.43
324.469	47.1
324.683	51.2
324.896	4.1
325.109	22.53
325.322	53.25
325.535	55.3
325.748	61.44
325.962	14.34
326.175	63.49
326.388	69.63
326.601	57.34
326.814	-2.05
327.027	20.48
327.24	92.16
327.453	-18.43
327.666	12.29
327.879	16.38
328.092	38.91
328.305	34.82
328.518	51.2
328.731	73.73
328.944	-61.44
329.157	38.91
329.37	-4.1
329.583	79.87
329.796	-12.29
330.009	14.34
330.222	28.67
330.435	4.1
330.648	83.97
330.861	12.29
331.073	28.67
331.286	71.68
331.499	12.29
331.712	-8.19
331.925	55.3
332.138	4.1
332.35	79.87
332.563	51.2
332.776	28.67
332.989	45.06
333.202	28.67
333.414	-10.24
333.627	57.34
333.84	-45.06
334.053	77.82
334.265	43.01
334.478	53.25
334.691	20.48
334.903	-26.62
335.116	51.2
335.329	-4.1
335.541	47.1
335.754	24.58
335.966	40.96
336.179	47.1
336.392	24.58
336.604	12.29
336.817	14.34
337.029	-28.67
337.242	-43.01
337.454	32.77
337.667	4.1
337.88	12.29
338.092	63.49
338.305	104.45
338.517	-20.48
338.729	53.25
338.942	69.63
339.154	47.1
339.367	83.97
339.579	-59.39
339.792	-45.06
340.004	49.15
340.217	53.25
340.429	36.86
340.641	0
340.854	4.1
341.066	36.86
341.278	73.73
341.491	90.11
341.703	32.77
341.915	45.06
342.128	47.1
342.34	26.62
342.552	-36.86
342.764	8.19
342.977	26.62
343.189	69.63
343.401	12.29
343.613	-53.25
343.826	61.44
344.038	16.38
344.25	77.82
344.462	16.38
344.674	24.58
344.886	-20.48
345.099	28.67
345.311	28.67
345.523	0
345.735	-34.82
345.947	71.68
346.159	-8.19
346.371	8.19
346.583	-12.29
346.795	108.54
347.007	-6.14
347.219	24.58
347.431	36.86
347.643	73.73
347.855	53.25
348.067	129.02
348.279	-12.29
348.491	69.63
348.703	36.86
348.915	14.34
349.127	38.91
349.339	20.48
349.551	0
349.763	63.49
349.975	34.82
350.187	63.49
350.399	110.59
350.61	98.3
350.822	30.72
351.034	49.15
351.246	38.91
351.458	-20.48
351.669	73.73
351.881	149.5
352.093	96.25
352.305	32.77
352.517	32.77
352.728	118.78
352.94	36.86
353.152	36.86
353.363	-2.05
353.575	69.63
353.787	18.43
353.999	102.4
354.21	75.77
354.422	120.83
354.633	-24.58
354.845	18.43
355.057	16.38
355.268	90.11
355.48	90.11
355.692	36.86
355.903	59.39
356.115	-14.34
356.326	-4.1
356.538	104.45
356.749	94.21
356.961	96.25
357.172	49.15
357.384	14.34
357.595	63.49
357.807	45.06
358.018	10.24
358.23	57.34
358.441	86.01
358.653	65.53
358.864	-8.19
359.075	36.86
359.287	12.29
359.498	90.11
359.709	79.87
359.921	30.72
360.132	102.4
360.344	83.97
360.555	28.67
360.766	4.1
360.977	-6.14
361.189	47.1
361.4	55.3
361.611	-12.29
361.823	28.67
362.034	53.25
362.245	-51.2
362.456	65.53
362.667	20.48
362.879	6.14
363.09	57.34
363.301	79.87
363.512	30.72
363.723	61.44
363.935	-24.58
364.146	36.86
364.357	47.1
364.568	59.39
364.779	-4.1
364.99	65.53
365.201	4.1
365.412	79.87
365.623	36.86
365.834	98.3
366.045	47.1
366.256	71.68
366.467	86.01
366.678	2.05
366.889	73.73
367.1	61.44
367.311	47.1
367.522	-34.82
367.733	71.68
367.944	94.21
368.155	16.38
368.366	36.86
368.577	28.67
368.788	88.06
368.999	0
369.209	114.69
369.42	-2.05
369.631	79.87
369.842	137.21
370.053	32.77
370.264	88.06
370.474	-12.29
370.685	0
370.896	14.34
371.107	110.59
371.317	-18.43
371.528	30.72
371.739	28.67
371.95	-22.53
372.16	-26.62
372.371	22.53
372.582	38.91
372.792	22.53
373.003	36.86
373.214	-4.1
373.424	-36.86
373.635	18.43
373.846	98.3
374.056	108.54
374.267	69.63
374.477	61.44
374.688	30.72
374.898	112.64
375.109	20.48
375.319	-28.67
375.53	57.34
375.74	45.06
375.951	63.49
376.161	-55.3
376.372	61.44
376.582	6.14
376.793	2.05
377.003	-57.34
377.214	20.48
377.424	75.77
377.635	6.14
377.845	43.01
378.055	36.86
378.266	4.1
378.476	53.25
378.686	24.58
378.897	69.63
379.107	69.63
379.317	65.53
379.528	53.25
379.738	22.53
379.948	112.64
380.158	14.34
380.369	14.34
380.579	176.13
380.789	-20.48
380.999	79.87
381.21	40.96
381.42	69.63
381.63	-4.1
381.84	51.2
382.05	38.91
382.261	20.48
382.471	69.63
382.681	34.82
382.891	75.77
383.101	20.48
383.311	-30.72
383.521	45.06
383.731	45.06
383.941	98.3
384.151	118.78
384.361	4.1
384.571	104.45
384.781	69.63
384.991	167.93
385.201	28.67
385.411	49.15
385.621	104.45
385.831	22.53
386.041	36.86
386.251	-4.1
386.461	53.25
386.671	92.16
386.881	112.64
387.091	10.24
387.301	32.77
387.511	-12.29
387.72	-10.24
387.93	59.39
388.14	-28.67
388.35	94.21
388.56	45.06
388.769	102.4
388.979	49.15
389.189	20.48
389.399	53.25
389.609	75.77
389.818	63.49
390.028	32.77
390.238	59.39
390.447	61.44
390.657	147.45
390.867	-10.24
391.076	102.4
391.286	96.25
391.496	110.59
391.705	81.92
391.915	71.68
392.125	63.49
392.334	49.15
392.544	75.77
392.753	61.44
392.963	10.24
393.172	51.2
393.382	40.96
393.591	79.87
393.801	43.01
394.01	137.21
394.22	71.68
394.429	94.21
394.639	57.34
394.848	65.53
395.058	88.06
395.267	-2.05
395.477	102.4
395.686	43.01
395.895	102.4
396.105	139.26
396.314	112.64
396.524	176.13
396.733	161.79
396.942	106.49
397.152	135.17
397.361	212.99
397.57	110.59
397.78	73.73
397.989	126.97
398.198	137.21
398.407	14.34
398.617	47.1
398.826	12.29
399.035	118.78
399.244	106.49
399.453	77.82
399.663	133.12
399.872	65.53
400.081	79.87
400.29	208.89
400.499	102.4
400.708	159.74
400.917	143.36
401.127	184.32
401.336	94.21
401.545	143.36
401.754	110.59
401.963	174.08
402.172	86.01
402.381	98.3
402.59	120.83
402.799	120.83
403.008	94.21
403.217	112.64
403.426	153.6
403.635	112.64
403.844	96.25
404.053	135.17
404.262	94.21
404.471	161.79
404.68	143.36
404.888	112.64
405.097	167.93
405.306	118.78
405.515	192.51
405.724	184.32
405.933	153.6
406.142	178.17
406.35	253.95
406.559	217.08
406.768	129.02
406.977	292.86
407.185	172.03
407.394	280.57
407.603	176.13
407.812	172.03
408.02	274.43
408.229	206.84
408.438	198.65
408.646	227.32
408.855	217.08
409.064	243.71
409.272	262.14
409.481	372.73
409.69	260.09
409.898	301.05
410.107	276.48
410.315	307.2
410.524	329.72
410.733	346.11
410.941	395.26
411.15	425.98
411.358	376.83
411.567	417.79
411.775	356.35
411.984	518.14
412.192	499.7
412.401	462.84
412.609	495.61
412.818	552.95
413.026	462.84
413.234	516.09
413.443	536.57
413.651	538.62
413.86	602.1
414.068	651.25
414.276	724.98
414.485	684.02
414.693	765.94
414.901	767.99
415.11	784.37
415.318	708.6
415.526	759.8
415.734	831.48
415.943	782.32
416.151	849.91
416.359	847.86
416.567	819.19
416.776	927.73
416.984	1036.27
417.192	1003.5
417.4	1052.66
417.608	983.02
417.817	1161.2
418.025	1220.59
418.233	1322.99
418.441	1148.91
418.649	1347.56
418.857	1374.19
419.065	1472.49
419.273	1327.08
419.481	1357.8
419.689	1613.8
419.897	1587.18
420.105	1675.24
420.313	1708.01
420.521	1683.43
420.729	1732.58
420.937	1806.31
421.145	1890.28
421.353	2090.98
421.561	2035.68
421.769	2017.25
421.977	2252.77
422.185	2150.37
422.393	2220
422.601	2437.08
422.809	2408.41
423.017	2494.43
423.224	2609.11
423.432	2613.21
423.64	2596.82
423.848	2979.79
424.056	2873.3
424.263	2998.23
424.471	3004.37
424.679	3190.74
424.887	3231.69
425.094	3307.47
425.302	3311.57
425.51	3436.49
425.718	3719.11
425.925	3581.9
426.133	3850.18
426.341	4040.64
426.548	4100.03
426.756	4128.7
426.964	4276.16
427.171	4356.03
427.379	4485.05
427.586	4632.51
427.794	4757.43
428.001	4968.37
428.209	5216.18
428.417	5160.88
428.624	5431.21
428.832	5402.54
429.039	5377.97
429.247	5472.17
429.454	5879.72
429.662	6404
429.869	5904.29
430.076	6379.42
430.284	6148
430.491	6461.34
430.699	6791.06
430.906	6643.61
431.114	6893.46
431.321	7038.87
431.528	7151.51
431.736	7794.57
431.943	8058.76
432.15	7876.49
432.358	8040.33
432.565	8374.14
432.772	8171.4
432.979	8621.95
433.187	8863.61
433.394	9039.73
433.601	9650.03
433.808	9570.16
434.016	9443.18
434.223	9672.56
434.43	10366.82
434.637	10223.46
434.844	10866.52
435.052	11067.22
435.259	11056.98
435.466	11087.7
435.673	10975.06
435.88	11624.27
436.087	12166.98
436.294	12123.98
436.501	11978.57
436.708	12181.32
436.915	12875.58
437.122	13344.56
437.329	13188.92
437.537	13721.39
437.743	13643.57
437.95	13698.86
438.157	14432.04
438.364	14927.64
438.571	14782.24
438.778	14669.6
438.985	16269.06
439.192	15660.82
439.399	16133.9
439.606	15687.44
439.813	16680.71
440.02	17499.89
440.227	17252.09
440.433	16951.04
440.64	17639.15
440.847	17762.03
441.054	17895.15
441.261	19347.16
441.467	19017.44
441.674	19517.14
441.881	20221.64
442.088	20102.86
442.294	19873.49
442.501	20510.41
442.708	20688.58
442.914	21774
443.121	22046.38
443.328	21790.39
443.534	23469.72
443.741	22769.32
443.948	22255.28
444.154	24182.41
444.361	23961.23
444.568	23850.64
444.774	24202.89
444.981	24135.31
445.187	24667.78
445.394	25810.55
445.6	25745.02
445.807	28110.42
446.013	27111.01
446.22	27270.75
446.426	28440.14
446.633	28503.63
446.839	29455.93
447.046	28474.96
447.252	29687.35
447.459	30408.24
447.665	29853.24
447.871	31233.57
448.078	32593.42
448.284	30891.56
448.491	32167.45
448.697	32988.68
448.903	33394.18
449.11	33527.3
449.316	33173
449.522	33881.6
449.728	34696.69
449.935	35239.4
450.141	35067.37
450.347	35620.32
450.553	34469.36
450.76	35151.34
450.966	35941.85
451.172	35681.76
451.378	36937.16
451.584	36154.84
451.791	36541.91
451.997	36746.7
452.203	37344.71
452.409	37469.64
452.615	37023.18
452.821	35587.55
453.027	35384.8
453.233	36963.79
453.44	35560.93
453.646	35368.42
453.852	36261.33
454.058	36799.95
454.264	35560.93
454.47	36324.82
454.676	35429.86
454.882	36267.48
455.088	33527.3
455.294	33934.84
455.5	34194.93
455.705	34790.89
455.911	33195.53
456.117	32349.71
456.323	32132.63
456.529	30613.04
456.735	32134.68
456.941	31118.89
457.147	30416.43
457.352	29621.82
457.558	29480.51
457.764	29105.73
457.97	28642.89
458.176	28302.93
458.381	28290.64
458.587	26656.36
458.793	26834.53
458.999	25206.4
459.204	26891.88
459.41	26338.93
459.616	24827.53
459.821	24729.22
460.027	24409.74
460.233	23787.16
460.438	22927.01
460.644	22845.09
460.85	21604.02
461.055	21561.01
461.261	21411.51
461.466	19730.13
461.672	19173.08
461.878	20590.28
462.083	19064.54
462.289	18818.78
462.494	18845.41
462.7	17669.87
462.905	17256.18
463.111	17764.08
463.316	17923.82
463.522	17495.8
463.727	17383.16
463.932	17723.12
464.138	17370.87
464.343	17161.98
464.549	16748.29
464.754	17274.62
464.959	17186.55
465.165	17151.74
465.37	16385.8
465.575	15984.4
465.781	16381.7
465.986	16555.78
466.191	16338.69
466.397	15535.89
466.602	14792.48
466.807	15474.45
467.012	15417.11
467.218	15341.33
467.423	15204.12
467.628	15234.84
467.833	15724.3
468.038	15200.02
468.244	14624.54
468.449	15363.86
468.654	14589.73
468.859	14503.71
469.064	14429.99
469.269	14255.91
469.474	13940.52
469.679	14544.67
469.885	14309.16
470.09	14182.18
470.295	13895.47
470.5	13754.16
470.705	14153.51
470.91	13449.01
471.115	13608.75
471.32	13571.89
471.525	13528.88
471.73	13311.8
471.935	13092.66
472.139	12513.09
472.344	12717.89
472.549	12707.65
472.754	12627.78
472.959	12361.54
473.164	12029.77
473.369	11718.48
473.574	12369.73
473.778	12164.93
473.983	12089.16
474.188	12074.82
474.393	11329.36
474.598	11444.05
474.802	11292.5
475.007	11272.02
475.212	11317.08
475.417	10780.51
475.621	11036.5
475.826	10835.8
476.031	10774.36
476.235	10481.5
476.44	10706.78
476.645	10446.69
476.849	10497.89
477.054	10270.56
477.259	10145.64
477.463	10112.87
477.668	9987.94
477.872	10086.25
478.077	10076.01
478.282	9344.88
478.486	9746.28
478.691	9619.31
478.895	9480.05
479.1	9344.88
479.304	9328.5
479.509	9109.36
479.713	9129.84
479.918	9279.35
480.122	8886.14
480.326	9023.35
480.531	9066.36
480.735	9021.3
480.94	8785.79
481.144	9199.48
481.348	8757.11
481.553	8841.08
481.757	8832.89
481.961	8826.75
482.166	8918.9
482.37	8781.69
482.574	8554.37
482.778	8777.59
482.983	8828.79
483.187	8605.56
483.391	8861.56
483.595	8638.33
483.8	8583.04
484.004	8624
484.208	8839.03
484.412	8687.48
484.616	8632.19
484.821	8583.04
485.025	8490.88
485.229	8841.08
485.433	8560.51
485.637	8441.73
485.841	8437.63
486.045	8417.15
486.249	8746.87
486.453	8370.05
486.657	8466.3
486.861	8501.12
487.065	8433.54
487.269	8634.24
487.473	8384.38
487.677	8531.84
487.881	8583.04
488.085	8480.64
488.289	8554.37
488.493	8331.14
488.697	8699.77
488.901	8576.89
489.105	8611.71
489.309	8671.1
489.512	8501.12
489.716	8540.03
489.92	8462.21
490.124	8478.59
490.328	8791.93
490.531	8509.31
490.735	8869.75
490.939	8605.56
491.143	8630.14
491.346	8783.74
491.55	8691.58
491.754	8662.91
491.958	8769.4
492.161	8830.84
492.365	8677.24
492.569	8836.99
492.772	8830.84
492.976	8867.7
493.18	8902.52
493.383	8916.86
493.587	9023.35
493.79	9156.47
493.994	8867.7
494.197	9097.08
494.401	9301.87
494.605	9154.42
494.808	9297.78
495.012	9160.56
495.215	9549.68
495.419	9396.08
495.622	9326.45
495.825	9613.17
496.029	9412.46
496.232	9777
496.436	9713.52
496.639	9803.63
496.843	9781.1
497.046	9998.18
497.249	10035.05
497.453	10084.2
497.656	10125.16
497.859	10145.64
498.063	10303.33
498.266	10592.09
498.469	10499.94
498.673	10790.75
498.876	10616.67
499.079	10843.99
499.282	10884.95
499.485	11079.51
499.689	10977.11
499.892	11179.86
500.095	11177.81
500.298	11538.26
500.501	11431.76
500.705	11824.97
500.908	11757.39
501.111	11876.17
501.314	11980.62
501.517	12031.82
501.72	12013.38
501.923	12040.01
502.126	12341.06
502.329	12656.45
502.532	12529.47
502.735	12660.54
502.938	12928.83
503.141	13033.27
503.344	13346.61
503.547	13012.79
503.75	13379.38
503.953	13541.17
504.156	13575.98
504.359	13766.45
504.562	13616.94
504.765	14380.84
504.968	14182.18
505.17	14442.28
505.373	14391.08
505.576	14673.7
505.779	14524.19
505.982	14665.5
506.185	15265.56
506.387	15200.02
506.59	15312.66
506.793	15591.19
506.996	15222.55
507.198	15863.57
507.401	16045.84
507.604	16021.26
507.807	16518.92
508.009	16504.58
508.212	16525.06
508.415	16629.51
508.617	17080.06
508.82	17215.23
509.022	17002.24
509.225	17389.3
509.428	17749.75
509.63	17856.24
509.833	17764.08
510.035	18118.38
510.238	18151.15
510.44	18173.67
510.643	18450.15
510.845	18837.22
511.048	18568.93
511.25	19085.02
511.453	19039.97
511.655	19771.09
511.858	19457.75
512.06	19908.3
512.262	19623.64
512.465	19717.84
512.667	19853.01
512.87	20547.27
513.072	20264.65
513.274	20928.19
513.477	20999.87
513.679	21167.8
513.881	21382.84
514.084	21614.26
514.286	21640.89
514.488	21825.2
514.69	22517.42
514.893	22245.04
515.095	22382.25
515.297	22722.21
515.499	22845.09
515.701	23105.18
515.904	23361.18
516.106	23496.35
516.308	23664.28
516.51	23856.79
516.712	23717.53
516.914	24098.45
517.116	24481.42
517.318	24327.82
517.52	24254.09
517.722	24393.36
517.925	24979.07
518.127	25529.98
518.329	25663.1
518.531	25032.32
518.733	25525.88
518.935	25489.02
519.136	25841.27
519.338	26289.77
519.54	26373.74
519.742	26789.48
519.944	26709.61
520.146	27047.52
520.348	27090.53
520.55	27104.87
520.752	27201.12
520.954	28038.74
521.155	27459.16
521.357	27704.92
521.559	27905.62
521.761	28575.31
521.963	28028.5
522.164	28442.19
522.366	28495.44
522.568	28493.39
522.77	28671.56
522.971	28999.24
523.173	29095.49
523.375	29132.36
523.576	28794.44
523.778	29294.14
523.98	29500.99
524.181	29564.48
524.383	29679.16
524.584	29775.42
524.786	29787.71
524.988	29464.13
525.189	29988.41
525.391	30012.98
525.592	30043.7
525.794	30371.38
525.995	29892.15
526.197	30121.52
526.398	30420.53
526.6	30051.89
526.801	30379.57
527.003	30205.49
527.204	30584.37
527.406	30811.69
527.607	30506.54
527.808	31106.6
528.01	30142
528.211	30109.24
528.412	31168.04
528.614	30637.61
528.815	30328.37
529.016	30969.38
529.218	30533.17
529.419	30922.28
529.62	30627.37
529.822	30402.1
530.023	30866.98
530.224	30529.07
530.425	30449.2
530.626	30295.6
530.828	30273.07
531.029	30836.27
531.23	30031.41
531.431	30096.95
531.632	30258.74
531.833	30447.15
532.035	30139.96
532.236	30430.77
532.437	30449.2
532.638	29951.54
532.839	30180.92
533.04	30199.35
533.241	29888.06
533.442	30295.6
533.643	30119.48
533.844	29773.37
534.045	29949.49
534.246	29773.37
534.447	29896.25
534.648	29357.63
534.849	29920.82
535.05	29462.08
535.251	29627.96
535.451	29677.12
535.652	30008.89
535.853	29769.27
536.054	29859.38
536.255	29853.24
536.456	29156.93
536.657	29713.98
536.857	29111.88
537.058	29412.93
537.259	29642.3
537.46	29386.3
537.66	29152.84
537.861	29167.17
538.062	29277.76
538.263	29220.42
538.463	28954.18
538.664	29161.03
538.865	28728.91
539.065	28923.46
539.266	28665.42
539.466	29040.2
539.667	28540.49
539.868	29281.86
540.068	28622.41
540.269	28993.09
540.469	28767.82
540.67	28632.65
540.87	28778.06
541.071	28673.61
541.271	28743.24
541.472	28657.23
541.672	28907.08
541.873	28524.11
542.073	28362.32
542.274	28771.91
542.474	28634.7
542.675	28460.62
542.875	28806.73
543.075	28366.42
543.276	28264.02
543.476	28612.17
543.676	28536.4
543.877	28171.86
544.077	28364.37
544.277	27950.68
544.478	28552.78
544.678	28608.08
544.878	28472.91
545.078	28450.38
545.279	28026.45
545.479	28409.42
545.679	28169.81
545.879	28696.14
546.079	28091.99
546.28	28317.26
546.48	28028.5
546.68	28360.27
546.88	28405.33
547.08	28247.63
547.28	28364.37
547.48	28065.36
547.68	28257.87
547.88	28247.63
548.081	28335.7
548.281	28178
548.481	28411.47
548.681	28610.12
548.881	28501.58
549.081	28124.75
549.28	28317.26
549.48	28593.74
549.68	28046.93
549.88	28845.64
550.08	28270.16
550.28	28145.23
550.48	28708.43
550.68	28786.25
550.88	28335.7
551.08	28100.18
551.279	28309.07
551.479	28431.95
551.679	28288.59
551.879	28358.22
552.079	28497.49
552.278	28503.63
552.478	28730.95
552.678	28696.14
552.878	28720.71
553.077	28642.89
553.277	28350.03
553.477	28993.09
553.676	28567.12
553.876	28597.84
554.076	28159.57
554.275	28477.01
554.475	28546.64
554.674	28606.03
554.874	28733
555.074	28665.42
555.273	28859.98
555.473	28997.19
555.672	28599.88
555.872	28886.6
556.071	28913.22
556.271	28937.8
556.47	28544.59
556.67	28509.77
556.869	28743.24
557.068	29179.46
557.268	28935.75
557.467	28935.75
557.667	29111.88
557.866	28921.41
558.065	29036.1
558.265	29093.44
558.464	28528.2
558.663	29216.32
558.863	28923.46
559.062	29365.82
559.261	28907.08
559.461	28921.41
559.66	28507.72
559.859	29146.69
560.058	29005.38
560.258	29029.96
560.457	28896.84
560.656	29093.44
560.855	28773.96
561.054	28866.12
561.253	28399.18
561.453	29064.77
561.652	28534.35
561.851	29171.27
562.05	28993.09
562.249	28429.9
562.448	29177.41
562.647	28964.42
562.846	28935.75
563.045	28808.78
563.244	28796.49
563.443	29161.03
563.642	28679.75
563.841	28862.02
564.04	28622.41
564.239	28948.04
564.438	28753.48
564.637	28540.49
564.836	29087.3
565.035	28503.63
565.234	28767.82
565.432	28554.83
565.631	28599.88
565.83	28896.84
566.029	28380.75
566.228	28196.43
566.427	28487.25
566.625	28151.38
566.824	28249.68
567.023	28436.05
567.222	28294.74
567.42	28429.9
567.619	28579.4
567.818	28243.54
568.016	28157.52
568.215	28231.25
568.414	28208.72
568.612	28145.23
568.811	27592.28
569.01	27823.7
569.208	27588.19
569.407	28040.79
569.605	27649.63
569.804	27805.27
570.002	27481.69
570.201	27256.42
570.4	27164.26
570.598	27170.4
570.797	26658.41
570.995	27498.08
571.193	26951.27
571.392	27395.68
571.59	26955.36
571.789	26955.36
571.987	26867.3
572.186	27117.15
572.384	26687.08
572.582	26898.02
572.781	26705.51
572.979	26443.37
573.177	26447.47
573.376	26556.01
573.574	26394.22
573.772	26775.14
573.971	26416.75
574.169	26508.91
574.367	26422.89
574.565	26238.58
574.763	26271.34
574.962	25910.9
575.16	25671.29
575.358	26181.23
575.556	25423.48
575.754	25724.54
575.952	25337.47
576.151	25691.77
576.349	25329.28
576.547	25273.98
576.745	25220.74
576.943	25173.63
577.141	25190.02
577.339	24997.51
577.537	25056.9
577.735	24970.88
577.933	24807.05
578.131	24823.43
578.329	24319.63
578.527	24630.92
578.725	24749.7
578.923	24485.51
579.121	24280.72
579.319	24458.89
579.516	24471.18
579.714	24583.82
579.912	24112.78
580.11	24229.52
580.308	23994
580.506	24141.46
580.704	23686.81
580.901	23940.75
581.099	24202.89
581.297	23953.04
581.495	23608.98
581.692	23846.55
581.89	23406.23
582.088	23846.55
582.285	23586.46
582.483	23824.02
582.681	23533.21
582.878	23426.71
583.076	23080.61
583.274	23283.36
583.471	22838.95
583.669	22990.5
583.866	22816.42
584.064	23219.87
584.262	23027.36
584.459	23115.42
584.657	22765.22
584.854	22957.73
585.052	22380.2
585.249	22505.13
585.447	22623.91
585.644	22441.64
585.841	22556.33
586.039	22761.12
586.236	22611.62
586.434	22255.28
586.631	22007.47
586.828	22322.86
587.026	21882.55
587.223	21999.28
587.42	21978.8
587.618	22245.04
587.815	22167.21
588.012	22019.76
588.21	21886.64
588.407	21890.74
588.604	21735.09
588.801	21442.23
588.999	21794.48
589.196	21577.4
589.393	21878.45
589.59	21665.46
589.787	21415.61
589.984	21321.4
590.182	21274.3
590.379	21300.92
590.576	21345.98
590.773	21343.93
590.97	21192.38
591.167	21073.6
591.364	21059.26
591.561	21319.35
591.758	21020.35
591.955	21108.41
592.152	20999.87
592.349	20993.73
592.546	21073.6
592.743	21276.35
592.94	20704.96
593.137	21040.83
593.334	20825.79
593.531	20451.02
593.727	20770.5
593.924	20901.57
594.121	20618.95
594.318	20829.89
594.515	20502.22
594.712	20846.27
594.908	20543.17
595.105	20618.95
595.302	20459.21
595.499	20846.27
595.696	20764.36
595.892	20520.65
596.089	20655.81
596.286	20850.37
596.482	20459.21
596.679	20315.85
596.876	20440.78
597.072	20377.29
597.269	20666.05
597.466	20731.59
597.662	20551.37
597.859	20678.34
598.055	20575.94
598.252	20461.26
598.448	20516.55
598.645	20283.08
598.841	20551.37
599.038	20721.35
599.234	20504.26
599.431	20328.14
599.627	20506.31
599.824	20534.98
600.02	20467.4
600.217	20438.73
600.413	20551.37
600.609	20676.29
600.806	20803.27
601.002	20653.76
601.198	20833.99
601.395	20815.55
601.591	20664
601.787	20868.8
601.984	20893.38
602.18	21182.14
602.376	20870.85
602.572	21018.3
602.769	21141.18
602.965	20926.14
603.161	20971.2
603.357	20827.84
603.553	21313.21
603.75	21096.13
603.946	20805.31
604.142	20985.54
604.338	20768.45
604.534	21077.69
604.73	21006.02
604.926	21233.34
605.122	21118.65
605.318	21102.27
605.514	21458.62
605.71	21147.33
605.906	21122.75
606.102	21307.07
606.298	21368.51
606.494	21647.03
606.69	21909.17
606.886	21843.63
607.082	21487.29
607.278	21892.79
607.474	21464.76
607.67	22011.57
607.866	21778.1
608.062	22011.57
608.257	22023.86
608.453	21737.14
608.649	22361.77
608.845	22324.91
609.041	22193.84
609.236	22222.51
609.432	22089.39
609.628	22302.38
609.824	22640.29
610.019	22275.76
610.215	22400.68
610.411	22306.48
610.606	22623.91
610.802	22568.62
610.998	22302.38
611.193	22740.64
611.389	22716.07
611.584	22535.85
611.78	22509.22
611.976	22632.1
612.171	22599.34
612.367	22630.05
612.562	23056.03
612.758	22597.29
612.953	22797.99
613.149	22603.43
613.344	22740.64
613.539	23363.23
613.735	23023.26
613.93	23051.94
614.126	23019.17
614.321	23254.69
614.517	23086.75
614.712	22828.71
614.907	23025.31
615.103	23395.99
615.298	23197.34
615.493	23324.32
615.688	23332.51
615.884	23563.93
616.079	22871.71
616.274	23297.69
616.47	23082.66
616.665	23262.88
616.86	23166.62
617.055	23312.03
617.25	23117.47
617.445	23336.6
617.641	22978.21
617.836	23447.19
618.031	22793.89
618.226	23469.72
618.421	23017.12
618.616	23193.25
618.811	23101.09
619.006	23273.12
619.201	22881.95
619.396	22980.26
619.591	22836.9
619.786	22787.75
619.981	22802.08
620.176	23135.9
620.371	22339.24
620.566	22484.65
620.761	22640.29
620.956	22662.82
621.151	22292.14
621.346	22183.6
621.541	22222.51
621.735	22607.53
621.93	22077.1
622.125	22265.52
622.32	21802.68
622.515	22007.47
622.709	21761.72
622.904	22077.1
623.099	21483.19
623.294	22148.78
623.488	21323.45
623.683	21606.07
623.878	21163.71
624.072	21319.35
624.267	21241.53
624.462	21268.16
624.656	20854.47
624.851	21079.74
625.046	20969.15
625.24	20907.71
625.435	20408.01
625.629	20594.37
625.824	20463.3
626.018	20272.84
626.213	20238.03
626.407	20532.93
626.602	19853.01
626.796	20272.84
626.991	19961.55
627.185	19914.45
627.38	19543.77
627.574	19459.8
627.768	19562.2
627.963	19412.7
628.157	19001.05
628.352	19306.2
628.546	19314.39
628.74	19312.35
628.935	19095.26
629.129	19203.8
629.323	18804.45
629.517	18751.2
629.712	18595.56
629.906	18642.66
630.1	18278.12
630.294	18306.79
630.489	18349.8
630.683	18403.05
630.877	18067.18
631.071	18177.77
631.265	18110.19
631.459	18409.19
631.653	17903.34
631.848	17719.03
632.042	17633.01
632.236	17770.22
632.43	17434.36
632.624	17313.53
632.818	17207.03
633.012	17260.28
633.206	17272.57
633.4	16928.51
633.594	16649.99
633.788	16838.4
633.982	16723.71
634.176	16660.23
634.369	17032.96
634.563	16551.68
634.757	16414.47
634.951	16596.74
635.145	16387.85
635.339	16346.89
635.533	16209.67
635.726	16039.69
635.92	15900.43
636.114	15978.25
636.308	15869.71
636.501	15841.04
636.695	15638.29
636.889	15544.08
637.083	15470.36
637.276	15560.47
637.47	15415.06
637.664	15097.63
637.857	15042.33
638.051	14913.31
638.244	14769.95
638.438	15243.03
638.632	14823.2
638.825	14532.39
639.019	14511.91
639.212	14346.02
639.406	14640.93
639.599	14348.07
639.793	14391.08
639.986	14073.64
640.18	14206.76
640.373	14198.57
640.567	13963.05
640.76	13702.96
640.954	13940.52
641.147	13776.69
641.34	13647.66
641.534	13502.26
641.727	13537.07
641.92	13455.15
642.114	13145.91
642.307	13170.49
642.5	13143.86
642.694	13023.03
642.887	13139.77
643.08	13131.58
643.273	12787.52
643.467	12941.11
643.66	12627.78
643.853	12422.98
644.046	12355.4
644.239	12455.75
644.432	12422.98
644.626	12359.49
644.819	12242.76
645.012	12005.19
645.205	12187.46
645.398	12091.21
645.591	11808.59
645.784	11960.14
645.977	11521.87
646.17	11728.72
646.363	11509.58
646.556	11450.19
646.749	11581.26
646.942	11734.86
647.135	11423.57
647.328	11224.92
647.521	11382.61
647.714	11112.28
647.907	11028.31
648.099	10991.45
648.292	10932.06
648.485	10936.15
648.678	10727.26
648.871	10741.6
649.064	10813.27
649.256	10614.62
649.449	10690.4
649.642	10729.31
649.835	10428.26
650.027	10559.33
650.22	10358.63
650.413	10264.42
650.605	10327.91
650.798	10354.53
650.991	9969.51
651.183	10123.11
651.376	9916.26
651.568	9989.99
651.761	9936.74
651.954	9961.32
652.146	9809.77
652.339	9877.35
652.531	9678.7
652.724	9768.81
652.916	9453.42
653.109	9516.91
653.301	9228.15
653.494	9412.46
653.686	9303.92
653.879	9609.07
654.071	9238.39
654.263	9133.94
654.456	9244.53
654.648	9189.24
654.84	8974.2
655.033	8961.91
655.225	8892.28
655.417	8992.63
655.61	8839.03
655.802	8767.35
655.994	8679.29
656.186	8716.15
656.379	8699.77
656.571	8763.26
656.763	8585.08
656.955	8574.85
657.148	8531.84
657.34	8585.08
657.532	8503.17
657.724	8327.04
657.916	8187.78
658.108	8253.31
658.3	8220.55
658.492	8224.64
658.684	8050.57
658.876	8048.52
659.068	7960.45
659.26	7894.92
659.452	8099.72
659.644	7966.6
659.836	7839.62
660.028	7800.71
660.22	7667.59
660.412	7901.06
660.604	7489.42
660.796	7632.78
660.988	7604.11
661.18	7540.62
661.372	7421.84
661.563	7479.18
661.755	7378.83
661.947	7470.99
662.139	7118.74
662.331	7391.12
662.522	7231.38
662.714	7184.27
662.906	7067.54
663.097	7167.89
663.289	6999.96
663.481	6846.36
663.673	7059.35
663.864	6885.27
664.056	7024.53
664.247	6952.85
664.439	6858.65
664.631	6834.07
664.822	6799.26
665.014	6698.91
665.205	6811.54
665.397	6516.64
665.588	6524.83
665.78	6528.92
665.971	6649.75
666.163	6479.77
666.354	6516.64
666.546	6444.96
666.737	6322.08
666.929	6336.42
667.12	6369.18
667.311	6377.37
667.503	6301.6
667.694	6428.57
667.885	6256.54
668.077	5996.45
668.268	6127.52
668.459	6023.08
668.651	6055.84
668.842	6186.91
669.033	6004.64
669.224	5873.57
669.416	6061.99
669.607	5885.86
669.798	5846.95
669.989	5930.92
670.18	5861.29
670.371	5832.61
670.563	5722.02
670.754	5703.59
670.945	5619.63
671.136	5762.98
671.327	5687.21
671.518	5633.96
671.709	5713.83
671.9	5709.74
672.091	5805.99
672.282	5418.93
672.473	5517.23
672.664	5509.04
672.855	5609.39
673.046	5373.87
673.237	5556.14
673.428	5398.45
673.619	5427.12
673.809	5515.18
674	5363.63
674.191	5320.62
674.382	5343.15
674.573	5341.1
674.764	5361.58
674.954	5410.73
675.145	5418.93
675.336	5308.34
675.527	5138.35
675.717	5298.1
675.908	4970.42
676.099	5169.07
676.289	5179.31
676.48	5107.63
676.671	5189.55
676.861	4974.52
677.052	5066.67
677.243	5136.31
677.433	5224.37
677.624	5246.9
677.814	5167.03
678.005	5140.4
678.195	5033.91
678.386	5167.03
678.576	4978.61
678.767	5060.53
678.957	5085.11
679.148	5044.15
679.338	5033.91
679.529	5062.58
679.719	4929.46
679.909	5171.12
680.1	4970.42
680.29	4956.08
680.481	5042.1
680.671	5097.39
680.861	4812.73
681.052	4978.61
681.242	5017.52
681.432	4872.12
681.622	4872.12
681.813	4896.69
682.003	4976.56
682.193	4974.52
682.383	4833.21
682.573	4951.99
682.764	4665.27
682.954	4902.84
683.144	4902.84
683.334	4923.32
683.524	4982.71
683.714	4900.79
683.904	4814.77
684.094	4829.11
684.284	4784.06
684.474	4714.42
684.664	4927.41
684.854	4800.44
685.044	4747.19
685.234	4771.77
685.424	4782.01
685.614	4689.85
685.804	4808.63
685.994	4960.18
686.184	4796.34
686.374	4739
686.564	4681.66
686.753	4698.04
686.943	4532.15
687.133	4863.93
687.323	4534.2
687.513	4698.04
687.702	4689.85
687.892	4628.41
688.082	4661.18
688.272	4794.29
688.461	4648.89
688.651	4566.97
688.841	4685.75
689.03	4540.35
689.22	4513.72
689.41	4689.85
689.599	4585.4
689.789	4390.85
689.979	4501.44
690.168	4485.05
690.358	4587.45
690.547	4429.76
690.737	4566.97
690.926	4476.86
691.116	4446.14
691.305	4583.35
691.495	4442.04
691.684	4435.9
691.874	4493.24
692.063	4423.61
692.252	4519.87
692.442	4442.04
692.631	4372.41
692.82	4442.04
693.01	4431.8
693.199	4392.89
693.388	4388.8
693.578	4362.17
693.767	4546.49
693.956	4110.27
694.146	4308.93
694.335	4399.04
694.524	4192.19
694.713	4259.77
694.902	4239.3
695.092	4214.72
695.281	4157.38
695.47	4349.89
695.659	4184
695.848	4370.37
696.037	4202.43
696.226	4272.06
696.415	4263.87
696.604	4151.23
696.793	4159.42
696.982	4292.54
697.171	4190.14
697.36	4149.18
697.549	4177.86
697.738	3995.59
697.927	4132.8
698.116	4136.9
698.305	4061.12
698.494	4061.12
698.683	4034.5
698.872	4132.8
699.061	4110.27
699.25	3973.06
699.438	3909.57
699.627	3936.2
699.816	4071.36
700.005	3977.16
700.193	3907.52
700.382	3968.96
700.571	3971.01
700.76	4028.35
700.948	3948.48
701.137	4018.11
701.326	4050.88
701.514	3977.16
701.703	3905.48
701.892	3936.2
702.08	3995.59
702.269	3809.22
702.457	3792.84
702.646	3858.37
702.834	3702.73
703.023	3813.32
703.212	3882.95
703.4	3854.28
703.589	3510.22
703.777	3798.98
703.965	3710.92
704.154	3839.94
704.342	3618.76
704.531	3831.75
704.719	3600.33
704.907	3764.17
705.096	3710.92
705.284	3608.52
705.472	3596.23
705.661	3626.95
705.849	3684.3
706.037	3665.86
706.226	3506.12
706.414	3651.53
706.602	3551.18
706.79	3641.29
706.979	3428.3
707.167	3528.65
707.355	3420.11
707.543	3608.52
707.731	3768.26
707.919	3592.14
708.107	3526.6
708.296	3485.64
708.484	3413.96
708.672	3540.94
708.86	3508.17
709.048	3456.97
709.236	3471.31
709.424	3555.27
709.612	3370.96
709.8	3184.59
709.988	3526.6
710.176	3397.58
710.364	3403.72
710.551	3362.76
710.739	3518.41
710.927	3272.65
711.115	3229.65
711.303	3256.27
711.491	3215.31
711.679	3237.84
711.866	3305.42
712.054	3313.61
712.242	3100.62
712.43	3092.43
712.617	3194.83
712.805	3211.22
712.993	3176.4
713.181	3166.16
713.368	3121.1
713.556	3264.46
713.744	3069.91
713.931	3149.78
714.119	3133.39
714.306	3102.67
714.494	3084.24
714.682	3088.34
714.869	2965.46
715.057	3131.34
715.244	2998.23
715.432	3018.71
715.619	3018.71
715.807	2965.46
715.994	3090.38
716.182	3043.28
716.369	3024.85
716.556	2990.03
716.744	2944.98
716.931	2861.01
717.119	2887.64
717.306	2846.68
717.493	2846.68
717.681	2813.91
717.868	2815.96
718.055	2791.38
718.242	2873.3
718.43	2779.09
718.617	2854.87
718.804	2840.53
718.991	2854.87
719.179	2807.77
719.366	2826.2
719.553	2721.75
719.74	2797.53
719.927	2715.61
720.114	2881.49
720.301	2725.85
720.488	2740.18
720.676	2752.47
720.863	2639.83
721.05	2707.41
721.237	2715.61
721.424	2709.46
721.611	2594.78
721.798	2576.34
721.985	2699.22
722.172	2635.74
722.358	2619.35
722.545	2578.39
722.732	2615.26
722.919	2543.58
723.106	2617.3
723.293	2519
723.48	2467.8
723.667	2533.34
723.853	2455.51
724.04	2598.87
724.227	2488.28
724.414	2527.19
724.6	2471.9
724.787	2531.29
724.974	2564.06
725.161	2398.17
725.347	2445.27
725.534	2314.2
725.72	2414.56
725.907	2471.9
726.094	2455.51
726.28	2387.93
726.467	2406.36
726.653	2336.73
726.84	2357.21
727.027	2389.98
727.213	2443.23
727.4	2443.23
727.586	2353.12
727.773	2330.59
727.959	2287.58
728.145	2314.2
728.332	2232.29
728.518	2371.55
728.705	2351.07
728.891	2258.91
729.077	2258.91
729.264	2183.13
729.45	2224.09
729.636	2392.03
729.823	2314.2
730.009	2107.36
730.195	2260.96
730.382	2306.01
730.568	2158.56
730.754	2176.99
730.94	2199.52
731.126	2258.91
731.313	2318.3
731.499	2269.15
731.685	2195.42
731.871	2207.71
732.057	2244.57
732.243	2217.95
732.429	2217.95
732.615	2207.71
732.801	2199.52
732.987	2107.36
733.173	2115.55
733.359	2129.89
733.545	2136.03
733.731	2039.78
733.917	2103.26
734.103	2068.45
734.289	2093.02
734.475	2105.31
734.661	2222.05
734.847	2070.5
735.033	2103.26
735.219	1992.67
735.404	2007.01
735.59	2043.87
735.776	1953.76
735.962	1980.39
736.148	2037.73
736.333	2056.16
736.519	1970.15
736.705	1964
736.89	1957.86
737.076	1939.43
737.262	2002.91
737.447	2004.96
737.633	1955.81
737.819	2068.45
738.004	1914.85
738.19	1873.89
738.375	1884.13
738.561	1953.76
738.747	1898.47
738.932	1859.56
739.118	1894.37
739.303	2033.63
739.489	1884.13
739.674	1830.88
739.859	1794.02
740.045	1931.23
740.23	1730.53
740.416	1728.49
740.601	1837.03
740.786	1824.74
740.972	1748.97
741.157	1789.92
741.342	1724.39
741.528	1806.31
741.713	1820.64
741.898	1798.12
742.084	1775.59
742.269	1820.64
742.454	1693.67
742.639	1738.73
742.824	1734.63
743.01	1669.09
743.195	1679.33
743.38	1716.2
743.565	1701.86
743.75	1714.15
743.935	1636.33
744.12	1658.85
744.305	1703.91
744.49	1656.81
744.675	1685.48
744.86	1675.24
745.045	1677.29
745.23	1583.08
745.415	1699.81
745.6	1646.57
745.785	1548.26
745.97	1617.9
746.155	1560.55
746.34	1636.33
746.525	1568.74
746.71	1486.83
746.895	1464.3
747.079	1527.78
747.264	1531.88
747.449	1486.83
747.634	1519.59
747.819	1535.98
748.003	1437.67
748.188	1433.58
748.373	1531.88
748.557	1478.63
748.742	1527.78
748.927	1429.48
749.111	1384.43
749.296	1382.38
749.481	1382.38
749.665	1347.56
749.85	1322.99
750.034	1445.87
750.219	1390.57
750.404	1265.64
750.588	1413.1
750.773	1327.08
750.957	1273.84
751.141	1345.52
751.326	1329.13
751.51	1253.36
751.695	1327.08
751.879	1175.53
752.064	1327.08
752.248	1271.79
752.432	1306.6
752.617	1314.8
752.801	1279.98
752.985	1224.69
753.17	1277.93
753.354	1187.82
753.538	1294.32
753.722	1245.16
753.907	1159.15
754.091	1069.04
754.275	1292.27
754.459	1134.57
754.643	1079.28
754.828	1236.97
755.012	1167.34
755.196	1136.62
755.38	1087.47
755.564	1150.96
755.748	1060.85
755.932	1058.8
756.116	983.02
756.3	1069.04
756.484	1085.42
756.668	1085.42
756.852	958.45
757.036	1095.66
757.22	1011.7
757.404	1005.55
757.588	1030.13
757.772	950.26
757.956	913.39
758.14	1044.46
758.323	991.22
758.507	1087.47
758.691	999.41
758.875	993.26
759.059	1069.04
759.242	931.83
759.426	942.07
759.61	954.35
759.794	956.4
759.977	946.16
760.161	974.83
760.345	974.83
760.528	940.02
760.712	1009.65
760.895	954.35
761.079	913.39
761.263	858.1
761.446	882.67
761.63	847.86
761.813	835.57
761.997	931.83
762.18	817.14
762.364	835.57
762.547	911.35
762.731	839.67
762.914	907.25
763.098	876.53
763.281	798.71
763.464	847.86
763.648	841.72
763.831	759.8
764.015	831.48
764.198	870.39
764.381	767.99
764.564	823.28
764.748	786.42
764.931	782.32
765.114	782.32
765.297	751.6
765.481	878.58
765.664	835.57
765.847	733.17
766.03	854
766.213	784.37
766.397	784.37
766.58	827.38
766.763	817.14
766.946	798.71
767.129	774.13
767.312	735.22
767.495	770.04
767.678	761.84
767.861	759.8
768.044	724.98
768.227	790.52
768.41	710.65
768.593	716.79
768.776	718.84
768.959	757.75
769.142	821.24
769.324	702.45
769.507	720.88
769.69	741.36
769.873	747.51
770.056	745.46
770.239	718.84
770.421	759.8
770.604	759.8
770.787	710.65
770.97	700.41
771.152	694.26
771.335	749.56
771.518	741.36
771.7	753.65
771.883	616.44
772.066	643.06
772.248	724.98
772.431	704.5
772.613	757.75
772.796	653.3
772.978	684.02
773.161	724.98
773.343	659.45
773.526	583.67
773.708	716.79
773.891	661.49
774.073	626.68
774.256	585.72
774.438	724.98
774.621	686.07
774.803	686.07
774.985	595.96
775.168	628.73
775.35	585.72
775.532	788.47
775.715	636.92
775.897	593.91
776.079	645.11
776.261	555
776.444	518.14
776.626	608.25
776.808	614.39
776.99	544.76
777.173	602.1
777.355	610.29
777.537	622.58
777.719	573.43
777.901	612.34
778.083	550.9
778.265	544.76
778.447	604.15
778.629	569.34
778.811	583.67
778.993	462.84
779.175	530.42
779.357	509.94
779.539	421.88
779.721	610.29
779.903	561.14
780.085	544.76
780.267	421.88
780.449	475.13
780.631	542.71
780.812	565.24
780.994	495.61
781.176	456.7
781.358	481.27
781.54	536.57
781.721	487.42
781.903	520.18
782.085	483.32
782.267	419.83
782.448	446.46
782.63	473.08
782.812	430.07
782.993	483.32
783.175	456.7
783.357	528.38
783.538	462.84
783.72	395.26
783.901	438.27
784.083	352.25
784.264	438.27
784.446	442.36
784.627	348.15
784.809	401.4
784.99	393.21
785.172	376.83
785.353	397.31
785.535	389.11
785.716	393.21
785.897	366.59
786.079	415.74
786.26	356.35
786.441	417.79
786.623	323.58
786.804	348.15
786.985	352.25
787.167	323.58
787.348	350.2
787.529	315.39
787.71	432.12
787.891	335.87
788.073	354.3
788.254	274.43
788.435	403.45
788.616	366.59
788.797	344.06
788.978	368.63
789.159	337.91
789.34	299
789.522	303.1
789.703	299
789.884	325.63
790.065	286.72
790.246	354.3
790.427	350.2
790.607	342.01
790.788	260.09
790.969	296.96
791.15	348.15
791.331	251.9
791.512	335.87
791.693	233.47
791.874	210.94
792.054	337.91
792.235	299
792.416	227.32
792.597	260.09
792.778	380.92
792.958	290.81
793.139	278.52
793.32	286.72
793.5	323.58
793.681	303.1
793.862	219.13
794.042	268.28
794.223	237.56
794.404	172.03
794.584	204.8
794.765	253.95
794.945	239.61
795.126	282.62
795.306	339.96
795.487	237.56
795.667	251.9
795.848	251.9
796.028	270.33
796.209	202.75
796.389	204.8
796.57	262.14
796.75	219.13
796.93	182.27
797.111	237.56
797.291	337.91
797.471	292.86
797.652	235.52
797.832	192.51
798.012	200.7
798.192	227.32
798.373	233.47
798.553	180.22
798.733	176.13
798.913	145.41
799.093	188.41
799.274	194.56
799.454	227.32
799.634	204.8
799.814	282.62
799.994	192.51
800.174	227.32
800.354	243.71
800.534	110.59
800.714	182.27
800.894	110.59
801.074	194.56
801.254	104.45
801.434	243.71
801.614	167.93
801.794	174.08
801.974	757.75
802.154	227.32
802.334	178.17
802.514	200.7
802.693	208.89
802.873	184.32
803.053	260.09
803.233	217.08
803.413	192.51
803.592	155.65
803.772	198.65
803.952	182.27
804.131	161.79
804.311	270.33
804.491	184.32
804.67	104.45
804.85	172.03
805.03	194.56
805.209	192.51
805.389	188.41
805.568	208.89
805.748	188.41
805.928	210.94
806.107	178.17
806.287	268.28
806.466	143.36
806.646	135.17
806.825	135.17
807.004	176.13
807.184	174.08
807.363	149.5
807.543	194.56
807.722	126.97
807.901	227.32
808.081	268.28
808.26	124.93
808.439	172.03
808.619	145.41
808.798	118.78
808.977	139.26
809.156	212.99
809.336	143.36
809.515	143.36
809.694	108.54
809.873	147.45
810.052	208.89
810.231	106.49
810.411	153.6
810.59	194.56
810.769	129.02
810.948	184.32
811.127	28.67
811.306	192.51
811.485	145.41
811.664	145.41
811.843	167.93
812.022	24.58
812.201	208.89
812.38	200.7
812.559	86.01
812.737	163.84
812.916	114.69
813.095	135.17
813.274	118.78
813.453	112.64
813.632	155.65
813.811	114.69
813.989	6.14
814.168	143.36
814.347	98.3
814.526	153.6
814.704	167.93
814.883	143.36
815.062	110.59
815.24	151.55
815.419	122.88
815.598	90.11
815.776	94.21
815.955	12.29
816.133	81.92
816.312	126.97
816.49	110.59
816.669	108.54
816.847	92.16
817.026	75.77
817.204	69.63
817.383	110.59
817.561	110.59
817.74	112.64
817.918	157.69
818.097	26.62
818.275	30.72
818.453	122.88
818.632	159.74
818.81	120.83
818.988	40.96
819.167	120.83
819.345	28.67
819.523	102.4
819.701	51.2
819.879	178.17
820.058	126.97
820.236	120.83
820.414	145.41
820.592	129.02
820.77	65.53
820.948	88.06
821.127	45.06
821.305	65.53
821.483	110.59
821.661	153.6
821.839	94.21
822.017	32.77
822.195	126.97
822.373	155.65
822.551	90.11
822.729	110.59
822.907	51.2
823.085	32.77
823.262	16.38
823.44	79.87
823.618	43.01
823.796	118.78
823.974	96.25
824.152	94.21
824.329	36.86
824.507	61.44
824.685	102.4
824.863	126.97
825.04	20.48
825.218	79.87
825.396	4.1
825.574	53.25
825.751	28.67
825.929	98.3
826.107	86.01
826.284	102.4
826.462	102.4
826.639	53.25
826.817	47.1
826.994	-30.72
827.172	69.63
827.349	53.25
827.527	102.4
827.704	81.92
827.882	122.88
828.059	57.34
828.237	53.25
828.414	118.78
828.591	14.34
828.769	165.89
828.946	-22.53
829.124	61.44
829.301	118.78
829.478	96.25
829.655	-59.39
829.833	36.86
830.01	83.97
830.187	133.12
830.364	8.19
830.542	20.48
830.719	73.73
830.896	71.68
831.073	51.2
831.25	79.87
831.427	126.97
831.604	126.97
831.782	34.82
831.959	47.1
832.136	63.49
832.313	55.3
832.49	47.1
832.667	6.14
832.844	38.91
833.021	83.97
833.198	45.06
833.374	65.53
833.551	12.29
833.728	75.77
833.905	65.53
834.082	-8.19
834.259	59.39
834.436	40.96
834.612	69.63
834.789	73.73
834.966	20.48
835.143	57.34
835.319	-4.1
835.496	63.49
835.673	79.87
835.85	65.53
836.026	36.86
836.203	81.92
836.38	36.86
836.556	53.25
836.733	51.2
836.909	169.98
837.086	53.25
837.262	-12.29
837.439	57.34
837.616	36.86
837.792	55.3
837.968	45.06
838.145	-20.48
838.321	110.59
838.498	67.58
838.674	8.19
838.851	-10.24
839.027	30.72
839.203	69.63
839.38	71.68
839.556	110.59
839.732	36.86
839.909	24.58
840.085	22.53
840.261	-77.82
840.437	30.72
840.614	77.82
840.79	114.69
840.966	45.06
841.142	86.01
841.318	65.53
841.494	88.06
841.671	114.69
841.847	43.01
842.023	-10.24
842.199	67.58
842.375	114.69
842.551	-4.1
842.727	-2.05
842.903	69.63
843.079	53.25
843.255	100.35
843.431	20.48
843.607	92.16
843.783	-83.97
843.959	38.91
844.134	22.53
844.31	16.38
844.486	22.53
844.662	32.77
844.838	8.19
845.013	126.97
845.189	-26.62
845.365	2.05
845.541	40.96
845.716	8.19
845.892	28.67
846.068	53.25
846.244	88.06
846.419	-18.43
846.595	16.38
846.77	-8.19
846.946	98.3
847.122	-2.05
847.297	40.96
847.473	36.86
847.648	63.49
847.824	77.82
847.999	-24.58
848.175	53.25
848.35	45.06
848.526	38.91
848.701	-20.48
848.876	71.68
849.052	61.44
849.227	36.86
849.403	0
849.578	63.49
849.753	36.86
849.929	45.06
850.104	24.58
850.279	47.1
850.454	38.91
850.63	77.82
850.805	94.21
850.98	36.86
851.155	86.01
851.33	55.3
851.505	-2.05
851.681	53.25
851.856	20.48
852.031	81.92
852.206	20.48
852.381	22.53
852.556	47.1
852.731	45.06
852.906	55.3
853.081	-16.38
853.256	77.82
853.431	24.58
853.606	6.14
853.781	-20.48
853.956	-16.38
854.131	55.3
854.305	61.44
854.48	4.1
854.655	-2.05
854.83	8.19
855.005	-28.67
855.18	22.53
855.354	61.44
855.529	77.82
855.704	47.1
855.879	77.82
856.053	-24.58
856.228	53.25
856.403	36.86
856.577	-10.24
856.752	-38.91
856.926	32.77
857.101	36.86
857.276	-12.29
857.45	14.34
857.625	4.1
857.799	20.48
857.974	100.35
858.148	-14.34
858.323	-34.82
858.497	6.14
858.672	24.58
858.846	16.38
859.02	98.3
859.195	-47.1
859.369	12.29
859.543	6.14
859.718	-69.63
859.892	71.68
860.066	63.49
860.241	-28.67
860.415	-20.48
860.589	-71.68
860.763	45.06
860.938	10.24
861.112	40.96
861.286	8.19
861.46	22.53
861.634	20.48
861.808	61.44
861.982	-45.06
862.157	-67.58
862.331	14.34
862.505	-36.86
862.679	-12.29
862.853	-36.86
863.027	47.1
863.201	0
863.375	-10.24
863.549	4.1
863.722	-47.1
863.896	57.34
864.07	-18.43
864.244	57.34
864.418	-22.53
864.592	-20.48
864.766	49.15
864.939	47.1
865.113	55.3
865.287	40.96
865.461	45.06
865.634	-18.43
865.808	-28.67
865.982	49.15
866.156	71.68
866.329	-77.82
866.503	6.14
866.676	32.77
866.85	-67.58
867.024	-20.48
867.197	51.2
867.371	-36.86
867.544	0
867.718	-65.54
867.891	61.44
868.065	-10.24
868.238	10.24
868.412	53.25
868.585	-16.38
868.759	16.38
868.932	-43.01
869.105	79.87
869.279	22.53
869.452	6.14
869.625	-12.29
869.799	-12.29
869.972	-55.3
870.145	0
870.319	49.15
870.492	20.48
870.665	-59.39
870.838	28.67
871.011	-57.34
871.185	-12.29
871.358	6.14
871.531	-6.14
871.704	2.05
871.877	32.77
872.05	-26.62
872.223	-4.1
872.396	-28.67
872.569	2.05
872.742	0
872.915	53.25
873.088	-4.1
873.261	-10.24
873.434	53.25
873.607	53.25
873.78	-10.24
873.953	-36.86
874.126	-10.24
874.299	43.01
874.471	-43.01
874.644	16.38
874.817	-43.01
874.99	79.87
875.163	18.43
875.335	28.67
875.508	-10.24
875.681	47.1
875.853	-57.34
876.026	59.39
876.199	4.1
876.371	-18.43
876.544	8.19
876.717	32.77
876.889	-43.01
877.062	24.58
877.234	-69.63
877.407	22.53
877.579	47.1
877.752	-20.48
877.924	-2.05
878.097	-20.48
878.269	-28.67
878.442	-2.05
878.614	-36.86
878.786	55.3
878.959	-36.86
879.131	-26.62
879.303	-36.86
879.476	-77.82
879.648	22.53
879.82	30.72
879.993	-36.86
880.165	6.14
880.337	-40.96
880.509	43.01
880.681	22.53
880.854	12.29
881.026	4.1
881.198	114.69
881.37	24.58
881.542	-10.24
881.714	20.48
881.886	10.24
882.058	-22.53
882.23	14.34
882.402	-6.14
882.574	86.01
882.746	-108.54
882.918	0
883.09	65.53
883.262	12.29
883.434	-34.82
883.606	-4.1
883.778	-8.19
883.95	77.82
884.122	-22.53
884.293	43.01
884.465	8.19
884.637	65.53
884.809	-26.62
884.98	20.48
885.152	36.86
885.324	-4.1
885.496	-36.86
885.667	20.48
885.839	14.34
886.011	45.06
886.182	12.29
886.354	-59.39
886.525	24.58
886.697	32.77
886.869	-40.96
887.04	30.72
887.212	20.48
887.383	45.06
887.555	-45.06
887.726	24.58
887.897	-53.25
888.069	57.34
888.24	4.1
888.412	2.05
888.583	-16.38
888.754	-2.05
888.926	-100.35
889.097	-16.38
889.268	-53.25
889.44	-4.1
889.611	-100.35
889.782	-40.96
889.953	65.53
890.125	-28.67
890.296	-81.92
890.467	-20.48
890.638	-6.14
890.809	6.14
890.98	-32.77
891.151	-38.91
891.323	-28.67
891.494	28.67
891.665	32.77
891.836	-36.86
892.007	-65.54
892.178	77.82
892.349	-24.58
892.52	6.14
892.691	-4.1
892.862	-45.06
893.032	-40.96
893.203	-24.58
893.374	-34.82
893.545	-8.19
893.716	-51.2
893.887	57.34
894.057	28.67
894.228	38.91
894.399	-36.86
894.57	32.77
894.74	6.14
894.911	34.82
895.082	-36.86
895.253	12.29
895.423	53.25
895.594	49.15
895.764	-22.53
895.935	-18.43
896.106	-51.2
896.276	-110.59
896.447	-28.67
896.617	-20.48
896.788	0
896.958	-55.3
897.129	-55.3
897.299	-8.19
897.47	-28.67
897.64	51.2
897.81	-40.96
897.981	38.91
898.151	-45.06
898.322	28.67
898.492	-18.43
898.662	-4.1
898.832	-32.77
899.003	28.67
899.173	63.49
899.343	-12.29
899.513	49.15
