Data from USB4F104151__75__14-30-28-874.txt Node

Date: Thu Mar 13 14:30:28 EDT 2025
User: louis
Spectrometer: USB4F10415
Trigger mode: 4
Integration Time (sec): 2.500000E-2
Scans to average: 1
Electric dark correction enabled: true
Nonlinearity correction enabled: false
Boxcar width: 0
XAxis mode: Wavelengths
Number of Pixels in Spectrum: 3648
>>>>>Begin Spectral Data<<<<<
178.204	-116.22
178.424	-116.22
178.644	-116.22
178.864	-124.41
179.084	-65.02
179.304	-3.58
179.524	16.9
179.744	-17.92
179.964	47.62
180.184	-48.64
180.404	10.75
180.624	-5.63
180.844	-1.54
181.064	29.18
181.283	-71.17
181.503	-17.92
181.723	61.95
181.943	-40.45
182.163	94.72
182.383	-52.74
182.602	12.8
182.822	64
183.042	33.28
183.262	53.76
183.482	57.86
183.701	111.1
183.921	66.05
184.141	23.04
184.361	129.53
184.58	74.24
184.8	51.71
185.02	-38.4
185.239	98.81
185.459	55.81
185.679	25.09
185.898	-1.54
186.118	96.77
186.338	84.48
186.557	57.86
186.777	-1.54
186.997	2.56
187.216	-7.68
187.436	31.23
187.655	117.25
187.875	64
188.095	10.75
188.314	107.01
188.534	47.62
188.753	10.75
188.973	64
189.192	47.62
189.412	84.48
189.631	80.38
189.851	66.05
190.07	47.62
190.29	-67.07
190.509	88.57
190.729	-1.54
190.948	80.38
191.168	178.69
191.387	68.09
191.607	76.29
191.826	64
192.045	80.38
192.265	88.57
192.484	64
192.704	49.66
192.923	8.7
193.142	123.39
193.362	82.43
193.581	66.05
193.8	49.66
194.02	49.66
194.239	0.51
194.458	47.62
194.678	-15.87
194.897	123.39
195.116	35.33
195.335	23.04
195.555	96.77
195.774	14.85
195.993	66.05
196.212	-9.73
196.432	-34.3
196.651	51.71
196.87	55.81
197.089	92.67
197.308	23.04
197.528	55.81
197.747	27.14
197.966	33.28
198.185	88.57
198.404	-81.41
198.623	98.81
198.842	55.81
199.062	33.28
199.281	113.15
199.5	-7.68
199.719	35.33
199.938	27.14
200.157	72.19
200.376	92.67
200.595	27.14
200.814	33.28
201.033	43.52
201.252	152.06
201.471	-9.73
201.69	39.42
201.909	-3.58
202.128	41.47
202.347	92.67
202.566	-38.4
202.785	10.75
203.004	27.14
203.223	141.82
203.442	31.23
203.661	25.09
203.879	61.95
204.098	31.23
204.317	-32.26
204.536	31.23
204.755	35.33
204.974	-7.68
205.193	8.7
205.411	113.15
205.63	55.81
205.849	8.7
206.068	-13.82
206.287	-32.26
206.505	98.81
206.724	59.9
206.943	-17.92
207.162	49.66
207.381	47.62
207.599	-26.11
207.818	66.05
208.037	-7.68
208.255	23.04
208.474	33.28
208.693	-34.3
208.911	47.62
209.13	-1.54
209.349	33.28
209.567	23.04
209.786	64
210.005	16.9
210.223	-7.68
210.442	-60.93
210.661	-9.73
210.879	29.18
211.098	8.7
211.316	49.66
211.535	14.85
211.753	51.71
211.972	47.62
212.191	-7.68
212.409	20.99
212.628	100.86
212.846	16.9
213.065	12.8
213.283	55.81
213.502	-62.98
213.72	-1.54
213.938	68.09
214.157	31.23
214.375	-17.92
214.594	39.42
214.812	76.29
215.031	68.09
215.249	74.24
215.467	66.05
215.686	80.38
215.904	145.92
216.122	10.75
216.341	94.72
216.559	51.71
216.778	90.62
216.996	82.43
217.214	66.05
217.432	2.56
217.651	-19.97
217.869	55.81
218.087	31.23
218.306	-30.21
218.524	35.33
218.742	6.66
218.96	49.66
219.179	53.76
219.397	66.05
219.615	43.52
219.833	18.94
220.051	55.81
220.27	88.57
220.488	66.05
220.706	33.28
220.924	0.51
221.142	31.23
221.36	-44.54
221.578	10.75
221.796	47.62
222.015	49.66
222.233	47.62
222.451	16.9
222.669	-56.83
222.887	74.24
223.105	47.62
223.323	6.66
223.541	-26.11
223.759	33.28
223.977	4.61
224.195	57.86
224.413	25.09
224.631	4.61
224.849	64
225.067	107.01
225.285	-5.63
225.503	25.09
225.721	8.7
225.939	20.99
226.157	55.81
226.375	57.86
226.592	-24.06
226.81	29.18
227.028	-24.06
227.246	115.2
227.464	14.85
227.682	16.9
227.9	76.29
228.117	82.43
228.335	6.66
228.553	23.04
228.771	90.62
228.989	43.52
229.206	12.8
229.424	-3.58
229.642	39.42
229.86	72.19
230.077	72.19
230.295	45.57
230.513	4.61
230.731	92.67
230.948	23.04
231.166	109.05
231.384	-17.92
231.601	-9.73
231.819	117.25
232.037	14.85
232.254	-48.64
232.472	80.38
232.689	23.04
232.907	90.62
233.125	47.62
233.342	-69.12
233.56	27.14
233.777	29.18
233.995	37.38
234.213	25.09
234.43	96.77
234.648	-9.73
234.865	0.51
235.083	31.23
235.3	-15.87
235.518	98.81
235.735	6.66
235.953	68.09
236.17	80.38
236.388	66.05
236.605	41.47
236.822	66.05
237.04	88.57
237.257	6.66
237.475	-34.3
237.692	-9.73
237.909	53.76
238.127	80.38
238.344	25.09
238.562	35.33
238.779	20.99
238.996	-1.54
239.214	6.66
239.431	66.05
239.648	-38.4
239.865	115.2
240.083	14.85
240.3	39.42
240.517	43.52
240.735	16.9
240.952	150.01
241.169	20.99
241.386	31.23
241.603	70.14
241.821	-9.73
242.038	35.33
242.255	-9.73
242.472	-52.74
242.689	6.66
242.907	39.42
243.124	27.14
243.341	14.85
243.558	-36.35
243.775	76.29
243.992	-19.97
244.209	64
244.426	104.96
244.643	43.52
244.86	23.04
245.078	23.04
245.295	88.57
245.512	-1.54
245.729	-5.63
245.946	68.09
246.163	80.38
246.38	49.66
246.597	55.81
246.814	59.9
247.031	84.48
247.248	55.81
247.464	14.85
247.681	47.62
247.898	113.15
248.115	92.67
248.332	66.05
248.549	25.09
248.766	64
248.983	109.05
249.2	57.86
249.417	104.96
249.633	37.38
249.85	115.2
250.067	47.62
250.284	-13.82
250.501	74.24
250.717	57.86
250.934	16.9
251.151	-1.54
251.368	27.14
251.585	100.86
251.801	-28.16
252.018	10.75
252.235	88.57
252.451	49.66
252.668	-13.82
252.885	-9.73
253.102	31.23
253.318	14.85
253.535	2.56
253.752	6.66
253.968	14.85
254.185	-13.82
254.401	-32.26
254.618	57.86
254.835	-17.92
255.051	76.29
255.268	-9.73
255.484	107.01
255.701	49.66
255.917	-9.73
256.134	76.29
256.351	59.9
256.567	109.05
256.784	57.86
257	27.14
257.217	129.53
257.433	90.62
257.65	33.28
257.866	53.76
258.082	12.8
258.299	64
258.515	53.76
258.732	16.9
258.948	35.33
259.165	-28.16
259.381	23.04
259.597	14.85
259.814	31.23
260.03	41.47
260.246	55.81
260.463	145.92
260.679	84.48
260.895	-13.82
261.112	113.15
261.328	23.04
261.544	-26.11
261.761	80.38
261.977	72.19
262.193	23.04
262.409	-9.73
262.626	49.66
262.842	82.43
263.058	-24.06
263.274	111.1
263.49	68.09
263.707	123.39
263.923	-15.87
264.139	-9.73
264.355	90.62
264.571	33.28
264.787	96.77
265.004	78.33
265.22	55.81
265.436	0.51
265.652	29.18
265.868	113.15
266.084	10.75
266.3	35.33
266.516	14.85
266.732	-19.97
266.948	-1.54
267.164	-22.02
267.38	57.86
267.596	27.14
267.812	25.09
268.028	80.38
268.244	53.76
268.46	23.04
268.676	29.18
268.892	72.19
269.108	57.86
269.324	4.61
269.54	2.56
269.756	59.9
269.972	16.9
270.188	80.38
270.403	23.04
270.619	39.42
270.835	125.44
271.051	25.09
271.267	47.62
271.483	14.85
271.698	98.81
271.914	57.86
272.13	72.19
272.346	53.76
272.562	47.62
272.777	72.19
272.993	55.81
273.209	0.51
273.425	72.19
273.64	-17.92
273.856	94.72
274.072	18.94
274.287	8.7
274.503	88.57
274.719	55.81
274.934	8.7
275.15	10.75
275.366	23.04
275.581	16.9
275.797	39.42
276.012	68.09
276.228	76.29
276.444	68.09
276.659	31.23
276.875	18.94
277.09	104.96
277.306	25.09
277.521	41.47
277.737	-15.87
277.952	145.92
278.168	96.77
278.383	72.19
278.599	6.66
278.814	51.71
279.03	80.38
279.245	88.57
279.461	8.7
279.676	66.05
279.892	-32.26
280.107	-50.69
280.322	-11.78
280.538	66.05
280.753	96.77
280.969	100.86
281.184	72.19
281.399	92.67
281.615	55.81
281.83	55.81
282.045	-26.11
282.26	74.24
282.476	39.42
282.691	80.38
282.906	23.04
283.122	8.7
283.337	72.19
283.552	162.3
283.767	59.9
283.983	80.38
284.198	23.04
284.413	51.71
284.628	-34.3
284.843	-9.73
285.058	35.33
285.274	45.57
285.489	72.19
285.704	115.2
285.919	23.04
286.134	72.19
286.349	35.33
286.564	59.9
286.779	37.38
286.995	-32.26
287.21	2.56
287.425	88.57
287.64	27.14
287.855	64
288.07	18.94
288.285	27.14
288.5	88.57
288.715	100.86
288.93	27.14
289.145	2.56
289.36	53.76
289.575	47.62
289.79	49.66
290.004	84.48
290.219	16.9
290.434	94.72
290.649	47.62
290.864	25.09
291.079	90.62
291.294	16.9
291.509	23.04
291.724	20.99
291.938	4.61
292.153	92.67
292.368	31.23
292.583	66.05
292.798	80.38
293.012	51.71
293.227	43.52
293.442	14.85
293.657	133.63
293.871	84.48
294.086	27.14
294.301	147.97
294.516	80.38
294.73	123.39
294.945	-3.58
295.16	49.66
295.374	53.76
295.589	90.62
295.804	39.42
296.018	-28.16
296.233	84.48
296.447	64
296.662	10.75
296.877	55.81
297.091	55.81
297.306	88.57
297.52	31.23
297.735	31.23
297.949	6.66
298.164	109.05
298.378	-30.21
298.593	6.66
298.807	41.47
299.022	20.99
299.236	113.15
299.451	47.62
299.665	-17.92
299.88	8.7
300.094	39.42
300.309	72.19
300.523	64
300.737	2.56
300.952	-1.54
301.166	104.96
301.381	-19.97
301.595	6.66
301.809	14.85
302.024	55.81
302.238	10.75
302.452	59.9
302.667	23.04
302.881	31.23
303.095	113.15
303.309	131.58
303.524	2.56
303.738	39.42
303.952	66.05
304.166	121.34
304.381	14.85
304.595	-1.54
304.809	51.71
305.023	64
305.237	59.9
305.452	4.61
305.666	113.15
305.88	72.19
306.094	49.66
306.308	55.81
306.522	55.81
306.736	33.28
306.95	33.28
307.164	51.71
307.379	92.67
307.593	96.77
307.807	-1.54
308.021	78.33
308.235	115.2
308.449	8.7
308.663	39.42
308.877	150.01
309.091	49.66
309.305	74.24
309.519	25.09
309.733	55.81
309.947	31.23
310.161	59.9
310.374	127.49
310.588	80.38
310.802	51.71
311.016	-7.68
311.23	84.48
311.444	-30.21
311.658	-1.54
311.872	84.48
312.085	-5.63
312.299	61.95
312.513	35.33
312.727	0.51
312.941	-17.92
313.154	47.62
313.368	10.75
313.582	47.62
313.796	16.9
314.009	92.67
314.223	113.15
314.437	57.86
314.651	59.9
314.864	-42.5
315.078	2.56
315.292	23.04
315.505	2.56
315.719	68.09
315.933	64
316.146	33.28
316.36	-17.92
316.573	66.05
316.787	98.81
317.001	61.95
317.214	20.99
317.428	33.28
317.641	16.9
317.855	61.95
318.068	117.25
318.282	147.97
318.495	82.43
318.709	64
318.922	14.85
319.136	-22.02
319.349	143.87
319.563	23.04
319.776	-22.02
319.99	-58.88
320.203	18.94
320.417	45.57
320.63	29.18
320.843	104.96
321.057	68.09
321.27	23.04
321.483	51.71
321.697	35.33
321.91	96.77
322.124	66.05
322.337	20.99
322.55	27.14
322.763	82.43
322.977	16.9
323.19	94.72
323.403	70.14
323.617	61.95
323.83	55.81
324.043	49.66
324.256	72.19
324.469	0.51
324.683	139.77
324.896	27.14
325.109	47.62
325.322	-17.92
325.535	47.62
325.748	84.48
325.962	64
326.175	-5.63
326.388	25.09
326.601	59.9
326.814	35.33
327.027	82.43
327.24	76.29
327.453	39.42
327.666	47.62
327.879	137.73
328.092	53.76
328.305	123.39
328.518	59.9
328.731	68.09
328.944	20.99
329.157	37.38
329.37	104.96
329.583	90.62
329.796	35.33
330.009	-56.83
330.222	82.43
330.435	16.9
330.648	27.14
330.861	-13.82
331.073	39.42
331.286	-17.92
331.499	-15.87
331.712	82.43
331.925	78.33
332.138	49.66
332.35	145.92
332.563	6.66
332.776	31.23
332.989	-32.26
333.202	88.57
333.414	39.42
333.627	172.54
333.84	88.57
334.053	133.63
334.265	18.94
334.478	39.42
334.691	55.81
334.903	51.71
335.116	-5.63
335.329	-1.54
335.541	51.71
335.754	80.38
335.966	72.19
336.179	14.85
336.392	55.81
336.604	43.52
336.817	45.57
337.029	55.81
337.242	16.9
337.454	162.3
337.667	-22.02
337.88	125.44
338.092	20.99
338.305	25.09
338.517	84.48
338.729	20.99
338.942	23.04
339.154	20.99
339.367	61.95
339.579	121.34
339.792	-52.74
340.004	23.04
340.217	41.47
340.429	33.28
340.641	61.95
340.854	49.66
341.066	90.62
341.278	41.47
341.491	-9.73
341.703	39.42
341.915	27.14
342.128	80.38
342.34	64
342.552	39.42
342.764	6.66
342.977	23.04
343.189	31.23
343.401	55.81
343.613	20.99
343.826	88.57
344.038	23.04
344.25	-22.02
344.462	47.62
344.674	6.66
344.886	80.38
345.099	72.19
345.311	8.7
345.523	10.75
345.735	0.51
345.947	78.33
346.159	88.57
346.371	57.86
346.583	55.81
346.795	82.43
347.007	59.9
347.219	2.56
347.431	18.94
347.643	121.34
347.855	61.95
348.067	47.62
348.279	-38.4
348.491	88.57
348.703	35.33
348.915	14.85
349.127	23.04
349.339	23.04
349.551	55.81
349.763	20.99
349.975	31.23
350.187	72.19
350.399	121.34
350.61	27.14
350.822	-3.58
351.034	27.14
351.246	80.38
351.458	80.38
351.669	96.77
351.881	0.51
352.093	55.81
352.305	100.86
352.517	-1.54
352.728	14.85
352.94	51.71
353.152	107.01
353.363	-38.4
353.575	57.86
353.787	14.85
353.999	59.9
354.21	86.53
354.422	18.94
354.633	68.09
354.845	47.62
355.057	57.86
355.268	33.28
355.48	16.9
355.692	-30.21
355.903	66.05
356.115	-62.98
356.326	-50.69
356.538	145.92
356.749	35.33
356.961	102.91
357.172	64
357.384	55.81
357.595	102.91
357.807	68.09
358.018	70.14
358.23	88.57
358.441	96.77
358.653	6.66
358.864	-26.11
359.075	55.81
359.287	96.77
359.498	109.05
359.709	43.52
359.921	68.09
360.132	33.28
360.344	49.66
360.555	-54.78
360.766	129.53
360.977	41.47
361.189	16.9
361.4	25.09
361.611	82.43
361.823	98.81
362.034	102.91
362.245	33.28
362.456	-24.06
362.667	33.28
362.879	47.62
363.09	47.62
363.301	88.57
363.512	88.57
363.723	27.14
363.935	39.42
364.146	59.9
364.357	43.52
364.568	55.81
364.779	117.25
364.99	137.73
365.201	51.71
365.412	145.92
365.623	0.51
365.834	55.81
366.045	43.52
366.256	96.77
366.467	88.57
366.678	66.05
366.889	66.05
367.1	55.81
367.311	139.77
367.522	47.62
367.733	31.23
367.944	74.24
368.155	-11.78
368.366	41.47
368.577	145.92
368.788	80.38
368.999	6.66
369.209	57.86
369.42	119.29
369.631	145.92
369.842	80.38
370.053	96.77
370.264	107.01
370.474	49.66
370.685	-1.54
370.896	20.99
371.107	66.05
371.317	49.66
371.528	10.75
371.739	2.56
371.95	84.48
372.16	84.48
372.371	27.14
372.582	98.81
372.792	29.18
373.003	72.19
373.214	37.38
373.424	104.96
373.635	47.62
373.846	80.38
374.056	80.38
374.267	64
374.477	66.05
374.688	66.05
374.898	-13.82
375.109	39.42
375.319	64
375.53	98.81
375.74	-1.54
375.951	104.96
376.161	18.94
376.372	84.48
376.582	74.24
376.793	41.47
377.003	74.24
377.214	47.62
377.424	76.29
377.635	61.95
377.845	76.29
378.055	43.52
378.266	47.62
378.476	-1.54
378.686	125.44
378.897	70.14
379.107	80.38
379.317	43.52
379.528	88.57
379.738	104.96
379.948	31.23
380.158	33.28
380.369	4.61
380.579	57.86
380.789	115.2
380.999	55.81
381.21	47.62
381.42	129.53
381.63	98.81
381.84	45.57
382.05	57.86
382.261	59.9
382.471	68.09
382.681	59.9
382.891	119.29
383.101	20.99
383.311	125.44
383.521	-26.11
383.731	111.1
383.941	47.62
384.151	61.95
384.361	-9.73
384.571	109.05
384.781	25.09
384.991	137.73
385.201	94.72
385.411	141.82
385.621	41.47
385.831	6.66
386.041	135.68
386.251	66.05
386.461	113.15
386.671	113.15
386.881	49.66
387.091	158.21
387.301	137.73
387.511	16.9
387.72	127.49
387.93	90.62
388.14	14.85
388.35	33.28
388.56	104.96
388.769	14.85
388.979	20.99
389.189	29.18
389.399	90.62
389.609	121.34
389.818	104.96
390.028	100.86
390.238	109.05
390.447	39.42
390.657	57.86
390.867	72.19
391.076	84.48
391.286	41.47
391.496	33.28
391.705	-9.73
391.915	98.81
392.125	115.2
392.334	55.81
392.544	88.57
392.753	74.24
392.963	25.09
393.172	129.53
393.382	55.81
393.591	90.62
393.801	139.77
394.01	129.53
394.22	64
394.429	111.1
394.639	59.9
394.848	98.81
395.058	94.72
395.267	104.96
395.477	72.19
395.686	147.97
395.895	193.02
396.105	145.92
396.314	104.96
396.524	78.33
396.733	137.73
396.942	139.77
397.152	141.82
397.361	107.01
397.57	117.25
397.78	92.67
397.989	80.38
398.198	227.84
398.407	68.09
398.617	152.06
398.826	104.96
399.035	154.11
399.244	129.53
399.453	190.97
399.663	76.29
399.872	117.25
400.081	111.1
400.29	145.92
400.499	82.43
400.708	64
400.917	154.11
401.127	109.05
401.336	88.57
401.545	147.97
401.754	64
401.963	154.11
402.172	100.86
402.381	164.35
402.59	145.92
402.799	88.57
403.008	162.3
403.217	154.11
403.426	94.72
403.635	29.18
403.844	109.05
404.053	82.43
404.262	145.92
404.471	188.93
404.68	276.99
404.888	188.93
405.097	172.54
405.306	154.11
405.515	170.49
405.724	158.21
405.933	225.79
406.142	236.03
406.35	215.55
406.559	238.08
406.768	166.4
406.977	227.84
407.185	203.26
407.394	279.04
407.603	193.02
407.812	244.22
408.02	297.47
408.229	150.01
408.438	276.99
408.646	238.08
408.855	221.69
409.064	291.32
409.272	236.03
409.481	297.47
409.69	281.08
409.898	252.41
410.107	254.46
410.315	309.76
410.524	356.86
410.733	401.91
410.941	352.76
411.15	463.35
411.358	477.69
411.567	508.41
411.775	375.29
411.984	432.63
412.192	449.02
412.401	473.59
412.609	522.74
412.818	518.65
413.026	602.61
413.234	565.75
413.443	586.23
413.651	643.57
413.86	600.57
414.068	674.29
414.276	612.85
414.485	635.38
414.693	719.35
414.901	776.69
415.11	715.25
415.318	809.46
415.526	823.8
415.734	768.5
415.943	932.34
416.151	971.25
416.359	842.23
416.567	938.48
416.776	1038.83
416.984	1106.42
417.192	1024.5
417.4	1014.26
417.608	985.58
417.817	1049.07
418.025	1180.14
418.233	1165.81
418.441	1243.63
418.649	1243.63
418.857	1352.17
419.065	1466.86
419.273	1456.62
419.481	1401.32
419.689	1507.82
419.897	1542.63
420.105	1628.65
420.313	1630.7
420.521	1681.89
420.729	1841.64
420.937	1733.09
421.145	1817.06
421.353	1989.09
421.561	2060.77
421.769	2243.04
421.977	2171.36
422.185	2122.21
422.393	2263.52
422.601	2367.96
422.809	2374.11
423.017	2548.19
423.224	2572.76
423.432	2767.32
423.64	2605.53
423.848	2890.2
424.056	2720.21
424.263	3058.13
424.471	3021.27
424.679	3013.07
424.887	3297.74
425.094	3303.89
425.302	3258.83
425.51	3635.66
425.718	3637.7
425.925	3613.13
426.133	3791.3
426.341	4016.58
426.548	4209.09
426.756	4137.41
426.964	4192.7
427.171	4497.85
427.379	4618.68
427.586	4624.83
427.794	4643.26
428.001	5005.75
428.209	5138.87
428.417	5036.47
428.624	5405.1
428.832	5587.37
429.039	5364.14
429.247	5478.83
429.454	5880.23
429.662	6271.39
429.869	5872.04
430.076	6398.37
430.284	6189.47
430.491	6408.61
430.699	6859.16
430.906	6662.55
431.114	6920.6
431.321	7111.06
431.528	7334.29
431.736	7733.64
431.943	7987.59
432.15	7932.29
432.358	7887.24
432.565	8335.74
432.772	8223.11
432.979	8821.11
433.187	8700.28
433.394	8907.13
433.601	9415.02
433.808	9601.39
434.016	9496.94
434.223	9787.75
434.43	10453.34
434.637	10234.21
434.844	10977.62
435.052	11082.07
435.259	11010.39
435.466	10926.43
435.673	11092.31
435.88	11608.4
436.087	12271.94
436.294	12400.96
436.501	11876.68
436.708	12204.36
436.915	12558.66
437.122	13316.4
437.329	13191.48
437.537	13572.4
437.743	13711.66
437.95	13580.59
438.157	14504.23
438.364	14858.53
438.571	14524.71
438.778	14852.38
438.985	16365.83
439.192	15776.02
439.399	16294.15
439.606	15816.97
439.813	16529.67
440.02	17658.1
440.227	17135.87
440.433	17051.9
440.64	18057.45
440.847	17467.64
441.054	18161.9
441.261	19253.47
441.467	19103.96
441.674	19562.71
441.881	20226.25
442.088	20250.83
442.294	20033.74
442.501	20254.92
442.708	20672.71
442.914	21387.45
443.121	22329.52
443.328	21948.59
443.534	23294.11
443.741	22577.32
443.948	22368.43
444.154	24113.3
444.361	23890.07
444.568	24058
444.774	23873.68
444.981	24453.26
445.187	25141.38
445.394	26239.09
445.6	25942.13
445.807	28090.45
446.013	26992.74
446.22	27326.56
446.426	28784.71
446.633	28966.98
446.839	29802.55
447.046	28645.45
447.252	30003.25
447.459	30269.49
447.665	30005.3
447.871	31084.58
448.078	32432.15
448.284	31105.06
448.491	32131.09
448.697	33269.76
448.903	33961.98
449.11	33892.35
449.316	33763.32
449.522	33996.79
449.728	34840.56
449.935	35233.77
450.141	35151.85
450.347	36059.1
450.553	34998.25
450.76	35276.77
450.966	36372.44
451.172	35862.49
451.378	36855.76
451.584	36034.52
451.791	36935.63
451.997	36851.66
452.203	37484.48
452.409	37552.07
452.615	37504.96
452.821	35737.57
453.027	35598.3
453.233	37160.9
453.44	36083.67
453.646	36243.41
453.852	36640.72
454.058	37058.51
454.264	35983.32
454.47	36595.67
454.676	35868.64
454.882	37208.01
455.088	33994.75
455.294	34476.02
455.5	34899.95
455.705	35434.47
455.911	33746.94
456.117	32923.66
456.323	32770.06
456.529	31076.39
456.735	32512.02
456.941	31436.83
457.147	30865.45
457.352	29878.33
457.558	29702.2
457.764	29534.27
457.97	28760.14
458.176	28328.02
458.381	28274.77
458.587	27359.33
458.793	27238.5
458.999	25643.13
459.204	27639.9
459.41	26544.23
459.616	24877.19
459.821	25163.9
460.027	24834.18
460.233	24103.06
460.438	23163.04
460.644	23771.29
460.85	22159.53
461.055	21737.65
461.261	22061.23
461.466	20353.23
461.672	19558.61
461.878	21076.16
462.083	19458.26
462.289	19263.71
462.494	19065.05
462.7	18225.39
462.905	17697.01
463.111	18338.02
463.316	18485.48
463.522	17887.47
463.727	18028.78
463.932	17893.61
464.138	17541.36
464.343	17799.41
464.549	17015.04
464.754	17830.13
464.959	17721.59
465.165	17414.39
465.37	16740.61
465.575	16212.23
465.781	17166.59
465.986	16988.41
466.191	16341.25
466.397	16269.58
466.602	15264.02
466.807	15941.9
467.012	15718.67
467.218	15657.23
467.423	15565.07
467.628	15560.98
467.833	16322.82
468.038	15350.04
468.244	15329.56
468.449	15577.36
468.654	15141.14
468.859	15313.17
469.064	14788.89
469.269	14326.05
469.474	14641.44
469.679	14979.36
469.885	14201.13
470.09	14428.45
470.295	14457.12
470.5	14205.22
470.705	13975.85
470.91	13822.25
471.115	13586.74
471.32	13873.45
471.525	13766.96
471.73	13433.14
471.935	13392.18
472.139	12886.33
472.344	13123.9
472.549	13074.74
472.754	12894.52
472.959	12589.38
473.164	12409.15
473.369	12208.45
473.574	12618.05
473.778	12360
473.983	12157.25
474.188	12396.87
474.393	11780.43
474.598	11745.61
474.802	11796.81
475.007	11639.12
475.212	11815.24
475.417	11327.83
475.621	11127.13
475.826	11147.61
476.031	10922.33
476.235	10846.55
476.44	10961.24
476.645	10805.6
476.849	10811.74
477.054	10574.17
477.259	10234.21
477.463	10426.72
477.668	10340.71
477.872	10396
478.077	10033.51
478.282	9843.05
478.486	9888.11
478.691	9787.75
478.895	9894.25
479.1	9681.26
479.304	9658.73
479.509	9468.27
479.713	9632.11
479.918	9470.32
480.122	9230.71
480.326	9415.02
480.531	9329.01
480.735	9294.19
480.94	9251.19
481.144	9496.94
481.348	8905.08
481.553	9021.81
481.757	8888.7
481.961	9255.28
482.166	9048.44
482.37	9091.45
482.574	8948.09
482.778	9085.3
482.983	9027.96
483.187	8976.76
483.391	8894.84
483.595	8862.07
483.8	8954.23
484.004	8921.46
484.208	8804.73
484.412	8833.4
484.616	8837.5
484.821	8788.35
485.025	8847.74
485.229	8989.05
485.433	8739.19
485.637	8943.99
485.841	8821.11
486.045	8604.03
486.249	8884.6
486.453	8872.31
486.657	8862.07
486.861	8608.12
487.065	8561.02
487.269	8853.88
487.473	8765.82
487.677	8780.15
487.881	8956.28
488.085	8700.28
488.289	8755.58
488.493	8823.16
488.697	9003.38
488.901	8812.92
489.105	8759.67
489.309	8931.7
489.512	8812.92
489.716	8862.07
489.92	8747.39
490.124	8728.95
490.328	8872.31
490.531	8831.35
490.735	8702.33
490.939	8864.12
491.143	8819.07
491.346	8657.28
491.55	9044.34
491.754	9066.87
491.958	8958.33
492.161	9118.07
492.365	9075.06
492.569	9120.12
492.772	8921.46
492.976	9263.47
493.18	9116.02
493.383	9224.56
493.587	9427.31
493.79	9279.86
493.994	9316.72
494.197	9472.37
494.401	9546.09
494.605	9464.18
494.808	9601.39
495.012	9660.78
495.215	9429.36
495.419	9945.45
495.622	9757.04
495.825	9675.12
496.029	9892.2
496.232	9933.16
496.436	9984.36
496.639	10193.25
496.843	10158.44
497.046	10289.51
497.249	10355.04
497.453	10520.93
497.656	10486.11
497.859	10449.25
498.063	10752.35
498.266	10668.38
498.469	10914.14
498.673	10830.17
498.876	11266.39
499.079	11221.33
499.282	11329.88
499.485	11555.15
499.689	11524.43
499.892	11667.79
500.095	11549.01
500.298	12001.61
500.501	12017.99
500.705	12224.84
500.908	12216.65
501.111	12296.52
501.314	12613.95
501.517	12585.28
501.72	12708.16
501.923	12661.05
502.126	12980.54
502.329	13005.11
502.532	13148.47
502.735	13310.26
502.938	13568.3
503.141	13267.25
503.344	13654.32
503.547	13732.14
503.75	13869.36
503.953	14100.78
504.156	14231.85
504.359	14174.5
504.562	14477.6
504.765	14530.85
504.968	14790.94
505.17	15139.1
505.373	15216.92
505.576	15296.79
505.779	15450.39
505.982	15530.26
506.185	15585.55
506.387	15982.86
506.59	16011.53
506.793	16345.35
506.996	16242.95
507.198	16933.12
507.401	16619.78
507.604	16931.07
507.807	16990.46
508.009	17225.98
508.212	17324.28
508.415	17496.31
508.617	17619.19
508.82	17996.01
509.022	17871.09
509.225	18268.39
509.428	18223.34
509.63	18579.68
509.833	18374.89
510.035	19128.54
510.238	19058.91
510.44	19167.45
510.643	19478.74
510.845	19732.69
511.048	19843.28
511.25	19517.65
511.453	19957.97
511.655	20738.24
511.858	20330.7
512.06	20459.72
512.262	20764.87
512.465	21051.58
512.667	21262.52
512.87	21446.84
513.072	21379.26
513.274	21795
513.477	21987.5
513.679	22094
513.881	22294.7
514.084	22708.39
514.286	22890.66
514.488	22931.62
514.69	23380.12
514.893	23373.98
515.095	23718.04
515.297	23910.55
515.499	23806.1
515.701	24651.91
515.904	24428.68
516.106	24807.56
516.308	25043.07
516.51	25036.93
516.712	25092.23
516.914	25469.05
517.116	25766.01
517.318	25995.38
517.52	26081.39
517.722	26062.96
517.925	26384.49
518.127	26919.01
518.329	27002.98
518.531	26843.24
518.733	27236.45
518.935	27605.08
519.136	27416.67
519.338	27650.14
519.54	27924.57
519.742	28344.4
519.944	28237.91
520.146	28663.88
520.348	28631.12
520.55	29055.04
520.752	29128.77
520.954	29429.82
521.155	29198.4
521.357	29478.97
521.559	30249.01
521.761	30398.51
521.963	29890.62
522.164	30199.86
522.366	30240.82
522.568	30519.34
522.77	30521.39
522.971	31025.19
523.173	30722.09
523.375	31141.92
523.576	31012.9
523.778	30902.31
523.98	31320.1
524.181	31490.08
524.383	31209.51
524.584	31836.19
524.786	31750.17
524.988	31588.38
525.189	31981.59
525.391	32010.26
525.592	32129.05
525.794	32256.02
525.995	31832.09
526.197	32090.13
526.398	32356.37
526.6	32450.58
526.801	32405.52
527.003	32456.72
527.204	32403.47
527.406	32802.83
527.607	32612.37
527.808	32864.27
528.01	32200.72
528.211	32266.26
528.412	32937.99
528.614	32913.42
528.815	33026.06
529.016	32987.14
529.218	32667.66
529.419	32700.43
529.62	32872.46
529.822	32862.22
530.023	32548.88
530.224	32745.48
530.425	32559.12
530.626	32552.98
530.828	32034.84
531.029	32915.47
531.23	32198.68
531.431	32135.19
531.632	32348.18
531.833	32415.76
532.035	32407.57
532.236	32378.9
532.437	32499.73
532.638	32114.71
532.839	32532.5
533.04	32370.71
533.241	31895.58
533.442	32329.75
533.643	32151.57
533.844	31920.15
534.045	31901.72
534.246	31666.2
534.447	32014.36
534.648	31709.21
534.849	31856.67
535.05	31641.63
535.251	31866.91
535.451	31305.76
535.652	31784.99
535.853	31701.02
536.054	31606.81
536.255	31377.44
536.456	31107.11
536.657	31942.68
536.857	31211.56
537.058	31160.36
537.259	31381.54
537.46	30789.67
537.66	31227.94
537.861	31154.21
538.062	31027.24
538.263	31043.62
538.463	30965.8
538.664	30965.8
538.865	30699.56
539.065	30937.13
539.266	30873.64
539.466	30783.53
539.667	30357.55
539.868	31039.53
540.068	30746.67
540.269	30464.05
540.469	30750.76
540.67	30570.54
540.87	30601.26
541.071	30470.19
541.271	30453.81
541.472	30214.19
541.672	30316.59
541.873	30328.88
542.073	29777.98
542.274	30711.85
542.474	29966.39
542.675	29806.65
542.875	30085.17
543.075	30220.34
543.276	30226.48
543.476	30249.01
543.676	30027.83
543.877	30369.84
544.077	30040.12
544.277	30081.08
544.478	30138.42
544.678	30226.48
544.878	30304.31
545.078	30402.61
545.279	30279.73
545.479	30273.59
545.679	30212.15
545.879	30275.63
546.079	29939.77
546.28	30265.39
546.48	29866.04
546.68	30249.01
546.88	30206
547.08	29968.44
547.28	30156.85
547.48	29681.72
547.68	30113.84
547.88	30314.55
548.081	30160.95
548.281	30036.02
548.481	30341.17
548.681	30560.3
548.881	30013.49
549.081	29917.24
549.28	29857.85
549.48	30552.11
549.68	30253.11
549.88	30681.13
550.08	30167.09
550.28	30380.08
550.48	30130.23
550.68	30189.62
550.88	29972.53
551.08	30306.35
551.279	30292.02
551.479	30449.71
551.679	30246.96
551.879	29780.03
552.079	30400.56
552.278	30287.92
552.478	30439.47
552.678	30517.29
552.878	30261.3
553.077	30244.91
553.277	30208.05
553.477	30679.08
553.676	30611.5
553.876	30386.22
554.076	30652.46
554.275	30660.65
554.475	30623.79
554.674	30580.78
554.874	31010.85
555.074	30443.57
555.273	30943.27
555.473	30898.22
555.672	30453.81
555.872	30496.81
556.071	30521.39
556.271	30984.23
556.47	30744.62
556.67	30783.53
556.869	30777.39
557.068	31064.1
557.268	30578.73
557.467	31086.63
557.667	30801.96
557.866	30922.79
558.065	31232.04
558.265	31070.25
558.464	30910.5
558.663	30976.04
558.863	30779.43
559.062	31338.53
559.261	31123.49
559.461	31139.88
559.66	30781.48
559.859	30879.78
560.058	31158.31
560.258	31340.58
560.457	30697.52
560.656	31246.37
560.855	30648.36
561.054	31416.35
561.253	30638.12
561.453	31189.03
561.652	31242.28
561.851	31506.46
562.05	30810.15
562.249	30890.02
562.448	31219.75
562.647	31125.54
562.846	31115.3
563.045	31017
563.244	30750.76
563.443	31397.92
563.642	30828.59
563.841	30928.94
564.04	30926.89
564.239	31111.21
564.438	30873.64
564.637	31189.03
564.836	30959.66
565.035	30806.06
565.234	30914.6
565.432	30844.97
565.631	30781.48
565.83	30773.29
566.029	30212.15
566.228	30679.08
566.427	30386.22
566.625	30294.07
566.824	30150.71
567.023	30744.62
567.222	30234.67
567.42	30097.46
567.619	29950.01
567.818	30117.94
568.016	30197.81
568.215	30300.21
568.414	29890.62
568.612	29956.15
568.811	29696.06
569.01	30134.32
569.208	29456.45
569.407	30191.67
569.605	29302.85
569.804	29505.6
570.002	29345.86
570.201	29718.59
570.4	29319.23
570.598	29173.83
570.797	29218.88
570.995	29067.33
571.193	28866.63
571.392	29392.96
571.59	28743.75
571.789	28770.38
571.987	28840.01
572.186	28794.95
572.384	28686.41
572.582	28680.27
572.781	28457.04
572.979	28198.99
573.177	28366.93
573.376	28637.26
573.574	28217.43
573.772	28436.56
573.971	28155.99
574.169	28006.48
574.367	27533.4
574.565	27676.76
574.763	27611.23
574.962	27549.79
575.16	27394.14
575.358	27684.95
575.556	27170.91
575.754	27668.57
575.952	26964.07
576.151	27363.42
576.349	26755.18
576.547	26728.55
576.745	26931.3
576.943	27035.75
577.141	26775.66
577.339	26968.16
577.537	26646.63
577.735	26558.57
577.933	26337.39
578.131	26374.25
578.329	26257.52
578.527	25686.14
578.725	26091.63
578.923	25944.18
579.121	25665.66
579.319	25960.56
579.516	26011.76
579.714	25636.98
579.912	25673.85
580.11	25960.56
580.308	25546.87
580.506	25450.62
580.704	25194.62
580.901	25071.75
581.099	25426.04
581.297	25102.46
581.495	24981.63
581.692	25180.29
581.89	24926.34
582.088	25317.5
582.285	24856.71
582.483	25147.52
582.681	24875.14
582.878	24660.1
583.076	24459.4
583.274	24629.38
583.471	24049.81
583.669	24461.45
583.866	24211.6
584.064	24531.08
584.262	24324.24
584.459	24240.27
584.657	24203.41
584.854	24541.32
585.052	23947.41
585.249	24111.25
585.447	24187.02
585.644	23447.71
585.841	23922.83
586.039	23955.6
586.236	23242.91
586.434	23607.45
586.631	23523.48
586.828	23527.58
587.026	23595.16
587.223	23509.15
587.42	23476.38
587.618	23171.23
587.815	23296.16
588.012	23302.3
588.21	23238.81
588.407	23433.37
588.604	23265.44
588.801	23306.4
588.999	22874.27
589.196	22839.46
589.393	23345.31
589.59	23019.68
589.787	22763.68
589.984	22833.32
590.182	22669.48
590.379	22597.8
590.576	22247.6
590.773	22581.42
590.97	22479.02
591.167	22548.65
591.364	22247.6
591.561	22573.22
591.758	22151.34
591.955	22337.71
592.152	22372.52
592.349	22255.79
592.546	22505.64
592.743	22724.77
592.94	22206.64
593.137	22182.06
593.334	22601.9
593.531	21895.35
593.727	22137.01
593.924	22122.67
594.121	22128.81
594.318	22288.56
594.515	21788.85
594.712	22483.11
594.908	21940.4
595.105	21981.36
595.302	21919.92
595.499	22124.72
595.696	22184.11
595.892	22028.46
596.089	22091.95
596.286	21856.43
596.482	22270.12
596.679	21850.29
596.876	21944.5
597.072	21893.3
597.269	22046.9
597.466	21885.11
597.662	22122.67
597.859	21903.54
598.055	21842.1
598.252	21811.38
598.448	21815.48
598.645	21823.67
598.841	21948.59
599.038	21926.07
599.234	22038.7
599.431	21811.38
599.627	21946.55
599.824	22288.56
600.02	22071.47
600.217	22141.1
600.413	21926.07
600.609	21821.62
600.806	21850.29
601.002	22188.21
601.198	22036.66
601.395	21895.35
601.591	21827.76
601.787	22096.05
601.984	22298.8
602.18	22433.96
602.376	22143.15
602.572	22186.16
602.769	22356.14
602.965	21989.55
603.161	22194.35
603.357	22239.4
603.553	22505.64
603.75	22294.7
603.946	22362.28
604.142	22337.71
604.338	22321.32
604.534	22567.08
604.73	22126.77
604.926	22649
605.122	22767.78
605.318	22620.33
605.514	22790.31
605.71	22548.65
605.906	22726.82
606.102	22788.26
606.298	22681.77
606.494	22964.39
606.69	22821.03
606.886	22909.09
607.082	22847.65
607.278	23404.7
607.474	22579.37
607.67	22794.4
607.866	23019.68
608.062	23019.68
608.257	23132.32
608.453	23281.82
608.649	23167.13
608.845	23111.84
609.041	23103.65
609.236	23308.44
609.432	23316.64
609.628	23480.47
609.824	23707.8
610.019	23398.55
610.215	23623.83
610.411	23699.61
610.606	23599.26
610.802	23804.05
610.998	23611.54
611.193	23849.11
611.389	23533.72
611.584	23660.69
611.78	23650.46
611.976	23623.83
612.171	23867.54
612.367	23855.25
612.562	23722.13
612.758	23781.53
612.953	23613.59
613.149	24332.43
613.344	23861.4
613.539	24320.14
613.735	24397.96
613.93	23971.99
614.126	24078.48
614.321	24176.78
614.517	24406.16
614.712	23967.89
614.907	24027.28
615.103	24156.3
615.298	24262.8
615.493	24305.81
615.688	23928.98
615.884	24451.21
616.079	24019.09
616.274	24223.89
616.47	24121.49
616.665	24289.42
616.86	24113.3
617.055	24148.11
617.25	24178.83
617.445	24414.35
617.641	23611.54
617.836	24391.82
618.031	23873.68
618.226	24146.06
618.421	24045.71
618.616	24152.21
618.811	23830.68
619.006	24197.26
619.201	23455.9
619.396	23849.11
619.591	23275.68
619.786	23752.85
619.981	23345.31
620.176	23707.8
620.371	23380.12
620.566	23759
620.761	23642.26
620.956	23437.47
621.151	23251.1
621.346	23337.12
621.541	22730.92
621.735	23089.31
621.93	22626.47
622.125	22700.2
622.32	22145.2
622.515	22599.85
622.709	22507.69
622.904	22450.35
623.099	22268.08
623.294	22390.95
623.488	22319.28
623.683	22415.53
623.878	21862.58
624.072	21985.46
624.267	21825.71
624.462	21930.16
624.656	21551.29
624.851	21428.41
625.046	21586.1
625.24	21160.13
625.435	21270.72
625.629	21354.68
625.824	21110.97
626.018	21067.97
626.213	20572.36
626.407	21022.91
626.602	20781.25
626.796	20721.86
626.991	20658.37
627.185	20314.31
627.38	20416.71
627.574	20152.52
627.768	20050.13
627.963	19976.4
628.157	19792.08
628.352	19898.58
628.546	19706.07
628.74	19988.69
628.935	20054.22
629.129	19536.09
629.323	19296.47
629.517	19388.63
629.712	19208.41
629.906	19204.31
630.1	18696.42
630.294	18755.81
630.489	18741.47
630.683	18860.26
630.877	18538.73
631.071	18514.15
631.265	18632.93
631.459	18389.22
631.653	18266.35
631.848	18249.96
632.042	17998.06
632.236	18184.43
632.43	17793.26
632.624	18079.98
632.818	17752.31
633.012	17629.43
633.206	17570.04
633.4	17772.78
633.594	17400.05
633.788	17238.26
633.982	17592.56
634.176	17234.17
634.369	17178.87
634.563	17064.19
634.757	16716.03
634.951	16920.83
635.145	16914.69
635.339	17070.33
635.533	16670.98
635.726	16468.23
635.92	16122.12
636.114	16558.34
636.308	16294.15
636.501	16339.21
636.695	16072.97
636.889	15888.65
637.083	15872.27
637.276	15735.06
637.47	15884.56
637.664	15577.36
637.857	15481.11
638.051	15751.44
638.244	15538.45
638.438	15229.21
638.632	15204.63
638.825	14977.31
639.019	15012.12
639.212	14776.61
639.406	14971.16
639.599	14727.46
639.793	14643.49
639.986	14401.83
640.18	14379.3
640.373	14412.07
640.567	14266.66
640.76	14264.61
640.954	14082.35
641.147	13969.71
641.34	13689.14
641.534	13947.18
641.727	13728.05
641.92	13736.24
642.114	13396.28
642.307	13533.49
642.5	13424.95
642.694	13445.43
642.887	13093.18
643.08	13453.62
643.273	13033.79
643.467	13166.9
643.66	12818.75
643.853	13130.04
644.046	12697.92
644.239	12773.69
644.432	12644.67
644.626	12521.79
644.819	12433.73
645.012	12503.36
645.205	12339.52
645.398	12310.85
645.591	12296.52
645.784	12245.32
645.977	12151.11
646.17	11729.23
646.363	11964.75
646.556	11684.17
646.749	11626.83
646.942	11723.09
647.135	11686.22
647.328	11637.07
647.521	11555.15
647.714	11428.18
647.907	11393.36
648.099	11114.84
648.292	11352.4
648.485	11102.55
648.678	10987.86
648.871	10748.25
649.064	10895.71
649.256	10924.38
649.449	10576.22
649.642	10785.12
649.835	10862.94
650.027	10443.1
650.22	10414.43
650.413	10406.24
650.605	10520.93
650.798	10328.42
650.991	10305.89
651.183	10373.47
651.376	10027.37
651.568	10150.25
651.761	10119.53
651.954	10099.05
652.146	10099.05
652.339	9992.55
652.531	9873.77
652.724	9904.49
652.916	9748.84
653.109	9761.13
653.301	9642.35
653.494	9812.33
653.686	9458.03
653.879	9779.56
654.071	9517.42
654.263	9199.99
654.456	9298.29
654.648	9539.95
654.84	9257.33
655.033	9222.52
655.225	9296.24
655.417	9044.34
655.61	9161.08
655.802	9066.87
655.994	8780.15
656.186	9140.6
656.379	8851.83
656.571	8692.09
656.763	8749.43
656.955	8739.19
657.148	8685.95
657.34	8710.52
657.532	8415.62
657.724	8485.25
657.916	8378.75
658.108	8538.49
658.3	8460.67
658.492	8540.54
658.684	8262.02
658.876	8257.92
659.068	8350.08
659.26	8059.27
659.452	8356.22
659.644	8143.24
659.836	7973.25
660.028	8149.38
660.22	7784.84
660.412	7840.14
660.604	7903.62
660.796	7887.24
660.988	7911.82
661.18	7721.35
661.372	7684.49
661.563	7684.49
661.755	7559.56
661.947	7578
662.139	7563.66
662.331	7487.89
662.522	7365.01
662.714	7301.52
662.906	7473.55
663.097	7246.23
663.289	7260.56
663.481	6928.79
663.673	7152.02
663.864	7031.19
664.056	7160.21
664.247	7027.09
664.439	6941.08
664.631	6973.85
664.822	6914.45
665.014	6912.41
665.205	6783.38
665.397	6789.53
665.588	6695.32
665.78	6570.4
665.971	6717.85
666.163	6781.34
666.354	6654.36
666.546	6521.24
666.737	6463.9
666.929	6330.78
667.12	6420.89
667.311	6513.05
667.503	6371.74
667.694	6273.44
667.885	6363.55
668.077	6351.26
668.268	6330.78
668.459	6207.91
668.651	6232.48
668.842	6224.29
669.033	6183.33
669.224	6060.45
669.416	6250.91
669.607	6150.56
669.798	5956.01
669.989	6222.24
670.18	6056.36
670.371	5976.48
670.563	5859.75
670.754	5962.15
670.945	5855.65
671.136	5779.88
671.327	5843.37
671.518	6015.4
671.709	5822.89
671.9	5949.86
672.091	5972.39
672.282	5734.82
672.473	5702.06
672.664	5814.7
672.855	5644.71
673.046	5753.26
673.237	5775.78
673.428	5599.66
673.619	5822.89
673.809	5667.24
674	5626.28
674.191	5587.37
674.382	5560.75
674.573	5652.91
674.764	5642.67
674.954	5564.84
675.145	5575.08
675.336	5370.29
675.527	5579.18
675.717	5564.84
675.908	5423.53
676.099	5347.76
676.289	5587.37
676.48	5355.95
676.671	5335.47
676.861	5335.47
677.052	5278.13
677.243	5282.22
677.433	5265.84
677.624	5280.18
677.814	5464.49
678.005	5337.52
678.195	5241.26
678.386	5349.81
678.576	5251.5
678.767	5360.05
678.957	5196.21
679.148	5253.55
679.338	5466.54
679.529	5454.25
679.719	5249.46
679.909	5353.9
680.1	5159.35
680.29	5224.88
680.481	5175.73
680.671	5251.5
680.861	5118.39
681.052	5243.31
681.242	5364.14
681.432	5202.35
681.622	5169.59
681.813	5134.77
682.003	5175.73
682.193	5118.39
682.383	5314.99
682.573	5128.63
682.764	5142.96
682.954	5134.77
683.144	5226.93
683.334	5138.87
683.524	5149.11
683.714	5095.86
683.904	5155.25
684.094	5212.59
684.284	4940.21
684.474	5259.7
684.664	5124.53
684.854	5292.46
685.044	5140.91
685.234	5145.01
685.424	5142.96
685.614	5020.08
685.804	5243.31
685.994	4991.41
686.184	5104.05
686.374	5071.28
686.564	5018.04
686.753	5120.43
686.943	4993.46
687.133	5026.23
687.323	4934.07
687.513	4936.12
687.702	4825.53
687.892	4970.93
688.082	5126.58
688.272	4948.4
688.461	4954.55
688.651	4841.91
688.841	4948.4
689.03	4868.53
689.22	4837.81
689.41	4948.4
689.599	4907.45
689.789	4839.86
689.979	4757.94
690.168	4798.9
690.358	4766.14
690.547	4686.26
690.737	4954.55
690.926	4905.4
691.116	4772.28
691.305	4805.05
691.495	4669.88
691.684	4741.56
691.874	4684.22
692.063	4757.94
692.252	4780.47
692.442	4833.72
692.631	4495.8
692.82	4753.85
693.01	4622.78
693.199	4659.64
693.388	4540.86
693.578	4614.59
693.767	4645.31
693.956	4692.41
694.146	4702.65
694.335	4471.23
694.524	4446.65
694.713	4526.52
694.902	4596.15
695.092	4571.58
695.281	4567.48
695.47	4547
695.659	4426.17
695.848	4573.63
696.037	4522.43
696.226	4481.47
696.415	4458.94
696.604	4426.17
696.793	4450.75
696.982	4467.13
697.171	4401.6
697.36	4282.81
697.549	4350.4
697.738	4356.54
697.927	4395.45
698.116	4256.19
698.305	4368.83
698.494	4381.12
698.683	4432.32
698.872	4463.04
699.061	4348.35
699.25	4258.24
699.438	4270.53
699.627	4325.82
699.816	4389.31
700.005	4303.29
700.193	4401.6
700.382	4317.63
700.571	4204.99
700.76	4067.78
700.948	4301.25
701.137	4176.32
701.326	4237.76
701.514	4254.14
701.703	4196.8
701.892	4053.44
702.08	4293.05
702.269	4241.86
702.457	4112.83
702.646	4100.55
702.834	4059.59
703.023	4125.12
703.212	4096.45
703.4	4069.83
703.589	4037.06
703.777	4139.46
703.965	3975.62
704.154	4188.61
704.342	4192.7
704.531	4018.63
704.719	4063.68
704.907	4200.9
705.096	3969.48
705.284	3932.61
705.472	3834.31
705.661	3881.41
705.849	3865.03
706.037	4037.06
706.226	4090.31
706.414	3860.93
706.602	3776.97
706.79	3826.12
706.979	3725.77
707.167	3930.56
707.355	3733.96
707.543	3766.73
707.731	3842.5
707.919	3703.24
708.107	3729.86
708.296	3690.95
708.484	3762.63
708.672	3729.86
708.86	3717.58
709.048	3676.62
709.236	3693
709.424	3566.03
709.612	3602.89
709.8	3563.98
709.988	3672.52
710.176	3723.72
710.364	3623.37
710.551	3520.97
710.739	3555.79
710.927	3570.12
711.115	3635.66
711.303	3455.44
711.491	3471.82
711.679	3529.16
711.866	3539.4
712.054	3625.42
712.242	3580.36
712.43	3498.44
712.617	3398.09
712.805	3529.16
712.993	3422.67
713.181	3355.08
713.368	3588.55
713.556	3416.52
713.744	3422.67
713.931	3449.29
714.119	3412.43
714.306	3430.86
714.494	3301.84
714.682	3330.51
714.869	3269.07
715.057	3332.56
715.244	3332.56
715.432	3389.9
715.619	3316.17
715.807	3185.1
715.994	3310.03
716.182	3238.35
716.369	3262.93
716.556	3240.4
716.744	3004.88
716.931	3260.88
717.119	3234.25
717.306	3307.98
717.493	3275.21
717.681	3285.45
717.868	3131.86
718.055	3244.49
718.242	3127.76
718.43	3185.1
718.617	3144.14
718.804	3164.62
718.991	3074.51
719.179	3082.7
719.366	3131.86
719.553	3078.61
719.74	3021.27
719.927	3107.28
720.114	3062.23
720.301	3029.46
720.488	3105.23
720.676	3072.47
720.863	2976.21
721.05	3047.89
721.237	3037.65
721.424	3062.23
721.611	3021.27
721.798	2992.59
721.985	2853.33
722.172	2959.83
722.358	2935.25
722.545	2996.69
722.732	2945.49
722.919	3031.51
723.106	2935.25
723.293	2826.71
723.48	2902.48
723.667	2791.89
723.853	2863.57
724.04	2968.02
724.227	2851.28
724.414	2767.32
724.6	2808.28
724.787	2914.77
724.974	2853.33
725.161	2890.2
725.347	2787.8
725.534	2922.96
725.72	2742.74
725.907	2787.8
726.094	2742.74
726.28	2714.07
726.467	2636.25
726.653	2759.13
726.84	2730.45
727.027	2793.94
727.213	2671.06
727.4	2767.32
727.586	2742.74
727.773	2724.31
727.959	2609.62
728.145	2662.87
728.332	2720.21
728.518	2597.34
728.705	2783.7
728.891	2570.71
729.077	2587.1
729.264	2632.15
729.45	2570.71
729.636	2705.88
729.823	2712.02
730.009	2619.86
730.195	2607.58
730.382	2595.29
730.568	2597.34
730.754	2677.21
730.94	2480.6
731.126	2431.45
731.313	2515.42
731.499	2531.8
731.685	2537.95
731.871	2535.9
732.057	2687.45
732.243	2513.37
732.429	2417.12
732.615	2462.17
732.801	2562.52
732.987	2447.83
733.173	2415.07
733.359	2415.07
733.545	2449.88
733.731	2423.26
733.917	2529.75
734.103	2413.02
734.289	2464.22
734.475	2384.35
734.661	2566.62
734.847	2367.96
735.033	2365.92
735.219	2423.26
735.404	2236.89
735.59	2445.79
735.776	2413.02
735.962	2341.34
736.148	2300.38
736.333	2447.83
736.519	2370.01
736.705	2296.28
736.89	2275.81
737.076	2294.24
737.262	2234.85
737.447	2333.15
737.633	2251.23
737.819	2333.15
738.004	2261.47
738.19	2255.33
738.375	2228.7
738.561	2365.92
738.747	2175.45
738.932	2300.38
739.118	2224.61
739.303	2161.12
739.489	2218.46
739.674	2236.89
739.859	2193.89
740.045	2116.06
740.23	2107.87
740.416	2142.69
740.601	2152.93
740.786	2132.45
740.972	2046.43
741.157	2177.5
741.342	2054.62
741.528	2165.21
741.713	2234.85
741.898	2107.87
742.084	2071.01
742.269	2005.47
742.454	2062.82
742.639	2134.5
742.824	2054.62
743.01	2111.97
743.195	2128.35
743.38	1999.33
743.565	2013.67
743.75	2105.82
743.935	2009.57
744.12	1964.51
744.305	1927.65
744.49	1972.71
744.675	1972.71
744.86	1927.65
745.045	1935.84
745.23	1989.09
745.415	1956.32
745.6	1923.55
745.785	1923.55
745.97	1855.97
746.155	1858.02
746.34	1853.92
746.525	1878.5
746.71	1722.85
746.895	1819.11
747.079	1712.61
747.264	1845.73
747.449	1720.81
747.634	1913.31
747.819	1759.72
748.003	1729
748.188	1706.47
748.373	1796.58
748.557	1739.24
748.742	1731.05
748.927	1626.6
749.111	1593.83
749.296	1718.76
749.481	1710.57
749.665	1657.32
749.85	1620.46
750.034	1634.79
750.219	1622.5
750.404	1614.31
750.588	1647.08
750.773	1544.68
750.957	1661.41
751.141	1548.78
751.326	1579.5
751.51	1567.21
751.695	1460.71
751.879	1571.3
752.064	1509.86
752.248	1448.43
752.432	1495.53
752.617	1481.19
752.801	1477.1
752.985	1425.9
753.17	1421.8
753.354	1460.71
753.538	1511.91
753.722	1475.05
753.907	1384.94
754.091	1386.99
754.275	1391.08
754.459	1257.96
754.643	1321.45
754.828	1331.69
755.012	1374.7
755.196	1286.64
755.38	1372.65
755.564	1284.59
755.748	1380.84
755.932	1321.45
756.116	1231.34
756.3	1243.63
756.484	1219.05
756.668	1354.22
756.852	1235.44
757.036	1278.44
757.22	1196.53
757.404	1198.57
757.588	1208.81
757.772	1212.91
757.956	1065.46
758.14	1286.64
758.323	1171.95
758.507	1214.96
758.691	1122.8
758.875	1128.94
759.059	1178.09
759.242	1075.7
759.426	1120.75
759.61	1153.52
759.794	1192.43
759.977	1081.84
760.161	1278.44
760.345	1182.19
760.528	1157.61
760.712	1137.13
760.895	1030.64
761.079	1024.5
761.263	1063.41
761.446	1079.79
761.63	1008.11
761.813	1100.27
761.997	952.82
762.18	1047.02
762.364	1044.98
762.547	1018.35
762.731	1024.5
762.914	1087.98
763.098	999.92
763.281	1004.02
763.464	1042.93
763.648	995.82
763.831	979.44
764.015	965.11
764.198	995.82
764.381	997.87
764.564	1008.11
764.748	956.91
764.931	1034.74
765.114	956.91
765.297	991.73
765.481	913.91
765.664	985.58
765.847	948.72
766.03	969.2
766.213	901.62
766.397	1004.02
766.58	983.54
766.763	915.95
766.946	915.95
767.129	872.95
767.312	940.53
767.495	977.39
767.678	889.33
767.861	891.38
768.044	901.62
768.227	883.19
768.41	934.39
768.593	866.8
768.776	891.38
768.959	924.15
769.142	846.32
769.324	803.32
769.507	883.19
769.69	801.27
769.873	874.99
770.056	850.42
770.239	758.26
770.421	897.52
770.604	907.76
770.787	877.04
770.97	862.71
771.152	778.74
771.335	788.98
771.518	793.08
771.7	879.09
771.883	874.99
772.066	827.89
772.248	842.23
772.431	784.88
772.613	805.36
772.796	764.4
772.978	801.27
773.161	786.93
773.343	768.5
773.526	739.83
773.708	686.58
773.891	723.44
774.073	760.31
774.256	664.05
774.438	735.73
774.621	713.21
774.803	782.84
774.985	715.25
775.168	707.06
775.35	770.55
775.532	743.92
775.715	707.06
775.897	713.21
776.079	625.14
776.261	793.08
776.444	684.53
776.626	735.73
776.808	666.1
776.99	633.33
777.173	741.88
777.355	711.16
777.537	655.86
777.719	694.77
777.901	619
778.083	655.86
778.265	676.34
778.447	662.01
778.629	604.66
778.811	637.43
778.993	621.05
779.175	625.14
779.357	621.05
779.539	623.09
779.721	555.51
779.903	543.22
780.085	578.04
780.267	588.28
780.449	492.02
780.631	541.18
780.812	596.47
780.994	573.94
781.176	471.54
781.358	604.66
781.54	571.9
781.721	500.22
781.903	526.84
782.085	563.7
782.267	494.07
782.448	514.55
782.63	557.56
782.812	600.57
782.993	645.62
783.175	549.37
783.357	455.16
783.538	606.71
783.72	461.3
783.901	510.46
784.083	555.51
784.264	485.88
784.446	416.25
784.627	397.82
784.809	524.79
784.99	530.94
785.172	465.4
785.353	537.08
785.535	395.77
785.716	408.06
785.897	492.02
786.079	385.53
786.26	498.17
786.441	500.22
786.623	403.96
786.804	416.25
786.985	498.17
787.167	436.73
787.348	408.06
787.529	451.07
787.71	440.83
787.891	506.36
788.073	381.43
788.254	408.06
788.435	391.67
788.616	459.26
788.797	342.52
788.978	481.78
789.159	344.57
789.34	399.87
789.522	408.06
789.703	309.76
789.884	389.63
790.065	408.06
790.246	412.15
790.427	387.58
790.607	401.91
790.788	322.04
790.969	338.43
791.15	412.15
791.331	248.32
791.512	373.24
791.693	358.91
791.874	336.38
792.054	408.06
792.235	412.15
792.416	313.85
792.597	268.8
792.778	342.52
792.958	350.71
793.139	287.23
793.32	322.04
793.5	260.6
793.681	330.23
793.862	326.14
794.042	334.33
794.223	293.37
794.404	338.43
794.584	178.69
794.765	334.33
794.945	295.42
795.126	367.1
795.306	371.19
795.487	350.71
795.667	211.45
795.848	350.71
796.028	276.99
796.209	297.47
796.389	342.52
796.57	195.07
796.75	205.31
796.93	299.52
797.111	301.56
797.291	322.04
797.471	264.7
797.652	264.7
797.832	223.74
798.012	301.56
798.192	205.31
798.373	252.41
798.553	250.36
798.733	276.99
798.913	260.6
799.093	279.04
799.274	281.08
799.454	295.42
799.634	334.33
799.814	268.8
799.994	268.8
800.174	254.46
800.354	270.84
800.534	219.64
800.714	285.18
800.894	248.32
801.074	244.22
801.254	207.36
801.434	340.47
801.614	283.13
801.794	158.21
801.974	811.51
802.154	262.65
802.334	215.55
802.514	190.97
802.693	283.13
802.873	199.16
803.053	268.8
803.233	262.65
803.413	113.15
803.592	207.36
803.772	283.13
803.952	178.69
804.131	170.49
804.311	320
804.491	217.6
804.67	236.03
804.85	154.11
805.03	223.74
805.209	301.56
805.389	156.16
805.568	182.78
805.748	219.64
805.928	229.88
806.107	211.45
806.287	233.98
806.466	168.45
806.646	301.56
806.825	225.79
807.004	160.25
807.184	178.69
807.363	176.64
807.543	233.98
807.722	125.44
807.901	305.66
808.081	145.92
808.26	170.49
808.439	303.61
808.619	197.12
808.798	117.25
808.977	197.12
809.156	147.97
809.336	178.69
809.515	252.41
809.694	127.49
809.873	172.54
810.052	211.45
810.231	207.36
810.411	184.83
810.59	190.97
810.769	162.3
810.948	152.06
811.127	197.12
811.306	137.73
811.485	137.73
811.664	162.3
811.843	176.64
812.022	119.29
812.201	137.73
812.38	162.3
812.559	182.78
812.737	104.96
812.916	96.77
813.095	133.63
813.274	180.73
813.453	197.12
813.632	178.69
813.811	205.31
813.989	96.77
814.168	98.81
814.347	104.96
814.526	203.26
814.704	231.93
814.883	104.96
815.062	166.4
815.24	215.55
815.419	182.78
815.598	186.88
815.776	125.44
815.955	115.2
816.133	66.05
816.312	172.54
816.49	129.53
816.669	162.3
816.847	186.88
817.026	170.49
817.204	109.05
817.383	195.07
817.561	139.77
817.74	190.97
817.918	131.58
818.097	141.82
818.275	82.43
818.453	90.62
818.632	170.49
818.81	107.01
818.988	145.92
819.167	178.69
819.345	129.53
819.523	84.48
819.701	98.81
819.879	162.3
820.058	25.09
820.236	154.11
820.414	96.77
820.592	154.11
820.77	104.96
820.948	115.2
821.127	86.53
821.305	150.01
821.483	80.38
821.661	154.11
821.839	205.31
822.017	61.95
822.195	88.57
822.373	172.54
822.551	57.86
822.729	121.34
822.907	86.53
823.085	117.25
823.262	70.14
823.44	55.81
823.618	-5.63
823.796	109.05
823.974	35.33
824.152	131.58
824.329	143.87
824.507	55.81
824.685	137.73
824.863	39.42
825.04	51.71
825.218	41.47
825.396	74.24
825.574	104.96
825.751	137.73
825.929	94.72
826.107	109.05
826.284	104.96
826.462	150.01
826.639	68.09
826.817	55.81
826.994	182.78
827.172	139.77
827.349	143.87
827.527	113.15
827.704	49.66
827.882	129.53
828.059	154.11
828.237	131.58
828.414	147.97
828.591	66.05
828.769	133.63
828.946	94.72
829.124	193.02
829.301	156.16
829.478	59.9
829.655	129.53
829.833	100.86
830.01	66.05
830.187	123.39
830.364	129.53
830.542	55.81
830.719	188.93
830.896	137.73
831.073	100.86
831.25	55.81
831.427	190.97
831.604	162.3
831.782	31.23
831.959	72.19
832.136	84.48
832.313	137.73
832.49	72.19
832.667	90.62
832.844	115.2
833.021	131.58
833.198	121.34
833.374	39.42
833.551	125.44
833.728	80.38
833.905	109.05
834.082	8.7
834.259	76.29
834.436	96.77
834.612	162.3
834.789	57.86
834.966	8.7
835.143	109.05
835.319	35.33
835.496	131.58
835.673	2.56
835.85	143.87
836.026	117.25
836.203	129.53
836.38	74.24
836.556	109.05
836.733	55.81
836.909	121.34
837.086	39.42
837.262	39.42
837.439	88.57
837.616	43.52
837.792	43.52
837.968	18.94
838.145	72.19
838.321	14.85
838.498	-17.92
838.674	121.34
838.851	45.57
839.027	98.81
839.203	66.05
839.38	98.81
839.556	33.28
839.732	88.57
839.909	90.62
840.085	104.96
840.261	102.91
840.437	35.33
840.614	-7.68
840.79	104.96
840.966	94.72
841.142	59.9
841.318	23.04
841.494	-17.92
841.671	107.01
841.847	59.9
842.023	55.81
842.199	107.01
842.375	47.62
842.551	88.57
842.727	23.04
842.903	143.87
843.079	-52.74
843.255	88.57
843.431	23.04
843.607	25.09
843.783	-65.02
843.959	88.57
844.134	10.75
844.31	27.14
844.486	47.62
844.662	-22.02
844.838	6.66
845.013	76.29
845.189	96.77
845.365	33.28
845.541	49.66
845.716	59.9
845.892	88.57
846.068	74.24
846.244	-1.54
846.419	115.2
846.595	41.47
846.77	25.09
846.946	104.96
847.122	47.62
847.297	51.71
847.473	197.12
847.648	64
847.824	107.01
847.999	-22.02
848.175	-26.11
848.35	117.25
848.526	59.9
848.701	78.33
848.876	139.77
849.052	64
849.227	64
849.403	14.85
849.578	57.86
849.753	25.09
849.929	12.8
850.104	33.28
850.279	6.66
850.454	55.81
850.63	51.71
850.805	6.66
850.98	98.81
851.155	117.25
851.33	6.66
851.505	14.85
851.681	45.57
851.856	41.47
852.031	92.67
852.206	-7.68
852.381	31.23
852.556	12.8
852.731	51.71
852.906	6.66
853.081	-1.54
853.256	41.47
853.431	64
853.606	-138.75
853.781	-5.63
853.956	-26.11
854.131	49.66
854.305	33.28
854.48	82.43
854.655	39.42
854.83	39.42
855.005	39.42
855.18	115.2
855.354	33.28
855.529	35.33
855.704	-7.68
855.879	64
856.053	-13.82
856.228	59.9
856.403	47.62
856.577	31.23
856.752	25.09
856.926	68.09
857.101	-22.02
857.276	76.29
857.45	33.28
857.625	64
857.799	6.66
857.974	55.81
858.148	6.66
858.323	84.48
858.497	80.38
858.672	-1.54
858.846	-9.73
859.02	80.38
859.195	6.66
859.369	-15.87
859.543	80.38
859.718	53.76
859.892	80.38
860.066	55.81
860.241	6.66
860.415	8.7
860.589	23.04
860.763	49.66
860.938	47.62
861.112	39.42
861.286	33.28
861.46	-7.68
861.634	-56.83
861.808	90.62
861.982	41.47
862.157	18.94
862.331	31.23
862.505	-40.45
862.679	-48.64
862.853	2.56
863.027	74.24
863.201	80.38
863.375	-7.68
863.549	6.66
863.722	88.57
863.896	137.73
864.07	18.94
864.244	61.95
864.418	35.33
864.592	25.09
864.766	82.43
864.939	49.66
865.113	35.33
865.287	70.14
865.461	-32.26
865.634	23.04
865.808	16.9
865.982	51.71
866.156	43.52
866.329	41.47
866.503	-26.11
866.676	96.77
866.85	35.33
867.024	20.99
867.197	64
867.371	10.75
867.544	6.66
867.718	-65.02
867.891	31.23
868.065	76.29
868.238	51.71
868.412	31.23
868.585	-7.68
868.759	72.19
868.932	37.38
869.105	39.42
869.279	57.86
869.452	-24.06
869.625	6.66
869.799	-5.63
869.972	-75.26
870.145	49.66
870.319	131.58
870.492	16.9
870.665	-26.11
870.838	-38.4
871.011	-85.5
871.185	47.62
871.358	66.05
871.531	43.52
871.704	6.66
871.877	51.71
872.05	47.62
872.223	-9.73
872.396	82.43
872.569	78.33
872.742	-65.02
872.915	57.86
873.088	-44.54
873.261	-19.97
873.434	4.61
873.607	23.04
873.78	37.38
873.953	14.85
874.126	20.99
874.299	49.66
874.471	33.28
874.644	76.29
874.817	80.38
874.99	41.47
875.163	-67.07
875.335	49.66
875.508	31.23
875.681	23.04
875.853	-17.92
876.026	14.85
876.199	23.04
876.371	0.51
876.544	0.51
876.717	16.9
876.889	-9.73
877.062	-34.3
877.234	39.42
877.407	-81.41
877.579	-22.02
877.752	8.7
877.924	-19.97
878.097	82.43
878.269	2.56
878.442	6.66
878.614	10.75
878.786	10.75
878.959	2.56
879.131	35.33
879.303	-56.83
879.476	16.9
879.648	80.38
879.82	47.62
879.993	-81.41
880.165	47.62
880.337	-34.3
880.509	-1.54
880.681	-9.73
880.854	8.7
881.026	-40.45
881.198	80.38
881.37	20.99
881.542	23.04
881.714	33.28
881.886	-15.87
882.058	-34.3
882.23	16.9
882.402	72.19
882.574	-22.02
882.746	37.38
882.918	82.43
883.09	66.05
883.262	-26.11
883.434	45.57
883.606	-38.4
883.778	14.85
883.95	107.01
884.122	0.51
884.293	98.81
884.465	-58.88
884.637	70.14
884.809	39.42
884.98	25.09
885.152	39.42
885.324	23.04
885.496	-9.73
885.667	2.56
885.839	16.9
886.011	59.9
886.182	-75.26
886.354	59.9
886.525	39.42
886.697	25.09
886.869	-62.98
887.04	-28.16
887.212	47.62
887.383	64
887.555	121.34
887.726	-17.92
887.897	6.66
888.069	33.28
888.24	47.62
888.412	33.28
888.583	-26.11
888.754	-1.54
888.926	-32.26
889.097	-15.87
889.268	-22.02
889.44	-15.87
889.611	-83.45
889.782	2.56
889.953	-54.78
890.125	84.48
890.296	6.66
890.467	-52.74
890.638	-28.16
890.809	31.23
890.98	12.8
891.151	23.04
891.323	-50.69
891.494	23.04
891.665	-26.11
891.836	88.57
892.007	88.57
892.178	51.71
892.349	47.62
892.52	-17.92
892.691	16.9
892.862	64
893.032	-58.88
893.203	8.7
893.374	49.66
893.545	64
893.716	-38.4
893.887	39.42
894.057	10.75
894.228	129.53
894.399	-58.88
894.57	0.51
894.74	18.94
894.911	31.23
895.082	-91.65
895.253	72.19
895.423	14.85
895.594	64
895.764	51.71
895.935	41.47
896.106	8.7
896.276	49.66
896.447	-3.58
896.617	6.66
896.788	-48.64
896.958	25.09
897.129	10.75
897.299	59.9
897.47	35.33
897.64	14.85
897.81	-22.02
897.981	96.77
898.151	35.33
898.322	-26.11
898.492	0.51
898.662	-67.07
898.832	2.56
899.003	-56.83
899.173	51.71
899.343	-34.3
899.513	-28.16
