Data from USB4F104151__237__14-34-06-112.txt Node

Date: Thu Mar 13 14:34:06 EDT 2025
User: louis
Spectrometer: USB4F10415
Trigger mode: 4
Integration Time (sec): 2.500000E-2
Scans to average: 1
Electric dark correction enabled: true
Nonlinearity correction enabled: false
Boxcar width: 0
XAxis mode: Wavelengths
Number of Pixels in Spectrum: 3648
>>>>>Begin Spectral Data<<<<<
178.204	-124.41
178.424	-124.41
178.644	-124.41
178.864	-239.1
179.084	-161.28
179.304	-34.3
179.524	-9.73
179.744	4.61
179.964	23.04
180.184	-3.58
180.404	6.66
180.624	33.28
180.844	35.33
181.064	-15.87
181.283	18.94
181.503	-26.11
181.723	-32.26
181.943	-26.11
182.163	133.63
182.383	27.14
182.602	82.43
182.822	104.96
183.042	88.57
183.262	-24.06
183.482	23.04
183.701	39.42
183.921	47.62
184.141	16.9
184.361	49.66
184.58	43.52
184.8	31.23
185.02	-19.97
185.239	72.19
185.459	43.52
185.679	14.85
185.898	-62.98
186.118	94.72
186.338	86.53
186.557	47.62
186.777	31.23
186.997	-73.21
187.216	-1.54
187.436	104.96
187.655	64
187.875	59.9
188.095	31.23
188.314	39.42
188.534	150.01
188.753	43.52
188.973	57.86
189.192	82.43
189.412	-1.54
189.631	23.04
189.851	88.57
190.07	129.53
190.29	66.05
190.509	51.71
190.729	-52.74
190.948	-1.54
191.168	145.92
191.387	49.66
191.607	51.71
191.826	12.8
192.045	14.85
192.265	-22.02
192.484	12.8
192.704	64
192.923	-26.11
193.142	72.19
193.362	98.81
193.581	84.48
193.8	14.85
194.02	39.42
194.239	10.75
194.458	-19.97
194.678	2.56
194.897	49.66
195.116	53.76
195.335	49.66
195.555	55.81
195.774	47.62
195.993	-13.82
196.212	-46.59
196.432	-46.59
196.651	-5.63
196.87	8.7
197.089	133.63
197.308	27.14
197.528	61.95
197.747	14.85
197.966	-71.17
198.185	14.85
198.404	-26.11
198.623	64
198.842	31.23
199.062	-7.68
199.281	88.57
199.5	53.76
199.719	-46.59
199.938	61.95
200.157	43.52
200.376	-1.54
200.595	92.67
200.814	14.85
201.033	25.09
201.252	23.04
201.471	4.61
201.69	43.52
201.909	14.85
202.128	31.23
202.347	72.19
202.566	170.49
202.785	-26.11
203.004	-40.45
203.223	88.57
203.442	29.18
203.661	55.81
203.879	49.66
204.098	84.48
204.317	-1.54
204.536	113.15
204.755	88.57
204.974	72.19
205.193	14.85
205.411	57.86
205.63	47.62
205.849	72.19
206.068	8.7
206.287	-34.3
206.505	80.38
206.724	55.81
206.943	2.56
207.162	64
207.381	23.04
207.599	23.04
207.818	25.09
208.037	39.42
208.255	16.9
208.474	23.04
208.693	59.9
208.911	-1.54
209.13	-5.63
209.349	-17.92
209.567	49.66
209.786	72.19
210.005	59.9
210.223	82.43
210.442	23.04
210.661	96.77
210.879	43.52
211.098	27.14
211.316	72.19
211.535	55.81
211.753	31.23
211.972	45.57
212.191	92.67
212.409	55.81
212.628	55.81
212.846	72.19
213.065	49.66
213.283	72.19
213.502	72.19
213.72	8.7
213.938	-1.54
214.157	64
214.375	23.04
214.594	64
214.812	64
215.031	33.28
215.249	29.18
215.467	39.42
215.686	-28.16
215.904	55.81
216.122	68.09
216.341	25.09
216.559	31.23
216.778	47.62
216.996	51.71
217.214	39.42
217.432	37.38
217.651	12.8
217.869	88.57
218.087	16.9
218.306	23.04
218.524	23.04
218.742	23.04
218.96	66.05
219.179	-26.11
219.397	-7.68
219.615	31.23
219.833	104.96
220.051	53.76
220.27	109.05
220.488	68.09
220.706	82.43
220.924	23.04
221.142	23.04
221.36	49.66
221.578	53.76
221.796	25.09
222.015	109.05
222.233	33.28
222.451	14.85
222.669	23.04
222.887	113.15
223.105	-1.54
223.323	12.8
223.541	31.23
223.759	96.77
223.977	88.57
224.195	84.48
224.413	31.23
224.631	23.04
224.849	25.09
225.067	84.48
225.285	39.42
225.503	14.85
225.721	-40.45
225.939	39.42
226.157	74.24
226.375	156.16
226.592	2.56
226.81	59.9
227.028	111.1
227.246	55.81
227.464	74.24
227.682	2.56
227.9	10.75
228.117	107.01
228.335	41.47
228.553	-5.63
228.771	66.05
228.989	-32.26
229.206	64
229.424	43.52
229.642	-15.87
229.86	-7.68
230.077	88.57
230.295	23.04
230.513	88.57
230.731	6.66
230.948	76.29
231.166	6.66
231.384	64
231.601	-17.92
231.819	43.52
232.037	16.9
232.254	-38.4
232.472	23.04
232.689	16.9
232.907	104.96
233.125	20.99
233.342	49.66
233.56	29.18
233.777	33.28
233.995	70.14
234.213	139.77
234.43	90.62
234.648	2.56
234.865	55.81
235.083	107.01
235.3	8.7
235.518	-13.82
235.735	12.8
235.953	18.94
236.17	29.18
236.388	10.75
236.605	-13.82
236.822	92.67
237.04	80.38
237.257	39.42
237.475	-62.98
237.692	88.57
237.909	107.01
238.127	6.66
238.344	66.05
238.562	64
238.779	10.75
238.996	90.62
239.214	23.04
239.431	123.39
239.648	-17.92
239.865	-9.73
240.083	49.66
240.3	-1.54
240.517	27.14
240.735	72.19
240.952	86.53
241.169	41.47
241.386	-15.87
241.603	6.66
241.821	12.8
242.038	168.45
242.255	111.1
242.472	-5.63
242.689	49.66
242.907	129.53
243.124	31.23
243.341	66.05
243.558	-17.92
243.775	-30.21
243.992	6.66
244.209	18.94
244.426	59.9
244.643	66.05
244.86	117.25
245.078	23.04
245.295	72.19
245.512	-9.73
245.729	14.85
245.946	61.95
246.163	72.19
246.38	-5.63
246.597	45.57
246.814	23.04
247.031	88.57
247.248	31.23
247.464	10.75
247.681	-26.11
247.898	96.77
248.115	31.23
248.332	12.8
248.549	80.38
248.766	41.47
248.983	80.38
249.2	35.33
249.417	125.44
249.633	14.85
249.85	100.86
250.067	-38.4
250.284	66.05
250.501	16.9
250.717	74.24
250.934	8.7
251.151	25.09
251.368	-3.58
251.585	6.66
251.801	39.42
252.018	59.9
252.235	78.33
252.451	49.66
252.668	8.7
252.885	72.19
253.102	6.66
253.318	18.94
253.535	-13.82
253.752	76.29
253.968	14.85
254.185	33.28
254.401	23.04
254.618	-34.3
254.835	-58.88
255.051	80.38
255.268	59.9
255.484	41.47
255.701	-54.78
255.917	98.81
256.134	10.75
256.351	74.24
256.567	16.9
256.784	23.04
257	49.66
257.217	45.57
257.433	57.86
257.65	131.58
257.866	117.25
258.082	82.43
258.299	66.05
258.515	88.57
258.732	25.09
258.948	12.8
259.165	39.42
259.381	23.04
259.597	31.23
259.814	12.8
260.03	86.53
260.246	20.99
260.463	41.47
260.679	84.48
260.895	-1.54
261.112	-42.5
261.328	55.81
261.544	-15.87
261.761	64
261.977	23.04
262.193	-26.11
262.409	35.33
262.626	57.86
262.842	64
263.058	55.81
263.274	84.48
263.49	25.09
263.707	64
263.923	27.14
264.139	6.66
264.355	-1.54
264.571	72.19
264.787	68.09
265.004	57.86
265.22	-34.3
265.436	2.56
265.652	-15.87
265.868	-7.68
266.084	6.66
266.3	-9.73
266.516	66.05
266.732	55.81
266.948	88.57
267.164	72.19
267.38	80.38
267.596	47.62
267.812	51.71
268.028	72.19
268.244	74.24
268.46	35.33
268.676	51.71
268.892	53.76
269.108	68.09
269.324	18.94
269.54	-3.58
269.756	43.52
269.972	-17.92
270.188	55.81
270.403	37.38
270.619	78.33
270.835	4.61
271.051	55.81
271.267	16.9
271.483	-5.63
271.698	92.67
271.914	47.62
272.13	121.34
272.346	14.85
272.562	23.04
272.777	39.42
272.993	51.71
273.209	80.38
273.425	80.38
273.64	-30.21
273.856	14.85
274.072	80.38
274.287	-95.74
274.503	47.62
274.719	94.72
274.934	57.86
275.15	-5.63
275.366	31.23
275.581	-15.87
275.797	96.77
276.012	88.57
276.228	-17.92
276.444	66.05
276.659	98.81
276.875	72.19
277.09	-5.63
277.306	82.43
277.521	88.57
277.737	47.62
277.952	68.09
278.168	6.66
278.383	113.15
278.599	96.77
278.814	96.77
279.03	-9.73
279.245	35.33
279.461	55.81
279.676	150.01
279.892	25.09
280.107	-17.92
280.322	47.62
280.538	47.62
280.753	35.33
280.969	205.31
281.184	-7.68
281.399	-5.63
281.615	64
281.83	4.61
282.045	57.86
282.26	39.42
282.476	45.57
282.691	113.15
282.906	59.9
283.122	57.86
283.337	-15.87
283.552	145.92
283.767	-58.88
283.983	57.86
284.198	-7.68
284.413	76.29
284.628	14.85
284.843	68.09
285.058	23.04
285.274	115.2
285.489	25.09
285.704	100.86
285.919	-24.06
286.134	8.7
286.349	66.05
286.564	6.66
286.779	88.57
286.995	6.66
287.21	-58.88
287.425	39.42
287.64	96.77
287.855	47.62
288.07	-26.11
288.285	8.7
288.5	43.52
288.715	31.23
288.93	27.14
289.145	18.94
289.36	-15.87
289.575	88.57
289.79	35.33
290.004	6.66
290.219	37.38
290.434	-7.68
290.649	-54.78
290.864	51.71
291.079	80.38
291.294	61.95
291.509	64
291.724	74.24
291.938	39.42
292.153	8.7
292.368	23.04
292.583	16.9
292.798	18.94
293.012	80.38
293.227	74.24
293.442	104.96
293.657	104.96
293.871	76.29
294.086	72.19
294.301	76.29
294.516	53.76
294.73	-13.82
294.945	6.66
295.16	-1.54
295.374	141.82
295.589	88.57
295.804	-30.21
296.018	72.19
296.233	55.81
296.447	66.05
296.662	-13.82
296.877	16.9
297.091	-1.54
297.306	90.62
297.52	0.51
297.735	-1.54
297.949	39.42
298.164	82.43
298.378	64
298.593	14.85
298.807	92.67
299.022	33.28
299.236	88.57
299.451	25.09
299.665	35.33
299.88	117.25
300.094	-34.3
300.309	100.86
300.523	41.47
300.737	23.04
300.952	104.96
301.166	78.33
301.381	57.86
301.595	31.23
301.809	12.8
302.024	-65.02
302.238	23.04
302.452	72.19
302.667	113.15
302.881	121.34
303.095	104.96
303.309	82.43
303.524	51.71
303.738	27.14
303.952	0.51
304.166	78.33
304.381	-48.64
304.595	76.29
304.809	104.96
305.023	74.24
305.237	8.7
305.452	18.94
305.666	51.71
305.88	39.42
306.094	14.85
306.308	80.38
306.522	76.29
306.736	31.23
306.95	96.77
307.164	107.01
307.379	68.09
307.593	51.71
307.807	68.09
308.021	14.85
308.235	80.38
308.449	-7.68
308.663	31.23
308.877	61.95
309.091	25.09
309.305	64
309.519	-42.5
309.733	96.77
309.947	39.42
310.161	145.92
310.374	107.01
310.588	49.66
310.802	47.62
311.016	-1.54
311.23	47.62
311.444	31.23
311.658	-15.87
311.872	39.42
312.085	6.66
312.299	23.04
312.513	47.62
312.727	84.48
312.941	6.66
313.154	6.66
313.368	-11.78
313.582	47.62
313.796	6.66
314.009	64
314.223	72.19
314.437	59.9
314.651	82.43
314.864	-28.16
315.078	70.14
315.292	74.24
315.505	66.05
315.719	88.57
315.933	-7.68
316.146	66.05
316.36	8.7
316.573	45.57
316.787	92.67
317.001	84.48
317.214	2.56
317.428	2.56
317.641	68.09
317.855	68.09
318.068	78.33
318.282	-34.3
318.495	121.34
318.709	100.86
318.922	49.66
319.136	59.9
319.349	107.01
319.563	109.05
319.776	68.09
319.99	14.85
320.203	31.23
320.417	18.94
320.63	104.96
320.843	6.66
321.057	72.19
321.27	41.47
321.483	55.81
321.697	-7.68
321.91	66.05
322.124	90.62
322.337	74.24
322.55	33.28
322.763	35.33
322.977	39.42
323.19	14.85
323.403	47.62
323.617	2.56
323.83	96.77
324.043	84.48
324.256	115.2
324.469	18.94
324.683	150.01
324.896	96.77
325.109	72.19
325.322	8.7
325.535	80.38
325.748	64
325.962	31.23
326.175	80.38
326.388	6.66
326.601	55.81
326.814	23.04
327.027	96.77
327.24	80.38
327.453	-26.11
327.666	31.23
327.879	53.76
328.092	80.38
328.305	39.42
328.518	98.81
328.731	6.66
328.944	47.62
329.157	107.01
329.37	-13.82
329.583	76.29
329.796	80.38
330.009	35.33
330.222	64
330.435	57.86
330.648	37.38
330.861	92.67
331.073	41.47
331.286	123.39
331.499	68.09
331.712	41.47
331.925	127.49
332.138	51.71
332.35	82.43
332.563	18.94
332.776	107.01
332.989	-5.63
333.202	47.62
333.414	27.14
333.627	0.51
333.84	29.18
334.053	18.94
334.265	64
334.478	96.77
334.691	45.57
334.903	74.24
335.116	6.66
335.329	72.19
335.541	80.38
335.754	111.1
335.966	43.52
336.179	49.66
336.392	78.33
336.604	43.52
336.817	74.24
337.029	-5.63
337.242	47.62
337.454	14.85
337.667	41.47
337.88	43.52
338.092	47.62
338.305	84.48
338.517	14.85
338.729	66.05
338.942	109.05
339.154	4.61
339.367	47.62
339.579	49.66
339.792	49.66
340.004	51.71
340.217	31.23
340.429	51.71
340.641	31.23
340.854	51.71
341.066	43.52
341.278	47.62
341.491	119.29
341.703	55.81
341.915	64
342.128	107.01
342.34	64
342.552	72.19
342.764	64
342.977	41.47
343.189	113.15
343.401	41.47
343.613	2.56
343.826	88.57
344.038	31.23
344.25	27.14
344.462	43.52
344.674	68.09
344.886	35.33
345.099	104.96
345.311	33.28
345.523	76.29
345.735	-7.68
345.947	55.81
346.159	45.57
346.371	80.38
346.583	23.04
346.795	96.77
347.007	2.56
347.219	59.9
347.431	2.56
347.643	-1.54
347.855	80.38
348.067	66.05
348.279	25.09
348.491	47.62
348.703	55.81
348.915	18.94
349.127	90.62
349.339	39.42
349.551	14.85
349.763	92.67
349.975	88.57
350.187	39.42
350.399	125.44
350.61	145.92
350.822	80.38
351.034	41.47
351.246	33.28
351.458	33.28
351.669	64
351.881	96.77
352.093	47.62
352.305	113.15
352.517	104.96
352.728	154.11
352.94	66.05
353.152	47.62
353.363	74.24
353.575	90.62
353.787	121.34
353.999	33.28
354.21	64
354.422	2.56
354.633	94.72
354.845	41.47
355.057	68.09
355.268	33.28
355.48	4.61
355.692	18.94
355.903	92.67
356.115	64
356.326	39.42
356.538	72.19
356.749	80.38
356.961	137.73
357.172	-1.54
357.384	57.86
357.595	147.97
357.807	-34.3
358.018	33.28
358.23	84.48
358.441	154.11
358.653	23.04
358.864	31.23
359.075	33.28
359.287	96.77
359.498	37.38
359.709	20.99
359.921	39.42
360.132	162.3
360.344	61.95
360.555	107.01
360.766	27.14
360.977	66.05
361.189	80.38
361.4	82.43
361.611	72.19
361.823	113.15
362.034	10.75
362.245	-13.82
362.456	100.86
362.667	104.96
362.879	10.75
363.09	35.33
363.301	47.62
363.512	49.66
363.723	41.47
363.935	16.9
364.146	33.28
364.357	141.82
364.568	59.9
364.779	31.23
364.99	109.05
365.201	64
365.412	104.96
365.623	-17.92
365.834	72.19
366.045	55.81
366.256	49.66
366.467	-26.11
366.678	49.66
366.889	41.47
367.1	6.66
367.311	31.23
367.522	57.86
367.733	64
367.944	92.67
368.155	39.42
368.366	39.42
368.577	121.34
368.788	55.81
368.999	86.53
369.209	33.28
369.42	147.97
369.631	145.92
369.842	100.86
370.053	6.66
370.264	2.56
370.474	23.04
370.685	147.97
370.896	72.19
371.107	37.38
371.317	188.93
371.528	72.19
371.739	72.19
371.95	72.19
372.16	127.49
372.371	-54.78
372.582	55.81
372.792	100.86
373.003	41.47
373.214	94.72
373.424	55.81
373.635	8.7
373.846	84.48
374.056	113.15
374.267	72.19
374.477	72.19
374.688	53.76
374.898	117.25
375.109	-7.68
375.319	84.48
375.53	64
375.74	51.71
375.951	39.42
376.161	117.25
376.372	102.91
376.582	88.57
376.793	76.29
377.003	57.86
377.214	115.2
377.424	61.95
377.635	39.42
377.845	-9.73
378.055	143.87
378.266	31.23
378.476	29.18
378.686	-1.54
378.897	55.81
379.107	213.5
379.317	92.67
379.528	55.81
379.738	162.3
379.948	-32.26
380.158	49.66
380.369	80.38
380.579	147.97
380.789	86.53
380.999	47.62
381.21	80.38
381.42	125.44
381.63	57.86
381.84	104.96
382.05	115.2
382.261	117.25
382.471	59.9
382.681	117.25
382.891	86.53
383.101	176.64
383.311	55.81
383.521	18.94
383.731	135.68
383.941	66.05
384.151	8.7
384.361	74.24
384.571	121.34
384.781	31.23
384.991	84.48
385.201	135.68
385.411	47.62
385.621	90.62
385.831	25.09
386.041	129.53
386.251	66.05
386.461	39.42
386.671	68.09
386.881	80.38
387.091	102.91
387.301	18.94
387.511	64
387.72	39.42
387.93	51.71
388.14	57.86
388.35	100.86
388.56	109.05
388.769	55.81
388.979	100.86
389.189	82.43
389.399	74.24
389.609	121.34
389.818	145.92
390.028	121.34
390.238	121.34
390.447	57.86
390.657	129.53
390.867	72.19
391.076	25.09
391.286	76.29
391.496	8.7
391.705	64
391.915	137.73
392.125	64
392.334	72.19
392.544	141.82
392.753	174.59
392.963	96.77
393.172	147.97
393.382	57.86
393.591	188.93
393.801	137.73
394.01	117.25
394.22	84.48
394.429	35.33
394.639	162.3
394.848	98.81
395.058	123.39
395.267	154.11
395.477	178.69
395.686	47.62
395.895	131.58
396.105	178.69
396.314	168.45
396.524	182.78
396.733	150.01
396.942	96.77
397.152	51.71
397.361	197.12
397.57	190.97
397.78	170.49
397.989	96.77
398.198	225.79
398.407	127.49
398.617	139.77
398.826	131.58
399.035	178.69
399.244	154.11
399.453	158.21
399.663	127.49
399.872	123.39
400.081	190.97
400.29	123.39
400.499	178.69
400.708	154.11
400.917	100.86
401.127	88.57
401.336	78.33
401.545	115.2
401.754	195.07
401.963	164.35
402.172	195.07
402.381	104.96
402.59	186.88
402.799	193.02
403.008	186.88
403.217	178.69
403.426	195.07
403.635	174.59
403.844	168.45
404.053	246.27
404.262	227.84
404.471	326.14
404.68	272.89
404.888	219.64
405.097	203.26
405.306	236.03
405.515	223.74
405.724	242.17
405.933	262.65
406.142	219.64
406.35	303.61
406.559	270.84
406.768	215.55
406.977	287.23
407.185	205.31
407.394	320
407.603	285.18
407.812	276.99
408.02	346.62
408.229	326.14
408.438	266.75
408.646	295.42
408.855	346.62
409.064	377.34
409.272	350.71
409.481	489.98
409.69	418.3
409.898	379.39
410.107	524.79
410.315	475.64
410.524	418.3
410.733	555.51
410.941	424.44
411.15	506.36
411.358	539.13
411.567	645.62
411.775	549.37
411.984	627.19
412.192	608.76
412.401	686.58
412.609	676.34
412.818	813.56
413.026	723.44
413.234	791.03
413.443	711.16
413.651	678.39
413.86	856.56
414.068	920.05
414.276	938.48
414.485	909.81
414.693	965.11
414.901	1087.98
415.11	1081.84
415.318	1077.74
415.526	1092.08
415.734	1098.22
415.943	1182.19
416.151	1274.35
416.359	1241.58
416.567	1323.5
416.776	1360.36
416.984	1366.51
417.192	1511.91
417.4	1432.04
417.608	1485.29
417.817	1530.34
418.025	1692.13
418.233	1786.34
418.441	1702.37
418.649	1778.15
418.857	1868.26
419.065	1917.41
419.273	1882.6
419.481	2007.52
419.689	2130.4
419.897	2253.28
420.105	2390.49
420.313	2367.96
420.521	2488.79
420.729	2554.33
420.937	2523.61
421.145	2574.81
421.353	2730.45
421.561	2939.35
421.769	2857.43
421.977	3004.88
422.185	2972.11
422.393	3328.46
422.601	3570.12
422.809	3506.63
423.017	3463.63
423.224	3557.83
423.432	3643.85
423.64	3768.77
423.848	3977.67
424.056	4024.77
424.263	4331.97
424.471	4370.88
424.679	4442.56
424.887	4565.43
425.094	4835.77
425.302	4823.48
425.51	4788.66
425.718	5226.93
425.925	5312.94
426.133	5433.77
426.341	5650.86
426.548	5800.36
426.756	5849.51
426.964	5929.38
427.171	6455.71
427.379	6474.14
427.586	6631.83
427.794	6723.99
428.001	6924.69
428.209	7385.49
428.417	7223.7
428.624	7661.96
428.832	7686.54
429.039	7836.04
429.247	7440.78
429.454	8456.57
429.662	8929.66
429.869	8380.8
430.076	8929.66
430.284	8784.25
430.491	9251.19
430.699	9607.53
430.906	9677.16
431.114	9716.08
431.321	10070.37
431.528	10348.9
431.736	10971.48
431.943	11573.58
432.15	11159.89
432.358	11346.26
432.565	11954.51
432.772	12173.64
432.979	12646.72
433.187	12702.01
433.394	12695.87
433.601	13672.75
433.808	13717.81
434.016	13449.52
434.223	13941.04
434.43	14825.76
434.637	14723.36
434.844	15694.1
435.052	15771.92
435.259	15784.21
435.466	15696.14
435.673	15857.93
435.88	16863.49
436.087	17869.04
436.294	17604.85
436.501	16984.32
436.708	17449.21
436.915	18122.99
437.122	18692.32
437.329	18960.61
437.537	19634.39
437.743	19771.6
437.95	19601.62
438.157	20822.21
438.364	21483.7
438.571	21156.03
438.778	21557.43
438.985	23312.54
439.192	22653.09
439.399	23312.54
439.606	22739.11
439.813	24049.81
440.02	25448.57
440.227	24715.4
440.433	24731.78
440.64	25514.11
440.847	25462.91
441.054	26095.73
441.261	27916.37
441.467	27254.88
441.674	28063.83
441.881	28887.11
442.088	28481.61
442.294	28571.72
442.501	29124.68
442.708	29890.62
442.914	30971.94
443.121	32165.91
443.328	31426.59
443.534	33722.37
443.741	32749.58
443.948	31928.34
444.154	34349.04
444.361	34402.29
444.568	34564.08
444.774	34363.38
444.981	34951.15
445.187	35440.61
445.394	37523.4
445.6	37019.6
445.807	40458.13
446.013	38447.03
446.22	39268.26
446.426	40794
446.633	41213.84
446.839	42497.91
447.046	40775.57
447.252	43159.41
447.459	43069.29
447.665	43220.84
447.871	45000.53
448.078	46280.51
448.284	44519.26
448.491	45371.21
448.697	47279.92
448.903	48363.29
449.11	48129.83
449.316	47345.45
449.522	48623.39
449.728	49704.71
449.935	49852.17
450.141	49420.05
450.347	50810.62
450.553	49442.57
450.76	49737.48
450.966	51873.51
451.172	51031.8
451.378	52223.72
451.584	51136.24
451.791	52598.49
451.997	52049.64
452.203	53368.53
452.409	53133.01
452.615	52799.19
452.821	50953.97
453.027	50470.65
453.233	53006.04
453.44	51105.52
453.646	51384.05
453.852	51660.52
454.058	52559.58
454.264	50810.62
454.47	52037.35
454.676	50636.54
454.882	52264.67
455.088	48301.85
455.294	48645.91
455.5	49676.04
455.705	49827.59
455.911	48164.64
456.117	47109.94
456.323	46710.58
456.529	44169.05
456.735	46153.54
456.941	45215.57
457.147	44427.1
457.352	43007.86
457.558	42022.78
457.764	42540.92
457.97	41457.54
458.176	40775.57
458.381	40740.75
458.587	38586.29
458.793	38825.9
458.999	36835.28
459.204	39086
459.41	38641.59
459.616	35809.25
459.821	36151.26
460.027	36028.38
460.233	35033.07
460.438	33171.46
460.644	33828.86
460.85	32292.88
461.055	31242.28
461.261	31668.25
461.466	29374.53
461.672	28461.13
461.878	30674.99
462.083	28323.92
462.289	27856.98
462.494	27619.42
462.7	26245.23
462.905	25964.66
463.111	26155.12
463.316	26636.39
463.522	25999.48
463.727	26081.39
463.932	25974.9
464.138	25622.65
464.343	25649.27
464.549	24993.92
464.754	25847.93
464.959	25385.08
465.165	25227.39
465.37	24221.84
465.575	23539.86
465.781	24377.48
465.986	24668.3
466.191	23853.2
466.397	23206.05
466.602	22364.33
466.807	22999.2
467.012	23048.35
467.218	22749.35
467.423	22646.95
467.628	22646.95
467.833	23713.94
468.038	22423.72
468.244	22200.49
468.449	22847.65
468.654	22288.56
468.859	21838
469.064	21969.07
469.269	21295.29
469.474	21340.35
469.679	21803.19
469.885	21080.25
470.09	21332.15
470.295	21373.11
470.5	20691.14
470.705	21209.28
470.91	20375.75
471.115	20101.33
471.32	20498.63
471.525	20236.49
471.73	20068.56
471.935	19906.77
472.139	18864.35
472.344	19083.48
472.549	19126.49
472.754	19050.72
472.959	18450.66
473.164	17967.34
473.369	17803.5
473.574	18626.79
473.778	18417.89
473.983	18170.09
474.188	18077.93
474.393	17156.35
474.598	17436.92
474.802	17365.24
475.007	17264.89
475.212	17264.89
475.417	16744.7
475.621	16400.65
475.826	16466.18
476.031	16087.31
476.235	15661.33
476.44	16099.59
476.645	15980.81
476.849	15759.63
477.054	15642.9
477.259	15472.92
477.463	15522.07
477.668	15081.75
477.872	15112.47
478.077	14950.68
478.282	14571.81
478.486	14522.66
478.691	14418.21
478.895	14383.4
479.1	14434.6
479.304	14428.45
479.509	13992.23
479.713	14213.42
479.918	13838.64
480.122	13838.64
480.326	13887.79
480.531	14010.67
480.735	13574.45
480.94	13883.69
481.144	13936.94
481.348	13283.64
481.553	13506.87
481.757	13345.08
481.961	13441.33
482.166	13539.63
482.37	13533.49
482.574	13125.94
482.778	13193.53
482.983	13490.48
483.187	13420.85
483.391	13314.36
483.595	13080.89
483.8	13041.98
484.004	13418.8
484.208	13308.21
484.412	13140.28
484.616	13236.53
484.821	13181.24
485.025	13039.93
485.229	13443.38
485.433	13050.17
485.637	13207.86
485.841	13011.26
486.045	12984.63
486.249	13125.94
486.453	13091.13
486.657	13089.08
486.861	13334.84
487.065	12728.64
487.269	13101.37
487.473	13035.83
487.677	13355.32
487.881	13375.8
488.085	13017.4
488.289	13232.44
488.493	13015.35
488.697	13117.75
488.901	12955.96
489.105	13232.44
489.309	12929.34
489.512	13035.83
489.716	13347.12
489.92	13248.82
490.124	13216.05
490.328	13492.53
490.531	13457.71
490.735	13465.91
490.939	13572.4
491.143	13429.04
491.346	13230.39
491.55	13433.14
491.754	13556.02
491.958	13566.26
492.161	13515.06
492.365	13682.99
492.569	13340.98
492.772	13744.43
492.976	13965.61
493.18	13963.56
493.383	14016.81
493.587	14088.49
493.79	14285.09
493.994	13916.46
494.197	14457.12
494.401	14471.46
494.605	14248.23
494.808	14582.05
495.012	14448.93
495.215	14733.6
495.419	14797.09
495.622	14584.1
495.825	15016.22
496.029	14907.68
496.232	15114.52
496.436	14999.84
496.639	15407.38
496.843	15407.38
497.046	15841.55
497.249	15771.92
497.453	15673.62
497.656	16214.28
497.859	16122.12
498.063	16464.13
498.266	16662.79
498.469	16412.93
498.673	16546.05
498.876	16978.17
499.079	17162.49
499.282	17039.61
499.485	17311.99
499.689	17379.57
499.892	17631.47
500.095	17910
500.298	18471.14
500.501	17981.68
500.705	18546.92
500.908	18661.6
501.111	18864.35
501.314	18856.16
501.517	19192.03
501.72	19566.81
501.923	19507.41
502.126	20060.37
502.329	19992.78
502.532	19998.93
502.735	20267.21
502.938	20654.28
503.141	20541.64
503.344	21147.84
503.547	21188.8
503.75	21528.76
503.953	21526.71
504.156	21897.39
504.359	22347.95
504.562	22233.26
504.765	22345.9
504.968	22497.45
505.17	22993.06
505.373	23279.77
505.576	23472.28
505.779	23965.84
505.982	23853.2
506.185	24144.02
506.387	24418.44
506.59	24424.59
506.793	24860.8
506.996	24682.63
507.198	25659.51
507.401	25364.6
507.604	25464.96
507.807	26091.63
508.009	26337.39
508.212	26337.39
508.415	26962.02
508.617	27041.89
508.82	27328.61
509.022	27336.8
509.225	27844.7
509.428	28117.07
509.63	28131.41
509.833	28317.78
510.035	29030.47
510.238	28905.54
510.44	29233.22
510.643	29788.22
510.845	30052.41
511.048	29689.91
511.25	30328.88
511.453	30347.31
511.655	31807.51
511.858	30945.32
512.06	31612.96
512.262	31664.16
512.465	31881.24
512.667	32184.34
512.87	32747.53
513.072	32780.3
513.274	33173.51
513.477	33462.27
513.679	33744.89
513.881	33939.45
514.084	34379.76
514.286	34199.54
514.488	34611.18
514.69	35416.04
514.893	35274.73
515.095	35602.4
515.297	36032.47
515.499	35989.47
515.701	36487.12
515.904	36782.03
516.106	36917.2
516.308	37189.58
516.51	37738.43
516.712	37904.32
516.914	38234.04
517.116	38666.16
517.318	38719.41
517.52	38909.87
517.722	38885.29
517.925	39628.71
518.127	40001.44
518.329	40062.88
518.531	40159.13
518.733	41072.53
518.935	41084.81
519.136	41469.83
519.338	41760.64
519.54	41674.63
519.742	42059.65
519.944	41826.18
520.146	42870.64
520.348	43030.38
520.55	42956.66
520.752	43306.86
520.954	43927.39
521.155	43110.25
521.357	43706.21
521.559	44232.54
521.761	44877.65
521.963	44443.48
522.164	45037.39
522.366	45195.09
522.568	45631.3
522.77	45801.29
522.971	46204.73
523.173	45561.67
523.375	46255.93
523.576	45995.84
523.778	46186.3
523.98	46665.53
524.181	47261.49
524.383	46833.46
524.584	47320.88
524.786	47034.16
524.988	46882.61
525.189	47523.63
525.391	48045.86
525.592	47898.41
525.794	48146.21
525.995	48119.59
526.197	48406.3
526.398	47894.31
526.6	48629.53
526.801	48410.4
527.003	48443.16
527.204	48785.18
527.406	49063.7
527.607	48850.71
527.808	49409.81
528.01	48729.88
528.211	48516.89
528.412	49833.74
528.614	49188.63
528.815	49559.31
529.016	49391.37
529.218	49506.06
529.419	49305.36
529.62	49409.81
529.822	49311.5
530.023	49309.46
530.224	49518.35
530.425	49303.31
530.626	49020.69
530.828	48457.5
531.029	50145.03
531.23	49379.09
531.431	49577.74
531.632	49598.22
531.833	49733.39
532.035	49401.61
532.236	49458.96
532.437	49442.57
532.638	49145.62
532.839	49483.53
533.04	49579.79
533.241	48975.64
533.442	50114.31
533.643	49219.34
533.844	49448.72
534.045	49757.96
534.246	49360.65
534.447	49252.11
534.648	49106.71
534.849	49655.56
535.05	48750.36
535.251	48725.78
535.451	49075.99
535.652	49143.57
535.853	49366.8
536.054	48776.98
536.255	48918.29
536.456	48744.22
536.657	49530.64
536.857	48688.92
537.058	48742.17
537.259	49323.79
537.46	48676.63
537.66	48731.93
537.861	49039.12
538.062	48289.57
538.263	48846.61
538.463	48189.22
538.664	48461.6
538.865	48705.3
539.065	48764.7
539.266	48213.79
539.466	48631.58
539.667	47953.7
539.868	49041.17
540.068	48602.91
540.269	48074.53
540.469	48590.62
540.67	47933.22
540.87	48563.99
541.071	48113.44
541.271	48168.74
541.472	48088.87
541.672	47949.6
541.873	47468.33
542.073	47415.08
542.274	48555.8
542.474	48383.77
542.675	47963.94
542.875	48430.88
543.075	47910.69
543.276	47308.59
543.476	48193.31
543.676	47683.37
543.877	48287.52
544.077	48019.24
544.277	47804.2
544.478	48164.64
544.678	48138.02
544.878	47648.55
545.078	47703.85
545.279	47433.52
545.479	47783.72
545.679	48078.63
545.879	47951.65
546.079	47984.42
546.28	47415.08
546.48	47195.95
546.68	47505.2
546.88	47726.38
547.08	47507.24
547.28	47695.66
547.48	47152.94
547.68	47615.79
547.88	47333.17
548.081	47933.22
548.281	48156.45
548.481	47351.6
548.681	47611.69
548.881	47619.88
549.081	47623.98
549.28	47494.96
549.48	47992.61
549.68	47408.94
549.88	48252.7
550.08	47419.18
550.28	47488.81
550.48	47394.6
550.68	47804.2
550.88	47558.44
551.08	47914.79
551.279	47779.62
551.479	47034.16
551.679	47492.91
551.879	47535.91
552.079	48234.27
552.278	47669.03
552.478	47972.13
552.678	47542.06
552.878	47804.2
553.077	47707.94
553.277	47198
553.477	48166.69
553.676	47576.87
553.876	47970.08
554.076	47728.42
554.275	47382.32
554.475	47390.51
554.674	47681.32
554.874	47726.38
555.074	47478.57
555.273	47658.79
555.473	47779.62
555.672	47777.57
555.872	47746.86
556.071	47818.53
556.271	48006.95
556.47	47757.1
556.67	47597.35
556.869	47945.51
557.068	48000.8
557.268	47716.14
557.467	47687.46
557.667	47748.9
557.866	47599.4
558.065	47615.79
558.265	47466.28
558.464	47476.52
558.663	47695.66
558.863	47476.52
559.062	48105.25
559.261	47449.9
559.461	47738.66
559.66	47189.81
559.859	47419.18
560.058	47505.2
560.258	47177.52
560.457	47255.34
560.656	47617.83
560.855	47613.74
561.054	47765.29
561.253	47253.29
561.453	47451.95
561.652	47634.22
561.851	47709.99
562.05	47099.7
562.249	46677.82
562.448	47542.06
562.647	47578.92
562.846	47294.25
563.045	47458.09
563.244	46976.82
563.443	47626.03
563.642	46714.68
563.841	46901.04
564.04	46933.81
564.239	47529.77
564.438	46978.87
564.637	47154.99
564.836	47304.49
565.035	46786.36
565.234	46925.62
565.432	46663.48
565.631	46452.54
565.83	47204.14
566.029	46651.19
566.228	46964.53
566.427	46319.42
566.625	46585.66
566.824	46280.51
567.023	46614.33
567.222	45911.88
567.42	46556.99
567.619	46411.58
567.818	46405.44
568.016	46167.87
568.215	46167.87
568.414	45756.23
568.612	46360.38
568.811	46333.76
569.01	45963.07
569.208	45375.31
569.407	45733.7
569.605	45449.03
569.804	45944.64
570.002	45389.64
570.201	45666.12
570.4	45457.23
570.598	44891.99
570.797	45078.35
570.995	45139.79
571.193	44945.23
571.392	45279.05
571.59	44789.59
571.789	44674.9
571.987	44384.09
572.186	44601.18
572.384	44470.11
572.582	44568.41
572.781	44541.78
572.979	43861.86
573.177	44433.24
573.376	44521.3
573.574	44457.82
573.772	44146.53
573.971	43822.95
574.169	43765.6
574.367	43630.44
574.565	43415.4
574.763	43442.03
574.962	43214.7
575.16	43403.11
575.358	43265.9
575.556	42823.54
575.754	43513.7
575.952	42817.39
576.151	43011.95
576.349	42567.54
576.547	42522.49
576.745	42415.99
576.943	43073.39
577.141	42585.97
577.339	42534.77
577.537	42170.24
577.735	42608.5
577.933	41924.48
578.131	42239.87
578.329	41842.56
578.527	41695.11
578.725	41840.51
578.923	42098.56
579.121	41340.81
579.319	41807.75
579.516	41617.28
579.714	41471.88
579.912	41377.67
580.11	41123.72
580.308	40976.27
580.506	40736.66
580.704	40529.81
580.901	40877.97
581.099	41371.53
581.297	40630.16
581.495	40902.54
581.692	40554.39
581.89	40009.63
582.088	40380.31
582.285	40028.06
582.483	39919.52
582.681	40007.58
582.878	40005.53
583.076	39657.38
583.274	40177.56
583.471	39196.59
583.669	39329.7
583.866	39245.74
584.064	39931.81
584.262	39376.81
584.459	39380.9
584.657	39253.93
584.854	39702.43
585.052	38512.56
585.249	38768.56
585.447	39106.48
585.644	38848.43
585.841	38416.31
586.039	38866.86
586.236	38203.32
586.434	38311.86
586.631	38125.5
586.828	38256.57
587.026	37998.52
587.223	38252.47
587.42	38133.69
587.618	37773.25
587.815	37685.18
588.012	37486.53
588.21	37625.79
588.407	38170.55
588.604	37433.28
588.801	37400.52
588.999	37201.86
589.196	37119.95
589.393	37455.81
589.59	37455.81
589.787	37013.45
589.984	37038.03
590.182	36474.84
590.379	36976.59
590.576	36814.8
590.773	37007.31
590.97	36642.77
591.167	36714.45
591.364	36278.23
591.561	36513.75
591.758	36255.7
591.955	36141.02
592.152	36501.46
592.349	36169.69
592.546	36038.62
592.743	35803.1
592.94	35717.09
593.137	35436.52
593.334	35803.1
593.531	35221.48
593.727	35702.75
593.924	35815.39
594.121	35540.96
594.318	35680.22
594.515	35166.18
594.712	35422.18
594.908	35473.38
595.105	35344.36
595.302	35123.18
595.499	34809.84
595.696	34883.56
595.892	34449.39
596.089	34936.81
596.286	35051.5
596.482	34967.53
596.679	34953.19
596.876	34910.19
597.072	34240.5
597.269	34643.95
597.466	34250.74
597.662	34363.38
597.859	34392.05
598.055	34326.52
598.252	34412.53
598.448	34392.05
598.645	34148.34
598.841	33808.38
599.038	34439.15
599.234	33986.55
599.431	34117.62
599.627	34074.62
599.824	34228.21
600.02	33568.77
600.217	34064.38
600.413	33560.58
600.609	33708.03
600.806	33648.64
601.002	34230.26
601.198	33656.83
601.395	33689.6
601.591	33492.99
601.787	33445.89
601.984	33632.25
602.18	33574.91
602.376	33536
602.572	33538.05
602.769	33343.49
602.965	33026.06
603.161	33028.1
603.357	33275.91
603.553	33093.64
603.75	33214.47
603.946	33259.52
604.142	33468.42
604.338	33011.72
604.534	33503.23
604.73	32968.71
604.926	33171.46
605.122	33558.53
605.318	33228.8
605.514	33337.35
605.71	33110.02
605.906	33396.74
606.102	33368.07
606.298	33228.8
606.494	33232.9
606.69	33253.38
606.886	33247.24
607.082	32628.75
607.278	33492.99
607.474	33318.92
607.67	33441.79
607.866	32708.62
608.062	33710.08
608.257	32976.9
608.453	33536
608.649	33234.95
608.845	33247.24
609.041	32993.29
609.236	33253.38
609.432	33361.92
609.628	33245.19
609.824	33437.7
610.019	33122.31
610.215	32798.73
610.411	33433.6
610.606	33259.52
610.802	33167.37
610.998	33177.61
611.193	33251.33
611.389	32768.01
611.584	33337.35
611.78	33396.74
611.976	33222.66
612.171	33081.35
612.367	33542.14
612.562	33454.08
612.758	33032.2
612.953	32665.61
613.149	33390.59
613.344	33261.57
613.539	33626.11
613.735	33517.57
613.93	33355.78
614.126	33320.96
614.321	33447.94
614.517	33368.07
614.712	33382.4
614.907	33327.11
615.103	33583.1
615.298	33226.76
615.493	33468.42
615.688	32892.94
615.884	33576.96
616.079	32868.36
616.274	33679.36
616.47	33406.98
616.665	33210.37
616.86	32960.52
617.055	33105.93
617.25	33085.45
617.445	33237
617.641	32595.98
617.836	33368.07
618.031	32962.57
618.226	33212.42
618.421	33024.01
618.616	32925.71
618.811	32520.21
619.006	32981
619.201	32127
619.396	32792.59
619.591	32139.29
619.786	32552.98
619.981	31582.24
620.176	32299.03
620.371	31969.3
620.566	32120.85
620.761	31879.19
620.956	32268.31
621.151	31610.91
621.346	31752.22
621.541	31465.5
621.735	31954.97
621.93	31060.01
622.125	31395.87
622.32	30685.23
622.515	31318.05
622.709	30847.02
622.904	30394.42
623.099	30224.43
623.294	30646.32
623.488	29968.44
623.683	30398.51
623.878	29874.23
624.072	30126.13
624.267	29794.36
624.462	29493.31
624.656	29292.61
624.851	29528.13
625.046	29020.23
625.24	29053
625.435	28923.97
625.629	28872.78
625.824	28598.35
626.018	28702.79
626.213	28008.53
626.407	28108.88
626.602	27789.4
626.796	27971.67
626.991	28029.01
627.185	27840.6
627.38	27584.6
627.574	27289.7
627.768	26953.83
627.963	27125.86
628.157	27062.37
628.352	27045.99
628.546	26544.23
628.74	26671.21
628.935	26323.05
629.129	26583.15
629.323	26163.31
629.517	26247.28
629.712	26075.25
629.906	25888.88
630.1	25606.27
630.294	25981.04
630.489	25714.81
630.683	25731.19
630.877	25200.77
631.071	25184.38
631.265	25340.03
631.459	25196.67
631.653	24856.71
631.848	24811.65
632.042	24635.53
632.236	24760.45
632.43	24326.28
632.624	24514.7
632.818	24270.99
633.012	23761.05
633.206	23957.65
633.4	24078.48
633.594	23771.29
633.788	24012.95
633.982	23582.87
634.176	23447.71
634.369	23439.51
634.563	23236.77
634.757	23204
634.951	23165.09
635.145	22915.23
635.339	22794.4
635.533	22745.25
635.726	22673.57
635.92	21915.83
636.114	22188.21
636.308	21915.83
636.501	21891.25
636.695	21934.26
636.889	21784.76
637.083	21594.29
637.276	21428.41
637.47	21567.67
637.664	21285.05
637.857	21336.25
638.051	21061.82
638.244	21113.02
638.438	21018.82
638.632	20811.97
638.825	20775.11
639.019	20517.06
639.212	20433.1
639.406	20398.28
639.599	20588.74
639.793	20265.16
639.986	19970.26
640.18	19984.59
640.373	20342.99
640.567	19636.44
640.76	19618
640.954	19499.22
641.147	19202.27
641.34	19257.56
641.534	19175.64
641.727	19437.78
641.92	19187.93
642.114	18786.53
642.307	19009.76
642.5	18596.07
642.694	18391.27
642.887	18561.25
643.08	18864.35
643.273	18204.91
643.467	18376.94
643.66	18061.55
643.853	17889.52
644.046	17776.88
644.239	17811.7
644.432	17639.67
644.626	17684.72
644.819	17518.84
645.012	17465.59
645.205	17545.46
645.398	17195.26
645.591	17205.5
645.784	17017.08
645.977	16898.3
646.17	16832.77
646.363	16769.28
646.556	16476.42
646.749	16589.06
646.942	16513.28
647.135	16236.81
647.328	16236.81
647.521	16361.73
647.714	15984.91
647.907	15950.09
648.099	15876.37
648.292	16079.11
648.485	15825.17
648.678	15726.86
648.871	15622.42
649.064	15323.41
649.256	15438.1
649.449	15165.72
649.642	15409.43
649.835	15155.48
650.027	14938.4
650.22	14991.64
650.413	15120.67
650.605	14694.69
650.798	14788.89
650.991	14694.69
651.183	14666.02
651.376	14500.13
651.568	14608.67
651.761	14244.13
651.954	14305.57
652.146	14297.38
652.339	14278.95
652.531	14055.72
652.724	13990.19
652.916	13867.31
653.109	13664.56
653.301	13783.34
653.494	13908.27
653.686	13406.52
653.879	13771.05
654.071	13474.1
654.263	13345.08
654.456	13607.22
654.648	13474.1
654.84	12884.28
655.033	13103.42
655.225	13340.98
655.417	13322.55
655.61	13224.25
655.802	12953.91
655.994	12732.73
656.186	12990.78
656.379	12634.43
656.571	12613.95
656.763	12665.15
656.955	12583.23
657.148	12515.65
657.34	12640.58
657.532	12136.77
657.724	12208.45
657.916	12347.72
658.108	12079.43
658.3	12104.01
658.492	11731.28
658.684	11905.35
658.876	11764.04
659.068	11776.33
659.26	11628.88
659.452	11694.41
659.644	11641.17
659.836	11491.66
660.028	11729.23
660.22	11358.55
660.412	11532.62
660.604	11229.52
660.796	11376.98
660.988	11147.61
661.18	11057.5
661.372	11024.73
661.563	11163.99
661.755	10930.52
661.947	10905.95
662.139	10871.13
662.331	10795.36
662.522	10428.77
662.714	10635.61
662.906	10580.32
663.097	10396
663.289	10459.49
663.481	10412.39
663.673	10412.39
663.864	10281.32
664.056	10125.67
664.247	10148.2
664.439	9943.4
664.631	10051.94
664.822	10041.7
665.014	10234.21
665.205	9804.14
665.397	9949.54
665.588	9812.33
665.78	9658.73
665.971	9417.07
666.163	9783.66
666.354	9533.81
666.546	9525.61
666.737	9353.59
666.929	9642.35
667.12	9363.83
667.311	9351.54
667.503	9212.28
667.694	9161.08
667.885	9412.98
668.077	9140.6
668.268	9183.6
668.459	9113.97
668.651	9083.25
668.842	8907.13
669.033	8972.66
669.224	8796.54
669.416	9101.69
669.607	8982.9
669.798	8616.32
669.989	8874.36
670.18	8649.08
670.371	8638.84
670.563	8487.29
670.754	8628.6
670.945	8391.04
671.136	8442.24
671.327	8444.29
671.518	8421.76
671.709	8313.22
671.9	8264.07
672.091	8247.68
672.282	8186.24
672.473	8042.89
672.664	8335.74
672.855	8053.13
673.046	8173.96
673.237	8018.31
673.428	8083.84
673.619	8024.45
673.809	7995.78
674	7965.06
674.191	7805.32
674.382	7981.45
674.573	7788.94
674.764	7709.07
674.954	7829.9
675.145	7702.92
675.336	7764.36
675.527	7758.22
675.717	7664.01
675.908	7676.3
676.099	7444.88
676.289	7471.5
676.48	7643.53
676.671	7381.39
676.861	7594.38
677.052	7430.54
677.243	7281.04
677.433	7358.86
677.624	7483.79
677.814	7326.1
678.005	7348.62
678.195	7354.77
678.386	7367.06
678.576	7063.96
678.767	7328.14
678.957	7213.46
679.148	7322
679.338	7182.74
679.529	7223.7
679.719	7096.72
679.909	7281.04
680.1	7162.26
680.29	7035.28
680.481	7074.2
680.671	7160.21
680.861	7104.92
681.052	6924.69
681.242	6967.7
681.432	7000.47
681.622	6879.64
681.813	6910.36
682.003	6977.94
682.193	6758.81
682.383	6848.92
682.573	6793.62
682.764	6754.71
682.954	6828.44
683.144	6773.14
683.334	6865.3
683.524	6865.3
683.714	6599.07
683.904	6760.86
684.094	6662.55
684.284	6736.28
684.474	6748.57
684.664	6742.43
684.854	6697.37
685.044	6629.79
685.234	6488.48
685.424	6404.51
685.614	6603.16
685.804	6427.04
685.994	6529.44
686.184	6513.05
686.374	6394.27
686.564	6375.84
686.753	6506.91
686.943	6048.16
687.133	6433.18
687.323	6179.23
687.513	6513.05
687.702	6275.49
687.892	6236.58
688.082	6257.06
688.272	6248.86
688.461	6359.45
688.651	6306.21
688.841	6089.12
689.03	6044.07
689.22	6093.22
689.41	6244.77
689.599	6136.23
689.789	5951.91
689.979	5970.34
690.168	6011.3
690.358	6044.07
690.547	6042.02
690.737	5956.01
690.926	5738.92
691.116	5642.67
691.305	5872.04
691.495	5691.82
691.684	5773.74
691.874	5808.55
692.063	5773.74
692.252	5814.7
692.442	5835.17
692.631	5613.99
692.82	5710.25
693.01	5665.19
693.199	5546.41
693.388	5661.1
693.578	5716.39
693.767	5478.83
693.956	5372.33
694.146	5562.8
694.335	5466.54
694.524	5620.14
694.713	5480.88
694.902	5601.71
695.092	5474.73
695.281	5454.25
695.47	5429.68
695.659	5372.33
695.848	5478.83
696.037	5454.25
696.226	5392.81
696.415	5355.95
696.604	5290.42
696.793	5188.02
696.982	5212.59
697.171	5282.22
697.36	5198.26
697.549	5274.03
697.738	5089.71
697.927	5071.28
698.116	5220.78
698.305	5102
698.494	5145.01
698.683	5179.82
698.872	5089.71
699.061	5212.59
699.25	5061.04
699.438	4929.97
699.627	4923.83
699.816	5003.7
700.005	4995.51
700.193	4975.03
700.382	5104.05
700.571	4923.83
700.76	4970.93
700.948	5011.89
701.137	4987.32
701.326	5036.47
701.514	4827.57
701.703	4841.91
701.892	4770.23
702.08	4602.3
702.269	4825.53
702.457	4811.19
702.646	4721.08
702.834	4766.14
703.023	4565.43
703.212	4825.53
703.4	4643.26
703.589	4659.64
703.777	4518.33
703.965	4673.98
704.154	4682.17
704.342	4504
704.531	4479.42
704.719	4708.79
704.907	4491.71
705.096	4448.7
705.284	4581.82
705.472	4532.67
705.661	4465.08
705.849	4463.04
706.037	4450.75
706.226	4393.4
706.414	4389.31
706.602	4391.36
706.79	4389.31
706.979	4266.43
707.167	4241.86
707.355	4272.57
707.543	4276.67
707.731	4356.54
707.919	4276.67
708.107	4241.86
708.296	4196.8
708.484	4086.21
708.672	4188.61
708.86	4145.6
709.048	4174.27
709.236	4102.59
709.424	4200.9
709.612	4108.74
709.8	4164.03
709.988	4049.35
710.176	4252.1
710.364	4045.25
710.551	4000.19
710.739	3955.14
710.927	4149.7
711.115	3865.03
711.303	4037.06
711.491	3877.32
711.679	3996.1
711.866	3998.15
712.054	3969.48
712.242	3963.33
712.43	3965.38
712.617	3987.91
712.805	3840.45
712.993	3854.79
713.181	3817.93
713.368	3856.84
713.556	3787.21
713.744	3856.84
713.931	3750.34
714.119	3766.73
714.306	3774.92
714.494	3758.53
714.682	3750.34
714.869	3672.52
715.057	3639.75
715.244	3633.61
715.432	3731.91
715.619	3598.79
715.807	3727.82
715.994	3717.58
716.182	3693
716.369	3506.63
716.556	3697.1
716.744	3525.07
716.931	3549.64
717.119	3488.2
717.306	3623.37
717.493	3426.76
717.681	3594.7
717.868	3469.77
718.055	3455.44
718.242	3520.97
718.43	3445.2
718.617	3439.05
718.804	3379.66
718.991	3381.71
719.179	3377.61
719.366	3398.09
719.553	3475.91
719.74	3449.29
719.927	3480.01
720.114	3271.12
720.301	3312.08
720.488	3307.98
720.676	3267.02
720.863	3269.07
721.05	3344.84
721.237	3330.51
721.424	3234.25
721.611	3269.07
721.798	3244.49
721.985	3213.77
722.172	3176.91
722.358	3267.02
722.545	3238.35
722.732	3135.95
722.919	3178.96
723.106	3150.29
723.293	3162.58
723.48	3168.72
723.667	3176.91
723.853	2998.74
724.04	3246.54
724.227	3056.08
724.414	3135.95
724.6	3037.65
724.787	3103.18
724.974	3017.17
725.161	3004.88
725.347	2884.05
725.534	2918.87
725.72	3103.18
725.907	3070.42
726.094	2953.68
726.28	3066.32
726.467	2836.95
726.653	2955.73
726.84	3041.75
727.027	3021.27
727.213	2902.48
727.4	3033.55
727.586	2822.61
727.773	2859.48
727.959	2877.91
728.145	2922.96
728.332	2955.73
728.518	2800.09
728.705	2853.33
728.891	3000.79
729.077	2695.64
729.264	2777.56
729.45	2834.9
729.636	3013.07
729.823	2808.28
730.009	2865.62
730.195	2785.75
730.382	2712.02
730.568	2791.89
730.754	2771.41
730.94	2863.57
731.126	2812.37
731.313	2832.85
731.499	2736.6
731.685	2701.78
731.871	2671.06
732.057	2742.74
732.243	2681.3
732.429	2779.61
732.615	2800.09
732.801	2767.32
732.987	2638.3
733.173	2761.17
733.359	2574.81
733.545	2679.26
733.731	2574.81
733.917	2703.83
734.103	2539.99
734.289	2621.91
734.475	2525.66
734.661	2599.38
734.847	2546.14
735.033	2578.9
735.219	2546.14
735.404	2666.97
735.59	2476.51
735.776	2525.66
735.962	2468.31
736.148	2546.14
736.333	2515.42
736.519	2499.03
736.705	2564.57
736.89	2578.9
737.076	2501.08
737.262	2603.48
737.447	2439.64
737.633	2394.59
737.819	2486.75
738.004	2398.68
738.19	2392.54
738.375	2423.26
738.561	2572.76
738.747	2349.53
738.932	2374.11
739.118	2423.26
739.303	2302.43
739.489	2329.05
739.674	2410.97
739.859	2347.48
740.045	2316.76
740.23	2320.86
740.416	2230.75
740.601	2392.54
740.786	2286.05
740.972	2261.47
741.157	2347.48
741.342	2152.93
741.528	2226.65
741.713	2126.3
741.898	2169.31
742.084	2173.41
742.269	2247.13
742.454	2177.5
742.639	2220.51
742.824	2253.28
743.01	2120.16
743.195	2169.31
743.38	2064.86
743.565	2124.26
743.75	2165.21
743.935	2105.82
744.12	2140.64
744.305	2013.67
744.49	2068.96
744.675	2165.21
744.86	1980.9
745.045	2161.12
745.23	2093.54
745.415	1980.9
745.6	1974.75
745.785	1964.51
745.97	1984.99
746.155	2001.38
746.34	2023.91
746.525	2081.25
746.71	2081.25
746.895	1941.99
747.079	1989.09
747.264	1845.73
747.449	1927.65
747.634	1925.6
747.819	1968.61
748.003	1898.98
748.188	1745.38
748.373	1769.96
748.557	1802.72
748.742	1868.26
748.927	1776.1
749.111	1819.11
749.296	1792.48
749.481	1772
749.665	1827.3
749.85	1685.99
750.034	1718.76
750.219	1739.24
750.404	1710.57
750.588	1829.35
750.773	1751.53
750.957	1751.53
751.141	1665.51
751.326	1628.65
751.51	1647.08
751.695	1665.51
751.879	1548.78
752.064	1698.28
752.248	1645.03
752.432	1661.41
752.617	1720.81
752.801	1516.01
752.985	1604.07
753.17	1497.58
753.354	1520.1
753.538	1583.59
753.722	1466.86
753.907	1477.1
754.091	1370.6
754.275	1526.25
754.459	1421.8
754.643	1454.57
754.828	1436.14
755.012	1456.62
755.196	1452.52
755.38	1499.63
755.564	1401.32
755.748	1391.08
755.932	1513.96
756.116	1456.62
756.3	1444.33
756.484	1393.13
756.668	1401.32
756.852	1313.26
757.036	1315.31
757.22	1333.74
757.404	1352.17
757.588	1272.3
757.772	1268.2
757.956	1251.82
758.14	1214.96
758.323	1292.78
758.507	1260.01
758.691	1223.15
758.875	1217.01
759.059	1245.68
759.242	1298.92
759.426	1264.11
759.61	1321.45
759.794	1190.38
759.977	1124.85
760.161	1276.4
760.345	1309.16
760.528	1219.05
760.712	1194.48
760.895	1165.81
761.079	1174
761.263	1243.63
761.446	1165.81
761.63	1204.72
761.813	1128.94
761.997	1047.02
762.18	1180.14
762.364	1130.99
762.547	1149.42
762.731	1108.46
762.914	1042.93
763.098	1118.7
763.281	1071.6
763.464	1092.08
763.648	956.91
763.831	1120.75
764.015	1174
764.198	1106.42
764.381	1071.6
764.564	1083.89
764.748	1133.04
764.931	1067.5
765.114	1071.6
765.297	1038.83
765.481	920.05
765.664	1006.06
765.847	1010.16
766.03	1083.89
766.213	963.06
766.397	967.15
766.58	1001.97
766.763	1008.11
766.946	1024.5
767.129	895.47
767.312	1083.89
767.495	1022.45
767.678	1042.93
767.861	1030.64
768.044	1022.45
768.227	956.91
768.41	1053.17
768.593	1016.3
768.776	985.58
768.959	1038.83
769.142	864.75
769.324	997.87
769.507	965.11
769.69	975.35
769.873	920.05
770.056	958.96
770.239	985.58
770.421	1010.16
770.604	915.95
770.787	940.53
770.97	1018.35
771.152	901.62
771.335	899.57
771.518	877.04
771.7	907.76
771.883	950.77
772.066	874.99
772.248	920.05
772.431	793.08
772.613	850.42
772.796	805.36
772.978	967.15
773.161	778.74
773.343	778.74
773.526	821.75
773.708	866.8
773.891	858.61
774.073	791.03
774.256	899.57
774.438	780.79
774.621	795.12
774.803	887.28
774.985	811.51
775.168	834.04
775.35	866.8
775.532	776.69
775.715	737.78
775.897	780.79
776.079	805.36
776.261	784.88
776.444	850.42
776.626	803.32
776.808	778.74
776.99	829.94
777.173	737.78
777.355	834.04
777.537	780.79
777.719	700.92
777.901	715.25
778.083	686.58
778.265	662.01
778.447	811.51
778.629	610.81
778.811	803.32
778.993	735.73
779.175	637.43
779.357	748.02
779.539	711.16
779.721	686.58
779.903	760.31
780.085	653.81
780.267	614.9
780.449	748.02
780.631	778.74
780.812	639.48
780.994	612.85
781.176	670.2
781.358	582.14
781.54	584.18
781.721	629.24
781.903	645.62
782.085	705.01
782.267	612.85
782.448	520.7
782.63	551.42
782.812	565.75
782.993	582.14
783.175	588.28
783.357	567.8
783.538	514.55
783.72	543.22
783.901	561.66
784.083	637.43
784.264	557.56
784.446	492.02
784.627	582.14
784.809	604.66
784.99	621.05
785.172	573.94
785.353	489.98
785.535	614.9
785.716	559.61
785.897	432.63
786.079	492.02
786.26	532.98
786.441	498.17
786.623	494.07
786.804	489.98
786.985	498.17
787.167	444.92
787.348	475.64
787.529	514.55
787.71	508.41
787.891	492.02
788.073	432.63
788.254	473.59
788.435	512.5
788.616	424.44
788.797	463.35
788.978	465.4
789.159	432.63
789.34	467.45
789.522	442.87
789.703	426.49
789.884	451.07
790.065	442.87
790.246	449.02
790.427	383.48
790.607	428.54
790.788	475.64
790.969	399.87
791.15	424.44
791.331	416.25
791.512	385.53
791.693	469.5
791.874	432.63
792.054	408.06
792.235	426.49
792.416	424.44
792.597	354.81
792.778	465.4
792.958	367.1
793.139	360.95
793.32	371.19
793.5	385.53
793.681	365.05
793.862	350.71
794.042	385.53
794.223	279.04
794.404	317.95
794.584	309.76
794.765	453.11
794.945	330.23
795.126	449.02
795.306	320
795.487	377.34
795.667	256.51
795.848	336.38
796.028	367.1
796.209	367.1
796.389	348.67
796.57	303.61
796.75	332.28
796.93	342.52
797.111	317.95
797.291	350.71
797.471	342.52
797.652	283.13
797.832	328.19
798.012	276.99
798.192	297.47
798.373	268.8
798.553	260.6
798.733	317.95
798.913	236.03
799.093	315.9
799.274	260.6
799.454	311.8
799.634	322.04
799.814	268.8
799.994	330.23
800.174	358.91
800.354	227.84
800.534	225.79
800.714	293.37
800.894	240.12
801.074	197.12
801.254	293.37
801.434	303.61
801.614	285.18
801.794	244.22
801.974	1022.45
802.154	244.22
802.334	309.76
802.514	276.99
802.693	209.4
802.873	231.93
803.053	279.04
803.233	260.6
803.413	236.03
803.592	309.76
803.772	236.03
803.952	262.65
804.131	219.64
804.311	172.54
804.491	266.75
804.67	150.01
804.85	266.75
805.03	182.78
805.209	250.36
805.389	219.64
805.568	268.8
805.748	131.58
805.928	211.45
806.107	240.12
806.287	199.16
806.466	203.26
806.646	197.12
806.825	186.88
807.004	227.84
807.184	186.88
807.363	176.64
807.543	195.07
807.722	205.31
807.901	213.5
808.081	188.93
808.26	109.05
808.439	195.07
808.619	262.65
808.798	172.54
808.977	201.21
809.156	199.16
809.336	147.97
809.515	213.5
809.694	137.73
809.873	231.93
810.052	162.3
810.231	295.42
810.411	221.69
810.59	272.89
810.769	182.78
810.948	174.59
811.127	107.01
811.306	178.69
811.485	199.16
811.664	203.26
811.843	164.35
812.022	109.05
812.201	184.83
812.38	145.92
812.559	147.97
812.737	168.45
812.916	129.53
813.095	174.59
813.274	193.02
813.453	236.03
813.632	217.6
813.811	170.49
813.989	147.97
814.168	186.88
814.347	195.07
814.526	129.53
814.704	229.88
814.883	205.31
815.062	129.53
815.24	139.77
815.419	188.93
815.598	150.01
815.776	158.21
815.955	221.69
816.133	66.05
816.312	107.01
816.49	102.91
816.669	154.11
816.847	139.77
817.026	139.77
817.204	166.4
817.383	82.43
817.561	176.64
817.74	195.07
817.918	178.69
818.097	98.81
818.275	98.81
818.453	170.49
818.632	123.39
818.81	145.92
818.988	145.92
819.167	74.24
819.345	188.93
819.523	68.09
819.701	172.54
819.879	219.64
820.058	72.19
820.236	121.34
820.414	113.15
820.592	190.97
820.77	170.49
820.948	133.63
821.127	129.53
821.305	129.53
821.483	109.05
821.661	172.54
821.839	117.25
822.017	76.29
822.195	170.49
822.373	76.29
822.551	80.38
822.729	96.77
822.907	133.63
823.085	147.97
823.262	115.2
823.44	57.86
823.618	117.25
823.796	100.86
823.974	109.05
824.152	68.09
824.329	113.15
824.507	203.26
824.685	170.49
824.863	147.97
825.04	129.53
825.218	88.57
825.396	74.24
825.574	109.05
825.751	59.9
825.929	129.53
826.107	100.86
826.284	88.57
826.462	131.58
826.639	145.92
826.817	31.23
826.994	90.62
827.172	61.95
827.349	195.07
827.527	96.77
827.704	107.01
827.882	135.68
828.059	147.97
828.237	131.58
828.414	82.43
828.591	-17.92
828.769	121.34
828.946	92.67
829.124	203.26
829.301	82.43
829.478	129.53
829.655	29.18
829.833	119.29
830.01	49.66
830.187	123.39
830.364	43.52
830.542	98.81
830.719	137.73
830.896	125.44
831.073	125.44
831.25	145.92
831.427	90.62
831.604	100.86
831.782	74.24
831.959	90.62
832.136	-9.73
832.313	152.06
832.49	59.9
832.667	104.96
832.844	14.85
833.021	129.53
833.198	59.9
833.374	64
833.551	115.2
833.728	55.81
833.905	74.24
834.082	39.42
834.259	137.73
834.436	137.73
834.612	18.94
834.789	104.96
834.966	82.43
835.143	135.68
835.319	86.53
835.496	80.38
835.673	94.72
835.85	113.15
836.026	41.47
836.203	53.76
836.38	145.92
836.556	78.33
836.733	72.19
836.909	72.19
837.086	-1.54
837.262	49.66
837.439	33.28
837.616	129.53
837.792	47.62
837.968	-28.16
838.145	2.56
838.321	72.19
838.498	4.61
838.674	78.33
838.851	72.19
839.027	45.57
839.203	96.77
839.38	121.34
839.556	18.94
839.732	180.73
839.909	64
840.085	104.96
840.261	0.51
840.437	94.72
840.614	-7.68
840.79	-1.54
840.966	107.01
841.142	74.24
841.318	16.9
841.494	39.42
841.671	88.57
841.847	-15.87
842.023	96.77
842.199	59.9
842.375	53.76
842.551	33.28
842.727	39.42
842.903	104.96
843.079	35.33
843.255	129.53
843.431	74.24
843.607	113.15
843.783	23.04
843.959	80.38
844.134	100.86
844.31	137.73
844.486	90.62
844.662	23.04
844.838	64
845.013	43.52
845.189	37.38
845.365	80.38
845.541	18.94
845.716	76.29
845.892	57.86
846.068	8.7
846.244	55.81
846.419	82.43
846.595	23.04
846.77	86.53
846.946	92.67
847.122	-34.3
847.297	57.86
847.473	57.86
847.648	-9.73
847.824	-1.54
847.999	68.09
848.175	107.01
848.35	53.76
848.526	137.73
848.701	96.77
848.876	72.19
849.052	117.25
849.227	33.28
849.403	31.23
849.578	64
849.753	92.67
849.929	31.23
850.104	55.81
850.279	55.81
850.454	72.19
850.63	88.57
850.805	-13.82
850.98	47.62
851.155	109.05
851.33	53.76
851.505	14.85
851.681	57.86
851.856	12.8
852.031	25.09
852.206	31.23
852.381	59.9
852.556	6.66
852.731	29.18
852.906	43.52
853.081	55.81
853.256	121.34
853.431	-9.73
853.606	-13.82
853.781	31.23
853.956	-34.3
854.131	55.81
854.305	10.75
854.48	-9.73
854.655	0.51
854.83	8.7
855.005	37.38
855.18	25.09
855.354	12.8
855.529	43.52
855.704	27.14
855.879	-17.92
856.053	-62.98
856.228	39.42
856.403	-19.97
856.577	43.52
856.752	2.56
856.926	41.47
857.101	-3.58
857.276	-24.06
857.45	37.38
857.625	41.47
857.799	2.56
857.974	29.18
858.148	-1.54
858.323	72.19
858.497	20.99
858.672	39.42
858.846	64
859.02	100.86
859.195	39.42
859.369	-13.82
859.543	-15.87
859.718	-26.11
859.892	98.81
860.066	96.77
860.241	-42.5
860.415	55.81
860.589	12.8
860.763	-30.21
860.938	-22.02
861.112	51.71
861.286	4.61
861.46	-22.02
861.634	-69.12
861.808	80.38
861.982	10.75
862.157	-26.11
862.331	-3.58
862.505	23.04
862.679	33.28
862.853	23.04
863.027	-5.63
863.201	88.57
863.375	-7.68
863.549	102.91
863.722	18.94
863.896	150.01
864.07	39.42
864.244	92.67
864.418	53.76
864.592	57.86
864.766	-46.59
864.939	35.33
865.113	43.52
865.287	74.24
865.461	51.71
865.634	96.77
865.808	33.28
865.982	-54.78
866.156	-28.16
866.329	39.42
866.503	-26.11
866.676	35.33
866.85	18.94
867.024	-1.54
867.197	12.8
867.371	-42.5
867.544	51.71
867.718	31.23
867.891	59.9
868.065	6.66
868.238	-38.4
868.412	0.51
868.585	57.86
868.759	-26.11
868.932	-40.45
869.105	-17.92
869.279	39.42
869.452	-58.88
869.625	78.33
869.799	6.66
869.972	-50.69
870.145	23.04
870.319	31.23
870.492	88.57
870.665	57.86
870.838	2.56
871.011	-3.58
871.185	-56.83
871.358	39.42
871.531	8.7
871.704	-22.02
871.877	88.57
872.05	-19.97
872.223	-65.02
872.396	41.47
872.569	39.42
872.742	8.7
872.915	51.71
873.088	33.28
873.261	6.66
873.434	-38.4
873.607	39.42
873.78	47.62
873.953	-3.58
874.126	25.09
874.299	43.52
874.471	-17.92
874.644	90.62
874.817	100.86
874.99	92.67
875.163	-3.58
875.335	72.19
875.508	43.52
875.681	2.56
875.853	-30.21
876.026	20.99
876.199	53.76
876.371	-3.58
876.544	-46.59
876.717	64
876.889	92.67
877.062	23.04
877.234	64
877.407	-26.11
877.579	18.94
877.752	18.94
877.924	72.19
878.097	-40.45
878.269	31.23
878.442	-1.54
878.614	-95.74
878.786	-1.54
878.959	-1.54
879.131	-56.83
879.303	45.57
879.476	8.7
879.648	27.14
879.82	27.14
879.993	59.9
880.165	27.14
880.337	8.7
880.509	-34.3
880.681	35.33
880.854	-13.82
881.026	18.94
881.198	35.33
881.37	10.75
881.542	-15.87
881.714	61.95
881.886	4.61
882.058	14.85
882.23	66.05
882.402	-83.45
882.574	-9.73
882.746	66.05
882.918	-1.54
883.09	-34.3
883.262	-17.92
883.434	-9.73
883.606	14.85
883.778	88.57
883.95	37.38
884.122	31.23
884.293	39.42
884.465	16.9
884.637	61.95
884.809	2.56
884.98	14.85
885.152	16.9
885.324	31.23
885.496	-1.54
885.667	-15.87
885.839	8.7
886.011	2.56
886.182	6.66
886.354	31.23
886.525	31.23
886.697	6.66
886.869	-38.4
887.04	68.09
887.212	12.8
887.383	18.94
887.555	39.42
887.726	111.1
887.897	31.23
888.069	-9.73
888.24	-15.87
888.412	10.75
888.583	10.75
888.754	45.57
888.926	55.81
889.097	14.85
889.268	43.52
889.44	-9.73
889.611	-5.63
889.782	6.66
889.953	-17.92
890.125	76.29
890.296	-67.07
890.467	10.75
890.638	27.14
890.809	29.18
890.98	-42.5
891.151	-30.21
891.323	80.38
891.494	-17.92
891.665	-7.68
891.836	-58.88
892.007	-1.54
892.178	45.57
892.349	-40.45
892.52	25.09
892.691	23.04
892.862	-34.3
893.032	-79.36
893.203	-56.83
893.374	23.04
893.545	88.57
893.716	-42.5
893.887	59.9
894.057	-13.82
894.228	53.76
894.399	14.85
894.57	55.81
894.74	-26.11
894.911	2.56
895.082	12.8
895.253	20.99
895.423	35.33
895.594	27.14
895.764	-54.78
895.935	-75.26
896.106	47.62
896.276	8.7
896.447	39.42
896.617	-11.78
896.788	-62.98
896.958	31.23
897.129	37.38
897.299	8.7
897.47	33.28
897.64	10.75
897.81	-1.54
897.981	27.14
898.151	-67.07
898.322	18.94
898.492	-42.5
898.662	31.23
898.832	-9.73
899.003	64
899.173	10.75
899.343	-26.11
899.513	-65.02
