Data from USB4F104151__153__14-31-58-974.txt Node

Date: Thu Mar 13 14:31:58 EDT 2025
User: louis
Spectrometer: USB4F10415
Trigger mode: 4
Integration Time (sec): 2.500000E-2
Scans to average: 1
Electric dark correction enabled: true
Nonlinearity correction enabled: false
Boxcar width: 0
XAxis mode: Wavelengths
Number of Pixels in Spectrum: 3648
>>>>>Begin Spectral Data<<<<<
178.204	-126.97
178.424	-126.97
178.644	-126.97
178.864	-188.41
179.084	-108.54
179.304	-6.14
179.524	-12.29
179.744	-28.67
179.964	4.1
180.184	-30.72
180.404	-12.29
180.624	51.2
180.844	81.92
181.064	-43.01
181.283	-40.96
181.503	-16.38
181.723	53.25
181.943	4.1
182.163	81.92
182.383	-26.62
182.602	69.63
182.822	-8.19
183.042	69.63
183.262	4.1
183.482	-45.06
183.701	6.14
183.921	0
184.141	-28.67
184.361	0
184.58	55.3
184.8	61.44
185.02	-16.38
185.239	32.77
185.459	-8.19
185.679	65.53
185.898	-26.62
186.118	22.53
186.338	2.05
186.557	-36.86
186.777	-20.48
186.997	14.34
187.216	12.29
187.436	28.67
187.655	-2.05
187.875	30.72
188.095	28.67
188.314	20.48
188.534	104.45
188.753	26.62
188.973	63.49
189.192	16.38
189.412	2.05
189.631	22.53
189.851	2.05
190.07	63.49
190.29	-36.86
190.509	-6.14
190.729	14.34
190.948	-36.86
191.168	77.82
191.387	61.44
191.607	36.86
191.826	81.92
192.045	4.1
192.265	-36.86
192.484	57.34
192.704	61.44
192.923	-12.29
193.142	81.92
193.362	57.34
193.581	77.82
193.8	32.77
194.02	36.86
194.239	10.24
194.458	-20.48
194.678	-8.19
194.897	-26.62
195.116	22.53
195.335	36.86
195.555	88.06
195.774	-10.24
195.993	36.86
196.212	-8.19
196.432	12.29
196.651	-10.24
196.87	36.86
197.089	38.91
197.308	61.44
197.528	14.34
197.747	-28.67
197.966	-43.01
198.185	4.1
198.404	20.48
198.623	79.87
198.842	92.16
199.062	69.63
199.281	20.48
199.5	24.58
199.719	126.97
199.938	-4.1
200.157	6.14
200.376	4.1
200.595	4.1
200.814	28.67
201.033	38.91
201.252	20.48
201.471	-12.29
201.69	49.15
201.909	69.63
202.128	-14.34
202.347	16.38
202.566	81.92
202.785	28.67
203.004	-55.3
203.223	71.68
203.442	32.77
203.661	22.53
203.879	-16.38
204.098	38.91
204.317	-38.91
204.536	53.25
204.755	34.82
204.974	55.3
205.193	24.58
205.411	98.3
205.63	24.58
205.849	49.15
206.068	28.67
206.287	24.58
206.505	6.14
206.724	20.48
206.943	-75.77
207.162	-12.29
207.381	24.58
207.599	20.48
207.818	55.3
208.037	0
208.255	57.34
208.474	47.1
208.693	65.53
208.911	10.24
209.13	-30.72
209.349	28.67
209.567	16.38
209.786	-4.1
210.005	61.44
210.223	-12.29
210.442	6.14
210.661	26.62
210.879	-28.67
211.098	38.91
211.316	20.48
211.535	79.87
211.753	-51.2
211.972	12.29
212.191	-2.05
212.409	-92.16
212.628	55.3
212.846	38.91
213.065	28.67
213.283	16.38
213.502	-26.62
213.72	20.48
213.938	28.67
214.157	-12.29
214.375	-4.1
214.594	-45.06
214.812	45.06
215.031	61.44
215.249	28.67
215.467	-57.34
215.686	30.72
215.904	8.19
216.122	116.73
216.341	-28.67
216.559	26.62
216.778	57.34
216.996	32.77
217.214	51.2
217.432	16.38
217.651	4.1
217.869	6.14
218.087	-53.25
218.306	43.01
218.524	22.53
218.742	14.34
218.96	36.86
219.179	-45.06
219.397	2.05
219.615	129.02
219.833	-18.43
220.051	-2.05
220.27	65.53
220.488	49.15
220.706	6.14
220.924	106.49
221.142	4.1
221.36	-38.91
221.578	90.11
221.796	-32.77
222.015	69.63
222.233	-45.06
222.451	81.92
222.669	6.14
222.887	-26.62
223.105	-28.67
223.323	38.91
223.541	-86.01
223.759	20.48
223.977	-67.58
224.195	22.53
224.413	65.53
224.631	8.19
224.849	0
225.067	47.1
225.285	-43.01
225.503	36.86
225.721	-18.43
225.939	-34.82
226.157	12.29
226.375	86.01
226.592	-26.62
226.81	-55.3
227.028	0
227.246	57.34
227.464	12.29
227.682	20.48
227.9	36.86
228.117	38.91
228.335	-24.58
228.553	-40.96
228.771	55.3
228.989	61.44
229.206	4.1
229.424	-71.68
229.642	-4.1
229.86	20.48
230.077	6.14
230.295	28.67
230.513	81.92
230.731	26.62
230.948	86.01
231.166	4.1
231.384	61.44
231.601	36.86
231.819	51.2
232.037	-36.86
232.254	-10.24
232.472	-67.58
232.689	36.86
232.907	12.29
233.125	106.49
233.342	-12.29
233.56	-8.19
233.777	61.44
233.995	20.48
234.213	36.86
234.43	-20.48
234.648	-22.53
234.865	-2.05
235.083	47.1
235.3	-8.19
235.518	40.96
235.735	43.01
235.953	81.92
236.17	12.29
236.388	77.82
236.605	14.34
236.822	61.44
237.04	16.38
237.257	28.67
237.475	4.1
237.692	28.67
237.909	110.59
238.127	20.48
238.344	40.96
238.562	-10.24
238.779	-69.63
238.996	-61.44
239.214	88.06
239.431	12.29
239.648	20.48
239.865	45.06
240.083	28.67
240.3	6.14
240.517	-53.25
240.735	94.21
240.952	106.49
241.169	98.3
241.386	-20.48
241.603	22.53
241.821	81.92
242.038	61.44
242.255	22.53
242.472	6.14
242.689	47.1
242.907	32.77
243.124	65.53
243.341	79.87
243.558	-16.38
243.775	20.48
243.992	-38.91
244.209	22.53
244.426	96.25
244.643	-12.29
244.86	-20.48
245.078	-43.01
245.295	20.48
245.512	69.63
245.729	-53.25
245.946	45.06
246.163	26.62
246.38	14.34
246.597	12.29
246.814	8.19
247.031	22.53
247.248	57.34
247.464	61.44
247.681	-69.63
247.898	49.15
248.115	86.01
248.332	-14.34
248.549	-2.05
248.766	118.78
248.983	20.48
249.2	-61.44
249.417	-24.58
249.633	-45.06
249.85	2.05
250.067	55.3
250.284	53.25
250.501	45.06
250.717	65.53
250.934	-36.86
251.151	20.48
251.368	22.53
251.585	-4.1
251.801	63.49
252.018	-16.38
252.235	16.38
252.451	-4.1
252.668	69.63
252.885	102.4
253.102	-36.86
253.318	20.48
253.535	0
253.752	-49.15
253.968	12.29
254.185	-12.29
254.401	-4.1
254.618	77.82
254.835	20.48
255.051	69.63
255.268	-32.77
255.484	22.53
255.701	28.67
255.917	12.29
256.134	2.05
256.351	45.06
256.567	28.67
256.784	53.25
257	32.77
257.217	51.2
257.433	32.77
257.65	-45.06
257.866	36.86
258.082	-20.48
258.299	24.58
258.515	61.44
258.732	22.53
258.948	-45.06
259.165	28.67
259.381	-4.1
259.597	79.87
259.814	22.53
260.03	-26.62
260.246	-45.06
260.463	24.58
260.679	86.01
260.895	20.48
261.112	22.53
261.328	12.29
261.544	-4.1
261.761	69.63
261.977	43.01
262.193	-98.3
262.409	-6.14
262.626	77.82
262.842	38.91
263.058	-49.15
263.274	24.58
263.49	6.14
263.707	36.86
263.923	4.1
264.139	-10.24
264.355	90.11
264.571	-24.58
264.787	20.48
265.004	55.3
265.22	-10.24
265.436	12.29
265.652	-20.48
265.868	118.78
266.084	0
266.3	6.14
266.516	-8.19
266.732	16.38
266.948	63.49
267.164	47.1
267.38	4.1
267.596	81.92
267.812	155.65
268.028	36.86
268.244	-2.05
268.46	24.58
268.676	-75.77
268.892	-4.1
269.108	-12.29
269.324	0
269.54	28.67
269.756	81.92
269.972	-20.48
270.188	-30.72
270.403	-45.06
270.619	-43.01
270.835	53.25
271.051	-16.38
271.267	-10.24
271.483	-86.01
271.698	16.38
271.914	12.29
272.13	20.48
272.346	4.1
272.562	-45.06
272.777	32.77
272.993	32.77
273.209	-53.25
273.425	-14.34
273.64	-12.29
273.856	49.15
274.072	-28.67
274.287	14.34
274.503	36.86
274.719	65.53
274.934	-6.14
275.15	-34.82
275.366	22.53
275.581	-36.86
275.797	30.72
276.012	-34.82
276.228	-24.58
276.444	53.25
276.659	94.21
276.875	28.67
277.09	4.1
277.306	-4.1
277.521	6.14
277.737	4.1
277.952	22.53
278.168	55.3
278.383	12.29
278.599	-36.86
278.814	6.14
279.03	22.53
279.245	28.67
279.461	20.48
279.676	-14.34
279.892	-63.49
280.107	14.34
280.322	-36.86
280.538	-8.19
280.753	-36.86
280.969	55.3
281.184	-53.25
281.399	65.53
281.615	-45.06
281.83	61.44
282.045	-61.44
282.26	-45.06
282.476	40.96
282.691	57.34
282.906	28.67
283.122	-45.06
283.337	-45.06
283.552	20.48
283.767	26.62
283.983	65.53
284.198	-28.67
284.413	69.63
284.628	4.1
284.843	26.62
285.058	24.58
285.274	43.01
285.489	4.1
285.704	-12.29
285.919	-43.01
286.134	-32.77
286.349	-2.05
286.564	-24.58
286.779	77.82
286.995	-28.67
287.21	6.14
287.425	53.25
287.64	-12.29
287.855	36.86
288.07	-4.1
288.285	-2.05
288.5	40.96
288.715	63.49
288.93	32.77
289.145	24.58
289.36	-6.14
289.575	30.72
289.79	106.49
290.004	-59.39
290.219	57.34
290.434	-45.06
290.649	-4.1
290.864	-26.62
291.079	-38.91
291.294	20.48
291.509	38.91
291.724	34.82
291.938	36.86
292.153	20.48
292.368	-2.05
292.583	20.48
292.798	106.49
293.012	49.15
293.227	110.59
293.442	-10.24
293.657	53.25
293.871	90.11
294.086	-28.67
294.301	12.29
294.516	47.1
294.73	-18.43
294.945	-120.83
295.16	-45.06
295.374	90.11
295.589	53.25
295.804	20.48
296.018	16.38
296.233	86.01
296.447	28.67
296.662	-47.1
296.877	28.67
297.091	6.14
297.306	-20.48
297.52	36.86
297.735	22.53
297.949	57.34
298.164	26.62
298.378	73.73
298.593	16.38
298.807	-61.44
299.022	53.25
299.236	16.38
299.451	-20.48
299.665	61.44
299.88	4.1
300.094	57.34
300.309	14.34
300.523	-22.53
300.737	-40.96
300.952	71.68
301.166	12.29
301.381	-34.82
301.595	-18.43
301.809	38.91
302.024	-20.48
302.238	-26.62
302.452	47.1
302.667	12.29
302.881	67.58
303.095	71.68
303.309	20.48
303.524	45.06
303.738	28.67
303.952	12.29
304.166	67.58
304.381	38.91
304.595	51.2
304.809	4.1
305.023	0
305.237	-18.43
305.452	36.86
305.666	16.38
305.88	57.34
306.094	-8.19
306.308	14.34
306.522	8.19
306.736	63.49
306.95	120.83
307.164	69.63
307.379	28.67
307.593	151.55
307.807	102.4
308.021	30.72
308.235	69.63
308.449	-45.06
308.663	20.48
308.877	104.45
309.091	36.86
309.305	71.68
309.519	-34.82
309.733	77.82
309.947	-10.24
310.161	28.67
310.374	77.82
310.588	96.25
310.802	8.19
311.016	-12.29
311.23	45.06
311.444	34.82
311.658	-12.29
311.872	124.93
312.085	20.48
312.299	43.01
312.513	20.48
312.727	32.77
312.941	-28.67
313.154	32.77
313.368	-4.1
313.582	4.1
313.796	10.24
314.009	36.86
314.223	40.96
314.437	71.68
314.651	-4.1
314.864	-6.14
315.078	-8.19
315.292	-2.05
315.505	-12.29
315.719	24.58
315.933	-18.43
316.146	86.01
316.36	-36.86
316.573	86.01
316.787	32.77
317.001	79.87
317.214	4.1
317.428	71.68
317.641	-45.06
317.855	16.38
318.068	20.48
318.282	4.1
318.495	47.1
318.709	-18.43
318.922	-49.15
319.136	120.83
319.349	45.06
319.563	-12.29
319.776	28.67
319.99	-8.19
320.203	53.25
320.417	-40.96
320.63	-28.67
320.843	135.17
321.057	0
321.27	49.15
321.483	55.3
321.697	77.82
321.91	55.3
322.124	20.48
322.337	36.86
322.55	-49.15
322.763	65.53
322.977	-16.38
323.19	6.14
323.403	-4.1
323.617	38.91
323.83	73.73
324.043	-34.82
324.256	-34.82
324.469	-4.1
324.683	55.3
324.896	-18.43
325.109	16.38
325.322	-6.14
325.535	73.73
325.748	49.15
325.962	-16.38
326.175	-40.96
326.388	12.29
326.601	28.67
326.814	114.69
327.027	-24.58
327.24	79.87
327.453	-38.91
327.666	16.38
327.879	28.67
328.092	100.35
328.305	77.82
328.518	81.92
328.731	12.29
328.944	-6.14
329.157	69.63
329.37	77.82
329.583	83.97
329.796	88.06
330.009	-28.67
330.222	53.25
330.435	12.29
330.648	88.06
330.861	69.63
331.073	40.96
331.286	73.73
331.499	36.86
331.712	30.72
331.925	4.1
332.138	-30.72
332.35	32.77
332.563	22.53
332.776	63.49
332.989	32.77
333.202	53.25
333.414	12.29
333.627	-40.96
333.84	-4.1
334.053	22.53
334.265	49.15
334.478	-18.43
334.691	69.63
334.903	18.43
335.116	36.86
335.329	49.15
335.541	-12.29
335.754	94.21
335.966	-40.96
336.179	-32.77
336.392	59.39
336.604	-26.62
336.817	16.38
337.029	94.21
337.242	110.59
337.454	45.06
337.667	-47.1
337.88	79.87
338.092	8.19
338.305	45.06
338.517	77.82
338.729	26.62
338.942	4.1
339.154	-10.24
339.367	16.38
339.579	57.34
339.792	8.19
340.004	20.48
340.217	-6.14
340.429	14.34
340.641	12.29
340.854	-10.24
341.066	59.39
341.278	4.1
341.491	51.2
341.703	53.25
341.915	-12.29
342.128	53.25
342.34	28.67
342.552	12.29
342.764	65.53
342.977	63.49
343.189	28.67
343.401	96.25
343.613	-53.25
343.826	59.39
344.038	-51.2
344.25	20.48
344.462	20.48
344.674	69.63
344.886	-45.06
345.099	14.34
345.311	28.67
345.523	22.53
345.735	-28.67
345.947	79.87
346.159	16.38
346.371	38.91
346.583	12.29
346.795	83.97
347.007	-24.58
347.219	71.68
347.431	-2.05
347.643	75.77
347.855	-65.54
348.067	102.4
348.279	-32.77
348.491	-10.24
348.703	-28.67
348.915	14.34
349.127	-57.34
349.339	12.29
349.551	-2.05
349.763	-10.24
349.975	20.48
350.187	53.25
350.399	135.17
350.61	55.3
350.822	61.44
351.034	77.82
351.246	-14.34
351.458	12.29
351.669	26.62
351.881	86.01
352.093	73.73
352.305	83.97
352.517	65.53
352.728	18.43
352.94	-12.29
353.152	38.91
353.363	12.29
353.575	22.53
353.787	98.3
353.999	53.25
354.21	-12.29
354.422	-4.1
354.633	53.25
354.845	-10.24
355.057	-28.67
355.268	-4.1
355.48	122.88
355.692	20.48
355.903	6.14
356.115	-83.97
356.326	4.1
356.538	102.4
356.749	30.72
356.961	57.34
357.172	2.05
357.384	36.86
357.595	129.02
357.807	12.29
358.018	6.14
358.23	100.35
358.441	55.3
358.653	0
358.864	8.19
359.075	55.3
359.287	0
359.498	38.91
359.709	65.53
359.921	81.92
360.132	12.29
360.344	102.4
360.555	45.06
360.766	53.25
360.977	77.82
361.189	16.38
361.4	4.1
361.611	12.29
361.823	116.73
362.034	106.49
362.245	-77.82
362.456	-45.06
362.667	67.58
362.879	-24.58
363.09	88.06
363.301	65.53
363.512	8.19
363.723	32.77
363.935	6.14
364.146	28.67
364.357	94.21
364.568	94.21
364.779	65.53
364.99	55.3
365.201	12.29
365.412	45.06
365.623	40.96
365.834	-6.14
366.045	73.73
366.256	20.48
366.467	38.91
366.678	28.67
366.889	-45.06
367.1	-4.1
367.311	124.93
367.522	-4.1
367.733	63.49
367.944	28.67
368.155	-61.44
368.366	94.21
368.577	102.4
368.788	36.86
368.999	-49.15
369.209	32.77
369.42	165.89
369.631	126.97
369.842	151.55
370.053	6.14
370.264	65.53
370.474	120.83
370.685	18.43
370.896	0
371.107	90.11
371.317	98.3
371.528	6.14
371.739	57.34
371.95	53.25
372.16	63.49
372.371	16.38
372.582	36.86
372.792	-43.01
373.003	18.43
373.214	81.92
373.424	61.44
373.635	-94.21
373.846	45.06
374.056	-26.62
374.267	32.77
374.477	102.4
374.688	57.34
374.898	38.91
375.109	71.68
375.319	8.19
375.53	94.21
375.74	53.25
375.951	-22.53
376.161	-8.19
376.372	90.11
376.582	-18.43
376.793	61.44
377.003	-12.29
377.214	26.62
377.424	36.86
377.635	86.01
377.845	90.11
378.055	98.3
378.266	28.67
378.476	22.53
378.686	0
378.897	86.01
379.107	8.19
379.317	36.86
379.528	38.91
379.738	12.29
379.948	-69.63
380.158	47.1
380.369	94.21
380.579	6.14
380.789	65.53
380.999	14.34
381.21	20.48
381.42	110.59
381.63	-20.48
381.84	63.49
382.05	47.1
382.261	92.16
382.471	63.49
382.681	38.91
382.891	51.2
383.101	24.58
383.311	0
383.521	12.29
383.731	36.86
383.941	57.34
384.151	71.68
384.361	77.82
384.571	100.35
384.781	114.69
384.991	100.35
385.201	51.2
385.411	69.63
385.621	86.01
385.831	28.67
386.041	94.21
386.251	53.25
386.461	137.21
386.671	34.82
386.881	45.06
387.091	83.97
387.301	81.92
387.511	32.77
387.72	83.97
387.93	71.68
388.14	0
388.35	114.69
388.56	73.73
388.769	100.35
388.979	63.49
389.189	22.53
389.399	120.83
389.609	71.68
389.818	16.38
390.028	30.72
390.238	118.78
390.447	12.29
390.657	53.25
390.867	34.82
391.076	16.38
391.286	98.3
391.496	18.43
391.705	110.59
391.915	88.06
392.125	92.16
392.334	92.16
392.544	26.62
392.753	63.49
392.963	6.14
393.172	55.3
393.382	53.25
393.591	73.73
393.801	2.05
394.01	88.06
394.22	30.72
394.429	47.1
394.639	57.34
394.848	83.97
395.058	73.73
395.267	61.44
395.477	49.15
395.686	110.59
395.895	184.32
396.105	81.92
396.314	137.21
396.524	53.25
396.733	14.34
396.942	69.63
397.152	129.02
397.361	77.82
397.57	69.63
397.78	126.97
397.989	24.58
398.198	94.21
398.407	90.11
398.617	114.69
398.826	69.63
399.035	104.45
399.244	118.78
399.453	147.45
399.663	65.53
399.872	110.59
400.081	18.43
400.29	178.17
400.499	40.96
400.708	159.74
400.917	55.3
401.127	133.12
401.336	65.53
401.545	172.03
401.754	159.74
401.963	169.98
402.172	88.06
402.381	126.97
402.59	73.73
402.799	184.32
403.008	186.37
403.217	102.4
403.426	104.45
403.635	81.92
403.844	169.98
404.053	180.22
404.262	81.92
404.471	186.37
404.68	159.74
404.888	147.45
405.097	81.92
405.306	126.97
405.515	169.98
405.724	212.99
405.933	161.79
406.142	163.84
406.35	272.38
406.559	151.55
406.768	153.6
406.977	262.14
407.185	235.52
407.394	235.52
407.603	264.19
407.812	251.9
408.02	245.76
408.229	182.27
408.438	245.76
408.646	208.89
408.855	245.76
409.064	219.13
409.272	231.42
409.481	397.31
409.69	286.72
409.898	241.66
410.107	270.33
410.315	366.59
410.524	317.44
410.733	399.35
410.941	358.39
411.15	452.6
411.358	301.05
411.567	473.08
411.775	413.69
411.984	473.08
412.192	419.83
412.401	464.89
412.609	464.89
412.818	540.66
413.026	622.58
413.234	528.38
413.443	511.99
413.651	561.14
413.86	602.1
414.068	618.49
414.276	765.94
414.485	626.68
414.693	724.98
414.901	790.52
415.11	872.43
415.318	753.65
415.526	765.94
415.734	880.63
415.943	899.06
416.151	974.83
416.359	839.67
416.567	999.41
416.776	1062.9
416.984	1023.98
417.192	1173.49
417.4	1093.62
417.608	1030.13
417.817	1126.38
418.025	1224.69
418.233	1183.73
418.441	1159.15
418.649	1263.6
418.857	1474.54
419.065	1370.09
419.273	1376.23
419.481	1568.74
419.689	1636.33
419.897	1626.09
420.105	1650.66
420.313	1798.12
420.521	1828.84
420.729	1837.03
420.937	1900.51
421.145	1875.94
421.353	1998.82
421.561	2076.64
421.769	2242.53
421.977	2260.96
422.185	2244.57
422.393	2389.98
422.601	2545.63
422.809	2398.17
423.017	2461.66
423.224	2596.82
423.432	2781.14
423.64	2865.11
423.848	2994.13
424.056	2922.45
424.263	3108.82
424.471	3149.78
424.679	3084.24
424.887	3334.09
425.094	3483.59
425.302	3338.19
425.51	3450.83
425.718	3766.21
425.925	3811.27
426.133	3909.57
426.341	3966.92
426.548	4267.97
426.756	4378.56
426.964	4337.6
427.171	4657.08
427.379	4673.46
427.586	4880.31
427.794	4796.34
428.001	5173.17
428.209	5232.56
428.417	5210.03
428.624	5617.58
428.832	5728.17
429.039	5599.15
429.247	5480.36
429.454	6096.8
429.662	6324.13
429.869	6344.61
430.076	6436.77
430.284	6412.19
430.491	6696.86
430.699	7055.25
430.906	7006.1
431.114	7075.73
431.321	7298.96
431.528	7526.29
431.736	7905.16
431.943	8419.2
432.15	8189.83
432.358	8286.08
432.565	8613.76
432.772	8402.82
432.979	9107.32
433.187	9166.71
433.394	9191.28
433.601	9918.31
433.808	9946.98
434.016	9961.32
434.223	10211.17
434.43	10989.4
434.637	10559.33
434.844	11194.2
435.052	11298.64
435.259	11378.51
435.466	11618.13
435.673	11476.82
435.88	12162.89
436.087	12580.67
436.294	12640.06
436.501	12490.56
436.708	12740.41
436.915	13023.03
437.122	13561.65
437.329	13993.77
437.537	14112.55
437.743	14323.49
437.95	14133.03
438.157	15228.7
438.364	15527.7
438.571	15249.18
438.778	15548.18
438.985	16842.49
439.192	16367.37
439.399	16815.87
439.606	16289.54
439.813	17360.63
440.02	18476.77
440.227	17862.38
440.433	17940.21
440.64	18769.63
440.847	18370.28
441.054	18622.18
441.261	19637.97
441.467	19576.53
441.674	19990.22
441.881	21006.02
442.088	20692.68
442.294	20408.01
442.501	20934.34
442.708	21532.34
442.914	22455.98
443.121	23197.34
443.328	22492.84
443.534	24090.26
443.741	23572.12
443.948	23305.88
444.154	24723.08
444.361	24893.06
444.568	24993.41
444.774	24888.96
444.981	25357.95
445.187	25808.5
445.394	27074.15
445.6	26588.78
445.807	29089.35
446.013	27674.2
446.22	28622.41
446.426	29271.62
446.633	29998.65
446.839	30858.79
447.046	29494.85
447.252	31084.07
447.459	31092.26
447.665	31141.41
447.871	32900.62
448.078	33758.72
448.284	32142.87
448.491	33469.95
448.697	34358.77
448.903	35239.4
449.11	34805.23
449.316	34721.26
449.522	35413.48
449.728	36124.12
449.935	36351.45
450.141	36959.69
450.347	37029.32
450.553	35755.49
450.76	36431.32
450.966	38086.07
451.172	37320.13
451.378	38876.59
451.584	37715.39
451.791	38389.17
451.997	38596.02
452.203	39003.56
452.409	39044.52
452.615	39083.44
452.821	37070.28
453.027	36937.16
453.233	39189.93
453.44	36990.41
453.646	37424.58
453.852	37934.53
454.058	38815.15
454.264	37438.92
454.47	38258.1
454.676	37348.81
454.882	38766
455.088	35354.08
455.294	35735.01
455.5	36302.29
455.705	36685.26
455.911	35030.51
456.117	34248.18
456.323	34217.46
456.529	32046.62
456.735	33621.5
456.941	32812.56
457.147	32159.25
457.352	31260.2
457.558	31165.99
457.764	31231.52
457.97	30150.2
458.176	29507.13
458.381	29640.25
458.587	28374.61
458.793	28165.71
458.999	26791.53
459.204	28511.82
459.41	28175.95
459.616	25910.9
459.821	25917.04
460.027	25919.09
460.233	25489.02
460.438	24149.65
460.644	24659.59
460.85	23467.67
461.055	22916.77
461.261	22802.08
461.466	21280.44
461.672	20539.08
461.878	22138.54
462.083	20438.73
462.289	20070.09
462.494	19922.64
462.7	19013.34
462.905	18521.83
463.111	18833.12
463.316	19291.87
463.522	18728.67
463.727	18767.59
463.932	18648.8
464.138	18468.58
464.343	18321.13
464.549	17952.49
464.754	18560.74
464.959	18333.42
465.165	18212.59
465.37	17235.71
465.575	16953.09
465.781	17561.33
465.986	17694.45
466.191	17061.63
466.397	16819.97
466.602	15935.24
466.807	16387.85
467.012	16584.45
467.218	16609.03
467.423	16097.03
467.628	16146.19
467.833	17006.33
468.038	16131.85
468.244	16000.78
468.449	16611.07
468.654	15781.65
468.859	15675.15
469.064	15580.95
469.269	15159.06
469.474	15097.63
469.679	15484.69
469.885	14913.31
470.09	15103.77
470.295	15179.54
470.5	14470.95
470.705	14749.47
470.91	14503.71
471.115	14409.51
471.32	14491.43
471.525	14612.26
471.73	14352.16
471.935	14112.55
472.139	13340.47
472.344	13745.97
472.549	13530.93
472.754	13442.87
472.959	13256.5
473.164	12797.76
473.369	12869.44
473.574	13143.86
473.778	13147.96
473.983	12945.21
474.188	12652.35
474.393	12390.21
474.598	12324.68
474.802	12240.71
475.007	12156.74
475.212	12046.15
475.417	11540.3
475.621	11589.46
475.826	11874.12
476.031	11595.6
476.235	11286.36
476.44	11566.93
476.645	11288.4
476.849	11480.91
477.054	11171.67
477.259	10954.58
477.463	10954.58
477.668	10579.81
477.872	10901.34
478.077	10590.05
478.282	10338.15
478.486	10295.14
478.691	10258.28
478.895	10100.58
479.1	10088.29
479.304	10286.95
479.509	9809.77
479.713	10063.72
479.918	9813.87
480.122	9627.5
480.326	9697.13
480.531	9838.44
480.735	9670.51
480.94	9514.86
481.144	9883.5
481.348	9199.48
481.553	9506.67
481.757	9338.74
481.961	9590.64
482.166	9674.6
482.37	9492.34
482.574	9179
482.778	9269.11
482.983	9555.82
483.187	9334.64
483.391	9320.31
483.595	9416.56
483.8	9140.08
484.004	9232.24
484.208	9420.66
484.412	9346.93
484.616	9381.74
484.821	9371.5
485.025	9146.23
485.229	9211.76
485.433	9133.94
485.637	9283.44
485.841	9219.96
486.045	9138.04
486.249	9473.9
486.453	9271.15
486.657	9295.73
486.861	9426.8
487.065	9017.21
487.269	9289.59
487.473	9152.37
487.677	9236.34
487.881	9387.89
488.085	9099.13
488.289	9381.74
488.493	9303.92
488.697	9330.55
488.901	9215.86
489.105	9262.96
489.309	9273.2
489.512	9232.24
489.716	9400.18
489.92	9353.07
490.124	9391.98
490.328	9289.59
490.531	9318.26
490.735	9389.94
490.939	9545.58
491.143	9516.91
491.346	9359.22
491.55	9351.03
491.754	9473.9
491.958	9664.36
492.161	9482.1
492.365	9490.29
492.569	9537.39
492.772	9428.85
492.976	9643.88
493.18	9707.37
493.383	9930.6
493.587	9844.59
493.79	9799.53
493.994	9711.47
494.197	9924.46
494.401	10098.53
494.605	9957.22
494.808	10151.78
495.012	10155.88
495.215	10286.95
495.419	10458.98
495.622	10284.9
495.825	10493.79
496.029	10262.37
496.232	10600.29
496.436	10520.42
496.639	10807.13
496.843	10776.41
497.046	10645.34
497.249	10964.82
497.453	10942.3
497.656	11110.23
497.859	11261.78
498.063	11376.47
498.266	11403.09
498.469	11485.01
498.673	11433.81
498.876	11773.77
499.079	12023.62
499.282	11589.46
499.485	12291.91
499.689	12015.43
499.892	12445.51
500.095	12242.76
500.298	12488.51
500.501	12582.72
500.705	12777.28
500.908	13023.03
501.111	12885.82
501.314	13178.68
501.517	13363
501.72	13516.59
501.923	13496.11
502.126	13598.51
502.329	13944.62
502.532	13823.79
502.735	13934.38
502.938	14235.43
503.141	14462.76
503.344	14473
503.547	14659.36
503.75	14921.5
503.953	14860.06
504.156	15071
504.359	14997.28
504.562	15582.99
504.765	15400.73
504.968	15638.29
505.17	15922.96
505.373	15759.12
505.576	15806.22
505.779	15898.38
505.982	16355.08
506.185	16766.72
506.387	16729.86
506.59	16793.34
506.793	17186.55
506.996	17006.33
507.198	17635.06
507.401	17620.72
507.604	17991.41
507.807	18108.14
508.009	18028.27
508.212	18243.31
508.415	18632.42
508.617	18575.08
508.82	18796.26
509.022	18677.48
509.225	19201.76
509.428	19361.5
509.63	19623.64
509.833	19365.59
510.035	19873.49
510.238	20061.9
510.44	20162.25
510.643	20481.74
510.845	20446.92
511.048	20682.44
511.25	21036.74
511.453	20883.14
511.655	21528.25
511.858	21348.03
512.06	21640.89
512.262	21733.04
512.465	21851.83
512.667	22030
512.87	22380.2
513.072	22630.05
513.274	22965.92
513.477	23015.07
513.679	23498.39
513.881	23555.74
514.084	23680.66
514.286	23860.88
514.488	23932.56
514.69	24669.83
514.893	24637.06
515.095	24805
515.297	24874.63
515.499	25196.16
515.701	25368.19
515.904	25513.59
516.106	25605.75
516.308	25824.89
516.51	25761.4
516.712	26318.45
516.914	26508.91
517.116	26885.73
517.318	26834.53
517.52	26850.92
517.722	26959.46
517.925	27571.8
518.127	27926.1
518.329	28104.28
518.531	27928.15
518.733	28409.42
518.935	28601.93
519.136	28687.95
519.338	28833.35
519.54	29064.77
519.742	29079.11
519.944	29449.79
520.146	30035.51
520.348	29920.82
520.55	29603.39
520.752	29902.39
520.954	30281.27
521.155	30250.55
521.357	31090.21
521.559	30815.79
521.761	31424.03
521.963	30879.27
522.164	31295.01
522.366	31055.4
522.568	31440.42
522.77	31686.17
522.971	32083.48
523.173	31731.23
523.375	32329.23
523.576	32165.4
523.778	32011.8
523.98	32681.49
524.181	32861.71
524.383	32394.77
524.584	32957.96
524.786	33015.3
524.988	32777.74
525.189	33347.08
525.391	33412.61
525.592	33123.85
525.794	33250.82
525.995	33582.59
526.197	33310.21
526.398	33439.23
526.6	33459.71
526.801	33920.51
527.003	33613.31
527.204	33754.62
527.406	34211.32
527.607	33629.69
527.808	34143.73
528.01	33527.3
528.211	33943.03
528.412	34375.16
528.614	34043.38
528.815	33834.49
529.016	34487.79
529.218	34221.56
529.419	33875.45
529.62	34092.54
529.822	34219.51
530.023	34350.58
530.224	34194.93
530.425	34285.04
530.626	33971.71
530.828	34029.05
531.029	34452.98
531.23	33906.17
531.431	34024.95
531.632	34237.94
531.833	34196.98
532.035	34094.58
532.236	33852.92
532.437	34160.12
532.638	33775.1
532.839	34344.44
533.04	34135.54
533.241	33908.22
533.442	34321.91
533.643	33621.5
533.844	33981.95
534.045	33887.74
534.246	33588.74
534.447	33971.71
534.648	33693.18
534.849	34000.38
535.05	33515.01
535.251	33768.96
535.451	33674.75
535.652	33693.18
535.853	33603.07
536.054	33799.68
536.255	33738.24
536.456	33406.47
536.657	34203.13
536.857	33349.12
537.058	33547.78
537.259	33738.24
537.46	33248.77
537.66	33232.39
537.861	33451.52
538.062	32927.24
538.263	33402.37
538.463	33168.9
538.664	33480.19
538.865	33539.58
539.065	33744.38
539.266	32982.54
539.466	33259.01
539.667	32804.36
539.868	33500.67
540.068	33381.89
540.269	32986.63
540.469	33054.22
540.67	32771.6
540.87	33289.73
541.071	32710.16
541.271	32853.51
541.472	33074.7
541.672	32798.22
541.873	32845.32
542.073	32701.97
542.274	33299.97
542.474	32626.19
542.675	32382.48
542.875	33033.74
543.075	32671.25
543.276	32566.8
543.476	32773.64
543.676	32376.34
543.877	32380.43
544.077	32787.98
544.277	32716.3
544.478	32636.43
544.678	32810.51
544.878	32644.62
545.078	32419.35
545.279	32589.33
545.479	32355.86
545.679	32656.91
545.879	33099.27
546.079	32667.15
546.28	32562.7
546.48	32384.53
546.68	32751.12
546.88	32851.47
547.08	32413.2
547.28	32732.68
547.48	32273.94
547.68	32710.16
547.88	32265.75
548.081	32658.96
548.281	32531.98
548.481	32114.2
548.681	32792.08
548.881	32566.8
549.081	32433.68
549.28	32531.98
549.48	32589.33
549.68	32626.19
549.88	32531.98
550.08	32325.14
550.28	32511.5
550.48	32134.68
550.68	32730.64
550.88	32079.38
551.08	32271.89
551.279	32495.12
551.479	32097.81
551.679	32325.14
551.879	32595.47
552.079	32650.77
552.278	32628.24
552.478	32452.11
552.678	32484.88
552.878	32984.58
553.077	32685.58
553.277	32138.77
553.477	32714.25
553.676	32462.35
553.876	32773.64
554.076	32212.5
554.275	32464.4
554.475	32370.19
554.674	32744.97
554.874	32583.18
555.074	32566.8
555.273	32808.46
555.473	32790.03
555.672	32501.26
555.872	33043.98
556.071	32486.93
556.271	32882.19
556.47	32806.41
556.67	32398.87
556.869	32859.66
557.068	32892.43
557.268	32618
557.467	32894.47
557.667	32855.56
557.866	32974.34
558.065	32830.99
558.265	32675.34
558.464	32906.76
558.663	33205.77
558.863	32564.75
559.062	32818.7
559.261	32503.31
559.461	33000.97
559.66	32534.03
559.859	32638.48
560.058	32343.57
560.258	32742.92
560.457	32661.01
560.656	33076.74
560.855	32523.79
561.054	32968.2
561.253	32505.36
561.453	33054.22
561.652	32577.04
561.851	32845.32
562.05	32497.17
562.249	32515.6
562.448	32734.73
562.647	32603.66
562.846	32595.47
563.045	32718.35
563.244	32511.5
563.443	32515.6
563.642	32089.62
563.841	32681.49
564.04	32427.54
564.239	32611.85
564.438	32329.23
564.637	32519.7
564.836	32529.94
565.035	32171.54
565.234	32462.35
565.432	32140.82
565.631	32126.49
565.83	32425.49
566.029	32341.52
566.228	32142.87
566.427	32353.81
566.625	32065.05
566.824	31854.11
567.023	32237.08
567.222	31450.66
567.42	32052.76
567.619	31862.3
567.818	31725.08
568.016	31815.19
568.215	31759.9
568.414	31487.52
568.612	31929.88
568.811	31626.78
569.01	31735.32
569.208	31227.43
569.407	31499.81
569.605	31225.38
569.804	31471.14
570.002	30922.28
570.201	31147.56
570.4	31237.67
570.598	31055.4
570.797	30983.72
570.995	31508
571.193	30651.95
571.392	30936.62
571.59	30400.05
571.789	30746.15
571.987	30582.32
572.186	30328.37
572.384	30443.06
572.582	30580.27
572.781	30518.83
572.979	30207.54
573.177	30324.27
573.376	30213.68
573.574	30289.46
573.772	30074.42
573.971	30088.76
574.169	30264.88
574.367	29720.12
574.565	30307.89
574.763	29576.76
574.962	29453.89
575.16	29283.91
575.358	29812.28
575.556	29427.26
575.754	29576.76
575.952	29048.39
576.151	29562.43
576.349	28945.99
576.547	28964.42
576.745	29320.77
576.943	29443.65
577.141	28925.51
577.339	28919.37
577.537	28855.88
577.735	28984.9
577.933	28554.83
578.131	28528.2
578.329	28448.33
578.527	28237.39
578.725	28571.21
578.923	28266.06
579.121	27856.47
579.319	28354.13
579.516	27907.67
579.714	28237.39
579.912	27682.39
580.11	27678.3
580.308	27899.48
580.506	27536.99
580.704	27059.81
580.901	27872.85
581.099	27790.94
581.297	27229.79
581.495	27346.53
581.692	27463.26
581.89	26914.41
582.088	27379.29
582.285	27008.61
582.483	27422.3
582.681	26891.88
582.878	27070.05
583.076	26793.58
583.274	26916.45
583.471	26936.93
583.669	26781.29
583.866	26656.36
584.064	26685.03
584.262	26437.23
584.459	26672.74
584.657	26617.45
584.854	26674.79
585.052	26113.65
585.249	26330.73
585.447	26617.45
585.644	26037.87
585.841	25884.28
586.039	26158.7
586.236	25521.79
586.434	26220.14
586.631	25650.81
586.828	26039.92
587.026	25892.47
587.223	25497.21
587.42	25683.58
587.618	25704.06
587.815	25513.59
588.012	25423.48
588.21	25163.39
588.407	25759.35
588.604	25327.23
588.801	25128.58
588.999	25263.74
589.196	24899.2
589.393	25165.44
589.59	24981.12
589.787	24749.7
589.984	24852.1
590.182	24456.84
590.379	24940.16
590.576	24825.48
590.773	24643.21
590.97	24579.72
591.167	24798.85
591.364	24639.11
591.561	24698.5
591.758	24360.59
591.955	24231.57
592.152	24358.54
592.349	24282.77
592.546	24510.09
592.743	24469.13
592.94	24147.6
593.137	24020.63
593.334	24381.07
593.531	24096.4
593.727	24260.24
593.924	24071.82
594.121	23996.05
594.318	24194.7
594.515	23809.68
594.712	23727.77
594.908	23912.08
595.105	23895.7
595.302	23783.06
595.499	23850.64
595.696	23680.66
595.892	23441.05
596.089	23680.66
596.286	23856.79
596.482	23541.4
596.679	23545.5
596.876	23455.39
597.072	23645.85
597.269	23531.16
597.466	23490.2
597.662	23443.1
597.859	23346.84
598.055	23307.93
598.252	23412.38
598.448	23422.62
598.645	23371.42
598.841	23266.97
599.038	23439
599.234	23424.67
599.431	23027.36
599.627	23111.33
599.824	23496.35
600.02	23340.7
600.217	23183.01
600.413	22955.68
600.609	23170.72
600.806	23465.63
601.002	23608.98
601.198	23391.9
601.395	23475.87
601.591	23244.45
601.787	23496.35
601.984	23088.8
602.18	23649.94
602.376	23248.54
602.572	23125.66
602.769	23250.59
602.965	22800.04
603.161	23340.7
603.357	23389.85
603.553	23293.6
603.75	23150.24
603.946	23398.04
604.142	23377.56
604.338	23103.14
604.534	23287.45
604.73	23355.04
604.926	23223.97
605.122	23273.12
605.318	23430.81
605.514	23207.58
605.71	23301.79
605.906	23570.07
606.102	23619.22
606.298	23543.45
606.494	23418.52
606.69	23439
606.886	23617.18
607.082	23529.11
607.278	23563.93
607.474	23088.8
607.67	23697.05
607.866	23625.37
608.062	23656.09
608.257	23703.19
608.453	23758.49
608.649	23633.56
608.845	23559.83
609.041	23692.95
609.236	24002.19
609.432	23795.35
609.628	23854.74
609.824	23674.52
610.019	23805.59
610.215	24016.53
610.411	24145.55
610.606	23799.44
610.802	24094.35
610.998	24170.13
611.193	23842.45
611.389	24073.87
611.584	24063.63
611.78	24276.62
611.976	24176.27
612.171	24389.26
612.367	24120.98
612.562	24102.54
612.758	23848.6
612.953	23981.71
613.149	24284.81
613.344	24305.29
613.539	24460.94
613.735	24372.88
613.93	24147.6
614.126	24370.83
614.321	24671.88
614.517	24352.4
614.712	24235.66
614.907	24002.19
615.103	24264.33
615.298	24327.82
615.493	24448.65
615.688	24311.44
615.884	24938.12
616.079	24182.42
616.274	24311.44
616.47	24665.74
616.665	24751.75
616.86	24381.07
617.055	24090.26
617.25	24346.25
617.445	24641.16
617.641	23961.23
617.836	24333.96
618.031	23938.71
618.226	24561.29
618.421	24125.07
618.616	24231.57
618.811	24090.26
619.006	24342.16
619.201	23885.46
619.396	24268.43
619.591	23635.61
619.786	24045.2
619.981	23395.99
620.176	23559.83
620.371	23639.7
620.566	23584.41
620.761	23457.43
620.956	23463.58
621.151	23471.77
621.346	23678.61
621.541	23017.12
621.735	23588.5
621.93	22894.24
622.125	23109.28
622.32	22642.34
622.515	22967.97
622.709	22654.63
622.904	22695.59
623.099	22689.45
623.294	22716.07
623.488	22197.93
623.683	22580.9
623.878	22107.82
624.072	22142.64
624.267	22572.71
624.462	22148.78
624.656	21817.01
624.851	21763.76
625.046	21747.38
625.24	21536.44
625.435	21550.78
625.629	21624.5
625.824	21239.48
626.018	21372.6
626.213	21302.97
626.407	21333.69
626.602	20856.51
626.796	21171.9
626.991	20817.6
627.185	20508.36
627.38	20213.45
627.574	20459.21
627.768	20311.75
627.963	20229.84
628.157	20190.92
628.352	20483.78
628.546	20022.99
628.74	20043.47
628.935	19756.75
629.129	19640.02
629.323	19732.18
629.517	19582.68
629.712	19295.96
629.906	19265.24
630.1	19310.3
630.294	19277.53
630.489	19181.28
630.683	19085.02
630.877	18716.39
631.071	19058.4
631.265	18845.41
631.459	18499.3
631.653	18609.89
631.848	18458.34
632.042	18331.37
632.236	18599.65
632.43	17966.83
632.624	18147.05
632.818	18058.99
633.012	17872.62
633.206	17817.33
633.4	17927.92
633.594	17792.75
633.788	17622.77
633.982	17749.75
634.176	17532.66
634.369	17671.92
634.563	17463.03
634.757	17100.54
634.951	17426.17
635.145	17207.03
635.339	17057.53
635.533	17075.96
635.726	16871.17
635.92	16707.33
636.114	16916.22
636.308	16346.89
636.501	16498.44
636.695	16289.54
636.889	16387.85
637.083	16281.35
637.276	16097.03
637.47	15949.58
637.664	15945.48
637.857	15894.29
638.051	15953.68
638.244	15814.41
638.438	15654.67
638.632	15556.37
638.825	15185.69
639.019	15306.52
639.212	15007.51
639.406	15341.33
639.599	15111.96
639.793	15042.33
639.986	14831.39
640.18	14919.45
640.373	14774.05
640.567	14473
640.76	14585.63
640.954	14405.41
641.147	14245.67
641.34	14260.01
641.534	14401.32
641.727	14415.65
641.92	14167.85
642.114	13987.63
642.307	13848.36
642.5	13702.96
642.694	13766.45
642.887	13592.37
643.08	13553.46
643.273	13438.77
643.467	13338.42
643.66	13401.91
643.853	13078.33
644.046	13012.79
644.239	13195.06
644.432	13186.87
644.626	12863.29
644.819	12777.28
645.012	12687.17
645.205	12816.19
645.398	12615.49
645.591	12429.12
645.784	12570.43
645.977	12461.89
646.17	12326.72
646.363	12388.16
646.556	12005.19
646.749	12160.84
646.942	12152.65
647.135	12156.74
647.328	12042.06
647.521	11812.68
647.714	11738.96
647.907	11663.18
648.099	11704.14
648.292	11548.5
648.485	11433.81
648.678	11317.08
648.871	11425.62
649.064	11323.22
649.256	11165.53
649.449	11206.48
649.642	11114.33
649.835	11048.79
650.027	10790.75
650.22	11075.41
650.413	10811.23
650.605	10938.2
650.798	10708.83
650.991	10835.8
651.183	10731.36
651.376	10530.66
651.568	10583.9
651.761	10497.89
651.954	10358.63
652.146	10145.64
652.339	10422.11
652.531	10504.03
652.724	10223.46
652.916	10071.91
653.109	10116.97
653.301	9873.26
653.494	10112.87
653.686	9858.92
653.879	9940.84
654.071	9910.12
654.263	9701.23
654.456	9856.87
654.648	9838.44
654.84	9615.21
655.033	9564.01
655.225	9564.01
655.417	9445.23
655.61	9246.58
655.802	9394.03
655.994	9373.55
656.186	9535.34
656.379	9291.63
656.571	9164.66
656.763	9351.03
656.955	9232.24
657.148	9125.75
657.34	9172.85
657.532	8716.15
657.724	8755.07
657.916	8914.81
658.108	8701.82
658.3	8753.02
658.492	8728.44
658.684	8570.75
658.876	8632.19
659.068	8341.38
659.26	8482.69
659.452	8617.85
659.644	8427.39
659.836	8359.81
660.028	8398.72
660.22	8187.78
660.412	8138.63
660.604	8269.7
660.796	8060.8
660.988	8148.87
661.18	7939.97
661.372	7958.41
661.563	7933.83
661.755	7913.35
661.947	7837.58
662.139	7868.3
662.331	7798.66
662.522	7643.02
662.714	7733.13
662.906	7393.17
663.097	7657.36
663.289	7387.02
663.481	7524.24
663.673	7434.13
663.864	7401.36
664.056	7405.45
664.247	7356.3
664.439	7237.52
664.631	7528.33
664.822	7333.78
665.014	6999.96
665.205	7016.34
665.397	7223.19
665.588	7020.44
665.78	7128.98
665.971	7057.3
666.163	7083.92
666.354	6801.3
666.546	6852.5
666.737	6795.16
666.929	6864.79
667.12	6795.16
667.311	6827.93
667.503	6625.18
667.694	6649.75
667.885	6659.99
668.077	6758.3
668.268	6567.84
668.459	6440.86
668.651	6377.37
668.842	6436.77
669.033	6418.33
669.224	6281.12
669.416	6426.53
669.607	6381.47
669.798	6442.91
669.989	6360.99
670.18	6340.51
670.371	6223.78
670.563	6164.39
670.754	6311.84
670.945	6172.58
671.136	6145.95
671.327	6242.21
671.518	6051.75
671.709	6109.09
671.9	6205.35
672.091	6049.7
672.282	6057.89
672.473	6037.41
672.664	6051.75
672.855	5869.48
673.046	5935.01
673.237	5889.96
673.428	5787.56
673.619	6055.84
673.809	5916.58
674	5861.29
674.191	5871.53
674.382	5756.84
674.573	5853.09
674.764	5926.82
674.954	5646.25
675.145	5724.07
675.336	5711.78
675.527	5660.59
675.717	5582.76
675.908	5609.39
676.099	5719.98
676.289	5640.11
676.48	5664.68
676.671	5339.05
676.861	5676.97
677.052	5517.23
677.243	5572.52
677.433	5476.27
677.624	5414.83
677.814	5324.72
678.005	5552.04
678.195	5470.12
678.386	5304.24
678.576	5414.83
678.767	5414.83
678.957	5435.31
679.148	5502.89
679.338	5382.06
679.529	5353.39
679.719	5357.49
679.909	5435.31
680.1	5124.02
680.29	5230.51
680.481	5279.66
680.671	5306.29
680.861	5222.32
681.052	5357.49
681.242	5281.71
681.432	5394.35
681.622	5207.98
681.813	5142.45
682.003	5240.75
682.193	5255.09
682.383	5238.7
682.573	5216.18
682.764	5173.17
682.954	5156.79
683.144	5175.22
683.334	5226.42
683.524	5291.95
683.714	5210.03
683.904	5083.06
684.094	5121.97
684.284	5068.72
684.474	5134.26
684.664	5031.86
684.854	5076.91
685.044	5044.15
685.234	5183.41
685.424	5095.35
685.614	4911.03
685.804	5011.38
685.994	5001.14
686.184	5050.29
686.374	4892.6
686.564	4900.79
686.753	5052.34
686.943	4915.12
687.133	4870.07
687.323	4997.04
687.513	5050.29
687.702	4822.97
687.892	4894.65
688.082	4829.11
688.272	4937.65
688.461	4931.51
688.651	4939.7
688.841	4718.52
689.03	4884.41
689.22	4818.87
689.41	4890.55
689.599	4882.36
689.789	4896.69
689.979	4763.58
690.168	4784.05
690.358	4698.04
690.547	4648.89
690.737	4915.12
690.926	4792.25
691.116	4569.02
691.305	4632.51
691.495	4573.11
691.684	4665.27
691.874	4616.12
692.063	4665.27
692.252	4640.7
692.442	4612.03
692.631	4548.54
692.82	4618.17
693.01	4560.83
693.199	4507.58
693.388	4466.62
693.578	4519.87
693.767	4566.97
693.956	4480.96
694.146	4356.03
694.335	4409.28
694.524	4452.28
694.713	4362.17
694.902	4227.01
695.092	4505.53
695.281	4310.97
695.47	4411.32
695.659	4419.52
695.848	4198.34
696.037	4446.14
696.226	4403.13
696.415	4405.18
696.604	4356.03
696.793	4288.45
696.982	4396.99
697.171	4345.79
697.36	4272.06
697.549	4132.8
697.738	4157.38
697.927	4239.3
698.116	4337.6
698.305	4149.18
698.494	4069.31
698.683	4249.54
698.872	4333.5
699.061	4282.3
699.25	4272.06
699.438	4112.32
699.627	4241.34
699.816	4161.47
700.005	4102.08
700.193	3997.63
700.382	4149.18
700.571	4034.5
700.76	4061.12
700.948	4069.31
701.137	3958.72
701.326	4153.28
701.514	4087.75
701.703	4085.7
701.892	3962.82
702.08	4018.11
702.269	4079.55
702.457	3928
702.646	3985.35
702.834	3938.24
703.023	3971.01
703.212	3956.68
703.4	3919.81
703.589	3907.52
703.777	3895.24
703.965	3934.15
704.154	3899.33
704.342	3911.62
704.531	3839.94
704.719	3772.36
704.907	3938.24
705.096	3813.32
705.284	3792.84
705.472	3727.3
705.661	3682.25
705.849	3848.13
706.037	3821.51
706.226	3796.93
706.414	3690.44
706.602	3686.34
706.79	3706.82
706.979	3801.03
707.167	3657.67
707.355	3665.86
707.543	3698.63
707.731	3844.04
707.919	3674.06
708.107	3608.52
708.296	3520.46
708.484	3493.83
708.672	3592.14
708.86	3649.48
709.048	3485.64
709.236	3637.19
709.424	3579.85
709.612	3643.34
709.8	3555.27
709.988	3481.55
710.176	3561.42
710.364	3551.18
710.551	3383.24
710.739	3477.45
710.927	3387.34
711.115	3354.57
711.303	3485.64
711.491	3489.74
711.679	3473.35
711.866	3469.26
712.054	3350.48
712.242	3330
712.43	3366.86
712.617	3469.26
712.805	3362.76
712.993	3246.03
713.181	3280.85
713.368	3330
713.556	3379.15
713.744	3266.51
713.931	3542.99
714.119	3317.71
714.306	3362.76
714.494	3205.07
714.682	3164.11
714.869	3176.4
715.057	3272.65
715.244	3131.34
715.432	3229.65
715.619	3233.74
715.807	3108.82
715.994	3141.58
716.182	3174.35
716.369	3137.49
716.556	3018.71
716.744	3098.58
716.931	3160.02
717.119	3143.63
717.306	3051.47
717.493	3080.14
717.681	3147.73
717.868	3100.62
718.055	3110.86
718.242	3117.01
718.43	3049.43
718.617	3030.99
718.804	2947.03
718.991	3030.99
719.179	3045.33
719.366	3102.67
719.553	2949.07
719.74	3024.85
719.927	2899.92
720.114	2990.03
720.301	2787.29
720.488	2830.29
720.676	2926.55
720.863	2906.07
721.05	2766.81
721.237	2834.39
721.424	2899.92
721.611	2838.48
721.798	2822.1
721.985	2789.33
722.172	2772.95
722.358	2760.66
722.545	2783.19
722.732	2772.95
722.919	2869.2
723.106	2766.81
723.293	2711.51
723.48	2586.58
723.667	2756.57
723.853	2703.32
724.04	2682.84
724.227	2707.41
724.414	2637.78
724.6	2578.39
724.787	2719.7
724.974	2729.94
725.161	2557.91
725.347	2600.92
725.534	2715.61
725.72	2725.85
725.907	2635.74
726.094	2641.88
726.28	2547.67
726.467	2592.73
726.653	2686.93
726.84	2588.63
727.027	2635.74
727.213	2537.43
727.4	2574.3
727.586	2605.02
727.773	2537.43
727.959	2676.7
728.145	2471.9
728.332	2502.62
728.518	2426.84
728.705	2605.02
728.891	2471.9
729.077	2504.67
729.264	2504.67
729.45	2371.55
729.636	2588.63
729.823	2510.81
730.009	2555.86
730.195	2453.47
730.382	2457.56
730.568	2357.21
730.754	2461.66
730.94	2453.47
731.126	2461.66
731.313	2408.41
731.499	2365.4
731.685	2404.32
731.871	2355.16
732.057	2226.14
732.243	2516.95
732.429	2349.02
732.615	2439.13
732.801	2385.88
732.987	2310.11
733.173	2367.45
733.359	2326.49
733.545	2267.1
733.731	2316.25
733.917	2355.16
734.103	2369.5
734.289	2334.68
734.475	2195.42
734.661	2336.73
734.847	2363.36
735.033	2293.72
735.219	2392.03
735.404	2306.01
735.59	2183.13
735.776	2113.5
735.962	2234.33
736.148	2242.53
736.333	2133.98
736.519	2228.19
736.705	2176.99
736.89	2181.09
737.076	2260.96
737.262	2117.6
737.447	2232.29
737.633	2127.84
737.819	2338.78
738.004	2174.94
738.19	2228.19
738.375	2207.71
738.561	2146.27
738.747	2011.11
738.932	2074.59
739.118	2181.09
739.303	2074.59
739.489	2035.68
739.674	2052.06
739.859	1916.9
740.045	2097.12
740.23	1994.72
740.416	1980.39
740.601	2080.74
740.786	1996.77
740.972	2025.44
741.157	1929.19
741.342	1988.58
741.528	1916.9
741.713	2033.63
741.898	1896.42
742.084	1986.53
742.269	1845.22
742.454	1914.85
742.639	1912.8
742.824	1941.47
743.01	1900.51
743.195	1863.65
743.38	1904.61
743.565	1935.33
743.75	1974.24
743.935	1765.35
744.12	1906.66
744.305	1769.44
744.49	1783.78
744.675	1816.55
744.86	1751.01
745.045	1771.49
745.23	1740.77
745.415	1851.36
745.6	1849.32
745.785	1732.58
745.97	1736.68
746.155	1611.75
746.34	1802.21
746.525	1781.73
746.71	1718.25
746.895	1806.31
747.079	1611.75
747.264	1667.05
747.449	1675.24
747.634	1716.2
747.819	1703.91
748.003	1724.39
748.188	1693.67
748.373	1527.78
748.557	1640.42
748.742	1638.37
748.927	1601.51
749.111	1552.36
749.296	1535.98
749.481	1525.74
749.665	1609.7
749.85	1540.07
750.034	1568.74
750.219	1578.98
750.404	1464.3
750.588	1347.56
750.773	1452.01
750.957	1413.1
751.141	1462.25
751.326	1423.34
751.51	1380.33
751.695	1380.33
751.879	1427.43
752.064	1480.68
752.248	1454.06
752.432	1404.91
752.617	1282.03
752.801	1396.71
752.985	1345.52
753.17	1380.33
753.354	1400.81
753.538	1286.12
753.722	1249.26
753.907	1253.36
754.091	1310.7
754.275	1355.76
754.459	1257.45
754.643	1218.54
754.828	1255.4
755.012	1204.21
755.196	1282.03
755.38	1249.26
755.564	1226.73
755.748	1212.4
755.932	1220.59
756.116	1228.78
756.3	1191.92
756.484	1185.77
756.668	1228.78
756.852	1128.43
757.036	1183.73
757.22	1085.42
757.404	1097.71
757.588	1126.38
757.772	1171.44
757.956	1146.86
758.14	1171.44
758.323	1114.1
758.507	1095.66
758.691	1079.28
758.875	1101.81
759.059	1120.24
759.242	1077.23
759.426	1114.1
759.61	989.17
759.794	1046.51
759.977	1155.05
760.161	1183.73
760.345	1028.08
760.528	1040.37
760.712	1021.94
760.895	1064.94
761.079	929.78
761.263	946.16
761.446	997.36
761.63	1036.27
761.813	1032.18
761.997	1052.66
762.18	929.78
762.364	956.4
762.547	880.63
762.731	946.16
762.914	974.83
763.098	972.79
763.281	989.17
763.464	970.74
763.648	919.54
763.831	948.21
764.015	841.72
764.198	954.35
764.381	1007.6
764.564	911.35
764.748	833.52
764.931	823.28
765.114	954.35
765.297	905.2
765.481	870.39
765.664	864.24
765.847	897.01
766.03	909.3
766.213	854
766.397	776.18
766.58	899.06
766.763	921.59
766.946	811
767.129	847.86
767.312	829.43
767.495	860.15
767.678	864.24
767.861	849.91
768.044	880.63
768.227	866.29
768.41	780.28
768.593	847.86
768.776	868.34
768.959	835.57
769.142	841.72
769.324	854
769.507	864.24
769.69	821.24
769.873	804.85
770.056	876.53
770.239	823.28
770.421	788.47
770.604	882.67
770.787	708.6
770.97	899.06
771.152	737.27
771.335	741.36
771.518	757.75
771.7	839.67
771.883	821.24
772.066	630.77
772.248	651.25
772.431	749.56
772.613	790.52
772.796	692.21
772.978	782.32
773.161	806.9
773.343	774.13
773.526	704.5
773.708	651.25
773.891	651.25
774.073	700.41
774.256	696.31
774.438	702.45
774.621	595.96
774.803	636.92
774.985	741.36
775.168	636.92
775.35	632.82
775.532	708.6
775.715	557.05
775.897	663.54
776.079	643.06
776.261	675.83
776.444	634.87
776.626	661.49
776.808	661.49
776.99	595.96
777.173	667.64
777.355	579.58
777.537	649.21
777.719	714.74
777.901	657.4
778.083	686.07
778.265	647.16
778.447	643.06
778.629	608.25
778.811	511.99
778.993	645.11
779.175	577.53
779.357	636.92
779.539	530.42
779.721	499.7
779.903	511.99
780.085	610.29
780.267	544.76
780.449	643.06
780.631	546.81
780.812	598.01
780.994	505.85
781.176	520.18
781.358	524.28
781.54	544.76
781.721	569.34
781.903	581.62
782.085	471.03
782.267	509.94
782.448	442.36
782.63	438.27
782.812	552.95
782.993	450.55
783.175	483.32
783.357	456.7
783.538	530.42
783.72	458.75
783.901	462.84
784.083	479.22
784.264	423.93
784.446	452.6
784.627	440.31
784.809	471.03
784.99	331.77
785.172	397.31
785.353	493.56
785.535	452.6
785.716	450.55
785.897	319.48
786.079	430.07
786.26	421.88
786.441	417.79
786.623	407.55
786.804	452.6
786.985	372.73
787.167	432.12
787.348	264.19
787.529	423.93
787.71	454.65
787.891	430.07
788.073	325.63
788.254	274.43
788.435	352.25
788.616	448.51
788.797	374.78
788.978	327.67
789.159	309.24
789.34	348.15
789.522	299
789.703	333.82
789.884	403.45
790.065	421.88
790.246	417.79
790.427	319.48
790.607	468.98
790.788	323.58
790.969	327.67
791.15	264.19
791.331	352.25
791.512	243.71
791.693	233.47
791.874	385.02
792.054	417.79
792.235	331.77
792.416	270.33
792.597	339.96
792.778	372.73
792.958	241.66
793.139	270.33
793.32	307.2
793.5	260.09
793.681	325.63
793.862	327.67
794.042	397.31
794.223	276.48
794.404	315.39
794.584	221.18
794.765	253.95
794.945	233.47
795.126	284.67
795.306	303.1
795.487	288.76
795.667	315.39
795.848	311.29
796.028	331.77
796.209	276.48
796.389	303.1
796.57	266.24
796.75	172.03
796.93	274.43
797.111	239.61
797.291	272.38
797.471	313.34
797.652	251.9
797.832	178.17
798.012	303.1
798.192	192.51
798.373	225.28
798.553	249.85
798.733	284.67
798.913	233.47
799.093	260.09
799.274	174.08
799.454	294.91
799.634	241.66
799.814	227.32
799.994	227.32
800.174	200.7
800.354	321.53
800.534	200.7
800.714	227.32
800.894	77.82
801.074	151.55
801.254	227.32
801.434	206.84
801.614	206.84
801.794	100.35
801.974	815.09
802.154	169.98
802.334	204.8
802.514	208.89
802.693	36.86
802.873	169.98
803.053	266.24
803.233	149.5
803.413	303.1
803.592	202.75
803.772	208.89
803.952	292.86
804.131	135.17
804.311	251.9
804.491	264.19
804.67	217.08
804.85	135.17
805.03	284.67
805.209	188.41
805.389	225.28
805.568	167.93
805.748	137.21
805.928	155.65
806.107	176.13
806.287	169.98
806.466	180.22
806.646	219.13
806.825	147.45
807.004	172.03
807.184	266.24
807.363	172.03
807.543	184.32
807.722	30.72
807.901	249.85
808.081	192.51
808.26	116.73
808.439	96.25
808.619	114.69
808.798	182.27
808.977	112.64
809.156	178.17
809.336	163.84
809.515	231.42
809.694	137.21
809.873	122.88
810.052	176.13
810.231	221.18
810.411	98.3
810.59	233.47
810.769	149.5
810.948	118.78
811.127	102.4
811.306	124.93
811.485	63.49
811.664	221.18
811.843	75.77
812.022	126.97
812.201	163.84
812.38	159.74
812.559	163.84
812.737	151.55
812.916	79.87
813.095	94.21
813.274	153.6
813.453	151.55
813.632	94.21
813.811	129.02
813.989	86.01
814.168	149.5
814.347	53.25
814.526	108.54
814.704	182.27
814.883	110.59
815.062	147.45
815.24	96.25
815.419	69.63
815.598	145.41
815.776	155.65
815.955	143.36
816.133	124.93
816.312	139.26
816.49	49.15
816.669	96.25
816.847	102.4
817.026	104.45
817.204	69.63
817.383	126.97
817.561	120.83
817.74	212.99
817.918	129.02
818.097	124.93
818.275	81.92
818.453	104.45
818.632	124.93
818.81	59.39
818.988	86.01
819.167	86.01
819.345	196.61
819.523	69.63
819.701	96.25
819.879	92.16
820.058	104.45
820.236	147.45
820.414	79.87
820.592	104.45
820.77	71.68
820.948	86.01
821.127	73.73
821.305	71.68
821.483	12.29
821.661	139.26
821.839	110.59
822.017	100.35
822.195	8.19
822.373	110.59
822.551	79.87
822.729	71.68
822.907	110.59
823.085	139.26
823.262	51.2
823.44	77.82
823.618	30.72
823.796	192.51
823.974	55.3
824.152	90.11
824.329	114.69
824.507	69.63
824.685	102.4
824.863	114.69
825.04	79.87
825.218	106.49
825.396	51.2
825.574	126.97
825.751	131.07
825.929	75.77
826.107	63.49
826.284	100.35
826.462	145.41
826.639	12.29
826.817	24.58
826.994	135.17
827.172	40.96
827.349	153.6
827.527	67.58
827.704	100.35
827.882	40.96
828.059	-20.48
828.237	38.91
828.414	135.17
828.591	24.58
828.769	69.63
828.946	6.14
829.124	77.82
829.301	71.68
829.478	79.87
829.655	61.44
829.833	71.68
830.01	14.34
830.187	86.01
830.364	36.86
830.542	94.21
830.719	116.73
830.896	88.06
831.073	63.49
831.25	92.16
831.427	129.02
831.604	86.01
831.782	131.07
831.959	51.2
832.136	90.11
832.313	6.14
832.49	49.15
832.667	28.67
832.844	32.77
833.021	75.77
833.198	129.02
833.374	65.53
833.551	-8.19
833.728	28.67
833.905	71.68
834.082	32.77
834.259	110.59
834.436	86.01
834.612	12.29
834.789	69.63
834.966	131.07
835.143	81.92
835.319	-6.14
835.496	-8.19
835.673	120.83
835.85	20.48
836.026	79.87
836.203	20.48
836.38	57.34
836.556	120.83
836.733	-8.19
836.909	135.17
837.086	38.91
837.262	59.39
837.439	12.29
837.616	57.34
837.792	90.11
837.968	73.73
838.145	65.53
838.321	28.67
838.498	20.48
838.674	126.97
838.851	40.96
839.027	40.96
839.203	51.2
839.38	45.06
839.556	47.1
839.732	92.16
839.909	28.67
840.085	86.01
840.261	6.14
840.437	22.53
840.614	14.34
840.79	79.87
840.966	77.82
841.142	45.06
841.318	10.24
841.494	36.86
841.671	69.63
841.847	81.92
842.023	-6.14
842.199	135.17
842.375	73.73
842.551	-4.1
842.727	61.44
842.903	53.25
843.079	34.82
843.255	69.63
843.431	-32.77
843.607	30.72
843.783	47.1
843.959	45.06
844.134	61.44
844.31	92.16
844.486	30.72
844.662	61.44
844.838	20.48
845.013	22.53
845.189	53.25
845.365	-4.1
845.541	-36.86
845.716	8.19
845.892	51.2
846.068	4.1
846.244	14.34
846.419	61.44
846.595	45.06
846.77	12.29
846.946	73.73
847.122	-28.67
847.297	-32.77
847.473	81.92
847.648	12.29
847.824	-10.24
847.999	53.25
848.175	12.29
848.35	-12.29
848.526	-16.38
848.701	10.24
848.876	12.29
849.052	26.62
849.227	-20.48
849.403	4.1
849.578	-24.58
849.753	12.29
849.929	36.86
850.104	-61.44
850.279	-20.48
850.454	-4.1
850.63	126.97
850.805	-24.58
850.98	-47.1
851.155	14.34
851.33	16.38
851.505	-118.78
851.681	157.69
851.856	-55.3
852.031	-26.62
852.206	8.19
852.381	-12.29
852.556	12.29
852.731	36.86
852.906	45.06
853.081	40.96
853.256	86.01
853.431	-6.14
853.606	2.05
853.781	-20.48
853.956	-20.48
854.131	69.63
854.305	-12.29
854.48	-36.86
854.655	-61.44
854.83	-8.19
855.005	18.43
855.18	-36.86
855.354	-28.67
855.529	-63.49
855.704	-12.29
855.879	30.72
856.053	-20.48
856.228	20.48
856.403	-77.82
856.577	36.86
856.752	-28.67
856.926	36.86
857.101	-8.19
857.276	-12.29
857.45	36.86
857.625	-12.29
857.799	4.1
857.974	49.15
858.148	-4.1
858.323	32.77
858.497	-77.82
858.672	28.67
858.846	4.1
859.02	79.87
859.195	-49.15
859.369	-53.25
859.543	-6.14
859.718	22.53
859.892	-8.19
860.066	53.25
860.241	73.73
860.415	-26.62
860.589	49.15
860.763	36.86
860.938	-16.38
861.112	45.06
861.286	-10.24
861.46	-20.48
861.634	-10.24
861.808	55.3
861.982	-32.77
862.157	20.48
862.331	-63.49
862.505	-18.43
862.679	77.82
862.853	-53.25
863.027	-59.39
863.201	98.3
863.375	63.49
863.549	28.67
863.722	-32.77
863.896	61.44
864.07	51.2
864.244	10.24
864.418	88.06
864.592	-36.86
864.766	-28.67
864.939	-4.1
865.113	-28.67
865.287	47.1
865.461	-73.73
865.634	-14.34
865.808	-18.43
865.982	38.91
866.156	8.19
866.329	14.34
866.503	98.3
866.676	20.48
866.85	88.06
867.024	10.24
867.197	90.11
867.371	-18.43
867.544	-18.43
867.718	-28.67
867.891	-45.06
868.065	-16.38
868.238	28.67
868.412	86.01
868.585	36.86
868.759	-75.77
868.932	94.21
869.105	28.67
869.279	-51.2
869.452	-28.67
869.625	24.58
869.799	-36.86
869.972	-32.77
870.145	-36.86
870.319	20.48
870.492	28.67
870.665	14.34
870.838	-2.05
871.011	-36.86
871.185	61.44
871.358	36.86
871.531	49.15
871.704	-40.96
871.877	69.63
872.05	12.29
872.223	-4.1
872.396	-6.14
872.569	75.77
872.742	-36.86
872.915	77.82
873.088	-24.58
873.261	-4.1
873.434	-36.86
873.607	-69.63
873.78	81.92
873.953	-59.39
874.126	-8.19
874.299	65.53
874.471	-24.58
874.644	57.34
874.817	8.19
874.99	61.44
875.163	-20.48
875.335	14.34
875.508	28.67
875.681	45.06
875.853	-34.82
876.026	20.48
876.199	38.91
876.371	20.48
876.544	-34.82
876.717	51.2
876.889	-36.86
877.062	-34.82
877.234	-20.48
877.407	-8.19
877.579	26.62
877.752	-59.39
877.924	-45.06
878.097	57.34
878.269	-30.72
878.442	-28.67
878.614	14.34
878.786	-20.48
878.959	22.53
879.131	8.19
879.303	-49.15
879.476	-73.73
879.648	-67.58
879.82	71.68
879.993	47.1
880.165	63.49
880.337	-135.17
880.509	-4.1
880.681	-71.68
880.854	-14.34
881.026	6.14
881.198	28.67
881.37	14.34
881.542	-36.86
881.714	-75.77
881.886	-36.86
882.058	2.05
882.23	-43.01
882.402	-45.06
882.574	-34.82
882.746	-26.62
882.918	59.39
883.09	-10.24
883.262	-10.24
883.434	0
883.606	-6.14
883.778	-10.24
883.95	98.3
884.122	-67.58
884.293	-36.86
884.465	53.25
884.637	6.14
884.809	-22.53
884.98	-43.01
885.152	-6.14
885.324	-40.96
885.496	-40.96
885.667	-36.86
885.839	6.14
886.011	71.68
886.182	20.48
886.354	47.1
886.525	-102.4
886.697	4.1
886.869	-65.54
887.04	0
887.212	16.38
887.383	57.34
887.555	-45.06
887.726	36.86
887.897	-92.16
888.069	94.21
888.24	38.91
888.412	-45.06
888.583	2.05
888.754	-24.58
888.926	-28.67
889.097	67.58
889.268	-59.39
889.44	-16.38
889.611	-67.58
889.782	-36.86
889.953	-43.01
890.125	40.96
890.296	28.67
890.467	-57.34
890.638	-139.26
890.809	49.15
890.98	8.19
891.151	-77.82
891.323	28.67
891.494	-55.3
891.665	-6.14
891.836	-49.15
892.007	4.1
892.178	22.53
892.349	-49.15
892.52	-4.1
892.691	-18.43
892.862	-8.19
893.032	20.48
893.203	38.91
893.374	-43.01
893.545	30.72
893.716	16.38
893.887	38.91
894.057	-59.39
894.228	24.58
894.399	63.49
894.57	-12.29
894.74	-55.3
894.911	-65.54
895.082	-75.77
895.253	-59.39
895.423	-20.48
895.594	-4.1
895.764	-2.05
895.935	-63.49
896.106	-16.38
896.276	-69.63
896.447	81.92
896.617	-26.62
896.788	-114.69
896.958	-2.05
897.129	-94.21
897.299	16.38
897.47	32.77
897.64	22.53
897.81	6.14
897.981	-30.72
898.151	-61.44
898.322	-26.62
898.492	-2.05
898.662	-20.48
898.832	-36.86
899.003	12.29
899.173	4.1
899.343	53.25
899.513	-8.19
