Data from USB4F104151__166__14-32-21-916.txt Node

Date: Thu Mar 13 14:32:21 EDT 2025
User: louis
Spectrometer: USB4F10415
Trigger mode: 4
Integration Time (sec): 2.500000E-2
Scans to average: 1
Electric dark correction enabled: true
Nonlinearity correction enabled: false
Boxcar width: 0
XAxis mode: Wavelengths
Number of Pixels in Spectrum: 3648
>>>>>Begin Spectral Data<<<<<
178.204	-66.56
178.424	-66.56
178.644	-66.56
178.864	-142.33
179.084	-171.01
179.304	-21.5
179.524	11.26
179.744	25.6
179.964	50.18
180.184	103.42
180.404	-64.51
180.624	-50.18
180.844	44.03
181.064	-60.42
181.283	-7.17
181.503	-52.22
181.723	21.5
181.943	-72.7
182.163	44.03
182.383	-23.55
182.602	-7.17
182.822	9.22
183.042	35.84
183.262	-48.13
183.482	23.55
183.701	-39.94
183.921	5.12
184.141	-31.74
184.361	78.85
184.58	-78.85
184.8	25.6
185.02	-64.51
185.239	27.65
185.459	-35.84
185.679	9.22
185.898	-84.99
186.118	25.6
186.338	33.79
186.557	5.12
186.777	33.79
186.997	9.22
187.216	-7.17
187.436	19.46
187.655	29.7
187.875	35.84
188.095	50.18
188.314	56.32
188.534	3.07
188.753	-62.46
188.973	52.22
189.192	101.37
189.412	56.32
189.631	-17.41
189.851	52.22
190.07	60.42
190.29	-58.37
190.509	25.6
190.729	-48.13
190.948	27.65
191.168	130.05
191.387	-15.36
191.607	-48.13
191.826	52.22
192.045	-15.36
192.265	50.18
192.484	39.94
192.704	29.7
192.923	-3.07
193.142	-7.17
193.362	74.75
193.581	25.6
193.8	56.32
194.02	52.22
194.239	-15.36
194.458	33.79
194.678	-17.41
194.897	44.03
195.116	-80.89
195.335	9.22
195.555	-44.03
195.774	7.17
195.993	56.32
196.212	21.5
196.432	-76.8
196.651	13.31
196.87	82.94
197.089	125.95
197.308	99.33
197.528	-19.46
197.747	-72.7
197.966	-39.94
198.185	-31.74
198.404	-3.07
198.623	5.12
198.842	25.6
199.062	25.6
199.281	87.04
199.5	1.02
199.719	-31.74
199.938	17.41
200.157	19.46
200.376	-23.55
200.595	52.22
200.814	-7.17
201.033	5.12
201.252	37.89
201.471	-44.03
201.69	19.46
201.909	21.5
202.128	25.6
202.347	-19.46
202.566	21.5
202.785	11.26
203.004	9.22
203.223	140.29
203.442	-29.7
203.661	25.6
203.879	1.02
204.098	35.84
204.317	3.07
204.536	60.42
204.755	29.7
204.974	52.22
205.193	60.42
205.411	41.98
205.63	29.7
205.849	33.79
206.068	25.6
206.287	13.31
206.505	48.13
206.724	19.46
206.943	-29.7
207.162	13.31
207.381	-15.36
207.599	-54.27
207.818	11.26
208.037	-13.31
208.255	-15.36
208.474	58.37
208.693	97.28
208.911	48.13
209.13	13.31
209.349	52.22
209.567	-3.07
209.786	33.79
210.005	-21.5
210.223	11.26
210.442	-19.46
210.661	9.22
210.879	17.41
211.098	21.5
211.316	-39.94
211.535	74.75
211.753	-3.07
211.972	66.56
212.191	1.02
212.409	60.42
212.628	41.98
212.846	-56.32
213.065	82.94
213.283	70.65
213.502	-29.7
213.72	11.26
213.938	17.41
214.157	31.74
214.375	1.02
214.594	-29.7
214.812	35.84
215.031	9.22
215.249	-39.94
215.467	-50.18
215.686	1.02
215.904	-15.36
216.122	-13.31
216.341	50.18
216.559	-29.7
216.778	33.79
216.996	74.75
217.214	-44.03
217.432	-107.52
217.651	-13.31
217.869	33.79
218.087	-3.07
218.306	33.79
218.524	25.6
218.742	39.94
218.96	58.37
219.179	-23.55
219.397	-41.98
219.615	132.09
219.833	29.7
220.051	35.84
220.27	33.79
220.488	25.6
220.706	-7.17
220.924	50.18
221.142	52.22
221.36	-29.7
221.578	-9.22
221.796	23.55
222.015	21.5
222.233	-15.36
222.451	-11.26
222.669	3.07
222.887	41.98
223.105	19.46
223.323	27.65
223.541	-23.55
223.759	-7.17
223.977	-23.55
224.195	9.22
224.413	29.7
224.631	-3.07
224.849	-33.79
225.067	148.48
225.285	48.13
225.503	-84.99
225.721	-15.36
225.939	19.46
226.157	-1.02
226.375	132.09
226.592	25.6
226.81	23.55
227.028	17.41
227.246	95.23
227.464	78.85
227.682	3.07
227.9	-31.74
228.117	39.94
228.335	11.26
228.553	-27.65
228.771	21.5
228.989	33.79
229.206	-7.17
229.424	-11.26
229.642	-39.94
229.86	-23.55
230.077	1.02
230.295	31.74
230.513	91.13
230.731	19.46
230.948	23.55
231.166	117.76
231.384	13.31
231.601	-3.07
231.819	80.89
232.037	41.98
232.254	27.65
232.472	50.18
232.689	7.17
232.907	70.65
233.125	-35.84
233.342	-5.12
233.56	-11.26
233.777	-7.17
233.995	1.02
234.213	66.56
234.43	66.56
234.648	-68.61
234.865	41.98
235.083	-15.36
235.3	13.31
235.518	58.37
235.735	41.98
235.953	46.08
236.17	-62.46
236.388	58.37
236.605	29.7
236.822	-21.5
237.04	-89.09
237.257	-46.08
237.475	-23.55
237.692	58.37
237.909	-5.12
238.127	21.5
238.344	54.27
238.562	41.98
238.779	1.02
238.996	-23.55
239.214	54.27
239.431	29.7
239.648	29.7
239.865	35.84
240.083	11.26
240.3	-5.12
240.517	-68.61
240.735	29.7
240.952	91.13
241.169	-7.17
241.386	-35.84
241.603	11.26
241.821	-37.89
242.038	-23.55
242.255	37.89
242.472	-52.22
242.689	-5.12
242.907	29.7
243.124	-15.36
243.341	-15.36
243.558	19.46
243.775	5.12
243.992	-21.5
244.209	9.22
244.426	105.47
244.643	25.6
244.86	13.31
245.078	33.79
245.295	70.65
245.512	1.02
245.729	-7.17
245.946	35.84
246.163	78.85
246.38	17.41
246.597	-29.7
246.814	-13.31
247.031	91.13
247.248	29.7
247.464	33.79
247.681	-21.5
247.898	-48.13
248.115	9.22
248.332	-31.74
248.549	33.79
248.766	62.46
248.983	41.98
249.2	66.56
249.417	82.94
249.633	25.6
249.85	25.6
250.067	29.7
250.284	-31.74
250.501	9.22
250.717	-7.17
250.934	-19.46
251.151	41.98
251.368	66.56
251.585	107.52
251.801	-39.94
252.018	29.7
252.235	62.46
252.451	121.85
252.668	-56.32
252.885	1.02
253.102	-9.22
253.318	41.98
253.535	35.84
253.752	33.79
253.968	-21.5
254.185	-35.84
254.401	13.31
254.618	-15.36
254.835	-13.31
255.051	-54.27
255.268	9.22
255.484	5.12
255.701	-52.22
255.917	13.31
256.134	-13.31
256.351	-15.36
256.567	27.65
256.784	52.22
257	-37.89
257.217	-23.55
257.433	25.6
257.65	-62.46
257.866	27.65
258.082	-39.94
258.299	-13.31
258.515	9.22
258.732	-3.07
258.948	62.46
259.165	25.6
259.381	-19.46
259.597	27.65
259.814	-48.13
260.03	58.37
260.246	35.84
260.463	-15.36
260.679	74.75
260.895	-7.17
261.112	13.31
261.328	35.84
261.544	58.37
261.761	50.18
261.977	50.18
262.193	19.46
262.409	33.79
262.626	44.03
262.842	19.46
263.058	9.22
263.274	74.75
263.49	123.9
263.707	82.94
263.923	-5.12
264.139	-7.17
264.355	-68.61
264.571	37.89
264.787	-21.5
265.004	50.18
265.22	9.22
265.436	-19.46
265.652	-54.27
265.868	27.65
266.084	15.36
266.3	21.5
266.516	1.02
266.732	46.08
266.948	48.13
267.164	-9.22
267.38	68.61
267.596	64.51
267.812	117.76
268.028	48.13
268.244	11.26
268.46	84.99
268.676	46.08
268.892	-23.55
269.108	-7.17
269.324	-39.94
269.54	33.79
269.756	44.03
269.972	-113.66
270.188	93.18
270.403	23.55
270.619	-3.07
270.835	-9.22
271.051	-5.12
271.267	-60.42
271.483	-31.74
271.698	3.07
271.914	41.98
272.13	1.02
272.346	-3.07
272.562	39.94
272.777	21.5
272.993	25.6
273.209	74.75
273.425	52.22
273.64	-15.36
273.856	74.75
274.072	-5.12
274.287	-46.08
274.503	39.94
274.719	-21.5
274.934	3.07
275.15	58.37
275.366	-44.03
275.581	39.94
275.797	62.46
276.012	-15.36
276.228	-37.89
276.444	-7.17
276.659	58.37
276.875	-5.12
277.09	35.84
277.306	-31.74
277.521	-5.12
277.737	-21.5
277.952	3.07
278.168	50.18
278.383	19.46
278.599	-11.26
278.814	-1.02
279.03	33.79
279.245	74.75
279.461	-21.5
279.676	27.65
279.892	-54.27
280.107	-35.84
280.322	-78.85
280.538	-13.31
280.753	25.6
280.969	-17.41
281.184	27.65
281.399	109.57
281.615	31.74
281.83	35.84
282.045	21.5
282.26	17.41
282.476	-15.36
282.691	74.75
282.906	13.31
283.122	37.89
283.337	11.26
283.552	74.75
283.767	27.65
283.983	91.13
284.198	101.37
284.413	74.75
284.628	-56.32
284.843	41.98
285.058	-15.36
285.274	29.7
285.489	74.75
285.704	74.75
285.919	13.31
286.134	33.79
286.349	-5.12
286.564	19.46
286.779	72.7
286.995	84.99
287.21	-13.31
287.425	68.61
287.64	-29.7
287.855	17.41
288.07	-35.84
288.285	82.94
288.5	113.66
288.715	17.41
288.93	5.12
289.145	9.22
289.36	68.61
289.575	17.41
289.79	-23.55
290.004	-78.85
290.219	41.98
290.434	29.7
290.649	25.6
290.864	-15.36
291.079	-35.84
291.294	-15.36
291.509	-19.46
291.724	41.98
291.938	-15.36
292.153	66.56
292.368	-3.07
292.583	41.98
292.798	33.79
293.012	66.56
293.227	-35.84
293.442	50.18
293.657	33.79
293.871	37.89
294.086	37.89
294.301	60.42
294.516	17.41
294.73	89.09
294.945	-64.51
295.16	78.85
295.374	-48.13
295.589	44.03
295.804	-3.07
296.018	-11.26
296.233	62.46
296.447	44.03
296.662	3.07
296.877	-48.13
297.091	3.07
297.306	35.84
297.52	33.79
297.735	9.22
297.949	25.6
298.164	41.98
298.378	19.46
298.593	-15.36
298.807	-27.65
299.022	78.85
299.236	56.32
299.451	-76.8
299.665	-7.17
299.88	52.22
300.094	-13.31
300.309	60.42
300.523	50.18
300.737	46.08
300.952	58.37
301.166	23.55
301.381	17.41
301.595	3.07
301.809	21.5
302.024	9.22
302.238	-46.08
302.452	21.5
302.667	-13.31
302.881	58.37
303.095	29.7
303.309	74.75
303.524	5.12
303.738	-56.32
303.952	21.5
304.166	-19.46
304.381	-17.41
304.595	-27.65
304.809	-15.36
305.023	-56.32
305.237	41.98
305.452	21.5
305.666	-19.46
305.88	54.27
306.094	5.12
306.308	44.03
306.522	25.6
306.736	91.13
306.95	-15.36
307.164	11.26
307.379	9.22
307.593	37.89
307.807	93.18
308.021	25.6
308.235	11.26
308.449	17.41
308.663	35.84
308.877	74.75
309.091	37.89
309.305	-25.6
309.519	-68.61
309.733	5.12
309.947	-7.17
310.161	-39.94
310.374	21.5
310.588	66.56
310.802	-23.55
311.016	33.79
311.23	46.08
311.444	5.12
311.658	82.94
311.872	41.98
312.085	41.98
312.299	109.57
312.513	13.31
312.727	-13.31
312.941	1.02
313.154	15.36
313.368	-5.12
313.582	27.65
313.796	-7.17
314.009	-37.89
314.223	25.6
314.437	17.41
314.651	5.12
314.864	-7.17
315.078	-76.8
315.292	-29.7
315.505	-52.22
315.719	87.04
315.933	29.7
316.146	23.55
316.36	15.36
316.573	99.33
316.787	58.37
317.001	33.79
317.214	-72.7
317.428	1.02
317.641	-56.32
317.855	-11.26
318.068	-31.74
318.282	33.79
318.495	138.24
318.709	33.79
318.922	19.46
319.136	70.65
319.349	17.41
319.563	-37.89
319.776	41.98
319.99	-35.84
320.203	-27.65
320.417	23.55
320.63	91.13
320.843	103.42
321.057	-7.17
321.27	-46.08
321.483	11.26
321.697	27.65
321.91	-15.36
322.124	-39.94
322.337	17.41
322.55	41.98
322.763	41.98
322.977	19.46
323.19	-15.36
323.403	-21.5
323.617	62.46
323.83	74.75
324.043	37.89
324.256	91.13
324.469	-41.98
324.683	91.13
324.896	-48.13
325.109	-23.55
325.322	39.94
325.535	84.99
325.748	50.18
325.962	-35.84
326.175	37.89
326.388	50.18
326.601	35.84
326.814	-3.07
327.027	123.9
327.24	35.84
327.453	-7.17
327.666	1.02
327.879	-5.12
328.092	52.22
328.305	-5.12
328.518	87.04
328.731	19.46
328.944	-31.74
329.157	-1.02
329.37	-1.02
329.583	68.61
329.796	15.36
330.009	9.22
330.222	46.08
330.435	21.5
330.648	41.98
330.861	46.08
331.073	1.02
331.286	23.55
331.499	-3.07
331.712	-39.94
331.925	13.31
332.138	11.26
332.35	33.79
332.563	56.32
332.776	46.08
332.989	-54.27
333.202	44.03
333.414	19.46
333.627	-7.17
333.84	41.98
334.053	-48.13
334.265	-17.41
334.478	54.27
334.691	-44.03
334.903	66.56
335.116	41.98
335.329	46.08
335.541	50.18
335.754	58.37
335.966	35.84
336.179	44.03
336.392	84.99
336.604	3.07
336.817	54.27
337.029	44.03
337.242	1.02
337.454	17.41
337.667	54.27
337.88	35.84
338.092	33.79
338.305	50.18
338.517	9.22
338.729	1.02
338.942	44.03
339.154	-46.08
339.367	3.07
339.579	-60.42
339.792	3.07
340.004	60.42
340.217	56.32
340.429	-5.12
340.641	-46.08
340.854	-48.13
341.066	27.65
341.278	66.56
341.491	41.98
341.703	37.89
341.915	-15.36
342.128	5.12
342.34	17.41
342.552	95.23
342.764	-56.32
342.977	17.41
343.189	25.6
343.401	1.02
343.613	35.84
343.826	74.75
344.038	-35.84
344.25	17.41
344.462	-37.89
344.674	-15.36
344.886	-31.74
345.099	-11.26
345.311	19.46
345.523	9.22
345.735	11.26
345.947	29.7
346.159	-3.07
346.371	-7.17
346.583	-7.17
346.795	33.79
347.007	-19.46
347.219	82.94
347.431	25.6
347.643	52.22
347.855	-13.31
348.067	74.75
348.279	-50.18
348.491	50.18
348.703	-7.17
348.915	19.46
349.127	-39.94
349.339	17.41
349.551	52.22
349.763	17.41
349.975	25.6
350.187	64.51
350.399	35.84
350.61	41.98
350.822	-62.46
351.034	15.36
351.246	41.98
351.458	33.79
351.669	109.57
351.881	41.98
352.093	41.98
352.305	-13.31
352.517	52.22
352.728	74.75
352.94	25.6
353.152	56.32
353.363	33.79
353.575	25.6
353.787	68.61
353.999	-21.5
354.21	-1.02
354.422	-44.03
354.633	41.98
354.845	-15.36
355.057	78.85
355.268	48.13
355.48	37.89
355.692	-3.07
355.903	-15.36
356.115	-80.89
356.326	-33.79
356.538	78.85
356.749	74.75
356.961	107.52
357.172	41.98
357.384	5.12
357.595	140.29
357.807	70.65
358.018	-11.26
358.23	5.12
358.441	58.37
358.653	52.22
358.864	-29.7
359.075	-62.46
359.287	62.46
359.498	99.33
359.709	48.13
359.921	33.79
360.132	27.65
360.344	-60.42
360.555	-39.94
360.766	58.37
360.977	13.31
361.189	58.37
361.4	1.02
361.611	76.8
361.823	80.89
362.034	134.14
362.245	9.22
362.456	-15.36
362.667	1.02
362.879	68.61
363.09	50.18
363.301	111.61
363.512	3.07
363.723	11.26
363.935	68.61
364.146	46.08
364.357	17.41
364.568	-39.94
364.779	5.12
364.99	29.7
365.201	9.22
365.412	27.65
365.623	-48.13
365.834	41.98
366.045	5.12
366.256	-13.31
366.467	21.5
366.678	33.79
366.889	41.98
367.1	19.46
367.311	29.7
367.522	-23.55
367.733	60.42
367.944	37.89
368.155	39.94
368.366	76.8
368.577	33.79
368.788	91.13
368.999	-11.26
369.209	60.42
369.42	156.67
369.631	128
369.842	3.07
370.053	64.51
370.264	11.26
370.474	-15.36
370.685	-7.17
370.896	70.65
371.107	111.61
371.317	3.07
371.528	101.37
371.739	21.5
371.95	-9.22
372.16	35.84
372.371	-15.36
372.582	54.27
372.792	50.18
373.003	29.7
373.214	41.98
373.424	-7.17
373.635	-31.74
373.846	74.75
374.056	-29.7
374.267	66.56
374.477	-15.36
374.688	-23.55
374.898	52.22
375.109	64.51
375.319	-19.46
375.53	27.65
375.74	62.46
375.951	-15.36
376.161	44.03
376.372	3.07
376.582	-60.42
376.793	76.8
377.003	23.55
377.214	39.94
377.424	-39.94
377.635	50.18
377.845	-46.08
378.055	62.46
378.266	-60.42
378.476	13.31
378.686	-41.98
378.897	25.6
379.107	29.7
379.317	62.46
379.528	-15.36
379.738	31.74
379.948	-39.94
380.158	17.41
380.369	13.31
380.579	17.41
380.789	-29.7
380.999	54.27
381.21	91.13
381.42	132.09
381.63	27.65
381.84	82.94
382.05	82.94
382.261	117.76
382.471	95.23
382.681	-15.36
382.891	17.41
383.101	17.41
383.311	-29.7
383.521	-13.31
383.731	19.46
383.941	3.07
384.151	3.07
384.361	21.5
384.571	41.98
384.781	78.85
384.991	50.18
385.201	17.41
385.411	60.42
385.621	80.89
385.831	56.32
386.041	44.03
386.251	-3.07
386.461	105.47
386.671	54.27
386.881	13.31
387.091	-13.31
387.301	82.94
387.511	62.46
387.72	29.7
387.93	68.61
388.14	39.94
388.35	3.07
388.56	25.6
388.769	58.37
388.979	91.13
389.189	-91.13
389.399	9.22
389.609	35.84
389.818	82.94
390.028	19.46
390.238	17.41
390.447	-31.74
390.657	21.5
390.867	-29.7
391.076	-11.26
391.286	27.65
391.496	1.02
391.705	50.18
391.915	3.07
392.125	60.42
392.334	21.5
392.544	62.46
392.753	82.94
392.963	-23.55
393.172	1.02
393.382	66.56
393.591	68.61
393.801	-19.46
394.01	146.43
394.22	27.65
394.429	46.08
394.639	19.46
394.848	66.56
395.058	78.85
395.267	52.22
395.477	33.79
395.686	101.37
395.895	156.67
396.105	82.94
396.314	37.89
396.524	125.95
396.733	46.08
396.942	158.72
397.152	132.09
397.361	171.01
397.57	84.99
397.78	144.38
397.989	128
398.198	97.28
398.407	82.94
398.617	130.05
398.826	68.61
399.035	72.7
399.244	117.76
399.453	115.71
399.663	142.33
399.872	13.31
400.081	17.41
400.29	101.37
400.499	21.5
400.708	179.2
400.917	68.61
401.127	44.03
401.336	87.04
401.545	166.91
401.754	111.61
401.963	91.13
402.172	138.24
402.381	27.65
402.59	128
402.799	50.18
403.008	91.13
403.217	164.86
403.426	109.57
403.635	76.8
403.844	152.57
404.053	99.33
404.262	132.09
404.471	119.81
404.68	84.99
404.888	103.42
405.097	99.33
405.306	177.15
405.515	185.34
405.724	123.9
405.933	109.57
406.142	148.48
406.35	132.09
406.559	125.95
406.768	82.94
406.977	189.44
407.185	240.64
407.394	177.15
407.603	158.72
407.812	166.91
408.02	158.72
408.229	111.61
408.438	152.57
408.646	185.34
408.855	115.71
409.064	232.44
409.272	189.44
409.481	207.87
409.69	181.25
409.898	306.17
410.107	199.68
410.315	291.84
410.524	226.3
410.733	363.51
410.941	222.2
411.15	379.9
411.358	254.97
411.567	369.66
411.775	365.56
411.984	427
412.192	427
412.401	369.66
412.609	474.1
412.818	455.67
413.026	388.09
413.234	488.44
413.443	431.1
413.651	437.24
413.86	541.69
414.068	562.17
414.276	590.84
414.485	570.36
414.693	627.7
414.901	662.52
415.11	650.23
415.318	658.42
415.526	707.57
415.734	766.96
415.943	791.54
416.151	803.83
416.359	721.91
416.567	910.32
416.776	762.87
416.984	861.17
417.192	959.47
417.4	883.7
417.608	912.37
417.817	945.14
418.025	1041.39
418.233	1084.4
418.441	1080.3
418.649	1102.83
418.857	1137.65
419.065	1149.93
419.273	1283.05
419.481	1377.26
419.689	1334.25
419.897	1410.03
420.105	1385.45
420.313	1489.9
420.521	1573.86
420.729	1543.14
420.937	1557.48
421.145	1610.73
421.353	1655.78
421.561	1692.65
421.769	1745.89
421.977	1844.2
422.185	1928.16
422.393	1995.75
422.601	2229.21
422.809	2118.62
423.017	2188.25
423.224	2139.1
423.432	2319.32
423.64	2411.48
423.848	2454.49
424.056	2587.61
424.263	2755.54
424.471	2640.86
424.679	2632.66
424.887	2843.6
425.094	2960.34
425.302	2939.86
425.51	3027.92
425.718	2943.96
425.925	3158.99
426.133	3376.08
426.341	3376.08
426.548	3621.83
426.756	3638.22
426.964	3699.66
427.171	3730.38
427.379	4058.05
427.586	3961.8
427.794	4068.29
428.001	4416.44
428.209	4588.47
428.417	4434.88
428.624	4834.23
428.832	4807.61
429.039	4721.59
429.247	4719.54
429.454	5284.78
429.662	5471.15
429.869	5096.37
430.076	5634.99
430.284	5383.09
430.491	5563.31
430.699	6081.44
430.906	5958.57
431.114	6196.13
431.321	6220.71
431.528	6235.04
431.736	6753.18
431.943	6998.93
432.15	6906.77
432.358	7029.65
432.565	7248.79
432.772	7261.07
432.979	7687.05
433.187	7881.61
433.394	8012.68
433.601	8172.42
433.808	8457.09
434.016	8377.22
434.223	8758.14
434.43	9075.57
434.637	9137.01
434.844	9696.11
435.052	9878.38
435.259	9683.82
435.466	9927.53
435.673	9931.62
435.88	10087.27
436.087	11176.79
436.294	10740.57
436.501	10781.53
436.708	11023.19
436.915	11232.08
437.122	11742.03
437.329	11592.53
437.537	11885.39
437.743	12071.75
437.95	12221.25
438.157	12602.18
438.364	13017.91
438.571	13339.44
438.778	13290.29
438.985	14144.3
439.192	13673.26
439.399	14156.58
439.606	13988.65
439.813	14830.37
440.02	15729.42
440.227	15332.12
440.433	15090.46
440.64	15584.02
440.847	15749.9
441.054	15958.8
441.261	16878.33
441.467	16990.97
441.674	17117.95
441.881	18021.1
442.088	17505.01
442.294	17584.88
442.501	17810.16
442.708	18625.25
442.914	19026.65
443.121	19825.36
443.328	19301.08
443.534	20636.36
443.741	19958.48
443.948	19841.75
444.154	21289.66
444.361	21197.5
444.568	21115.58
444.774	21238.46
444.981	21488.31
445.187	22166.19
445.394	22995.62
445.6	22964.9
445.807	24689.29
446.013	23876.24
446.22	24285.84
446.426	25008.77
446.633	25561.72
446.839	26098.29
447.046	25084.55
447.252	26432.11
447.459	26514.03
447.665	26346.09
447.871	27523.68
448.078	28797.51
448.284	27370.08
448.491	28244.56
448.697	29286.98
448.903	29569.6
449.11	29991.48
449.316	29436.48
449.522	30265.91
449.728	30564.91
449.935	30743.08
450.141	30925.35
450.347	31760.92
450.553	30644.78
450.76	30886.44
450.966	31744.54
451.172	31498.78
451.378	32608.78
451.584	31744.54
451.791	32596.49
451.997	32524.82
452.203	33139.21
452.409	32985.61
452.615	33051.14
452.821	31636
453.027	30980.65
453.233	32750.09
453.44	31539.74
453.646	32084.5
453.852	31822.36
454.058	32752.14
454.264	31597.09
454.47	32090.65
454.676	30978.6
454.882	32467.47
455.088	29577.79
455.294	30097.97
455.5	30556.72
455.705	30771.75
455.911	29542.97
456.117	28899.91
456.323	28578.38
456.529	27130.47
456.735	28064.34
456.941	27468.38
457.147	27120.23
457.352	26139.25
457.558	26129.01
457.764	25924.21
457.97	25461.37
458.176	25219.71
458.381	24654.47
458.587	23732.89
458.793	23653.02
458.999	22299.31
459.204	23876.24
459.41	23384.73
459.616	21824.18
459.821	21938.87
460.027	21594.81
460.233	21058.24
460.438	20222.67
460.644	20513.48
460.85	19557.08
461.055	19278.55
461.261	19309.27
461.466	17709.81
461.672	17269.5
461.878	18313.96
462.083	17253.11
462.289	16982.78
462.494	16636.67
462.7	16192.26
462.905	15409.94
463.111	15942.41
463.316	15928.08
463.522	15661.84
463.727	15754
463.932	15764.24
464.138	15383.32
464.343	15469.33
464.549	15072.03
464.754	15555.35
464.959	15377.17
465.165	15246.1
465.37	14703.39
465.575	14402.34
465.781	15119.13
465.986	14807.84
466.191	14359.33
466.397	14140.2
466.602	13767.47
466.807	14058.28
467.012	14045.99
467.218	13878.06
467.423	13566.77
467.628	13853.48
467.833	14271.27
468.038	13660.98
468.244	13388.6
468.449	14076.71
468.654	13407.03
468.859	13314.87
469.064	13255.48
469.269	12819.26
469.474	12852.03
469.679	13075.26
469.885	12712.77
470.09	13060.92
470.295	12868.41
470.5	12401.47
470.705	12612.42
470.91	12176.2
471.115	12348.23
471.32	12137.29
471.525	12438.34
471.73	11995.98
471.935	11840.33
472.139	11821.9
472.344	11756.36
472.549	11477.84
472.754	11436.88
472.959	11182.93
473.164	11008.86
473.369	10838.87
473.574	11289.43
473.778	11049.82
473.983	10879.83
474.188	10922.84
474.393	10410.85
474.598	10619.74
474.802	10345.31
475.007	10382.18
475.212	10531.68
475.417	9896.81
475.621	10066.79
475.826	9933.67
476.031	9849.71
476.235	9718.64
476.44	9806.7
476.645	9626.48
476.849	9552.75
477.054	9702.25
477.259	9335.67
477.463	9519.98
477.668	9167.73
477.872	9227.12
478.077	9098.1
478.282	8870.78
478.486	8946.55
478.691	8844.15
478.895	8770.43
479.1	8672.12
479.304	8776.57
479.509	8461.18
479.713	8459.13
479.918	8582.01
480.122	8053.64
480.326	8342.4
480.531	8340.35
480.735	8385.41
480.94	8143.75
481.144	8620.92
481.348	8168.32
481.553	8270.72
481.757	7926.66
481.961	8043.4
482.166	8037.25
482.37	8115.08
482.574	7838.6
482.778	8041.35
482.983	8305.54
483.187	8129.41
483.391	8135.56
483.595	8045.45
483.8	7928.71
484.004	8000.39
484.208	7981.96
484.412	7918.47
484.616	8151.94
484.821	8135.56
485.025	7945.09
485.229	8250.24
485.433	8102.79
485.637	8287.11
485.841	7926.66
486.045	8002.44
486.249	8102.79
486.453	7963.53
486.657	8022.92
486.861	7807.88
487.065	7648.14
487.269	8113.03
487.473	7809.93
487.677	8135.56
487.881	8254.34
488.085	7889.8
488.289	8024.97
488.493	7816.07
488.697	8139.65
488.901	8053.64
489.105	7924.62
489.309	8113.03
489.512	8100.74
489.716	7844.74
489.92	7998.34
490.124	8063.88
490.328	8242.05
490.531	8016.77
490.735	8201.09
490.939	7998.34
491.143	8184.71
491.346	8266.63
491.55	8110.98
491.754	8377.22
491.958	8366.98
492.161	8264.58
492.365	8237.95
492.569	8405.89
492.772	8166.28
492.976	8106.88
493.18	8274.82
493.383	8663.93
493.587	8442.75
493.79	8846.2
493.994	8459.13
494.197	8696.7
494.401	8844.15
494.605	8782.71
494.808	8766.33
495.012	8911.74
495.215	8766.33
495.419	9094.01
495.622	8874.87
495.825	9102.2
496.029	9083.77
496.232	9407.34
496.436	9380.72
496.639	9505.65
496.843	9403.25
497.046	9700.2
497.249	9644.91
497.453	9710.44
497.656	9610.09
497.859	9845.61
498.063	9823.08
498.266	10150.76
498.469	9991.02
498.673	10048.36
498.876	10167.14
499.079	10261.35
499.282	10451.81
499.485	10335.07
499.689	10666.85
499.892	10951.51
500.095	10634.08
500.298	10867.55
500.501	10988.38
500.705	11275.09
500.908	11324.24
501.111	11479.89
501.314	11338.58
501.517	11678.54
501.72	11723.6
501.923	11754.32
502.126	12063.56
502.329	12337.99
502.532	12272.45
502.735	12426.05
502.938	12649.28
503.141	12583.74
503.344	12841.79
503.547	12604.22
503.75	12946.23
503.953	13388.6
504.156	13413.17
504.359	13351.73
504.562	13304.63
504.765	13544.24
504.968	13738.8
505.17	14007.08
505.373	14076.71
505.576	14068.52
505.779	14412.58
505.982	14304.04
506.185	14662.43
506.387	14732.06
506.59	14836.51
506.793	14996.25
506.996	14902.04
507.198	15536.91
507.401	15192.86
507.604	15506.2
507.807	15797.01
508.009	15950.6
508.212	15991.56
508.415	16159.5
508.617	16524.04
508.82	16481.03
509.022	16429.83
509.225	17050.36
509.428	17130.23
509.63	17267.45
509.833	17341.18
510.035	17627.89
510.238	17365.75
510.44	17586.93
510.643	18006.77
510.845	18229.99
511.048	17892.08
511.25	18731.75
511.453	18354.92
511.655	19079.9
511.858	19002.08
512.06	19014.37
512.262	19403.48
512.465	19505.88
512.667	19653.33
512.87	19610.32
513.072	19847.89
513.274	20097.74
513.477	20312.78
513.679	20417.22
513.881	20560.58
514.084	20765.38
514.286	20886.21
514.488	20943.55
514.69	21629.62
514.893	21815.99
515.095	21650.1
515.297	21781.17
515.499	21992.11
515.701	22284.97
515.904	22600.36
516.106	22657.7
516.308	22835.88
516.51	23278.24
516.712	23208.61
516.914	23331.48
517.116	23702.17
517.318	23478.94
517.52	24025.75
517.722	23775.89
517.925	24386.19
518.127	24576.65
518.329	24773.25
518.531	24470.15
518.733	25193.09
518.935	25119.36
519.136	25471.61
519.338	25344.64
519.54	25571.96
519.742	25563.77
519.944	25660.02
520.146	26298.99
520.348	26139.25
520.55	26784.36
520.752	26808.93
520.954	27112.03
521.155	26849.89
521.357	27046.5
521.559	26974.82
521.761	27845.21
521.963	27470.43
522.164	27738.71
522.366	27916.89
522.568	28086.87
522.77	28459.6
522.971	28682.83
523.173	28291.66
523.375	28545.61
523.576	28566.09
523.778	28240.47
523.98	28883.53
524.181	28891.72
524.383	28723.79
524.584	29000.26
524.786	29157.96
524.988	29110.85
525.189	29409.86
525.391	29241.92
525.592	29743.67
525.794	29545.02
525.995	29985.33
526.197	29422.14
526.398	29542.97
526.6	30046.77
526.801	29821.5
527.003	29995.57
527.204	29528.64
527.406	30200.37
527.607	30253.62
527.808	30247.47
528.01	29579.84
528.211	29809.21
528.412	30548.53
528.614	30358.06
528.815	30282.29
529.016	30489.13
529.218	30310.96
529.419	30186.04
529.62	30188.08
529.822	30116.4
530.023	30102.07
530.224	30270
530.425	30247.47
530.626	29936.18
530.828	29702.71
531.029	30876.2
531.23	29987.38
531.431	30349.87
531.632	30022.2
531.833	30026.29
532.035	30104.12
532.236	30446.13
532.437	30442.03
532.638	29993.53
532.839	30233.14
533.04	30102.07
533.241	30175.8
533.442	30442.03
533.643	30304.82
533.844	30284.34
534.045	30112.31
534.246	29659.71
534.447	29678.14
534.648	29456.96
534.849	30083.64
535.05	29516.35
535.251	29764.15
535.451	29643.32
535.652	29665.85
535.853	29616.7
536.054	29379.14
536.255	30091.83
536.456	29250.11
536.657	30032.44
536.857	29323.84
537.058	29166.15
537.259	29672
537.46	29950.52
537.66	29389.38
537.861	29499.97
538.062	29262.4
538.263	29659.71
538.463	29540.93
538.664	29280.83
538.865	29246.02
539.065	29211.2
539.266	28623.44
539.466	29430.33
539.667	28838.47
539.868	29516.35
540.068	29151.81
540.269	29059.65
540.469	29291.07
540.67	28578.38
540.87	29051.46
541.071	28854.86
541.271	29157.96
541.472	29119.04
541.672	28725.83
541.873	28987.97
542.073	28877.38
542.274	29006.41
542.474	28719.69
542.675	28803.66
542.875	29215.3
543.075	28770.89
543.276	28394.06
543.476	29006.41
543.676	28729.93
543.877	29141.57
544.077	28934.73
544.277	28670.54
544.478	28592.72
544.678	28930.63
544.878	28717.64
545.078	28940.87
545.279	28506.7
545.479	28932.68
545.679	28697.16
545.879	28695.11
546.079	28627.53
546.28	28981.83
546.48	28424.78
546.68	28645.96
546.88	28686.92
547.08	28863.05
547.28	28764.75
547.48	28521.04
547.68	28555.85
547.88	28594.76
548.081	28936.77
548.281	28572.24
548.481	28394.06
548.681	28451.41
548.881	28635.72
549.081	28613.2
549.28	28314.19
549.48	28709.45
549.68	28613.2
549.88	29047.36
550.08	28680.78
550.28	28828.23
550.48	28559.95
550.68	28785.22
550.88	28840.52
551.08	28537.42
551.279	28736.07
551.479	28508.75
551.679	29235.78
551.879	28488.27
552.079	29045.32
552.278	28441.17
552.478	28934.73
552.678	28662.35
552.878	29086.28
553.077	28707.4
553.277	28828.23
553.477	28953.16
553.676	29098.56
553.876	29039.17
554.076	28762.7
554.275	28885.58
554.475	28432.97
554.674	29049.41
554.874	28914.25
555.074	29076.04
555.273	29106.76
555.473	29028.93
555.672	28920.39
555.872	29012.55
556.071	29043.27
556.271	28861
556.47	29039.17
556.67	28842.57
556.869	29141.57
557.068	29082.18
557.268	28908.1
557.467	28748.36
557.667	29151.81
557.866	29047.36
558.065	28811.85
558.265	28947.01
558.464	29035.08
558.663	29233.73
558.863	29016.65
559.062	29307.46
559.261	28637.77
559.461	29268.55
559.66	28873.29
559.859	28967.49
560.058	28936.77
560.258	29055.56
560.457	28543.56
560.656	29143.62
560.855	28934.73
561.054	29211.2
561.253	28678.73
561.453	29127.24
561.652	29243.97
561.851	29172.29
562.05	28758.6
562.249	28889.67
562.448	29252.16
562.647	29022.79
562.846	29129.28
563.045	28795.46
563.244	28770.89
563.443	29153.86
563.642	28676.68
563.841	28523.08
564.04	28662.35
564.239	29223.49
564.438	28506.7
564.637	28619.34
564.836	28785.22
565.035	28387.92
565.234	28666.44
565.432	28555.85
565.631	28273.23
565.83	28971.59
566.029	28510.8
566.228	28441.17
566.427	28592.72
566.625	28066.39
566.824	28090.96
567.023	28459.6
567.222	27994.71
567.42	28543.56
567.619	28267.09
567.818	27910.74
568.016	28166.74
568.215	28082.77
568.414	28062.29
568.612	28197.46
568.811	28056.15
569.01	28045.91
569.208	27699.8
569.407	28129.87
569.605	27789.91
569.804	27697.75
570.002	27433.57
570.201	27837.02
570.4	27206.24
570.598	27458.14
570.797	27011.68
570.995	27740.76
571.193	27292.26
571.392	27136.61
571.59	26940
571.789	27316.83
571.987	26913.38
572.186	26810.98
572.384	26720.87
572.582	27066.98
572.781	26933.86
572.979	26649.19
573.177	26649.19
573.376	26815.08
573.574	26698.34
573.772	26491.5
573.971	26481.26
574.169	26366.57
574.367	26079.86
574.565	26286.7
574.763	25969.27
574.962	25641.59
575.16	25789.05
575.358	26022.51
575.556	25678.46
575.754	26028.66
575.952	25885.3
576.151	25899.64
576.349	25399.93
576.547	25463.42
576.745	25627.26
576.943	25737.85
577.141	25410.17
577.339	25322.11
577.537	25346.69
577.735	25019.01
577.933	24965.76
578.131	25037.44
578.329	24873.6
578.527	24988.29
578.725	24857.22
578.923	25369.21
579.121	24908.42
579.319	24656.52
579.516	24781.45
579.714	24531.59
579.912	24638.09
580.11	24543.88
580.308	24302.22
580.506	24421
580.704	24076.94
580.901	24468.11
581.099	24365.71
581.297	24062.61
581.495	23562.9
581.692	24181.39
581.89	24062.61
582.088	24009.36
582.285	23745.17
582.483	23894.68
582.681	23577.24
582.878	23693.97
583.076	23620.25
583.274	23638.68
583.471	23247.52
583.669	23440.03
583.866	23188.13
584.064	23227.04
584.262	22942.37
584.459	23437.98
584.657	22954.66
584.854	23325.34
585.052	22618.79
585.249	23196.32
585.447	22989.47
585.644	22985.38
585.841	22835.88
586.039	22938.27
586.236	22805.16
586.434	22569.64
586.631	22360.75
586.828	22543.02
587.026	22651.56
587.223	22616.74
587.42	22061.74
587.618	22356.65
587.815	22366.89
588.012	22244.01
588.21	22188.72
588.407	22342.32
588.604	22272.68
588.801	21926.58
588.999	21895.86
589.196	21992.11
589.393	21850.8
589.59	22074.03
589.787	21723.83
589.984	21830.32
590.182	21502.65
590.379	21723.83
590.576	21324.47
590.773	21496.5
590.97	21650.1
591.167	21893.81
591.364	21396.15
591.561	21516.98
591.758	21392.06
591.955	21215.93
592.152	21467.83
592.349	21349.05
592.546	21338.81
592.743	21236.41
592.94	20634.31
593.137	21123.77
593.334	21402.3
593.531	20943.55
593.727	21437.11
593.924	21211.84
594.121	20773.57
594.318	21004.99
594.515	20744.9
594.712	20955.84
594.908	20724.42
595.105	21093.05
595.302	20710.08
595.499	21031.62
595.696	20585.16
595.892	20796.1
596.089	20890.31
596.286	20779.71
596.482	20726.47
596.679	20658.88
596.876	20660.93
597.072	20456.14
597.269	20628.17
597.466	20382.41
597.662	20740.8
597.859	20361.93
598.055	20517.57
598.252	20335.31
598.448	20341.45
598.645	20384.46
598.841	20194
599.038	20335.31
599.234	20456.14
599.431	20431.56
599.627	20452.04
599.824	20398.79
600.02	20437.7
600.217	20290.25
600.413	20194
600.609	20300.49
600.806	20237
601.002	20570.82
601.198	20263.63
601.395	20249.29
601.591	20441.8
601.787	20245.2
601.984	20452.04
602.18	20267.72
602.376	20306.63
602.572	20271.82
602.769	20347.59
602.965	20394.7
603.161	20382.41
603.357	20540.1
603.553	20169.42
603.75	20210.38
603.946	20472.52
604.142	20538.05
604.338	20017.87
604.534	20396.74
604.73	20282.06
604.926	20306.63
605.122	20378.31
605.318	20253.39
605.514	20396.74
605.71	20253.39
605.906	20478.66
606.102	20480.71
606.298	20447.94
606.494	20325.07
606.69	20417.22
606.886	20415.18
607.082	20204.24
607.278	20486.86
607.474	20232.91
607.67	20630.21
607.866	20349.64
608.062	20562.63
608.257	20474.57
608.453	20572.87
608.649	20769.48
608.845	20554.44
609.041	20417.22
609.236	20386.5
609.432	20699.84
609.628	20495.05
609.824	20556.49
610.019	20658.88
610.215	20660.93
610.411	21009.09
610.606	20562.63
610.802	20841.15
610.998	20857.54
611.193	20779.71
611.389	20749
611.584	20714.18
611.78	20734.66
611.976	20822.72
612.171	21177.02
612.367	20968.13
612.562	20619.97
612.758	20820.67
612.953	20542.15
613.149	20765.38
613.344	20812.48
613.539	21250.75
613.735	21101.25
613.93	20816.58
614.126	21064.38
614.321	21101.25
614.517	20898.5
614.712	21019.33
614.907	20669.12
615.103	20959.94
615.298	20761.28
615.493	20980.42
615.688	20736.71
615.884	21119.68
616.079	20773.57
616.274	20968.13
616.47	20796.1
616.665	20822.72
616.86	20785.86
617.055	20826.82
617.25	20593.35
617.445	20849.35
617.641	20482.76
617.836	20540.1
618.031	20320.97
618.226	20787.91
618.421	20753.09
618.616	20581.06
618.811	20523.72
619.006	20826.82
619.201	20128.46
619.396	20505.29
619.591	20124.36
619.786	20646.6
619.981	20130.51
620.176	20503.24
620.371	20169.42
620.566	20015.82
620.761	20052.69
620.956	20087.5
621.151	19686.1
621.346	19862.22
621.541	19784.4
621.735	19849.94
621.93	19520.21
622.125	19675.86
622.32	19184.35
622.515	19399.38
622.709	19210.97
622.904	19249.88
623.099	19174.11
623.294	19366.62
623.488	19047.13
623.683	19059.42
623.878	18789.09
624.072	18907.87
624.267	18756.32
624.462	18545.38
624.656	18426.6
624.851	18531.05
625.046	18164.46
625.24	18533.09
625.435	18076.4
625.629	18019.05
625.824	18100.97
626.018	17951.47
626.213	17701.62
626.407	17791.73
626.602	17634.03
626.796	17595.12
626.991	17715.95
627.185	17324.79
627.38	17314.55
627.574	17154.81
627.768	17091.32
627.963	17107.71
628.157	16978.68
628.352	17171.19
628.546	16737.02
628.74	16919.29
628.935	16581.38
629.129	16565
629.323	16550.66
629.517	16448.26
629.712	16454.4
629.906	16405.25
630.1	16214.79
630.294	16323.33
630.489	16081.67
630.683	16096.01
630.877	15893.26
631.071	15633.17
631.265	15819.53
631.459	15864.59
631.653	15373.08
631.848	15610.64
632.042	15522.58
632.236	15375.13
632.43	15397.65
632.624	15399.7
632.818	15123.23
633.012	15186.71
633.206	15078.17
633.4	15131.42
633.594	14885.66
633.788	14734.11
633.982	14850.85
634.176	14945.05
634.369	14459.68
634.563	14652.19
634.757	14263.08
634.951	14457.64
635.145	14175.02
635.339	14342.95
635.533	14045.99
635.726	14189.35
635.92	14089
636.114	14119.72
636.308	13869.87
636.501	13677.36
636.695	13679.41
636.889	13470.51
637.083	13660.98
637.276	13574.96
637.47	13433.65
637.664	13480.75
637.857	13404.98
638.051	13187.89
638.244	13296.44
638.438	13081.4
638.632	12854.08
638.825	12960.57
639.019	12667.71
639.212	12555.07
639.406	12731.2
639.599	12583.74
639.793	12849.98
639.986	12391.23
640.18	12315.46
640.373	12268.36
640.567	12245.83
640.76	12456.77
640.954	12376.9
641.147	12122.95
641.34	12133.19
641.534	12016.46
641.727	12010.31
641.92	11866.95
642.114	11686.73
642.307	11780.94
642.5	11531.09
642.694	11443.03
642.887	11275.09
643.08	11551.57
643.273	11275.09
643.467	11418.45
643.66	11088.73
643.853	11250.52
644.046	10951.51
644.239	10953.56
644.432	10875.74
644.626	10918.75
644.819	10810.2
645.012	10828.63
645.205	10677.09
645.398	10650.46
645.591	10380.13
645.784	10748.76
645.977	10439.52
646.17	10367.84
646.363	10363.75
646.556	10009.45
646.749	10208.1
646.942	10103.65
647.135	10120.04
647.328	9995.11
647.521	9917.29
647.714	9855.85
647.907	9933.67
648.099	9710.44
648.292	9839.47
648.485	9792.36
648.678	9655.15
648.871	9661.29
649.064	9522.03
649.256	9468.78
649.449	9298.8
649.642	9556.85
649.835	9235.32
650.027	9329.52
650.22	9286.51
650.413	9239.41
650.605	9251.7
650.798	9137.01
650.991	8889.21
651.183	9038.71
651.376	8790.91
651.568	8934.26
651.761	8899.45
651.954	8768.38
652.146	8754.04
652.339	8831.87
652.531	8559.49
652.724	8629.12
652.916	8422.27
653.109	8440.7
653.301	8487.81
653.494	8457.09
653.686	8393.6
653.879	8323.97
654.071	8319.87
654.263	8311.68
654.456	8242.05
654.648	8137.6
654.84	7801.74
655.033	8102.79
655.225	7971.72
655.417	8039.3
655.61	8203.14
655.802	7990.15
655.994	7754.63
656.186	8029.06
656.379	7719.82
656.571	7644.04
656.763	7687.05
656.955	7703.43
657.148	7664.52
657.34	7652.24
657.532	7463.82
657.724	7455.63
657.916	7472.01
658.108	7340.94
658.3	7326.61
658.492	7377.81
658.684	7199.63
658.876	7222.16
659.068	7160.72
659.26	7152.53
659.452	7138.2
659.644	7027.6
659.836	6976.41
660.028	7029.65
660.22	6730.65
660.412	6835.1
660.604	6941.59
660.796	6685.59
660.988	6914.97
661.18	6863.77
661.372	6669.21
661.563	6896.53
661.755	6751.13
661.947	6509.47
662.139	6450.08
662.331	6677.4
662.522	6484.89
662.714	6538.14
662.906	6470.56
663.097	6441.89
663.289	6460.32
663.481	6364.06
663.673	6329.25
663.864	6249.38
664.056	6200.23
664.247	6278.05
664.439	6079.4
664.631	6161.31
664.822	6038.44
665.014	6081.44
665.205	6034.34
665.397	5979.04
665.588	5907.37
665.78	5997.48
665.971	6054.82
666.163	6001.57
666.354	5780.39
666.546	5858.21
666.737	5866.41
666.929	5778.34
667.12	5657.51
667.311	5614.51
667.503	5694.38
667.694	5671.85
667.885	5661.61
668.077	5721
668.268	5569.45
668.459	5530.54
668.651	5483.44
668.842	5501.87
669.033	5432.24
669.224	5295.02
669.416	5483.44
669.607	5350.32
669.798	5346.22
669.989	5524.4
670.18	5499.82
670.371	5239.73
670.563	5153.71
670.754	5303.22
670.945	5131.19
671.136	5192.62
671.327	5071.79
671.518	5088.18
671.709	5163.95
671.9	5088.18
672.091	5231.54
672.282	5198.77
672.473	4998.07
672.664	5145.52
672.855	4885.43
673.046	5090.23
673.237	5014.45
673.428	4842.42
673.619	5059.51
673.809	4678.58
674	4885.43
674.191	4867
674.382	4817.85
674.573	4846.52
674.764	4729.78
674.954	4834.23
675.145	4780.98
675.336	4821.94
675.527	4910.01
675.717	4776.89
675.908	4606.91
676.099	4692.92
676.289	4674.49
676.48	4803.51
676.671	4602.81
676.861	4711.35
677.052	4621.24
677.243	4672.44
677.433	4522.94
677.624	4723.64
677.814	4574.14
678.005	4666.3
678.195	4817.85
678.386	4699.06
678.576	4490.17
678.767	4500.41
678.957	4629.43
679.148	4529.08
679.338	4541.37
679.529	4506.56
679.719	4488.12
679.909	4551.61
680.1	4594.62
680.29	4451.26
680.481	4383.68
680.671	4490.17
680.861	4410.3
681.052	4496.32
681.242	4416.44
681.432	4510.65
681.622	4514.75
681.813	4426.68
682.003	4346.81
682.193	4416.44
682.383	4490.17
682.573	4309.95
682.764	4385.73
682.954	4422.59
683.144	4432.83
683.334	4490.17
683.524	4350.91
683.714	4461.5
683.904	4260.8
684.094	4457.4
684.284	4301.76
684.474	4312
684.664	4377.53
684.854	4213.7
685.044	4250.56
685.234	4248.51
685.424	4240.32
685.614	4238.27
685.804	4400.06
685.994	4033.47
686.184	4232.13
686.374	4166.59
686.564	4105.15
686.753	4213.7
686.943	4207.55
687.133	4221.89
687.323	4121.54
687.513	4174.78
687.702	4285.37
687.892	4047.81
688.082	4113.35
688.272	4004.8
688.461	4029.38
688.651	4129.73
688.841	4029.38
689.03	4142.02
689.22	3943.36
689.41	3883.97
689.599	3935.17
689.789	3941.32
689.979	3861.45
690.168	4060.1
690.358	3883.97
690.547	3834.82
690.737	3877.83
690.926	4021.19
691.116	3765.19
691.305	3974.08
691.495	3734.47
691.684	3765.19
691.874	3888.07
692.063	3726.28
692.252	3822.53
692.442	3773.38
692.631	3705.8
692.82	3711.94
693.01	3689.42
693.199	3789.77
693.388	3683.27
693.578	3722.18
693.767	3670.98
693.956	3777.48
694.146	3640.26
694.335	3539.91
694.524	3572.68
694.713	3535.82
694.902	3517.39
695.092	3572.68
695.281	3664.84
695.47	3539.91
695.659	3548.11
695.848	3564.49
696.037	3437.52
696.226	3593.16
696.415	3486.67
696.604	3511.24
696.793	3535.82
696.982	3419.08
697.171	3408.84
697.36	3451.85
697.549	3412.94
697.738	3331.02
697.927	3384.27
698.116	3402.7
698.305	3441.61
698.494	3523.53
698.683	3384.27
698.872	3400.65
699.061	3345.36
699.25	3320.78
699.438	3345.36
699.627	3343.31
699.816	3462.09
700.005	3167.18
700.193	3222.48
700.382	3294.16
700.571	3298.25
700.76	3294.16
700.948	3335.12
701.137	3306.45
701.326	3341.26
701.514	3312.59
701.703	3277.77
701.892	3273.68
702.08	3187.66
702.269	3306.45
702.457	3195.86
702.646	3124.18
702.834	3156.94
703.023	3236.81
703.212	3140.56
703.4	3105.74
703.589	3130.32
703.777	3021.78
703.965	3150.8
704.154	3048.4
704.342	3050.45
704.531	2946
704.719	3034.07
704.907	3148.75
705.096	3021.78
705.284	3115.98
705.472	2974.67
705.661	3023.83
705.849	2923.48
706.037	2978.77
706.226	2962.39
706.414	2970.58
706.602	2962.39
706.79	3064.79
706.979	2921.43
707.167	3052.5
707.355	2794.45
707.543	2927.57
707.731	3042.26
707.919	2812.89
708.107	2827.22
708.296	2753.49
708.484	2921.43
708.672	2802.65
708.86	2862.04
709.048	2704.34
709.236	2790.36
709.424	2853.84
709.612	2690.01
709.8	2722.77
709.988	2745.3
710.176	2761.69
710.364	2765.78
710.551	2790.36
710.739	2753.49
710.927	2778.07
711.115	2692.05
711.303	2685.91
711.491	2667.48
711.679	2739.16
711.866	2745.3
712.054	2765.78
712.242	2603.99
712.43	2728.92
712.617	2569.18
712.805	2526.17
712.993	2606.04
713.181	2663.38
713.368	2606.04
713.556	2671.58
713.744	2444.25
713.931	2687.96
714.119	2694.1
714.306	2493.4
714.494	2546.65
714.682	2622.42
714.869	2509.79
715.057	2446.3
715.244	2540.51
715.432	2425.82
715.619	2597.85
715.807	2466.78
715.994	2450.39
716.182	2417.63
716.369	2530.27
716.556	2491.35
716.744	2376.67
716.931	2393.05
717.119	2364.38
717.306	2456.54
717.493	2374.62
717.681	2427.87
717.868	2352.09
718.055	2343.9
718.242	2331.61
718.43	2313.18
718.617	2364.38
718.804	2325.47
718.991	2397.15
719.179	2395.1
719.366	2317.28
719.553	2311.13
719.74	2229.21
719.927	2313.18
720.114	2270.17
720.301	2245.6
720.488	2188.25
720.676	2208.73
720.863	2290.65
721.05	2171.87
721.237	2212.83
721.424	2270.17
721.611	2214.88
721.798	2210.78
721.985	2223.07
722.172	2239.45
722.358	2198.49
722.545	2130.91
722.732	2122.72
722.919	2182.11
723.106	2130.91
723.293	2149.34
723.48	2173.92
723.667	2163.68
723.853	2147.3
724.04	2130.91
724.227	2083.81
724.414	2024.42
724.6	2237.41
724.787	2092
724.974	2122.72
725.161	1983.46
725.347	2089.95
725.534	2048.99
725.72	2057.18
725.907	2122.72
726.094	2096.1
726.28	1999.84
726.467	2053.09
726.653	2032.61
726.84	1930.21
727.027	2067.42
727.213	2040.8
727.4	2077.66
727.586	2024.42
727.773	2003.94
727.959	2073.57
728.145	1954.79
728.332	1965.03
728.518	2008.03
728.705	2100.19
728.891	2001.89
729.077	2020.32
729.264	1934.31
729.45	1911.78
729.636	1975.27
729.823	1903.59
730.009	1942.5
730.195	1971.17
730.382	1922.02
730.568	1993.7
730.754	1985.51
730.94	1985.51
731.126	1866.72
731.313	1868.77
731.499	1815.52
731.685	1797.09
731.871	1846.24
732.057	1727.46
732.243	1846.24
732.429	1852.39
732.615	1936.35
732.801	1946.59
732.987	1833.96
733.173	1838.05
733.359	1811.43
733.545	1823.72
733.731	1793
733.917	1866.72
734.103	1813.48
734.289	1737.7
734.475	1745.89
734.661	1829.86
734.847	1803.24
735.033	1704.93
735.219	1864.68
735.404	1749.99
735.59	1725.41
735.776	1739.75
735.962	1795.04
736.148	1721.32
736.333	1704.93
736.519	1659.88
736.705	1688.55
736.89	1692.65
737.076	1778.66
737.262	1676.26
737.447	1608.68
737.633	1559.53
737.819	1663.97
738.004	1729.51
738.19	1680.36
738.375	1602.54
738.561	1811.43
738.747	1676.26
738.932	1616.87
739.118	1508.33
739.303	1635.3
739.489	1659.88
739.674	1723.37
739.859	1608.68
740.045	1778.66
740.23	1600.49
740.416	1500.14
740.601	1553.38
740.786	1553.38
740.972	1582.06
741.157	1541.1
741.342	1430.51
741.528	1569.77
741.713	1668.07
741.898	1608.68
742.084	1551.34
742.269	1450.99
742.454	1543.14
742.639	1530.86
742.824	1516.52
743.01	1516.52
743.195	1565.67
743.38	1477.61
743.565	1483.75
743.75	1498.09
743.935	1401.83
744.12	1311.72
744.305	1442.79
744.49	1436.65
744.675	1420.27
744.86	1405.93
745.045	1502.19
745.23	1455.08
745.415	1397.74
745.6	1377.26
745.785	1377.26
745.97	1297.39
746.155	1399.79
746.34	1362.92
746.525	1305.58
746.71	1250.28
746.895	1319.92
747.079	1330.16
747.264	1293.29
747.449	1334.25
747.634	1410.03
747.819	1278.96
748.003	1229.81
748.188	1190.89
748.373	1330.16
748.557	1295.34
748.742	1311.72
748.927	1289.2
749.111	1242.09
749.296	1205.23
749.481	1307.63
749.665	1213.42
749.85	1217.52
750.034	1229.81
750.219	1201.13
750.404	1158.13
750.588	1092.59
750.773	1199.09
750.957	1207.28
751.141	1127.41
751.326	1168.37
751.51	1057.78
751.695	1108.98
751.879	1115.12
752.064	1076.21
752.248	1008.62
752.432	1166.32
752.617	1166.32
752.801	1141.74
752.985	1115.12
753.17	1125.36
753.354	1108.98
753.538	1061.87
753.722	1076.21
753.907	984.05
754.091	1022.96
754.275	1061.87
754.459	961.52
754.643	969.71
754.828	1104.88
755.012	934.9
755.196	1002.48
755.38	982
755.564	1070.06
755.748	943.09
755.932	1035.25
756.116	1020.91
756.3	959.47
756.484	873.46
756.668	910.32
756.852	875.51
757.036	928.75
757.22	920.56
757.404	857.07
757.588	812.02
757.772	857.07
757.956	846.84
758.14	959.47
758.323	846.84
758.507	885.75
758.691	893.94
758.875	850.93
759.059	893.94
759.242	787.44
759.426	844.79
759.61	846.84
759.794	766.96
759.977	846.84
760.161	805.88
760.345	803.83
760.528	789.49
760.712	852.98
760.895	803.83
761.079	895.99
761.263	816.12
761.446	734.2
761.63	783.35
761.813	795.64
761.997	689.14
762.18	734.2
762.364	701.43
762.547	650.23
762.731	719.86
762.914	709.62
763.098	746.48
763.281	687.09
763.464	711.67
763.648	660.47
763.831	732.15
764.015	781.3
764.198	685.05
764.381	709.62
764.564	707.57
764.748	730.1
764.931	685.05
765.114	656.37
765.297	674.81
765.481	599.03
765.664	703.48
765.847	703.48
766.03	683
766.213	699.38
766.397	691.19
766.58	664.57
766.763	742.39
766.946	685.05
767.129	764.92
767.312	656.37
767.495	750.58
767.678	590.84
767.861	691.19
768.044	683
768.227	689.14
768.41	633.85
768.593	742.39
768.776	631.8
768.959	654.33
769.142	637.94
769.324	590.84
769.507	633.85
769.69	648.18
769.873	664.57
770.056	672.76
770.239	648.18
770.421	642.04
770.604	601.08
770.787	547.83
770.97	570.36
771.152	560.12
771.335	625.65
771.518	611.32
771.7	631.8
771.883	660.47
772.066	666.61
772.248	549.88
772.431	586.74
772.613	619.51
772.796	576.5
772.978	588.79
773.161	683
773.343	490.49
773.526	547.83
773.708	549.88
773.891	513.02
774.073	467.96
774.256	529.4
774.438	560.12
774.621	578.55
774.803	648.18
774.985	580.6
775.168	590.84
775.35	603.13
775.532	480.25
775.715	470.01
775.897	521.21
776.079	515.06
776.261	482.3
776.444	508.92
776.626	594.93
776.808	523.26
776.99	461.82
777.173	537.59
777.355	443.39
777.537	443.39
777.719	519.16
777.901	461.82
778.083	443.39
778.265	523.26
778.447	472.06
778.629	443.39
778.811	500.73
778.993	482.3
779.175	484.34
779.357	459.77
779.539	396.28
779.721	353.27
779.903	410.62
780.085	488.44
780.267	455.67
780.449	410.62
780.631	414.71
780.812	451.58
780.994	361.47
781.176	435.19
781.358	463.86
781.54	369.66
781.721	453.63
781.903	467.96
782.085	414.71
782.267	439.29
782.448	316.41
782.63	353.27
782.812	347.13
782.993	406.52
783.175	435.19
783.357	429.05
783.538	375.8
783.72	357.37
783.901	400.38
784.083	402.43
784.264	291.84
784.446	222.2
784.627	291.84
784.809	295.93
784.99	336.89
785.172	377.85
785.353	394.23
785.535	324.6
785.716	209.92
785.897	263.16
786.079	328.7
786.26	347.13
786.441	388.09
786.623	242.68
786.804	300.03
786.985	314.36
787.167	330.75
787.348	224.25
787.529	306.17
787.71	361.47
787.891	218.11
788.073	273.4
788.254	285.69
788.435	314.36
788.616	289.79
788.797	293.88
788.978	230.4
789.159	232.44
789.34	304.12
789.522	289.79
789.703	259.07
789.884	287.74
790.065	238.59
790.246	259.07
790.427	269.31
790.607	271.36
790.788	289.79
790.969	216.06
791.15	257.02
791.331	250.88
791.512	222.2
791.693	230.4
791.874	201.72
792.054	257.02
792.235	242.68
792.416	222.2
792.597	240.64
792.778	234.49
792.958	283.64
793.139	291.84
793.32	250.88
793.5	220.16
793.681	238.59
793.862	209.92
794.042	230.4
794.223	181.25
794.404	224.25
794.584	183.29
794.765	177.15
794.945	224.25
795.126	240.64
795.306	318.46
795.487	246.78
795.667	238.59
795.848	238.59
796.028	197.63
796.209	193.53
796.389	187.39
796.57	246.78
796.75	171.01
796.93	162.81
797.111	152.57
797.291	189.44
797.471	257.02
797.652	189.44
797.832	203.77
798.012	175.1
798.192	234.49
798.373	175.1
798.553	214.01
798.733	222.2
798.913	70.65
799.093	183.29
799.274	205.82
799.454	136.19
799.634	152.57
799.814	279.55
799.994	115.71
800.174	132.09
800.354	193.53
800.534	84.99
800.714	185.34
800.894	191.49
801.074	87.04
801.254	123.9
801.434	187.39
801.614	181.25
801.794	70.65
801.974	779.25
802.154	211.96
802.334	140.29
802.514	101.37
802.693	222.2
802.873	156.67
803.053	134.14
803.233	91.13
803.413	183.29
803.592	156.67
803.772	173.05
803.952	130.05
804.131	119.81
804.311	168.96
804.491	156.67
804.67	117.76
804.85	82.94
805.03	173.05
805.209	181.25
805.389	78.85
805.568	119.81
805.748	142.33
805.928	144.38
806.107	117.76
806.287	87.04
806.466	123.9
806.646	107.52
806.825	136.19
807.004	93.18
807.184	183.29
807.363	144.38
807.543	117.76
807.722	117.76
807.901	144.38
808.081	156.67
808.26	128
808.439	152.57
808.619	144.38
808.798	132.09
808.977	91.13
809.156	148.48
809.336	173.05
809.515	107.52
809.694	68.61
809.873	109.57
810.052	128
810.231	144.38
810.411	97.28
810.59	84.99
810.769	62.46
810.948	144.38
811.127	80.89
811.306	52.22
811.485	105.47
811.664	224.25
811.843	117.76
812.022	123.9
812.201	58.37
812.38	58.37
812.559	70.65
812.737	189.44
812.916	74.75
813.095	52.22
813.274	140.29
813.453	123.9
813.632	113.66
813.811	132.09
813.989	101.37
814.168	95.23
814.347	27.65
814.526	91.13
814.704	103.42
814.883	125.95
815.062	50.18
815.24	138.24
815.419	91.13
815.598	87.04
815.776	1.02
815.955	95.23
816.133	19.46
816.312	97.28
816.49	125.95
816.669	54.27
816.847	177.15
817.026	144.38
817.204	78.85
817.383	58.37
817.561	105.47
817.74	46.08
817.918	58.37
818.097	72.7
818.275	93.18
818.453	58.37
818.632	17.41
818.81	84.99
818.988	101.37
819.167	93.18
819.345	91.13
819.523	50.18
819.701	134.14
819.879	-3.07
820.058	15.36
820.236	80.89
820.414	1.02
820.592	1.02
820.77	39.94
820.948	41.98
821.127	82.94
821.305	54.27
821.483	-15.36
821.661	164.86
821.839	19.46
822.017	44.03
822.195	9.22
822.373	115.71
822.551	58.37
822.729	95.23
822.907	9.22
823.085	105.47
823.262	78.85
823.44	11.26
823.618	-7.17
823.796	82.94
823.974	29.7
824.152	-9.22
824.329	25.6
824.507	44.03
824.685	50.18
824.863	78.85
825.04	91.13
825.218	82.94
825.396	80.89
825.574	-37.89
825.751	111.61
825.929	82.94
826.107	33.79
826.284	33.79
826.462	154.62
826.639	41.98
826.817	19.46
826.994	-3.07
827.172	25.6
827.349	37.89
827.527	64.51
827.704	58.37
827.882	46.08
828.059	68.61
828.237	5.12
828.414	68.61
828.591	87.04
828.769	54.27
828.946	9.22
829.124	21.5
829.301	101.37
829.478	-23.55
829.655	25.6
829.833	58.37
830.01	1.02
830.187	125.95
830.364	15.36
830.542	35.84
830.719	76.8
830.896	111.61
831.073	21.5
831.25	27.65
831.427	66.56
831.604	9.22
831.782	50.18
831.959	56.32
832.136	-23.55
832.313	66.56
832.49	7.17
832.667	109.57
832.844	44.03
833.021	107.52
833.198	74.75
833.374	29.7
833.551	58.37
833.728	19.46
833.905	50.18
834.082	-3.07
834.259	37.89
834.436	82.94
834.612	54.27
834.789	29.7
834.966	46.08
835.143	60.42
835.319	-27.65
835.496	41.98
835.673	17.41
835.85	41.98
836.026	-15.36
836.203	41.98
836.38	17.41
836.556	-3.07
836.733	-13.31
836.909	97.28
837.086	58.37
837.262	54.27
837.439	58.37
837.616	60.42
837.792	-15.36
837.968	87.04
838.145	17.41
838.321	93.18
838.498	99.33
838.674	70.65
838.851	25.6
839.027	91.13
839.203	33.79
839.38	54.27
839.556	-3.07
839.732	9.22
839.909	46.08
840.085	-44.03
840.261	25.6
840.437	25.6
840.614	-19.46
840.79	35.84
840.966	35.84
841.142	62.46
841.318	13.31
841.494	44.03
841.671	54.27
841.847	41.98
842.023	-23.55
842.199	60.42
842.375	138.24
842.551	35.84
842.727	15.36
842.903	58.37
843.079	17.41
843.255	66.56
843.431	-72.7
843.607	-1.02
843.783	-23.55
843.959	54.27
844.134	35.84
844.31	78.85
844.486	52.22
844.662	15.36
844.838	-39.94
845.013	-37.89
845.189	48.13
845.365	48.13
845.541	41.98
845.716	74.75
845.892	31.74
846.068	-7.17
846.244	-31.74
846.419	84.99
846.595	17.41
846.77	11.26
846.946	41.98
847.122	7.17
847.297	-39.94
847.473	115.71
847.648	-27.65
847.824	37.89
847.999	-76.8
848.175	-5.12
848.35	-35.84
848.526	39.94
848.701	89.09
848.876	-9.22
849.052	37.89
849.227	5.12
849.403	60.42
849.578	-15.36
849.753	29.7
849.929	84.99
850.104	-3.07
850.279	-21.5
850.454	52.22
850.63	-13.31
850.805	54.27
850.98	50.18
851.155	-31.74
851.33	-7.17
851.505	5.12
851.681	93.18
851.856	-64.51
852.031	91.13
852.206	5.12
852.381	-35.84
852.556	-17.41
852.731	11.26
852.906	91.13
853.081	66.56
853.256	11.26
853.431	58.37
853.606	-48.13
853.781	-17.41
853.956	-97.28
854.131	19.46
854.305	-113.66
854.48	78.85
854.655	27.65
854.83	-27.65
855.005	-56.32
855.18	5.12
855.354	13.31
855.529	3.07
855.704	-1.02
855.879	33.79
856.053	-7.17
856.228	33.79
856.403	-19.46
856.577	25.6
856.752	-23.55
856.926	84.99
857.101	-3.07
857.276	-29.7
857.45	1.02
857.625	80.89
857.799	-7.17
857.974	50.18
858.148	-15.36
858.323	-19.46
858.497	-31.74
858.672	5.12
858.846	1.02
859.02	66.56
859.195	56.32
859.369	-46.08
859.543	27.65
859.718	52.22
859.892	35.84
860.066	-5.12
860.241	5.12
860.415	-21.5
860.589	-7.17
860.763	-52.22
860.938	41.98
861.112	-68.61
861.286	-7.17
861.46	25.6
861.634	-23.55
861.808	46.08
861.982	-82.94
862.157	-37.89
862.331	-39.94
862.505	-62.46
862.679	7.17
862.853	35.84
863.027	31.74
863.201	82.94
863.375	13.31
863.549	46.08
863.722	-15.36
863.896	44.03
864.07	21.5
864.244	-66.56
864.418	9.22
864.592	-15.36
864.766	-56.32
864.939	1.02
865.113	-68.61
865.287	44.03
865.461	-50.18
865.634	7.17
865.808	9.22
865.982	-7.17
866.156	9.22
866.329	-66.56
866.503	41.98
866.676	52.22
866.85	-37.89
867.024	-15.36
867.197	23.55
867.371	46.08
867.544	25.6
867.718	-80.89
867.891	-3.07
868.065	-3.07
868.238	-39.94
868.412	27.65
868.585	-27.65
868.759	-52.22
868.932	-66.56
869.105	-78.85
869.279	17.41
869.452	-23.55
869.625	54.27
869.799	-56.32
869.972	-97.28
870.145	-5.12
870.319	89.09
870.492	29.7
870.665	-17.41
870.838	-52.22
871.011	-111.61
871.185	9.22
871.358	11.26
871.531	1.02
871.704	-15.36
871.877	25.6
872.05	-72.7
872.223	-103.42
872.396	21.5
872.569	62.46
872.742	-39.94
872.915	25.6
873.088	-35.84
873.261	25.6
873.434	-21.5
873.607	-93.18
873.78	13.31
873.953	-60.42
874.126	62.46
874.299	99.33
874.471	25.6
874.644	-95.23
874.817	29.7
874.99	74.75
875.163	-39.94
875.335	-15.36
875.508	17.41
875.681	58.37
875.853	-19.46
876.026	1.02
876.199	37.89
876.371	3.07
876.544	31.74
876.717	-27.65
876.889	-15.36
877.062	-23.55
877.234	-44.03
877.407	3.07
877.579	1.02
877.752	-5.12
877.924	-13.31
878.097	58.37
878.269	17.41
878.442	-29.7
878.614	-39.94
878.786	56.32
878.959	-15.36
879.131	-27.65
879.303	-130.05
879.476	15.36
879.648	11.26
879.82	-31.74
879.993	29.7
880.165	-64.51
880.337	-44.03
880.509	37.89
880.681	-21.5
880.854	11.26
881.026	-39.94
881.198	82.94
881.37	17.41
881.542	-31.74
881.714	19.46
881.886	-5.12
882.058	56.32
882.23	52.22
882.402	-7.17
882.574	-54.27
882.746	1.02
882.918	1.02
883.09	-80.89
883.262	-29.7
883.434	21.5
883.606	-15.36
883.778	-15.36
883.95	-29.7
884.122	-21.5
884.293	1.02
884.465	-54.27
884.637	-27.65
884.809	1.02
884.98	1.02
885.152	35.84
885.324	-31.74
885.496	13.31
885.667	-46.08
885.839	-15.36
886.011	25.6
886.182	7.17
886.354	76.8
886.525	-41.98
886.697	-15.36
886.869	-68.61
887.04	-15.36
887.212	-29.7
887.383	101.37
887.555	44.03
887.726	17.41
887.897	-48.13
888.069	11.26
888.24	1.02
888.412	-39.94
888.583	-31.74
888.754	17.41
888.926	-105.47
889.097	-48.13
889.268	19.46
889.44	-39.94
889.611	-46.08
889.782	-74.75
889.953	-27.65
890.125	33.79
890.296	-44.03
890.467	-56.32
890.638	5.12
890.809	-27.65
890.98	-35.84
891.151	-7.17
891.323	3.07
891.494	-78.85
891.665	5.12
891.836	-5.12
892.007	-56.32
892.178	3.07
892.349	33.79
892.52	-19.46
892.691	-44.03
892.862	-80.89
893.032	-37.89
893.203	-11.26
893.374	3.07
893.545	37.89
893.716	-31.74
893.887	-21.5
894.057	-15.36
894.228	9.22
894.399	-3.07
894.57	33.79
894.74	-13.31
894.911	-29.7
895.082	-3.07
895.253	-48.13
895.423	9.22
895.594	19.46
895.764	-31.74
895.935	-19.46
896.106	-7.17
896.276	-48.13
896.447	-76.8
896.617	-48.13
896.788	-78.85
896.958	5.12
897.129	-52.22
897.299	5.12
897.47	17.41
897.64	52.22
897.81	-62.46
897.981	-31.74
898.151	-31.74
898.322	-13.31
898.492	-48.13
898.662	-21.5
898.832	-3.07
899.003	17.41
899.173	27.65
899.343	-78.85
899.513	-35.84
