Data from USB4F104151__313__14-35-06-344.txt Node

Date: Thu Mar 13 14:35:06 EDT 2025
User: louis
Spectrometer: USB4F10415
Trigger mode: 4
Integration Time (sec): 2.500000E-2
Scans to average: 1
Electric dark correction enabled: true
Nonlinearity correction enabled: false
Boxcar width: 0
XAxis mode: Wavelengths
Number of Pixels in Spectrum: 3648
>>>>>Begin Spectral Data<<<<<
178.204	-152.91
178.424	-152.91
178.644	-152.91
178.864	-187.73
179.084	-136.53
179.304	8.87
179.524	-40.28
179.744	-11.61
179.964	6.83
180.184	39.59
180.404	-21.85
180.624	23.21
180.844	27.31
181.064	-30.04
181.283	-9.56
181.503	17.07
181.723	-9.56
181.943	17.07
182.163	19.11
182.383	15.02
182.602	43.69
182.822	41.64
183.042	39.59
183.262	25.26
183.482	-21.85
183.701	49.83
183.921	-17.75
184.141	6.83
184.361	37.55
184.58	64.17
184.8	58.03
185.02	-13.65
185.239	27.31
185.459	72.36
185.679	19.11
185.898	-23.89
186.118	72.36
186.338	-9.56
186.557	10.92
186.777	92.84
186.997	8.87
187.216	31.4
187.436	49.83
187.655	86.7
187.875	90.79
188.095	74.41
188.314	60.07
188.534	41.64
188.753	-21.85
188.973	2.73
189.192	129.7
189.412	64.17
189.631	35.5
189.851	37.55
190.07	8.87
190.29	51.88
190.509	-3.41
190.729	84.65
190.948	31.4
191.168	154.28
191.387	70.31
191.607	47.79
191.826	90.79
192.045	31.4
192.265	58.03
192.484	15.02
192.704	31.4
192.923	-44.37
193.142	121.51
193.362	49.83
193.581	80.55
193.8	-54.61
194.02	55.98
194.239	19.11
194.458	-3.41
194.678	49.83
194.897	64.17
195.116	31.4
195.335	88.75
195.555	6.83
195.774	58.03
195.993	64.17
196.212	31.4
196.432	33.45
196.651	23.21
196.87	49.83
197.089	152.23
197.308	29.35
197.528	105.13
197.747	55.98
197.966	33.45
198.185	96.94
198.404	15.02
198.623	47.79
198.842	31.4
199.062	58.03
199.281	60.07
199.5	-15.7
199.719	146.09
199.938	88.75
200.157	66.22
200.376	31.4
200.595	98.99
200.814	-3.41
201.033	15.02
201.252	23.21
201.471	-9.56
201.69	90.79
201.909	70.31
202.128	39.59
202.347	10.92
202.566	35.5
202.785	41.64
203.004	6.83
203.223	107.18
203.442	33.45
203.661	41.64
203.879	27.31
204.098	105.13
204.317	-32.08
204.536	39.59
204.755	47.79
204.974	8.87
205.193	31.4
205.411	154.28
205.63	72.36
205.849	72.36
206.068	17.07
206.287	64.17
206.505	43.69
206.724	-62.8
206.943	31.4
207.162	12.97
207.381	39.59
207.599	39.59
207.818	55.98
208.037	43.69
208.255	-42.32
208.474	98.99
208.693	-5.46
208.911	84.65
209.13	49.83
209.349	92.84
209.567	41.64
209.786	72.36
210.005	-7.51
210.223	47.79
210.442	15.02
210.661	35.5
210.879	6.83
211.098	2.73
211.316	49.83
211.535	96.94
211.753	51.88
211.972	35.5
212.191	-23.89
212.409	-50.52
212.628	55.98
212.846	15.02
213.065	64.17
213.283	115.37
213.502	-64.85
213.72	8.87
213.938	33.45
214.157	31.4
214.375	23.21
214.594	0.68
214.812	76.46
215.031	60.07
215.249	10.92
215.467	-30.04
215.686	-9.56
215.904	111.27
216.122	35.5
216.341	139.94
216.559	78.51
216.778	23.21
216.996	23.21
217.214	31.4
217.432	-46.42
217.651	111.27
217.869	47.79
218.087	0.68
218.306	55.98
218.524	-48.47
218.742	-19.8
218.96	27.31
219.179	72.36
219.397	68.27
219.615	137.9
219.833	23.21
220.051	-25.94
220.27	49.83
220.488	60.07
220.706	-7.51
220.924	-99.67
221.142	19.11
221.36	6.83
221.578	25.26
221.796	-21.85
222.015	6.83
222.233	78.51
222.451	51.88
222.669	-50.52
222.887	-7.51
223.105	33.45
223.323	47.79
223.541	78.51
223.759	25.26
223.977	41.64
224.195	98.99
224.413	2.73
224.631	84.65
224.849	29.35
225.067	76.46
225.285	-40.28
225.503	2.73
225.721	10.92
225.939	2.73
226.157	-5.46
226.375	82.6
226.592	76.46
226.81	39.59
227.028	49.83
227.246	64.17
227.464	-13.65
227.682	-1.37
227.9	68.27
228.117	31.4
228.335	105.13
228.553	55.98
228.771	72.36
228.989	64.17
229.206	-1.37
229.424	19.11
229.642	-30.04
229.86	15.02
230.077	-7.51
230.295	39.59
230.513	68.27
230.731	55.98
230.948	51.88
231.166	43.69
231.384	27.31
231.601	41.64
231.819	58.03
232.037	-34.13
232.254	10.92
232.472	43.69
232.689	6.83
232.907	39.59
233.125	45.74
233.342	39.59
233.56	-13.65
233.777	-1.37
233.995	80.55
234.213	-7.51
234.43	25.26
234.648	31.4
234.865	47.79
235.083	15.02
235.3	23.21
235.518	51.88
235.735	51.88
235.953	-5.46
236.17	43.69
236.388	84.65
236.605	41.64
236.822	35.5
237.04	72.36
237.257	31.4
237.475	-1.37
237.692	51.88
237.909	31.4
238.127	74.41
238.344	53.93
238.562	88.75
238.779	27.31
238.996	10.92
239.214	15.02
239.431	80.55
239.648	23.21
239.865	49.83
240.083	-21.85
240.3	-9.56
240.517	6.83
240.735	-15.7
240.952	80.55
241.169	49.83
241.386	15.02
241.603	101.03
241.821	15.02
242.038	123.56
242.255	55.98
242.472	-17.75
242.689	74.41
242.907	84.65
243.124	35.5
243.341	80.55
243.558	-17.75
243.775	-7.51
243.992	60.07
244.209	53.93
244.426	109.23
244.643	74.41
244.86	31.4
245.078	129.7
245.295	35.5
245.512	53.93
245.729	33.45
245.946	19.11
246.163	8.87
246.38	66.22
246.597	96.94
246.814	58.03
247.031	72.36
247.248	51.88
247.464	64.17
247.681	25.26
247.898	105.13
248.115	80.55
248.332	17.07
248.549	98.99
248.766	158.38
248.983	68.27
249.2	-50.52
249.417	78.51
249.633	55.98
249.85	62.12
250.067	33.45
250.284	92.84
250.501	80.55
250.717	96.94
250.934	-34.13
251.151	51.88
251.368	51.88
251.585	49.83
251.801	-48.47
252.018	-17.75
252.235	29.35
252.451	35.5
252.668	78.51
252.885	105.13
253.102	2.73
253.318	58.03
253.535	25.26
253.752	-32.08
253.968	-15.7
254.185	-25.94
254.401	-15.7
254.618	90.79
254.835	51.88
255.051	94.89
255.268	-13.65
255.484	31.4
255.701	64.17
255.917	60.07
256.134	45.74
256.351	0.68
256.567	2.73
256.784	58.03
257	-54.61
257.217	64.17
257.433	25.26
257.65	55.98
257.866	33.45
258.082	-9.56
258.299	-42.32
258.515	129.7
258.732	66.22
258.948	-1.37
259.165	-1.37
259.381	23.21
259.597	72.36
259.814	68.27
260.03	-5.46
260.246	88.75
260.463	41.64
260.679	41.64
260.895	-48.47
261.112	113.32
261.328	31.4
261.544	43.69
261.761	127.66
261.977	-25.94
262.193	23.21
262.409	58.03
262.626	49.83
262.842	121.51
263.058	17.07
263.274	47.79
263.49	98.99
263.707	6.83
263.923	76.46
264.139	17.07
264.355	39.59
264.571	6.83
264.787	31.4
265.004	49.83
265.22	37.55
265.436	60.07
265.652	19.11
265.868	96.94
266.084	43.69
266.3	39.59
266.516	6.83
266.732	131.75
266.948	35.5
267.164	27.31
267.38	60.07
267.596	53.93
267.812	31.4
268.028	31.4
268.244	21.16
268.46	25.26
268.676	-23.89
268.892	6.83
269.108	31.4
269.324	68.27
269.54	-40.28
269.756	107.18
269.972	33.45
270.188	0.68
270.403	-36.18
270.619	-13.65
270.835	49.83
271.051	17.07
271.267	-50.52
271.483	45.74
271.698	70.31
271.914	60.07
272.13	-34.13
272.346	8.87
272.562	98.99
272.777	47.79
272.993	23.21
273.209	15.02
273.425	49.83
273.64	-23.89
273.856	17.07
274.072	80.55
274.287	125.61
274.503	47.79
274.719	121.51
274.934	37.55
275.15	-7.51
275.366	39.59
275.581	-71
275.797	39.59
276.012	43.69
276.228	43.69
276.444	8.87
276.659	39.59
276.875	39.59
277.09	-1.37
277.306	33.45
277.521	41.64
277.737	35.5
277.952	29.35
278.168	35.5
278.383	55.98
278.599	92.84
278.814	90.79
279.03	41.64
279.245	90.79
279.461	72.36
279.676	51.88
279.892	27.31
280.107	72.36
280.322	-11.61
280.538	23.21
280.753	0.68
280.969	68.27
281.184	70.31
281.399	74.41
281.615	35.5
281.83	88.75
282.045	-50.52
282.26	-17.75
282.476	53.93
282.691	119.46
282.906	39.59
283.122	96.94
283.337	41.64
283.552	10.92
283.767	64.17
283.983	66.22
284.198	-32.08
284.413	62.12
284.628	23.21
284.843	109.23
285.058	31.4
285.274	72.36
285.489	-11.61
285.704	47.79
285.919	-23.89
286.134	19.11
286.349	6.83
286.564	-7.51
286.779	-5.46
286.995	80.55
287.21	64.17
287.425	98.99
287.64	0.68
287.855	2.73
288.07	12.97
288.285	107.18
288.5	94.89
288.715	64.17
288.93	31.4
289.145	-40.28
289.36	47.79
289.575	39.59
289.79	125.61
290.004	23.21
290.219	23.21
290.434	33.45
290.649	41.64
290.864	84.65
291.079	27.31
291.294	19.11
291.509	-54.61
291.724	39.59
291.938	-5.46
292.153	23.21
292.368	23.21
292.583	17.07
292.798	80.55
293.012	80.55
293.227	86.7
293.442	31.4
293.657	70.31
293.871	88.75
294.086	84.65
294.301	53.93
294.516	8.87
294.73	60.07
294.945	25.26
295.16	39.59
295.374	121.51
295.589	115.37
295.804	86.7
296.018	90.79
296.233	74.41
296.447	105.13
296.662	58.03
296.877	113.32
297.091	41.64
297.306	-7.51
297.52	53.93
297.735	6.83
297.949	47.79
298.164	72.36
298.378	47.79
298.593	-19.8
298.807	15.02
299.022	25.26
299.236	103.08
299.451	64.17
299.665	-5.46
299.88	55.98
300.094	31.4
300.309	-13.65
300.523	-5.46
300.737	80.55
300.952	66.22
301.166	23.21
301.381	-3.41
301.595	47.79
301.809	105.13
302.024	19.11
302.238	-34.13
302.452	92.84
302.667	80.55
302.881	121.51
303.095	33.45
303.309	19.11
303.524	-42.32
303.738	45.74
303.952	-40.28
304.166	119.46
304.381	27.31
304.595	90.79
304.809	-25.94
305.023	107.18
305.237	23.21
305.452	15.02
305.666	55.98
305.88	195.24
306.094	35.5
306.308	113.32
306.522	96.94
306.736	117.42
306.95	8.87
307.164	41.64
307.379	96.94
307.593	47.79
307.807	84.65
308.021	58.03
308.235	55.98
308.449	-23.89
308.663	55.98
308.877	98.99
309.091	64.17
309.305	121.51
309.519	-56.66
309.733	23.21
309.947	-1.37
310.161	72.36
310.374	68.27
310.588	47.79
310.802	39.59
311.016	76.46
311.23	72.36
311.444	49.83
311.658	39.59
311.872	55.98
312.085	33.45
312.299	31.4
312.513	23.21
312.727	55.98
312.941	-21.85
313.154	109.23
313.368	55.98
313.582	53.93
313.796	60.07
314.009	6.83
314.223	88.75
314.437	55.98
314.651	96.94
314.864	76.46
315.078	37.55
315.292	84.65
315.505	6.83
315.719	49.83
315.933	84.65
316.146	10.92
316.36	55.98
316.573	74.41
316.787	74.41
317.001	23.21
317.214	-15.7
317.428	64.17
317.641	-9.56
317.855	58.03
318.068	121.51
318.282	72.36
318.495	121.51
318.709	60.07
318.922	60.07
319.136	45.74
319.349	96.94
319.563	-13.65
319.776	43.69
319.99	25.26
320.203	68.27
320.417	47.79
320.63	0.68
320.843	131.75
321.057	-9.56
321.27	55.98
321.483	121.51
321.697	84.65
321.91	76.46
322.124	55.98
322.337	60.07
322.55	17.07
322.763	45.74
322.977	39.59
323.19	21.16
323.403	43.69
323.617	113.32
323.83	90.79
324.043	39.59
324.256	6.83
324.469	-50.52
324.683	90.79
324.896	0.68
325.109	51.88
325.322	80.55
325.535	90.79
325.748	121.51
325.962	64.17
326.175	-9.56
326.388	107.18
326.601	-9.56
326.814	58.03
327.027	31.4
327.24	154.28
327.453	-27.99
327.666	-13.65
327.879	33.45
328.092	88.75
328.305	6.83
328.518	15.02
328.731	12.97
328.944	35.5
329.157	96.94
329.37	60.07
329.583	103.08
329.796	72.36
330.009	-11.61
330.222	49.83
330.435	31.4
330.648	-1.37
330.861	27.31
331.073	70.31
331.286	107.18
331.499	72.36
331.712	-9.56
331.925	47.79
332.138	154.28
332.35	55.98
332.563	6.83
332.776	76.46
332.989	25.26
333.202	-9.56
333.414	-19.8
333.627	17.07
333.84	37.55
334.053	64.17
334.265	64.17
334.478	10.92
334.691	33.45
334.903	27.31
335.116	39.59
335.329	88.75
335.541	82.6
335.754	64.17
335.966	47.79
336.179	15.02
336.392	19.11
336.604	58.03
336.817	80.55
337.029	39.59
337.242	25.26
337.454	64.17
337.667	58.03
337.88	23.21
338.092	49.83
338.305	121.51
338.517	39.59
338.729	72.36
338.942	74.41
339.154	25.26
339.367	-30.04
339.579	0.68
339.792	-23.89
340.004	51.88
340.217	47.79
340.429	-9.56
340.641	-11.61
340.854	105.13
341.066	58.03
341.278	117.42
341.491	80.55
341.703	86.7
341.915	64.17
342.128	27.31
342.34	101.03
342.552	98.99
342.764	39.59
342.977	96.94
343.189	39.59
343.401	72.36
343.613	-73.04
343.826	6.83
344.038	31.4
344.25	105.13
344.462	109.23
344.674	6.83
344.886	25.26
345.099	139.94
345.311	90.79
345.523	58.03
345.735	-44.37
345.947	105.13
346.159	92.84
346.371	55.98
346.583	82.6
346.795	146.09
347.007	0.68
347.219	33.45
347.431	15.02
347.643	101.03
347.855	33.45
348.067	33.45
348.279	2.73
348.491	84.65
348.703	105.13
348.915	123.56
349.127	58.03
349.339	45.74
349.551	-60.76
349.763	10.92
349.975	84.65
350.187	23.21
350.399	55.98
350.61	98.99
350.822	-23.89
351.034	6.83
351.246	27.31
351.458	72.36
351.669	76.46
351.881	150.18
352.093	115.37
352.305	6.83
352.517	25.26
352.728	19.11
352.94	66.22
353.152	47.79
353.363	-42.32
353.575	47.79
353.787	133.8
353.999	105.13
354.21	47.79
354.422	27.31
354.633	10.92
354.845	62.12
355.057	64.17
355.268	55.98
355.48	187.05
355.692	31.4
355.903	-15.7
356.115	72.36
356.326	4.78
356.538	113.32
356.749	105.13
356.961	94.89
357.172	33.45
357.384	-1.37
357.595	154.28
357.807	51.88
358.018	47.79
358.23	37.55
358.441	90.79
358.653	74.41
358.864	94.89
359.075	23.21
359.287	39.59
359.498	117.42
359.709	58.03
359.921	25.26
360.132	33.45
360.344	25.26
360.555	131.75
360.766	58.03
360.977	64.17
361.189	119.46
361.4	64.17
361.611	113.32
361.823	115.37
362.034	55.98
362.245	25.26
362.456	-17.75
362.667	19.11
362.879	117.42
363.09	78.51
363.301	47.79
363.512	86.7
363.723	-7.51
363.935	98.99
364.146	98.99
364.357	107.18
364.568	90.79
364.779	19.11
364.99	27.31
365.201	72.36
365.412	117.42
365.623	72.36
365.834	51.88
366.045	39.59
366.256	60.07
366.467	55.98
366.678	12.97
366.889	64.17
367.1	88.75
367.311	115.37
367.522	41.64
367.733	4.78
367.944	64.17
368.155	35.5
368.366	39.59
368.577	113.32
368.788	115.37
368.999	37.55
369.209	74.41
369.42	154.28
369.631	182.95
369.842	62.12
370.053	15.02
370.264	123.56
370.474	60.07
370.685	78.51
370.896	49.83
371.107	82.6
371.317	-9.56
371.528	107.18
371.739	12.97
371.95	6.83
372.16	82.6
372.371	-38.23
372.582	39.59
372.792	35.5
373.003	6.83
373.214	-15.7
373.424	-7.51
373.635	49.83
373.846	113.32
374.056	62.12
374.267	98.99
374.477	88.75
374.688	64.17
374.898	33.45
375.109	146.09
375.319	125.61
375.53	70.31
375.74	80.55
375.951	80.55
376.161	160.42
376.372	80.55
376.582	84.65
376.793	19.11
377.003	80.55
377.214	17.07
377.424	68.27
377.635	15.02
377.845	72.36
378.055	109.23
378.266	-15.7
378.476	55.98
378.686	84.65
378.897	25.26
379.107	72.36
379.317	66.22
379.528	12.97
379.738	51.88
379.948	49.83
380.158	96.94
380.369	113.32
380.579	137.9
380.789	-7.51
380.999	80.55
381.21	60.07
381.42	66.22
381.63	23.21
381.84	72.36
382.05	78.51
382.261	72.36
382.471	162.47
382.681	148.14
382.891	49.83
383.101	156.33
383.311	-30.04
383.521	31.4
383.731	64.17
383.941	64.17
384.151	-1.37
384.361	72.36
384.571	-1.37
384.781	88.75
384.991	166.57
385.201	156.33
385.411	4.78
385.621	6.83
385.831	107.18
386.041	74.41
386.251	74.41
386.461	58.03
386.671	117.42
386.881	47.79
387.091	113.32
387.301	41.64
387.511	23.21
387.72	88.75
387.93	35.5
388.14	21.16
388.35	35.5
388.56	88.75
388.769	146.09
388.979	129.7
389.189	55.98
389.399	33.45
389.609	72.36
389.818	90.79
390.028	45.74
390.238	172.71
390.447	55.98
390.657	88.75
390.867	84.65
391.076	2.73
391.286	105.13
391.496	76.46
391.705	23.21
391.915	78.51
392.125	129.7
392.334	80.55
392.544	66.22
392.753	10.92
392.963	121.51
393.172	176.81
393.382	-19.8
393.591	164.52
393.801	19.11
394.01	117.42
394.22	101.03
394.429	88.75
394.639	90.79
394.848	150.18
395.058	98.99
395.267	176.81
395.477	105.13
395.686	146.09
395.895	176.81
396.105	217.77
396.314	182.95
396.524	94.89
396.733	129.7
396.942	203.43
397.152	137.9
397.361	178.86
397.57	133.8
397.78	60.07
397.989	101.03
398.198	187.05
398.407	117.42
398.617	96.94
398.826	94.89
399.035	129.7
399.244	172.71
399.453	101.03
399.663	170.66
399.872	172.71
400.081	27.31
400.29	174.76
400.499	101.03
400.708	137.9
400.917	98.99
401.127	123.56
401.336	72.36
401.545	228.01
401.754	74.41
401.963	252.58
402.172	96.94
402.381	64.17
402.59	121.51
402.799	187.05
403.008	68.27
403.217	137.9
403.426	133.8
403.635	139.94
403.844	201.38
404.053	150.18
404.262	203.43
404.471	203.43
404.68	219.82
404.888	148.14
405.097	215.72
405.306	164.52
405.515	195.24
405.724	240.3
405.933	221.86
406.142	195.24
406.35	264.87
406.559	205.48
406.768	223.91
406.977	277.16
407.185	275.11
407.394	293.54
407.603	246.44
407.812	240.3
408.02	361.13
408.229	350.89
408.438	285.35
408.646	277.16
408.855	281.25
409.064	336.55
409.272	318.12
409.481	387.75
409.69	387.75
409.898	350.89
410.107	375.46
410.315	457.38
410.524	326.31
410.733	424.61
410.941	395.94
411.15	510.63
411.358	504.48
411.567	457.38
411.775	481.96
411.984	539.3
412.192	565.92
412.401	543.39
412.609	565.92
412.818	664.22
413.026	592.55
413.234	639.65
413.443	617.12
413.651	680.61
413.86	682.66
414.068	768.67
414.276	785.05
414.485	815.77
414.693	860.83
414.901	875.17
415.11	973.47
415.318	891.55
415.526	916.12
415.734	909.98
415.943	977.56
416.151	981.66
416.359	1014.43
416.567	1186.46
416.776	1055.39
416.984	1143.45
417.192	1251.99
417.4	1196.7
417.608	1362.58
417.817	1239.7
418.025	1323.67
418.233	1551
418.441	1485.46
418.649	1501.84
418.857	1551
419.065	1706.64
419.273	1610.39
419.481	1841.81
419.689	1798.8
419.897	1843.85
420.105	1995.4
420.313	2075.27
420.521	2005.64
420.729	2149
420.937	2155.15
421.145	2192.01
421.353	2255.5
421.561	2384.52
421.769	2579.08
421.977	2542.21
422.185	2521.73
422.393	2767.49
422.601	2882.17
422.809	2845.31
423.017	2912.89
423.224	3046.01
423.432	3293.82
423.64	3172.99
423.848	3492.47
424.056	3431.03
424.263	3588.72
424.471	3629.68
424.679	3644.02
424.887	3914.35
425.094	4031.09
425.302	4057.71
425.51	4096.62
425.718	4303.46
425.925	4450.92
426.133	4358.76
426.341	4708.96
426.548	4833.89
426.756	5081.69
426.964	4964.96
427.171	5407.32
427.379	5444.18
427.586	5413.46
427.794	5585.49
428.001	5886.54
428.209	6345.29
428.417	6052.43
428.624	6660.68
428.832	6691.4
429.039	6478.41
429.247	6523.46
429.454	7158.33
429.662	7668.28
429.869	7113.28
430.076	7682.61
430.284	7414.33
430.491	7739.96
430.699	8061.49
430.906	8153.65
431.114	8190.51
431.321	8743.46
431.528	8587.82
431.736	9384.48
431.943	9706.01
432.15	9413.15
432.358	9407
432.565	10082.83
432.772	9953.81
432.979	10506.76
433.187	10738.18
433.394	10721.8
433.601	11532.79
433.808	11442.68
434.016	11555.32
434.223	11979.25
434.43	12495.34
434.637	12499.44
434.844	12820.97
435.052	13326.82
435.259	13220.32
435.466	13359.58
435.673	13173.22
435.88	14055.89
436.087	15038.92
436.294	14686.67
436.501	14350.8
436.708	14651.85
436.915	15251.91
437.122	16040.37
437.329	16044.47
437.537	16335.28
437.743	16507.31
437.95	16736.68
438.157	17465.76
438.364	17996.18
438.571	17766.81
438.778	18198.93
438.985	19442.05
439.192	18938.25
439.399	19571.07
439.606	18928.01
439.813	20156.79
440.02	21320.04
440.227	20967.79
440.433	20769.13
440.64	21657.95
440.847	21578.08
441.054	21891.42
441.261	23038.28
441.467	22856.01
441.674	23335.24
441.881	24179
442.088	24279.35
442.294	23951.68
442.501	24670.51
442.708	25063.72
442.914	25831.71
443.121	26763.54
443.328	26126.62
443.534	27918.59
443.741	27269.39
443.948	26982.67
444.154	28958.96
444.361	28528.89
444.568	29104.37
444.774	29079.79
444.981	29135.09
445.187	30087.39
445.394	31590.6
445.6	31033.55
445.807	34230.43
446.013	32557.24
446.22	33151.15
446.426	34586.78
446.633	34547.87
446.839	35504.27
447.046	34146.47
447.252	36380.8
447.459	36145.28
447.665	36298.88
447.871	37908.58
448.078	39174.23
448.284	37722.22
448.491	38598.75
448.697	39907.4
448.903	40931.39
449.11	40529.98
449.316	40097.86
449.522	40659.01
449.728	41740.33
449.935	42428.45
450.141	42493.99
450.347	42848.28
450.553	41797.68
450.76	42442.79
450.966	43517.97
451.172	43069.47
451.378	44251.14
451.584	43071.51
451.791	44281.86
451.997	44146.7
452.203	44900.35
452.409	44900.35
452.615	44697.6
452.821	43139.1
453.027	42317.86
453.233	44697.6
453.44	42827.81
453.646	43008.03
453.852	43587.6
454.058	44838.91
454.264	43200.54
454.47	43925.52
454.676	43118.62
454.882	44294.15
455.088	40779.84
455.294	40980.54
455.5	41984.04
455.705	42063.91
455.911	40695.87
456.117	39981.13
456.323	39690.32
456.529	37529.71
456.735	38764.64
456.941	38070.37
457.147	37382.26
457.352	35866.76
457.558	35598.48
457.764	36044.93
457.97	35295.38
458.176	34146.47
458.381	34162.85
458.587	32692.41
458.793	32508.09
458.999	30777.56
459.204	33005.75
459.41	32157.89
459.616	30032.1
459.821	30009.57
460.027	29954.27
460.233	29419.75
460.438	27920.64
460.644	28416.25
460.85	27111.69
461.055	26247.45
461.261	26521.88
461.466	24197.43
461.672	23800.13
461.878	24942.89
462.083	23982.4
462.289	23273.8
462.494	23026
462.7	21877.08
462.905	21266.79
463.111	21778.78
463.316	22114.65
463.522	21807.45
463.727	21676.38
463.932	21959
464.138	21287.27
464.343	21631.33
464.549	20769.13
464.754	21629.28
464.959	21395.81
465.165	21219.69
465.37	20306.29
465.575	19693.95
465.781	20609.39
465.986	20574.58
466.191	19562.88
466.397	19550.59
466.602	18522.51
466.807	19364.23
467.012	19243.4
467.218	19059.08
467.423	18827.66
467.628	19104.14
467.833	19591.55
468.038	18815.37
468.244	18514.32
468.449	19175.81
468.654	18467.22
468.859	18149.78
469.064	18131.35
469.269	17660.32
469.474	17467.81
469.679	17971.61
469.885	17387.94
470.09	17574.3
470.295	17476
470.5	17246.63
470.705	17349.03
470.91	16882.09
471.115	16794.03
471.32	17168.8
471.525	16994.73
471.73	16396.72
471.935	16241.07
472.139	15903.16
472.344	15743.42
472.549	15915.45
472.754	15776.19
472.959	15555.01
473.164	15038.92
473.369	14764.49
473.574	15403.46
473.778	15112.64
473.983	15088.07
474.188	14995.91
474.393	14350.8
474.598	14457.29
474.802	14244.31
475.007	14371.28
475.212	14311.89
475.417	13722.07
475.621	13646.3
475.826	13527.52
476.031	13429.21
476.235	13304.29
476.44	13171.17
476.645	13103.59
476.849	13359.58
477.054	12997.09
477.259	12780.01
477.463	12716.52
477.668	12370.41
477.872	12763.62
478.077	12218.86
478.282	12098.03
478.486	11895.29
478.691	12155.38
478.895	12069.36
479.1	11770.36
479.304	11835.89
479.509	11686.39
479.713	11639.29
479.918	11465.21
480.122	11272.7
480.326	11551.23
480.531	11487.74
480.735	11211.26
480.94	11160.06
481.144	11465.21
481.348	10904.07
481.553	11074.05
481.757	11008.51
481.961	10994.18
482.166	11295.23
482.37	11170.3
482.574	10846.73
482.778	10822.15
482.983	10963.46
483.187	11051.52
483.391	11186.69
483.595	10967.56
483.8	10877.44
484.004	10902.02
484.208	11076.1
484.412	10871.3
484.616	10861.06
484.821	10881.54
485.025	10721.8
485.229	10971.65
485.433	10686.98
485.637	10854.92
485.841	10803.72
486.045	10897.92
486.249	10811.91
486.453	10725.89
486.657	10830.34
486.861	11092.48
487.065	10574.35
487.269	10908.16
487.473	10590.73
487.677	10940.93
487.881	10994.18
488.085	10795.53
488.289	10803.72
488.493	10723.85
488.697	10969.6
488.901	10897.92
489.105	10891.78
489.309	10820.1
489.512	10910.21
489.716	10770.95
489.92	11055.62
490.124	10770.95
490.328	11026.95
490.531	10820.1
490.735	10863.11
490.939	11094.53
491.143	10975.75
491.346	10856.97
491.55	11082.24
491.754	11252.22
491.958	11489.79
492.161	11266.56
492.365	11399.68
492.569	11213.31
492.772	11446.78
492.976	11244.03
493.18	11323.9
493.383	11555.32
493.587	11534.84
493.79	11805.17
493.994	11606.52
494.197	11782.65
494.401	11948.53
494.605	11866.61
494.808	11897.33
495.012	11930.1
495.215	12009.97
495.419	12204.53
495.622	12114.42
495.825	12366.32
496.029	12261.87
496.232	12507.63
496.436	12464.62
496.639	12808.68
496.843	12564.97
497.046	12870.12
497.249	13158.88
497.453	13038.05
497.656	13271.52
497.859	13175.27
498.063	13883.86
498.266	13662.68
498.469	13515.23
498.673	13681.11
498.876	13902.29
499.079	14088.66
499.282	13820.38
499.485	14424.53
499.689	14471.63
499.892	14547.4
500.095	14283.22
500.298	15153.6
500.501	14991.81
500.705	15215.04
500.908	15286.72
501.111	15501.76
501.314	15571.39
501.517	15933.88
501.72	15743.42
501.923	15884.73
502.126	16015.8
502.329	16452.02
502.532	16546.22
502.735	16947.62
502.938	16832.94
503.141	17062.31
503.344	17426.85
503.547	17336.74
503.75	17271.2
503.953	17879.45
504.156	18018.71
504.359	18141.59
504.562	18149.78
504.765	18692.49
504.968	18610.57
505.17	18672.01
505.373	18831.76
505.576	19253.64
505.779	19491.2
505.982	19521.92
506.185	19927.42
506.387	19890.56
506.59	20115.83
506.793	20693.36
506.996	20273.53
507.198	21002.6
507.401	20935.02
507.604	21021.03
507.807	21422.44
508.009	21645.66
508.212	21809.5
508.415	21924.19
508.617	22163.8
508.82	22276.44
509.022	22073.69
509.225	22837.58
509.428	22958.41
509.63	23101.77
509.833	23165.26
510.035	24060.22
510.238	23341.38
510.44	23951.68
510.643	24482.1
510.845	24817.97
511.048	24580.4
511.25	24850.74
511.453	24936.75
511.655	25964.83
511.858	25563.43
512.06	25559.33
512.262	25899.3
512.465	25821.47
512.667	26069.28
512.87	26503.45
513.072	26738.96
513.274	27240.72
513.477	27552.01
513.679	27668.74
513.881	28094.72
514.084	28000.51
514.286	28293.37
514.488	28696.82
514.69	29151.47
514.893	29130.99
515.095	29409.51
515.297	29444.33
515.499	29448.43
515.701	30249.18
515.904	30267.61
516.106	30472.41
516.308	30671.06
516.51	31203.53
516.712	31156.43
516.914	31213.77
517.116	31858.88
517.318	32053.44
517.52	32198.85
517.722	32315.58
517.925	32657.59
518.127	33048.75
518.329	33231.02
518.531	32669.88
518.733	33403.05
518.935	33775.78
519.136	33665.19
519.338	34445.47
519.54	34574.49
519.742	34617.5
519.944	34597.02
520.146	35254.42
520.348	35365.01
520.55	35127.44
520.752	35735.69
520.954	36302.98
521.155	35844.23
521.357	36192.39
521.559	36587.64
521.761	37224.56
521.963	36724.86
522.164	37128.31
522.366	37066.87
522.568	37714.03
522.77	37470.32
522.971	38160.48
523.173	37834.86
523.375	37896.3
523.576	38172.77
523.778	38203.49
523.98	38754.4
524.181	38924.38
524.383	38660.19
524.584	39235.67
524.786	39362.64
524.988	38666.33
525.189	39262.29
525.391	39436.37
525.592	39721.04
525.794	39669.84
525.995	39565.39
526.197	39727.18
526.398	39387.22
526.6	40241.22
526.801	39997.51
527.003	40003.66
527.204	40290.37
527.406	40626.24
527.607	40093.77
527.808	40093.77
528.01	39577.68
528.211	40073.29
528.412	40912.95
528.614	40798.27
528.815	40306.76
529.016	40685.63
529.218	40329.28
529.419	40230.98
529.62	40577.09
529.822	40716.35
530.023	40656.96
530.224	40878.14
530.425	40437.83
530.626	40583.23
530.828	40282.18
531.029	41121.85
531.23	40609.85
531.431	40472.64
531.632	40722.49
531.833	40677.44
532.035	40577.09
532.236	40507.46
532.437	40847.42
532.638	40380.48
532.839	40622.14
533.04	40822.84
533.241	39913.55
533.442	40794.17
533.643	40243.27
533.844	40128.58
534.045	40212.55
534.246	39721.04
534.447	40364.1
534.648	40216.64
534.849	40104.01
535.05	40269.89
535.251	40079.43
535.451	39757.9
535.652	40161.35
535.853	39802.96
536.054	39708.75
536.255	39637.07
536.456	39383.12
536.657	40108.1
536.857	39675.98
537.058	39727.18
537.259	39733.32
537.46	39880.78
537.66	39305.3
537.861	39577.68
538.062	39352.4
538.263	39229.52
538.463	39020.63
538.664	39575.63
538.865	39440.46
539.065	39526.48
539.266	38969.43
539.466	39176.28
539.667	38979.67
539.868	39587.92
540.068	38940.76
540.269	39305.3
540.469	39694.41
540.67	38924.38
540.87	39080.02
541.071	38791.26
541.271	39010.39
541.472	38967.38
541.672	38692.96
541.873	38797.4
542.073	38875.23
542.274	39262.29
542.474	38611.04
542.675	38563.93
542.875	39098.45
543.075	38389.86
543.276	38359.14
543.476	38760.54
543.676	38979.67
543.877	38789.21
544.077	38723.68
544.277	38637.66
544.478	38740.06
544.678	38484.06
544.878	38787.16
545.078	38545.5
545.279	38471.78
545.479	38486.11
545.679	38805.59
545.879	38260.83
546.079	38551.65
546.28	38123.62
546.48	38090.85
546.68	38572.13
546.88	38570.08
547.08	38482.02
547.28	38156.39
547.48	37994.6
547.68	38637.66
547.88	38424.67
548.081	39055.45
548.281	38643.81
548.481	37996.65
548.681	38760.54
548.881	38535.26
549.081	38541.41
549.28	38287.46
549.48	38787.16
549.68	38498.4
549.88	38758.49
550.08	38023.27
550.28	38600.8
550.48	38387.81
550.68	38946.9
550.88	38449.25
551.08	38785.11
551.279	38942.81
551.479	38375.52
551.679	38682.72
551.879	38760.54
552.079	38844.51
552.278	38447.2
552.478	38490.21
552.678	38447.2
552.878	38811.74
553.077	38531.17
553.277	38275.17
553.477	38877.27
553.676	38565.98
553.876	38522.97
554.076	38514.78
554.275	38838.36
554.475	38400.1
554.674	38778.97
554.874	38836.31
555.074	38756.44
555.273	38686.81
555.473	38676.57
555.672	38529.12
555.872	38975.58
556.071	38664.28
556.271	39137.37
556.47	38531.17
556.67	38279.27
556.869	38649.95
557.068	38727.77
557.268	38506.59
557.467	38815.83
557.667	38719.58
557.866	38850.65
558.065	38375.52
558.265	38969.43
558.464	38680.67
558.663	38959.19
558.863	38240.36
559.062	39020.63
559.261	38686.81
559.461	39438.42
559.66	38717.53
559.859	38799.45
560.058	38410.34
560.258	38907.99
560.457	38629.47
560.656	39211.09
560.855	38742.11
561.054	39168.08
561.253	38568.03
561.453	38598.75
561.652	38500.45
561.851	38791.26
562.05	38422.62
562.249	38776.92
562.448	38664.28
562.647	38430.82
562.846	38482.02
563.045	38449.25
563.244	38436.96
563.443	38776.92
563.642	38555.74
563.841	38346.85
564.04	38056.04
564.239	38418.53
564.438	38336.61
564.637	38289.51
564.836	38576.22
565.035	37654.64
565.234	38635.61
565.432	38357.09
565.631	38058.09
565.83	38320.23
566.029	38047.85
566.228	38056.04
566.427	37580.91
566.625	37668.97
566.824	37312.63
567.023	38058.09
567.222	37576.81
567.42	37785.71
567.619	37570.67
567.818	37363.82
568.016	37589.1
568.215	37967.98
568.414	37312.63
568.612	37593.2
568.811	37466.22
569.01	37009.53
569.208	36978.81
569.407	37202.03
569.605	36800.63
569.804	37070.96
570.002	36642.94
570.201	36962.42
570.4	36827.26
570.598	36696.19
570.797	36251.78
570.995	36317.31
571.193	36153.47
571.392	36472.96
571.59	35954.82
571.789	36388.99
571.987	35903.62
572.186	36022.4
572.384	35821.7
572.582	35930.25
572.781	36112.52
572.979	35121.3
573.177	35901.57
573.376	35831.94
573.574	34922.65
573.772	35637.39
573.971	35397.77
574.169	35166.35
574.367	35227.79
574.565	35100.82
574.763	35133.59
574.962	34814.1
575.16	34257.06
575.358	34521.24
575.556	34279.58
575.754	34752.66
575.952	34408.61
576.151	34971.8
576.349	34240.67
576.547	34279.58
576.745	34498.72
576.943	33888.42
577.141	33964.2
577.339	33974.44
577.537	33755.3
577.735	33636.52
577.933	33325.23
578.131	33839.27
578.329	33622.19
578.527	32770.23
578.725	33366.19
578.923	33149.1
579.121	33054.9
579.319	32999.6
579.516	32925.88
579.714	32895.16
579.912	32700.6
580.11	32542.91
580.308	32415.93
580.506	32483.51
580.704	31916.23
580.901	32182.46
581.099	32966.84
581.297	32549.05
581.495	32104.64
581.692	32254.14
581.89	31764.68
582.088	32383.16
582.285	31998.15
582.483	32121.02
582.681	31457.48
582.878	31353.04
583.076	30929.11
583.274	31869.12
583.471	31312.08
583.669	31383.76
583.866	31107.28
584.064	31731.91
584.262	30804.18
584.459	31613.13
584.657	30937.3
584.854	31234.25
585.052	30847.19
585.249	30847.19
585.447	30806.23
585.644	30240.99
585.841	30740.69
586.039	30795.99
586.236	30183.65
586.434	30406.87
586.631	30339.29
586.828	30476.51
587.026	29999.33
587.223	30122.21
587.42	30048.48
587.618	30068.96
587.815	29604.07
588.012	29708.52
588.21	29817.06
588.407	30003.42
588.604	29667.56
588.801	29397.23
588.999	29669.61
589.196	29870.31
589.393	29403.37
589.59	29210.86
589.787	29245.68
589.984	29128.94
590.182	29032.69
590.379	29501.67
590.576	28881.14
590.773	28883.19
590.97	28842.23
591.167	28995.82
591.364	28430.58
591.561	29028.59
591.758	28680.44
591.955	28489.98
592.152	28883.19
592.349	28403.96
592.546	28502.26
592.743	28293.37
592.94	28145.92
593.137	28262.65
593.334	28180.73
593.531	28064
593.727	28178.68
593.924	28035.33
594.121	27775.23
594.318	28182.78
594.515	27922.69
594.712	28164.35
594.908	27949.31
595.105	27803.91
595.302	27785.47
595.499	28137.73
595.696	27750.66
595.892	27588.87
596.089	27834.63
596.286	27767.04
596.482	27867.39
596.679	27523.33
596.876	27629.83
597.072	27662.6
597.269	27760.9
597.466	27455.75
597.662	27336.97
597.859	27595.01
598.055	27572.49
598.252	27330.83
598.448	27382.02
598.645	27097.36
598.841	27365.64
599.038	27560.2
599.234	27357.45
599.431	27160.84
599.627	26855.7
599.824	27488.52
600.02	27042.06
600.217	27246.86
600.413	27232.52
600.609	26980.62
600.806	26954
601.002	27543.81
601.198	26939.66
601.395	27097.36
601.591	26896.66
601.787	27193.61
601.984	27224.33
602.18	27384.07
602.376	26984.72
602.572	26945.81
602.769	26870.03
602.965	27007.25
603.161	27435.27
603.357	26700.05
603.553	27121.93
603.75	27248.91
603.946	26958.1
604.142	27267.34
604.338	26695.96
604.534	27287.82
604.73	26722.58
604.926	26906.9
605.122	26781.97
605.318	26894.61
605.514	26681.62
605.71	26814.74
605.906	27443.46
606.102	27160.84
606.298	27132.17
606.494	26829.07
606.69	27365.64
606.886	27259.15
607.082	26814.74
607.278	27052.3
607.474	26765.59
607.67	26990.86
607.866	26900.75
608.062	27511.05
608.257	27056.4
608.453	26997.01
608.649	27371.78
608.845	27021.58
609.041	27250.95
609.236	27304.2
609.432	27230.48
609.628	27183.37
609.824	27435.27
610.019	27382.02
610.215	27181.32
610.411	27390.22
610.606	27238.67
610.802	27801.86
610.998	27191.56
611.193	27574.53
611.389	27353.35
611.584	27296.01
611.78	27271.43
611.976	27738.37
612.171	27615.49
612.367	27492.62
612.562	27298.06
612.758	27465.99
612.953	27238.67
613.149	27687.17
613.344	27306.25
613.539	27619.59
613.735	27535.62
613.93	27547.91
614.126	27535.62
614.321	27877.63
614.517	27509
614.712	27713.8
614.907	27363.59
615.103	27584.77
615.298	27166.99
615.493	27926.78
615.688	27244.81
615.884	27756.8
616.079	27427.08
616.274	27486.47
616.47	27425.03
616.665	27808
616.86	27519.24
617.055	27664.64
617.25	27486.47
617.445	27672.84
617.641	27027.73
617.836	27173.13
618.031	26794.26
618.226	27064.59
618.421	27222.28
618.616	27408.65
618.811	26964.24
619.006	27379.98
619.201	26792.21
619.396	26798.35
619.591	26622.23
619.786	26880.27
619.981	26376.47
620.176	26878.22
620.371	26513.69
620.566	26546.45
620.761	26353.94
620.956	26499.35
621.151	25946.4
621.346	26401.05
621.541	25903.39
621.735	26147.1
621.93	25622.82
622.125	25725.22
622.32	25461.03
622.515	25721.12
622.709	25424.17
622.904	25354.54
623.099	25080.11
623.294	25045.29
623.488	25012.53
623.683	25243.95
623.878	24570.16
624.072	24772.91
624.267	24660.27
624.462	24828.21
624.656	24439.09
624.851	24240.44
625.046	24342.84
625.24	23976.25
625.435	23902.53
625.629	23953.73
625.824	23949.63
626.018	23785.79
626.213	23255.37
626.407	23787.84
626.602	23171.4
626.796	23269.7
626.991	23402.82
627.185	23036.24
627.38	22720.85
627.574	22407.51
627.768	22761.81
627.963	22333.78
628.157	22360.41
628.352	22675.79
628.546	22124.89
628.74	22038.87
628.935	21758.3
629.129	21987.68
629.323	21784.93
629.517	21772.64
629.712	21565.79
629.906	21338.47
630.1	21156.2
630.294	21328.23
630.489	21092.71
630.683	21113.19
630.877	21057.9
631.071	20736.37
631.265	21127.53
631.459	20705.65
631.653	20564.34
631.848	20799.85
632.042	20431.22
632.236	20267.38
632.43	20521.33
632.624	20316.53
632.818	20033.91
633.012	19843.45
633.206	19753.34
633.4	19755.39
633.594	19569.02
633.788	19458.43
633.982	19556.74
634.176	19505.54
634.369	19358.08
634.563	19065.22
634.757	19030.41
634.951	19136.9
635.145	18956.68
635.339	18813.32
635.533	18293.14
635.726	18526.61
635.92	18192.79
636.114	18563.47
636.308	18262.42
636.501	18205.08
636.695	18368.91
636.889	18112.92
637.083	17942.94
637.276	17916.31
637.47	17551.77
637.664	17609.12
637.857	17764.76
638.051	17521.06
638.244	17271.2
638.438	17226.15
638.632	17086.89
638.825	16820.65
639.019	17029.54
639.212	16808.36
639.406	16908.71
639.599	16615.85
639.793	16742.83
639.986	16521.65
640.18	16267.7
640.373	16433.58
640.567	16261.55
640.76	16275.89
640.954	15966.65
641.147	15757.75
641.34	15782.33
641.534	16048.57
641.727	15837.62
641.92	15544.77
642.114	15630.78
642.307	15483.33
642.5	15239.62
642.694	15143.36
642.887	15118.79
643.08	14963.14
643.273	14819.78
643.467	14856.65
643.66	14674.38
643.853	14612.94
644.046	14342.61
644.239	14367.18
644.432	14383.57
644.626	14561.74
644.819	14191.06
645.012	14318.03
645.205	14367.18
645.398	14131.67
645.591	13849.05
645.784	14074.32
645.977	13750.74
646.17	13916.63
646.363	13662.68
646.556	13361.63
646.749	13335.01
646.942	13543.9
647.135	13230.56
647.328	13486.56
647.521	13167.07
647.714	13081.06
647.907	12829.16
648.099	12974.56
648.292	13056.48
648.485	12876.26
648.678	12800.49
648.871	12591.59
649.064	12597.74
649.256	12671.47
649.449	12319.21
649.642	12315.12
649.835	12300.78
650.027	12321.26
650.22	12095.99
650.413	11778.55
650.605	12122.61
650.798	11934.2
650.991	11913.72
651.183	11753.98
651.376	11786.74
651.568	11835.89
651.761	11700.73
651.954	11627
652.146	11549.18
652.339	11600.38
652.531	11450.88
652.724	11350.53
652.916	11362.81
653.109	11309.57
653.301	11262.46
653.494	11168.26
653.686	10955.27
653.879	11416.06
654.071	10895.88
654.263	10885.64
654.456	10699.27
654.648	10985.99
654.84	10525.19
655.033	10668.55
655.225	10451.47
655.417	10308.11
655.61	10359.31
655.802	10539.53
655.994	10461.71
656.186	10285.58
656.379	10140.18
656.571	10222.09
656.763	10099.22
656.955	10158.61
657.148	10125.84
657.34	10017.3
657.532	9933.33
657.724	9837.08
657.916	9755.16
658.108	9706.01
658.3	9816.6
658.492	9708.05
658.684	9650.71
658.876	9486.87
659.068	9714.2
659.26	9665.05
659.452	9517.59
659.644	9314.84
659.836	9253.41
660.028	9374.24
660.22	9120.29
660.412	9112.1
660.604	8991.27
660.796	9077.28
660.988	8878.63
661.18	8895.01
661.372	8649.25
661.563	8907.3
661.755	8809
661.947	8854.05
662.139	8653.35
662.331	8528.42
662.522	8411.69
662.714	8380.97
662.906	8645.16
663.097	8512.04
663.289	8327.72
663.481	8286.76
663.673	8397.35
663.864	8182.32
664.056	8086.06
664.247	8354.35
664.439	7971.38
664.631	8051.25
664.822	8051.25
665.014	8032.82
665.205	8051.25
665.397	7979.57
665.588	7911.99
665.78	7658.04
665.971	7828.02
666.163	7668.28
666.354	7776.82
666.546	7594.55
666.737	7672.37
666.929	7610.93
667.12	7655.99
667.311	7445.05
667.503	7289.4
667.694	7512.63
667.885	7576.12
668.077	7578.17
668.268	7412.28
668.459	7189.05
668.651	7367.23
668.842	7166.53
669.033	7227.96
669.224	7135.81
669.416	7211.58
669.607	7053.89
669.798	7090.75
669.989	7086.65
670.18	7043.65
670.371	7047.74
670.563	6955.58
670.754	7023.17
670.945	6822.47
671.136	6910.53
671.327	6879.81
671.518	6806.08
671.709	6689.35
671.9	6668.87
672.091	6814.27
672.282	6615.62
672.473	6644.29
672.664	6707.78
672.855	6517.32
673.046	6746.69
673.237	6550.09
673.428	6701.64
673.619	6589
673.809	6535.75
674	6527.56
674.191	6556.23
674.382	6576.71
674.573	6347.34
674.764	6494.79
674.954	6423.11
675.145	6355.53
675.336	6353.48
675.527	6437.45
675.717	6396.49
675.908	6414.92
676.099	6314.57
676.289	6308.43
676.48	6203.98
676.671	6097.49
676.861	6212.17
677.052	6054.48
677.243	6095.44
677.433	6079.05
677.624	6261.32
677.814	6036.05
678.005	6054.48
678.195	6175.31
678.386	6201.93
678.576	5921.36
678.767	6085.2
678.957	6029.9
679.148	6097.49
679.338	6136.4
679.529	6034
679.719	6021.71
679.909	6109.77
680.1	6160.97
680.29	5855.83
680.481	5941.84
680.671	5847.63
680.861	5888.59
681.052	5814.87
681.242	5833.3
681.432	6023.76
681.622	5866.07
681.813	5896.78
682.003	5790.29
682.193	5833.3
682.383	5915.22
682.573	5782.1
682.764	5847.63
682.954	5710.42
683.144	5894.74
683.334	5847.63
683.524	5841.49
683.714	5823.06
683.904	5759.57
684.094	5788.24
684.284	5675.6
684.474	5696.08
684.664	5732.95
684.854	5687.89
685.044	5825.11
685.234	5577.3
685.424	5462.62
685.614	5651.03
685.804	5696.08
685.994	5665.36
686.184	5831.25
686.374	5487.19
686.564	5526.1
686.753	5765.71
686.943	5530.2
687.133	5603.93
687.323	5569.11
687.513	5325.4
687.702	5458.52
687.892	5487.19
688.082	5491.29
688.272	5442.14
688.461	5450.33
688.651	5499.48
688.841	5235.29
689.03	5497.43
689.22	5341.79
689.41	5294.68
689.599	5251.67
689.789	5450.33
689.979	5266.01
690.168	5292.63
690.358	5235.29
690.547	5126.75
690.737	5220.95
690.926	5241.43
691.116	5110.36
691.305	5206.62
691.495	5104.22
691.684	5059.17
691.874	5085.79
692.063	5202.52
692.252	5096.03
692.442	4991.58
692.631	4981.34
692.82	5020.25
693.01	4844.13
693.199	4991.58
693.388	4880.99
693.578	4889.18
693.767	4995.68
693.956	5020.25
694.146	4811.36
694.335	4790.88
694.524	4774.5
694.713	4932.19
694.902	4907.62
695.092	4932.19
695.281	4825.7
695.47	4831.84
695.659	4905.57
695.848	4852.32
696.037	4672.1
696.226	4889.18
696.415	4762.21
696.604	4717.15
696.793	4528.74
696.982	4627.04
697.171	4778.59
697.36	4743.78
697.549	4670.05
697.738	4643.43
697.927	4618.85
698.116	4776.55
698.305	4661.86
698.494	4649.57
698.683	4569.7
698.872	4737.63
699.061	4538.98
699.25	4622.95
699.438	4506.21
699.627	4516.45
699.816	4522.6
700.005	4467.3
700.193	4328.04
700.382	4598.37
700.571	4520.55
700.76	4475.49
700.948	4391.53
701.137	4491.88
701.326	4311.66
701.514	4323.94
701.703	4303.46
701.892	4258.41
702.08	4465.25
702.269	4334.18
702.457	4258.41
702.646	4450.92
702.834	4217.45
703.023	4282.99
703.212	4307.56
703.4	4229.74
703.589	4323.94
703.777	4276.84
703.965	4203.11
704.154	4295.27
704.342	4188.78
704.531	4225.64
704.719	4227.69
704.907	4190.83
705.096	4260.46
705.284	4053.61
705.472	4164.2
705.661	4119.15
705.849	4070
706.037	4151.92
706.226	4123.24
706.414	4113
706.602	3967.6
706.79	4063.85
706.979	3983.98
707.167	3957.36
707.355	3943.02
707.543	4090.48
707.731	3943.02
707.919	3963.5
708.107	3869.3
708.296	3922.54
708.484	3885.68
708.672	3996.27
708.86	3961.45
709.048	3893.87
709.236	3799.66
709.424	3971.69
709.612	3832.43
709.8	3854.96
709.988	3789.42
710.176	3859.06
710.364	3762.8
710.551	3840.62
710.739	3770.99
710.927	3844.72
711.115	3736.18
711.303	3752.56
711.491	3789.42
711.679	3668.59
711.866	3734.13
712.054	3861.1
712.242	3570.29
712.43	3664.5
712.617	3717.75
712.805	3689.07
712.993	3730.03
713.181	3574.39
713.368	3627.64
713.556	3533.43
713.744	3543.67
713.931	3641.97
714.119	3553.91
714.306	3609.2
714.494	3537.52
714.682	3648.11
714.869	3465.85
715.057	3596.92
715.244	3553.91
715.432	3594.87
715.619	3539.57
715.807	3654.26
715.994	3551.86
716.182	3467.89
716.369	3410.55
716.556	3471.99
716.744	3349.11
716.931	3525.24
717.119	3496.57
717.306	3508.85
717.493	3392.12
717.681	3302.01
717.868	3345.02
718.055	3439.22
718.242	3355.26
718.43	3398.26
718.617	3340.92
718.804	3375.74
718.991	3261.05
719.179	3302.01
719.366	3365.5
719.553	3175.03
719.74	3259
719.927	3238.52
720.114	3310.2
720.301	3324.54
720.488	3164.79
720.676	3201.66
720.863	3236.47
721.05	3236.47
721.237	3302.01
721.424	3191.42
721.611	3246.71
721.798	3183.23
721.985	3031.68
722.172	3201.66
722.358	3013.24
722.545	3259
722.732	3089.02
722.919	3162.75
723.106	3156.6
723.293	3154.55
723.48	3121.79
723.667	3005.05
723.853	3054.2
724.04	3129.98
724.227	3082.88
724.414	3029.63
724.6	2939.52
724.787	3048.06
724.974	3082.88
725.161	3058.3
725.347	2960
725.534	3011.2
725.72	2953.85
725.907	2939.52
726.094	2939.52
726.28	2996.86
726.467	3086.97
726.653	2980.48
726.84	2992.76
727.027	2941.57
727.213	2951.81
727.4	2878.08
727.586	2873.98
727.773	2916.99
727.959	2820.74
728.145	2886.27
728.332	2824.83
728.518	2873.98
728.705	2923.13
728.891	2886.27
729.077	2890.37
729.264	2783.87
729.45	2744.96
729.636	2843.26
729.823	2722.43
730.009	2849.41
730.195	2968.19
730.382	2851.46
730.568	2796.16
730.754	2914.94
730.94	2876.03
731.126	3033.72
731.313	2882.17
731.499	2820.74
731.685	2689.67
731.871	2800.26
732.057	2787.97
732.243	2851.46
732.429	2644.61
732.615	2812.54
732.801	2824.83
732.987	2730.62
733.173	2660.99
733.359	2728.58
733.545	2656.9
733.731	2742.91
733.917	2720.39
734.103	2720.39
734.289	2624.13
734.475	2716.29
734.661	2693.76
734.847	2638.47
735.033	2654.85
735.219	2781.82
735.404	2640.51
735.59	2564.74
735.776	2652.8
735.962	2613.89
736.148	2581.12
736.333	2554.5
736.519	2570.88
736.705	2577.03
736.89	2730.62
737.076	2646.66
737.262	2558.6
737.447	2497.16
737.633	2577.03
737.819	2531.97
738.004	2423.43
738.19	2556.55
738.375	2488.96
738.561	2505.35
738.747	2521.73
738.932	2431.62
739.118	2517.64
739.303	2556.55
739.489	2480.77
739.674	2386.57
739.859	2464.39
740.045	2409.09
740.23	2411.14
740.416	2300.55
740.601	2441.86
740.786	2349.7
740.972	2433.67
741.157	2454.15
741.342	2194.06
741.528	2341.51
741.713	2431.62
741.898	2349.7
742.084	2450.05
742.269	2329.22
742.454	2325.13
742.639	2390.66
742.824	2243.21
743.01	2359.94
743.195	2341.51
743.38	2226.82
743.565	2271.88
743.75	2192.01
743.935	2144.91
744.12	2226.82
744.305	2140.81
744.49	2251.4
744.675	2302.6
744.86	2177.67
745.045	2114.19
745.23	2095.75
745.415	2151.05
745.6	2171.53
745.785	2128.52
745.97	2085.51
746.155	2218.63
746.34	2054.8
746.525	2112.14
746.71	2134.67
746.895	2075.27
747.079	2015.88
747.264	2073.23
747.449	2001.55
747.634	2079.37
747.819	1952.4
748.003	2013.84
748.188	2001.55
748.373	2024.08
748.557	1880.72
748.742	1989.26
748.927	1874.57
749.111	1991.31
749.296	1770.13
749.481	1833.61
749.665	1893.01
749.85	1768.08
750.034	1870.48
750.219	1831.57
750.404	1815.18
750.588	1735.31
750.773	1661.59
750.957	1788.56
751.141	1809.04
751.326	1882.77
751.51	1661.59
751.695	1792.66
751.879	1776.27
752.064	1772.18
752.248	1686.16
752.432	1647.25
752.617	1708.69
752.801	1596.05
752.985	1673.87
753.17	1673.87
753.354	1612.43
753.538	1551
753.722	1573.52
753.907	1526.42
754.091	1632.91
754.275	1551
754.459	1690.26
754.643	1579.67
754.828	1577.62
755.012	1571.47
755.196	1579.67
755.38	1548.95
755.564	1489.56
755.748	1497.75
755.932	1585.81
756.116	1456.79
756.3	1497.75
756.484	1475.22
756.668	1366.68
756.852	1342.1
757.036	1471.12
757.22	1421.97
757.404	1354.39
757.588	1452.69
757.772	1340.05
757.956	1374.87
758.14	1464.98
758.323	1381.01
758.507	1309.33
758.691	1321.62
758.875	1272.47
759.059	1309.33
759.242	1227.42
759.426	1239.7
759.61	1301.14
759.794	1161.88
759.977	1290.9
760.161	1305.24
760.345	1327.77
760.528	1292.95
760.712	1268.38
760.895	1223.32
761.079	1231.51
761.263	1196.7
761.446	1262.23
761.63	1215.13
761.813	1139.35
761.997	1309.33
762.18	1297.05
762.364	1235.61
762.547	1243.8
762.731	1188.5
762.914	1198.74
763.098	1120.92
763.281	1196.7
763.464	1096.35
763.648	1184.41
763.831	1100.44
764.015	1157.79
764.198	1114.78
764.381	1120.92
764.564	1063.58
764.748	1063.58
764.931	1112.73
765.114	1125.02
765.297	1084.06
765.481	1071.77
765.664	1131.16
765.847	1032.86
766.03	1122.97
766.213	1047.19
766.397	1071.77
766.58	1041.05
766.763	1102.49
766.946	1039
767.129	1006.24
767.312	983.71
767.495	998.04
767.678	1026.71
767.861	1024.67
768.044	985.76
768.227	1034.91
768.41	989.85
768.593	1022.62
768.776	989.85
768.959	1026.71
769.142	1000.09
769.324	989.85
769.507	1012.38
769.69	952.99
769.873	1041.05
770.056	1059.48
770.239	1006.24
770.421	1006.24
770.604	1008.28
770.787	973.47
770.97	989.85
771.152	959.13
771.335	909.98
771.518	981.66
771.7	858.78
771.883	950.94
772.066	907.93
772.248	983.71
772.431	875.17
772.613	920.22
772.796	916.12
772.978	924.32
773.161	912.03
773.343	809.63
773.526	887.45
773.708	846.49
773.891	778.91
774.073	901.79
774.256	879.26
774.438	842.4
774.621	801.44
774.803	848.54
774.985	740
775.168	840.35
775.35	864.93
775.532	852.64
775.715	852.64
775.897	840.35
776.079	801.44
776.261	805.53
776.444	809.63
776.626	733.86
776.808	760.48
776.99	694.94
777.173	719.52
777.355	762.53
777.537	731.81
777.719	760.48
777.901	746.14
778.083	783.01
778.265	696.99
778.447	770.72
778.629	662.18
778.811	641.7
778.993	768.67
779.175	723.62
779.357	725.66
779.539	705.18
779.721	787.1
779.903	676.51
780.085	748.19
780.267	686.75
780.449	670.37
780.631	678.56
780.812	750.24
780.994	670.37
781.176	729.76
781.358	619.17
781.54	590.5
781.721	613.03
781.903	610.98
782.085	584.35
782.267	686.75
782.448	563.87
782.63	631.46
782.812	610.98
782.993	653.98
783.175	623.27
783.357	582.31
783.538	555.68
783.72	539.3
783.901	506.53
784.083	543.39
784.264	608.93
784.446	547.49
784.627	576.16
784.809	547.49
784.99	590.5
785.172	508.58
785.353	514.72
785.535	570.02
785.716	506.53
785.897	549.54
786.079	502.44
786.26	539.3
786.441	527.01
786.623	438.95
786.804	457.38
786.985	426.66
787.167	490.15
787.348	447.14
787.529	522.91
787.71	475.81
787.891	467.62
788.073	473.76
788.254	383.65
788.435	500.39
788.616	535.2
788.797	432.8
788.978	371.37
789.159	453.28
789.34	500.39
789.522	459.43
789.703	406.18
789.884	475.81
790.065	408.23
790.246	420.52
790.427	352.93
790.607	432.8
790.788	436.9
790.969	381.6
791.15	436.9
791.331	367.27
791.512	342.69
791.693	297.64
791.874	397.99
792.054	465.57
792.235	412.32
792.416	397.99
792.597	338.6
792.778	363.17
792.958	459.43
793.139	322.21
793.32	338.6
793.5	332.45
793.681	400.04
793.862	342.69
794.042	328.36
794.223	303.78
794.404	367.27
794.584	240.3
794.765	301.73
794.945	375.46
795.126	391.84
795.306	367.27
795.487	350.89
795.667	275.11
795.848	424.61
796.028	277.16
796.209	408.23
796.389	391.84
796.57	330.41
796.75	309.93
796.93	408.23
797.111	322.21
797.291	350.89
797.471	322.21
797.652	289.45
797.832	301.73
798.012	373.41
798.192	240.3
798.373	215.72
798.553	336.55
798.733	334.5
798.913	254.63
799.093	291.49
799.274	354.98
799.454	334.5
799.634	244.39
799.814	346.79
799.994	385.7
800.174	258.73
800.354	195.24
800.534	289.45
800.714	223.91
800.894	215.72
801.074	260.77
801.254	303.78
801.434	404.13
801.614	205.48
801.794	228.01
801.974	965.28
802.154	287.4
802.334	314.02
802.514	277.16
802.693	236.2
802.873	217.77
803.053	279.21
803.233	299.69
803.413	236.2
803.592	207.53
803.772	228.01
803.952	219.82
804.131	119.46
804.311	342.69
804.491	287.4
804.67	260.77
804.85	283.3
805.03	250.53
805.209	170.66
805.389	207.53
805.568	279.21
805.748	268.97
805.928	271.01
806.107	258.73
806.287	256.68
806.466	195.24
806.646	139.94
806.825	178.86
807.004	230.06
807.184	311.97
807.363	238.25
807.543	252.58
807.722	158.38
807.901	228.01
808.081	189.1
808.26	139.94
808.439	180.9
808.619	209.58
808.798	203.43
808.977	158.38
809.156	260.77
809.336	219.82
809.515	236.2
809.694	170.66
809.873	234.15
810.052	240.3
810.231	240.3
810.411	244.39
810.59	203.43
810.769	98.99
810.948	197.29
811.127	125.61
811.306	170.66
811.485	195.24
811.664	230.06
811.843	170.66
812.022	213.67
812.201	133.8
812.38	215.72
812.559	80.55
812.737	170.66
812.916	209.58
813.095	127.66
813.274	205.48
813.453	162.47
813.632	199.34
813.811	205.48
813.989	115.37
814.168	129.7
814.347	154.28
814.526	103.08
814.704	232.1
814.883	178.86
815.062	209.58
815.24	238.25
815.419	107.18
815.598	162.47
815.776	55.98
815.955	144.04
816.133	109.23
816.312	258.73
816.49	152.23
816.669	180.9
816.847	166.57
817.026	137.9
817.204	115.37
817.383	92.84
817.561	107.18
817.74	154.28
817.918	166.57
818.097	162.47
818.275	105.13
818.453	148.14
818.632	137.9
818.81	113.32
818.988	137.9
819.167	123.56
819.345	131.75
819.523	121.51
819.701	129.7
819.879	178.86
820.058	72.36
820.236	170.66
820.414	141.99
820.592	115.37
820.77	113.32
820.948	72.36
821.127	90.79
821.305	160.42
821.483	111.27
821.661	156.33
821.839	137.9
822.017	137.9
822.195	101.03
822.373	162.47
822.551	105.13
822.729	141.99
822.907	80.55
823.085	121.51
823.262	150.18
823.44	92.84
823.618	86.7
823.796	96.94
823.974	137.9
824.152	80.55
824.329	121.51
824.507	101.03
824.685	197.29
824.863	88.75
825.04	115.37
825.218	72.36
825.396	98.99
825.574	141.99
825.751	168.62
825.929	156.33
826.107	74.41
826.284	148.14
826.462	45.74
826.639	131.75
826.817	-25.94
826.994	195.24
827.172	72.36
827.349	172.71
827.527	72.36
827.704	117.42
827.882	191.14
828.059	133.8
828.237	137.9
828.414	109.23
828.591	15.02
828.769	111.27
828.946	62.12
829.124	182.95
829.301	135.85
829.478	96.94
829.655	113.32
829.833	98.99
830.01	33.45
830.187	84.65
830.364	121.51
830.542	72.36
830.719	55.98
830.896	111.27
831.073	137.9
831.25	127.66
831.427	123.56
831.604	82.6
831.782	72.36
831.959	58.03
832.136	70.31
832.313	105.13
832.49	84.65
832.667	129.7
832.844	27.31
833.021	117.42
833.198	55.98
833.374	74.41
833.551	121.51
833.728	84.65
833.905	72.36
834.082	8.87
834.259	111.27
834.436	131.75
834.612	23.21
834.789	113.32
834.966	72.36
835.143	88.75
835.319	58.03
835.496	55.98
835.673	60.07
835.85	113.32
836.026	64.17
836.203	98.99
836.38	33.45
836.556	39.59
836.733	72.36
836.909	119.46
837.086	8.87
837.262	41.64
837.439	37.55
837.616	39.59
837.792	58.03
837.968	96.94
838.145	35.5
838.321	-9.56
838.498	66.22
838.674	72.36
838.851	19.11
839.027	82.6
839.203	96.94
839.38	94.89
839.556	88.75
839.732	33.45
839.909	21.16
840.085	82.6
840.261	66.22
840.437	146.09
840.614	23.21
840.79	64.17
840.966	35.5
841.142	86.7
841.318	60.07
841.494	105.13
841.671	8.87
841.847	31.4
842.023	-15.7
842.199	88.75
842.375	41.64
842.551	6.83
842.727	-5.46
842.903	98.99
843.079	51.88
843.255	98.99
843.431	35.5
843.607	66.22
843.783	10.92
843.959	74.41
844.134	39.59
844.31	92.84
844.486	-15.7
844.662	72.36
844.838	68.27
845.013	88.75
845.189	80.55
845.365	45.74
845.541	88.75
845.716	39.59
845.892	82.6
846.068	17.07
846.244	4.78
846.419	58.03
846.595	47.79
846.77	-34.13
846.946	10.92
847.122	51.88
847.297	78.51
847.473	113.32
847.648	-42.32
847.824	35.5
847.999	49.83
848.175	31.4
848.35	60.07
848.526	105.13
848.701	41.64
848.876	72.36
849.052	-3.41
849.227	74.41
849.403	60.07
849.578	31.4
849.753	27.31
849.929	101.03
850.104	45.74
850.279	37.55
850.454	19.11
850.63	76.46
850.805	92.84
850.98	109.23
851.155	17.07
851.33	137.9
851.505	31.4
851.681	129.7
851.856	-17.75
852.031	101.03
852.206	15.02
852.381	33.45
852.556	27.31
852.731	72.36
852.906	-11.61
853.081	105.13
853.256	193.19
853.431	37.55
853.606	33.45
853.781	37.55
853.956	47.79
854.131	35.5
854.305	-13.65
854.48	37.55
854.655	101.03
854.83	-13.65
855.005	31.4
855.18	-7.51
855.354	-13.65
855.529	68.27
855.704	31.4
855.879	158.38
856.053	-25.94
856.228	62.12
856.403	27.31
856.577	33.45
856.752	8.87
856.926	10.92
857.101	49.83
857.276	-17.75
857.45	45.74
857.625	-9.56
857.799	76.46
857.974	39.59
858.148	-48.47
858.323	45.74
858.497	74.41
858.672	23.21
858.846	39.59
859.02	27.31
859.195	15.02
859.369	0.68
859.543	43.69
859.718	15.02
859.892	15.02
860.066	-42.32
860.241	27.31
860.415	58.03
860.589	29.35
860.763	37.55
860.938	-30.04
861.112	31.4
861.286	21.16
861.46	-13.65
861.634	0.68
861.808	88.75
861.982	-9.56
862.157	-1.37
862.331	76.46
862.505	-9.56
862.679	12.97
862.853	15.02
863.027	-7.51
863.201	156.33
863.375	-15.7
863.549	51.88
863.722	23.21
863.896	31.4
864.07	68.27
864.244	17.07
864.418	94.89
864.592	-38.23
864.766	27.31
864.939	23.21
865.113	-9.56
865.287	19.11
865.461	-13.65
865.634	19.11
865.808	47.79
865.982	-5.46
866.156	-34.13
866.329	-1.37
866.503	64.17
866.676	23.21
866.85	-3.41
867.024	23.21
867.197	-27.99
867.371	6.83
867.544	12.97
867.718	37.55
867.891	74.41
868.065	-32.08
868.238	23.21
868.412	27.31
868.585	-17.75
868.759	-7.51
868.932	-23.89
869.105	15.02
869.279	2.73
869.452	-7.51
869.625	31.4
869.799	55.98
869.972	15.02
870.145	-23.89
870.319	21.16
870.492	6.83
870.665	-5.46
870.838	47.79
871.011	-58.71
871.185	21.16
871.358	21.16
871.531	23.21
871.704	39.59
871.877	-44.37
872.05	0.68
872.223	39.59
872.396	2.73
872.569	62.12
872.742	2.73
872.915	49.83
873.088	-9.56
873.261	45.74
873.434	55.98
873.607	-42.32
873.78	43.69
873.953	31.4
874.126	47.79
874.299	-36.18
874.471	-9.56
874.644	8.87
874.817	8.87
874.99	88.75
875.163	19.11
875.335	31.4
875.508	6.83
875.681	80.55
875.853	2.73
876.026	15.02
876.199	31.4
876.371	39.59
876.544	-42.32
876.717	33.45
876.889	-46.42
877.062	80.55
877.234	8.87
877.407	19.11
877.579	43.69
877.752	41.64
877.924	23.21
878.097	68.27
878.269	35.5
878.442	31.4
878.614	31.4
878.786	31.4
878.959	-30.04
879.131	123.56
879.303	-40.28
879.476	-15.7
879.648	-7.51
879.82	105.13
879.993	-5.46
880.165	51.88
880.337	-58.71
880.509	-13.65
880.681	-81.24
880.854	35.5
881.026	31.4
881.198	39.59
881.37	-50.52
881.542	-42.32
881.714	33.45
881.886	-15.7
882.058	68.27
882.23	-40.28
882.402	15.02
882.574	6.83
882.746	49.83
882.918	-48.47
883.09	96.94
883.262	0.68
883.434	101.03
883.606	-75.09
883.778	-13.65
883.95	49.83
884.122	-5.46
884.293	-50.52
884.465	-23.89
884.637	84.65
884.809	-7.51
884.98	-25.94
885.152	58.03
885.324	49.83
885.496	-46.42
885.667	6.83
885.839	55.98
886.011	49.83
886.182	51.88
886.354	60.07
886.525	-3.41
886.697	39.59
886.869	-32.08
887.04	-17.75
887.212	68.27
887.383	96.94
887.555	15.02
887.726	-25.94
887.897	31.4
888.069	41.64
888.24	-9.56
888.412	-50.52
888.583	21.16
888.754	-17.75
888.926	-32.08
889.097	15.02
889.268	-58.71
889.44	19.11
889.611	-17.75
889.782	17.07
889.953	0.68
890.125	15.02
890.296	33.45
890.467	-40.28
890.638	10.92
890.809	-25.94
890.98	15.02
891.151	23.21
891.323	17.07
891.494	15.02
891.665	17.07
891.836	51.88
892.007	-25.94
892.178	8.87
892.349	47.79
892.52	15.02
892.691	-46.42
892.862	21.16
893.032	-17.75
893.203	-87.38
893.374	64.17
893.545	43.69
893.716	-56.66
893.887	125.61
894.057	2.73
894.228	23.21
894.399	25.26
894.57	-3.41
894.74	55.98
894.911	41.64
895.082	15.02
895.253	47.79
895.423	23.21
895.594	29.35
895.764	27.31
895.935	74.41
896.106	-23.89
896.276	-46.42
896.447	23.21
896.617	8.87
896.788	-25.94
896.958	21.16
897.129	55.98
897.299	33.45
897.47	156.33
897.64	45.74
897.81	23.21
897.981	-7.51
898.151	-34.13
898.322	39.59
898.492	6.83
898.662	23.21
898.832	-48.47
899.003	-23.89
899.173	8.87
899.343	29.35
899.513	-5.46
