Data from USB4F104151__2__14-28-21-110.txt Node

Date: Thu Mar 13 14:28:21 EDT 2025
User: louis
Spectrometer: USB4F10415
Trigger mode: 4
Integration Time (sec): 2.500000E-2
Scans to average: 1
Electric dark correction enabled: true
Nonlinearity correction enabled: false
Boxcar width: 0
XAxis mode: Wavelengths
Number of Pixels in Spectrum: 3648
>>>>>Begin Spectral Data<<<<<
178.204	-147.97
178.424	-147.97
178.644	-147.97
178.864	-57.86
179.084	-125.44
179.304	97.79
179.524	-20.99
179.744	22.02
179.964	48.64
180.184	-20.99
180.404	-43.52
180.624	-35.33
180.844	5.63
181.064	13.82
181.283	-70.14
181.503	-10.75
181.723	13.82
181.943	-20.99
182.163	52.74
182.383	15.87
182.602	54.78
182.822	32.26
183.042	103.93
183.262	26.11
183.482	30.21
183.701	30.21
183.921	58.88
184.141	38.4
184.361	11.78
184.58	52.74
184.8	62.98
185.02	3.58
185.239	56.83
185.459	3.58
185.679	81.41
185.898	36.35
186.118	-8.7
186.338	-25.09
186.557	60.93
186.777	-14.85
186.997	36.35
187.216	48.64
187.436	73.21
187.655	73.21
187.875	132.61
188.095	46.59
188.314	122.37
188.534	87.55
188.753	-29.18
188.973	40.45
189.192	77.31
189.412	112.13
189.631	60.93
189.851	46.59
190.07	69.12
190.29	-41.47
190.509	101.89
190.729	54.78
190.948	48.64
191.168	132.61
191.387	71.17
191.607	71.17
191.826	114.17
192.045	17.92
192.265	151.04
192.484	5.63
192.704	5.63
192.923	11.78
193.142	108.03
193.362	95.74
193.581	-6.66
193.8	122.37
194.02	32.26
194.239	54.78
194.458	87.55
194.678	30.21
194.897	81.41
195.116	46.59
195.335	60.93
195.555	120.32
195.774	26.11
195.993	30.21
196.212	48.64
196.432	-16.9
196.651	95.74
196.87	85.5
197.089	167.42
197.308	128.51
197.528	-31.23
197.747	-0.51
197.966	69.12
198.185	122.37
198.404	-27.14
198.623	77.31
198.842	36.35
199.062	40.45
199.281	87.55
199.5	44.54
199.719	46.59
199.938	79.36
200.157	126.46
200.376	65.02
200.595	24.06
200.814	9.73
201.033	-55.81
201.252	56.83
201.471	93.69
201.69	65.02
201.909	46.59
202.128	13.82
202.347	-45.57
202.566	95.74
202.785	77.31
203.004	-53.76
203.223	159.23
203.442	77.31
203.661	77.31
203.879	101.89
204.098	95.74
204.317	28.16
204.536	58.88
204.755	42.5
204.974	93.69
205.193	-8.7
205.411	73.21
205.63	93.69
205.849	71.17
206.068	17.92
206.287	22.02
206.505	48.64
206.724	46.59
206.943	19.97
207.162	38.4
207.381	13.82
207.599	71.17
207.818	19.97
208.037	9.73
208.255	30.21
208.474	-12.8
208.693	48.64
208.911	28.16
209.13	-31.23
209.349	30.21
209.567	75.26
209.786	114.17
210.005	34.3
210.223	62.98
210.442	-12.8
210.661	7.68
210.879	105.98
211.098	60.93
211.316	15.87
211.535	19.97
211.753	17.92
211.972	79.36
212.191	-4.61
212.409	38.4
212.628	24.06
212.846	-29.18
213.065	42.5
213.283	36.35
213.502	-25.09
213.72	71.17
213.938	54.78
214.157	52.74
214.375	9.73
214.594	13.82
214.812	36.35
215.031	60.93
215.249	-4.61
215.467	85.5
215.686	120.32
215.904	126.46
216.122	44.54
216.341	5.63
216.559	13.82
216.778	134.65
216.996	28.16
217.214	77.31
217.432	52.74
217.651	-4.61
217.869	52.74
218.087	69.12
218.306	-33.28
218.524	126.46
218.742	32.26
218.96	62.98
219.179	3.58
219.397	65.02
219.615	108.03
219.833	56.83
220.051	-4.61
220.27	138.75
220.488	54.78
220.706	54.78
220.924	-2.56
221.142	42.5
221.36	-20.99
221.578	22.02
221.796	3.58
222.015	30.21
222.233	60.93
222.451	95.74
222.669	15.87
222.887	60.93
223.105	11.78
223.323	-29.18
223.541	-33.28
223.759	19.97
223.977	-27.14
224.195	124.41
224.413	11.78
224.631	85.5
224.849	36.35
225.067	97.79
225.285	-10.75
225.503	60.93
225.721	15.87
225.939	85.5
226.157	11.78
226.375	114.17
226.592	5.63
226.81	32.26
227.028	101.89
227.246	101.89
227.464	95.74
227.682	-2.56
227.9	44.54
228.117	30.21
228.335	65.02
228.553	-25.09
228.771	-14.85
228.989	118.27
229.206	54.78
229.424	36.35
229.642	7.68
229.86	19.97
230.077	62.98
230.295	60.93
230.513	118.27
230.731	73.21
230.948	38.4
231.166	62.98
231.384	77.31
231.601	52.74
231.819	24.06
232.037	11.78
232.254	-10.75
232.472	-18.94
232.689	46.59
232.907	40.45
233.125	-4.61
233.342	46.59
233.56	32.26
233.777	-4.61
233.995	40.45
234.213	32.26
234.43	38.4
234.648	13.82
234.865	69.12
235.083	28.16
235.3	-10.75
235.518	13.82
235.735	36.35
235.953	5.63
236.17	73.21
236.388	60.93
236.605	-4.61
236.822	126.46
237.04	118.27
237.257	48.64
237.475	91.65
237.692	71.17
237.909	58.88
238.127	60.93
238.344	60.93
238.562	44.54
238.779	89.6
238.996	38.4
239.214	65.02
239.431	62.98
239.648	38.4
239.865	-4.61
240.083	151.04
240.3	28.16
240.517	-18.94
240.735	24.06
240.952	81.41
241.169	-20.99
241.386	36.35
241.603	85.5
241.821	54.78
242.038	42.5
242.255	50.69
242.472	-6.66
242.689	73.21
242.907	40.45
243.124	-2.56
243.341	56.83
243.558	22.02
243.775	11.78
243.992	7.68
244.209	69.12
244.426	97.79
244.643	60.93
244.86	40.45
245.078	105.98
245.295	30.21
245.512	52.74
245.729	44.54
245.946	58.88
246.163	73.21
246.38	62.98
246.597	73.21
246.814	38.4
247.031	101.89
247.248	32.26
247.464	48.64
247.681	38.4
247.898	26.11
248.115	42.5
248.332	-49.66
248.549	126.46
248.766	65.02
248.983	110.08
249.2	69.12
249.417	54.78
249.633	-20.99
249.85	40.45
250.067	30.21
250.284	71.17
250.501	11.78
250.717	42.5
250.934	19.97
251.151	5.63
251.368	73.21
251.585	93.69
251.801	118.27
252.018	-12.8
252.235	110.08
252.451	7.68
252.668	60.93
252.885	110.08
253.102	40.45
253.318	-14.85
253.535	40.45
253.752	56.83
253.968	19.97
254.185	15.87
254.401	44.54
254.618	44.54
254.835	-27.14
255.051	73.21
255.268	110.08
255.484	52.74
255.701	67.07
255.917	32.26
256.134	22.02
256.351	28.16
256.567	69.12
256.784	101.89
257	46.59
257.217	75.26
257.433	130.56
257.65	110.08
257.866	44.54
258.082	-14.85
258.299	60.93
258.515	95.74
258.732	-0.51
258.948	5.63
259.165	85.5
259.381	19.97
259.597	36.35
259.814	36.35
260.03	-51.71
260.246	38.4
260.463	19.97
260.679	101.89
260.895	116.22
261.112	77.31
261.328	32.26
261.544	52.74
261.761	85.5
261.977	44.54
262.193	-29.18
262.409	85.5
262.626	36.35
262.842	97.79
263.058	17.92
263.274	46.59
263.49	69.12
263.707	-0.51
263.923	67.07
264.139	28.16
264.355	5.63
264.571	26.11
264.787	69.12
265.004	77.31
265.22	142.85
265.436	58.88
265.652	5.63
265.868	60.93
266.084	3.58
266.3	79.36
266.516	71.17
266.732	-12.8
266.948	44.54
267.164	-25.09
267.38	112.13
267.596	91.65
267.812	99.84
268.028	36.35
268.244	95.74
268.46	40.45
268.676	-16.9
268.892	42.5
269.108	91.65
269.324	3.58
269.54	5.63
269.756	11.78
269.972	44.54
270.188	40.45
270.403	-55.81
270.619	89.6
270.835	65.02
271.051	112.13
271.267	11.78
271.483	15.87
271.698	97.79
271.914	89.6
272.13	32.26
272.346	11.78
272.562	-6.66
272.777	132.61
272.993	81.41
273.209	42.5
273.425	83.45
273.64	93.69
273.856	85.5
274.072	46.59
274.287	38.4
274.503	-4.61
274.719	-25.09
274.934	28.16
275.15	54.78
275.366	32.26
275.581	24.06
275.797	7.68
276.012	69.12
276.228	54.78
276.444	-16.9
276.659	60.93
276.875	34.3
277.09	52.74
277.306	44.54
277.521	58.88
277.737	30.21
277.952	60.93
278.168	1.54
278.383	110.08
278.599	67.07
278.814	144.89
279.03	46.59
279.245	130.56
279.461	-14.85
279.676	105.98
279.892	42.5
280.107	77.31
280.322	-8.7
280.538	65.02
280.753	48.64
280.969	-10.75
281.184	28.16
281.399	146.94
281.615	19.97
281.83	46.59
282.045	-2.56
282.26	7.68
282.476	19.97
282.691	62.98
282.906	54.78
283.122	-20.99
283.337	24.06
283.552	11.78
283.767	28.16
283.983	73.21
284.198	15.87
284.413	67.07
284.628	-76.29
284.843	67.07
285.058	28.16
285.274	28.16
285.489	5.63
285.704	36.35
285.919	56.83
286.134	50.69
286.349	93.69
286.564	44.54
286.779	97.79
286.995	22.02
287.21	48.64
287.425	42.5
287.64	-51.71
287.855	54.78
288.07	40.45
288.285	73.21
288.5	116.22
288.715	15.87
288.93	-2.56
289.145	19.97
289.36	-51.71
289.575	-25.09
289.79	32.26
290.004	42.5
290.219	48.64
290.434	36.35
290.649	58.88
290.864	95.74
291.079	48.64
291.294	40.45
291.509	69.12
291.724	11.78
291.938	-12.8
292.153	89.6
292.368	28.16
292.583	32.26
292.798	101.89
293.012	105.98
293.227	32.26
293.442	30.21
293.657	52.74
293.871	146.94
294.086	50.69
294.301	91.65
294.516	77.31
294.73	79.36
294.945	-20.99
295.16	3.58
295.374	89.6
295.589	101.89
295.804	36.35
296.018	30.21
296.233	124.41
296.447	62.98
296.662	36.35
296.877	36.35
297.091	112.13
297.306	40.45
297.52	67.07
297.735	110.08
297.949	-35.33
298.164	3.58
298.378	11.78
298.593	93.69
298.807	-35.33
299.022	116.22
299.236	83.45
299.451	60.93
299.665	48.64
299.88	71.17
300.094	73.21
300.309	-12.8
300.523	40.45
300.737	-0.51
300.952	48.64
301.166	46.59
301.381	7.68
301.595	40.45
301.809	97.79
302.024	69.12
302.238	-14.85
302.452	81.41
302.667	1.54
302.881	79.36
303.095	26.11
303.309	142.85
303.524	48.64
303.738	-0.51
303.952	60.93
304.166	60.93
304.381	48.64
304.595	65.02
304.809	32.26
305.023	69.12
305.237	44.54
305.452	40.45
305.666	56.83
305.88	108.03
306.094	77.31
306.308	83.45
306.522	38.4
306.736	65.02
306.95	26.11
307.164	56.83
307.379	44.54
307.593	32.26
307.807	81.41
308.021	67.07
308.235	24.06
308.449	13.82
308.663	28.16
308.877	52.74
309.091	50.69
309.305	28.16
309.519	19.97
309.733	52.74
309.947	-53.76
310.161	28.16
310.374	60.93
310.588	136.7
310.802	97.79
311.016	44.54
311.23	3.58
311.444	-29.18
311.658	42.5
311.872	108.03
312.085	118.27
312.299	161.28
312.513	69.12
312.727	38.4
312.941	5.63
313.154	126.46
313.368	56.83
313.582	105.98
313.796	52.74
314.009	30.21
314.223	17.92
314.437	-2.56
314.651	5.63
314.864	52.74
315.078	42.5
315.292	44.54
315.505	28.16
315.719	79.36
315.933	24.06
316.146	69.12
316.36	-31.23
316.573	112.13
316.787	-4.61
317.001	79.36
317.214	-14.85
317.428	87.55
317.641	40.45
317.855	60.93
318.068	44.54
318.282	58.88
318.495	103.93
318.709	58.88
318.922	22.02
319.136	38.4
319.349	28.16
319.563	79.36
319.776	93.69
319.99	17.92
320.203	48.64
320.417	93.69
320.63	97.79
320.843	101.89
321.057	48.64
321.27	93.69
321.483	85.5
321.697	52.74
321.91	17.92
322.124	60.93
322.337	-0.51
322.55	28.16
322.763	5.63
322.977	36.35
323.19	30.21
323.403	81.41
323.617	-33.28
323.83	132.61
324.043	19.97
324.256	40.45
324.469	-39.42
324.683	101.89
324.896	81.41
325.109	13.82
325.322	-23.04
325.535	116.22
325.748	103.93
325.962	52.74
326.175	73.21
326.388	48.64
326.601	36.35
326.814	7.68
327.027	69.12
327.24	87.55
327.453	-53.76
327.666	101.89
327.879	67.07
328.092	85.5
328.305	9.73
328.518	44.54
328.731	7.68
328.944	36.35
329.157	65.02
329.37	130.56
329.583	69.12
329.796	103.93
330.009	-35.33
330.222	142.85
330.435	75.26
330.648	38.4
330.861	89.6
331.073	11.78
331.286	95.74
331.499	3.58
331.712	71.17
331.925	30.21
332.138	46.59
332.35	79.36
332.563	58.88
332.776	120.32
332.989	-43.52
333.202	40.45
333.414	56.83
333.627	130.56
333.84	-29.18
334.053	132.61
334.265	19.97
334.478	75.26
334.691	120.32
334.903	79.36
335.116	54.78
335.329	67.07
335.541	81.41
335.754	120.32
335.966	73.21
336.179	17.92
336.392	11.78
336.604	85.5
336.817	28.16
337.029	110.08
337.242	-4.61
337.454	60.93
337.667	95.74
337.88	36.35
338.092	87.55
338.305	161.28
338.517	-4.61
338.729	110.08
338.942	32.26
339.154	71.17
339.367	3.58
339.579	46.59
339.792	44.54
340.004	114.17
340.217	-49.66
340.429	128.51
340.641	1.54
340.854	42.5
341.066	17.92
341.278	32.26
341.491	118.27
341.703	32.26
341.915	11.78
342.128	48.64
342.34	56.83
342.552	120.32
342.764	81.41
342.977	65.02
343.189	130.56
343.401	17.92
343.613	62.98
343.826	87.55
344.038	56.83
344.25	19.97
344.462	40.45
344.674	34.3
344.886	32.26
345.099	38.4
345.311	81.41
345.523	126.46
345.735	-33.28
345.947	85.5
346.159	48.64
346.371	11.78
346.583	120.32
346.795	112.13
347.007	-2.56
347.219	71.17
347.431	11.78
347.643	99.84
347.855	44.54
348.067	24.06
348.279	91.65
348.491	134.65
348.703	-4.61
348.915	44.54
349.127	11.78
349.339	34.3
349.551	75.26
349.763	134.65
349.975	36.35
350.187	46.59
350.399	95.74
350.61	79.36
350.822	32.26
351.034	91.65
351.246	11.78
351.458	32.26
351.669	69.12
351.881	54.78
352.093	36.35
352.305	81.41
352.517	110.08
352.728	81.41
352.94	50.69
353.152	52.74
353.363	-25.09
353.575	93.69
353.787	138.75
353.999	28.16
354.21	122.37
354.422	28.16
354.633	69.12
354.845	101.89
355.057	85.5
355.268	69.12
355.48	101.89
355.692	36.35
355.903	144.89
356.115	85.5
356.326	60.93
356.538	71.17
356.749	81.41
356.961	130.56
357.172	15.87
357.384	-10.75
357.595	56.83
357.807	83.45
358.018	56.83
358.23	36.35
358.441	95.74
358.653	46.59
358.864	62.98
359.075	-2.56
359.287	167.42
359.498	95.74
359.709	105.98
359.921	157.18
360.132	118.27
360.344	44.54
360.555	22.02
360.766	130.56
360.977	85.5
361.189	60.93
361.4	87.55
361.611	69.12
361.823	71.17
362.034	95.74
362.245	32.26
362.456	7.68
362.667	87.55
362.879	85.5
363.09	52.74
363.301	151.04
363.512	-16.9
363.723	83.45
363.935	93.69
364.146	103.93
364.357	99.84
364.568	62.98
364.779	7.68
364.99	118.27
365.201	62.98
365.412	161.28
365.623	-29.18
365.834	48.64
366.045	-4.61
366.256	60.93
366.467	95.74
366.678	62.98
366.889	93.69
367.1	65.02
367.311	62.98
367.522	7.68
367.733	44.54
367.944	103.93
368.155	3.58
368.366	110.08
368.577	75.26
368.788	60.93
368.999	7.68
369.209	11.78
369.42	108.03
369.631	171.52
369.842	103.93
370.053	67.07
370.264	93.69
370.474	110.08
370.685	28.16
370.896	65.02
371.107	151.04
371.317	28.16
371.528	71.17
371.739	101.89
371.95	130.56
372.16	52.74
372.371	65.02
372.582	93.69
372.792	52.74
373.003	73.21
373.214	28.16
373.424	69.12
373.635	9.73
373.846	120.32
374.056	15.87
374.267	69.12
374.477	30.21
374.688	13.82
374.898	60.93
375.109	56.83
375.319	65.02
375.53	159.23
375.74	87.55
375.951	44.54
376.161	134.65
376.372	81.41
376.582	93.69
376.793	79.36
377.003	91.65
377.214	54.78
377.424	58.88
377.635	89.6
377.845	30.21
378.055	216.57
378.266	77.31
378.476	79.36
378.686	50.69
378.897	87.55
379.107	58.88
379.317	24.06
379.528	36.35
379.738	151.04
379.948	15.87
380.158	54.78
380.369	89.6
380.579	65.02
380.789	24.06
380.999	95.74
381.21	60.93
381.42	159.23
381.63	103.93
381.84	105.98
382.05	62.98
382.261	157.18
382.471	69.12
382.681	85.5
382.891	110.08
383.101	99.84
383.311	65.02
383.521	13.82
383.731	118.27
383.941	87.55
384.151	28.16
384.361	38.4
384.571	77.31
384.781	93.69
384.991	163.33
385.201	151.04
385.411	40.45
385.621	73.21
385.831	-8.7
386.041	38.4
386.251	69.12
386.461	136.7
386.671	17.92
386.881	75.26
387.091	62.98
387.301	95.74
387.511	28.16
387.72	99.84
387.93	60.93
388.14	11.78
388.35	44.54
388.56	95.74
388.769	124.41
388.979	52.74
389.189	77.31
389.399	69.12
389.609	69.12
389.818	44.54
390.028	77.31
390.238	110.08
390.447	69.12
390.657	110.08
390.867	60.93
391.076	42.5
391.286	77.31
391.496	128.51
391.705	48.64
391.915	173.57
392.125	105.98
392.334	138.75
392.544	101.89
392.753	62.98
392.963	93.69
393.172	118.27
393.382	73.21
393.591	118.27
393.801	58.88
394.01	120.32
394.22	56.83
394.429	60.93
394.639	69.12
394.848	79.36
395.058	79.36
395.267	136.7
395.477	112.13
395.686	118.27
395.895	200.19
396.105	167.42
396.314	40.45
396.524	142.85
396.733	118.27
396.942	142.85
397.152	169.47
397.361	151.04
397.57	89.6
397.78	103.93
397.989	185.85
398.198	200.19
398.407	151.04
398.617	151.04
398.826	161.28
399.035	126.46
399.244	134.65
399.453	95.74
399.663	101.89
399.872	183.81
400.081	97.79
400.29	146.94
400.499	151.04
400.708	116.22
400.917	165.37
401.127	181.76
401.336	192
401.545	235
401.754	194.05
401.963	153.09
402.172	101.89
402.381	134.65
402.59	151.04
402.799	142.85
403.008	232.96
403.217	118.27
403.426	159.23
403.635	101.89
403.844	171.52
404.053	134.65
404.262	185.85
404.471	235
404.68	220.67
404.888	155.13
405.097	251.39
405.306	175.61
405.515	232.96
405.724	194.05
405.933	226.81
406.142	241.15
406.35	302.59
406.559	288.25
406.768	298.49
406.977	239.1
407.185	241.15
407.394	214.52
407.603	232.96
407.812	327.16
408.02	314.88
408.229	241.15
408.438	327.16
408.646	284.16
408.855	216.57
409.064	241.15
409.272	325.12
409.481	404.99
409.69	402.94
409.898	366.07
410.107	364.03
410.315	382.46
410.524	364.03
410.733	429.56
410.941	402.94
411.15	519.67
411.358	464.38
411.567	503.29
411.775	562.68
411.984	495.1
412.192	546.3
412.401	572.92
412.609	595.45
412.818	628.21
413.026	609.78
413.234	579.06
413.443	636.41
413.651	710.13
413.86	603.64
414.068	812.53
414.276	790
414.485	830.96
414.693	888.31
414.901	896.5
415.11	896.5
415.318	900.59
415.526	972.27
415.734	970.23
415.943	978.42
416.151	988.66
416.359	1076.72
416.567	1113.58
416.776	1080.82
416.984	1166.83
417.192	1189.36
417.4	1191.41
417.608	1215.98
417.817	1248.75
418.025	1406.44
418.233	1445.35
418.441	1373.68
418.649	1355.24
418.857	1527.27
419.065	1664.49
419.273	1625.58
419.481	1668.58
419.689	1646.05
419.897	1777.12
420.105	1965.54
420.313	1824.23
420.521	1963.49
420.729	1969.63
420.937	2084.32
421.145	2076.13
421.353	2246.11
421.561	2371.04
421.769	2366.94
421.977	2620.89
422.185	2495.96
422.393	2715.09
422.601	2842.07
422.809	2768.34
423.017	2725.33
423.224	2940.37
423.432	3059.15
423.64	3108.3
423.848	3487.18
424.056	3214.8
424.263	3583.43
424.471	3470.8
424.679	3583.43
424.887	3874.24
425.094	3966.4
425.302	3878.34
425.51	4013.51
425.718	4216.26
425.925	4271.55
426.133	4429.24
426.341	4552.12
426.548	4771.26
426.756	4771.26
426.964	4787.64
427.171	5045.68
427.379	5164.47
427.586	5404.08
427.794	5526.96
428.001	5799.34
428.209	6047.14
428.417	5797.29
428.624	6296.99
428.832	6276.51
429.039	6368.67
429.247	6380.96
429.454	6847.9
429.662	7441.81
429.869	6905.24
430.076	7353.74
430.284	6968.73
430.491	7515.53
430.699	7859.59
430.906	7812.49
431.114	8023.43
431.321	8252.8
431.528	8437.12
431.736	9002.36
431.943	9307.51
432.15	9063.8
432.358	9323.89
432.565	9579.89
432.772	9661.8
432.979	10106.21
433.187	10337.63
433.394	10181.99
433.601	11062.62
433.808	11392.34
434.016	10909.02
434.223	11529.55
434.43	12229.96
434.637	11959.63
434.844	12797.24
435.052	13073.72
435.259	13022.52
435.466	12840.25
435.673	12905.79
435.88	13571.38
436.087	14282.02
436.294	14138.66
436.501	13980.97
436.708	14331.17
436.915	14699.81
437.122	15439.12
437.329	15023.39
437.537	15861.01
437.743	16129.29
437.95	15965.45
438.157	16702.72
438.364	17454.33
438.571	17276.15
438.778	17507.57
438.985	19152.09
439.192	18320.62
439.399	18930.91
439.606	18500.84
439.813	19449.05
440.02	20495.56
440.227	20227.28
440.433	20272.33
440.64	20491.46
440.847	20827.33
441.054	21134.53
441.261	22471.85
441.467	22033.58
441.674	22510.76
441.881	23295.13
442.088	23475.35
442.294	23174.3
442.501	23813.27
442.708	24145.04
442.914	25019.52
443.121	26303.6
443.328	25322.62
443.534	27145.31
443.741	26475.63
443.948	25853.05
444.154	27776.09
444.361	27780.18
444.568	27792.47
444.774	28253.26
444.981	28378.19
445.187	29045.83
445.394	30538.8
445.6	30118.96
445.807	32701.45
446.013	31396.9
446.22	32023.58
446.426	33170.44
446.633	33195.01
446.839	34649.07
447.046	33276.93
447.252	35142.63
447.459	35275.75
447.665	34806.76
447.871	36408.28
448.078	38065.08
448.284	36391.89
448.491	36897.74
448.697	38482.87
448.903	39635.88
449.11	39351.21
449.316	38687.67
449.522	39437.22
449.728	40762.26
449.935	40917.9
450.141	40651.67
450.347	41632.64
450.553	40172.44
450.76	41083.79
450.966	42466.17
451.172	41755.52
451.378	42681.2
451.584	41685.89
451.791	43142
451.997	42777.46
452.203	43481.96
452.409	43727.72
452.615	43533.16
452.821	41622.4
453.027	41474.95
453.233	43709.29
453.44	41616.26
453.646	42167.16
453.852	42515.32
454.058	43027.31
454.264	41907.07
454.47	43025.26
454.676	41499.53
454.882	43137.9
455.088	38839.22
455.294	39564.2
455.5	40321.94
455.705	41089.93
455.911	39455.65
456.117	38550.45
456.323	37680.07
456.529	36142.04
456.735	37708.74
456.941	36615.12
457.147	36053.98
457.352	34917.36
457.558	34587.63
457.764	34649.07
457.97	33948.67
458.176	33375.23
458.381	33633.28
458.587	31519.78
458.793	31718.43
458.999	30401.58
459.204	32631.82
459.41	31470.62
459.616	29482.05
459.821	29488.19
460.027	29158.47
460.233	28427.34
460.438	27331.68
460.644	27415.65
460.85	26066.03
461.055	25486.46
461.261	25740.41
461.466	23743.64
461.672	23215.26
461.878	24810.63
462.083	23176.35
462.289	22338.73
462.494	22412.46
462.7	21675.19
462.905	20696.26
463.111	21648.57
463.316	21626.04
463.522	20942.02
463.727	21306.55
463.932	21300.41
464.138	20853.95
464.343	20917.44
464.549	20376.78
464.754	20915.39
464.959	20763.84
465.165	20434.12
465.37	19555.54
465.575	19567.83
465.781	20051.15
465.986	20059.34
466.191	19051.74
466.397	19033.31
466.602	18011.37
466.807	18861.28
467.012	18521.32
467.218	18830.56
467.423	18197.74
467.628	18124.01
467.833	19295.45
468.038	18490.6
468.244	17839.34
468.449	18672.87
468.654	18136.3
468.859	17833.2
469.064	17857.78
469.269	17081.6
469.474	17257.72
469.679	17489.14
469.885	17167.61
470.09	17222.91
470.295	16995.58
470.5	16590.08
470.705	16561.41
470.91	16661.76
471.115	16342.28
471.32	16606.47
471.525	16370.95
471.73	16184.59
471.935	15789.33
472.139	15400.21
472.344	15592.72
472.549	15310.1
472.754	15455.51
472.959	15025.43
473.164	14566.69
473.369	14578.98
473.574	14970.14
473.778	14871.84
473.983	14748.96
474.188	14658.85
474.393	13905.2
474.598	14214.44
474.802	14032.17
475.007	13817.13
475.212	13866.28
475.417	13382.96
475.621	13354.29
475.826	13282.61
476.031	13036.86
476.235	12641.6
476.44	13204.79
476.645	12660.03
476.849	12936.51
477.054	12703.04
477.259	12412.23
477.463	12336.45
477.668	12281.16
477.872	12490.05
478.077	12184.9
478.282	11869.51
478.486	11605.33
478.691	11822.41
478.895	11763.02
479.1	11572.56
479.304	11476.3
479.509	11259.22
479.713	11560.27
479.918	11064.66
480.122	10911.07
480.326	11130.2
480.531	11054.42
480.735	10954.07
480.94	10784.09
481.144	11351.38
481.348	10728.8
481.553	10818.91
481.757	10440.03
481.961	10859.87
482.166	10753.37
482.37	10687.84
482.574	10544.48
482.778	10734.94
482.983	10728.8
483.187	10722.65
483.391	10810.72
483.595	10419.55
483.8	10444.13
484.004	10579.29
484.208	10794.33
484.412	10751.32
484.616	10485.09
484.821	10714.46
485.025	10644.83
485.229	10755.42
485.433	10532.19
485.637	10624.35
485.841	10489.18
486.045	10560.86
486.249	10696.03
486.453	10356.07
486.657	10610.01
486.861	10655.07
487.065	10194.28
487.269	10577.25
487.473	10239.33
487.677	10614.11
487.881	10796.38
488.085	10499.42
488.289	10458.46
488.493	10581.34
488.697	10786.14
488.901	10503.52
489.105	10564.96
489.309	10751.32
489.512	10650.97
489.716	10589.53
489.92	10599.77
490.124	10472.8
490.328	10734.94
490.531	10702.17
490.735	10825.05
490.939	10632.54
491.143	10593.63
491.346	10845.53
491.55	10767.71
491.754	11062.62
491.958	10954.07
492.161	10888.54
492.365	10909.02
492.569	10771.8
492.772	11052.38
492.976	10958.17
493.18	11218.26
493.383	11177.3
493.587	11406.67
493.79	11373.91
493.994	11205.97
494.197	11240.79
494.401	11328.85
494.605	11611.47
494.808	11486.54
495.012	11527.5
495.215	11767.12
495.419	11824.46
495.622	11701.58
495.825	11930.95
496.029	12086.6
496.232	12043.59
496.436	12119.37
496.639	12285.25
496.843	12291.4
497.046	12594.5
497.249	12604.74
497.453	12719.42
497.656	12782.91
497.859	12901.69
498.063	12873.02
498.266	13047.1
498.469	13145.4
498.673	13090.1
498.876	13514.03
499.079	13591.86
499.282	13677.87
499.485	14066.99
499.689	13913.39
499.892	14167.34
500.095	14079.27
500.298	14433.57
500.501	14275.88
500.705	14742.82
500.908	14904.6
501.111	15166.74
501.314	15017.24
501.517	15445.27
501.72	15439.12
501.923	15484.18
502.126	15555.86
502.329	16153.87
502.532	16125.19
502.735	16215.3
502.938	16645.38
503.141	16452.87
503.344	16958.72
503.547	16983.29
503.75	16893.18
503.953	17110.27
504.156	17450.23
504.359	17581.3
504.562	17616.12
504.765	18031.85
504.968	18085.1
505.17	18449.64
505.373	18357.48
505.576	18611.43
505.779	18656.48
505.982	18875.62
506.185	19225.82
506.387	19467.48
506.59	19588.31
506.793	20098.25
506.996	19913.94
507.198	20083.92
507.401	20219.08
507.604	20448.46
507.807	20827.33
508.009	21134.53
508.212	20862.15
508.415	21259.45
508.617	21456.06
508.82	21544.12
509.022	21699.76
509.225	22305.96
509.428	22260.91
509.63	22471.85
509.833	22512.81
510.035	23172.25
510.238	22850.72
510.44	23276.7
510.643	23643.29
510.845	24042.64
511.048	23944.34
511.25	24044.69
511.453	24374.41
511.655	24851.59
511.858	24661.13
512.06	24966.28
512.262	25322.62
512.465	25474.17
512.667	25726.07
512.87	25681.02
513.072	26131.57
513.274	26520.68
513.477	26487.92
513.679	26954.85
513.881	27190.37
514.084	27384.93
514.286	27550.81
514.488	27589.72
514.69	28163.15
514.893	28359.76
515.095	28167.25
515.297	28683.34
515.499	28775.5
515.701	29156.42
515.904	29523.01
516.106	29525.05
516.308	29938.74
516.51	30221.36
516.712	30024.76
516.914	30704.68
517.116	30958.63
517.318	30952.49
517.52	31407.14
517.722	31296.55
517.925	31851.55
518.127	32105.49
518.329	32490.51
518.531	31677.47
518.733	32844.81
518.935	33059.85
519.136	32914.44
519.338	33301.51
519.54	33580.03
519.742	33555.46
519.944	33602.56
520.146	34409.46
520.348	34345.97
520.55	34513.91
520.752	34540.53
520.954	34972.65
521.155	34784.24
521.357	35412.96
521.559	35339.24
521.761	35990.49
521.963	35734.49
522.164	36111.32
522.366	36336.6
522.568	36588.5
522.77	36578.26
522.971	37143.5
523.173	36572.11
523.375	36834.25
523.576	37051.34
523.778	37366.73
523.98	37315.53
524.181	37438.4
524.383	37567.43
524.584	37907.39
524.786	38216.63
524.988	37841.85
525.189	38493.11
525.391	38429.62
525.592	38466.49
525.794	38652.85
525.995	38716.34
526.197	38499.25
526.398	38919.09
526.6	38781.87
526.801	38859.7
527.003	38939.57
527.204	38925.23
527.406	39383.98
527.607	38917.04
527.808	39336.87
528.01	38691.76
528.211	39091.12
528.412	39680.93
528.614	39265.19
528.815	39205.8
529.016	39918.49
529.218	39345.06
529.419	39263.14
529.62	39273.38
529.822	39558.05
530.023	39330.73
530.224	39781.28
530.425	39447.46
530.626	39060.4
530.828	39019.44
531.029	40098.72
531.23	39441.32
531.431	39082.92
531.632	39390.12
531.833	39173.03
532.035	39336.87
532.236	39502.76
532.437	39277.48
532.638	39015.34
532.839	39257
533.04	39599.01
533.241	38900.65
533.442	39672.74
533.643	39209.9
533.844	39115.69
534.045	39525.28
534.246	38941.61
534.447	39324.58
534.648	38974.38
534.849	39265.19
535.05	38695.86
535.251	38958
535.451	38583.22
535.652	39388.07
535.853	39236.52
536.054	38964.14
536.255	39211.95
536.456	38286.26
536.657	39132.07
536.857	38568.88
537.058	38452.15
537.259	38865.84
537.46	38953.9
537.66	38663.09
537.861	38816.69
538.062	38667.19
538.263	38749.1
538.463	38003.64
538.664	38417.33
538.865	38775.73
539.065	38648.75
539.266	37972.92
539.466	38779.82
539.667	38075.32
539.868	38720.43
540.068	38409.14
540.269	38190.01
540.469	38394.81
540.67	38136.76
540.87	38198.2
541.071	37864.38
541.271	38558.64
541.472	38081.47
541.672	38112.19
541.873	38185.91
542.073	37518.28
542.274	38681.52
542.474	38017.98
542.675	37821.37
542.875	37934.01
543.075	38323.13
543.276	37624.77
543.476	38173.63
543.676	37942.21
543.877	37798.85
544.077	37839.81
544.277	37708.74
544.478	37735.36
544.678	38126.52
544.878	37993.4
545.078	37772.22
545.279	37557.19
545.479	37761.98
545.679	38036.41
545.879	37809.09
546.079	37800.9
546.28	37716.93
546.48	37690.3
546.68	37845.95
546.88	37768.13
547.08	37874.62
547.28	37620.67
547.48	37307.33
547.68	37553.09
547.88	37256.14
548.081	37524.42
548.281	37610.43
548.481	37514.18
548.681	37794.75
548.881	37624.77
549.081	37462.98
549.28	37436.36
549.48	37716.93
549.68	37381.06
549.88	38011.84
550.08	37635.01
550.28	37557.19
550.48	37501.89
550.68	37772.22
550.88	37313.48
551.08	37495.75
551.279	37909.44
551.479	37647.3
551.679	37663.68
551.879	37600.19
552.079	37641.15
552.278	37479.36
552.478	37940.16
552.678	37772.22
552.878	37446.6
553.077	37643.2
553.277	37487.56
553.477	37825.47
553.676	37444.55
553.876	37755.84
554.076	37366.73
554.275	37266.38
554.475	37125.07
554.674	37919.68
554.874	37909.44
555.074	37704.64
555.273	37268.42
555.473	37876.67
555.672	37116.87
555.872	37536.71
556.071	37721.02
556.271	38081.47
556.47	37518.28
556.67	37481.41
556.869	37512.13
557.068	37872.57
557.268	37348.29
557.467	37219.27
557.667	37682.11
557.866	37592
558.065	37796.8
558.265	37698.5
558.464	37329.86
558.663	37813.18
558.863	37309.38
559.062	38089.66
559.261	37297.09
559.461	37788.61
559.66	37077.96
559.859	37667.78
560.058	37178.31
560.258	37880.77
560.457	37241.8
560.656	37583.81
560.855	37635.01
561.054	37721.02
561.253	37338.05
561.453	37301.19
561.652	37626.82
561.851	37723.07
562.05	37272.52
562.249	37309.38
562.448	37809.09
562.647	37514.18
562.846	37589.95
563.045	37432.26
563.244	37161.93
563.443	37739.46
563.642	36887.5
563.841	37358.53
564.04	36965.32
564.239	37186.5
564.438	37065.67
564.637	37327.81
564.836	37223.37
565.035	36744.14
565.234	37166.02
565.432	36635.6
565.631	36985.8
565.83	37026.76
566.029	36701.14
566.228	36643.79
566.427	36619.22
566.625	36154.33
566.824	36379.6
567.023	36596.69
567.222	36223.96
567.42	36869.07
567.619	36357.08
567.818	36602.83
568.016	36318.17
568.215	36578.26
568.414	36436.95
568.612	36641.74
568.811	36142.04
569.01	36109.27
569.208	35685.34
569.407	36033.5
569.605	35578.85
569.804	36156.38
570.002	35869.66
570.201	35767.26
570.4	35435.49
570.598	35546.08
570.797	35376.1
570.995	35685.34
571.193	35345.38
571.392	35757.02
571.59	35267.56
571.789	35189.74
571.987	35386.34
572.186	35191.78
572.384	34640.88
572.582	35073
572.781	35382.24
572.979	34442.23
573.177	34788.33
573.376	34706.41
573.574	34413.55
573.772	34989.03
573.971	34163.7
574.169	34403.32
574.367	33922.04
574.565	34470.9
574.763	34407.41
574.962	34006.01
575.16	34087.93
575.358	34145.27
575.556	33534.98
575.754	34219
575.952	33827.84
576.151	33854.46
576.349	33508.35
576.547	33317.89
576.745	33786.88
576.943	33840.12
577.141	33399.81
577.339	33248.26
577.537	33278.98
577.735	33233.92
577.933	32879.63
578.131	33100.81
578.329	32887.82
578.527	32736.27
578.725	32435.22
578.923	32838.67
579.121	32517.14
579.319	32480.27
579.516	32748.56
579.714	32418.83
579.912	32171.03
580.11	32480.27
580.308	32050.2
580.506	31900.7
580.704	31636.51
580.901	31681.56
581.099	32070.68
581.297	31583.26
581.495	31462.43
581.692	31601.69
581.89	31321.12
582.088	31788.06
582.285	31382.56
582.483	31706.14
582.681	31450.14
582.878	31153.19
583.076	31061.03
583.274	31542.3
583.471	30792.75
583.669	31046.69
583.866	30866.47
584.064	30905.38
584.262	30323.76
584.459	30659.63
584.657	30647.34
584.854	30907.43
585.052	30141.49
585.249	30309.43
585.447	30282.8
585.644	30147.64
585.841	30229.55
586.039	30567.47
586.236	29860.92
586.434	30288.95
586.631	29721.66
586.828	29756.47
587.026	29963.32
587.223	29979.7
587.42	29299.78
587.618	29721.66
587.815	29594.68
588.012	29735.99
588.21	29131.84
588.407	29387.84
588.604	28996.68
588.801	29031.49
588.999	29193.28
589.196	28886.09
589.393	29109.32
589.59	28621.9
589.787	28920.9
589.984	28695.63
590.182	28580.94
590.379	28517.45
590.576	28673.1
590.773	28744.78
590.97	28306.51
591.167	28685.39
591.364	28105.81
591.561	28689.48
591.758	28013.65
591.955	28175.44
592.152	28683.34
592.349	27806.81
592.546	28114
592.743	27946.07
592.94	27628.63
593.137	28027.99
593.334	28163.15
593.531	27491.42
593.727	27841.62
593.924	27409.5
594.121	27440.22
594.318	27786.33
594.515	27368.54
594.712	27819.1
594.908	27288.67
595.105	27493.47
595.302	26903.65
595.499	27419.74
595.696	27163.75
595.892	27249.76
596.089	27280.48
596.286	27475.04
596.482	27096.16
596.679	27065.44
596.876	27272.29
597.072	27206.75
597.269	27018.34
597.466	26913.89
597.662	26616.94
597.859	26915.94
598.055	26477.68
598.252	26641.51
598.448	26772.58
598.645	26610.79
598.841	26494.06
599.038	26664.04
599.234	26793.06
599.431	26563.69
599.627	26301.55
599.824	26635.37
600.02	26346.61
600.217	26410.09
600.413	26117.23
600.609	26455.15
600.806	26477.68
601.002	26258.54
601.198	26369.13
601.395	26182.77
601.591	26328.17
601.787	26172.53
601.984	26268.78
602.18	26633.32
602.376	26545.26
602.572	26362.99
602.769	26262.64
602.965	26147.95
603.161	26494.06
603.357	26406
603.553	26170.48
603.75	26420.33
603.946	26352.75
604.142	26729.58
604.338	25902.2
604.534	26381.42
604.73	26473.58
604.926	26131.57
605.122	26686.57
605.318	26297.45
605.514	26090.61
605.71	26182.77
605.906	26111.09
606.102	26381.42
606.298	26283.12
606.494	26463.34
606.69	26176.62
606.886	26354.8
607.082	25986.16
607.278	26625.13
607.474	26156.14
607.67	26473.58
607.866	26168.43
608.062	26567.79
608.257	26623.08
608.453	26739.82
608.649	26698.86
608.845	26379.37
609.041	26647.66
609.236	26584.17
609.432	26489.96
609.628	26727.53
609.824	26731.62
610.019	26571.88
610.215	26623.08
610.411	26938.47
610.606	26754.15
610.802	26956.9
610.998	26975.33
611.193	26991.72
611.389	26928.23
611.584	26963.04
611.78	26594.41
611.976	27229.28
612.171	27069.54
612.367	26815.59
612.562	26860.65
612.758	26823.78
612.953	26539.12
613.149	27434.08
613.344	26905.7
613.539	27137.12
613.735	27008.1
613.93	27233.38
614.126	26911.85
614.321	27432.03
614.517	27395.17
614.712	26973.28
614.907	27133.03
615.103	27133.03
615.298	27071.59
615.493	27530.33
615.688	26981.48
615.884	27565.15
616.079	27448.41
616.274	27219.04
616.47	27153.51
616.665	27034.72
616.86	26909.8
617.055	26950.76
617.25	27006.05
617.445	27298.91
617.641	26971.24
617.836	27247.71
618.031	27020.39
618.226	26827.88
618.421	27094.11
618.616	26807.4
618.811	26752.1
619.006	27180.13
619.201	26395.76
619.396	26668.14
619.591	26096.75
619.786	26743.91
619.981	26299.5
620.176	26596.46
620.371	26082.42
620.566	26287.21
620.761	26023.03
620.956	26436.72
621.151	25789.56
621.346	25742.46
621.541	25476.22
621.735	25926.77
621.93	25580.67
622.125	25560.19
622.32	25334.91
622.515	25529.47
622.709	25160.83
622.904	25101.44
623.099	25152.64
623.294	25025.67
623.488	24632.46
623.683	25072.77
623.878	24577.16
624.072	24472.71
624.267	24560.78
624.462	24538.25
624.656	24003.73
624.851	24183.95
625.046	24102.03
625.24	23790.74
625.435	23829.65
625.629	23606.42
625.824	23409.82
626.018	23491.74
626.213	23114.91
626.407	23233.69
626.602	22805.67
626.796	23030.94
626.991	23108.77
627.185	22609.06
627.38	22772.9
627.574	22203.57
627.768	22488.23
627.963	22322.35
628.157	21920.95
628.352	22330.54
628.546	21716.15
628.74	21947.57
628.935	21687.48
629.129	21636.28
629.323	21537.98
629.517	21421.24
629.712	21236.92
629.906	21214.4
630.1	21212.35
630.294	21370.04
630.489	20782.27
630.683	21224.64
630.877	20903.11
631.071	20554.95
631.265	20794.56
631.459	20593.86
631.653	20413.64
631.848	20155.6
632.042	20362.44
632.236	20200.65
632.43	19893.46
632.624	19958.99
632.818	19670.23
633.012	19385.56
633.206	19633.36
633.4	19645.65
633.594	19227.87
633.788	19358.94
633.982	19412.18
634.176	19401.94
634.369	18996.45
634.563	18949.34
634.757	18877.66
634.951	18926.82
635.145	18724.07
635.339	18742.5
635.533	18396.39
635.726	18423.01
635.92	18349.29
636.114	18216.17
636.308	17796.34
636.501	18167.02
636.695	18021.61
636.889	17628.4
637.083	17792.24
637.276	17648.88
637.47	17521.91
637.664	17431.8
637.857	17503.48
638.051	17575.16
638.244	17024.25
638.438	17020.16
638.632	16866.56
638.825	16948.48
639.019	16813.31
639.212	16864.51
639.406	16604.42
639.599	16407.81
639.793	16387.33
639.986	16026.89
640.18	16186.63
640.373	16313.61
640.567	15779.09
640.76	15965.45
640.954	15807.76
641.147	15731.98
641.34	15402.26
641.534	15437.08
641.727	15516.95
641.92	15420.69
642.114	15201.56
642.307	15176.98
642.5	15142.17
642.694	14886.17
642.887	14972.19
643.08	14830.88
643.273	14806.3
643.467	14724.38
643.66	14468.39
643.853	14566.69
644.046	14312.74
644.239	14167.34
644.432	14392.61
644.626	14003.5
644.819	14112.04
645.012	14402.85
645.205	14136.62
645.398	13913.39
645.591	13651.25
645.784	13561.14
645.977	13677.87
646.17	13681.97
646.363	13389.11
646.556	13182.26
646.749	13333.81
646.942	13348.15
647.135	13126.97
647.328	13038.91
647.521	12981.56
647.714	12844.35
647.907	12924.22
648.099	12836.16
648.292	12590.4
648.485	12657.98
648.678	12389.7
648.871	12326.21
649.064	12326.21
649.256	12506.43
649.449	12262.72
649.642	12068.17
649.835	12203.33
650.027	11885.9
650.22	11976.01
650.413	11943.24
650.605	11881.8
650.798	11914.57
650.991	11615.57
651.183	11650.38
651.376	11431.25
651.568	11535.7
651.761	11390.29
651.954	11339.09
652.146	11474.26
652.339	11449.68
652.531	11218.26
652.724	11079
652.916	10958.17
653.109	11058.52
653.301	10968.41
653.494	11119.96
653.686	10802.52
653.879	10990.94
654.071	10603.87
654.263	10464.61
654.456	10644.83
654.648	10415.46
654.84	10300.77
655.033	10405.22
655.225	10646.88
655.417	10450.27
655.61	10546.53
655.802	10433.89
655.994	10243.43
656.186	10345.83
656.379	10005.86
656.571	10108.26
656.763	9776.49
656.955	9756.01
657.148	9930.09
657.34	9782.63
657.532	9614.7
657.724	9661.8
657.916	9925.99
658.108	9624.94
658.3	9313.65
658.492	9534.83
658.684	9346.42
658.876	9506.16
659.068	9485.68
659.26	9340.27
659.452	9153.91
659.644	9188.72
659.836	9074.04
660.028	9076.09
660.22	8762.75
660.412	8893.82
660.604	8899.96
660.796	8881.53
660.988	8902.01
661.18	8703.36
661.372	8461.69
661.563	8867.19
661.755	8504.7
661.947	8547.71
662.139	8330.62
662.331	8469.89
662.522	8412.54
662.714	8467.84
662.906	8283.52
663.097	8297.86
663.289	8166.79
663.481	8162.69
663.673	8256.9
663.864	8000.9
664.056	7896.46
664.247	7904.65
664.439	7935.37
664.631	7865.74
664.822	7720.33
665.014	8099.2
665.205	7662.99
665.397	7806.34
665.588	7554.44
665.78	7705.99
665.971	7662.99
666.163	7576.97
666.354	7536.01
666.546	7495.05
666.737	7435.66
666.929	7529.87
667.12	7466.38
667.311	7464.33
667.503	7300.5
667.694	7237.01
667.885	7150.99
668.077	7138.71
668.268	7058.84
668.459	7105.94
668.651	7056.79
668.842	6895
669.033	6835.61
669.224	6905.24
669.416	6987.16
669.607	6849.94
669.798	6888.85
669.989	6843.8
670.18	6772.12
670.371	6794.65
670.563	6573.47
670.754	6755.74
670.945	6589.85
671.136	6663.58
671.327	6573.47
671.518	6524.32
671.709	6571.42
671.9	6647.19
672.091	6460.83
672.282	6458.78
672.473	6452.64
672.664	6348.19
672.855	6344.1
673.046	6331.81
673.237	6372.77
673.428	6280.61
673.619	6167.97
673.809	6325.66
674	6102.43
674.191	6305.18
674.382	6151.59
674.573	6200.74
674.764	5946.79
674.954	6360.48
675.145	5975.46
675.336	6100.39
675.527	6024.61
675.717	6016.42
675.908	6073.76
676.099	6026.66
676.289	6057.38
676.48	5930.41
676.671	5811.62
676.861	5983.65
677.052	5600.68
677.243	5785
677.433	5819.82
677.624	5916.07
677.814	5692.84
678.005	5838.25
678.195	5721.51
678.386	5635.5
678.576	5576.11
678.767	5584.3
678.957	5584.3
679.148	5768.62
679.338	5608.87
679.529	5670.31
679.719	5590.44
679.909	5606.83
680.1	5465.52
680.29	5580.2
680.481	5647.79
680.671	5475.76
680.861	5504.43
681.052	5467.56
681.242	5518.76
681.432	5535.15
681.622	5338.54
681.813	5311.92
682.003	5352.88
682.193	5354.93
682.383	5391.79
682.573	5492.14
682.764	5410.22
682.954	5385.65
683.144	5316.01
683.334	5268.91
683.524	5254.58
683.714	5469.61
683.904	5180.85
684.094	5240.24
684.284	5340.59
684.474	5330.35
684.664	5344.69
684.854	5090.74
685.044	5221.81
685.234	5053.87
685.424	5115.31
685.614	4988.34
685.804	5184.94
685.994	5160.37
686.184	5207.47
686.374	5000.63
686.564	5098.93
686.753	5135.79
686.943	5049.78
687.133	5072.31
687.323	5057.97
687.513	4937.14
687.702	4992.44
687.892	4840.89
688.082	4853.17
688.272	4834.74
688.461	4894.13
688.651	4978.1
688.841	4853.17
689.03	4976.05
689.22	4771.26
689.41	4777.4
689.599	4855.22
689.789	4801.97
689.979	4830.65
690.168	4920.76
690.358	4781.5
690.547	4814.26
690.737	4818.36
690.926	4566.46
691.116	4779.45
691.305	4820.41
691.495	4791.73
691.684	4734.39
691.874	4693.43
692.063	4693.43
692.252	4812.21
692.442	4705.72
692.631	4601.27
692.82	4582.84
693.01	4652.47
693.199	4613.56
693.388	4644.28
693.578	4533.69
693.767	4539.83
693.956	4556.22
694.146	4593.08
694.335	4496.83
694.524	4502.97
694.713	4607.42
694.902	4488.64
695.092	4500.92
695.281	4550.07
695.47	4576.7
695.659	4500.92
695.848	4476.35
696.037	4472.25
696.226	4519.36
696.415	4459.96
696.604	4443.58
696.793	4388.29
696.982	4429.24
697.171	4410.81
697.36	4462.01
697.549	4394.43
697.738	4437.44
697.927	4251.07
698.116	4545.98
698.305	4306.37
698.494	4406.72
698.683	4404.67
698.872	4443.58
699.061	4296.13
699.25	4412.86
699.438	4187.58
699.627	4249.02
699.816	4328.89
700.005	4312.51
700.193	4105.67
700.382	4304.32
700.571	4152.77
700.76	4197.82
700.948	4386.24
701.137	4175.3
701.326	4265.41
701.514	4019.65
701.703	4097.47
701.892	4255.17
702.08	4255.17
702.269	4244.93
702.457	4042.18
702.646	4101.57
702.834	3990.98
703.023	3952.07
703.212	4175.3
703.4	4197.82
703.589	4001.22
703.777	4193.73
703.965	3964.36
704.154	4066.75
704.342	3952.07
704.531	4042.18
704.719	3962.31
704.907	3988.93
705.096	3968.45
705.284	3829.19
705.472	3984.84
705.661	3816.9
705.849	4023.75
706.037	3935.68
706.226	3880.39
706.414	3931.59
706.602	3956.16
706.79	3859.91
706.979	3710.41
707.167	3823.05
707.355	3771.85
707.543	3821
707.731	3780.04
707.919	3771.85
708.107	3763.65
708.296	3696.07
708.484	3679.69
708.672	3681.74
708.86	3726.79
709.048	3702.22
709.236	3605.96
709.424	3687.88
709.612	3608.01
709.8	3509.71
709.988	3577.29
710.176	3708.36
710.364	3618.25
710.551	3571.15
710.739	3478.99
710.927	3519.95
711.115	3597.77
711.303	3622.34
711.491	3501.51
711.679	3513.8
711.866	3562.95
712.054	3458.51
712.242	3485.13
712.43	3575.24
712.617	3435.98
712.805	3528.14
712.993	3372.49
713.181	3354.06
713.368	3456.46
713.556	3349.96
713.744	3296.72
713.931	3290.57
714.119	3337.68
714.306	3552.71
714.494	3349.96
714.682	3349.96
714.869	3331.53
715.057	3263.95
715.244	3257.81
715.432	3292.62
715.619	3311.05
715.807	3245.52
715.994	3216.85
716.182	3167.7
716.369	3298.77
716.556	3202.51
716.744	3136.98
716.931	3085.78
717.119	3212.75
717.306	3266
717.493	3110.35
717.681	3126.74
717.868	3120.59
718.055	3190.22
718.242	3124.69
718.43	3177.94
718.617	3091.92
718.804	3077.59
718.991	2985.43
719.179	3022.29
719.366	2958.8
719.553	3036.63
719.74	3085.78
719.927	3053.01
720.114	2928.08
720.301	2887.12
720.488	3036.63
720.676	2878.93
720.863	3001.81
721.05	2897.36
721.237	3001.81
721.424	2954.71
721.611	3036.63
721.798	2635.22
721.985	2797.01
722.172	2782.68
722.358	2913.75
722.545	3005.91
722.732	2817.49
722.919	2930.13
723.106	2780.63
723.293	2831.83
723.48	2874.84
723.667	2766.29
723.853	2610.65
724.04	2762.2
724.227	2702.81
724.414	2840.02
724.6	2657.75
724.787	2702.81
724.974	2813.4
725.161	2782.68
725.347	2588.12
725.534	2719.19
725.72	2633.18
725.907	2604.5
726.094	2678.23
726.28	2649.56
726.467	2608.6
726.653	2586.07
726.84	2657.75
727.027	2733.53
727.213	2516.44
727.4	2487.77
727.586	2577.88
727.773	2596.31
727.959	2667.99
728.145	2526.68
728.332	2510.3
728.518	2584.02
728.705	2436.57
728.891	2412
729.077	2538.97
729.264	2469.34
729.45	2461.15
729.636	2565.59
729.823	2485.72
730.009	2520.54
730.195	2471.39
730.382	2350.56
730.568	2518.49
730.754	2444.76
730.94	2395.61
731.126	2428.38
731.313	2526.68
731.499	2364.89
731.685	2448.86
731.871	2391.52
732.057	2493.91
732.243	2325.98
732.429	2364.89
732.615	2403.8
732.801	2354.65
732.987	2412
733.173	2276.83
733.359	2350.56
733.545	2346.46
733.731	2323.93
733.917	2291.17
734.103	2256.35
734.289	2252.25
734.475	2307.55
734.661	2297.31
734.847	2182.62
735.033	2262.49
735.219	2260.45
735.404	2149.86
735.59	2184.67
735.776	2119.14
735.962	2274.78
736.148	2248.16
736.333	2252.25
736.519	2156
736.705	2209.25
736.89	2231.77
737.076	2125.28
737.262	2127.33
737.447	2123.23
737.633	2149.86
737.819	2088.42
738.004	2133.47
738.19	2041.31
738.375	2055.65
738.561	2110.94
738.747	2166.24
738.932	2078.18
739.118	2051.55
739.303	2043.36
739.489	2026.98
739.674	2012.64
739.859	2024.93
740.045	2006.5
740.23	2051.55
740.416	2002.4
740.601	1977.83
740.786	1996.26
740.972	1928.67
741.157	1934.82
741.342	1857
741.528	1875.43
741.713	1879.52
741.898	1953.25
742.084	1846.76
742.269	1977.83
742.454	1881.57
742.639	1961.44
742.824	1830.37
743.01	1900
743.195	1940.96
743.38	1857
743.565	1748.45
743.75	1887.72
743.935	1875.43
744.12	1768.93
744.305	1768.93
744.49	1709.54
744.675	1646.05
744.86	1691.11
745.045	1723.88
745.23	1758.69
745.415	1723.88
745.6	1840.61
745.785	1760.74
745.97	1775.08
746.155	1711.59
746.34	1709.54
746.525	1697.25
746.71	1766.89
746.895	1490.41
747.079	1705.45
747.264	1644.01
747.449	1627.62
747.634	1652.2
747.819	1625.58
748.003	1650.15
748.188	1611.24
748.373	1535.46
748.557	1691.11
748.742	1584.62
748.927	1449.45
749.111	1494.51
749.296	1650.15
749.481	1611.24
749.665	1455.59
749.85	1478.12
750.034	1512.94
750.219	1465.83
750.404	1394.15
750.588	1560.04
750.773	1437.16
750.957	1500.65
751.141	1447.4
751.326	1455.59
751.51	1449.45
751.695	1437.16
751.879	1324.52
752.064	1367.53
752.248	1324.52
752.432	1416.68
752.617	1457.64
752.801	1398.25
752.985	1330.67
753.17	1422.83
753.354	1359.34
753.538	1363.44
753.722	1269.23
753.907	1256.94
754.091	1273.32
754.275	1332.72
754.459	1345
754.643	1240.56
754.828	1322.48
755.012	1211.89
755.196	1179.12
755.38	1207.79
755.564	1222.13
755.748	1175.02
755.932	1177.07
756.116	1158.64
756.3	1211.89
756.484	1238.51
756.668	1256.94
756.852	1144.3
757.036	1099.25
757.22	1113.58
757.404	1236.46
757.588	1109.49
757.772	1021.42
757.956	1144.3
758.14	1144.3
758.323	1101.3
758.507	1142.25
758.691	1093.1
758.875	1076.72
759.059	1084.91
759.242	1109.49
759.426	1109.49
759.61	1046
759.794	1037.81
759.977	1127.92
760.161	1166.83
760.345	1146.35
760.528	1160.69
760.712	1084.91
760.895	1013.23
761.079	1019.38
761.263	1033.71
761.446	1078.77
761.63	988.66
761.813	968.18
761.997	1015.28
762.18	984.56
762.364	998.9
762.547	986.61
762.731	925.17
762.914	982.51
763.098	931.31
763.281	951.79
763.464	1005.04
763.648	943.6
763.831	955.89
764.015	886.26
764.198	978.42
764.381	843.25
764.564	1039.86
764.748	906.74
764.931	959.99
765.114	976.37
765.297	914.93
765.481	929.27
765.664	876.02
765.847	808.44
766.03	972.27
766.213	830.96
766.397	912.88
766.58	857.59
766.763	869.87
766.946	921.07
767.129	873.97
767.312	892.4
767.495	814.58
767.678	900.59
767.861	857.59
768.044	863.73
768.227	814.58
768.41	828.92
768.593	822.77
768.776	880.11
768.959	843.25
769.142	925.17
769.324	847.35
769.507	861.68
769.69	804.34
769.873	839.16
770.056	933.36
770.239	884.21
770.421	810.48
770.604	859.63
770.787	732.66
770.97	816.63
771.152	806.39
771.335	771.57
771.518	759.28
771.7	783.86
771.883	828.92
772.066	749.04
772.248	728.56
772.431	783.86
772.613	839.16
772.796	775.67
772.978	773.62
773.161	755.19
773.343	699.89
773.526	718.33
773.708	765.43
773.891	765.43
774.073	736.76
774.256	658.93
774.438	753.14
774.621	732.66
774.803	724.47
774.985	685.56
775.168	767.48
775.35	761.33
775.532	699.89
775.715	716.28
775.897	693.75
776.079	617.97
776.261	751.09
776.444	744.95
776.626	601.59
776.808	620.02
776.99	646.65
777.173	673.27
777.355	747
777.537	669.17
777.719	603.64
777.901	634.36
778.083	679.41
778.265	634.36
778.447	622.07
778.629	611.83
778.811	636.41
778.993	687.61
779.175	642.55
779.357	617.97
779.539	554.49
779.721	611.83
779.903	642.55
780.085	554.49
780.267	617.97
780.449	544.25
780.631	583.16
780.812	589.3
780.994	536.06
781.176	591.35
781.358	593.4
781.54	650.74
781.721	560.63
781.903	622.07
782.085	488.95
782.267	562.68
782.448	462.33
782.63	497.14
782.812	472.57
782.993	589.3
783.175	507.38
783.357	470.52
783.538	593.4
783.72	462.33
783.901	527.86
784.083	558.58
784.264	495.1
784.446	476.66
784.627	390.65
784.809	540.15
784.99	480.76
785.172	503.29
785.353	364.03
785.535	478.71
785.716	488.95
785.897	454.14
786.079	366.07
786.26	407.03
786.441	488.95
786.623	402.94
786.804	400.89
786.985	372.22
787.167	470.52
787.348	429.56
787.529	409.08
787.71	503.29
787.891	368.12
788.073	286.2
788.254	349.69
788.435	409.08
788.616	384.51
788.797	388.6
788.978	372.22
789.159	376.31
789.34	415.23
789.522	341.5
789.703	409.08
789.884	374.27
790.065	429.56
790.246	364.03
790.427	376.31
790.607	329.21
790.788	435.71
790.969	331.26
791.15	447.99
791.331	343.55
791.512	323.07
791.693	339.45
791.874	394.75
792.054	421.37
792.235	400.89
792.416	327.16
792.597	318.97
792.778	275.96
792.958	306.68
793.139	333.31
793.32	325.12
793.5	275.96
793.681	421.37
793.862	364.03
794.042	355.83
794.223	325.12
794.404	257.53
794.584	220.67
794.765	292.35
794.945	265.72
795.126	392.7
795.306	341.5
795.487	275.96
795.667	255.48
795.848	308.73
796.028	314.88
796.209	278.01
796.389	349.69
796.57	269.82
796.75	239.1
796.93	286.2
797.111	241.15
797.291	220.67
797.471	292.35
797.652	298.49
797.832	286.2
798.012	269.82
798.192	306.68
798.373	259.58
798.553	308.73
798.733	310.78
798.913	210.43
799.093	265.72
799.274	269.82
799.454	376.31
799.634	247.29
799.814	300.54
799.994	341.5
800.174	239.1
800.354	251.39
800.534	210.43
800.714	261.63
800.894	269.82
801.074	251.39
801.254	192
801.434	265.72
801.614	235
801.794	169.47
801.974	792.05
802.154	204.28
802.334	290.3
802.514	179.71
802.693	267.77
802.873	183.81
803.053	278.01
803.233	237.05
803.413	151.04
803.592	183.81
803.772	175.61
803.952	128.51
804.131	265.72
804.311	253.44
804.491	243.2
804.67	167.42
804.85	259.58
805.03	157.18
805.209	271.87
805.389	200.19
805.568	210.43
805.748	185.85
805.928	216.57
806.107	220.67
806.287	222.72
806.466	245.24
806.646	189.95
806.825	196.09
807.004	142.85
807.184	159.23
807.363	216.57
807.543	171.52
807.722	122.37
807.901	253.44
808.081	192
808.26	183.81
808.439	169.47
808.619	204.28
808.798	200.19
808.977	171.52
809.156	194.05
809.336	232.96
809.515	210.43
809.694	116.22
809.873	232.96
810.052	218.62
810.231	308.73
810.411	200.19
810.59	228.86
810.769	200.19
810.948	216.57
811.127	93.69
811.306	136.7
811.485	204.28
811.664	210.43
811.843	175.61
812.022	128.51
812.201	177.66
812.38	183.81
812.559	181.76
812.737	167.42
812.916	169.47
813.095	163.33
813.274	155.13
813.453	218.62
813.632	232.96
813.811	183.81
813.989	126.46
814.168	183.81
814.347	148.99
814.526	210.43
814.704	118.27
814.883	187.9
815.062	165.37
815.24	155.13
815.419	128.51
815.598	192
815.776	138.75
815.955	77.31
816.133	77.31
816.312	169.47
816.49	136.7
816.669	179.71
816.847	130.56
817.026	142.85
817.204	126.46
817.383	200.19
817.561	87.55
817.74	208.38
817.918	134.65
818.097	120.32
818.275	13.82
818.453	175.61
818.632	146.94
818.81	110.08
818.988	48.64
819.167	128.51
819.345	216.57
819.523	157.18
819.701	44.54
819.879	142.85
820.058	79.36
820.236	108.03
820.414	103.93
820.592	67.07
820.77	105.98
820.948	167.42
821.127	142.85
821.305	155.13
821.483	-0.51
821.661	122.37
821.839	81.41
822.017	91.65
822.195	77.31
822.373	169.47
822.551	103.93
822.729	148.99
822.907	89.6
823.085	165.37
823.262	169.47
823.44	77.31
823.618	79.36
823.796	69.12
823.974	75.26
824.152	126.46
824.329	85.5
824.507	89.6
824.685	169.47
824.863	101.89
825.04	118.27
825.218	71.17
825.396	103.93
825.574	146.94
825.751	46.59
825.929	126.46
826.107	56.83
826.284	138.75
826.462	77.31
826.639	130.56
826.817	130.56
826.994	85.5
827.172	140.8
827.349	202.24
827.527	159.23
827.704	120.32
827.882	126.46
828.059	46.59
828.237	93.69
828.414	138.75
828.591	52.74
828.769	120.32
828.946	46.59
829.124	134.65
829.301	85.5
829.478	151.04
829.655	114.17
829.833	52.74
830.01	54.78
830.187	255.48
830.364	105.98
830.542	81.41
830.719	130.56
830.896	161.28
831.073	103.93
831.25	110.08
831.427	140.8
831.604	108.03
831.782	126.46
831.959	79.36
832.136	30.21
832.313	112.13
832.49	71.17
832.667	-37.38
832.844	101.89
833.021	89.6
833.198	73.21
833.374	101.89
833.551	132.61
833.728	52.74
833.905	118.27
834.082	-0.51
834.259	134.65
834.436	85.5
834.612	83.45
834.789	101.89
834.966	89.6
835.143	62.98
835.319	9.73
835.496	54.78
835.673	159.23
835.85	181.76
836.026	48.64
836.203	118.27
836.38	79.36
836.556	75.26
836.733	52.74
836.909	99.84
837.086	103.93
837.262	24.06
837.439	83.45
837.616	30.21
837.792	26.11
837.968	177.66
838.145	44.54
838.321	73.21
838.498	19.97
838.674	77.31
838.851	87.55
839.027	32.26
839.203	75.26
839.38	60.93
839.556	15.87
839.732	120.32
839.909	87.55
840.085	62.98
840.261	-29.18
840.437	97.79
840.614	81.41
840.79	36.35
840.966	122.37
841.142	28.16
841.318	13.82
841.494	48.64
841.671	151.04
841.847	28.16
842.023	9.73
842.199	17.92
842.375	179.71
842.551	56.83
842.727	36.35
842.903	146.94
843.079	36.35
843.255	73.21
843.431	77.31
843.607	93.69
843.783	7.68
843.959	69.12
844.134	91.65
844.31	87.55
844.486	-4.61
844.662	62.98
844.838	58.88
845.013	77.31
845.189	56.83
845.365	93.69
845.541	19.97
845.716	69.12
845.892	44.54
846.068	56.83
846.244	-25.09
846.419	128.51
846.595	36.35
846.77	83.45
846.946	67.07
847.122	56.83
847.297	105.98
847.473	110.08
847.648	56.83
847.824	-37.38
847.999	19.97
848.175	44.54
848.35	167.42
848.526	114.17
848.701	69.12
848.876	128.51
849.052	42.5
849.227	15.87
849.403	30.21
849.578	13.82
849.753	30.21
849.929	110.08
850.104	-10.75
850.279	83.45
850.454	19.97
850.63	34.3
850.805	97.79
850.98	69.12
851.155	120.32
851.33	24.06
851.505	36.35
851.681	108.03
851.856	159.23
852.031	114.17
852.206	103.93
852.381	40.45
852.556	48.64
852.731	30.21
852.906	19.97
853.081	-8.7
853.256	179.71
853.431	13.82
853.606	-66.05
853.781	54.78
853.956	7.68
854.131	77.31
854.305	52.74
854.48	58.88
854.655	11.78
854.83	9.73
855.005	36.35
855.18	79.36
855.354	44.54
855.529	54.78
855.704	30.21
855.879	110.08
856.053	-12.8
856.228	46.59
856.403	-45.57
856.577	110.08
856.752	15.87
856.926	99.84
857.101	40.45
857.276	-4.61
857.45	85.5
857.625	142.85
857.799	-10.75
857.974	87.55
858.148	-53.76
858.323	60.93
858.497	11.78
858.672	50.69
858.846	52.74
859.02	30.21
859.195	28.16
859.369	-35.33
859.543	-27.14
859.718	-10.75
859.892	30.21
860.066	89.6
860.241	34.3
860.415	-2.56
860.589	44.54
860.763	-16.9
860.938	40.45
861.112	-16.9
861.286	24.06
861.46	38.4
861.634	-4.61
861.808	110.08
861.982	79.36
862.157	24.06
862.331	32.26
862.505	-61.95
862.679	3.58
862.853	7.68
863.027	71.17
863.201	101.89
863.375	50.69
863.549	36.35
863.722	-8.7
863.896	40.45
864.07	1.54
864.244	48.64
864.418	9.73
864.592	-31.23
864.766	71.17
864.939	44.54
865.113	32.26
865.287	142.85
865.461	-2.56
865.634	77.31
865.808	69.12
865.982	-23.04
866.156	85.5
866.329	28.16
866.503	93.69
866.676	32.26
866.85	24.06
867.024	36.35
867.197	60.93
867.371	19.97
867.544	40.45
867.718	3.58
867.891	77.31
868.065	112.13
868.238	60.93
868.412	67.07
868.585	69.12
868.759	40.45
868.932	-37.38
869.105	26.11
869.279	62.98
869.452	-51.71
869.625	36.35
869.799	9.73
869.972	15.87
870.145	40.45
870.319	26.11
870.492	-20.99
870.665	52.74
870.838	3.58
871.011	36.35
871.185	-10.75
871.358	-59.9
871.531	-0.51
871.704	17.92
871.877	-53.76
872.05	36.35
872.223	-10.75
872.396	3.58
872.569	19.97
872.742	-94.72
872.915	52.74
873.088	54.78
873.261	-4.61
873.434	24.06
873.607	89.6
873.78	93.69
873.953	-8.7
874.126	62.98
874.299	79.36
874.471	-10.75
874.644	22.02
874.817	46.59
874.99	42.5
875.163	-2.56
875.335	89.6
875.508	-76.29
875.681	159.23
875.853	-4.61
876.026	28.16
876.199	62.98
876.371	-20.99
876.544	7.68
876.717	44.54
876.889	-0.51
877.062	28.16
877.234	28.16
877.407	-12.8
877.579	26.11
877.752	5.63
877.924	54.78
878.097	-45.57
878.269	-35.33
878.442	95.74
878.614	-12.8
878.786	44.54
878.959	40.45
879.131	87.55
879.303	-35.33
879.476	30.21
879.648	-10.75
879.82	60.93
879.993	11.78
880.165	19.97
880.337	36.35
880.509	54.78
880.681	-61.95
880.854	52.74
881.026	1.54
881.198	85.5
881.37	3.58
881.542	48.64
881.714	-37.38
881.886	77.31
882.058	-64
882.23	-0.51
882.402	-6.66
882.574	44.54
882.746	40.45
882.918	-14.85
883.09	69.12
883.262	85.5
883.434	-25.09
883.606	-16.9
883.778	-47.62
883.95	159.23
884.122	44.54
884.293	-12.8
884.465	7.68
884.637	122.37
884.809	3.58
884.98	9.73
885.152	22.02
885.324	44.54
885.496	40.45
885.667	34.3
885.839	38.4
886.011	28.16
886.182	3.58
886.354	56.83
886.525	-10.75
886.697	-6.66
886.869	-2.56
887.04	5.63
887.212	77.31
887.383	28.16
887.555	13.82
887.726	-41.47
887.897	-35.33
888.069	19.97
888.24	110.08
888.412	7.68
888.583	-0.51
888.754	-59.9
888.926	-53.76
889.097	-10.75
889.268	13.82
889.44	50.69
889.611	-86.53
889.782	-20.99
889.953	-82.43
890.125	73.21
890.296	-20.99
890.467	28.16
890.638	-0.51
890.809	50.69
890.98	52.74
891.151	112.13
891.323	32.26
891.494	5.63
891.665	-4.61
891.836	-29.18
892.007	-51.71
892.178	3.58
892.349	-2.56
892.52	-57.86
892.691	38.4
892.862	-14.85
893.032	11.78
893.203	44.54
893.374	-4.61
893.545	122.37
893.716	44.54
893.887	103.93
894.057	11.78
894.228	-8.7
894.399	19.97
894.57	30.21
894.74	-64
894.911	69.12
895.082	-0.51
895.253	-25.09
895.423	-53.76
895.594	69.12
895.764	-0.51
895.935	7.68
896.106	50.69
896.276	32.26
896.447	32.26
896.617	3.58
896.788	-117.25
896.958	-49.66
897.129	-10.75
897.299	-53.76
897.47	15.87
897.64	22.02
897.81	69.12
897.981	46.59
898.151	-51.71
898.322	54.78
898.492	73.21
898.662	40.45
898.832	15.87
899.003	-2.56
899.173	26.11
899.343	-33.28
899.513	19.97
