Data from USB4F104151__139__14-31-47-177.txt Node

Date: Thu Mar 13 14:31:47 EDT 2025
User: louis
Spectrometer: USB4F10415
Trigger mode: 4
Integration Time (sec): 2.500000E-2
Scans to average: 1
Electric dark correction enabled: true
Nonlinearity correction enabled: false
Boxcar width: 0
XAxis mode: Wavelengths
Number of Pixels in Spectrum: 3648
>>>>>Begin Spectral Data<<<<<
178.204	-141.31
178.424	-141.31
178.644	-141.31
178.864	-129.02
179.084	-79.87
179.304	-40.96
179.524	-24.58
179.744	12.29
179.964	55.3
180.184	-24.58
180.404	47.1
180.624	-18.43
180.844	51.2
181.064	-51.2
181.283	16.38
181.503	-79.87
181.723	57.34
181.943	55.3
182.163	73.73
182.383	2.05
182.602	14.34
182.822	63.49
183.042	65.54
183.262	16.38
183.482	-10.24
183.701	8.19
183.921	22.53
184.141	40.96
184.361	73.73
184.58	30.72
184.8	-2.05
185.02	-43.01
185.239	22.53
185.459	75.77
185.679	88.06
185.898	-8.19
186.118	129.02
186.338	100.35
186.557	92.16
186.777	-45.06
186.997	47.1
187.216	6.14
187.436	32.77
187.655	26.62
187.875	61.44
188.095	81.92
188.314	22.53
188.534	77.82
188.753	38.91
188.973	12.29
189.192	67.58
189.412	79.87
189.631	57.34
189.851	65.54
190.07	38.91
190.29	-8.19
190.509	81.92
190.729	112.64
190.948	96.25
191.168	129.02
191.387	67.58
191.607	0
191.826	77.82
192.045	-8.19
192.265	40.96
192.484	38.91
192.704	81.92
192.923	71.68
193.142	63.49
193.362	55.3
193.581	51.2
193.8	34.82
194.02	-2.05
194.239	45.06
194.458	90.11
194.678	-10.24
194.897	-10.24
195.116	67.58
195.335	-2.05
195.555	55.3
195.774	71.68
195.993	26.62
196.212	79.87
196.432	24.58
196.651	38.91
196.87	49.15
197.089	43.01
197.308	96.25
197.528	57.34
197.747	14.34
197.966	63.49
198.185	116.73
198.404	98.3
198.623	-34.82
198.842	47.1
199.062	14.34
199.281	49.15
199.5	36.86
199.719	63.49
199.938	126.97
200.157	49.15
200.376	104.45
200.595	100.35
200.814	57.34
201.033	53.25
201.252	104.45
201.471	67.58
201.69	-10.24
201.909	59.39
202.128	34.82
202.347	96.25
202.566	22.53
202.785	34.82
203.004	53.25
203.223	94.21
203.442	141.31
203.661	6.14
203.879	55.3
204.098	90.11
204.317	51.2
204.536	73.73
204.755	51.2
204.974	71.68
205.193	55.3
205.411	145.41
205.63	-2.05
205.849	-16.38
206.068	18.43
206.287	34.82
206.505	59.39
206.724	22.53
206.943	38.91
207.162	30.72
207.381	-10.24
207.599	-6.14
207.818	65.54
208.037	-28.67
208.255	28.67
208.474	83.97
208.693	90.11
208.911	38.91
209.13	49.15
209.349	22.53
209.567	110.59
209.786	81.92
210.005	75.77
210.223	63.49
210.442	0
210.661	90.11
210.879	65.54
211.098	49.15
211.316	34.82
211.535	139.26
211.753	24.58
211.972	71.68
212.191	30.72
212.409	40.96
212.628	16.38
212.846	45.06
213.065	73.73
213.283	53.25
213.502	-22.53
213.72	55.3
213.938	26.62
214.157	98.3
214.375	57.34
214.594	-18.43
214.812	-14.34
215.031	118.78
215.249	71.68
215.467	79.87
215.686	57.34
215.904	147.45
216.122	55.3
216.341	92.16
216.559	63.49
216.778	114.69
216.996	67.58
217.214	20.48
217.432	88.06
217.651	-12.29
217.869	18.43
218.087	112.64
218.306	67.58
218.524	106.49
218.742	22.53
218.96	47.1
219.179	63.49
219.397	45.06
219.615	51.2
219.833	-4.1
220.051	22.53
220.27	2.05
220.488	-16.38
220.706	6.14
220.924	-10.24
221.142	14.34
221.36	57.34
221.578	73.73
221.796	96.25
222.015	71.68
222.233	30.72
222.451	81.92
222.669	38.91
222.887	67.58
223.105	-2.05
223.323	16.38
223.541	30.72
223.759	55.3
223.977	63.49
224.195	63.49
224.413	49.15
224.631	49.15
224.849	69.63
225.067	112.64
225.285	71.68
225.503	-8.19
225.721	-53.25
225.939	-22.53
226.157	51.2
226.375	182.27
226.592	59.39
226.81	18.43
227.028	51.2
227.246	94.21
227.464	53.25
227.682	28.67
227.9	122.88
228.117	2.05
228.335	92.16
228.553	104.45
228.771	0
228.989	49.15
229.206	-10.24
229.424	57.34
229.642	63.49
229.86	14.34
230.077	79.87
230.295	67.58
230.513	2.05
230.731	108.54
230.948	120.83
231.166	63.49
231.384	-12.29
231.601	47.1
231.819	131.07
232.037	71.68
232.254	47.1
232.472	53.25
232.689	67.58
232.907	108.54
233.125	20.48
233.342	32.77
233.56	10.24
233.777	53.25
233.995	28.67
234.213	83.97
234.43	34.82
234.648	-36.86
234.865	2.05
235.083	81.92
235.3	-8.19
235.518	90.11
235.735	67.58
235.953	114.69
236.17	45.06
236.388	51.2
236.605	43.01
236.822	88.06
237.04	63.49
237.257	14.34
237.475	49.15
237.692	30.72
237.909	6.14
238.127	55.3
238.344	104.45
238.562	69.63
238.779	-2.05
238.996	10.24
239.214	38.91
239.431	-2.05
239.648	-18.43
239.865	79.87
240.083	47.1
240.3	86.01
240.517	12.29
240.735	59.39
240.952	67.58
241.169	83.97
241.386	79.87
241.603	28.67
241.821	71.68
242.038	61.44
242.255	47.1
242.472	0
242.689	30.72
242.907	112.64
243.124	79.87
243.341	43.01
243.558	34.82
243.775	-16.38
243.992	-2.05
244.209	53.25
244.426	83.97
244.643	32.77
244.86	14.34
245.078	65.54
245.295	96.25
245.512	16.38
245.729	24.58
245.946	129.02
246.163	126.97
246.38	-18.43
246.597	63.49
246.814	63.49
247.031	47.1
247.248	28.67
247.464	104.45
247.681	30.72
247.898	2.05
248.115	63.49
248.332	-51.2
248.549	137.21
248.766	67.58
248.983	116.73
249.2	79.87
249.417	55.3
249.633	-18.43
249.85	65.54
250.067	43.01
250.284	16.38
250.501	30.72
250.717	38.91
250.934	86.01
251.151	67.58
251.368	88.06
251.585	-2.05
251.801	45.06
252.018	32.77
252.235	92.16
252.451	69.63
252.668	79.87
252.885	47.1
253.102	6.14
253.318	32.77
253.535	34.82
253.752	-43.01
253.968	51.2
254.185	65.54
254.401	55.3
254.618	57.34
254.835	88.06
255.051	149.5
255.268	141.31
255.484	6.14
255.701	59.39
255.917	57.34
256.134	-57.34
256.351	18.43
256.567	-26.62
256.784	57.34
257	16.38
257.217	65.54
257.433	108.54
257.65	51.2
257.866	63.49
258.082	71.68
258.299	-55.3
258.515	57.34
258.732	-2.05
258.948	-24.58
259.165	88.06
259.381	55.3
259.597	100.35
259.814	24.58
260.03	22.53
260.246	40.96
260.463	63.49
260.679	98.3
260.895	14.34
261.112	124.93
261.328	43.01
261.544	47.1
261.761	131.07
261.977	92.16
262.193	-57.34
262.409	96.25
262.626	98.3
262.842	38.91
263.058	38.91
263.274	165.89
263.49	81.92
263.707	71.68
263.923	104.45
264.139	43.01
264.355	96.25
264.571	55.3
264.787	32.77
265.004	47.1
265.22	63.49
265.436	47.1
265.652	8.19
265.868	-2.05
266.084	16.38
266.3	106.49
266.516	6.14
266.732	69.63
266.948	100.35
267.164	55.3
267.38	106.49
267.596	63.49
267.812	106.49
268.028	116.73
268.244	24.58
268.46	57.34
268.676	-28.67
268.892	88.06
269.108	51.2
269.324	-6.14
269.54	-40.96
269.756	106.49
269.972	-69.63
270.188	34.82
270.403	32.77
270.619	51.2
270.835	124.93
271.051	83.97
271.267	34.82
271.483	8.19
271.698	36.86
271.914	131.07
272.13	71.68
272.346	112.64
272.562	22.53
272.777	90.11
272.993	6.14
273.209	-2.05
273.425	43.01
273.64	47.1
273.856	57.34
274.072	63.49
274.287	59.39
274.503	22.53
274.719	90.11
274.934	57.34
275.15	-2.05
275.366	16.38
275.581	10.24
275.797	55.3
276.012	55.3
276.228	55.3
276.444	92.16
276.659	139.26
276.875	100.35
277.09	18.43
277.306	55.3
277.521	118.78
277.737	30.72
277.952	116.73
278.168	6.14
278.383	-2.05
278.599	112.64
278.814	32.77
279.03	57.34
279.245	104.45
279.461	34.82
279.676	63.49
279.892	-38.91
280.107	24.58
280.322	40.96
280.538	92.16
280.753	30.72
280.969	-6.14
281.184	61.44
281.399	55.3
281.615	67.58
281.83	129.02
282.045	-20.48
282.26	65.54
282.476	75.77
282.691	75.77
282.906	63.49
283.122	22.53
283.337	57.34
283.552	106.49
283.767	40.96
283.983	131.07
284.198	-20.48
284.413	-6.14
284.628	-34.82
284.843	-2.05
285.058	38.91
285.274	104.45
285.489	55.3
285.704	129.02
285.919	53.25
286.134	65.54
286.349	34.82
286.564	32.77
286.779	47.1
286.995	2.05
287.21	-53.25
287.425	104.45
287.64	38.91
287.855	26.62
288.07	55.3
288.285	83.97
288.5	14.34
288.715	96.25
288.93	-10.24
289.145	34.82
289.36	88.06
289.575	63.49
289.79	81.92
290.004	79.87
290.219	79.87
290.434	55.3
290.649	30.72
290.864	22.53
291.079	75.77
291.294	10.24
291.509	-2.05
291.724	26.62
291.938	22.53
292.153	71.68
292.368	26.62
292.583	71.68
292.798	63.49
293.012	45.06
293.227	18.43
293.442	86.01
293.657	110.59
293.871	51.2
294.086	47.1
294.301	96.25
294.516	94.21
294.73	30.72
294.945	0
295.16	47.1
295.374	18.43
295.589	143.36
295.804	16.38
296.018	32.77
296.233	100.35
296.447	22.53
296.662	45.06
296.877	88.06
297.091	49.15
297.306	32.77
297.52	65.54
297.735	96.25
297.949	-26.62
298.164	79.87
298.378	14.34
298.593	16.38
298.807	75.77
299.022	61.44
299.236	133.12
299.451	30.72
299.665	98.3
299.88	71.68
300.094	59.39
300.309	79.87
300.523	69.63
300.737	71.68
300.952	135.17
301.166	126.97
301.381	-10.24
301.595	22.53
301.809	65.54
302.024	43.01
302.238	18.43
302.452	75.77
302.667	47.1
302.881	118.78
303.095	98.3
303.309	67.58
303.524	98.3
303.738	32.77
303.952	26.62
304.166	63.49
304.381	-8.19
304.595	104.45
304.809	63.49
305.023	79.87
305.237	32.77
305.452	38.91
305.666	-2.05
305.88	120.83
306.094	92.16
306.308	22.53
306.522	45.06
306.736	-2.05
306.95	139.26
307.164	32.77
307.379	32.77
307.593	98.3
307.807	112.64
308.021	43.01
308.235	75.77
308.449	40.96
308.663	43.01
308.877	55.3
309.091	8.19
309.305	131.07
309.519	-2.05
309.733	104.45
309.947	-34.82
310.161	32.77
310.374	55.3
310.588	157.69
310.802	104.45
311.016	43.01
311.23	22.53
311.444	53.25
311.658	120.83
311.872	14.34
312.085	59.39
312.299	106.49
312.513	112.64
312.727	51.2
312.941	43.01
313.154	4.1
313.368	26.62
313.582	51.2
313.796	43.01
314.009	10.24
314.223	16.38
314.437	86.01
314.651	81.92
314.864	14.34
315.078	40.96
315.292	16.38
315.505	30.72
315.719	98.3
315.933	38.91
316.146	30.72
316.36	55.3
316.573	63.49
316.787	79.87
317.001	96.25
317.214	-28.67
317.428	83.97
317.641	-10.24
317.855	51.2
318.068	-34.82
318.282	73.73
318.495	8.19
318.709	18.43
318.922	55.3
319.136	96.25
319.349	49.15
319.563	26.62
319.776	73.73
319.99	16.38
320.203	55.3
320.417	98.3
320.63	22.53
320.843	61.44
321.057	104.45
321.27	22.53
321.483	18.43
321.697	137.21
321.91	32.77
322.124	96.25
322.337	38.91
322.55	26.62
322.763	92.16
322.977	75.77
323.19	90.11
323.403	77.82
323.617	100.35
323.83	88.06
324.043	10.24
324.256	108.54
324.469	-12.29
324.683	18.43
324.896	141.31
325.109	38.91
325.322	-30.72
325.535	51.2
325.748	100.35
325.962	6.14
326.175	55.3
326.388	38.91
326.601	114.69
326.814	-10.24
327.027	112.64
327.24	88.06
327.453	6.14
327.666	124.93
327.879	116.73
328.092	118.78
328.305	81.92
328.518	104.45
328.731	34.82
328.944	106.49
329.157	90.11
329.37	22.53
329.583	86.01
329.796	108.54
330.009	-51.2
330.222	47.1
330.435	65.54
330.648	79.87
330.861	38.91
331.073	100.35
331.286	120.83
331.499	40.96
331.712	47.1
331.925	86.01
332.138	155.65
332.35	81.92
332.563	22.53
332.776	73.73
332.989	38.91
333.202	133.12
333.414	45.06
333.627	51.2
333.84	-18.43
334.053	59.39
334.265	-10.24
334.478	71.68
334.691	57.34
334.903	106.49
335.116	10.24
335.329	34.82
335.541	47.1
335.754	92.16
335.966	90.11
336.179	114.69
336.392	92.16
336.604	38.91
336.817	139.26
337.029	18.43
337.242	65.54
337.454	88.06
337.667	16.38
337.88	135.17
338.092	124.93
338.305	34.82
338.517	83.97
338.729	194.56
338.942	51.2
339.154	88.06
339.367	-2.05
339.579	114.69
339.792	-6.14
340.004	43.01
340.217	20.48
340.429	106.49
340.641	36.86
340.854	-24.58
341.066	145.41
341.278	122.88
341.491	102.4
341.703	-6.14
341.915	10.24
342.128	47.1
342.34	36.86
342.552	55.3
342.764	36.86
342.977	57.34
343.189	110.59
343.401	63.49
343.613	47.1
343.826	75.77
344.038	67.58
344.25	63.49
344.462	90.11
344.674	79.87
344.886	79.87
345.099	38.91
345.311	83.97
345.523	75.77
345.735	-6.14
345.947	73.73
346.159	57.34
346.371	133.12
346.583	83.97
346.795	96.25
347.007	63.49
347.219	57.34
347.431	106.49
347.643	86.01
347.855	24.58
348.067	24.58
348.279	81.92
348.491	55.3
348.703	83.97
348.915	77.82
349.127	67.58
349.339	112.64
349.551	67.58
349.763	124.93
349.975	32.77
350.187	71.68
350.399	137.21
350.61	65.54
350.822	47.1
351.034	71.68
351.246	108.54
351.458	96.25
351.669	122.88
351.881	114.69
352.093	67.58
352.305	79.87
352.517	63.49
352.728	153.6
352.94	88.06
353.152	120.83
353.363	102.4
353.575	32.77
353.787	120.83
353.999	24.58
354.21	104.45
354.422	81.92
354.633	49.15
354.845	79.87
355.057	57.34
355.268	73.73
355.48	47.1
355.692	8.19
355.903	92.16
356.115	71.68
356.326	-63.49
356.538	28.67
356.749	51.2
356.961	110.59
357.172	38.91
357.384	6.14
357.595	131.07
357.807	43.01
358.018	-28.67
358.23	16.38
358.441	169.98
358.653	129.02
358.864	36.86
359.075	49.15
359.287	12.29
359.498	75.77
359.709	73.73
359.921	-34.82
360.132	77.82
360.344	71.68
360.555	12.29
360.766	106.49
360.977	47.1
361.189	120.83
361.4	6.14
361.611	47.1
361.823	96.25
362.034	100.35
362.245	22.53
362.456	161.79
362.667	92.16
362.879	16.38
363.09	79.87
363.301	59.39
363.512	88.06
363.723	0
363.935	88.06
364.146	47.1
364.357	47.1
364.568	149.5
364.779	79.87
364.99	153.6
365.201	55.3
365.412	92.16
365.623	6.14
365.834	112.64
366.045	67.58
366.256	131.07
366.467	63.49
366.678	106.49
366.889	30.72
367.1	98.3
367.311	73.73
367.522	-14.34
367.733	73.73
367.944	106.49
368.155	92.16
368.366	45.06
368.577	77.82
368.788	124.93
368.999	20.48
369.209	26.62
369.42	137.21
369.631	112.64
369.842	86.01
370.053	32.77
370.264	86.01
370.474	26.62
370.685	98.3
370.896	30.72
371.107	55.3
371.317	139.26
371.528	40.96
371.739	77.82
371.95	26.62
372.16	90.11
372.371	14.34
372.582	30.72
372.792	77.82
373.003	106.49
373.214	18.43
373.424	22.53
373.635	94.21
373.846	88.06
374.056	55.3
374.267	69.63
374.477	104.45
374.688	47.1
374.898	40.96
375.109	40.96
375.319	-2.05
375.53	100.35
375.74	92.16
375.951	96.25
376.161	14.34
376.372	75.77
376.582	34.82
376.793	116.73
377.003	79.87
377.214	57.34
377.424	96.25
377.635	10.24
377.845	71.68
378.055	106.49
378.266	24.58
378.476	34.82
378.686	98.3
378.897	100.35
379.107	38.91
379.317	83.97
379.528	30.72
379.738	88.06
379.948	98.3
380.158	88.06
380.369	106.49
380.579	45.06
380.789	71.68
380.999	106.49
381.21	59.39
381.42	71.68
381.63	43.01
381.84	104.45
382.05	75.77
382.261	18.43
382.471	47.1
382.681	38.91
382.891	200.7
383.101	38.91
383.311	-6.14
383.521	40.96
383.731	96.25
383.941	90.11
384.151	112.64
384.361	81.92
384.571	18.43
384.781	155.65
384.991	92.16
385.201	98.3
385.411	165.89
385.621	55.3
385.831	53.25
386.041	135.17
386.251	83.97
386.461	55.3
386.671	67.58
386.881	34.82
387.091	59.39
387.301	133.12
387.511	106.49
387.72	88.06
387.93	67.58
388.14	-10.24
388.35	120.83
388.56	16.38
388.769	90.11
388.979	190.46
389.189	83.97
389.399	38.91
389.609	71.68
389.818	167.93
390.028	112.64
390.238	120.83
390.447	55.3
390.657	16.38
390.867	151.55
391.076	47.1
391.286	100.35
391.496	139.26
391.705	75.77
391.915	116.73
392.125	79.87
392.334	8.19
392.544	108.54
392.753	137.21
392.963	8.19
393.172	133.12
393.382	30.72
393.591	149.5
393.801	14.34
394.01	96.25
394.22	122.88
394.429	59.39
394.639	163.84
394.848	110.59
395.058	102.4
395.267	36.86
395.477	96.25
395.686	81.92
395.895	133.12
396.105	208.89
396.314	55.3
396.524	116.73
396.733	137.21
396.942	194.56
397.152	112.64
397.361	83.97
397.57	90.11
397.78	110.59
397.989	145.41
398.198	182.27
398.407	94.21
398.617	139.26
398.826	114.69
399.035	83.97
399.244	133.12
399.453	172.03
399.663	122.88
399.872	176.13
400.081	198.65
400.29	135.17
400.499	212.99
400.708	153.6
400.917	92.16
401.127	174.08
401.336	147.45
401.545	204.8
401.754	131.07
401.963	147.45
402.172	161.79
402.381	79.87
402.59	217.08
402.799	106.49
403.008	133.12
403.217	155.65
403.426	137.21
403.635	151.55
403.844	153.6
404.053	169.98
404.262	153.6
404.471	219.13
404.68	215.04
404.888	155.65
405.097	141.31
405.306	210.94
405.515	221.18
405.724	145.41
405.933	251.9
406.142	237.56
406.35	178.17
406.559	227.32
406.768	249.85
406.977	221.18
407.185	204.8
407.394	278.52
407.603	182.27
407.812	219.13
408.02	327.68
408.229	317.44
408.438	346.11
408.646	303.1
408.855	180.22
409.064	366.59
409.272	374.78
409.481	317.44
409.69	382.97
409.898	313.34
410.107	358.39
410.315	403.45
410.524	376.83
410.733	294.91
410.941	374.78
411.15	475.13
411.358	387.07
411.567	514.04
411.775	473.08
411.984	444.41
412.192	614.39
412.401	548.86
412.609	600.05
412.818	546.81
413.026	645.11
413.234	573.43
413.443	571.38
413.651	647.16
413.86	579.58
414.068	690.17
414.276	772.08
414.485	679.93
414.693	735.22
414.901	858.1
415.11	827.38
415.318	817.14
415.526	817.14
415.734	892.91
415.943	864.24
416.151	876.53
416.359	864.24
416.567	964.59
416.776	1021.94
416.984	1054.7
417.192	1163.25
417.4	1144.81
417.608	1021.94
417.817	1116.14
418.025	1316.84
418.233	1302.51
418.441	1277.93
418.649	1341.42
418.857	1462.25
419.065	1501.16
419.273	1382.38
419.481	1462.25
419.689	1546.22
419.897	1679.33
420.105	1687.53
420.313	1640.42
420.521	1695.72
420.729	1751.01
420.937	1955.81
421.145	1961.95
421.353	2066.4
421.561	2164.7
421.769	2146.27
421.977	2359.26
422.185	2291.68
422.393	2301.92
422.601	2580.44
422.809	2541.53
423.017	2588.63
423.224	2570.2
423.432	2688.98
423.64	2744.28
423.848	3090.38
424.056	3020.75
424.263	3250.13
424.471	3237.84
424.679	3317.71
424.887	3416.01
425.094	3612.62
425.302	3528.65
425.51	3637.19
425.718	3807.17
425.925	3792.84
426.133	3899.33
426.341	3995.59
426.548	4298.69
426.756	4423.61
426.964	4390.85
427.171	4700.09
427.379	4806.58
427.586	4962.23
427.794	5005.24
428.001	5142.45
428.209	5603.24
428.417	5371.82
428.624	5762.98
428.832	5550
429.039	5619.63
429.247	5578.67
429.454	6152.1
429.662	6492.06
429.869	6004.64
430.076	6571.93
430.284	6346.66
430.491	6739.87
430.699	7157.65
430.906	7026.58
431.114	7278.48
431.321	7514
431.528	7665.55
431.736	8077.19
431.943	8175.49
432.15	8142.72
432.358	8200.07
432.565	8683.39
432.772	8664.96
432.979	9043.83
433.187	9336.69
433.394	9365.36
433.601	9836.39
433.808	9897.83
434.016	9772.91
434.223	10168.16
434.43	10944.34
434.637	10723.16
434.844	11263.83
435.052	11405.14
435.259	11411.28
435.466	11587.41
435.673	11417.43
435.88	12158.79
436.087	12851
436.294	12621.63
436.501	12412.74
436.708	12728.13
436.915	13051.7
437.122	13535.03
437.329	13776.69
437.537	14055.21
437.743	14313.25
437.95	14118.7
438.157	14937.88
438.364	15509.27
438.571	15378.2
438.778	15208.22
438.985	16709.38
439.192	16291.59
439.399	16400.13
439.606	16322.31
439.813	17540.85
440.02	18380.52
440.227	17774.32
440.433	17997.55
440.64	18489.06
440.847	18153.19
441.054	18775.78
441.261	20033.23
441.467	19533.53
441.674	19920.59
441.881	20973.25
442.088	20850.37
442.294	20362.95
442.501	21157.57
442.708	21655.22
442.914	22189.74
443.121	23084.7
443.328	22654.63
443.534	24258.19
443.741	23445.15
443.948	22863.52
444.154	25157.25
444.361	24866.44
444.568	24755.85
444.774	25169.54
444.981	25208.45
445.187	26136.18
445.394	26910.31
445.6	26476.14
445.807	29179.46
446.013	27864.66
446.22	28692.04
446.426	29634.11
446.633	29642.3
446.839	30895.66
447.046	29472.32
447.252	31301.15
447.459	31176.23
447.665	30600.75
447.871	32517.65
448.078	33285.64
448.284	32067.09
448.491	32968.2
448.697	34174.45
448.903	34872.81
449.11	35040.75
449.316	34749.93
449.522	35087.85
449.728	35995.1
449.935	36541.91
450.141	36394.45
450.347	37084.62
450.553	35536.35
450.76	36419.03
450.966	37309.89
451.172	37211.59
451.378	37561.79
451.584	37168.58
451.791	38045.12
451.997	38174.14
452.203	38491.57
452.409	38497.72
452.615	38413.75
452.821	36931.02
453.027	36404.69
453.233	38227.38
453.44	37125.58
453.646	37305.8
453.852	37029.32
454.058	38163.9
454.264	36783.57
454.47	37158.34
454.676	36808.14
454.882	37653.95
455.088	34565.62
455.294	34885.1
455.5	35577.31
455.705	35673.57
455.911	34229.75
456.117	33500.67
456.323	33381.89
456.529	31616.54
456.735	32951.82
456.941	32333.33
457.147	31774.24
457.352	30522.93
457.558	30090.8
457.764	30465.58
457.97	29859.38
458.176	29277.76
458.381	29109.83
458.587	27659.87
458.793	27864.66
458.999	25955.96
459.204	28055.12
459.41	27141.73
459.616	25425.53
459.821	25542.27
460.027	25632.38
460.233	24946.31
460.438	23502.49
460.644	23721.62
460.85	22640.29
461.055	22316.72
461.261	22376.11
461.466	20547.27
461.672	19844.82
461.878	21280.44
462.083	19885.78
462.289	19478.23
462.494	19334.87
462.7	18333.42
462.905	17991.41
463.111	18644.71
463.316	18605.8
463.522	17954.54
463.727	18145
463.932	18378.47
464.138	17671.92
464.343	18063.08
464.549	17604.34
464.754	18134.76
464.959	18018.03
465.165	17848.05
465.37	16895.74
465.575	16549.64
465.781	17139.45
465.986	17200.89
466.191	16971.52
466.397	16445.19
466.602	15609.62
466.807	16094.99
467.012	15914.77
467.218	15902.48
467.423	15687.44
467.628	15877.9
467.833	16434.95
468.038	15771.41
468.244	15626
468.449	15968.01
468.654	15562.51
468.859	15300.37
469.064	15435.54
469.269	14804.77
469.474	14987.04
469.679	15138.58
469.885	14593.83
470.09	14827.29
470.295	14702.37
470.5	14481.19
470.705	14413.6
470.91	13893.42
471.115	13870.89
471.32	14335.78
471.525	14229.29
471.73	13717.29
471.935	13760.3
472.139	13107
472.344	13330.23
472.549	13023.03
472.754	12953.4
472.959	12879.68
473.164	12652.35
473.369	12425.03
473.574	12756.8
473.778	12515.14
473.983	12443.46
474.188	12367.68
474.393	12064.58
474.598	11921.23
474.802	11841.36
475.007	11607.89
475.212	11745.1
475.417	11351.89
475.621	11401.04
475.826	11429.71
476.031	11192.15
476.235	10979.16
476.44	11063.13
476.645	10897.24
476.849	10938.2
477.054	10549.09
477.259	10733.4
477.463	10518.37
477.668	10612.57
477.872	10588
478.077	10344.29
478.282	10106.73
478.486	9893.74
478.691	9813.87
478.895	9770.86
479.1	9768.81
479.304	9627.5
479.509	9723.76
479.713	9750.38
479.918	9447.28
480.122	9275.25
480.326	9508.72
480.531	9424.75
480.735	9267.06
480.94	9318.26
481.144	9787.24
481.348	9224.05
481.553	9205.62
481.757	8986.49
481.961	9484.14
482.166	9330.55
482.37	9133.94
482.574	9082.74
482.778	8968.06
482.983	9160.56
483.187	9211.76
483.391	9088.89
483.595	9140.08
483.8	8863.61
484.004	9025.4
484.208	8980.34
484.412	8949.62
484.616	9107.32
484.821	9228.15
485.025	8869.75
485.229	9111.41
485.433	8820.6
485.637	8910.71
485.841	8853.37
486.045	9148.28
486.249	8898.42
486.453	8812.41
486.657	8935.29
486.861	8877.94
487.065	8804.22
487.269	8918.9
487.473	8675.2
487.677	8879.99
487.881	9035.64
488.085	8775.55
488.289	8927.1
488.493	8830.84
488.697	8912.76
488.901	8804.22
489.105	9070.45
489.309	9027.45
489.512	8763.26
489.716	8867.7
489.92	9009.01
490.124	8812.41
490.328	9052.02
490.531	8830.84
490.735	8990.58
490.939	9172.85
491.143	9041.78
491.346	8963.96
491.55	9156.47
491.754	9121.65
491.958	9164.66
492.161	9275.25
492.365	9086.84
492.569	9135.99
492.772	9172.85
492.976	9191.28
493.18	9342.83
493.383	9357.17
493.587	9568.11
493.79	9549.68
493.994	9521.01
494.197	9336.69
494.401	9860.97
494.605	9523.05
494.808	9854.83
495.012	9764.72
495.215	9727.85
495.419	9955.18
495.622	9734
495.825	9893.74
496.029	9961.32
496.232	10151.78
496.436	10114.92
496.639	10196.84
496.843	10186.6
497.046	10268.52
497.249	10491.74
497.453	10477.41
497.656	10639.2
497.859	10811.23
498.063	10743.64
498.266	10837.85
498.469	10815.32
498.673	10960.73
498.876	11050.84
499.079	11308.88
499.282	11392.85
499.485	11515.73
499.689	11511.63
499.892	11886.41
500.095	11792.2
500.298	12037.96
500.501	12011.34
500.705	12035.91
500.908	12416.83
501.111	12394.31
501.314	12287.81
501.517	12789.56
501.72	12646.21
501.923	12658.49
502.126	12918.59
502.329	13344.56
502.532	13270.84
502.735	13483.83
502.938	13383.48
503.141	13639.47
503.344	13745.97
503.547	13762.35
503.75	13831.98
503.953	14135.08
504.156	14114.6
504.359	14446.37
504.562	14313.25
504.765	14757.66
504.968	14618.4
505.17	15079.19
505.373	14866.21
505.576	15359.77
505.779	15595.28
505.982	15648.53
506.185	15865.61
506.387	15802.13
506.59	16004.88
506.793	16021.26
506.996	16414.47
507.198	16889.6
507.401	16617.22
507.604	16885.5
507.807	16938.75
508.009	17334.01
508.212	17194.75
508.415	17573.62
508.617	17800.94
508.82	17714.93
509.022	17704.69
509.225	18204.39
509.428	18368.23
509.63	18321.13
509.833	18542.31
510.035	19089.12
510.238	18931.42
510.44	19123.93
510.643	19437.27
510.845	19435.22
511.048	19474.13
511.25	19713.75
511.453	19992.27
511.655	20219.6
511.858	20291.27
512.06	20645.57
512.262	20936.38
512.465	20676.29
512.667	20836.03
512.87	21364.41
513.072	20940.48
513.274	21774
513.477	21632.69
513.679	21948.08
513.881	22474.41
514.084	22730.41
514.286	22419.11
514.488	22501.03
514.69	23336.6
514.893	23015.07
515.095	23522.97
515.297	23711.38
515.499	23662.23
515.701	24061.58
515.904	24239.76
516.106	24481.42
516.308	24407.69
516.51	24831.62
516.712	24833.67
516.914	25194.11
517.116	25507.45
517.318	25564.79
517.52	25783.93
517.722	25740.92
517.925	25896.56
518.127	26519.15
518.329	26736.23
518.531	26619.5
518.733	27186.79
518.935	27184.74
519.136	27219.55
519.338	27293.28
519.54	27381.34
519.742	27684.44
519.944	27719.26
520.146	28118.61
520.348	28175.95
520.55	28733
520.752	28337.74
520.954	28835.4
521.155	28722.76
521.357	28929.61
521.559	29410.88
521.761	29843
521.963	29412.93
522.164	29779.51
522.366	29773.37
522.568	29857.34
522.77	29988.41
522.971	30512.69
523.173	30025.27
523.375	30256.69
523.576	30502.45
523.778	30369.33
523.98	30557.74
524.181	30457.39
524.383	30774.83
524.584	31061.54
524.786	30977.58
524.988	31145.51
525.189	31501.86
525.391	31354.4
525.592	31716.89
525.794	31630.88
525.995	31665.69
526.197	31489.57
526.398	31673.88
526.6	31677.98
526.801	32048.66
527.003	31749.66
527.204	31567.39
527.406	32173.59
527.607	31630.88
527.808	32052.76
528.01	31555.1
528.211	31862.3
528.412	32548.37
528.614	32114.2
528.815	32204.31
529.016	32445.97
529.218	31823.39
529.419	32040.47
529.62	31647.26
529.822	31731.23
530.023	31905.31
530.224	31774.24
530.425	31477.28
530.626	31542.81
530.828	31487.52
531.029	32075.29
531.23	31868.44
531.431	31915.55
531.632	32124.44
531.833	31815.19
532.035	31612.45
532.236	31444.51
532.437	32013.85
532.638	31802.91
532.839	31774.24
533.04	31888.92
533.241	30996.01
533.442	31936.02
533.643	31245.86
533.844	31434.27
534.045	31493.66
534.246	31170.08
534.447	31460.9
534.648	31372.83
534.849	31421.98
535.05	30998.06
535.251	31190.56
535.451	30889.51
535.652	31544.86
535.853	31059.49
536.054	31159.84
536.255	30819.88
536.456	31084.07
536.657	31598.11
536.857	30772.78
537.058	30230.07
537.259	30985.77
537.46	30946.86
537.66	30909.99
537.861	30987.82
538.062	30656.04
538.263	30574.13
538.463	30473.77
538.664	30656.04
538.865	30684.72
539.065	30680.62
539.266	30230.07
539.466	30627.37
539.667	30434.86
539.868	30395.95
540.068	30371.38
540.269	30350.9
540.469	30531.12
540.67	30219.83
540.87	30344.75
541.071	29945.4
541.271	30187.06
541.472	30215.73
541.672	29826.62
541.873	29587
542.073	29863.48
542.274	30238.26
542.474	30021.17
542.675	29754.94
542.875	30195.25
543.075	29972.02
543.276	29789.75
543.476	30142
543.676	29607.48
543.877	29943.35
544.077	30002.74
544.277	29703.74
544.478	30010.93
544.678	30082.61
544.878	30004.79
545.078	29838.9
545.279	29673.02
545.479	29773.37
545.679	29720.12
545.879	29902.39
546.079	29990.45
546.28	29451.84
546.48	29322.82
546.68	29754.94
546.88	30049.85
547.08	29941.3
547.28	29642.3
547.48	29197.89
547.68	29871.67
547.88	29394.5
548.081	29859.38
548.281	29713.98
548.481	29691.45
548.681	29859.38
548.881	29984.31
549.081	29627.96
549.28	29713.98
549.48	29742.65
549.68	29527.61
549.88	30142
550.08	29697.59
550.28	29978.17
550.48	29949.49
550.68	30445.1
550.88	29613.63
551.08	29967.93
551.279	30058.04
551.479	29994.55
551.679	30101.04
551.879	29666.88
552.079	29773.37
552.278	29625.92
552.478	30010.93
552.678	29996.6
552.878	30094.9
553.077	29711.93
553.277	29779.51
553.477	30277.17
553.676	29775.42
553.876	29779.51
554.076	29865.53
554.275	30037.56
554.475	29902.39
554.674	30094.9
554.874	29849.14
555.074	30191.16
555.273	30088.76
555.473	30432.82
555.672	29673.02
555.872	30205.49
556.071	30037.56
556.271	30281.27
556.47	30139.96
556.67	29945.4
556.869	30150.2
557.068	30242.35
557.268	29988.41
557.467	30264.88
557.667	30142
557.866	30205.49
558.065	30443.06
558.265	29996.6
558.464	30363.18
558.663	30404.14
558.863	30115.38
559.062	30821.93
559.261	29957.69
559.461	30279.22
559.66	30031.41
559.859	30344.75
560.058	30264.88
560.258	30375.47
560.457	30309.94
560.656	30281.27
560.855	30139.96
561.054	30268.98
561.253	30021.17
561.453	30035.51
561.652	30426.67
561.851	30543.41
562.05	29994.55
562.249	30131.76
562.448	30301.75
562.647	30182.96
562.846	30223.92
563.045	30680.62
563.244	29918.78
563.443	30522.93
563.642	30115.38
563.841	30182.96
564.04	29799.99
564.239	30557.74
564.438	29728.31
564.637	30264.88
564.836	30146.1
565.035	29914.68
565.234	30420.53
565.432	30115.38
565.631	30146.1
565.83	29824.57
566.029	29648.44
566.228	29726.27
566.427	29935.16
566.625	29500.99
566.824	29417.02
567.023	29578.81
567.222	29216.32
567.42	29648.44
567.619	29642.3
567.818	29402.69
568.016	29679.16
568.215	29498.94
568.414	29085.25
568.612	29699.64
568.811	28976.71
569.01	29265.47
569.208	28964.42
569.407	29183.55
569.605	28649.03
569.804	29134.4
570.002	28550.73
570.201	28986.95
570.4	28788.3
570.598	28745.29
570.797	28472.91
570.995	28751.43
571.193	28188.24
571.392	28290.64
571.59	28063.32
571.789	28407.37
571.987	28061.27
572.186	28239.44
572.384	28102.23
572.582	28143.19
572.781	27774.55
572.979	27782.74
573.177	27766.36
573.376	27829.85
573.574	27483.74
573.772	27731.54
573.971	27727.45
574.169	27608.67
574.367	26947.17
574.565	27711.07
574.763	27125.35
574.962	27307.62
575.16	26918.5
575.358	27283.04
575.556	27022.95
575.754	27256.42
575.952	26635.88
576.151	26865.25
576.349	26500.72
576.547	26601.07
576.745	26308.21
576.943	26441.32
577.141	26709.61
577.339	26685.03
577.537	26349.17
577.735	26236.53
577.933	25996.92
578.131	26130.03
578.329	25839.22
578.527	25931.38
578.725	25511.55
578.923	25880.18
579.121	25785.97
579.319	25484.92
579.516	25544.31
579.714	25806.45
579.912	25462.4
580.11	25224.83
580.308	24950.4
580.506	25149.06
580.704	24663.69
580.901	25255.55
581.099	25022.08
581.297	24950.4
581.495	24905.35
581.692	25153.15
581.89	24352.4
582.088	24962.69
582.285	24895.11
582.483	24837.76
582.681	24872.58
582.878	24434.32
583.076	24321.68
583.274	24542.86
583.471	23946.9
583.669	24172.18
583.866	23772.82
584.064	23842.45
584.262	23967.38
584.459	24219.28
584.657	23799.44
584.854	24163.98
585.052	23559.83
585.249	23869.08
585.447	23668.37
585.644	23727.77
585.841	23688.85
586.039	23582.36
586.236	23326.36
586.434	23611.03
586.631	23189.15
586.828	23572.12
587.026	23164.57
587.223	23189.15
587.42	23303.84
587.618	23307.93
587.815	22890.15
588.012	23039.65
588.21	23092.9
588.407	23299.74
588.604	22589.1
588.801	22515.37
588.999	22894.24
589.196	22521.51
589.393	22611.62
589.59	22529.7
589.787	22714.02
589.984	22263.47
590.182	22417.07
590.379	22548.14
590.576	22451.88
590.773	22191.79
590.97	22288.04
591.167	22597.29
591.364	21989.04
591.561	22329
591.758	22126.25
591.955	22183.6
592.152	22345.39
592.349	21745.33
592.546	22185.65
592.743	22066.86
592.94	21716.66
593.137	22054.58
593.334	22122.16
593.531	21706.42
593.727	21866.16
593.924	22077.1
594.121	21393.08
594.318	22046.38
594.515	21556.92
594.712	22025.9
594.908	21767.86
595.105	21853.87
595.302	21690.04
595.499	21509.82
595.696	21712.56
595.892	21333.69
596.089	21606.07
596.286	21935.79
596.482	21757.62
596.679	21434.04
596.876	21892.79
597.072	21481.14
597.269	21321.4
597.466	21210.81
597.662	21599.93
597.859	21677.75
598.055	21757.62
598.252	21393.08
598.448	21599.93
598.645	21765.81
598.841	21319.35
599.038	21597.88
599.234	21700.28
599.431	21743.28
599.627	21434.04
599.824	21888.69
600.02	21419.71
600.217	21585.59
600.413	21755.57
600.609	21513.91
600.806	21317.31
601.002	21700.28
601.198	21788.34
601.395	21802.68
601.591	21749.43
601.787	21628.6
601.984	21558.97
602.18	21837.49
602.376	21726.9
602.572	21776.05
602.769	21823.15
602.965	22023.86
603.161	21898.93
603.357	21653.17
603.553	21649.08
603.75	21991.09
603.946	22099.63
604.142	22154.93
604.338	21683.89
604.534	22163.12
604.73	22054.58
604.926	22058.67
605.122	22148.78
605.318	22177.45
605.514	21952.18
605.71	22136.49
605.906	22341.29
606.102	22369.96
606.298	22609.58
606.494	22083.25
606.69	22255.28
606.886	22535.85
607.082	22296.24
607.278	22716.07
607.474	22240.94
607.67	22812.32
607.866	22302.38
608.062	22546.09
608.257	22650.53
608.453	22881.95
608.649	22535.85
608.845	22722.21
609.041	22857.38
609.236	22976.16
609.432	22845.09
609.628	23269.02
609.824	23115.42
610.019	22904.48
610.215	23094.94
610.411	23299.74
610.606	23066.27
610.802	23604.89
610.998	23350.94
611.193	23281.31
611.389	23035.55
611.584	23514.78
611.78	23142.05
611.976	23447.19
612.171	23531.16
612.367	23518.87
612.562	23381.66
612.758	23240.35
612.953	23324.32
613.149	23490.2
613.344	23361.18
613.539	23850.64
613.735	23785.11
613.93	23584.41
614.126	23697.05
614.321	24139.41
614.517	23819.92
614.712	23750.29
614.907	23893.65
615.103	24153.74
615.298	23695
615.493	24139.41
615.688	23451.29
615.884	23979.67
616.079	23735.96
616.274	24030.87
616.47	23606.94
616.665	24041.11
616.86	23961.23
617.055	23608.98
617.25	23701.14
617.445	23785.11
617.641	23688.85
617.836	23963.28
618.031	23707.29
618.226	23709.33
618.421	23873.17
618.616	24059.54
618.811	23525.02
619.006	23783.06
619.201	23248.54
619.396	23445.15
619.591	23379.61
619.786	23598.74
619.981	22976.16
620.176	23389.85
620.371	22992.55
620.566	23076.51
620.761	23176.86
620.956	23178.91
621.151	22609.58
621.346	23096.99
621.541	22822.56
621.735	22845.09
621.93	22582.95
622.125	22820.52
622.32	22392.49
622.515	22714.02
622.709	22267.56
622.904	22292.14
623.099	22183.6
623.294	22218.41
623.488	22001.33
623.683	21929.65
623.878	21479.1
624.072	21706.42
624.267	21892.79
624.462	21839.54
624.656	21403.32
624.851	21358.27
625.046	21526.2
625.24	21499.58
625.435	21116.61
625.629	21034.69
625.824	21083.84
626.018	20899.52
626.213	20629.19
626.407	20745.92
626.602	20330.19
626.796	20711.11
626.991	20563.65
627.185	20367.05
627.38	20444.87
627.574	20133.58
627.768	19961.55
627.963	19904.21
628.157	19676.88
628.352	19902.16
628.546	19486.42
628.74	19658.45
628.935	19349.21
629.129	19662.55
629.323	19054.3
629.517	19293.91
629.712	18921.18
629.906	18962.14
630.1	18722.53
630.294	19181.28
630.489	18763.49
630.683	18847.46
630.877	18523.88
631.071	18433.77
631.265	18552.55
631.459	18433.77
631.653	18200.3
631.848	18220.78
632.042	18038.51
632.236	17995.5
632.43	17700.59
632.624	17741.55
632.818	17936.11
633.012	17489.65
633.206	17610.48
633.4	17694.45
633.594	17264.38
633.788	17387.25
633.982	17356.54
634.176	17420.02
634.369	17041.15
634.563	16973.56
634.757	16809.73
634.951	16973.56
635.145	16811.78
635.339	16774.91
635.533	16547.59
635.726	16727.81
635.92	16455.43
636.114	16551.68
636.308	16160.52
636.501	16191.24
636.695	16119.56
636.889	15673.1
637.083	15945.48
637.276	15791.89
637.47	15828.75
637.664	15671.06
637.857	15857.42
638.051	15666.96
638.244	15341.33
638.438	15224.6
638.632	15306.52
638.825	14896.92
639.019	14892.83
639.212	14763.81
639.406	14841.63
639.599	14630.69
639.793	14780.19
639.986	14487.33
640.18	14489.38
640.373	14628.64
640.567	14401.32
640.76	14477.09
640.954	13989.67
641.147	13920.04
641.34	14006.06
641.534	14047.02
641.727	13911.85
641.92	13764.4
642.114	13756.21
642.307	13709.1
642.5	13563.7
642.694	13221.69
642.887	13180.73
643.08	13369.14
643.273	13113.14
643.467	12992.31
643.66	12908.35
643.853	12939.07
644.046	12674.88
644.239	12945.21
644.432	12560.19
644.626	12689.21
644.819	12521.28
645.012	12599.1
645.205	12375.88
645.398	12580.67
645.591	12244.81
645.784	12228.42
645.977	11962.19
646.17	11947.85
646.363	12089.16
646.556	12048.2
646.749	11827.02
646.942	11857.74
647.135	11409.23
647.328	11642.7
647.521	11525.97
647.714	11222.87
647.907	11528.02
648.099	11143
648.292	11241.3
648.485	11190.1
648.678	10819.42
648.871	11040.6
649.064	10948.44
649.256	11255.64
649.449	10792.8
649.642	10694.49
649.835	10622.81
650.027	10762.08
650.22	10704.73
650.413	10696.54
650.605	10643.29
650.798	10514.27
650.991	10440.54
651.183	10360.67
651.376	10149.73
651.568	10155.88
651.761	10223.46
651.954	10086.25
652.146	9844.59
652.339	9979.75
652.531	10039.14
652.724	9822.06
652.916	9797.48
653.109	9918.31
653.301	9760.62
653.494	9711.47
653.686	9791.34
653.879	9725.8
654.071	9547.63
654.263	9525.1
654.456	9394.03
654.648	9490.29
654.84	9406.32
655.033	9226.1
655.225	9060.21
655.417	9101.17
655.61	9283.44
655.802	9052.02
655.994	9041.78
656.186	9125.75
656.379	9092.98
656.571	8884.09
656.763	8863.61
656.955	8806.27
657.148	8730.49
657.34	8615.8
657.532	8484.73
657.724	8533.89
657.916	8646.52
658.108	8476.54
658.3	8451.97
658.492	8275.84
658.684	8167.3
658.876	8406.91
659.068	8271.75
659.26	8122.24
659.452	8114.05
659.644	8320.9
659.836	8017.8
660.028	8005.51
660.22	8095.62
660.412	7976.84
660.604	7939.97
660.796	7968.65
660.988	7796.62
661.18	7837.58
661.372	7575.44
661.563	7815.05
661.755	7501.71
661.947	7714.7
662.139	7440.27
662.331	7520.14
662.522	7286.67
662.714	7468.94
662.906	7395.22
663.097	7370.64
663.289	7305.1
663.481	7167.89
663.673	7065.49
663.864	7102.36
664.056	7104.4
664.247	7049.11
664.439	7069.59
664.631	7083.92
664.822	7157.65
665.014	6913.94
665.205	6850.46
665.397	6883.22
665.588	6786.97
665.78	6797.21
665.971	6643.61
666.163	6717.34
666.354	6690.71
666.546	6733.72
666.737	6643.61
666.929	6649.75
667.12	6553.5
667.311	6727.58
667.503	6281.12
667.694	6369.18
667.885	6408.09
668.077	6348.7
668.268	6262.69
668.459	6309.79
668.651	6287.26
668.842	6127.52
669.033	6166.43
669.224	6305.7
669.416	6279.07
669.607	6119.33
669.798	6207.39
669.989	6086.56
670.18	6113.19
670.371	5971.88
670.563	5988.26
670.754	6061.99
670.945	5912.49
671.136	6082.47
671.327	6006.69
671.518	5816.23
671.709	5918.63
671.9	5965.73
672.091	5838.76
672.282	5853.09
672.473	5746.6
672.664	5869.48
672.855	5722.02
673.046	5912.49
673.237	5777.32
673.428	5689.26
673.619	5676.97
673.809	5431.21
674	5601.19
674.191	5521.32
674.382	5435.31
674.573	5509.04
674.764	5337.01
674.954	5554.09
675.145	5474.22
675.336	5437.36
675.527	5474.22
675.717	5513.13
675.908	5408.69
676.099	5447.6
676.289	5486.51
676.48	5367.73
676.671	5371.82
676.861	5373.87
677.052	5453.74
677.243	5240.75
677.433	5238.7
677.624	5308.34
677.814	5359.53
678.005	5384.11
678.195	5312.43
678.386	5150.64
678.576	5234.61
678.767	5371.82
678.957	5058.48
679.148	5214.13
679.338	5220.27
679.529	5308.34
679.719	5203.89
679.909	5074.87
680.1	5068.72
680.29	5218.22
680.481	5019.57
680.671	5150.64
680.861	5167.03
681.052	5207.98
681.242	5183.41
681.432	5093.3
681.622	5119.92
681.813	5173.17
682.003	5140.4
682.193	5121.97
682.383	5326.77
682.573	5027.76
682.764	5109.68
682.954	4986.8
683.144	5207.98
683.334	5040.05
683.524	5138.35
683.714	4960.18
683.904	5056.43
684.094	5081.01
684.284	4968.37
684.474	5193.65
684.664	4863.93
684.854	4970.42
685.044	5027.76
685.234	5054.39
685.424	5093.3
685.614	4970.42
685.804	4917.17
685.994	4927.41
686.184	5031.86
686.374	4962.23
686.564	4804.53
686.753	4937.65
686.943	5003.19
687.133	4882.36
687.323	4794.29
687.513	4929.46
687.702	4847.54
687.892	4757.43
688.082	4704.18
688.272	5058.48
688.461	4802.49
688.651	5040.05
688.841	4857.78
689.03	4831.16
689.22	4650.94
689.41	4865.97
689.599	4585.4
689.789	4679.61
689.979	4753.34
690.168	4825.01
690.358	4777.91
690.547	4741.05
690.737	4650.94
690.926	4687.8
691.116	4669.37
691.305	4808.63
691.495	4663.22
691.684	4720.57
691.874	4708.28
692.063	4544.44
692.252	4691.9
692.442	4618.17
692.631	4628.41
692.82	4530.11
693.01	4646.84
693.199	4485.05
693.388	4532.15
693.578	4495.29
693.767	4542.39
693.956	4476.86
694.146	4476.86
694.335	4454.33
694.524	4372.41
694.713	4548.54
694.902	4425.66
695.092	4560.83
695.281	4356.03
695.47	4319.17
695.659	4327.36
695.848	4347.84
696.037	4452.28
696.226	4335.55
696.415	4448.19
696.604	4405.18
696.793	4300.73
696.982	4423.61
697.171	4319.17
697.36	4382.65
697.549	4110.27
697.738	4143.04
697.927	4235.2
698.116	4216.77
698.305	4227.01
698.494	4159.42
698.683	4114.37
698.872	4243.39
699.061	4186.05
699.25	4118.47
699.438	4192.19
699.627	4249.54
699.816	4192.19
700.005	4143.04
700.193	4167.62
700.382	4208.58
700.571	4147.14
700.76	4149.18
700.948	4007.87
701.137	4081.6
701.326	4083.65
701.514	3958.72
701.703	4048.83
701.892	3960.77
702.08	4085.7
702.269	4083.65
702.457	3880.9
702.646	3989.44
702.834	4095.94
703.023	3934.15
703.212	3987.4
703.4	3823.56
703.589	3880.9
703.777	3928
703.965	3874.76
704.154	3827.65
704.342	3913.67
704.531	3934.15
704.719	3923.91
704.907	3872.71
705.096	3774.41
705.284	3856.33
705.472	3708.87
705.661	3897.28
705.849	3725.26
706.037	3923.91
706.226	3764.17
706.414	3801.03
706.602	3665.86
706.79	3788.74
706.979	3809.22
707.167	3780.55
707.355	3674.06
707.543	3655.62
707.731	3706.82
707.919	3774.41
708.107	3571.66
708.296	3536.84
708.484	3473.36
708.672	3547.08
708.86	3643.34
709.048	3768.26
709.236	3684.3
709.424	3561.42
709.612	3524.55
709.8	3479.5
709.988	3520.46
710.176	3536.84
710.364	3454.92
710.551	3502.03
710.739	3471.31
710.927	3448.78
711.115	3506.12
711.303	3491.79
711.491	3307.47
711.679	3381.2
711.866	3377.1
712.054	3497.93
712.242	3332.05
712.43	3420.11
712.617	3389.39
712.805	3299.28
712.993	3430.35
713.181	3254.22
713.368	3266.51
713.556	3291.09
713.744	3274.7
713.931	3248.08
714.119	3278.8
714.306	3192.78
714.494	3168.21
714.682	3233.74
714.869	3200.98
715.057	3186.64
715.244	3319.76
715.432	3225.55
715.619	3127.25
715.807	3186.64
715.994	3205.07
716.182	3037.14
716.369	3037.14
716.556	3176.4
716.744	3014.61
716.931	3037.14
717.119	3086.29
717.306	3131.34
717.493	3057.62
717.681	3071.95
717.868	3129.3
718.055	2957.27
718.242	3071.95
718.43	2957.27
718.617	3055.57
718.804	2914.26
718.991	2895.83
719.179	3045.33
719.366	2858.96
719.553	2965.46
719.74	2936.79
719.927	3012.56
720.114	2928.6
720.301	2893.78
720.488	2848.72
720.676	2848.72
720.863	2920.4
721.05	2914.26
721.237	2805.72
721.424	2846.68
721.611	2791.38
721.798	2703.32
721.985	2703.32
722.172	2791.38
722.358	2850.77
722.545	2787.29
722.732	2703.32
722.919	2750.42
723.106	2703.32
723.293	2709.46
723.48	2703.32
723.667	2570.2
723.853	2756.57
724.04	2781.14
724.227	2650.07
724.414	2762.71
724.6	2594.78
724.787	2594.78
724.974	2688.98
725.161	2594.78
725.347	2475.99
725.534	2664.41
725.72	2529.24
725.907	2574.3
726.094	2572.25
726.28	2537.43
726.467	2547.67
726.653	2613.21
726.84	2586.58
727.027	2631.64
727.213	2590.68
727.4	2475.99
727.586	2555.87
727.773	2414.56
727.959	2545.63
728.145	2531.29
728.332	2533.34
728.518	2426.84
728.705	2553.82
728.891	2430.94
729.077	2486.23
729.264	2387.93
729.45	2381.79
729.636	2351.07
729.823	2400.22
730.009	2455.51
730.195	2402.27
730.382	2482.14
730.568	2330.59
730.754	2443.23
730.94	2336.73
731.126	2447.32
731.313	2414.56
731.499	2398.17
731.685	2226.14
731.871	2365.4
732.057	2377.69
732.243	2400.22
732.429	2291.68
732.615	2459.61
732.801	2408.41
732.987	2379.74
733.173	2242.53
733.359	2316.25
733.545	2209.76
733.731	2228.19
733.917	2152.42
734.103	2260.96
734.289	2201.57
734.475	2267.1
734.661	2324.44
734.847	2306.01
735.033	2086.88
735.219	2220
735.404	2156.51
735.59	2250.72
735.776	2201.57
735.962	2213.85
736.148	2250.72
736.333	2291.68
736.519	2111.46
736.705	2054.11
736.89	2133.98
737.076	2107.36
737.262	2115.55
737.447	2185.18
737.633	2037.73
737.819	2064.35
738.004	2136.03
738.19	2066.4
738.375	2138.08
738.561	2146.27
738.747	2099.17
738.932	1972.19
739.118	2111.46
739.303	1998.82
739.489	2095.07
739.674	1945.57
739.859	1955.81
740.045	2004.96
740.23	1998.82
740.416	1910.75
740.601	1894.37
740.786	1974.24
740.972	1908.71
741.157	1877.99
741.342	2023.39
741.528	1943.52
741.713	1957.86
741.898	1769.45
742.084	1972.19
742.269	1988.58
742.454	1976.29
742.639	1955.81
742.824	1794.02
743.01	1947.62
743.195	2072.54
743.38	1812.45
743.565	1716.2
743.75	1773.54
743.935	1849.32
744.12	1867.75
744.305	1775.59
744.49	1877.99
744.675	1841.12
744.86	1808.36
745.045	1800.16
745.23	1734.63
745.415	1771.49
745.6	1794.02
745.785	1703.91
745.97	1794.02
746.155	1648.61
746.34	1890.28
746.525	1624.04
746.71	1761.25
746.895	1605.61
747.079	1593.32
747.264	1679.33
747.449	1701.86
747.634	1611.75
747.819	1716.2
748.003	1617.9
748.188	1628.14
748.373	1587.18
748.557	1515.5
748.742	1611.75
748.927	1531.88
749.111	1505.26
749.296	1560.55
749.481	1415.15
749.665	1566.7
749.85	1488.87
750.034	1581.03
750.219	1546.22
750.404	1406.95
750.588	1415.15
750.773	1505.26
750.957	1443.82
751.141	1447.91
751.326	1499.11
751.51	1333.23
751.695	1413.1
751.879	1384.43
752.064	1400.81
752.248	1306.6
752.432	1366
752.617	1361.9
752.801	1341.42
752.985	1386.47
753.17	1325.04
753.354	1423.34
753.538	1284.08
753.722	1267.69
753.907	1310.7
754.091	1263.6
754.275	1345.52
754.459	1230.83
754.643	1218.54
754.828	1275.88
755.012	1296.36
755.196	1290.22
755.38	1214.45
755.564	1245.17
755.748	1202.16
755.932	1267.69
756.116	1163.25
756.3	1155.05
756.484	1122.29
756.668	1181.68
756.852	1136.62
757.036	1103.86
757.22	1193.97
757.404	1071.09
757.588	1034.22
757.772	1202.16
757.956	1079.28
758.14	1148.91
758.323	1026.03
758.507	1132.53
758.691	1101.81
758.875	1038.32
759.059	1087.47
759.242	1064.94
759.426	1032.18
759.61	964.59
759.794	1075.18
759.977	985.07
760.161	1122.29
760.345	1058.8
760.528	1075.18
760.712	944.11
760.895	1069.04
761.079	980.98
761.263	956.4
761.446	915.44
761.63	1101.81
761.813	892.91
761.997	966.64
762.18	983.03
762.364	919.54
762.547	882.67
762.731	911.35
762.914	892.91
763.098	860.15
763.281	888.82
763.464	894.96
763.648	862.19
763.831	901.11
764.015	837.62
764.198	985.07
764.381	960.5
764.564	970.74
764.748	1015.79
764.931	925.68
765.114	907.25
765.297	927.73
765.481	843.76
765.664	876.53
765.847	888.82
766.03	792.56
766.213	866.29
766.397	915.44
766.58	831.48
766.763	851.96
766.946	884.72
767.129	851.96
767.312	751.6
767.495	841.72
767.678	780.28
767.861	884.72
768.044	823.28
768.227	772.08
768.41	827.38
768.593	837.62
768.776	808.95
768.959	808.95
769.142	884.72
769.324	784.37
769.507	815.09
769.69	806.9
769.873	776.18
770.056	841.72
770.239	800.76
770.421	778.23
770.604	751.6
770.787	739.32
770.97	802.8
771.152	800.76
771.335	778.23
771.518	677.88
771.7	858.1
771.883	845.81
772.066	694.26
772.248	833.52
772.431	800.76
772.613	718.84
772.796	686.07
772.978	737.27
773.161	665.59
773.343	698.36
773.526	598.01
773.708	659.45
773.891	696.31
774.073	704.5
774.256	610.29
774.438	720.89
774.621	733.17
774.803	751.6
774.985	661.49
775.168	694.26
775.35	712.69
775.532	770.04
775.715	716.79
775.897	645.11
776.079	647.16
776.261	655.35
776.444	608.25
776.626	700.41
776.808	653.3
776.99	589.82
777.173	679.93
777.355	505.85
777.537	663.54
777.719	620.53
777.901	505.85
778.083	587.77
778.265	530.42
778.447	651.25
778.629	606.2
778.811	585.72
778.993	614.39
779.175	665.59
779.357	589.82
779.539	493.56
779.721	647.16
779.903	534.52
780.085	563.19
780.267	622.58
780.449	526.33
780.631	616.44
780.812	532.47
780.994	489.46
781.176	485.37
781.358	464.89
781.54	557.05
781.721	577.53
781.903	516.09
782.085	505.85
782.267	559.1
782.448	468.98
782.63	507.9
782.812	565.24
782.993	462.84
783.175	522.23
783.357	503.8
783.538	604.15
783.72	436.22
783.901	448.51
784.083	481.27
784.264	501.75
784.446	391.16
784.627	448.51
784.809	442.36
784.99	423.93
785.172	448.51
785.353	473.08
785.535	428.03
785.716	428.03
785.897	479.22
786.079	442.36
786.26	313.34
786.441	483.32
786.623	374.78
786.804	419.83
786.985	428.03
787.167	440.31
787.348	483.32
787.529	342.01
787.71	528.38
787.891	419.83
788.073	352.25
788.254	411.64
788.435	411.64
788.616	428.03
788.797	417.79
788.978	391.16
789.159	344.06
789.34	337.91
789.522	346.11
789.703	323.58
789.884	395.26
790.065	391.16
790.246	337.91
790.427	378.87
790.607	440.31
790.788	374.78
790.969	292.86
791.15	385.02
791.331	303.1
791.512	372.73
791.693	329.72
791.874	299
792.054	352.25
792.235	348.15
792.416	264.19
792.597	333.82
792.778	440.31
792.958	335.87
793.139	219.13
793.32	319.48
793.5	307.2
793.681	366.59
793.862	303.1
794.042	354.3
794.223	284.67
794.404	339.96
794.584	329.72
794.765	219.13
794.945	309.24
795.126	272.38
795.306	311.29
795.487	317.44
795.667	311.29
795.848	296.96
796.028	329.72
796.209	333.82
796.389	385.02
796.57	245.76
796.75	288.76
796.93	280.57
797.111	139.26
797.291	206.84
797.471	227.32
797.652	264.19
797.832	276.48
798.012	311.29
798.192	194.56
798.373	251.9
798.553	245.76
798.733	262.14
798.913	219.13
799.093	198.65
799.274	284.67
799.454	268.28
799.634	270.33
799.814	251.9
799.994	262.14
800.174	251.9
800.354	249.85
800.534	176.13
800.714	292.86
800.894	217.08
801.074	198.65
801.254	194.56
801.434	258.04
801.614	309.24
801.794	206.84
801.974	899.06
802.154	186.37
802.334	305.15
802.514	131.07
802.693	219.13
802.873	268.28
803.053	280.57
803.233	169.98
803.413	260.09
803.592	243.71
803.772	169.98
803.952	153.6
804.131	186.37
804.311	208.89
804.491	200.7
804.67	235.52
804.85	174.08
805.03	286.72
805.209	223.23
805.389	161.79
805.568	262.14
805.748	133.12
805.928	223.23
806.107	133.12
806.287	188.41
806.466	204.8
806.646	231.42
806.825	178.17
807.004	147.45
807.184	182.27
807.363	180.22
807.543	178.17
807.722	165.89
807.901	210.94
808.081	198.65
808.26	153.6
808.439	135.17
808.619	235.52
808.798	219.13
808.977	188.41
809.156	182.27
809.336	178.17
809.515	212.99
809.694	133.12
809.873	147.45
810.052	182.27
810.231	184.32
810.411	145.41
810.59	251.9
810.769	169.98
810.948	174.08
811.127	79.87
811.306	243.71
811.485	260.09
811.664	243.71
811.843	270.33
812.022	180.22
812.201	157.69
812.38	155.65
812.559	98.3
812.737	161.79
812.916	63.49
813.095	147.45
813.274	167.93
813.453	172.03
813.632	149.5
813.811	249.85
813.989	88.06
814.168	239.61
814.347	92.16
814.526	155.65
814.704	112.64
814.883	212.99
815.062	61.44
815.24	155.65
815.419	137.21
815.598	124.93
815.776	153.6
815.955	172.03
816.133	26.62
816.312	112.64
816.49	133.12
816.669	133.12
816.847	219.13
817.026	239.61
817.204	81.92
817.383	92.16
817.561	108.54
817.74	137.21
817.918	118.78
818.097	137.21
818.275	96.25
818.453	114.69
818.632	126.97
818.81	83.97
818.988	112.64
819.167	79.87
819.345	153.6
819.523	51.2
819.701	122.88
819.879	81.92
820.058	129.02
820.236	122.88
820.414	112.64
820.592	67.58
820.77	165.89
820.948	141.31
821.127	71.68
821.305	180.22
821.483	161.79
821.661	129.02
821.839	88.06
822.017	112.64
822.195	106.49
822.373	163.84
822.551	145.41
822.729	110.59
822.907	114.69
823.085	169.98
823.262	157.69
823.44	116.73
823.618	112.64
823.796	137.21
823.974	59.39
824.152	63.49
824.329	137.21
824.507	172.03
824.685	137.21
824.863	153.6
825.04	163.84
825.218	196.61
825.396	34.82
825.574	88.06
825.751	172.03
825.929	161.79
826.107	110.59
826.284	100.35
826.462	57.34
826.639	106.49
826.817	49.15
826.994	176.13
827.172	79.87
827.349	155.65
827.527	26.62
827.704	83.97
827.882	55.3
828.059	110.59
828.237	104.45
828.414	169.98
828.591	75.77
828.769	120.83
828.946	47.1
829.124	71.68
829.301	169.98
829.478	63.49
829.655	36.86
829.833	98.3
830.01	47.1
830.187	129.02
830.364	106.49
830.542	110.59
830.719	124.93
830.896	221.18
831.073	137.21
831.25	202.75
831.427	96.25
831.604	90.11
831.782	106.49
831.959	137.21
832.136	79.87
832.313	133.12
832.49	34.82
832.667	88.06
832.844	69.63
833.021	169.98
833.198	135.17
833.374	55.3
833.551	40.96
833.728	79.87
833.905	96.25
834.082	131.07
834.259	110.59
834.436	139.26
834.612	57.34
834.789	96.25
834.966	67.58
835.143	137.21
835.319	10.24
835.496	71.68
835.673	180.22
835.85	122.88
836.026	63.49
836.203	116.73
836.38	63.49
836.556	79.87
836.733	14.34
836.909	172.03
837.086	43.01
837.262	98.3
837.439	67.58
837.616	210.94
837.792	30.72
837.968	186.37
838.145	38.91
838.321	104.45
838.498	49.15
838.674	116.73
838.851	79.87
839.027	55.3
839.203	110.59
839.38	73.73
839.556	55.3
839.732	137.21
839.909	38.91
840.085	122.88
840.261	36.86
840.437	43.01
840.614	40.96
840.79	145.41
840.966	98.3
841.142	90.11
841.318	73.73
841.494	120.83
841.671	55.3
841.847	49.15
842.023	59.39
842.199	114.69
842.375	49.15
842.551	88.06
842.727	-8.19
842.903	49.15
843.079	10.24
843.255	92.16
843.431	98.3
843.607	106.49
843.783	47.1
843.959	133.12
844.134	137.21
844.31	67.58
844.486	2.05
844.662	6.14
844.838	30.72
845.013	100.35
845.189	59.39
845.365	30.72
845.541	96.25
845.716	90.11
845.892	77.82
846.068	53.25
846.244	141.31
846.419	88.06
846.595	26.62
846.77	63.49
846.946	30.72
847.122	81.92
847.297	79.87
847.473	106.49
847.648	14.34
847.824	24.58
847.999	34.82
848.175	-38.91
848.35	63.49
848.526	88.06
848.701	73.73
848.876	59.39
849.052	43.01
849.227	81.92
849.403	61.44
849.578	79.87
849.753	-2.05
849.929	63.49
850.104	-30.72
850.279	73.73
850.454	43.01
850.63	38.91
850.805	4.1
850.98	71.68
851.155	12.29
851.33	30.72
851.505	6.14
851.681	63.49
851.856	36.86
852.031	79.87
852.206	22.53
852.381	-22.53
852.556	22.53
852.731	38.91
852.906	28.67
853.081	49.15
853.256	83.97
853.431	63.49
853.606	83.97
853.781	32.77
853.956	0
854.131	-16.38
854.305	-2.05
854.48	43.01
854.655	24.58
854.83	-4.1
855.005	90.11
855.18	61.44
855.354	79.87
855.529	49.15
855.704	-38.91
855.879	63.49
856.053	-18.43
856.228	63.49
856.403	18.43
856.577	47.1
856.752	57.34
856.926	-10.24
857.101	61.44
857.276	4.1
857.45	106.49
857.625	88.06
857.799	63.49
857.974	43.01
858.148	100.35
858.323	106.49
858.497	59.39
858.672	26.62
858.846	55.3
859.02	131.07
859.195	-65.53
859.369	63.49
859.543	45.06
859.718	71.68
859.892	18.43
860.066	131.07
860.241	32.77
860.415	6.14
860.589	69.63
860.763	75.77
860.938	47.1
861.112	49.15
861.286	18.43
861.46	10.24
861.634	34.82
861.808	47.1
861.982	47.1
862.157	14.34
862.331	34.82
862.505	24.58
862.679	14.34
862.853	67.58
863.027	8.19
863.201	161.79
863.375	43.01
863.549	47.1
863.722	57.34
863.896	92.16
864.07	40.96
864.244	30.72
864.418	73.73
864.592	40.96
864.766	45.06
864.939	67.58
865.113	108.54
865.287	120.83
865.461	-32.77
865.634	30.72
865.808	61.44
865.982	22.53
866.156	-30.72
866.329	28.67
866.503	71.68
866.676	53.25
866.85	120.83
867.024	75.77
867.197	36.86
867.371	53.25
867.544	-36.86
867.718	47.1
867.891	73.73
868.065	79.87
868.238	-51.2
868.412	98.3
868.585	-28.67
868.759	24.58
868.932	30.72
869.105	22.53
869.279	34.82
869.452	10.24
869.625	59.39
869.799	30.72
869.972	51.2
870.145	47.1
870.319	55.3
870.492	-26.62
870.665	-22.53
870.838	38.91
871.011	-45.06
871.185	83.97
871.358	-51.2
871.531	22.53
871.704	-43.01
871.877	26.62
872.05	88.06
872.223	8.19
872.396	6.14
872.569	-14.34
872.742	83.97
872.915	38.91
873.088	2.05
873.261	34.82
873.434	102.4
873.607	38.91
873.78	71.68
873.953	18.43
874.126	40.96
874.299	55.3
874.471	-22.53
874.644	110.59
874.817	18.43
874.99	133.12
875.163	18.43
875.335	14.34
875.508	59.39
875.681	53.25
875.853	14.34
876.026	0
876.199	-30.72
876.371	26.62
876.544	14.34
876.717	55.3
876.889	-16.38
877.062	-10.24
877.234	53.25
877.407	53.25
877.579	40.96
877.752	92.16
877.924	51.2
878.097	49.15
878.269	65.54
878.442	43.01
878.614	-18.43
878.786	83.97
878.959	22.53
879.131	0
879.303	6.14
879.476	16.38
879.648	47.1
879.82	30.72
879.993	24.58
880.165	40.96
880.337	-36.86
880.509	-24.58
880.681	-49.15
880.854	2.05
881.026	49.15
881.198	126.97
881.37	49.15
881.542	-14.34
881.714	-6.14
881.886	88.06
882.058	61.44
882.23	73.73
882.402	-18.43
882.574	6.14
882.746	20.48
882.918	77.82
883.09	22.53
883.262	24.58
883.434	71.68
883.606	-38.91
883.778	24.58
883.95	73.73
884.122	75.77
884.293	112.64
884.465	147.45
884.637	81.92
884.809	16.38
884.98	2.05
885.152	-38.91
885.324	45.06
885.496	16.38
885.667	100.35
885.839	14.34
886.011	49.15
886.182	-18.43
886.354	112.64
886.525	61.44
886.697	32.77
886.869	47.1
887.04	38.91
887.212	30.72
887.383	30.72
887.555	73.73
887.726	40.96
887.897	6.14
888.069	63.49
888.24	88.06
888.412	14.34
888.583	10.24
888.754	38.91
888.926	30.72
889.097	-4.1
889.268	-24.58
889.44	16.38
889.611	-53.25
889.782	-2.05
889.953	-24.58
890.125	-10.24
890.296	24.58
890.467	-12.29
890.638	-4.1
890.809	65.54
890.98	71.68
891.151	96.25
891.323	34.82
891.494	55.3
891.665	22.53
891.836	90.11
892.007	2.05
892.178	-14.34
892.349	38.91
892.52	22.53
892.691	65.54
892.862	63.49
893.032	-75.77
893.203	43.01
893.374	59.39
893.545	73.73
893.716	26.62
893.887	14.34
894.057	-77.82
894.228	63.49
894.399	-24.58
894.57	30.72
894.74	-2.05
894.911	24.58
895.082	71.68
895.253	-6.14
895.423	71.68
895.594	34.82
895.764	30.72
895.935	-2.05
896.106	4.1
896.276	-16.38
896.447	36.86
896.617	30.72
896.788	-32.77
896.958	30.72
897.129	12.29
897.299	0
897.47	34.82
897.64	6.14
897.81	16.38
897.981	55.3
898.151	6.14
898.322	32.77
898.492	-4.1
898.662	32.77
898.832	26.62
899.003	14.34
899.173	98.3
899.343	30.72
899.513	-10.24
