Data from USB4F104151__273__14-34-39-503.txt Node

Date: Thu Mar 13 14:34:39 EDT 2025
User: louis
Spectrometer: USB4F10415
Trigger mode: 4
Integration Time (sec): 2.500000E-2
Scans to average: 1
Electric dark correction enabled: true
Nonlinearity correction enabled: false
Boxcar width: 0
XAxis mode: Wavelengths
Number of Pixels in Spectrum: 3648
>>>>>Begin Spectral Data<<<<<
178.204	-126.97
178.424	-126.97
178.644	-126.97
178.864	-190.46
179.084	-133.12
179.304	2.05
179.524	-12.29
179.744	28.67
179.964	20.48
180.184	0
180.404	14.34
180.624	-28.67
180.844	-20.48
181.064	-69.63
181.283	2.05
181.503	30.72
181.723	32.77
181.943	-53.25
182.163	20.48
182.383	-45.06
182.602	-8.19
182.822	106.49
183.042	-36.86
183.262	-30.72
183.482	-12.29
183.701	-20.48
183.921	36.86
184.141	-20.48
184.361	61.44
184.58	55.3
184.8	-43.01
185.02	18.43
185.239	57.34
185.459	14.34
185.679	30.72
185.898	-69.63
186.118	30.72
186.338	-10.24
186.557	12.29
186.777	71.68
186.997	-73.73
187.216	-6.14
187.436	53.25
187.655	106.49
187.875	94.21
188.095	28.67
188.314	61.44
188.534	139.26
188.753	40.96
188.973	14.34
189.192	45.06
189.412	45.06
189.631	55.3
189.851	45.06
190.07	69.63
190.29	73.73
190.509	8.19
190.729	-20.48
190.948	79.87
191.168	180.22
191.387	38.91
191.607	77.82
191.826	-2.05
192.045	4.1
192.265	45.06
192.484	61.44
192.704	79.87
192.923	-57.34
193.142	122.88
193.362	53.25
193.581	-12.29
193.8	38.91
194.02	79.87
194.239	28.67
194.458	-10.24
194.678	40.96
194.897	94.21
195.116	-14.34
195.335	12.29
195.555	96.25
195.774	-8.19
195.993	51.2
196.212	-36.86
196.432	-10.24
196.651	86.01
196.87	-28.67
197.089	118.78
197.308	32.77
197.528	26.62
197.747	53.25
197.966	-16.38
198.185	69.63
198.404	20.48
198.623	34.82
198.842	22.53
199.062	131.07
199.281	69.63
199.5	-24.58
199.719	24.58
199.938	36.86
200.157	40.96
200.376	-10.24
200.595	30.72
200.814	86.01
201.033	-45.06
201.252	57.34
201.471	55.3
201.69	49.15
201.909	51.2
202.128	43.01
202.347	45.06
202.566	-28.67
202.785	-26.62
203.004	63.49
203.223	145.41
203.442	49.15
203.661	36.86
203.879	36.86
204.098	63.49
204.317	-2.05
204.536	98.3
204.755	28.67
204.974	28.67
205.193	-2.05
205.411	90.11
205.63	71.68
205.849	69.63
206.068	-4.1
206.287	0
206.505	14.34
206.724	65.54
206.943	6.14
207.162	61.44
207.381	22.53
207.599	2.05
207.818	-16.38
208.037	-14.34
208.255	-40.96
208.474	22.53
208.693	73.73
208.911	24.58
209.13	28.67
209.349	-34.82
209.567	86.01
209.786	79.87
210.005	-2.05
210.223	55.3
210.442	6.14
210.661	20.48
210.879	45.06
211.098	108.54
211.316	32.77
211.535	69.63
211.753	34.82
211.972	6.14
212.191	63.49
212.409	36.86
212.628	45.06
212.846	38.91
213.065	53.25
213.283	81.92
213.502	51.2
213.72	71.68
213.938	-4.1
214.157	43.01
214.375	45.06
214.594	14.34
214.812	69.63
215.031	65.54
215.249	-53.25
215.467	40.96
215.686	-28.67
215.904	73.73
216.122	86.01
216.341	118.78
216.559	-2.05
216.778	86.01
216.996	6.14
217.214	24.58
217.432	-24.58
217.651	57.34
217.869	22.53
218.087	32.77
218.306	2.05
218.524	94.21
218.742	40.96
218.96	38.91
219.179	-28.67
219.397	-8.19
219.615	43.01
219.833	57.34
220.051	30.72
220.27	32.77
220.488	61.44
220.706	69.63
220.924	8.19
221.142	14.34
221.36	61.44
221.578	30.72
221.796	-24.58
222.015	55.3
222.233	-10.24
222.451	47.1
222.669	61.44
222.887	30.72
223.105	8.19
223.323	51.2
223.541	43.01
223.759	28.67
223.977	-45.06
224.195	61.44
224.413	49.15
224.631	67.58
224.849	-2.05
225.067	159.74
225.285	18.43
225.503	120.83
225.721	-36.86
225.939	30.72
226.157	36.86
226.375	118.78
226.592	28.67
226.81	-6.14
227.028	73.73
227.246	114.69
227.464	30.72
227.682	55.3
227.9	14.34
228.117	6.14
228.335	73.73
228.553	12.29
228.771	6.14
228.989	22.53
229.206	20.48
229.424	24.58
229.642	71.68
229.86	30.72
230.077	53.25
230.295	-4.1
230.513	49.15
230.731	12.29
230.948	26.62
231.166	77.82
231.384	47.1
231.601	26.62
231.819	104.45
232.037	-2.05
232.254	32.77
232.472	133.12
232.689	45.06
232.907	-20.48
233.125	40.96
233.342	-8.19
233.56	61.44
233.777	77.82
233.995	28.67
234.213	63.49
234.43	63.49
234.648	-4.1
234.865	12.29
235.083	61.44
235.3	18.43
235.518	16.38
235.735	110.59
235.953	51.2
236.17	57.34
236.388	-12.29
236.605	-18.43
236.822	114.69
237.04	77.82
237.257	16.38
237.475	-43.01
237.692	45.06
237.909	55.3
238.127	22.53
238.344	-4.1
238.562	69.63
238.779	-32.77
238.996	8.19
239.214	2.05
239.431	36.86
239.648	6.14
239.865	-28.67
240.083	81.92
240.3	16.38
240.517	36.86
240.735	8.19
240.952	120.83
241.169	83.97
241.386	71.68
241.603	79.87
241.821	47.1
242.038	49.15
242.255	6.14
242.472	-2.05
242.689	20.48
242.907	20.48
243.124	12.29
243.341	24.58
243.558	20.48
243.775	-51.2
243.992	16.38
244.209	-8.19
244.426	110.59
244.643	-28.67
244.86	6.14
245.078	55.3
245.295	-36.86
245.512	71.68
245.729	8.19
245.946	-4.1
246.163	69.63
246.38	28.67
246.597	8.19
246.814	4.1
247.031	36.86
247.248	45.06
247.464	69.63
247.681	14.34
247.898	45.06
248.115	59.39
248.332	75.77
248.549	90.11
248.766	104.45
248.983	145.41
249.2	36.86
249.417	61.44
249.633	73.73
249.85	65.54
250.067	-32.77
250.284	71.68
250.501	8.19
250.717	59.39
250.934	-100.35
251.151	57.34
251.368	71.68
251.585	69.63
251.801	36.86
252.018	34.82
252.235	65.54
252.451	-57.34
252.668	51.2
252.885	90.11
253.102	22.53
253.318	53.25
253.535	45.06
253.752	16.38
253.968	-40.96
254.185	22.53
254.401	28.67
254.618	79.87
254.835	16.38
255.051	65.54
255.268	96.25
255.484	106.49
255.701	32.77
255.917	-8.19
256.134	-36.86
256.351	-28.67
256.567	-12.29
256.784	51.2
257	14.34
257.217	126.97
257.433	104.45
257.65	63.49
257.866	94.21
258.082	-28.67
258.299	-28.67
258.515	57.34
258.732	36.86
258.948	49.15
259.165	45.06
259.381	38.91
259.597	53.25
259.814	45.06
260.03	32.77
260.246	49.15
260.463	6.14
260.679	69.63
260.895	81.92
261.112	30.72
261.328	8.19
261.544	53.25
261.761	126.97
261.977	20.48
262.193	-6.14
262.409	77.82
262.626	71.68
262.842	79.87
263.058	-16.38
263.274	126.97
263.49	77.82
263.707	16.38
263.923	8.19
264.139	14.34
264.355	20.48
264.571	36.86
264.787	47.1
265.004	-16.38
265.22	12.29
265.436	28.67
265.652	0
265.868	40.96
266.084	-22.53
266.3	45.06
266.516	-65.53
266.732	-12.29
266.948	55.3
267.164	6.14
267.38	129.02
267.596	63.49
267.812	112.64
268.028	10.24
268.244	53.25
268.46	45.06
268.676	32.77
268.892	126.97
269.108	20.48
269.324	20.48
269.54	8.19
269.756	40.96
269.972	24.58
270.188	-36.86
270.403	-8.19
270.619	69.63
270.835	-36.86
271.051	28.67
271.267	-12.29
271.483	22.53
271.698	73.73
271.914	40.96
272.13	14.34
272.346	14.34
272.562	-2.05
272.777	24.58
272.993	55.3
273.209	20.48
273.425	45.06
273.64	30.72
273.856	4.1
274.072	-16.38
274.287	6.14
274.503	71.68
274.719	75.77
274.934	98.3
275.15	14.34
275.366	-12.29
275.581	22.53
275.797	71.68
276.012	20.48
276.228	-55.3
276.444	34.82
276.659	118.78
276.875	38.91
277.09	22.53
277.306	-43.01
277.521	73.73
277.737	40.96
277.952	86.01
278.168	-30.72
278.383	30.72
278.599	14.34
278.814	-2.05
279.03	-32.77
279.245	67.58
279.461	30.72
279.676	12.29
279.892	-10.24
280.107	45.06
280.322	4.1
280.538	49.15
280.753	137.21
280.969	14.34
281.184	-4.1
281.399	90.11
281.615	-45.06
281.83	14.34
282.045	-57.34
282.26	-24.58
282.476	-2.05
282.691	114.69
282.906	40.96
283.122	61.44
283.337	14.34
283.552	94.21
283.767	-4.1
283.983	49.15
284.198	63.49
284.413	61.44
284.628	8.19
284.843	-12.29
285.058	63.49
285.274	24.58
285.489	8.19
285.704	28.67
285.919	32.77
286.134	28.67
286.349	69.63
286.564	102.4
286.779	94.21
286.995	-12.29
287.21	32.77
287.425	65.54
287.64	53.25
287.855	69.63
288.07	-18.43
288.285	55.3
288.5	104.45
288.715	36.86
288.93	61.44
289.145	63.49
289.36	81.92
289.575	12.29
289.79	30.72
290.004	-14.34
290.219	79.87
290.434	28.67
290.649	-10.24
290.864	32.77
291.079	45.06
291.294	88.06
291.509	24.58
291.724	12.29
291.938	-22.53
292.153	12.29
292.368	4.1
292.583	45.06
292.798	120.83
293.012	16.38
293.227	49.15
293.442	53.25
293.657	4.1
293.871	36.86
294.086	-8.19
294.301	157.69
294.516	34.82
294.73	36.86
294.945	0
295.16	67.58
295.374	6.14
295.589	63.49
295.804	36.86
296.018	8.19
296.233	43.01
296.447	20.48
296.662	90.11
296.877	90.11
297.091	71.68
297.306	57.34
297.52	20.48
297.735	81.92
297.949	-20.48
298.164	69.63
298.378	-10.24
298.593	-28.67
298.807	24.58
299.022	14.34
299.236	81.92
299.451	61.44
299.665	102.4
299.88	-4.1
300.094	-16.38
300.309	67.58
300.523	71.68
300.737	24.58
300.952	-8.19
301.166	32.77
301.381	47.1
301.595	26.62
301.809	81.92
302.024	110.59
302.238	0
302.452	49.15
302.667	28.67
302.881	126.97
303.095	65.54
303.309	22.53
303.524	40.96
303.738	14.34
303.952	22.53
304.166	30.72
304.381	-49.15
304.595	71.68
304.809	2.05
305.023	-16.38
305.237	22.53
305.452	12.29
305.666	22.53
305.88	112.64
306.094	90.11
306.308	51.2
306.522	40.96
306.736	88.06
306.95	26.62
307.164	69.63
307.379	20.48
307.593	83.97
307.807	55.3
308.021	32.77
308.235	47.1
308.449	61.44
308.663	-12.29
308.877	145.41
309.091	20.48
309.305	38.91
309.519	-86.01
309.733	96.25
309.947	6.14
310.161	-26.62
310.374	45.06
310.588	102.4
310.802	2.05
311.016	-4.1
311.23	53.25
311.444	14.34
311.658	40.96
311.872	118.78
312.085	77.82
312.299	61.44
312.513	49.15
312.727	-4.1
312.941	4.1
313.154	36.86
313.368	45.06
313.582	6.14
313.796	14.34
314.009	53.25
314.223	45.06
314.437	51.2
314.651	75.77
314.864	71.68
315.078	-53.25
315.292	-83.97
315.505	22.53
315.719	28.67
315.933	34.82
316.146	139.26
316.36	14.34
316.573	77.82
316.787	90.11
317.001	36.86
317.214	63.49
317.428	65.54
317.641	63.49
317.855	-10.24
318.068	16.38
318.282	69.63
318.495	28.67
318.709	40.96
318.922	-40.96
319.136	126.97
319.349	172.03
319.563	40.96
319.776	32.77
319.99	-57.34
320.203	38.91
320.417	20.48
320.63	77.82
320.843	65.54
321.057	98.3
321.27	47.1
321.483	20.48
321.697	36.86
321.91	65.54
322.124	71.68
322.337	-24.58
322.55	28.67
322.763	45.06
322.977	20.48
323.19	-4.1
323.403	86.01
323.617	81.92
323.83	-4.1
324.043	-36.86
324.256	12.29
324.469	-8.19
324.683	108.54
324.896	18.43
325.109	12.29
325.322	24.58
325.535	28.67
325.748	126.97
325.962	40.96
326.175	-20.48
326.388	75.77
326.601	36.86
326.814	-4.1
327.027	20.48
327.24	61.44
327.453	-32.77
327.666	43.01
327.879	57.34
328.092	12.29
328.305	96.25
328.518	71.68
328.731	4.1
328.944	12.29
329.157	20.48
329.37	28.67
329.583	86.01
329.796	40.96
330.009	12.29
330.222	-16.38
330.435	77.82
330.648	43.01
330.861	38.91
331.073	32.77
331.286	51.2
331.499	57.34
331.712	12.29
331.925	28.67
332.138	4.1
332.35	22.53
332.563	-36.86
332.776	112.64
332.989	-4.1
333.202	12.29
333.414	22.53
333.627	28.67
333.84	40.96
334.053	94.21
334.265	-22.53
334.478	53.25
334.691	2.05
334.903	24.58
335.116	-8.19
335.329	32.77
335.541	57.34
335.754	106.49
335.966	12.29
336.179	-10.24
336.392	71.68
336.604	28.67
336.817	16.38
337.029	36.86
337.242	63.49
337.454	57.34
337.667	47.1
337.88	36.86
338.092	2.05
338.305	49.15
338.517	-51.2
338.729	28.67
338.942	45.06
339.154	-8.19
339.367	28.67
339.579	45.06
339.792	-26.62
340.004	75.77
340.217	4.1
340.429	4.1
340.641	63.49
340.854	-38.91
341.066	45.06
341.278	83.97
341.491	69.63
341.703	51.2
341.915	86.01
342.128	69.63
342.34	77.82
342.552	22.53
342.764	24.58
342.977	16.38
343.189	40.96
343.401	6.14
343.613	-53.25
343.826	36.86
344.038	-36.86
344.25	30.72
344.462	61.44
344.674	92.16
344.886	135.17
345.099	53.25
345.311	-8.19
345.523	65.54
345.735	-18.43
345.947	59.39
346.159	45.06
346.371	4.1
346.583	53.25
346.795	120.83
347.007	28.67
347.219	106.49
347.431	59.39
347.643	96.25
347.855	57.34
348.067	73.73
348.279	-12.29
348.491	49.15
348.703	-40.96
348.915	96.25
349.127	-10.24
349.339	69.63
349.551	-26.62
349.763	47.1
349.975	38.91
350.187	47.1
350.399	118.78
350.61	86.01
350.822	-8.19
351.034	61.44
351.246	6.14
351.458	57.34
351.669	30.72
351.881	71.68
352.093	61.44
352.305	94.21
352.517	4.1
352.728	69.63
352.94	61.44
353.152	90.11
353.363	36.86
353.575	-12.29
353.787	110.59
353.999	73.73
354.21	100.35
354.422	96.25
354.633	30.72
354.845	45.06
355.057	47.1
355.268	20.48
355.48	24.58
355.692	0
355.903	98.3
356.115	100.35
356.326	-20.48
356.538	77.82
356.749	122.88
356.961	159.74
357.172	53.25
357.384	-8.19
357.595	169.98
357.807	77.82
358.018	-12.29
358.23	20.48
358.441	182.27
358.653	47.1
358.864	26.62
359.075	28.67
359.287	20.48
359.498	86.01
359.709	53.25
359.921	61.44
360.132	4.1
360.344	32.77
360.555	-20.48
360.766	-12.29
360.977	16.38
361.189	53.25
361.4	24.58
361.611	98.3
361.823	49.15
362.034	16.38
362.245	51.2
362.456	36.86
362.667	47.1
362.879	-4.1
363.09	26.62
363.301	36.86
363.512	22.53
363.723	36.86
363.935	0
364.146	-12.29
364.357	77.82
364.568	49.15
364.779	-8.19
364.99	96.25
365.201	-8.19
365.412	88.06
365.623	0
365.834	26.62
366.045	81.92
366.256	20.48
366.467	30.72
366.678	47.1
366.889	79.87
367.1	-20.48
367.311	69.63
367.522	61.44
367.733	20.48
367.944	55.3
368.155	32.77
368.366	45.06
368.577	98.3
368.788	45.06
368.999	-2.05
369.209	124.93
369.42	120.83
369.631	43.01
369.842	38.91
370.053	4.1
370.264	-4.1
370.474	20.48
370.685	63.49
370.896	63.49
371.107	47.1
371.317	18.43
371.528	45.06
371.739	110.59
371.95	77.82
372.16	2.05
372.371	28.67
372.582	36.86
372.792	65.54
373.003	20.48
373.214	22.53
373.424	-38.91
373.635	20.48
373.846	61.44
374.056	73.73
374.267	88.06
374.477	61.44
374.688	57.34
374.898	96.25
375.109	69.63
375.319	45.06
375.53	61.44
375.74	61.44
375.951	-10.24
376.161	16.38
376.372	77.82
376.582	69.63
376.793	110.59
377.003	-10.24
377.214	102.4
377.424	53.25
377.635	81.92
377.845	47.1
378.055	40.96
378.266	-57.34
378.476	59.39
378.686	90.11
378.897	77.82
379.107	53.25
379.317	71.68
379.528	53.25
379.738	18.43
379.948	53.25
380.158	20.48
380.369	32.77
380.579	104.45
380.789	49.15
380.999	81.92
381.21	28.67
381.42	59.39
381.63	100.35
381.84	75.77
382.05	22.53
382.261	49.15
382.471	69.63
382.681	-4.1
382.891	49.15
383.101	51.2
383.311	36.86
383.521	20.48
383.731	102.4
383.941	86.01
384.151	-4.1
384.361	61.44
384.571	26.62
384.781	55.3
384.991	108.54
385.201	96.25
385.411	63.49
385.621	108.54
385.831	69.63
386.041	106.49
386.251	55.3
386.461	118.78
386.671	69.63
386.881	124.93
387.091	71.68
387.301	139.26
387.511	63.49
387.72	73.73
387.93	34.82
388.14	30.72
388.35	28.67
388.56	90.11
388.769	86.01
388.979	36.86
389.189	49.15
389.399	53.25
389.609	36.86
389.818	53.25
390.028	86.01
390.238	20.48
390.447	-20.48
390.657	20.48
390.867	65.54
391.076	-45.06
391.286	69.63
391.496	106.49
391.705	32.77
391.915	159.74
392.125	55.3
392.334	-10.24
392.544	126.97
392.753	79.87
392.963	22.53
393.172	92.16
393.382	8.19
393.591	81.92
393.801	81.92
394.01	151.55
394.22	69.63
394.429	55.3
394.639	73.73
394.848	102.4
395.058	36.86
395.267	36.86
395.477	94.21
395.686	73.73
395.895	153.6
396.105	104.45
396.314	86.01
396.524	92.16
396.733	69.63
396.942	176.13
397.152	24.58
397.361	118.78
397.57	94.21
397.78	120.83
397.989	86.01
398.198	126.97
398.407	36.86
398.617	88.06
398.826	71.68
399.035	49.15
399.244	151.55
399.453	124.93
399.663	69.63
399.872	124.93
400.081	90.11
400.29	94.21
400.499	94.21
400.708	131.07
400.917	61.44
401.127	83.97
401.336	53.25
401.545	221.18
401.754	94.21
401.963	96.25
402.172	104.45
402.381	104.45
402.59	8.19
402.799	90.11
403.008	124.93
403.217	126.97
403.426	131.07
403.635	94.21
403.844	137.21
404.053	133.12
404.262	116.73
404.471	172.03
404.68	94.21
404.888	165.89
405.097	98.3
405.306	167.93
405.515	163.84
405.724	167.93
405.933	149.5
406.142	194.56
406.35	129.02
406.559	208.89
406.768	225.28
406.977	174.08
407.185	237.56
407.394	196.61
407.603	208.89
407.812	139.26
408.02	202.75
408.229	194.56
408.438	190.46
408.646	159.74
408.855	245.76
409.064	249.85
409.272	198.65
409.481	258.04
409.69	243.71
409.898	258.04
410.107	276.48
410.315	299
410.524	339.96
410.733	299
410.941	360.44
411.15	301.05
411.358	378.87
411.567	460.79
411.775	372.73
411.984	372.73
412.192	395.26
412.401	456.7
412.609	464.89
412.818	479.22
413.026	489.46
413.234	489.46
413.443	475.13
413.651	415.74
413.86	466.94
414.068	544.76
414.276	620.53
414.485	591.86
414.693	557.05
414.901	667.64
415.11	741.36
415.318	598.01
415.526	612.34
415.734	737.27
415.943	700.41
416.151	767.99
416.359	864.24
416.567	772.08
416.776	894.96
416.984	917.49
417.192	901.11
417.4	948.21
417.608	925.68
417.817	927.73
418.025	1009.65
418.233	1089.52
418.441	1069.04
418.649	1073.14
418.857	1134.57
419.065	1251.31
419.273	1175.53
419.481	1208.3
419.689	1423.34
419.897	1355.76
420.105	1374.19
420.313	1611.75
420.521	1439.72
420.729	1605.61
420.937	1628.14
421.145	1617.9
421.353	1576.94
421.561	1728.49
421.769	1832.93
421.977	1937.38
422.185	1761.25
422.393	1990.63
422.601	2121.7
422.809	2150.37
423.017	2150.37
423.224	2232.29
423.432	2351.07
423.64	2359.26
423.848	2570.2
424.056	2412.51
424.263	2643.93
424.471	2731.99
424.679	2758.61
424.887	2772.95
425.094	2850.77
425.302	2914.26
425.51	3174.35
425.718	3223.5
425.925	3166.16
426.133	3307.47
426.341	3465.16
426.548	3530.7
426.756	3690.44
426.964	3573.71
427.171	3719.11
427.379	3913.67
427.586	3977.16
427.794	3971.01
428.001	4278.21
428.209	4362.17
428.417	4435.9
428.624	4771.77
428.832	4763.58
429.039	4585.4
429.247	4665.27
429.454	5250.99
429.662	5416.88
429.869	5222.32
430.076	5599.15
430.284	5345.2
430.491	5638.06
430.699	5855.14
430.906	5904.29
431.114	6025.12
431.321	6227.87
431.528	6356.89
431.736	6627.23
431.943	6930.33
432.15	6829.98
432.358	7042.96
432.565	7346.06
432.772	7120.79
432.979	7470.99
433.187	7683.98
433.394	7737.23
433.601	8355.71
433.808	8355.71
434.016	8249.22
434.223	8593.28
434.43	8949.62
434.637	8851.32
434.844	9498.48
435.052	9549.68
435.259	9658.22
435.466	9613.17
435.673	9611.12
435.88	10284.9
436.087	10588
436.294	10817.37
436.501	10395.49
436.708	10712.92
436.915	10954.58
437.122	11419.47
437.329	11683.66
437.537	11843.4
437.743	11829.07
437.95	12009.29
438.157	12762.94
438.364	12916.54
438.571	13023.03
438.778	12855.1
438.985	14055.21
439.192	13606.7
439.399	14073.64
439.606	13713.2
439.813	14626.59
440.02	15306.52
440.227	14833.44
440.433	14774.05
440.64	15470.36
440.847	15116.06
441.054	15718.16
441.261	16768.77
441.467	16396.04
441.674	16539.4
441.881	17303.29
442.088	17280.76
442.294	16996.09
442.501	17391.35
442.708	18210.54
442.914	18685.67
443.121	19437.27
443.328	18912.99
443.534	20305.61
443.741	19705.56
443.948	19377.88
444.154	20885.19
444.361	20901.57
444.568	20833.99
444.774	20969.15
444.981	20985.54
445.187	21667.51
445.394	22486.7
445.6	22079.15
445.807	24290.96
446.013	23461.53
446.22	23600.79
446.426	24891.01
446.633	25054.85
446.839	25634.42
447.046	24792.71
447.252	26080.88
447.459	26115.7
447.665	26244.72
447.871	27293.28
448.078	28235.35
448.284	26951.27
448.491	27758.17
448.697	28874.31
448.903	29451.84
449.11	29161.03
449.316	28954.18
449.522	29691.45
449.728	30125.62
449.935	30545.45
450.141	30367.28
450.347	31057.45
450.553	30328.37
450.76	30744.11
450.966	31673.88
451.172	31077.93
451.378	31968.79
451.584	31393.31
451.791	31925.78
451.997	32052.76
452.203	32572.94
452.409	32812.56
452.615	32400.91
452.821	31323.68
453.027	30805.55
453.233	32419.35
453.44	31057.45
453.646	31501.86
453.852	31467.04
454.058	31972.89
454.264	30752.3
454.47	31612.45
454.676	31008.29
454.882	31925.78
455.088	29107.78
455.294	29904.44
455.5	30012.98
455.705	30412.34
455.911	29382.21
456.117	28831.3
456.323	28094.04
456.529	26723.94
456.735	27844.18
456.941	26762.86
457.147	26977.89
457.352	25708.15
457.558	25503.35
457.764	25880.18
457.97	25108.1
458.176	24610.44
458.381	24444.56
458.587	23328.41
458.793	23084.7
458.999	22048.43
459.204	23596.7
459.41	22896.29
459.616	21720.76
459.821	21423.8
460.027	21491.38
460.233	20977.34
460.438	19908.3
460.644	20270.79
460.85	19119.84
461.055	18714.34
461.261	18814.69
461.466	17329.91
461.672	16496.39
461.878	17948.4
462.083	16684.8
462.289	16568.07
462.494	16283.4
462.7	15527.7
462.905	15210.26
463.111	15765.26
463.316	15865.61
463.522	15292.18
463.727	15587.09
463.932	15275.8
464.138	15015.71
464.343	15111.96
464.549	14907.16
464.754	15271.7
464.959	15001.37
465.165	14667.55
465.37	14446.37
465.575	13936.43
465.781	14524.19
465.986	14516
466.191	13772.59
466.397	13682.48
466.602	12760.89
466.807	13604.66
467.012	13653.81
467.218	13487.92
467.423	13254.45
467.628	13176.63
467.833	13782.83
468.038	13184.82
468.244	12894.01
468.449	13299.51
468.654	12826.43
468.859	12771.13
469.064	12642.11
469.269	12455.75
469.474	12357.44
469.679	12484.42
469.885	12394.31
470.09	12537.66
470.295	12265.28
470.5	11884.36
470.705	12115.78
470.91	11779.92
471.115	11698
471.32	12025.67
471.525	11743.05
471.73	11620.17
471.935	11177.81
472.139	11048.79
472.344	11222.87
472.549	11079.51
472.754	10854.23
472.959	10803.04
473.164	10577.76
473.369	10542.94
473.574	10741.6
473.778	10676.06
473.983	10407.78
474.188	10506.08
474.393	10088.29
474.598	10309.47
474.802	10000.23
475.007	10211.17
475.212	9797.48
475.417	9607.02
475.621	9414.51
475.826	9559.92
476.031	9252.72
476.235	9191.28
476.44	9269.11
476.645	9215.86
476.849	9174.9
477.054	9017.21
477.259	8765.31
477.463	8759.16
477.668	8744.83
477.872	8707.96
478.077	8509.31
478.282	8456.06
478.486	8392.58
478.691	8363.9
478.895	8187.78
479.1	8238.98
479.304	8435.58
479.509	7868.3
479.713	8355.71
479.918	7942.02
480.122	7755.66
480.326	7946.12
480.531	8009.61
480.735	7851.91
480.94	7581.58
481.144	7966.6
481.348	7757.71
481.553	7747.47
481.757	7378.83
481.961	7786.38
482.166	7663.5
482.37	7677.83
482.574	7724.94
482.778	7645.07
482.983	7669.64
483.187	7636.88
483.391	7520.14
483.595	7409.55
483.8	7436.17
484.004	7608.2
484.208	7602.06
484.412	7567.24
484.616	7581.58
484.821	7690.12
485.025	7436.17
485.229	7514
485.433	7458.7
485.637	7540.62
485.841	7395.22
486.045	7477.13
486.249	7516.05
486.453	7335.82
486.657	7757.71
486.861	7487.37
487.065	7180.18
487.269	7530.38
487.473	7368.59
487.677	7446.41
487.881	7567.24
488.085	7427.98
488.289	7573.39
488.493	7450.51
488.697	7657.36
488.901	7696.27
489.105	7491.47
489.309	7509.9
489.512	7319.44
489.716	7532.43
489.92	7466.89
490.124	7427.98
490.328	7606.16
490.531	7552.91
490.735	7462.8
490.939	7493.52
491.143	7534.48
491.346	7661.45
491.55	7741.32
491.754	7417.74
491.958	7507.85
492.161	7561.1
492.365	7640.97
492.569	7597.96
492.772	7647.12
492.976	7802.76
493.18	7901.06
493.383	7843.72
493.587	7819.14
493.79	7911.3
493.994	7876.49
494.197	7802.76
494.401	7991.17
494.605	8097.67
494.808	7978.89
495.012	8169.35
495.215	8097.67
495.419	8218.5
495.622	8177.54
495.825	8263.55
496.029	8335.23
496.232	8441.73
496.436	8593.28
496.639	8662.91
496.843	8476.54
497.046	8753.02
497.249	9033.59
497.453	8869.75
497.656	8853.37
497.859	8859.51
498.063	8771.45
498.266	8949.62
498.469	9195.38
498.673	9142.13
498.876	9410.42
499.079	9391.98
499.282	9424.75
499.485	9789.29
499.689	9809.77
499.892	9789.29
500.095	9742.19
500.298	10010.47
500.501	9799.53
500.705	10039.14
500.908	10286.95
501.111	10532.7
501.314	10559.33
501.517	10420.06
501.72	10628.96
501.923	10526.56
502.126	10952.54
502.329	10760.03
502.532	10944.34
502.735	10956.63
502.938	11169.62
503.141	11347.79
503.344	11417.43
503.547	11386.71
503.75	11542.35
503.953	11894.6
504.156	12013.38
504.359	12005.19
504.562	12068.68
504.765	12140.36
504.968	12392.26
505.17	12457.79
505.373	12511.04
505.576	12814.14
505.779	12916.54
505.982	13088.57
506.185	13199.16
506.387	13367.09
506.59	13319.99
506.793	13479.73
506.996	13551.41
507.198	14167.85
507.401	14188.33
507.604	14161.7
507.807	14290.73
508.009	14114.6
508.212	14649.12
508.415	14649.12
508.617	14935.84
508.82	14896.92
509.022	14843.68
509.225	15378.2
509.428	15294.23
509.63	15490.84
509.833	15378.2
510.035	15777.55
510.238	15718.16
510.44	15951.63
510.643	16301.83
510.845	16480
511.048	16367.37
511.25	16600.83
511.453	16549.64
511.655	17147.64
511.858	17002.24
512.06	17393.4
512.262	17340.15
512.465	17383.16
512.667	17534.71
512.87	17866.48
513.072	17889.01
513.274	18185.96
513.477	18290.41
513.679	18468.58
513.881	18616.04
514.084	18880.22
514.286	18892.51
514.488	19093.21
514.69	19588.82
514.893	19791.57
515.095	19656.4
515.297	19994.32
515.499	19832.53
515.701	20340.43
515.904	20524.74
516.106	20653.76
516.308	20672.2
516.51	20899.52
516.712	21049.02
516.914	21180.09
517.116	21520.06
517.318	21534.39
517.52	21679.8
517.722	21886.64
517.925	22199.98
518.127	22202.03
518.329	22304.43
518.531	22490.79
518.733	22720.17
518.935	23060.13
519.136	22836.9
519.338	23172.77
519.54	23205.53
519.742	23457.43
519.944	23555.74
520.146	24215.18
520.348	23850.64
520.55	24268.43
520.752	24163.98
520.954	24239.76
521.155	24157.84
521.357	24592.01
521.559	24999.55
521.761	25192.06
521.963	24956.55
522.164	25144.96
522.366	25243.26
522.568	25357.95
522.77	25302.65
522.971	25837.17
523.173	25546.36
523.375	25757.3
523.576	25679.48
523.778	25640.57
523.98	26046.07
524.181	25982.58
524.383	26031.73
524.584	26470
524.786	26523.24
524.988	25933.43
525.189	26541.67
525.391	26627.69
525.592	27008.61
525.794	26369.65
525.995	26650.22
526.197	26656.36
526.398	27061.86
526.6	26908.26
526.801	27168.35
527.003	27096.67
527.204	26850.92
527.406	27237.98
527.607	27201.12
527.808	27043.43
528.01	26654.31
528.211	26969.7
528.412	27397.73
528.614	27367.01
528.815	27029.09
529.016	27033.19
529.218	27053.67
529.419	27184.74
529.62	26988.13
529.822	27403.87
530.023	26930.79
530.224	26867.3
530.425	26930.79
530.626	26922.6
530.828	26482.28
531.029	27371.1
531.23	26625.64
531.431	26844.77
531.632	27248.22
531.833	26973.8
532.035	26984.04
532.236	26830.44
532.437	27047.52
532.638	26687.08
532.839	26965.6
533.04	26642.03
533.241	26418.8
533.442	26725.99
533.643	26623.59
533.844	26359.41
534.045	26705.51
534.246	26238.58
534.447	26623.59
534.648	26338.93
534.849	26543.72
535.05	26275.44
535.251	26187.38
535.451	25863.8
535.652	26121.84
535.853	26240.62
536.054	26089.07
536.255	25994.87
536.456	25562.75
536.657	26257.01
536.857	25878.13
537.058	25798.26
537.259	26109.55
537.46	25847.41
537.66	25773.69
537.861	25677.43
538.062	25644.66
538.263	25392.76
538.463	25568.89
538.664	25513.59
538.865	25517.69
539.065	25880.18
539.266	25310.85
539.466	25572.99
539.667	25058.95
539.868	25847.41
540.068	25362.04
540.269	25513.59
540.469	25405.05
540.67	25116.29
540.87	25124.48
541.071	25327.23
541.271	25345.66
541.472	25099.9
541.672	25118.34
541.873	25032.32
542.073	25005.7
542.274	25466.49
542.474	25157.25
542.675	25009.79
542.875	25259.65
543.075	24876.68
543.276	24731.27
543.476	25116.29
543.676	25026.18
543.877	25130.62
544.077	25165.44
544.277	24997.51
544.478	24917.64
544.678	25085.57
544.878	25110.14
545.078	25165.44
545.279	25015.94
545.479	24678.02
545.679	25034.37
545.879	24786.57
546.079	25038.47
546.28	24743.56
546.48	25077.38
546.68	25058.95
546.88	24880.77
547.08	24907.4
547.28	24721.03
547.48	24805
547.68	25210.5
547.88	24596.1
548.081	24964.74
548.281	24987.27
548.481	24725.13
548.681	24934.02
548.881	24944.26
549.081	24876.68
549.28	24940.16
549.48	24979.07
549.68	24944.26
549.88	25056.9
550.08	24792.71
550.28	25337.47
550.48	24729.22
550.68	25015.94
550.88	24749.7
551.08	24850.05
551.279	25038.47
551.479	25046.66
551.679	25427.58
551.879	25249.41
552.079	25331.33
552.278	25116.29
552.478	25108.1
552.678	25349.76
552.878	25636.47
553.077	25218.69
553.277	25022.08
553.477	25273.98
553.676	25159.3
553.876	25196.16
554.076	25321.09
554.275	25239.17
554.475	25101.95
554.674	25552.51
554.874	25667.19
555.074	25476.73
555.273	25609.85
555.473	25749.11
555.672	25106.05
555.872	25536.12
556.071	25615.99
556.271	25990.77
556.47	25792.12
556.67	25300.61
556.869	25638.52
557.068	25669.24
557.268	26037.87
557.467	25826.93
557.667	26031.73
557.866	25636.47
558.065	25802.36
558.265	25712.25
558.464	25532.03
558.663	26234.48
558.863	25714.3
559.062	26252.91
559.261	25792.12
559.461	26082.93
559.66	25888.37
559.859	25839.22
560.058	25669.24
560.258	25798.26
560.457	25689.72
560.656	26087.03
560.855	25937.52
561.054	25888.37
561.253	25777.78
561.453	25720.44
561.652	25935.48
561.851	25984.63
562.05	26007.16
562.249	25634.42
562.448	26142.32
562.647	26003.06
562.846	25783.93
563.045	25785.97
563.244	25673.34
563.443	25691.77
563.642	25673.34
563.841	25611.9
564.04	25540.22
564.239	25984.63
564.438	25699.96
564.637	25783.93
564.836	25769.59
565.035	25314.94
565.234	25659
565.432	25398.91
565.631	25603.71
565.83	25505.4
566.029	25310.85
566.228	25558.65
566.427	25370.24
566.625	25337.47
566.824	25247.36
567.023	25208.45
567.222	25020.03
567.42	25294.46
567.619	25214.59
567.818	25091.71
568.016	25263.74
568.215	25370.24
568.414	25106.05
568.612	24999.55
568.811	24835.72
569.01	24772.23
569.208	24735.37
569.407	24749.7
569.605	24729.22
569.804	24680.07
570.002	24524.43
570.201	24456.84
570.4	24184.46
570.598	24290.96
570.797	24213.13
570.995	24211.09
571.193	23869.08
571.392	24241.81
571.59	23846.55
571.789	23959.19
571.987	24231.57
572.186	23912.08
572.384	23578.26
572.582	23840.4
572.781	23543.45
572.979	23559.83
573.177	23697.05
573.376	23289.5
573.574	23701.14
573.772	23568.02
573.971	23359.13
574.169	23277.21
574.367	23086.75
574.565	23039.65
574.763	22890.15
574.962	22947.49
575.16	22716.07
575.358	22941.35
575.556	22408.87
575.754	22865.57
575.952	22318.76
576.151	22810.28
576.349	22546.09
576.547	22324.91
576.745	22240.94
576.943	22294.19
577.141	22044.34
577.339	22214.32
577.537	22257.32
577.735	21890.74
577.933	21913.27
578.131	21948.08
578.329	21640.89
578.527	21870.26
578.725	21692.08
578.923	21927.6
579.121	21558.97
579.319	21378.75
579.516	21409.47
579.714	21137.09
579.912	21284.54
580.11	21300.92
580.308	21272.25
580.506	21368.51
580.704	20827.84
580.901	21212.86
581.099	21243.58
581.297	20958.91
581.495	20995.78
581.692	20778.69
581.89	20602.57
582.088	20709.06
582.285	20733.64
582.483	20715.2
582.681	20661.96
582.878	20555.46
583.076	20039.37
583.274	20401.86
583.471	20340.43
583.669	20481.74
583.866	19973.84
584.064	20297.42
584.262	19812.05
584.459	20365
584.657	20088.53
584.854	20115.15
585.052	19891.92
585.249	20016.85
585.447	19723.99
585.644	19601.11
585.841	20106.96
586.039	19953.36
586.236	19463.89
586.434	19603.16
586.631	19502.81
586.828	19418.84
587.026	19312.35
587.223	19336.92
587.42	19263.19
587.618	19656.4
587.815	19060.45
588.012	19402.46
588.21	19445.46
588.407	19279.58
588.604	19203.8
588.801	18994.91
588.999	19097.31
589.196	19115.74
589.393	19244.76
589.59	18841.31
589.787	19054.3
589.984	18771.68
590.182	18923.23
590.379	18773.73
590.576	18605.8
590.773	18804.45
590.97	18646.76
591.167	18642.66
591.364	18673.38
591.561	18878.18
591.758	18657
591.955	18396.9
592.152	18523.88
592.349	18357.99
592.546	18456.29
592.743	18521.83
592.94	18286.31
593.137	18595.56
593.334	18355.94
593.531	18489.06
593.727	18382.57
593.924	18548.45
594.121	18271.98
594.318	18665.19
594.515	17897.2
594.712	18489.06
594.908	18249.45
595.105	18249.45
595.302	17979.12
595.499	18274.03
595.696	18294.5
595.892	18077.42
596.089	18321.13
596.286	18384.62
596.482	18136.81
596.679	18384.62
596.876	18392.81
597.072	18360.04
597.269	18609.89
597.466	18175.72
597.662	17991.41
597.859	18284.26
598.055	18317.03
598.252	18151.15
598.448	18370.28
598.645	18245.35
598.841	18304.74
599.038	18695.91
599.234	18521.83
599.431	18360.04
599.627	18347.75
599.824	18403.05
600.02	18325.22
600.217	18366.18
600.413	18517.73
600.609	18302.7
600.806	18304.74
601.002	18321.13
601.198	18421.48
601.395	18550.5
601.591	18562.79
601.787	18749.15
601.984	18523.88
602.18	18906.85
602.376	18667.24
602.572	18554.6
602.769	18806.5
602.965	18636.52
603.161	18511.59
603.357	18689.76
603.553	18960.09
603.75	19121.88
603.946	18972.38
604.142	19068.64
604.338	18796.26
604.534	19109.6
604.73	19011.29
604.926	18925.28
605.122	19027.68
605.318	19222.23
605.514	19125.98
605.71	19152.6
605.906	19257.05
606.102	19332.82
606.298	19369.69
606.494	19414.74
606.69	19416.79
606.886	19549.91
607.082	19357.4
607.278	19863.25
607.474	19480.28
607.67	19807.95
607.866	19578.58
608.062	19799.76
608.257	19715.8
608.453	19955.41
608.649	19977.94
608.845	19605.2
609.041	19877.58
609.236	19773.14
609.432	19900.11
609.628	20195.02
609.824	20049.61
610.019	19967.7
610.215	19977.94
610.411	20315.85
610.606	20192.97
610.802	20252.36
610.998	20074.19
611.193	20539.08
611.389	20616.9
611.584	20369.1
611.78	20283.08
611.976	20465.35
612.171	20541.13
612.367	20577.99
612.562	20430.54
612.758	20428.49
612.953	20221.64
613.149	20881.09
613.344	20498.12
613.539	21092.03
613.735	20418.25
613.93	20754.12
614.126	20571.85
614.321	20600.52
614.517	20971.2
614.712	20721.35
614.907	20510.41
615.103	20999.87
615.298	20530.89
615.493	21001.92
615.688	20901.57
615.884	21055.17
616.079	20838.08
616.274	21006.02
616.47	20760.26
616.665	20895.43
616.86	21067.45
617.055	21262.01
617.25	20747.97
617.445	21008.06
617.641	20670.15
617.836	20704.96
618.031	20655.81
618.226	20928.19
618.421	20780.74
618.616	21216.96
618.811	20645.57
619.006	20975.3
619.201	20532.93
619.396	20719.3
619.591	20557.51
619.786	20702.92
619.981	20328.14
620.176	20856.51
620.371	20158.16
620.566	20545.22
620.761	20297.42
620.956	20520.65
621.151	19932.88
621.346	20354.76
621.541	19857.1
621.735	20172.49
621.93	19898.06
622.125	19953.36
622.32	19773.14
622.515	19959.5
622.709	19494.61
622.904	19730.13
623.099	19394.26
623.294	19328.73
623.488	19042.01
623.683	19363.54
623.878	19080.92
624.072	19093.21
624.267	19162.84
624.462	18923.23
624.656	18763.49
624.851	18945.76
625.046	18816.74
625.24	18622.18
625.435	18591.46
625.629	18511.59
625.824	18196.2
626.018	18616.04
626.213	18192.11
626.407	18259.69
626.602	18024.17
626.796	17985.26
626.991	17919.73
627.185	17975.02
627.38	17516.28
627.574	17444.6
627.768	17370.87
627.963	17444.6
628.157	17252.09
628.352	17428.21
628.546	17039.1
628.74	17315.58
628.935	17247.99
629.129	17176.31
629.323	16822.02
629.517	16930.56
629.712	16746.24
629.906	16711.42
630.1	16258.82
630.294	16736
630.489	16307.98
630.683	16557.83
630.877	16355.08
631.071	16291.59
631.265	16217.86
631.459	16092.94
631.653	15984.4
631.848	16084.75
632.042	15757.07
632.236	15871.76
632.43	15576.85
632.624	15689.49
632.818	15740.69
633.012	15470.36
633.206	15539.99
633.4	15367.96
633.594	15136.54
633.788	15527.7
633.982	15228.7
634.176	15234.84
634.369	14964.51
634.563	15044.38
634.757	14851.87
634.951	14921.5
635.145	14733.09
635.339	14626.59
635.533	14585.63
635.726	14546.72
635.92	14327.59
636.114	14505.76
636.308	14135.08
636.501	14155.56
636.695	13950.76
636.889	13958.95
637.083	13819.69
637.276	13645.62
637.47	13795.12
637.664	13719.34
637.857	13764.4
638.051	13467.44
638.244	13309.75
638.438	13256.5
638.632	13256.5
638.825	13264.69
639.019	13115.19
639.212	13152.06
639.406	12885.82
639.599	12932.92
639.793	12992.31
639.986	12943.16
640.18	12627.78
640.373	12656.45
640.567	12447.55
640.76	12537.66
640.954	12384.07
641.147	12209.99
641.34	12273.48
641.534	12123.98
641.727	12140.36
641.92	12255.05
642.114	11900.75
642.307	11947.85
642.5	11775.82
642.694	11577.17
642.887	11372.37
643.08	11732.81
643.273	11509.58
643.467	11439.95
643.66	11530.06
643.853	11118.42
644.046	11284.31
644.239	11138.9
644.432	11108.18
644.626	10897.24
644.819	10993.5
645.012	11003.74
645.205	10942.3
645.398	10792.8
645.591	10762.08
645.784	10727.26
645.977	10708.83
646.17	10751.84
646.363	10444.64
646.556	10436.45
646.749	10332
646.942	10114.92
647.135	10178.4
647.328	10162.02
647.521	10033
647.714	9928.55
647.907	9901.93
648.099	9826.15
648.292	9895.78
648.485	9772.91
648.678	9752.43
648.871	9652.08
649.064	9555.82
649.256	9623.41
649.449	9467.76
649.642	9383.79
649.835	9082.74
650.027	9484.14
650.22	9277.3
650.413	9271.15
650.605	9023.35
650.798	9045.88
650.991	8955.77
651.183	8939.38
651.376	8892.28
651.568	8808.31
651.761	8857.46
651.954	8765.31
652.146	8564.61
652.339	8820.6
652.531	8624
652.724	8589.18
652.916	8605.56
653.109	8503.17
653.301	8607.61
653.494	8472.45
653.686	8302.47
653.879	8339.33
654.071	8327.04
654.263	8279.94
654.456	8157.06
654.648	8159.11
654.84	8032.13
655.033	8247.17
655.225	7976.84
655.417	7958.41
655.61	7853.96
655.802	7946.12
655.994	8054.66
656.186	7849.86
656.379	7903.11
656.571	7761.8
656.763	7673.74
656.955	7597.96
657.148	7561.1
657.34	7501.71
657.532	7432.08
657.724	7577.48
657.916	7495.57
658.108	7378.83
658.3	7249.81
658.492	7231.38
658.684	7214.99
658.876	7284.62
659.068	7153.55
659.26	7118.74
659.452	7229.33
659.644	7214.99
659.836	7065.49
660.028	7004.05
660.22	6860.7
660.412	6940.57
660.604	6868.89
660.796	6698.91
660.988	6725.53
661.18	6803.35
661.372	6541.21
661.563	6803.35
661.755	6553.5
661.947	6516.64
662.139	6561.69
662.331	6567.84
662.522	6598.56
662.714	6404
662.906	6463.39
663.097	6461.34
663.289	6219.68
663.481	6209.44
663.673	6231.97
663.864	6250.4
664.056	6150.05
664.247	6049.7
664.439	6207.39
664.631	6096.8
664.822	6004.64
665.014	6004.64
665.205	6125.47
665.397	5939.11
665.588	5951.4
665.78	5951.4
665.971	5922.73
666.163	6004.64
666.354	5830.57
666.546	5644.2
666.737	5683.11
666.929	5803.94
667.12	5701.55
667.311	5537.71
667.503	5531.56
667.694	5683.11
667.885	5468.08
668.077	5625.77
668.268	5609.39
668.459	5498.8
668.651	5365.68
668.842	5599.15
669.033	5326.77
669.224	5328.81
669.416	5502.89
669.607	5300.14
669.798	5257.14
669.989	5425.07
670.18	5328.81
670.371	5214.13
670.563	5158.83
670.754	5230.51
670.945	5148.59
671.136	5273.52
671.327	5017.52
671.518	5296.05
671.709	5119.92
671.9	4888.5
672.091	4960.18
672.282	4956.08
672.473	5134.26
672.664	5003.19
672.855	4954.04
673.046	4798.39
673.237	5083.06
673.428	4886.45
673.619	4980.66
673.809	4812.73
674	4849.59
674.191	4861.88
674.382	4775.86
674.573	4945.84
674.764	4911.03
674.954	4931.51
675.145	4865.97
675.336	4812.73
675.527	4964.28
675.717	4890.55
675.908	4765.62
676.099	4786.1
676.289	4820.92
676.48	4825.01
676.671	4681.66
676.861	4679.61
677.052	4675.51
677.243	4673.46
677.433	4693.94
677.624	4786.1
677.814	4683.7
678.005	4681.66
678.195	4685.75
678.386	4636.6
678.576	4558.78
678.767	4698.04
678.957	4542.39
679.148	4691.9
679.338	4722.62
679.529	4675.51
679.719	4583.35
679.909	4614.07
680.1	4564.92
680.29	4775.86
680.481	4458.43
680.671	4597.69
680.861	4552.63
681.052	4501.44
681.242	4677.56
681.432	4571.07
681.622	4470.72
681.813	4464.57
682.003	4405.18
682.193	4569.02
682.383	4591.55
682.573	4556.73
682.764	4517.82
682.954	4634.55
683.144	4503.48
683.334	4417.47
683.524	4562.87
683.714	4513.72
683.904	4493.24
684.094	4521.91
684.284	4556.73
684.474	4569.02
684.664	4460.48
684.854	4470.72
685.044	4382.65
685.234	4583.35
685.424	4437.95
685.614	4372.41
685.804	4440
685.994	4401.08
686.184	4456.38
686.374	4411.32
686.564	4511.68
686.753	4407.23
686.943	4216.77
687.133	4380.61
687.323	4282.3
687.513	4577.21
687.702	4386.75
687.892	4280.25
688.082	4421.56
688.272	4255.68
688.461	4390.85
688.651	4388.8
688.841	4306.88
689.03	4272.06
689.22	4255.68
689.41	4321.21
689.599	4227.01
689.789	4325.31
689.979	4218.82
690.168	4282.3
690.358	4061.12
690.547	4136.9
690.737	4140.99
690.926	4181.95
691.116	4083.65
691.305	4100.03
691.495	4177.86
691.684	4157.38
691.874	4208.58
692.063	4282.3
692.252	4157.38
692.442	4243.39
692.631	3919.81
692.82	4149.18
693.01	4063.17
693.199	4018.11
693.388	4071.36
693.578	4079.55
693.767	4038.59
693.956	3944.39
694.146	4059.07
694.335	3870.66
694.524	3995.59
694.713	4018.11
694.902	3936.2
695.092	3934.15
695.281	4005.83
695.47	3891.14
695.659	3862.47
695.848	3938.24
696.037	3985.35
696.226	3805.13
696.415	3915.72
696.604	3844.04
696.793	3944.39
696.982	4063.17
697.171	4044.74
697.36	3907.52
697.549	3925.96
697.738	3921.86
697.927	3807.17
698.116	3807.17
698.305	3889.09
698.494	3932.1
698.683	3708.87
698.872	3905.48
699.061	3749.83
699.25	3891.14
699.438	3731.4
699.627	3854.28
699.816	3882.95
700.005	3764.17
700.193	3801.03
700.382	3856.33
700.571	3637.19
700.76	3809.22
700.948	3690.44
701.137	3649.48
701.326	3807.17
701.514	3542.99
701.703	3743.69
701.892	3747.78
702.08	3719.11
702.269	3590.09
702.457	3610.57
702.646	3704.78
702.834	3647.43
703.023	3651.53
703.212	3700.68
703.4	3637.19
703.589	3487.69
703.777	3641.29
703.965	3489.74
704.154	3643.34
704.342	3559.37
704.531	3538.89
704.719	3510.22
704.907	3635.14
705.096	3448.78
705.284	3583.95
705.472	3506.12
705.661	3528.65
705.849	3635.14
706.037	3373
706.226	3440.59
706.414	3491.79
706.602	3362.76
706.79	3600.33
706.979	3340.24
707.167	3297.23
707.355	3506.12
707.543	3416.01
707.731	3354.57
707.919	3436.49
708.107	3272.65
708.296	3379.15
708.484	3332.05
708.672	3428.3
708.86	3282.89
709.048	3379.15
709.236	3413.96
709.424	3223.5
709.612	3239.89
709.8	3352.52
709.988	3280.85
710.176	3147.73
710.364	3358.67
710.551	3190.74
710.739	3340.24
710.927	3241.93
711.115	3209.17
711.303	3190.74
711.491	3239.89
711.679	3127.25
711.866	3233.74
712.054	3260.37
712.242	3157.97
712.43	3274.7
712.617	3266.51
712.805	3094.48
712.993	3207.12
713.181	3010.51
713.368	3035.09
713.556	2992.08
713.744	2977.75
713.931	3166.16
714.119	3162.06
714.306	3086.29
714.494	3020.75
714.682	3035.09
714.869	3006.42
715.057	3071.95
715.244	3069.91
715.432	3067.86
715.619	2998.23
715.807	3051.47
715.994	2908.12
716.182	2973.65
716.369	2951.12
716.556	2928.6
716.744	2944.98
716.931	2920.4
717.119	3030.99
717.306	2957.27
717.493	2865.11
717.681	2899.92
717.868	2750.42
718.055	2891.73
718.242	2889.68
718.43	2815.96
718.617	2822.1
718.804	2830.29
718.991	2871.25
719.179	2772.95
719.366	2709.46
719.553	2830.29
719.74	2801.62
719.927	2723.8
720.114	2818.01
720.301	2863.06
720.488	2889.68
720.676	2740.18
720.863	2815.96
721.05	2789.33
721.237	2772.95
721.424	2863.06
721.611	2738.13
721.798	2633.69
721.985	2674.65
722.172	2590.68
722.358	2658.26
722.545	2781.14
722.732	2717.65
722.919	2789.33
723.106	2625.5
723.293	2727.89
723.48	2566.1
723.667	2596.82
723.853	2625.5
724.04	2668.5
724.227	2488.28
724.414	2670.55
724.6	2641.88
724.787	2586.58
724.974	2682.84
725.161	2637.78
725.347	2584.54
725.534	2584.54
725.72	2486.23
725.907	2562.01
726.094	2549.72
726.28	2588.63
726.467	2551.77
726.653	2527.19
726.84	2631.64
727.027	2641.88
727.213	2453.47
727.4	2559.96
727.586	2428.89
727.773	2381.79
727.959	2467.8
728.145	2512.86
728.332	2543.58
728.518	2402.27
728.705	2455.51
728.891	2482.14
729.077	2414.56
729.264	2430.94
729.45	2359.26
729.636	2504.67
729.823	2387.93
730.009	2371.55
730.195	2396.12
730.382	2424.8
730.568	2301.92
730.754	2428.89
730.94	2400.22
731.126	2357.21
731.313	2420.7
731.499	2265.05
731.685	2449.37
731.871	2363.36
732.057	2338.78
732.243	2299.87
732.429	2340.83
732.615	2289.63
732.801	2338.78
732.987	2226.14
733.173	2316.25
733.359	2373.6
733.545	2199.52
733.731	2234.33
733.917	2301.92
734.103	2248.67
734.289	2336.73
734.475	2273.25
734.661	2349.02
734.847	2142.18
735.033	2306.01
735.219	2281.44
735.404	2258.91
735.59	2346.97
735.776	2195.42
735.962	2238.43
736.148	2256.86
736.333	2322.4
736.519	2142.18
736.705	2107.36
736.89	2117.6
737.076	2183.13
737.262	2113.5
737.447	2195.42
737.633	2013.15
737.819	2232.29
738.004	2133.98
738.19	2127.84
738.375	2152.42
738.561	2095.07
738.747	2088.93
738.932	1978.34
739.118	2234.33
739.303	2189.28
739.489	2131.94
739.674	2084.83
739.859	2070.5
740.045	2082.78
740.23	1986.53
740.416	1929.19
740.601	1947.62
740.786	2023.39
740.972	1998.82
741.157	1996.77
741.342	1914.85
741.528	2031.59
741.713	1953.76
741.898	1920.99
742.084	1953.76
742.269	2056.16
742.454	1869.8
742.639	2031.59
742.824	1920.99
743.01	1875.94
743.195	2021.35
743.38	1912.8
743.565	1974.24
743.75	1896.42
743.935	1888.23
744.12	1839.08
744.305	1888.23
744.49	1824.74
744.675	1841.12
744.86	1834.98
745.045	1796.07
745.23	1865.7
745.415	1796.07
745.6	1773.54
745.785	1660.9
745.97	1847.27
746.155	1808.36
746.34	1818.6
746.525	1748.97
746.71	1748.97
746.895	1650.66
747.079	1722.34
747.264	1798.12
747.449	1691.62
747.634	1634.28
747.819	1730.53
748.003	1570.79
748.188	1576.94
748.373	1652.71
748.557	1669.09
748.742	1628.14
748.927	1597.42
749.111	1574.89
749.296	1488.87
749.481	1609.7
749.665	1587.18
749.85	1509.35
750.034	1552.36
750.219	1603.56
750.404	1568.74
750.588	1419.24
750.773	1423.34
750.957	1527.78
751.141	1495.02
751.326	1556.46
751.51	1474.54
751.695	1499.11
751.879	1413.1
752.064	1478.63
752.248	1482.73
752.432	1472.49
752.617	1404.91
752.801	1298.41
752.985	1314.8
753.17	1394.67
753.354	1406.95
753.538	1331.18
753.722	1314.8
753.907	1343.47
754.091	1384.43
754.275	1308.65
754.459	1341.42
754.643	1193.97
754.828	1249.26
755.012	1228.78
755.196	1300.46
755.38	1202.16
755.564	1200.11
755.748	1210.35
755.932	1232.88
756.116	1259.5
756.3	1269.74
756.484	1191.92
756.668	1196.01
756.852	1159.15
757.036	1243.12
757.22	1189.87
757.404	1142.77
757.588	1284.08
757.772	1126.38
757.956	1056.75
758.14	1165.29
758.323	1038.32
758.507	1142.77
758.691	1142.77
758.875	1112.05
759.059	1060.85
759.242	1023.98
759.426	999.41
759.61	1105.9
759.794	1005.55
759.977	1011.7
760.161	1185.77
760.345	995.31
760.528	1075.18
760.712	1110
760.895	940.02
761.079	968.69
761.263	989.17
761.446	972.79
761.63	970.74
761.813	1044.46
761.997	985.07
762.18	940.02
762.364	1030.13
762.547	950.26
762.731	995.31
762.914	974.83
763.098	931.83
763.281	991.22
763.464	935.92
763.648	874.48
763.831	970.74
764.015	843.76
764.198	966.64
764.381	958.45
764.564	890.87
764.748	919.54
764.931	921.59
765.114	937.97
765.297	927.73
765.481	860.15
765.664	913.39
765.847	905.2
766.03	962.55
766.213	880.63
766.397	870.39
766.58	876.53
766.763	854
766.946	880.63
767.129	790.52
767.312	856.05
767.495	937.97
767.678	835.57
767.861	866.29
768.044	780.28
768.227	860.15
768.41	819.19
768.593	831.48
768.776	831.48
768.959	765.94
769.142	833.52
769.324	888.82
769.507	841.72
769.69	729.08
769.873	729.08
770.056	880.63
770.239	749.56
770.421	808.95
770.604	831.48
770.787	792.56
770.97	841.72
771.152	741.36
771.335	833.52
771.518	743.41
771.7	856.05
771.883	774.13
772.066	729.08
772.248	749.56
772.431	724.98
772.613	737.27
772.796	774.13
772.978	757.75
773.161	780.28
773.343	675.83
773.526	647.16
773.708	647.16
773.891	747.51
774.073	749.56
774.256	688.12
774.438	800.76
774.621	724.98
774.803	675.83
774.985	651.25
775.168	739.32
775.35	704.5
775.532	628.73
775.715	581.62
775.897	618.49
776.079	671.73
776.261	585.72
776.444	686.07
776.626	675.83
776.808	626.68
776.99	602.1
777.173	690.17
777.355	636.92
777.537	708.6
777.719	643.06
777.901	606.2
778.083	618.49
778.265	598.01
778.447	667.64
778.629	552.95
778.811	544.76
778.993	647.16
779.175	514.04
779.357	561.14
779.539	466.94
779.721	602.1
779.903	606.2
780.085	552.95
780.267	626.68
780.449	524.28
780.631	563.19
780.812	499.7
780.994	524.28
781.176	561.14
781.358	516.09
781.54	540.66
781.721	489.46
781.903	491.51
782.085	462.84
782.267	481.27
782.448	440.31
782.63	487.42
782.812	440.31
782.993	532.47
783.175	524.28
783.357	421.88
783.538	460.79
783.72	458.74
783.901	434.17
784.083	434.17
784.264	497.66
784.446	421.88
784.627	438.27
784.809	491.51
784.99	405.5
785.172	393.21
785.353	487.42
785.535	407.55
785.716	397.31
785.897	438.27
786.079	462.84
786.26	415.74
786.441	405.5
786.623	346.11
786.804	352.25
786.985	466.94
787.167	405.5
787.348	333.82
787.529	327.68
787.71	430.07
787.891	374.78
788.073	366.59
788.254	348.15
788.435	468.98
788.616	385.02
788.797	356.35
788.978	370.68
789.159	319.48
789.34	303.1
789.522	344.06
789.703	266.24
789.884	430.07
790.065	432.12
790.246	421.88
790.427	405.5
790.607	358.39
790.788	319.48
790.969	276.48
791.15	399.35
791.331	215.04
791.512	296.96
791.693	231.42
791.874	374.78
792.054	450.55
792.235	350.2
792.416	331.77
792.597	325.63
792.778	327.68
792.958	327.68
793.139	339.96
793.32	382.97
793.5	237.56
793.681	346.11
793.862	288.76
794.042	329.72
794.223	200.7
794.404	278.52
794.584	315.39
794.765	323.58
794.945	284.67
795.126	290.81
795.306	268.28
795.487	256
795.667	251.9
795.848	301.05
796.028	274.43
796.209	303.1
796.389	270.33
796.57	196.61
796.75	260.09
796.93	262.14
797.111	217.08
797.291	305.15
797.471	313.34
797.652	266.24
797.832	243.71
798.012	315.39
798.192	202.75
798.373	192.51
798.553	272.38
798.733	294.91
798.913	217.08
799.093	188.41
799.274	233.47
799.454	233.47
799.634	266.24
799.814	333.82
799.994	292.86
800.174	260.09
800.354	294.91
800.534	151.55
800.714	200.7
800.894	192.51
801.074	200.7
801.254	176.13
801.434	290.81
801.614	251.9
801.794	260.09
801.974	980.98
802.154	192.51
802.334	227.32
802.514	217.08
802.693	223.23
802.873	194.56
803.053	229.37
803.233	208.89
803.413	243.71
803.592	227.32
803.772	192.51
803.952	120.83
804.131	235.52
804.311	221.18
804.491	262.14
804.67	200.7
804.85	120.83
805.03	272.38
805.209	233.47
805.389	239.61
805.568	190.46
805.748	225.28
805.928	192.51
806.107	194.56
806.287	200.7
806.466	237.56
806.646	155.65
806.825	159.74
807.004	169.98
807.184	172.03
807.363	212.99
807.543	120.83
807.722	200.7
807.901	200.7
808.081	284.67
808.26	32.77
808.439	196.61
808.619	202.75
808.798	163.84
808.977	102.4
809.156	196.61
809.336	149.5
809.515	172.03
809.694	102.4
809.873	198.65
810.052	176.13
810.231	237.56
810.411	149.5
810.59	159.74
810.769	147.45
810.948	196.61
811.127	110.59
811.306	131.07
811.485	114.69
811.664	112.64
811.843	169.98
812.022	186.37
812.201	151.55
812.38	122.88
812.559	102.4
812.737	120.83
812.916	120.83
813.095	120.83
813.274	110.59
813.453	186.37
813.632	143.36
813.811	169.98
813.989	38.91
814.168	172.03
814.347	71.68
814.526	102.4
814.704	61.44
814.883	126.97
815.062	155.65
815.24	194.56
815.419	47.1
815.598	153.6
815.776	79.87
815.955	110.59
816.133	59.39
816.312	161.79
816.49	45.06
816.669	96.25
816.847	92.16
817.026	110.59
817.204	90.11
817.383	114.69
817.561	116.73
817.74	161.79
817.918	151.55
818.097	20.48
818.275	155.65
818.453	114.69
818.632	114.69
818.81	106.49
818.988	83.97
819.167	137.21
819.345	139.26
819.523	30.72
819.701	135.17
819.879	106.49
820.058	79.87
820.236	172.03
820.414	112.64
820.592	55.3
820.77	77.82
820.948	184.32
821.127	53.25
821.305	104.45
821.483	94.21
821.661	94.21
821.839	104.45
822.017	94.21
822.195	45.06
822.373	200.7
822.551	108.54
822.729	88.06
822.907	28.67
823.085	126.97
823.262	96.25
823.44	65.54
823.618	149.5
823.796	45.06
823.974	135.17
824.152	47.1
824.329	143.36
824.507	102.4
824.685	118.78
824.863	69.63
825.04	65.54
825.218	71.68
825.396	73.73
825.574	155.65
825.751	182.27
825.929	126.97
826.107	169.98
826.284	61.44
826.462	100.35
826.639	104.45
826.817	49.15
826.994	96.25
827.172	45.06
827.349	118.78
827.527	73.73
827.704	77.82
827.882	92.16
828.059	49.15
828.237	73.73
828.414	55.3
828.591	40.96
828.769	73.73
828.946	104.45
829.124	163.84
829.301	143.36
829.478	36.86
829.655	122.88
829.833	96.25
830.01	26.62
830.187	161.79
830.364	57.34
830.542	143.36
830.719	118.78
830.896	59.39
831.073	49.15
831.25	10.24
831.427	73.73
831.604	120.83
831.782	118.78
831.959	71.68
832.136	57.34
832.313	61.44
832.49	112.64
832.667	36.86
832.844	-24.58
833.021	110.59
833.198	55.3
833.374	77.82
833.551	79.87
833.728	65.54
833.905	45.06
834.082	0
834.259	81.92
834.436	120.83
834.612	77.82
834.789	112.64
834.966	57.34
835.143	47.1
835.319	51.2
835.496	79.87
835.673	45.06
835.85	149.5
836.026	94.21
836.203	38.91
836.38	106.49
836.556	53.25
836.733	57.34
836.909	86.01
837.086	-2.05
837.262	47.1
837.439	75.77
837.616	20.48
837.792	53.25
837.968	-2.05
838.145	61.44
838.321	90.11
838.498	59.39
838.674	129.02
838.851	45.06
839.027	88.06
839.203	47.1
839.38	129.02
839.556	77.82
839.732	102.4
839.909	63.49
840.085	71.68
840.261	20.48
840.437	61.44
840.614	45.06
840.79	116.73
840.966	106.49
841.142	30.72
841.318	55.3
841.494	86.01
841.671	90.11
841.847	24.58
842.023	32.77
842.199	-2.05
842.375	79.87
842.551	0
842.727	28.67
842.903	135.17
843.079	4.1
843.255	106.49
843.431	30.72
843.607	57.34
843.783	-24.58
843.959	79.87
844.134	4.1
844.31	96.25
844.486	28.67
844.662	40.96
844.838	32.77
845.013	131.07
845.189	112.64
845.365	110.59
845.541	49.15
845.716	53.25
845.892	59.39
846.068	-59.39
846.244	43.01
846.419	96.25
846.595	-69.63
846.77	90.11
846.946	94.21
847.122	24.58
847.297	79.87
847.473	94.21
847.648	2.05
847.824	40.96
847.999	-20.48
848.175	8.19
848.35	102.4
848.526	47.1
848.701	24.58
848.876	28.67
849.052	47.1
849.227	71.68
849.403	67.58
849.578	0
849.753	77.82
849.929	-22.53
850.104	4.1
850.279	40.96
850.454	30.72
850.63	-8.19
850.805	69.63
850.98	45.06
851.155	10.24
851.33	-2.05
851.505	4.1
851.681	-2.05
851.856	6.14
852.031	61.44
852.206	108.54
852.381	4.1
852.556	57.34
852.731	102.4
852.906	45.06
853.081	55.3
853.256	92.16
853.431	38.91
853.606	-10.24
853.781	28.67
853.956	-69.63
854.131	32.77
854.305	0
854.48	14.34
854.655	28.67
854.83	-26.62
855.005	-28.67
855.18	67.58
855.354	53.25
855.529	53.25
855.704	16.38
855.879	63.49
856.053	14.34
856.228	47.1
856.403	-36.86
856.577	32.77
856.752	-10.24
856.926	57.34
857.101	90.11
857.276	2.05
857.45	-8.19
857.625	45.06
857.799	40.96
857.974	47.1
858.148	-65.53
858.323	106.49
858.497	75.77
858.672	45.06
858.846	-10.24
859.02	34.82
859.195	-8.19
859.369	8.19
859.543	86.01
859.718	61.44
859.892	4.1
860.066	30.72
860.241	55.3
860.415	-40.96
860.589	106.49
860.763	6.14
860.938	24.58
861.112	96.25
861.286	8.19
861.46	28.67
861.634	73.73
861.808	36.86
861.982	-20.48
862.157	-2.05
862.331	32.77
862.505	81.92
862.679	47.1
862.853	16.38
863.027	61.44
863.201	98.3
863.375	-14.34
863.549	90.11
863.722	94.21
863.896	63.49
864.07	61.44
864.244	38.91
864.418	71.68
864.592	36.86
864.766	53.25
864.939	77.82
865.113	-4.1
865.287	24.58
865.461	-8.19
865.634	14.34
865.808	12.29
865.982	-55.3
866.156	28.67
866.329	-34.82
866.503	49.15
866.676	18.43
866.85	69.63
867.024	49.15
867.197	30.72
867.371	69.63
867.544	-61.44
867.718	20.48
867.891	30.72
868.065	-28.67
868.238	-26.62
868.412	145.41
868.585	28.67
868.759	-2.05
868.932	57.34
869.105	26.62
869.279	-63.49
869.452	-10.24
869.625	36.86
869.799	71.68
869.972	47.1
870.145	-24.58
870.319	2.05
870.492	-55.3
870.665	-16.38
870.838	40.96
871.011	-28.67
871.185	4.1
871.358	16.38
871.531	28.67
871.704	-14.34
871.877	38.91
872.05	8.19
872.223	-92.16
872.396	73.73
872.569	8.19
872.742	-2.05
872.915	30.72
873.088	-4.1
873.261	24.58
873.434	51.2
873.607	-24.58
873.78	8.19
873.953	16.38
874.126	22.53
874.299	77.82
874.471	112.64
874.644	12.29
874.817	16.38
874.99	61.44
875.163	-24.58
875.335	40.96
875.508	36.86
875.681	12.29
875.853	2.05
876.026	43.01
876.199	-10.24
876.371	-12.29
876.544	-26.62
876.717	6.14
876.889	-10.24
877.062	36.86
877.234	-16.38
877.407	14.34
877.579	-36.86
877.752	69.63
877.924	32.77
878.097	61.44
878.269	8.19
878.442	53.25
878.614	4.1
878.786	20.48
878.959	36.86
879.131	61.44
879.303	28.67
879.476	-75.77
879.648	57.34
879.82	32.77
879.993	-8.19
880.165	40.96
880.337	-10.24
880.509	63.49
880.681	36.86
880.854	-36.86
881.026	63.49
881.198	57.34
881.37	32.77
881.542	20.48
881.714	28.67
881.886	69.63
882.058	26.62
882.23	-10.24
882.402	-77.82
882.574	32.77
882.746	-18.43
882.918	86.01
883.09	8.19
883.262	20.48
883.434	-36.86
883.606	-86.01
883.778	12.29
883.95	79.87
884.122	10.24
884.293	-20.48
884.465	-32.77
884.637	53.25
884.809	-10.24
884.98	36.86
885.152	53.25
885.324	90.11
885.496	-59.39
885.667	-77.82
885.839	22.53
886.011	51.2
886.182	16.38
886.354	90.11
886.525	-10.24
886.697	96.25
886.869	16.38
887.04	32.77
887.212	61.44
887.383	69.63
887.555	63.49
887.726	69.63
887.897	-24.58
888.069	8.19
888.24	-36.86
888.412	-53.25
888.583	-118.78
888.754	6.14
888.926	-53.25
889.097	-61.44
889.268	-69.63
889.44	-34.82
889.611	22.53
889.782	-12.29
889.953	16.38
890.125	45.06
890.296	-75.77
890.467	2.05
890.638	-26.62
890.809	-14.34
890.98	-45.06
891.151	-6.14
891.323	63.49
891.494	6.14
891.665	12.29
891.836	-8.19
892.007	20.48
892.178	16.38
892.349	69.63
892.52	-8.19
892.691	57.34
892.862	57.34
893.032	-98.3
893.203	-32.77
893.374	-59.39
893.545	26.62
893.716	36.86
893.887	47.1
894.057	-16.38
894.228	20.48
894.399	24.58
894.57	47.1
894.74	4.1
894.911	57.34
895.082	-67.58
895.253	-10.24
895.423	20.48
895.594	65.54
895.764	28.67
895.935	-110.59
896.106	51.2
896.276	73.73
896.447	-53.25
896.617	4.1
896.788	6.14
896.958	36.86
897.129	47.1
897.299	-61.44
897.47	12.29
897.64	-55.3
897.81	69.63
897.981	30.72
898.151	4.1
898.322	16.38
898.492	-73.73
898.662	36.86
898.832	-81.92
899.003	-34.82
899.173	20.48
899.343	-8.19
899.513	-69.63
