Data from USB4F104151__99__14-30-48-068.txt Node

Date: Thu Mar 13 14:30:48 EDT 2025
User: louis
Spectrometer: USB4F10415
Trigger mode: 4
Integration Time (sec): 2.500000E-2
Scans to average: 1
Electric dark correction enabled: true
Nonlinearity correction enabled: false
Boxcar width: 0
XAxis mode: Wavelengths
Number of Pixels in Spectrum: 3648
>>>>>Begin Spectral Data<<<<<
178.204	-102.74
178.424	-102.74
178.644	-102.74
178.864	-190.8
179.084	-96.6
179.304	-12.63
179.524	-29.01
179.744	-37.2
179.964	52.91
180.184	-47.44
180.404	13.99
180.624	52.91
180.844	36.52
181.064	-26.96
181.283	1.71
181.503	9.9
181.723	-14.68
181.943	-33.11
182.163	28.33
182.383	-29.01
182.602	73.39
182.822	95.91
183.042	73.39
183.262	42.67
183.482	100.01
183.701	28.33
183.921	3.75
184.141	9.9
184.361	28.33
184.58	11.95
184.8	50.86
185.02	20.14
185.239	91.82
185.459	1.71
185.679	63.15
185.898	-14.68
186.118	95.91
186.338	38.57
186.557	69.29
186.777	-18.77
186.997	13.99
187.216	36.52
187.436	108.2
187.655	102.06
187.875	87.72
188.095	3.75
188.314	-14.68
188.534	44.71
188.753	71.34
188.973	28.33
189.192	50.86
189.412	42.67
189.631	69.29
189.851	20.14
190.07	67.24
190.29	-20.82
190.509	1.71
190.729	5.8
190.948	110.25
191.168	63.15
191.387	91.82
191.607	-14.68
191.826	28.33
192.045	-67.92
192.265	-24.92
192.484	26.28
192.704	-55.64
192.923	-78.16
193.142	89.77
193.362	11.95
193.581	26.28
193.8	-84.31
194.02	83.63
194.239	13.99
194.458	65.19
194.678	1.71
194.897	-6.49
195.116	-6.49
195.335	18.09
195.555	65.19
195.774	69.29
195.993	110.25
196.212	11.95
196.432	34.47
196.651	-14.68
196.87	9.9
197.089	126.63
197.308	20.14
197.528	59.05
197.747	67.24
197.966	69.29
198.185	116.39
198.404	110.25
198.623	61.1
198.842	83.63
199.062	79.53
199.281	116.39
199.5	59.05
199.719	16.04
199.938	79.53
200.157	50.86
200.376	30.38
200.595	38.57
200.814	124.58
201.033	-37.2
201.252	69.29
201.471	5.8
201.69	-12.63
201.909	9.9
202.128	124.58
202.347	85.67
202.566	18.09
202.785	18.09
203.004	59.05
203.223	83.63
203.442	18.09
203.661	5.8
203.879	79.53
204.098	-14.68
204.317	46.76
204.536	83.63
204.755	34.47
204.974	26.28
205.193	79.53
205.411	151.21
205.63	26.28
205.849	-2.39
206.068	32.43
206.287	-6.49
206.505	22.19
206.724	32.43
206.943	71.34
207.162	-2.39
207.381	-6.49
207.599	20.14
207.818	79.53
208.037	42.67
208.255	-43.35
208.474	63.15
208.693	108.2
208.911	-2.39
209.13	79.53
209.349	34.47
209.567	71.34
209.786	28.33
210.005	-26.96
210.223	-2.39
210.442	-61.78
210.661	59.05
210.879	110.25
211.098	54.95
211.316	18.09
211.535	50.86
211.753	44.71
211.972	-2.39
212.191	-57.68
212.409	26.28
212.628	83.63
212.846	-33.11
213.065	61.1
213.283	1.71
213.502	18.09
213.72	24.23
213.938	54.95
214.157	44.71
214.375	93.87
214.594	-6.49
214.812	79.53
215.031	95.91
215.249	-82.26
215.467	-6.49
215.686	50.86
215.904	102.06
216.122	34.47
216.341	67.24
216.559	30.38
216.778	83.63
216.996	18.09
217.214	38.57
217.432	91.82
217.651	59.05
217.869	26.28
218.087	34.47
218.306	-14.68
218.524	9.9
218.742	54.95
218.96	38.57
219.179	-22.87
219.397	1.71
219.615	106.15
219.833	1.71
220.051	13.99
220.27	69.29
220.488	91.82
220.706	9.9
220.924	30.38
221.142	13.99
221.36	34.47
221.578	120.49
221.796	44.71
222.015	91.82
222.233	11.95
222.451	100.01
222.669	16.04
222.887	50.86
223.105	-63.83
223.323	1.71
223.541	7.85
223.759	163.5
223.977	50.86
224.195	91.82
224.413	16.04
224.631	71.34
224.849	-2.39
225.067	67.24
225.285	61.1
225.503	54.95
225.721	5.8
225.939	36.52
226.157	-31.06
226.375	179.88
226.592	-4.44
226.81	34.47
227.028	30.38
227.246	59.05
227.464	40.62
227.682	26.28
227.9	83.63
228.117	42.67
228.335	20.14
228.553	34.47
228.771	100.01
228.989	52.91
229.206	11.95
229.424	-20.82
229.642	11.95
229.86	1.71
230.077	83.63
230.295	108.2
230.513	63.15
230.731	-53.59
230.948	91.82
231.166	75.43
231.384	34.47
231.601	63.15
231.819	42.67
232.037	42.67
232.254	-24.92
232.472	-20.82
232.689	-12.63
232.907	42.67
233.125	54.95
233.342	20.14
233.56	44.71
233.777	1.71
233.995	-37.2
234.213	91.82
234.43	44.71
234.648	26.28
234.865	9.9
235.083	-18.77
235.3	22.19
235.518	73.39
235.735	100.01
235.953	59.05
236.17	28.33
236.388	50.86
236.605	34.47
236.822	36.52
237.04	59.05
237.257	128.68
237.475	3.75
237.692	112.3
237.909	1.71
238.127	-6.49
238.344	67.24
238.562	116.39
238.779	-26.96
238.996	54.95
239.214	36.52
239.431	93.87
239.648	-10.58
239.865	-6.49
240.083	79.53
240.3	34.47
240.517	-18.77
240.735	34.47
240.952	71.34
241.169	83.63
241.386	5.8
241.603	79.53
241.821	-14.68
242.038	100.01
242.255	42.67
242.472	-55.64
242.689	59.05
242.907	18.09
243.124	61.1
243.341	42.67
243.558	116.39
243.775	-2.39
243.992	34.47
244.209	59.05
244.426	93.87
244.643	108.2
244.86	65.19
245.078	50.86
245.295	71.34
245.512	104.11
245.729	-84.31
245.946	69.29
246.163	44.71
246.38	50.86
246.597	46.76
246.814	54.95
247.031	-43.35
247.248	9.9
247.464	110.25
247.681	77.48
247.898	28.33
248.115	34.47
248.332	1.71
248.549	67.24
248.766	63.15
248.983	120.49
249.2	138.92
249.417	18.09
249.633	34.47
249.85	116.39
250.067	-51.54
250.284	9.9
250.501	91.82
250.717	36.52
250.934	-4.44
251.151	63.15
251.368	7.85
251.585	1.71
251.801	-10.58
252.018	124.58
252.235	112.3
252.451	9.9
252.668	30.38
252.885	75.43
253.102	57
253.318	44.71
253.535	48.81
253.752	22.19
253.968	26.28
254.185	34.47
254.401	79.53
254.618	67.24
254.835	26.28
255.051	54.95
255.268	48.81
255.484	34.47
255.701	34.47
255.917	71.34
256.134	1.71
256.351	36.52
256.567	34.47
256.784	46.76
257	18.09
257.217	77.48
257.433	93.87
257.65	75.43
257.866	91.82
258.082	-18.77
258.299	50.86
258.515	38.57
258.732	36.52
258.948	50.86
259.165	59.05
259.381	75.43
259.597	93.87
259.814	104.11
260.03	102.06
260.246	1.71
260.463	75.43
260.679	75.43
260.895	42.67
261.112	22.19
261.328	40.62
261.544	34.47
261.761	124.58
261.977	87.72
262.193	-10.58
262.409	67.24
262.626	46.76
262.842	73.39
263.058	3.75
263.274	57
263.49	46.76
263.707	18.09
263.923	75.43
264.139	1.71
264.355	87.72
264.571	87.72
264.787	9.9
265.004	83.63
265.22	95.91
265.436	11.95
265.652	67.24
265.868	24.23
266.084	42.67
266.3	13.99
266.516	11.95
266.732	75.43
266.948	38.57
267.164	-63.83
267.38	52.91
267.596	75.43
267.812	149.16
268.028	22.19
268.244	69.29
268.46	108.2
268.676	9.9
268.892	87.72
269.108	-74.07
269.324	46.76
269.54	34.47
269.756	13.99
269.972	26.28
270.188	26.28
270.403	-35.16
270.619	67.24
270.835	46.76
271.051	9.9
271.267	34.47
271.483	126.63
271.698	67.24
271.914	75.43
272.13	61.1
272.346	11.95
272.562	26.28
272.777	83.63
272.993	126.63
273.209	42.67
273.425	77.48
273.64	9.9
273.856	128.68
274.072	73.39
274.287	20.14
274.503	44.71
274.719	46.76
274.934	79.53
275.15	-20.82
275.366	79.53
275.581	-12.63
275.797	16.04
276.012	59.05
276.228	38.57
276.444	77.48
276.659	87.72
276.875	54.95
277.09	34.47
277.306	-6.49
277.521	-4.44
277.737	26.28
277.952	11.95
278.168	54.95
278.383	83.63
278.599	-6.49
278.814	-39.25
279.03	44.71
279.245	91.82
279.461	9.9
279.676	52.91
279.892	-12.63
280.107	-6.49
280.322	-59.73
280.538	44.71
280.753	42.67
280.969	20.14
281.184	20.14
281.399	69.29
281.615	46.76
281.83	13.99
282.045	26.28
282.26	79.53
282.476	3.75
282.691	-2.39
282.906	42.67
283.122	52.91
283.337	22.19
283.552	-2.39
283.767	97.96
283.983	52.91
284.198	22.19
284.413	34.47
284.628	-55.64
284.843	1.71
285.058	61.1
285.274	18.09
285.489	-47.44
285.704	128.68
285.919	32.43
286.134	18.09
286.349	40.62
286.564	67.24
286.779	102.06
286.995	50.86
287.21	-16.73
287.425	128.68
287.64	-31.06
287.855	48.81
288.07	52.91
288.285	112.3
288.5	59.05
288.715	59.05
288.93	116.39
289.145	50.86
289.36	50.86
289.575	22.19
289.79	106.15
290.004	-39.25
290.219	38.57
290.434	46.76
290.649	22.19
290.864	5.8
291.079	1.71
291.294	46.76
291.509	3.75
291.724	-78.16
291.938	57
292.153	42.67
292.368	1.71
292.583	69.29
292.798	155.3
293.012	52.91
293.227	67.24
293.442	59.05
293.657	67.24
293.871	67.24
294.086	38.57
294.301	151.21
294.516	30.38
294.73	54.95
294.945	46.76
295.16	9.9
295.374	85.67
295.589	34.47
295.804	34.47
296.018	-39.25
296.233	30.38
296.447	87.72
296.662	3.75
296.877	108.2
297.091	18.09
297.306	46.76
297.52	1.71
297.735	42.67
297.949	28.33
298.164	42.67
298.378	30.38
298.593	77.48
298.807	-22.87
299.022	32.43
299.236	28.33
299.451	30.38
299.665	-10.58
299.88	5.8
300.094	46.76
300.309	59.05
300.523	-6.49
300.737	-12.63
300.952	-22.87
301.166	149.16
301.381	91.82
301.595	77.48
301.809	100.01
302.024	-14.68
302.238	18.09
302.452	32.43
302.667	46.76
302.881	112.3
303.095	61.1
303.309	-12.63
303.524	54.95
303.738	65.19
303.952	28.33
304.166	54.95
304.381	-90.45
304.595	52.91
304.809	77.48
305.023	104.11
305.237	30.38
305.452	-0.34
305.666	1.71
305.88	67.24
306.094	118.44
306.308	104.11
306.522	69.29
306.736	93.87
306.95	69.29
307.164	52.91
307.379	50.86
307.593	83.63
307.807	95.91
308.021	104.11
308.235	40.62
308.449	9.9
308.663	1.71
308.877	36.52
309.091	22.19
309.305	100.01
309.519	24.23
309.733	116.39
309.947	52.91
310.161	46.76
310.374	9.9
310.588	59.05
310.802	36.52
311.016	34.47
311.23	100.01
311.444	26.28
311.658	67.24
311.872	126.63
312.085	13.99
312.299	71.34
312.513	57
312.727	91.82
312.941	-29.01
313.154	97.96
313.368	83.63
313.582	26.28
313.796	5.8
314.009	34.47
314.223	104.11
314.437	110.25
314.651	102.06
314.864	5.8
315.078	85.67
315.292	67.24
315.505	28.33
315.719	91.82
315.933	87.72
316.146	67.24
316.36	67.24
316.573	75.43
316.787	34.47
317.001	18.09
317.214	18.09
317.428	67.24
317.641	-22.87
317.855	100.01
318.068	87.72
318.282	9.9
318.495	102.06
318.709	-6.49
318.922	63.15
319.136	61.1
319.349	108.2
319.563	34.47
319.776	5.8
319.99	-24.92
320.203	89.77
320.417	75.43
320.63	81.58
320.843	132.78
321.057	124.58
321.27	57
321.483	36.52
321.697	61.1
321.91	-29.01
322.124	34.47
322.337	100.01
322.55	54.95
322.763	91.82
322.977	59.05
323.19	36.52
323.403	59.05
323.617	67.24
323.83	67.24
324.043	32.43
324.256	102.06
324.469	-10.58
324.683	71.34
324.896	75.43
325.109	114.34
325.322	61.1
325.535	100.01
325.748	77.48
325.962	18.09
326.175	71.34
326.388	93.87
326.601	9.9
326.814	52.91
327.027	-37.2
327.24	128.68
327.453	-35.16
327.666	42.67
327.879	116.39
328.092	20.14
328.305	50.86
328.518	52.91
328.731	3.75
328.944	71.34
329.157	108.2
329.37	42.67
329.583	100.01
329.796	52.91
330.009	67.24
330.222	42.67
330.435	9.9
330.648	59.05
330.861	42.67
331.073	87.72
331.286	52.91
331.499	151.21
331.712	-29.01
331.925	50.86
332.138	42.67
332.35	157.35
332.563	-14.68
332.776	42.67
332.989	61.1
333.202	61.1
333.414	42.67
333.627	85.67
333.84	28.33
334.053	85.67
334.265	-26.96
334.478	52.91
334.691	75.43
334.903	122.54
335.116	44.71
335.329	83.63
335.541	91.82
335.754	91.82
335.966	61.1
336.179	50.86
336.392	75.43
336.604	-14.68
336.817	59.05
337.029	83.63
337.242	7.85
337.454	22.19
337.667	59.05
337.88	124.58
338.092	59.05
338.305	79.53
338.517	54.95
338.729	50.86
338.942	126.63
339.154	83.63
339.367	69.29
339.579	132.78
339.792	26.28
340.004	102.06
340.217	59.05
340.429	57
340.641	42.67
340.854	18.09
341.066	1.71
341.278	153.26
341.491	83.63
341.703	118.44
341.915	36.52
342.128	26.28
342.34	48.81
342.552	30.38
342.764	-2.39
342.977	75.43
343.189	104.11
343.401	134.82
343.613	30.38
343.826	100.01
344.038	-6.49
344.25	106.15
344.462	110.25
344.674	145.06
344.886	52.91
345.099	95.91
345.311	38.57
345.523	1.71
345.735	44.71
345.947	75.43
346.159	75.43
346.371	181.93
346.583	57
346.795	151.21
347.007	22.19
347.219	102.06
347.431	71.34
347.643	73.39
347.855	16.04
348.067	63.15
348.279	30.38
348.491	102.06
348.703	73.39
348.915	50.86
349.127	1.71
349.339	85.67
349.551	91.82
349.763	67.24
349.975	71.34
350.187	59.05
350.399	91.82
350.61	108.2
350.822	102.06
351.034	116.39
351.246	-12.63
351.458	71.34
351.669	36.52
351.881	59.05
352.093	59.05
352.305	79.53
352.517	61.1
352.728	50.86
352.94	116.39
353.152	89.77
353.363	40.62
353.575	67.24
353.787	77.48
353.999	13.99
354.21	54.95
354.422	-22.87
354.633	30.38
354.845	59.05
355.057	87.72
355.268	63.15
355.48	116.39
355.692	50.86
355.903	104.11
356.115	85.67
356.326	65.19
356.538	93.87
356.749	61.1
356.961	24.23
357.172	36.52
357.384	75.43
357.595	130.73
357.807	1.71
358.018	50.86
358.23	-55.64
358.441	83.63
358.653	20.14
358.864	59.05
359.075	34.47
359.287	69.29
359.498	120.49
359.709	116.39
359.921	130.73
360.132	67.24
360.344	59.05
360.555	69.29
360.766	83.63
360.977	1.71
361.189	59.05
361.4	126.63
361.611	126.63
361.823	110.25
362.034	75.43
362.245	54.95
362.456	50.86
362.667	89.77
362.879	63.15
363.09	48.81
363.301	-8.53
363.512	36.52
363.723	61.1
363.935	34.47
364.146	165.54
364.357	116.39
364.568	1.71
364.779	50.86
364.99	120.49
365.201	77.48
365.412	34.47
365.623	-8.53
365.834	42.67
366.045	67.24
366.256	114.34
366.467	59.05
366.678	22.19
366.889	-20.82
367.1	22.19
367.311	104.11
367.522	42.67
367.733	108.2
367.944	59.05
368.155	9.9
368.366	85.67
368.577	67.24
368.788	61.1
368.999	46.76
369.209	28.33
369.42	106.15
369.631	165.54
369.842	118.44
370.053	42.67
370.264	114.34
370.474	5.8
370.685	140.97
370.896	67.24
371.107	112.3
371.317	83.63
371.528	165.54
371.739	192.17
371.95	83.63
372.16	81.58
372.371	-18.77
372.582	30.38
372.792	26.28
373.003	67.24
373.214	5.8
373.424	50.86
373.635	-0.34
373.846	124.58
374.056	59.05
374.267	83.63
374.477	79.53
374.688	48.81
374.898	42.67
375.109	46.76
375.319	-6.49
375.53	87.72
375.74	97.96
375.951	100.01
376.161	91.82
376.372	57
376.582	34.47
376.793	69.29
377.003	50.86
377.214	1.71
377.424	77.48
377.635	24.23
377.845	87.72
378.055	73.39
378.266	97.96
378.476	67.24
378.686	87.72
378.897	69.29
379.107	63.15
379.317	132.78
379.528	116.39
379.738	190.12
379.948	28.33
380.158	61.1
380.369	59.05
380.579	50.86
380.789	63.15
380.999	85.67
381.21	140.97
381.42	108.2
381.63	91.82
381.84	59.05
382.05	67.24
382.261	75.43
382.471	77.48
382.681	22.19
382.891	79.53
383.101	149.16
383.311	42.67
383.521	67.24
383.731	22.19
383.941	138.92
384.151	59.05
384.361	67.24
384.571	87.72
384.781	22.19
384.991	110.25
385.201	132.78
385.411	52.91
385.621	46.76
385.831	81.58
386.041	110.25
386.251	104.11
386.461	104.11
386.671	71.34
386.881	95.91
387.091	116.39
387.301	116.39
387.511	36.52
387.72	69.29
387.93	134.82
388.14	28.33
388.35	7.85
388.56	110.25
388.769	112.3
388.979	120.49
389.189	34.47
389.399	18.09
389.609	177.83
389.818	153.26
390.028	75.43
390.238	50.86
390.447	-29.01
390.657	110.25
390.867	50.86
391.076	42.67
391.286	67.24
391.496	83.63
391.705	38.57
391.915	153.26
392.125	145.06
392.334	138.92
392.544	118.44
392.753	140.97
392.963	73.39
393.172	104.11
393.382	95.91
393.591	161.45
393.801	44.71
394.01	181.93
394.22	-12.63
394.429	93.87
394.639	22.19
394.848	108.2
395.058	132.78
395.267	177.83
395.477	83.63
395.686	159.4
395.895	167.59
396.105	161.45
396.314	159.4
396.524	75.43
396.733	87.72
396.942	93.87
397.152	134.82
397.361	226.98
397.57	120.49
397.78	63.15
397.989	124.58
398.198	153.26
398.407	177.83
398.617	112.3
398.826	136.87
399.035	151.21
399.244	165.54
399.453	108.2
399.663	110.25
399.872	165.54
400.081	153.26
400.29	210.6
400.499	124.58
400.708	198.31
400.917	192.17
401.127	190.12
401.336	239.27
401.545	300.71
401.754	210.6
401.963	155.3
402.172	165.54
402.381	157.35
402.59	190.12
402.799	173.74
403.008	153.26
403.217	169.64
403.426	192.17
403.635	132.78
403.844	247.46
404.053	165.54
404.262	222.89
404.471	261.8
404.68	308.9
404.888	218.79
405.097	186.02
405.306	239.27
405.515	288.42
405.724	200.36
405.933	175.78
406.142	226.98
406.35	237.22
406.559	272.04
406.768	261.8
406.977	298.66
407.185	351.91
407.394	329.38
407.603	282.28
407.812	231.08
408.02	386.72
408.229	382.63
408.438	323.24
408.646	384.68
408.855	411.3
409.064	374.44
409.272	317.09
409.481	429.73
409.69	409.25
409.898	405.16
410.107	396.96
410.315	468.64
410.524	429.73
410.733	513.7
410.941	501.41
411.15	519.84
411.358	609.95
411.567	618.15
411.775	480.93
411.984	568.99
412.192	583.33
412.401	597.67
412.609	648.86
412.818	691.87
413.026	720.54
413.234	738.98
413.443	741.02
413.651	724.64
413.86	820.89
414.068	970.4
414.276	943.77
414.485	888.48
414.693	964.25
414.901	982.68
415.11	1083.03
415.318	1097.37
415.526	1109.66
415.734	1138.33
415.943	1107.61
416.151	1148.57
416.359	1167
416.567	1257.11
416.776	1279.64
416.984	1406.61
417.192	1414.81
417.4	1418.9
417.608	1443.48
417.817	1453.72
418.025	1730.19
418.233	1685.14
418.441	1625.75
418.649	1746.58
418.857	1918.61
419.065	1937.04
419.273	1855.12
419.481	2018.96
419.689	2141.83
419.897	2281.1
420.105	2207.37
420.313	2332.3
420.521	2434.69
420.729	2393.73
420.937	2414.21
421.145	2573.96
421.353	2727.55
421.561	2938.49
421.769	2848.38
421.977	2893.44
422.185	3008.12
422.393	3305.08
422.601	3331.7
422.809	3303.03
423.017	3303.03
423.224	3450.49
423.432	3864.18
423.64	3704.43
423.848	4095.6
424.056	3966.57
424.263	4226.67
424.471	4253.29
424.679	4279.91
424.887	4583.01
425.094	4601.44
425.302	4814.43
425.51	4816.48
425.718	5015.13
425.925	5002.85
426.133	5185.12
426.341	5615.19
426.548	5785.17
426.756	5834.32
426.964	5887.57
427.171	6012.49
427.379	6237.77
427.586	6499.91
427.794	6606.41
428.001	6893.12
428.209	7343.67
428.417	7073.34
428.624	7753.27
428.832	7622.2
429.039	7630.39
429.247	7554.62
429.454	8054.32
429.662	8777.25
429.869	8271.4
430.076	9172.51
430.284	8570.41
430.491	9258.53
430.699	9537.05
430.906	9365.02
431.114	9639.45
431.321	10036.75
431.528	10079.76
431.736	10827.27
431.943	11312.64
432.15	11001.35
432.358	11101.7
432.565	11689.46
432.772	11576.83
432.979	12260.85
433.187	12631.53
433.394	12428.78
433.601	13336.03
433.808	13352.41
434.016	13290.98
434.223	13899.22
434.43	14720.46
434.637	14427.6
434.844	15533.5
435.052	15576.51
435.259	15576.51
435.466	15609.28
435.673	15330.75
435.88	16616.88
436.087	17274.28
436.294	17599.9
436.501	16969.13
436.708	17141.16
436.915	17724.83
437.122	18711.95
437.329	18451.86
437.537	19254.66
437.743	19707.26
437.95	19365.25
438.157	20278.65
438.364	21042.54
438.571	20940.14
438.778	21271.91
438.985	23219.53
439.192	22127.96
439.399	22734.16
439.606	22123.87
439.813	23659.84
440.02	24915.25
440.227	24419.64
440.433	24235.32
440.64	25021.74
440.847	25050.41
441.054	25646.37
441.261	27401.48
441.467	26916.11
441.674	27432.2
441.881	28382.46
442.088	28294.39
442.294	28065.02
442.501	28564.73
442.708	29142.25
442.914	30688.47
443.121	31513.8
443.328	30837.97
443.534	32900.28
443.741	32257.21
443.948	31732.93
444.154	33821.86
444.361	33825.96
444.568	33981.6
444.774	34229.41
444.981	34485.4
445.187	35284.11
445.394	36787.32
445.6	36279.43
445.807	39513.17
446.013	37882.98
446.22	39183.44
446.426	40207.43
446.633	40676.41
446.839	42011.69
447.046	40100.93
447.252	42478.63
447.459	42437.67
447.665	42433.57
447.871	44350.47
448.078	46019.56
448.284	43801.61
448.491	44938.24
448.697	46351.34
448.903	47174.62
449.11	47053.79
449.316	46511.08
449.522	47979.47
449.728	49116.09
449.935	49425.34
450.141	49071.04
450.347	50379.69
450.553	48774.08
450.76	49238.97
450.966	50959.27
451.172	49984.43
451.378	51510.17
451.584	50830.24
451.791	51909.52
451.997	51889.04
452.203	52339.6
452.409	52337.55
452.615	52198.29
452.821	50322.35
453.027	49728.44
453.233	52022.16
453.44	50138.03
453.646	50779.04
453.852	50963.36
454.058	51557.27
454.264	50125.74
454.47	51313.56
454.676	50023.34
454.882	51360.67
455.088	47545.3
455.294	48311.24
455.5	49247.16
455.705	49294.27
455.911	47328.22
456.117	46293.99
456.323	46031.85
456.529	43492.37
456.735	45300.73
456.941	44301.32
457.147	43637.78
457.352	42073.13
457.558	42239.01
457.764	41927.72
457.97	40567.87
458.176	40369.22
458.381	40328.26
458.587	38169.7
458.793	38427.74
458.999	36396.16
459.204	38906.97
459.41	37837.93
459.616	35132.56
459.821	35245.2
460.027	35292.3
460.233	34098.34
460.438	32898.23
460.644	33330.35
460.85	31364.3
461.055	31190.22
461.261	30944.47
461.466	28644.6
461.672	28003.58
461.878	30094.56
462.083	28118.27
462.289	27385.1
462.494	27280.65
462.7	25994.53
462.905	24988.97
463.111	26242.33
463.316	26043.68
463.522	25453.86
463.727	25515.3
463.932	25677.09
464.138	25228.59
464.343	25046.32
464.549	24378.68
464.754	25351.46
464.959	25425.19
465.165	25320.74
465.37	23895.36
465.575	23248.2
465.781	24378.68
465.986	24446.26
466.191	23663.94
466.397	23057.74
466.602	21941.6
466.807	22947.15
467.012	22709.58
467.218	22728.02
467.423	22439.25
467.628	22416.72
467.833	23387.46
468.038	22375.77
468.244	21865.82
468.449	22791.5
468.654	21865.82
468.859	22041.95
469.064	21357.92
469.269	20913.52
469.474	21288.29
469.679	21241.19
469.885	20753.77
470.09	21077.35
470.295	20827.5
470.5	20430.19
470.705	20256.12
470.91	20092.28
471.115	19776.89
471.32	20221.3
471.525	20297.08
471.73	19707.26
471.935	19322.24
472.139	18744.72
472.344	18898.31
472.549	18988.42
472.754	18412.95
472.959	18236.82
473.164	18085.27
473.369	17868.19
473.574	18363.79
473.778	18245.01
473.983	17837.47
474.188	17706.4
474.393	16670.12
474.598	17214.88
474.802	17092.01
475.007	16833.96
475.212	16864.68
475.417	15961.53
475.621	16111.03
475.826	16434.61
476.031	16045.49
476.235	15769.02
476.44	15941.05
476.645	15545.79
476.849	15549.89
477.054	15230.4
477.259	15330.75
477.463	15179.2
477.668	14763.47
477.872	15070.66
478.077	14667.21
478.282	14468.56
478.486	14360.02
478.691	14429.65
478.895	14110.16
479.1	14136.79
479.304	14095.83
479.509	13665.75
479.713	14167.51
479.918	13667.8
480.122	13565.4
480.326	13626.84
480.531	13733.34
480.735	13534.68
480.94	13618.65
481.144	13669.85
481.348	13092.32
481.553	13204.96
481.757	13057.51
481.961	13512.16
482.166	13417.95
482.37	13186.53
482.574	12840.42
482.778	13022.69
482.983	13407.71
483.187	13069.8
483.391	13133.28
483.595	12887.53
483.8	13028.84
484.004	13014.5
484.208	13194.72
484.412	12887.53
484.616	12901.86
484.821	12932.58
485.025	12719.59
485.229	12961.25
485.433	12946.92
485.637	12838.37
485.841	12969.44
486.045	12828.13
486.249	13178.34
486.453	12860.9
486.657	12928.49
486.861	13032.93
487.065	12744.17
487.269	12930.53
487.473	12791.27
487.677	12934.63
487.881	13188.58
488.085	12955.11
488.289	13004.26
488.493	12772.84
488.697	13034.98
488.901	12764.65
489.105	12920.29
489.309	13166.05
489.512	13094.37
489.716	13043.17
489.92	13086.18
490.124	13116.9
490.328	13211.11
490.531	13045.22
490.735	13448.67
490.939	13315.55
491.143	13145.57
491.346	13143.52
491.55	13530.59
491.754	13207.01
491.958	13305.31
492.161	13293.02
492.365	13362.65
492.569	13381.09
492.772	13305.31
492.976	13495.77
493.18	13729.24
493.383	13848.02
493.587	14046.68
493.79	14333.39
493.994	13788.63
494.197	14155.22
494.401	13954.52
494.605	13987.29
494.808	14284.24
495.012	14167.51
495.215	14122.45
495.419	14587.34
495.622	14804.42
495.825	14622.16
496.029	14661.07
496.232	15039.94
496.436	14984.65
496.639	15152.58
496.843	15324.61
497.046	15510.97
497.249	15496.64
497.453	15760.83
497.656	15902.14
497.859	15928.76
498.063	15975.86
498.266	16401.84
498.469	16205.24
498.673	16424.37
498.876	16721.32
499.079	16868.78
499.282	16932.26
499.485	17067.43
499.689	17214.88
499.892	17280.42
500.095	17268.13
500.298	17991.06
500.501	17776.03
500.705	18486.67
500.908	18449.81
501.111	18613.65
501.314	18634.13
501.517	18945.42
501.72	19348.87
501.923	18955.66
502.126	19516.8
502.329	19600.77
502.532	19826.04
502.735	19916.15
502.938	20262.26
503.141	20522.35
503.344	20673.9
503.547	20651.38
503.75	21056.87
503.953	21448.04
504.156	21613.92
504.359	21570.91
504.562	22025.56
504.765	22334.81
504.968	22613.33
505.17	22621.52
505.373	22723.92
505.576	23207.24
505.779	23301.45
505.982	23500.1
506.185	23711.04
506.387	23813.44
506.59	23987.52
506.793	24292.66
506.996	24329.53
507.198	24917.29
507.401	24995.12
507.604	25244.97
507.807	25672.99
508.009	25959.71
508.212	25845.02
508.415	26430.74
508.617	26772.75
508.82	26686.74
509.022	26684.69
509.225	27475.21
509.428	27829.51
509.63	28095.74
509.833	28087.55
510.035	28869.87
510.238	28169.47
510.44	28865.78
510.643	29412.59
510.845	29207.79
511.048	29490.41
511.25	29666.53
511.453	30090.46
511.655	31036.63
511.858	31001.81
512.06	31141.07
512.262	31153.36
512.465	31562.95
512.667	31601.86
512.87	32224.45
513.072	32144.58
513.274	32621.75
513.477	32922.8
513.679	33250.48
513.881	33291.44
514.084	33961.12
514.286	33911.97
514.488	34215.07
514.69	35261.58
514.893	35550.35
515.095	35030.16
515.297	35409.04
515.499	35984.52
515.701	36142.21
515.904	36308.1
516.106	36852.86
516.308	37045.37
516.51	37719.15
516.712	37151.86
516.914	37981.29
517.116	38360.16
517.318	38130.79
517.52	38837.34
517.722	38632.54
517.925	39281.75
518.127	39615.57
518.329	40135.75
518.531	40209.48
518.733	40739.9
518.935	40488
519.136	40682.56
519.338	41370.68
519.54	41272.37
519.742	41933.87
519.944	41845.8
520.146	42257.45
520.348	42476.58
520.55	42388.52
520.752	42923.04
520.954	43572.24
521.155	43275.29
521.357	43818
521.559	44030.99
521.761	44520.45
521.963	44321.8
522.164	44276.74
522.366	44635.14
522.568	44725.25
522.77	45616.11
522.971	45734.9
523.173	45528.05
523.375	45882.35
523.576	45829.1
523.778	45878.25
523.98	46965.73
524.181	46601.19
524.383	46719.97
524.584	47102.94
524.786	46978.01
524.988	47240.15
525.189	47608.79
525.391	47346.65
525.592	47639.51
525.794	47811.54
525.995	47879.12
526.197	48053.2
526.398	47938.51
526.6	48362.44
526.801	48729.03
527.003	48606.15
527.204	48358.34
527.406	48266.19
527.607	48460.74
527.808	48968.64
528.01	47586.26
528.211	48577.48
528.412	49118.14
528.614	49249.21
528.815	49068.99
529.016	49056.7
529.218	48708.55
529.419	49011.65
529.62	48888.77
529.822	48847.81
530.023	48796.61
530.224	48864.19
530.425	48806.85
530.626	48452.55
530.828	47997.9
531.029	49548.21
531.23	48815.04
531.431	48692.16
531.632	48554.95
531.833	48819.14
532.035	48991.17
532.236	48896.96
532.437	49187.77
532.638	48602.05
532.839	48905.15
533.04	48778.18
533.241	48387.02
533.442	49304.51
533.643	48843.71
533.844	48749.51
534.045	49093.57
534.246	47971.28
534.447	48757.7
534.648	48192.46
534.849	48565.19
535.05	47864.78
535.251	48102.35
535.451	48124.88
535.652	48362.44
535.853	47752.15
536.054	47922.13
536.255	48548.81
536.456	47588.31
536.657	48239.56
536.857	48053.2
537.058	47434.71
537.259	48094.16
537.46	47825.87
537.66	47430.61
537.861	47791.06
538.062	47733.71
538.263	47985.61
538.463	47621.08
538.664	47516.63
538.865	47649.75
539.065	48128.97
539.266	47193.05
539.466	47797.2
539.667	47076.32
539.868	47901.65
540.068	47541.21
540.269	47330.26
540.469	47709.14
540.67	46943.2
540.87	47035.36
541.071	47131.61
541.271	47066.08
541.472	47150.04
541.672	46707.68
541.873	46900.19
542.073	46367.72
542.274	46906.33
542.474	46865.38
542.675	46341.1
542.875	47053.79
543.075	46429.16
543.276	46365.67
543.476	47143.9
543.676	46607.33
543.877	47131.61
544.077	46896.1
544.277	46541.8
544.478	46930.91
544.678	46613.48
544.878	46801.89
545.078	46691.3
545.279	46179.31
545.479	46488.55
545.679	46500.84
545.879	46494.69
546.079	46840.8
546.28	46408.68
546.48	45980.65
546.68	46748.64
546.88	46549.99
547.08	46425.06
547.28	46406.63
547.48	46033.9
547.68	46453.73
547.88	46279.66
548.081	46234.6
548.281	46230.51
548.481	46177.26
548.681	46236.65
548.881	46570.47
549.081	46586.85
549.28	46183.4
549.48	46287.85
549.68	46435.3
549.88	46801.89
550.08	46324.71
550.28	46298.09
550.48	46439.4
550.68	46492.65
550.88	46025.71
551.08	46486.5
551.279	46570.47
551.479	46283.75
551.679	46558.18
551.879	46111.72
552.079	46875.62
552.278	46509.03
552.478	46642.15
552.678	46300.14
552.878	46584.8
553.077	46298.09
553.277	46410.73
553.477	47107.04
553.676	46341.1
553.876	46302.18
554.076	46562.28
554.275	46250.98
554.475	45980.65
554.674	46681.06
554.874	46642.15
555.074	46250.98
555.273	46730.21
555.473	46805.98
555.672	46455.78
555.872	46339.05
556.071	46599.14
556.271	46797.79
556.47	46664.67
556.67	46179.31
556.869	46644.19
557.068	46777.31
557.268	46431.21
557.467	46504.93
557.667	46586.85
557.866	46799.84
558.065	46427.11
558.265	46400.49
558.464	46373.86
558.663	46701.54
558.863	45794.29
559.062	47221.72
559.261	46271.46
559.461	46912.48
559.66	45929.45
559.859	46515.17
560.058	46236.65
560.258	46357.48
560.457	46580.71
560.656	46570.47
560.855	46345.19
561.054	46431.21
561.253	45997.04
561.453	46187.5
561.652	46490.6
561.851	46332.9
562.05	46093.29
562.249	45825.01
562.448	46603.24
562.647	46314.47
562.846	46392.29
563.045	46109.68
563.244	45495.28
563.443	46504.93
563.642	45579.25
563.841	45986.8
564.04	45716.47
564.239	46521.32
564.438	45806.58
564.637	46009.32
564.836	46070.76
565.035	45562.87
565.234	46074.86
565.432	45376.5
565.631	45624.31
565.83	45964.27
566.029	45308.92
566.228	45650.93
566.427	45466.61
566.625	45521.91
566.824	45208.57
567.023	45419.51
567.222	44493.83
567.42	44882.94
567.619	45212.66
567.818	44694.53
568.016	45054.97
568.215	45382.65
568.414	44809.21
568.612	45249.53
568.811	44827.65
569.01	44694.53
569.208	44504.07
569.407	44416
569.605	44217.35
569.804	44442.63
570.002	44336.13
570.201	44680.19
570.4	43852.81
570.598	43711.5
570.797	43707.41
570.995	44090.38
571.193	43146.26
571.392	43629.58
571.59	43562
571.789	43947.02
571.987	43400.21
572.186	43281.43
572.384	43392.02
572.582	43441.17
572.781	43639.82
572.979	42769.44
573.177	43088.92
573.376	43097.11
573.574	42527.78
573.772	42601.5
573.971	42251.3
574.169	42187.81
574.367	42062.89
574.565	42562.59
574.763	41843.76
574.962	42138.66
575.16	41489.46
575.358	42103.85
575.556	41638.96
575.754	41921.58
575.952	41442.35
576.151	42087.46
576.349	40858.68
576.547	41219.13
576.745	41059.38
576.943	41325.62
577.141	41038.9
577.339	41325.62
577.537	40862.78
577.735	40762.43
577.933	40553.54
578.131	40473.67
578.329	40391.75
578.527	40438.85
578.725	40369.22
578.923	40131.65
579.121	39795.79
579.319	39787.6
579.516	40164.42
579.714	39904.33
579.912	39730.25
580.11	39457.87
580.308	39869.51
580.506	39664.72
580.704	38820.95
580.901	39320.66
581.099	39474.26
581.297	39269.46
581.495	38884.44
581.692	39500.88
581.89	38923.35
582.088	39095.38
582.285	38603.87
582.483	38612.06
582.681	38362.21
582.878	38640.73
583.076	38186.08
583.274	38386.78
583.471	37911.66
583.669	37950.57
583.866	37504.11
584.064	37960.81
584.262	37577.84
584.459	37860.46
584.657	37278.83
584.854	37909.61
585.052	37235.83
585.249	37270.64
585.447	37207.15
585.644	36680.83
585.841	36846.71
586.039	37112.95
586.236	36547.71
586.434	36758.65
586.631	36752.51
586.828	36772.99
587.026	36529.28
587.223	36381.82
587.42	36271.23
587.618	36539.52
587.815	36148.36
588.012	36084.87
588.21	35775.62
588.407	36093.06
588.604	36148.36
588.801	35648.65
588.999	35687.56
589.196	35587.21
589.393	35691.66
589.59	35308.69
589.787	35517.58
589.984	35341.46
590.182	34763.93
590.379	35384.46
590.576	34817.18
590.773	35380.37
590.97	34794.65
591.167	34987.16
591.364	34782.36
591.561	34710.68
591.758	34653.34
591.955	34432.16
592.152	34622.62
592.349	34557.08
592.546	34296.99
592.743	34319.52
592.94	33985.7
593.137	34317.47
593.334	34186.4
593.531	33762.47
593.727	34149.54
593.924	34393.25
594.121	33842.34
594.318	33836.2
594.515	33678.5
594.712	34092.19
594.908	33203.38
595.105	33764.52
595.302	33320.11
595.499	33846.44
595.696	33457.32
595.892	33275.05
596.089	33727.66
596.286	33694.89
596.482	33371.31
596.679	33273.01
596.876	33442.99
597.072	33019.06
597.269	33266.86
597.466	32926.9
597.662	32890.04
597.859	33193.14
598.055	32801.97
598.252	33033.39
598.448	32900.28
598.645	32916.66
598.841	32738.49
599.038	32842.93
599.234	32754.87
599.431	32439.48
599.627	32650.42
599.824	32875.7
600.02	32703.67
600.217	32349.37
600.413	32509.11
600.609	32429.24
600.806	32251.07
601.002	32371.9
601.198	32171.2
601.395	32517.31
601.591	32193.73
601.787	32281.79
601.984	32339.13
602.18	32509.11
602.376	32349.37
602.572	32072.9
602.769	32560.31
602.965	32224.45
603.161	32312.51
603.357	32378.04
603.553	32140.48
603.75	32545.98
603.946	32023.75
604.142	31874.24
604.338	31939.78
604.534	32298.17
604.73	31909.06
604.926	32091.33
605.122	31990.98
605.318	32001.22
605.514	32226.49
605.71	32040.13
605.906	31835.33
606.102	32120
606.298	32074.95
606.494	31823.05
606.69	32488.63
606.886	32283.84
607.082	31657.16
607.278	31984.83
607.474	31722.69
607.67	32283.84
607.866	31831.24
608.062	32513.21
608.257	31890.63
608.453	31919.3
608.649	32343.23
608.845	31708.36
609.041	32124.1
609.236	31925.44
609.432	32277.69
609.628	32324.8
609.824	32142.53
610.019	32023.75
610.215	31861.96
610.411	32681.14
610.606	31870.15
610.802	32197.82
610.998	31880.39
611.193	32363.71
611.389	32148.67
611.584	32120
611.78	32410.81
611.976	32220.35
612.171	32443.58
612.367	32300.22
612.562	32085.19
612.758	31579.34
612.953	31902.92
613.149	32115.9
613.344	31911.11
613.539	32715.96
613.735	32470.2
613.93	32326.85
614.126	32212.16
614.321	32382.14
614.517	32390.33
614.712	31986.88
614.907	32308.41
615.103	32388.28
615.298	32289.98
615.493	32640.18
615.688	31974.59
615.884	32437.44
616.079	32113.86
616.274	32445.63
616.47	32244.93
616.665	32490.68
616.86	31900.87
617.055	32150.72
617.25	32234.69
617.445	32439.48
617.641	31554.76
617.836	32371.9
618.031	31435.98
618.226	31986.88
618.421	31409.36
618.616	32046.27
618.811	31560.91
619.006	31651.02
619.201	31341.77
619.396	31841.48
619.591	30969.04
619.786	31317.2
619.981	30700.76
620.176	31392.97
620.371	30801.11
620.566	31134.93
620.761	31032.53
620.956	30993.62
621.151	30375.13
621.346	30786.77
621.541	30350.56
621.735	30383.32
621.93	30061.79
622.125	30102.75
622.32	29746.4
622.515	29805.8
622.709	29644.01
622.904	29461.74
623.099	29488.36
623.294	29504.74
623.488	29074.67
623.683	29187.31
623.878	28364.03
624.072	28744.95
624.267	28458.23
624.462	28517.62
624.656	28306.68
624.851	28312.83
625.046	28073.21
625.24	28073.21
625.435	27843.84
625.629	27626.76
625.824	27759.88
626.018	27933.95
626.213	27254.03
626.407	27413.77
626.602	26696.98
626.796	27225.36
626.991	26752.27
627.185	26729.75
627.38	26348.82
627.574	26221.85
627.768	26103.07
627.963	26311.96
628.157	25920.8
628.352	26058.01
628.546	25326.89
628.74	25961.76
628.935	25773.35
629.129	25130.28
629.323	25136.43
629.517	25236.78
629.712	25304.36
629.906	24831.28
630.1	24679.73
630.294	24816.94
630.489	24665.39
630.683	24732.98
630.877	24167.74
631.071	24194.36
631.265	24401.21
631.459	24188.22
631.653	23975.23
631.848	24010.04
632.042	23795.01
632.236	23770.43
632.43	23516.48
632.624	23649.6
632.818	23498.05
633.012	22807.89
633.206	23156.04
633.4	22988.11
633.594	22523.22
633.788	22811.98
633.982	22560.08
634.176	22566.23
634.369	22375.77
634.563	21878.11
634.757	22058.33
634.951	22398.29
635.145	21988.7
635.339	21800.29
635.533	21468.52
635.726	21581.15
635.92	21329.25
636.114	21544.29
636.308	21222.76
636.501	21108.07
636.695	20956.52
636.889	20667.76
637.083	20759.92
637.276	20725.1
637.47	20649.33
637.664	20319.6
637.857	20483.44
638.051	20456.82
638.244	20088.18
638.438	19899.77
638.632	19639.68
638.825	19852.67
639.019	19785.08
639.212	19914.11
639.406	19697.02
639.599	19400.07
639.793	19260.8
639.986	18982.28
640.18	19006.86
640.373	19041.67
640.567	18736.52
640.76	18933.13
640.954	18431.38
641.147	18517.39
641.34	18511.25
641.534	18308.5
641.727	18245.01
641.92	18062.74
642.114	18058.65
642.307	17935.77
642.5	17749.4
642.694	17528.22
642.887	17280.42
643.08	17954.2
643.273	17532.32
643.467	17276.32
643.66	17005.99
643.853	16829.87
644.046	16805.29
644.239	16735.66
644.432	16713.13
644.626	16543.15
644.819	16477.62
645.012	16657.84
645.205	16405.94
645.398	16250.29
645.591	16086.45
645.784	16334.26
645.977	16010.68
646.17	16135.6
646.363	15932.86
646.556	15451.58
646.749	15734.2
646.942	15562.17
647.135	15521.21
647.328	15402.43
647.521	15324.61
647.714	14996.93
647.907	15232.45
648.099	15072.71
648.292	15263.17
648.485	14984.65
648.678	14872.01
648.871	14843.34
649.064	14689.74
649.256	14831.05
649.449	14425.55
649.642	14435.79
649.835	14149.07
650.027	14018
650.22	14022.1
650.413	14235.09
650.605	14054.87
650.798	13995.48
650.991	13819.35
651.183	13858.26
651.376	13540.83
651.568	13657.56
651.761	13356.51
651.954	13542.88
652.146	13231.58
652.339	13194.72
652.531	13321.7
652.724	13403.61
652.916	13235.68
653.109	13147.62
653.301	12895.72
653.494	12977.64
653.686	12932.58
653.879	12764.65
654.071	12930.53
654.263	12735.98
654.456	12418.54
654.648	12430.83
654.84	12393.97
655.033	12615.15
655.225	12543.47
655.417	12334.57
655.61	12287.47
655.802	12209.65
655.994	12133.87
656.186	12154.35
656.379	11943.41
656.571	12041.71
656.763	11939.32
656.955	11699.7
657.148	11683.32
657.34	11609.59
657.532	11636.22
657.724	11550.2
657.916	11605.5
658.108	11382.27
658.3	11320.83
658.492	11124.22
658.684	11292.16
658.876	11040.26
659.068	11150.85
659.26	10962.44
659.452	11027.97
659.644	10989.06
659.836	10741.25
660.028	10800.65
660.22	10604.04
660.412	10614.28
660.604	10556.94
660.796	10432.01
660.988	10561.03
661.18	10376.72
661.372	10376.72
661.563	10180.11
661.755	10192.4
661.947	10122.77
662.139	9954.83
662.331	10100.24
662.522	9995.79
662.714	10049.04
662.906	9709.08
663.097	9850.39
663.289	9791
663.481	9678.36
663.673	9627.16
663.864	9498.14
664.056	9381.4
664.247	9274.91
664.439	9326.11
664.631	9405.98
664.822	9500.19
665.014	9338.4
665.205	9295.39
665.397	9000.48
665.588	9227.81
665.78	8873.51
665.971	9051.68
666.163	8857.12
666.354	8828.45
666.546	8893.99
666.737	8707.62
666.929	8848.93
667.12	8769.06
667.311	8724.01
667.503	8607.27
667.694	8803.88
667.885	8513.06
668.077	8451.63
668.268	8453.67
668.459	8588.84
668.651	8308.27
668.842	8255.02
669.033	8183.34
669.224	8388.14
669.416	8216.11
669.607	8300.08
669.798	8033.84
669.989	8171.05
670.18	8089.14
670.371	8103.47
670.563	8144.43
670.754	8107.57
670.945	7996.98
671.136	7994.93
671.327	7898.67
671.518	7931.44
671.709	7794.23
671.9	7878.19
672.091	7771.7
672.282	7679.54
672.473	7616.05
672.664	7788.08
672.855	7448.12
673.046	7620.15
673.237	7640.63
673.428	7454.26
673.619	7571
673.809	7407.16
674	7611.96
674.191	7323.19
674.382	7433.79
674.573	7310.91
674.764	7345.72
674.954	7390.78
675.145	7075.39
675.336	7077.44
675.527	7177.79
675.717	7093.82
675.908	7087.68
676.099	7194.17
676.289	7204.41
676.48	7177.79
676.671	7224.89
676.861	7198.27
677.052	6950.46
677.243	6889.03
677.433	6958.66
677.624	6866.5
677.814	6770.24
678.005	6895.17
678.195	6739.52
678.386	6899.27
678.576	6702.66
678.767	6741.57
678.957	6805.06
679.148	6905.41
679.338	6929.98
679.529	6790.72
679.719	6669.89
679.909	6897.22
680.1	6774.34
680.29	6645.32
680.481	6645.32
680.671	6817.35
680.861	6737.48
681.052	6555.21
681.242	6606.41
681.432	6858.31
681.622	6604.36
681.813	6678.08
682.003	6456.9
682.193	6467.14
682.383	6630.98
682.573	6481.48
682.764	6581.83
682.954	6381.13
683.144	6510.15
683.334	6432.33
683.524	6534.73
683.714	6438.47
683.904	6346.31
684.094	6393.42
684.284	6469.19
684.474	6379.08
684.664	6485.58
684.854	6364.75
685.044	6315.59
685.234	6469.19
685.424	6293.07
685.614	6301.26
685.804	6174.28
685.994	6215.24
686.184	6243.92
686.374	6147.66
686.564	6223.44
686.753	6151.76
686.943	6149.71
687.133	6162
687.323	5998.16
687.513	6092.37
687.702	6041.17
687.892	5985.87
688.082	6088.27
688.272	6082.13
688.461	6127.18
688.651	5998.16
688.841	5910.1
689.03	5973.58
689.22	5926.48
689.41	5850.71
689.599	5856.85
689.789	6035.02
689.979	5789.27
690.168	6008.4
690.358	5695.06
690.547	5842.51
690.737	5850.71
690.926	5736.02
691.116	5746.26
691.305	5926.48
691.495	5623.38
691.684	5559.89
691.874	5682.77
692.063	5559.89
692.252	5492.31
692.442	5625.43
692.631	5604.95
692.82	5801.55
693.01	5529.17
693.199	5711.44
693.388	5488.21
693.578	5500.5
693.767	5563.99
693.956	5424.73
694.146	5555.8
694.335	5437.02
694.524	5527.13
694.713	5336.67
694.902	5371.48
695.092	5426.78
695.281	5187.16
695.47	5363.29
695.659	5244.51
695.848	5326.43
696.037	5340.76
696.226	5305.95
696.415	5303.9
696.604	5320.28
696.793	5140.06
696.982	5264.99
697.171	5283.42
697.36	5142.11
697.549	5074.53
697.738	5264.99
697.927	5066.33
698.116	5224.03
698.305	5207.64
698.494	5213.79
698.683	4918.88
698.872	5013.09
699.061	5027.42
699.25	4904.54
699.438	5008.99
699.627	5011.04
699.816	5217.88
700.005	4908.64
700.193	4957.79
700.382	5029.47
700.571	4818.53
700.76	5060.19
700.948	4943.46
701.137	4867.68
701.326	4931.17
701.514	4814.43
701.703	4812.39
701.892	4683.36
702.08	4802.15
702.269	4925.02
702.457	4755.04
702.646	4875.87
702.834	4781.67
703.023	4736.61
703.212	4734.56
703.4	4695.65
703.589	4687.46
703.777	4632.16
703.965	4621.92
704.154	4617.83
704.342	4384.36
704.531	4703.84
704.719	4507.24
704.907	4542.05
705.096	4392.55
705.284	4503.14
705.472	4521.57
705.661	4404.84
705.849	4441.7
706.037	4572.77
706.226	4367.98
706.414	4466.28
706.602	4386.41
706.79	4451.94
706.979	4433.51
707.167	4410.98
707.355	4351.59
707.543	4347.5
707.731	4529.77
707.919	4255.34
708.107	4255.34
708.296	4257.39
708.484	4267.63
708.672	4286.06
708.86	4320.87
709.048	4171.37
709.236	4197.99
709.424	4202.09
709.612	4185.71
709.8	4167.28
709.988	4247.15
710.176	4197.99
710.364	4146.8
710.551	4163.18
710.739	4165.23
710.927	4183.66
711.115	4064.88
711.303	3966.57
711.491	4048.49
711.679	4064.88
711.866	3860.08
712.054	3952.24
712.242	3958.38
712.43	4091.5
712.617	3868.27
712.805	3823.22
712.993	3946.09
713.181	3792.5
713.368	3853.94
713.556	3909.23
713.744	3851.89
713.931	4056.68
714.119	3960.43
714.306	3878.51
714.494	3862.13
714.682	3810.93
714.869	3745.39
715.057	3767.92
715.244	3757.68
715.432	3903.09
715.619	3802.74
715.807	3794.54
715.994	3733.11
716.182	3673.71
716.369	3669.62
716.556	3724.91
716.744	3767.92
716.931	3661.43
717.119	3673.71
717.306	3634.8
717.493	3614.32
717.681	3602.04
717.868	3475.06
718.055	3561.08
718.242	3597.94
718.43	3616.37
718.617	3483.25
718.804	3587.7
718.991	3565.17
719.179	3565.17
719.366	3581.56
719.553	3466.87
719.74	3444.34
719.927	3452.53
720.114	3475.06
720.301	3434.1
720.488	3272.31
720.676	3274.36
720.863	3380.86
721.05	3468.92
721.237	3307.13
721.424	3360.38
721.611	3368.57
721.798	3331.7
721.985	3335.8
722.172	3331.7
722.358	3411.57
722.545	3292.79
722.732	3384.95
722.919	3305.08
723.106	3356.28
723.293	3303.03
723.48	3239.55
723.667	3118.72
723.853	3235.45
724.04	3274.36
724.227	3098.24
724.414	3180.15
724.6	3204.73
724.787	3155.58
724.974	3188.35
725.161	3135.1
725.347	3090.04
725.534	3167.87
725.72	3174.01
725.907	3200.63
726.094	3188.35
726.28	3098.24
726.467	3108.48
726.653	2934.4
726.84	3167.87
727.027	3260.02
727.213	2991.74
727.4	3077.76
727.586	3036.8
727.773	3102.33
727.959	3065.47
728.145	2983.55
728.332	3081.85
728.518	2946.69
728.705	2981.5
728.891	3024.51
729.077	2911.87
729.264	2936.45
729.45	2975.36
729.636	2930.3
729.823	2938.49
730.009	2961.02
730.195	3010.17
730.382	2926.21
730.568	2795.14
730.754	2961.02
730.94	2870.91
731.126	2952.83
731.313	2911.87
731.499	2913.92
731.685	2829.95
731.871	2877.05
732.057	2934.4
732.243	2829.95
732.429	2860.67
732.615	2879.1
732.801	2840.19
732.987	2807.42
733.173	2754.18
733.359	2827.9
733.545	2748.03
733.731	2797.18
733.917	2832
734.103	2672.26
734.289	2743.94
734.475	2731.65
734.661	2737.79
734.847	2707.07
735.033	2662.02
735.219	2694.79
735.404	2635.39
735.59	2586.24
735.776	2748.03
735.962	2717.31
736.148	2688.64
736.333	2762.37
736.519	2592.39
736.705	2690.69
736.89	2684.55
737.076	2553.48
737.262	2598.53
737.447	2625.15
737.633	2496.13
737.819	2606.72
738.004	2576
738.19	2578.05
738.375	2508.42
738.561	2623.11
738.747	2463.37
738.932	2567.81
739.118	2551.43
739.303	2500.23
739.489	2520.71
739.674	2543.24
739.859	2477.7
740.045	2455.17
740.23	2535.04
740.416	2385.54
740.601	2541.19
740.786	2498.18
740.972	2360.97
741.157	2453.13
741.342	2274.95
741.528	2295.43
741.713	2303.62
741.898	2379.4
742.084	2221.7
742.269	2438.79
742.454	2266.76
742.639	2223.75
742.824	2154.12
743.01	2281.1
743.195	2412.17
743.38	2238.09
743.565	2320.01
743.75	2207.37
743.935	2256.52
744.12	2223.75
744.305	2160.27
744.49	2240.14
744.675	2092.68
744.86	2164.36
745.045	2154.12
745.23	2143.88
745.415	2027.15
745.6	2125.45
745.785	2190.99
745.97	2240.14
746.155	2096.78
746.34	2078.35
746.525	2135.69
746.71	2164.36
746.895	2131.59
747.079	2043.53
747.264	2154.12
747.449	1918.61
747.634	1951.37
747.819	2000.52
748.003	1984.14
748.188	1930.89
748.373	1955.47
748.557	1920.65
748.742	1844.88
748.927	1918.61
749.111	2066.06
749.296	1875.6
749.481	1889.93
749.665	1844.88
749.85	1904.27
750.034	1799.82
750.219	1863.31
750.404	1816.21
750.588	1896.08
750.773	1779.34
750.957	1812.11
751.141	1836.69
751.326	1797.78
751.51	1607.31
751.695	1715.86
751.879	1824.4
752.064	1775.25
752.248	1674.9
752.432	1779.34
752.617	1705.62
752.801	1664.66
752.985	1707.66
753.17	1566.35
753.354	1689.23
753.538	1586.83
753.722	1599.12
753.907	1549.97
754.091	1488.53
754.275	1592.98
754.459	1531.54
754.643	1664.66
754.828	1627.79
755.012	1580.69
755.196	1478.29
755.38	1394.33
755.564	1447.57
755.748	1461.91
755.932	1539.73
756.116	1470.1
756.3	1451.67
756.484	1476.24
756.668	1492.63
756.852	1418.9
757.036	1427.09
757.22	1418.9
757.404	1302.17
757.588	1386.13
757.772	1445.52
757.956	1332.89
758.14	1402.52
758.323	1392.28
758.507	1369.75
758.691	1316.5
758.875	1336.98
759.059	1263.26
759.242	1377.94
759.426	1322.65
759.61	1304.21
759.794	1240.73
759.977	1222.3
760.161	1418.9
760.345	1371.8
760.528	1275.54
760.712	1201.82
760.895	1216.15
761.079	1246.87
761.263	1183.38
761.446	1199.77
761.63	1232.54
761.813	1189.53
761.997	1167
762.18	1279.64
762.364	1265.3
762.547	1107.61
762.731	1107.61
762.914	1130.14
763.098	1160.86
763.281	1201.82
763.464	1185.43
763.648	1113.75
763.831	1152.67
764.015	1111.71
764.198	1238.68
764.381	1111.71
764.564	1066.65
764.748	1136.28
764.931	1117.85
765.114	1093.27
765.297	1205.91
765.481	1025.69
765.664	1066.65
765.847	1025.69
766.03	1230.49
766.213	1015.45
766.397	1093.27
766.58	1093.27
766.763	1107.61
766.946	939.68
767.129	1134.23
767.312	974.49
767.495	1013.4
767.678	1060.51
767.861	1095.32
768.044	1054.36
768.227	960.16
768.41	982.68
768.593	1017.5
768.776	1054.36
768.959	984.73
769.142	1009.31
769.324	945.82
769.507	1015.45
769.69	958.11
769.873	1025.69
770.056	1105.56
770.239	929.44
770.421	1009.31
770.604	931.48
770.787	911
770.97	882.33
771.152	1027.74
771.335	837.28
771.518	845.47
771.7	962.2
771.883	988.83
772.066	978.59
772.248	878.24
772.431	900.76
772.613	960.16
772.796	915.1
772.978	964.25
773.161	958.11
773.343	824.99
773.526	964.25
773.708	837.28
773.891	865.95
774.073	911
774.256	929.44
774.438	913.05
774.621	814.75
774.803	845.47
774.985	829.09
775.168	814.75
775.35	767.65
775.532	814.75
775.715	763.55
775.897	839.33
776.079	880.29
776.261	927.39
776.444	808.61
776.626	716.45
776.808	806.56
776.99	765.6
777.173	835.23
777.355	747.17
777.537	837.28
777.719	745.12
777.901	714.4
778.083	724.64
778.265	691.87
778.447	738.98
778.629	738.98
778.811	738.98
778.993	687.78
779.175	775.84
779.357	714.4
779.539	700.06
779.721	706.21
779.903	616.1
780.085	599.71
780.267	806.56
780.449	667.3
780.631	612
780.812	730.78
780.994	706.21
781.176	585.38
781.358	616.1
781.54	650.91
781.721	591.52
781.903	657.06
782.085	632.48
782.267	657.06
782.448	599.71
782.63	612
782.812	593.57
782.993	640.67
783.175	609.95
783.357	536.23
783.538	583.33
783.72	542.37
783.901	579.23
784.083	575.14
784.264	544.42
784.446	452.26
784.627	419.49
784.809	591.52
784.99	554.66
785.172	509.6
785.353	487.08
785.535	597.67
785.716	503.46
785.897	540.32
786.079	476.84
786.26	554.66
786.441	568.99
786.623	423.59
786.804	493.22
786.985	558.75
787.167	439.97
787.348	446.12
787.529	519.84
787.71	568.99
787.891	550.56
788.073	493.22
788.254	405.16
788.435	511.65
788.616	427.68
788.797	392.87
788.978	462.5
789.159	370.34
789.34	439.97
789.522	405.16
789.703	403.11
789.884	380.58
790.065	478.88
790.246	448.16
790.427	439.97
790.607	503.46
790.788	380.58
790.969	456.36
791.15	435.88
791.331	368.29
791.512	433.83
791.693	421.54
791.874	339.62
792.054	480.93
792.235	413.35
792.416	407.2
792.597	331.43
792.778	368.29
792.958	413.35
793.139	401.06
793.32	306.85
793.5	360.1
793.681	362.15
793.862	403.11
794.042	413.35
794.223	329.38
794.404	353.96
794.584	337.57
794.765	394.92
794.945	419.49
795.126	370.34
795.306	364.2
795.487	392.87
795.667	353.96
795.848	347.81
796.028	282.28
796.209	421.54
796.389	396.96
796.57	292.52
796.75	329.38
796.93	317.09
797.111	345.77
797.291	304.81
797.471	349.86
797.652	315.05
797.832	296.61
798.012	337.57
798.192	306.85
798.373	321.19
798.553	370.34
798.733	298.66
798.913	349.86
799.093	304.81
799.274	339.62
799.454	325.29
799.634	315.05
799.814	321.19
799.994	239.27
800.174	276.13
800.354	265.89
800.534	255.65
800.714	329.38
800.894	243.37
801.074	282.28
801.254	222.89
801.434	327.33
801.614	274.09
801.794	239.27
801.974	900.76
802.154	298.66
802.334	317.09
802.514	231.08
802.693	202.41
802.873	175.78
803.053	222.89
803.233	241.32
803.413	292.52
803.592	226.98
803.772	302.76
803.952	181.93
804.131	173.74
804.311	343.72
804.491	222.89
804.67	208.55
804.85	290.47
805.03	241.32
805.209	272.04
805.389	151.21
805.568	259.75
805.748	167.59
805.928	157.35
806.107	286.37
806.287	224.94
806.466	157.35
806.646	186.02
806.825	218.79
807.004	202.41
807.184	167.59
807.363	243.37
807.543	235.18
807.722	198.31
807.901	222.89
808.081	188.07
808.26	177.83
808.439	233.13
808.619	222.89
808.798	177.83
808.977	276.13
809.156	274.09
809.336	175.78
809.515	206.5
809.694	218.79
809.873	149.16
810.052	194.22
810.231	208.55
810.411	171.69
810.59	249.51
810.769	192.17
810.948	206.5
811.127	175.78
811.306	149.16
811.485	118.44
811.664	255.65
811.843	173.74
812.022	222.89
812.201	192.17
812.38	233.13
812.559	136.87
812.737	157.35
812.916	100.01
813.095	169.64
813.274	173.74
813.453	177.83
813.632	247.46
813.811	198.31
813.989	120.49
814.168	188.07
814.347	140.97
814.526	226.98
814.704	188.07
814.883	149.16
815.062	143.02
815.24	222.89
815.419	93.87
815.598	173.74
815.776	153.26
815.955	177.83
816.133	138.92
816.312	167.59
816.49	69.29
816.669	136.87
816.847	143.02
817.026	224.94
817.204	198.31
817.383	222.89
817.561	179.88
817.74	200.36
817.918	190.12
818.097	132.78
818.275	108.2
818.453	177.83
818.632	143.02
818.81	143.02
818.988	157.35
819.167	132.78
819.345	163.5
819.523	36.52
819.701	145.06
819.879	134.82
820.058	149.16
820.236	192.17
820.414	167.59
820.592	79.53
820.77	140.97
820.948	122.54
821.127	159.4
821.305	161.45
821.483	112.3
821.661	202.41
821.839	118.44
822.017	104.11
822.195	124.58
822.373	112.3
822.551	126.63
822.729	153.26
822.907	100.01
823.085	110.25
823.262	136.87
823.44	110.25
823.618	220.84
823.796	128.68
823.974	67.24
824.152	132.78
824.329	18.09
824.507	235.18
824.685	110.25
824.863	134.82
825.04	153.26
825.218	100.01
825.396	177.83
825.574	120.49
825.751	61.1
825.929	91.82
826.107	136.87
826.284	136.87
826.462	120.49
826.639	93.87
826.817	40.62
826.994	100.01
827.172	91.82
827.349	231.08
827.527	134.82
827.704	104.11
827.882	140.97
828.059	145.06
828.237	87.72
828.414	194.22
828.591	1.71
828.769	124.58
828.946	108.2
829.124	149.16
829.301	149.16
829.478	143.02
829.655	149.16
829.833	75.43
830.01	28.33
830.187	214.7
830.364	108.2
830.542	112.3
830.719	108.2
830.896	93.87
831.073	57
831.25	77.48
831.427	149.16
831.604	126.63
831.782	116.39
831.959	91.82
832.136	57
832.313	140.97
832.49	54.95
832.667	126.63
832.844	59.05
833.021	108.2
833.198	108.2
833.374	73.39
833.551	100.01
833.728	108.2
833.905	186.02
834.082	57
834.259	75.43
834.436	132.78
834.612	130.73
834.789	169.64
834.966	177.83
835.143	83.63
835.319	73.39
835.496	114.34
835.673	100.01
835.85	138.92
836.026	36.52
836.203	61.1
836.38	59.05
836.556	71.34
836.733	-14.68
836.909	106.15
837.086	54.95
837.262	-22.87
837.439	59.05
837.616	26.28
837.792	28.33
837.968	16.04
838.145	-18.77
838.321	192.17
838.498	42.67
838.674	83.63
838.851	63.15
839.027	30.38
839.203	75.43
839.38	126.63
839.556	22.19
839.732	116.39
839.909	54.95
840.085	102.06
840.261	48.81
840.437	13.99
840.614	124.58
840.79	124.58
840.966	95.91
841.142	114.34
841.318	85.67
841.494	26.28
841.671	75.43
841.847	61.1
842.023	-10.58
842.199	95.91
842.375	155.3
842.551	26.28
842.727	46.76
842.903	69.29
843.079	-18.77
843.255	106.15
843.431	85.67
843.607	120.49
843.783	38.57
843.959	128.68
844.134	32.43
844.31	100.01
844.486	108.2
844.662	50.86
844.838	22.19
845.013	-14.68
845.189	63.15
845.365	57
845.541	-10.58
845.716	128.68
845.892	110.25
846.068	77.48
846.244	104.11
846.419	75.43
846.595	100.01
846.77	22.19
846.946	120.49
847.122	71.34
847.297	32.43
847.473	100.01
847.648	-6.49
847.824	116.39
847.999	20.14
848.175	13.99
848.35	79.53
848.526	95.91
848.701	-12.63
848.876	50.86
849.052	120.49
849.227	34.47
849.403	-2.39
849.578	26.28
849.753	65.19
849.929	-4.44
850.104	28.33
850.279	71.34
850.454	30.38
850.63	59.05
850.805	-20.82
850.98	20.14
851.155	54.95
851.33	28.33
851.505	-47.44
851.681	108.2
851.856	63.15
852.031	69.29
852.206	69.29
852.381	59.05
852.556	34.47
852.731	63.15
852.906	59.05
853.081	87.72
853.256	118.44
853.431	52.91
853.606	-29.01
853.781	1.71
853.956	22.19
854.131	50.86
854.305	28.33
854.48	91.82
854.655	11.95
854.83	-12.63
855.005	42.67
855.18	-37.2
855.354	30.38
855.529	9.9
855.704	38.57
855.879	46.76
856.053	20.14
856.228	67.24
856.403	-63.83
856.577	5.8
856.752	-45.4
856.926	30.38
857.101	26.28
857.276	-8.53
857.45	42.67
857.625	128.68
857.799	57
857.974	3.75
858.148	5.8
858.323	38.57
858.497	36.52
858.672	-29.01
858.846	-2.39
859.02	63.15
859.195	-12.63
859.369	75.43
859.543	20.14
859.718	67.24
859.892	124.58
860.066	28.33
860.241	22.19
860.415	77.48
860.589	38.57
860.763	-18.77
860.938	3.75
861.112	-14.68
861.286	40.62
861.46	118.44
861.634	9.9
861.808	-14.68
861.982	34.47
862.157	-43.35
862.331	85.67
862.505	26.28
862.679	-2.39
862.853	34.47
863.027	34.47
863.201	75.43
863.375	9.9
863.549	54.95
863.722	63.15
863.896	59.05
864.07	1.71
864.244	1.71
864.418	71.34
864.592	73.39
864.766	18.09
864.939	73.39
865.113	-22.87
865.287	100.01
865.461	95.91
865.634	52.91
865.808	-12.63
865.982	95.91
866.156	11.95
866.329	75.43
866.503	-20.82
866.676	-26.96
866.85	42.67
867.024	54.95
867.197	95.91
867.371	85.67
867.544	3.75
867.718	1.71
867.891	-20.82
868.065	52.91
868.238	18.09
868.412	118.44
868.585	42.67
868.759	-6.49
868.932	65.19
869.105	-4.44
869.279	52.91
869.452	-4.44
869.625	7.85
869.799	54.95
869.972	5.8
870.145	16.04
870.319	52.91
870.492	20.14
870.665	34.47
870.838	-2.39
871.011	9.9
871.185	-12.63
871.358	-53.59
871.531	-6.49
871.704	-22.87
871.877	61.1
872.05	57
872.223	13.99
872.396	116.39
872.569	59.05
872.742	91.82
872.915	9.9
873.088	-16.73
873.261	7.85
873.434	91.82
873.607	22.19
873.78	40.62
873.953	-6.49
874.126	104.11
874.299	69.29
874.471	-31.06
874.644	-43.35
874.817	-55.64
874.99	83.63
875.163	9.9
875.335	-39.25
875.508	5.8
875.681	112.3
875.853	-10.58
876.026	73.39
876.199	18.09
876.371	-22.87
876.544	7.85
876.717	52.91
876.889	59.05
877.062	42.67
877.234	83.63
877.407	75.43
877.579	59.05
877.752	34.47
877.924	42.67
878.097	9.9
878.269	73.39
878.442	-33.11
878.614	9.9
878.786	59.05
878.959	89.77
879.131	75.43
879.303	59.05
879.476	52.91
879.648	-14.68
879.82	77.48
879.993	75.43
880.165	42.67
880.337	-63.83
880.509	3.75
880.681	-43.35
880.854	44.71
881.026	-26.96
881.198	159.4
881.37	-80.21
881.542	-4.44
881.714	79.53
881.886	-10.58
882.058	-14.68
882.23	44.71
882.402	-24.92
882.574	18.09
882.746	9.9
882.918	54.95
883.09	26.28
883.262	-37.2
883.434	11.95
883.606	9.9
883.778	-16.73
883.95	75.43
884.122	-33.11
884.293	120.49
884.465	-26.96
884.637	26.28
884.809	26.28
884.98	-4.44
885.152	20.14
885.324	34.47
885.496	-6.49
885.667	30.38
885.839	-4.44
886.011	42.67
886.182	-14.68
886.354	93.87
886.525	59.05
886.697	59.05
886.869	16.04
887.04	32.43
887.212	18.09
887.383	20.14
887.555	20.14
887.726	-37.2
887.897	-55.64
888.069	-18.77
888.24	42.67
888.412	9.9
888.583	26.28
888.754	5.8
888.926	9.9
889.097	11.95
889.268	18.09
889.44	9.9
889.611	-20.82
889.782	-22.87
889.953	22.19
890.125	59.05
890.296	-92.5
890.467	30.38
890.638	-12.63
890.809	50.86
890.98	-8.53
891.151	75.43
891.323	20.14
891.494	108.2
891.665	18.09
891.836	36.52
892.007	-12.63
892.178	-12.63
892.349	-8.53
892.52	22.19
892.691	63.15
892.862	75.43
893.032	-117.08
893.203	73.39
893.374	-6.49
893.545	67.24
893.716	-63.83
893.887	118.44
894.057	18.09
894.228	30.38
894.399	-31.06
894.57	48.81
894.74	40.62
894.911	44.71
895.082	20.14
895.253	44.71
895.423	13.99
895.594	108.2
895.764	30.38
895.935	-22.87
896.106	9.9
896.276	7.85
896.447	5.8
896.617	36.52
896.788	-6.49
896.958	-14.68
897.129	-22.87
897.299	-14.68
897.47	46.76
897.64	26.28
897.81	1.71
897.981	44.71
898.151	52.91
898.322	20.14
898.492	3.75
898.662	59.05
898.832	38.57
899.003	26.28
899.173	13.99
899.343	26.28
899.513	46.76
