Data from USB4F104151__66__14-30-14-653.txt Node

Date: Thu Mar 13 14:30:14 EDT 2025
User: louis
Spectrometer: USB4F10415
Trigger mode: 4
Integration Time (sec): 2.500000E-2
Scans to average: 1
Electric dark correction enabled: true
Nonlinearity correction enabled: false
Boxcar width: 0
XAxis mode: Wavelengths
Number of Pixels in Spectrum: 3648
>>>>>Begin Spectral Data<<<<<
178.204	-161.28
178.424	-161.28
178.644	-161.28
178.864	-142.85
179.084	-142.85
179.304	-9.73
179.524	51.71
179.744	-17.92
179.964	10.75
180.184	-13.82
180.404	-52.74
180.624	68.09
180.844	10.75
181.064	-46.59
181.283	-22.02
181.503	-30.21
181.723	51.71
181.943	23.04
182.163	27.14
182.383	-11.78
182.602	-5.63
182.822	70.14
183.042	39.42
183.262	-19.97
183.482	-5.63
183.701	29.18
183.921	18.94
184.141	-17.92
184.361	-13.82
184.58	-15.87
184.8	27.14
185.02	-24.06
185.239	84.48
185.459	37.38
185.679	18.94
185.898	-28.16
186.118	18.94
186.338	104.96
186.557	39.42
186.777	-30.21
186.997	-9.73
187.216	68.09
187.436	76.29
187.655	-17.92
187.875	135.68
188.095	-34.3
188.314	61.95
188.534	-30.21
188.753	18.94
188.973	2.56
189.192	35.33
189.412	23.04
189.631	84.48
189.851	20.99
190.07	-30.21
190.29	49.66
190.509	35.33
190.729	10.75
190.948	72.19
191.168	160.25
191.387	109.05
191.607	-42.5
191.826	2.56
192.045	-5.63
192.265	35.33
192.484	78.33
192.704	18.94
192.923	-75.26
193.142	158.21
193.362	113.15
193.581	84.48
193.8	51.71
194.02	78.33
194.239	-22.02
194.458	43.52
194.678	-22.02
194.897	-19.97
195.116	31.23
195.335	45.57
195.555	18.94
195.774	-24.06
195.993	2.56
196.212	29.18
196.432	-85.5
196.651	98.81
196.87	-42.5
197.089	100.86
197.308	39.42
197.528	23.04
197.747	-54.78
197.966	45.57
198.185	76.29
198.404	43.52
198.623	33.28
198.842	2.56
199.062	133.63
199.281	86.53
199.5	18.94
199.719	18.94
199.938	86.53
200.157	113.15
200.376	92.67
200.595	53.76
200.814	27.14
201.033	10.75
201.252	51.71
201.471	23.04
201.69	72.19
201.909	-22.02
202.128	70.14
202.347	102.91
202.566	18.94
202.785	23.04
203.004	-22.02
203.223	125.44
203.442	10.75
203.661	129.53
203.879	64
204.098	59.9
204.317	31.23
204.536	74.24
204.755	82.43
204.974	100.86
205.193	51.71
205.411	61.95
205.63	70.14
205.849	-3.58
206.068	-9.73
206.287	80.38
206.505	78.33
206.724	39.42
206.943	80.38
207.162	0.51
207.381	68.09
207.599	18.94
207.818	45.57
208.037	10.75
208.255	12.8
208.474	115.2
208.693	61.95
208.911	20.99
209.13	55.81
209.349	117.25
209.567	51.71
209.786	61.95
210.005	31.23
210.223	72.19
210.442	2.56
210.661	80.38
210.879	-1.54
211.098	-1.54
211.316	18.94
211.535	53.76
211.753	76.29
211.972	23.04
212.191	39.42
212.409	51.71
212.628	-52.74
212.846	18.94
213.065	43.52
213.283	51.71
213.502	-34.3
213.72	-30.21
213.938	57.86
214.157	55.81
214.375	-38.4
214.594	59.9
214.812	100.86
215.031	86.53
215.249	16.9
215.467	59.9
215.686	-3.58
215.904	92.67
216.122	64
216.341	35.33
216.559	-38.4
216.778	154.11
216.996	53.76
217.214	20.99
217.432	43.52
217.651	2.56
217.869	57.86
218.087	27.14
218.306	70.14
218.524	111.1
218.742	-17.92
218.96	59.9
219.179	12.8
219.397	39.42
219.615	111.1
219.833	64
220.051	6.66
220.27	20.99
220.488	64
220.706	2.56
220.924	29.18
221.142	-46.59
221.36	27.14
221.578	53.76
221.796	64
222.015	61.95
222.233	2.56
222.451	100.86
222.669	-62.98
222.887	39.42
223.105	18.94
223.323	-28.16
223.541	53.76
223.759	51.71
223.977	14.85
224.195	47.62
224.413	59.9
224.631	27.14
224.849	100.86
225.067	64
225.285	0.51
225.503	88.57
225.721	-22.02
225.939	57.86
226.157	18.94
226.375	61.95
226.592	-46.59
226.81	20.99
227.028	6.66
227.246	80.38
227.464	2.56
227.682	45.57
227.9	23.04
228.117	-22.02
228.335	27.14
228.553	-26.11
228.771	-9.73
228.989	115.2
229.206	12.8
229.424	-54.78
229.642	-42.5
229.86	29.18
230.077	76.29
230.295	-15.87
230.513	25.09
230.731	35.33
230.948	47.62
231.166	70.14
231.384	25.09
231.601	-13.82
231.819	84.48
232.037	12.8
232.254	25.09
232.472	16.9
232.689	-5.63
232.907	84.48
233.125	37.38
233.342	6.66
233.56	45.57
233.777	45.57
233.995	51.71
234.213	4.61
234.43	64
234.648	2.56
234.865	12.8
235.083	27.14
235.3	59.9
235.518	37.38
235.735	125.44
235.953	84.48
236.17	70.14
236.388	-9.73
236.605	20.99
236.822	84.48
237.04	4.61
237.257	-30.21
237.475	35.33
237.692	43.52
237.909	37.38
238.127	76.29
238.344	18.94
238.562	37.38
238.779	-22.02
238.996	-44.54
239.214	8.7
239.431	59.9
239.648	-44.54
239.865	80.38
240.083	72.19
240.3	23.04
240.517	59.9
240.735	39.42
240.952	39.42
241.169	84.48
241.386	18.94
241.603	6.66
241.821	23.04
242.038	10.75
242.255	20.99
242.472	31.23
242.689	-3.58
242.907	68.09
243.124	-11.78
243.341	35.33
243.558	12.8
243.775	-19.97
243.992	-34.3
244.209	-36.35
244.426	111.1
244.643	45.57
244.86	-9.73
245.078	55.81
245.295	121.34
245.512	-13.82
245.729	29.18
245.946	-28.16
246.163	68.09
246.38	39.42
246.597	8.7
246.814	10.75
247.031	25.09
247.248	-22.02
247.464	45.57
247.681	66.05
247.898	-13.82
248.115	82.43
248.332	-15.87
248.549	37.38
248.766	23.04
248.983	61.95
249.2	43.52
249.417	-1.54
249.633	4.61
249.85	78.33
250.067	-26.11
250.284	4.61
250.501	47.62
250.717	59.9
250.934	23.04
251.151	64
251.368	4.61
251.585	88.57
251.801	-42.5
252.018	-1.54
252.235	29.18
252.451	29.18
252.668	68.09
252.885	182.78
253.102	39.42
253.318	43.52
253.535	64
253.752	49.66
253.968	35.33
254.185	-36.35
254.401	4.61
254.618	111.1
254.835	-5.63
255.051	72.19
255.268	-11.78
255.484	145.92
255.701	12.8
255.917	-11.78
256.134	-19.97
256.351	20.99
256.567	12.8
256.784	51.71
257	8.7
257.217	35.33
257.433	59.9
257.65	43.52
257.866	51.71
258.082	-5.63
258.299	23.04
258.515	35.33
258.732	55.81
258.948	27.14
259.165	55.81
259.381	18.94
259.597	4.61
259.814	45.57
260.03	43.52
260.246	35.33
260.463	-44.54
260.679	86.53
260.895	66.05
261.112	127.49
261.328	78.33
261.544	10.75
261.761	92.67
261.977	-3.58
262.193	-46.59
262.409	35.33
262.626	27.14
262.842	10.75
263.058	18.94
263.274	55.81
263.49	70.14
263.707	51.71
263.923	104.96
264.139	76.29
264.355	76.29
264.571	53.76
264.787	76.29
265.004	104.96
265.22	61.95
265.436	29.18
265.652	39.42
265.868	53.76
266.084	4.61
266.3	59.9
266.516	23.04
266.732	72.19
266.948	-32.26
267.164	4.61
267.38	31.23
267.596	84.48
267.812	100.86
268.028	94.72
268.244	20.99
268.46	76.29
268.676	14.85
268.892	27.14
269.108	80.38
269.324	-9.73
269.54	4.61
269.756	72.19
269.972	-54.78
270.188	2.56
270.403	64
270.619	117.25
270.835	86.53
271.051	10.75
271.267	84.48
271.483	37.38
271.698	43.52
271.914	10.75
272.13	45.57
272.346	29.18
272.562	31.23
272.777	18.94
272.993	-54.78
273.209	61.95
273.425	117.25
273.64	-22.02
273.856	66.05
274.072	20.99
274.287	14.85
274.503	86.53
274.719	55.81
274.934	-30.21
275.15	6.66
275.366	92.67
275.581	-9.73
275.797	-19.97
276.012	59.9
276.228	-1.54
276.444	-34.3
276.659	43.52
276.875	-75.26
277.09	86.53
277.306	51.71
277.521	47.62
277.737	84.48
277.952	-5.63
278.168	100.86
278.383	20.99
278.599	2.56
278.814	68.09
279.03	10.75
279.245	92.67
279.461	29.18
279.676	-1.54
279.892	35.33
280.107	70.14
280.322	4.61
280.538	86.53
280.753	-40.45
280.969	37.38
281.184	-101.89
281.399	100.86
281.615	68.09
281.83	47.62
282.045	-26.11
282.26	-3.58
282.476	61.95
282.691	10.75
282.906	27.14
283.122	29.18
283.337	-1.54
283.552	27.14
283.767	10.75
283.983	43.52
284.198	43.52
284.413	113.15
284.628	0.51
284.843	74.24
285.058	70.14
285.274	39.42
285.489	10.75
285.704	37.38
285.919	6.66
286.134	10.75
286.349	10.75
286.564	111.1
286.779	76.29
286.995	10.75
287.21	16.9
287.425	100.86
287.64	-17.92
287.855	-40.45
288.07	-60.93
288.285	43.52
288.5	43.52
288.715	39.42
288.93	59.9
289.145	-9.73
289.36	96.77
289.575	68.09
289.79	68.09
290.004	23.04
290.219	59.9
290.434	109.05
290.649	-11.78
290.864	18.94
291.079	16.9
291.294	90.62
291.509	10.75
291.724	55.81
291.938	39.42
292.153	43.52
292.368	0.51
292.583	78.33
292.798	-38.4
293.012	64
293.227	-52.74
293.442	2.56
293.657	39.42
293.871	100.86
294.086	59.9
294.301	68.09
294.516	43.52
294.73	125.44
294.945	55.81
295.16	86.53
295.374	76.29
295.589	100.86
295.804	41.47
296.018	74.24
296.233	18.94
296.447	2.56
296.662	-5.63
296.877	109.05
297.091	29.18
297.306	29.18
297.52	16.9
297.735	29.18
297.949	-7.68
298.164	43.52
298.378	33.28
298.593	-40.45
298.807	51.71
299.022	64
299.236	-3.58
299.451	16.9
299.665	14.85
299.88	109.05
300.094	109.05
300.309	117.25
300.523	25.09
300.737	0.51
300.952	18.94
301.166	68.09
301.381	25.09
301.595	59.9
301.809	35.33
302.024	-5.63
302.238	43.52
302.452	10.75
302.667	51.71
302.881	133.63
303.095	20.99
303.309	76.29
303.524	27.14
303.738	64
303.952	6.66
304.166	35.33
304.381	8.7
304.595	64
304.809	-56.83
305.023	23.04
305.237	104.96
305.452	88.57
305.666	51.71
305.88	141.82
306.094	51.71
306.308	51.71
306.522	29.18
306.736	45.57
306.95	27.14
307.164	59.9
307.379	16.9
307.593	64
307.807	59.9
308.021	88.57
308.235	76.29
308.449	-13.82
308.663	47.62
308.877	100.86
309.091	12.8
309.305	100.86
309.519	29.18
309.733	61.95
309.947	-3.58
310.161	117.25
310.374	20.99
310.588	45.57
310.802	55.81
311.016	55.81
311.23	94.72
311.444	-26.11
311.658	27.14
311.872	150.01
312.085	16.9
312.299	31.23
312.513	92.67
312.727	-3.58
312.941	12.8
313.154	86.53
313.368	43.52
313.582	158.21
313.796	39.42
314.009	-73.21
314.223	70.14
314.437	64
314.651	102.91
314.864	39.42
315.078	-62.98
315.292	-22.02
315.505	-5.63
315.719	23.04
315.933	16.9
316.146	68.09
316.36	-26.11
316.573	31.23
316.787	94.72
317.001	70.14
317.214	37.38
317.428	-71.17
317.641	-22.02
317.855	18.94
318.068	59.9
318.282	88.57
318.495	33.28
318.709	102.91
318.922	70.14
319.136	125.44
319.349	55.81
319.563	59.9
319.776	27.14
319.99	-9.73
320.203	88.57
320.417	27.14
320.63	57.86
320.843	115.2
321.057	98.81
321.27	27.14
321.483	66.05
321.697	31.23
321.91	100.86
322.124	94.72
322.337	92.67
322.55	29.18
322.763	47.62
322.977	-26.11
323.19	27.14
323.403	-30.21
323.617	84.48
323.83	53.76
324.043	74.24
324.256	29.18
324.469	-3.58
324.683	100.86
324.896	68.09
325.109	37.38
325.322	10.75
325.535	53.76
325.748	61.95
325.962	47.62
326.175	84.48
326.388	125.44
326.601	31.23
326.814	78.33
327.027	39.42
327.24	86.53
327.453	-32.26
327.666	119.29
327.879	145.92
328.092	64
328.305	-19.97
328.518	49.66
328.731	59.9
328.944	29.18
329.157	68.09
329.37	-50.69
329.583	92.67
329.796	82.43
330.009	-22.02
330.222	102.91
330.435	55.81
330.648	53.76
330.861	29.18
331.073	109.05
331.286	37.38
331.499	84.48
331.712	-22.02
331.925	12.8
332.138	37.38
332.35	125.44
332.563	64
332.776	117.25
332.989	-5.63
333.202	35.33
333.414	119.29
333.627	18.94
333.84	92.67
334.053	35.33
334.265	53.76
334.478	23.04
334.691	90.62
334.903	45.57
335.116	-5.63
335.329	23.04
335.541	84.48
335.754	78.33
335.966	37.38
336.179	47.62
336.392	43.52
336.604	31.23
336.817	100.86
337.029	111.1
337.242	72.19
337.454	-3.58
337.667	-13.82
337.88	127.49
338.092	72.19
338.305	86.53
338.517	68.09
338.729	59.9
338.942	121.34
339.154	6.66
339.367	0.51
339.579	84.48
339.792	51.71
340.004	86.53
340.217	82.43
340.429	6.66
340.641	23.04
340.854	12.8
341.066	-26.11
341.278	113.15
341.491	78.33
341.703	-28.16
341.915	12.8
342.128	59.9
342.34	49.66
342.552	57.86
342.764	6.66
342.977	8.7
343.189	8.7
343.401	4.61
343.613	37.38
343.826	100.86
344.038	-17.92
344.25	84.48
344.462	74.24
344.674	59.9
344.886	43.52
345.099	100.86
345.311	59.9
345.523	88.57
345.735	41.47
345.947	68.09
346.159	147.97
346.371	86.53
346.583	49.66
346.795	143.87
347.007	47.62
347.219	117.25
347.431	51.71
347.643	49.66
347.855	55.81
348.067	68.09
348.279	41.47
348.491	43.52
348.703	23.04
348.915	59.9
349.127	-17.92
349.339	51.71
349.551	51.71
349.763	68.09
349.975	37.38
350.187	51.71
350.399	96.77
350.61	70.14
350.822	76.29
351.034	119.29
351.246	57.86
351.458	20.99
351.669	94.72
351.881	84.48
352.093	53.76
352.305	29.18
352.517	37.38
352.728	117.25
352.94	121.34
353.152	102.91
353.363	2.56
353.575	64
353.787	109.05
353.999	43.52
354.21	107.01
354.422	31.23
354.633	72.19
354.845	45.57
355.057	53.76
355.268	88.57
355.48	59.9
355.692	20.99
355.903	64
356.115	37.38
356.326	-40.45
356.538	51.71
356.749	66.05
356.961	133.63
357.172	23.04
357.384	35.33
357.595	113.15
357.807	47.62
358.018	2.56
358.23	43.52
358.441	94.72
358.653	96.77
358.864	-60.93
359.075	84.48
359.287	59.9
359.498	39.42
359.709	-9.73
359.921	45.57
360.132	158.21
360.344	31.23
360.555	55.81
360.766	55.81
360.977	47.62
361.189	117.25
361.4	57.86
361.611	86.53
361.823	109.05
362.034	43.52
362.245	-42.5
362.456	57.86
362.667	61.95
362.879	27.14
363.09	68.09
363.301	127.49
363.512	72.19
363.723	10.75
363.935	76.29
364.146	49.66
364.357	31.23
364.568	64
364.779	2.56
364.99	104.96
365.201	4.61
365.412	100.86
365.623	31.23
365.834	51.71
366.045	-5.63
366.256	61.95
366.467	37.38
366.678	8.7
366.889	31.23
367.1	96.77
367.311	25.09
367.522	37.38
367.733	131.58
367.944	10.75
368.155	31.23
368.366	94.72
368.577	141.82
368.788	74.24
368.999	31.23
369.209	141.82
369.42	45.57
369.631	150.01
369.842	104.96
370.053	125.44
370.264	51.71
370.474	82.43
370.685	35.33
370.896	45.57
371.107	35.33
371.317	125.44
371.528	41.47
371.739	45.57
371.95	45.57
372.16	-3.58
372.371	31.23
372.582	88.57
372.792	61.95
373.003	123.39
373.214	10.75
373.424	43.52
373.635	29.18
373.846	111.1
374.056	78.33
374.267	10.75
374.477	37.38
374.688	68.09
374.898	35.33
375.109	39.42
375.319	51.71
375.53	109.05
375.74	35.33
375.951	12.8
376.161	123.39
376.372	76.29
376.582	-9.73
376.793	23.04
377.003	59.9
377.214	45.57
377.424	6.66
377.635	78.33
377.845	14.85
378.055	86.53
378.266	-24.06
378.476	119.29
378.686	92.67
378.897	59.9
379.107	68.09
379.317	-30.21
379.528	-1.54
379.738	47.62
379.948	-13.82
380.158	84.48
380.369	59.9
380.579	45.57
380.789	51.71
380.999	123.39
381.21	92.67
381.42	72.19
381.63	43.52
381.84	109.05
382.05	51.71
382.261	92.67
382.471	27.14
382.681	39.42
382.891	141.82
383.101	145.92
383.311	68.09
383.521	55.81
383.731	88.57
383.941	59.9
384.151	70.14
384.361	68.09
384.571	133.63
384.781	68.09
384.991	72.19
385.201	96.77
385.411	6.66
385.621	125.44
385.831	131.58
386.041	51.71
386.251	45.57
386.461	78.33
386.671	70.14
386.881	86.53
387.091	39.42
387.301	12.8
387.511	135.68
387.72	160.25
387.93	84.48
388.14	49.66
388.35	100.86
388.56	76.29
388.769	90.62
388.979	72.19
389.189	6.66
389.399	80.38
389.609	68.09
389.818	160.25
390.028	119.29
390.238	113.15
390.447	35.33
390.657	68.09
390.867	37.38
391.076	12.8
391.286	100.86
391.496	72.19
391.705	59.9
391.915	100.86
392.125	109.05
392.334	59.9
392.544	150.01
392.753	18.94
392.963	49.66
393.172	115.2
393.382	59.9
393.591	166.4
393.801	43.52
394.01	119.29
394.22	96.77
394.429	-17.92
394.639	115.2
394.848	66.05
395.058	137.73
395.267	84.48
395.477	143.87
395.686	18.94
395.895	141.82
396.105	215.55
396.314	74.24
396.524	92.67
396.733	76.29
396.942	133.63
397.152	68.09
397.361	117.25
397.57	74.24
397.78	209.4
397.989	113.15
398.198	209.4
398.407	100.86
398.617	143.87
398.826	113.15
399.035	158.21
399.244	150.01
399.453	76.29
399.663	143.87
399.872	92.67
400.081	123.39
400.29	215.55
400.499	109.05
400.708	190.97
400.917	152.06
401.127	133.63
401.336	162.3
401.545	127.49
401.754	201.21
401.963	141.82
402.172	115.2
402.381	45.57
402.59	141.82
402.799	207.36
403.008	170.49
403.217	129.53
403.426	172.54
403.635	104.96
403.844	100.86
404.053	158.21
404.262	100.86
404.471	199.16
404.68	150.01
404.888	201.21
405.097	178.69
405.306	176.64
405.515	227.84
405.724	182.78
405.933	227.84
406.142	215.55
406.35	184.83
406.559	203.26
406.768	207.36
406.977	309.76
407.185	264.7
407.394	272.89
407.603	322.04
407.812	283.13
408.02	332.28
408.229	246.27
408.438	301.56
408.646	272.89
408.855	299.52
409.064	363
409.272	303.61
409.481	403.96
409.69	363
409.898	326.14
410.107	340.47
410.315	371.19
410.524	326.14
410.733	375.29
410.941	489.98
411.15	500.22
411.358	455.16
411.567	481.78
411.775	436.73
411.984	403.96
412.192	449.02
412.401	578.04
412.609	563.7
412.818	649.72
413.026	594.42
413.234	643.57
413.443	739.83
413.651	731.64
413.86	731.64
414.068	715.25
414.276	866.8
414.485	860.66
414.693	758.26
414.901	936.43
415.11	815.6
415.318	920.05
415.526	905.71
415.734	944.63
415.943	1006.06
416.151	1063.41
416.359	985.58
416.567	1059.31
416.776	1174
416.984	1208.81
417.192	1247.72
417.4	1182.19
417.608	1165.81
417.817	1247.72
418.025	1440.23
418.233	1468.91
418.441	1452.52
418.649	1462.76
418.857	1503.72
419.065	1649.13
419.273	1632.74
419.481	1763.81
419.689	1714.66
419.897	1763.81
420.105	1939.94
420.313	1939.94
420.521	2068.96
420.729	2132.45
420.937	2159.07
421.145	2140.64
421.353	2249.18
421.561	2349.53
421.769	2470.36
421.977	2603.48
422.185	2595.29
422.393	2652.63
422.601	2857.43
422.809	2744.79
423.017	2857.43
423.224	2937.3
423.432	3000.79
423.64	3086.8
423.848	3283.41
424.056	3303.89
424.263	3525.07
424.471	3518.92
424.679	3703.24
424.887	3781.06
425.094	3994.05
425.302	3891.65
425.51	4043.2
425.718	4131.26
425.925	4243.9
426.133	4471.23
426.341	4579.77
426.548	4772.28
426.756	4889.01
426.964	4825.53
427.171	5265.84
427.379	5353.9
427.586	5458.35
427.794	5648.81
428.001	5802.41
428.209	6099.36
428.417	6015.4
428.624	6365.6
428.832	6547.87
429.039	6298.02
429.247	6582.68
429.454	6881.69
429.662	7334.29
429.869	7014.8
430.076	7547.28
430.284	7199.12
430.491	7453.07
430.699	7926.15
430.906	8022.41
431.114	7985.54
431.321	8417.66
431.528	8518.01
431.736	9030.01
431.943	9529.71
432.15	8948.09
432.358	9312.63
432.565	9763.18
432.772	9607.53
432.979	10377.57
433.187	10541.41
433.394	10563.93
433.601	11237.72
433.808	11163.99
434.016	11250
434.223	11587.92
434.43	12536.13
434.637	11919.69
434.844	12878.14
435.052	12998.97
435.259	13076.79
435.466	13218.1
435.673	12992.83
435.88	13842.73
436.087	14364.96
436.294	14539.04
436.501	14113.06
436.708	14373.16
436.915	14876.96
437.122	15575.31
437.329	15477.01
437.537	16034.06
437.743	16279.82
437.95	16152.84
438.157	16922.88
438.364	17443.06
438.571	17690.87
438.778	17719.54
438.985	19366.1
439.192	18684.13
439.399	19097.82
439.606	18573.54
439.813	19728.59
440.02	20875.46
440.227	20721.86
440.433	20037.84
440.64	20971.71
440.847	20871.36
441.054	21141.69
441.261	22470.83
441.467	22374.57
441.674	23013.54
441.881	23814.29
442.088	23992.47
442.294	23138.46
442.501	24029.33
442.708	24635.53
442.914	25661.56
443.121	26505.32
443.328	25725.05
443.534	27752.54
443.741	26851.43
443.948	26597.48
444.154	28575.82
444.361	28160.08
444.568	28422.22
444.774	28770.38
444.981	29036.61
445.187	29788.22
445.394	30595.12
445.6	30255.15
445.807	33198.09
446.013	31741.98
446.22	32581.65
446.426	33746.94
446.633	33816.57
446.839	35416.04
447.046	33695.74
447.252	35829.73
447.459	35596.26
447.665	35610.59
447.871	36982.73
448.078	38666.16
448.284	36622.29
448.491	37826.49
448.697	39018.41
448.903	39958.43
449.11	39706.53
449.316	39509.93
449.522	39968.67
449.728	41260.94
449.935	41551.75
450.141	41050
450.347	42254.2
450.553	41054.09
450.76	41336.71
450.966	42559.35
451.172	42571.64
451.378	43589.48
451.584	42512.25
451.791	43181.93
451.997	43382.63
452.203	44224.35
452.409	43999.07
452.615	43976.54
452.821	42280.83
453.027	41764.74
453.233	44271.45
453.44	42381.18
453.646	42841.97
453.852	42712.95
454.058	43339.63
454.264	42256.25
454.47	43110.25
454.676	42227.58
454.882	43945.83
455.088	39780.26
455.294	40413.08
455.5	41123.72
455.705	41729.92
455.911	39884.7
456.117	39008.17
456.323	38473.65
456.529	36595.67
456.735	38025.15
456.941	37046.22
457.147	36493.27
457.352	35444.71
457.558	34965.48
457.764	35155.94
457.97	34502.64
458.176	33642.49
458.381	33595.39
458.587	31899.67
458.793	31969.3
458.999	30349.36
459.204	32612.37
459.41	31592.48
459.616	29605.95
459.821	29749.31
460.027	29249.6
460.233	28698.7
460.438	27408.48
460.644	27873.37
460.85	26751.08
461.055	26108.02
461.261	26120.31
461.466	24053.9
461.672	23281.82
461.878	24774.79
462.083	23425.18
462.289	22567.08
462.494	22456.49
462.7	21588.15
462.905	21061.82
463.111	21825.71
463.316	22034.61
463.522	21434.55
463.727	21309.63
463.932	21094.59
464.138	20920.51
464.343	20957.38
464.549	20334.79
464.754	21231.8
464.959	20967.62
465.165	20492.49
465.37	19658.96
465.575	19362.01
465.781	20125.9
465.986	20179.15
466.191	19577.05
466.397	19116.25
466.602	18079.98
466.807	18831.58
467.012	19009.76
467.218	18745.57
467.423	18544.87
467.628	18559.2
467.833	19396.82
468.038	18604.26
468.244	17950.96
468.449	18835.68
468.654	18196.71
468.859	18073.84
469.064	17776.88
469.269	17268.98
469.474	17230.07
469.679	17537.27
469.885	17015.04
470.09	17559.8
470.295	17330.42
470.5	16660.74
470.705	16832.77
470.91	16517.38
471.115	16515.33
471.32	16654.59
471.525	16417.03
471.73	16199.94
471.935	16017.68
472.139	15511.83
472.344	15571.22
472.549	15663.38
472.754	15495.44
472.959	14979.36
473.164	14586.15
473.369	14373.16
473.574	14977.31
473.778	14924.06
473.983	14788.89
474.188	14639.39
474.393	13953.32
474.598	14061.87
474.802	13957.42
475.007	13904.17
475.212	13748.53
475.417	13676.85
475.621	13404.47
475.826	13570.35
476.031	13019.45
476.235	13117.75
476.44	13044.02
476.645	12751.17
476.849	12867.9
477.054	12878.14
477.259	12595.52
477.463	12388.67
477.668	12337.48
477.872	12466.5
478.077	12171.59
478.282	11807.05
478.486	11825.48
478.691	11815.24
478.895	11559.25
479.1	11649.36
479.304	11675.98
479.509	11243.86
479.713	11280.72
479.918	11397.46
480.122	11057.5
480.326	11180.37
480.531	11211.09
480.735	10940.76
480.94	10883.42
481.144	11192.66
481.348	10875.23
481.553	10873.18
481.757	10705.24
481.961	10942.81
482.166	11004.25
482.37	10819.93
482.574	10805.6
482.778	10608.99
482.983	11073.88
483.187	10742.11
483.391	10774.88
483.595	10731.87
483.8	10604.89
484.004	10652
484.208	10625.37
484.412	10740.06
484.616	10758.49
484.821	10709.34
485.025	10420.58
485.229	10555.74
485.433	10533.22
485.637	10717.53
485.841	10520.93
486.045	10565.98
486.249	10666.33
486.453	10709.34
486.657	10516.83
486.861	10793.31
487.065	10512.74
487.269	10633.57
487.473	10449.25
487.677	10695
487.881	10752.35
488.085	10615.13
488.289	10754.4
488.493	10514.78
488.697	10725.72
488.901	10918.23
489.105	10502.5
489.309	10592.61
489.512	10727.77
489.716	10727.77
489.92	10758.49
490.124	10809.69
490.328	10955.1
490.531	10678.62
490.735	10703.2
490.939	10856.79
491.143	10568.03
491.346	10834.27
491.55	10791.26
491.754	10991.96
491.958	10969.43
492.161	10977.62
492.365	11102.55
492.569	10883.42
492.772	10889.56
492.976	11114.84
493.18	11227.48
493.383	11237.72
493.587	11303.25
493.79	11290.96
493.994	11233.62
494.197	11524.43
494.401	11391.31
494.605	11368.79
494.808	11622.73
495.012	11708.75
495.215	11491.66
495.419	11815.24
495.622	11655.5
495.825	11831.63
496.029	12052.81
496.232	12216.65
496.436	12278.08
496.639	12296.52
496.843	12382.53
497.046	12706.11
497.249	12609.86
497.453	12652.86
497.656	12693.82
497.859	12933.43
498.063	13019.45
498.266	13113.66
498.469	13117.75
498.673	13312.31
498.876	13472.05
499.079	13609.26
499.282	13447.47
499.485	14006.57
499.689	13934.89
499.892	14145.83
500.095	14244.13
500.298	14524.71
500.501	14225.7
500.705	14766.37
500.908	14786.85
501.111	14969.12
501.314	15237.4
501.517	15397.14
501.72	15538.45
501.923	15327.51
502.126	15690
502.329	16009.48
502.532	15921.42
502.735	16167.18
502.938	16529.67
503.141	16439.56
503.344	16595.2
503.547	16705.79
503.75	17068.28
503.953	17219.83
504.156	17434.87
504.359	17443.06
504.562	17649.91
504.765	17981.68
504.968	18270.44
505.17	18381.03
505.373	18280.68
505.576	18690.27
505.779	18673.89
505.982	18800.87
506.185	19525.85
506.387	19515.61
506.59	19529.94
506.793	19865.81
506.996	19871.95
507.198	20185.29
507.401	20273.35
507.604	20328.65
507.807	20842.69
508.009	20859.07
508.212	21137.6
508.415	21133.5
508.617	21563.57
508.82	21958.83
509.022	21592.25
509.225	22163.63
509.428	22331.56
509.63	22599.85
509.833	22470.83
510.035	23214.24
510.238	23095.46
510.44	23410.84
510.643	23394.46
510.845	23808.15
511.048	23687.32
511.25	24291.47
511.453	24387.72
511.655	25344.13
511.858	24762.5
512.06	25219.2
512.262	25141.38
512.465	25350.27
512.667	25995.38
512.87	25979
513.072	26128.5
513.274	26716.26
513.477	26757.22
513.679	26839.14
513.881	27316.32
514.084	27435.1
514.286	27449.44
514.488	27775.06
514.69	28260.43
514.893	28434.51
515.095	28508.24
515.297	28944.45
515.499	28960.84
515.701	29143.11
515.904	29823.03
516.106	29876.28
516.308	30070.84
516.51	30363.7
516.712	30253.11
516.914	30582.83
517.116	31217.7
517.318	31117.35
517.52	31453.22
517.722	31457.31
517.925	31817.75
518.127	32665.61
518.329	32649.23
518.531	32638.99
518.733	33128.45
518.935	33069.06
519.136	33386.5
519.338	33781.76
519.54	33724.41
519.742	34002.94
519.944	34072.57
520.146	34762.73
520.348	34971.63
520.55	34545.65
520.752	34725.87
520.954	35225.57
521.155	35188.71
521.357	35635.17
521.559	35657.7
521.761	36224.98
521.963	35925.98
522.164	36321.24
522.366	36210.65
522.568	36616.15
522.77	36966.35
522.971	37054.41
523.173	37199.82
523.375	37042.12
523.576	37171.14
523.778	37494.72
523.98	37896.13
524.181	37992.38
524.383	37861.31
524.584	38723.51
524.786	38444.98
524.988	37990.33
525.189	38623.15
525.391	39196.59
525.592	38942.64
525.794	38956.97
525.995	39106.48
526.197	38889.39
526.398	39018.41
526.6	39172.01
526.801	39139.24
527.003	39239.59
527.204	38971.31
527.406	39419.81
527.607	39456.68
527.808	39890.85
528.01	39249.83
528.211	39436.2
528.412	40089.5
528.614	39634.85
528.815	39567.27
529.016	40382.36
529.218	40101.79
529.419	39614.37
529.62	40126.36
529.822	39778.21
530.023	40048.54
530.224	39942.05
530.425	39835.55
530.626	39434.15
530.828	39038.89
531.029	40554.39
531.23	39380.9
531.431	39628.71
531.632	39647.14
531.833	39868.32
532.035	39976.86
532.236	39493.54
532.437	39569.32
532.638	38956.97
532.839	39679.91
533.04	39696.29
533.241	39243.69
533.442	39745.44
533.643	39804.83
533.844	39421.86
534.045	39339.94
534.246	38883.25
534.447	39806.88
534.648	39221.16
534.849	39258.02
535.05	39045.04
535.251	39055.28
535.451	38999.98
535.652	39550.88
535.853	38961.07
536.054	38977.45
536.255	39090.09
536.456	38711.22
536.657	39524.26
536.857	38846.38
537.058	38762.42
537.259	38938.54
537.46	38762.42
537.66	38502.32
537.861	38862.77
538.062	38438.84
538.263	38600.63
538.463	38471.6
538.664	38363.06
538.865	38557.62
539.065	38887.34
539.266	37777.34
539.466	38498.23
539.667	37994.43
539.868	38721.46
540.068	38088.63
540.269	38109.11
540.469	38260.66
540.67	38019
540.87	38363.06
541.071	38541.24
541.271	38332.34
541.472	37994.43
541.672	37971.9
541.873	37959.61
542.073	37832.64
542.274	38244.28
542.474	37939.13
542.675	37621.7
542.875	38547.38
543.075	37892.03
543.276	37580.74
543.476	37961.66
543.676	37904.32
543.877	38231.99
544.077	38000.57
544.277	37773.25
544.478	37830.59
544.678	37918.65
544.878	37756.86
545.078	37609.41
545.279	37674.95
545.479	37398.47
545.679	37310.41
545.879	37812.16
546.079	37646.27
546.28	37617.6
546.48	37351.37
546.68	37707.71
546.88	37652.42
547.08	37623.75
547.28	37410.76
547.48	37412.81
547.68	37619.65
547.88	37730.24
548.081	37574.59
548.281	37603.27
548.481	37402.57
548.681	37668.8
548.881	37728.19
549.081	37459.91
549.28	37281.74
549.48	37660.61
549.68	37674.95
549.88	37806.02
550.08	37461.96
550.28	37787.58
550.48	37613.51
550.68	37820.35
550.88	37726.14
551.08	37369.8
551.279	37779.39
551.479	37357.51
551.679	37851.07
551.879	37726.14
552.079	37777.34
552.278	37552.07
552.478	37820.35
552.678	38021.05
552.878	37914.56
553.077	37685.18
553.277	37654.47
553.477	37869.5
553.676	37695.42
553.876	38182.84
554.076	37871.55
554.275	37818.3
554.475	37537.73
554.674	38105.02
554.874	38031.29
555.074	37248.97
555.273	37822.4
555.473	38272.95
555.672	37543.88
555.872	37937.09
556.071	38252.47
556.271	38090.68
556.47	37836.73
556.67	37339.08
556.869	38119.35
557.068	38000.57
557.268	38068.16
557.467	37793.73
557.667	38137.79
557.866	37773.25
558.065	38008.76
558.265	37320.65
558.464	37613.51
558.663	38299.58
558.863	37515.2
559.062	38143.93
559.261	37799.87
559.461	38188.99
559.66	37453.76
559.859	38154.17
560.058	37701.57
560.258	37797.82
560.457	37683.14
560.656	37836.73
560.855	38152.12
561.054	37838.78
561.253	37582.79
561.453	37814.21
561.652	37902.27
561.851	38295.48
562.05	37773.25
562.249	37277.64
562.448	38170.55
562.647	37711.81
562.846	37562.31
563.045	37789.63
563.244	37328.84
563.443	37875.65
563.642	37388.23
563.841	37769.15
564.04	37683.14
564.239	37734.34
564.438	37361.61
564.637	37363.65
564.836	37871.55
565.035	37173.19
565.234	37277.64
565.432	37480.39
565.631	37107.66
565.83	37693.38
566.029	37195.72
566.228	37451.72
566.427	36773.84
566.625	36849.61
566.824	36886.48
567.023	37003.21
567.222	36448.21
567.42	37181.38
567.619	36882.38
567.818	36487.12
568.016	36788.17
568.215	37083.08
568.414	37105.61
568.612	36868.05
568.811	36693.97
569.01	36298.71
569.208	36319.19
569.407	36440.02
569.605	35932.12
569.804	36319.19
570.002	35895.26
570.201	35833.82
570.4	35653.6
570.598	35725.28
570.797	35438.56
570.995	35444.71
571.193	35391.46
571.392	36052.95
571.59	35563.49
571.789	35205.09
571.987	35520.48
572.186	35409.89
572.384	35276.77
572.582	35102.7
572.781	35461.09
572.979	34846.7
573.177	35151.85
573.376	34897.9
573.574	34711.53
573.772	35026.92
573.971	34897.9
574.169	34924.52
574.367	34555.89
574.565	34990.06
574.763	34494.45
574.962	34484.21
575.16	34017.27
575.358	34308.08
575.556	33675.26
575.754	34199.54
575.952	33540.1
576.151	34131.96
576.349	33308.68
576.547	33792
576.745	33726.46
576.943	33841.15
577.141	33566.72
577.339	33476.61
577.537	33320.96
577.735	33302.53
577.933	33105.93
578.131	33253.38
578.329	33310.72
578.527	32694.29
578.725	32630.8
578.923	32905.23
579.121	32665.61
579.319	32522.26
579.516	32796.68
579.714	32550.93
579.912	32495.63
580.11	32069.65
580.308	31967.26
580.506	32233.49
580.704	31739.93
580.901	31660.06
581.099	31821.85
581.297	31744.03
581.495	31830.04
581.692	31750.17
581.89	31115.3
582.088	31260.71
582.285	31447.07
582.483	31569.95
582.681	31152.16
582.878	31060.01
583.076	31221.8
583.274	31442.98
583.471	30971.94
583.669	31305.76
583.866	30824.49
584.064	30978.09
584.262	30513.2
584.459	30746.67
584.657	30523.44
584.854	30804.01
585.052	30228.53
585.249	30558.25
585.447	30566.45
585.644	30150.71
585.841	30353.46
586.039	30556.21
586.236	30144.56
586.434	30044.21
586.631	29788.22
586.828	30054.45
587.026	30029.88
587.223	29554.75
587.42	29526.08
587.618	29507.65
587.815	29474.88
588.012	29028.42
588.21	29061.19
588.407	29526.08
588.604	29253.7
588.801	29118.53
588.999	29116.48
589.196	29368.38
589.393	29009.99
589.59	28856.39
589.787	28919.88
589.984	28772.42
590.182	28803.14
590.379	28950.6
590.576	28639.31
590.773	28901.45
590.97	28403.79
591.167	28647.5
591.364	28151.89
591.561	28346.45
591.758	28198.99
591.955	28065.88
592.152	28698.7
592.349	28016.72
592.546	28143.7
592.743	27924.57
592.94	27848.79
593.137	28008.53
593.334	27981.91
593.531	27578.46
593.727	27940.95
593.924	27910.23
594.121	27242.59
594.318	27922.52
594.515	27363.42
594.712	27951.19
594.908	27486.3
595.105	27707.48
595.302	27347.04
595.499	27514.97
595.696	27199.58
595.892	27342.94
596.089	27410.53
596.286	27123.81
596.482	27234.4
596.679	27295.84
596.876	27369.57
597.072	27129.95
597.269	27170.91
597.466	26933.35
597.662	26949.73
597.859	26921.06
598.055	26880.1
598.252	27066.47
598.448	26912.87
598.645	27048.04
598.841	26624.11
599.038	26878.05
599.234	27213.92
599.431	26544.23
599.627	27013.22
599.824	27125.86
600.02	26474.6
600.217	27011.17
600.413	26787.94
600.609	26794.09
600.806	26953.83
601.002	26691.69
601.198	26978.4
601.395	26695.78
601.591	26800.23
601.787	26804.33
601.984	26617.96
602.18	26878.05
602.376	26660.97
602.572	26757.22
602.769	26757.22
602.965	26466.41
603.161	26632.3
603.357	26591.34
603.553	26493.04
603.75	26521.71
603.946	26679.4
604.142	26538.09
604.338	26341.49
604.534	26998.88
604.73	26499.18
604.926	26818.66
605.122	26955.88
605.318	26673.26
605.514	26667.11
605.71	26808.42
605.906	26656.87
606.102	26712.17
606.298	26470.51
606.494	26556.52
606.69	27107.43
606.886	26845.29
607.082	26454.12
607.278	26939.49
607.474	26658.92
607.67	27029.6
607.866	26476.65
608.062	26910.82
608.257	27037.8
608.453	26865.77
608.649	27033.7
608.845	26620.01
609.041	26617.96
609.236	26876.01
609.432	26916.97
609.628	27164.77
609.824	26953.83
610.019	27261.02
610.215	27328.61
610.411	27240.54
610.606	26945.64
610.802	27244.64
610.998	27093.09
611.193	27189.35
611.389	27019.36
611.584	27002.98
611.78	27379.81
611.976	27287.65
612.171	27408.48
612.367	27453.53
612.562	27338.85
612.758	27250.78
612.953	27101.28
613.149	27258.98
613.344	27148.39
613.539	27695.19
613.735	27443.29
613.93	27279.46
614.126	27555.93
614.321	27488.35
614.517	27514.97
614.712	27478.11
614.907	27201.63
615.103	27496.54
615.298	27562.08
615.493	27674.71
615.688	27390.05
615.884	27488.35
616.079	27041.89
616.274	27539.55
616.47	27490.4
616.665	27244.64
616.86	27379.81
617.055	27244.64
617.25	27371.61
617.445	27431.01
617.641	26765.42
617.836	27510.88
618.031	26738.79
618.226	27371.61
618.421	26984.55
618.616	27344.99
618.811	26699.88
619.006	26937.44
619.201	26544.23
619.396	26730.6
619.591	26517.61
619.786	27021.41
619.981	26394.73
620.176	26603.63
620.371	26105.97
620.566	26654.83
620.761	26468.46
620.956	26497.13
621.151	25940.08
621.346	26083.44
621.541	25948.28
621.735	25991.28
621.93	25733.24
622.125	26083.44
622.32	25251.97
622.515	25628.79
622.709	25268.35
622.904	25192.58
623.099	25217.15
623.294	25264.25
623.488	24764.55
623.683	25313.41
623.878	24533.13
624.072	24752.26
624.267	24541.32
624.462	24586.38
624.656	24500.36
624.851	24553.61
625.046	24311.95
625.24	23920.79
625.435	23824.53
625.629	24037.52
625.824	23730.33
626.018	23642.26
626.213	22972.58
626.407	23589.02
626.602	22823.08
626.796	23439.51
626.991	23275.68
627.185	22984.87
627.38	22896.8
627.574	22517.93
627.768	22526.12
627.963	22415.53
628.157	22333.61
628.352	22528.17
628.546	22311.08
628.74	22161.58
628.935	21913.78
629.129	22096.05
629.323	21649.59
629.517	21543.1
629.712	21473.46
629.906	21553.34
630.1	21076.16
630.294	21434.55
630.489	20963.52
630.683	21424.31
630.877	20902.08
631.071	20809.92
631.265	21090.49
631.459	20871.36
631.653	20429
631.848	20582.6
632.042	20598.98
632.236	20302.03
632.43	20060.37
632.624	20330.7
632.818	20240.59
633.012	19697.88
633.206	19816.66
633.4	19753.17
633.594	19536.09
633.788	19378.39
633.982	19628.24
634.176	19392.73
634.369	19169.5
634.563	19245.27
634.757	18954.46
634.951	19083.48
635.145	18895.07
635.339	18854.11
635.533	18563.3
635.726	18604.26
635.92	18352.36
636.114	18553.06
636.308	18272.49
636.501	18227.43
636.695	18155.75
636.889	18012.4
637.083	17842.42
637.276	17475.83
637.47	17551.6
637.664	17699.06
637.857	17733.87
638.051	17473.78
638.244	17469.69
638.438	17338.62
638.632	17246.46
638.825	16976.12
639.019	16939.26
639.212	16918.78
639.406	16994.56
639.599	16593.15
639.793	16654.59
639.986	16386.31
640.18	16324.87
640.373	16369.93
640.567	16230.66
640.76	16369.93
640.954	16265.48
641.147	15964.43
641.34	15853.84
641.534	15950.09
641.727	15767.82
641.92	15552.79
642.114	15581.46
642.307	15554.83
642.5	15368.47
642.694	15196.44
642.887	14862.62
643.08	15192.34
643.273	15073.56
643.467	14954.78
643.66	14776.61
643.853	14590.24
644.046	14502.18
644.239	14471.46
644.432	14473.51
644.626	14367.01
644.819	14162.22
645.012	14266.66
645.205	14039.34
645.398	14405.92
645.591	13908.27
645.784	13990.19
645.977	13674.8
646.17	13646.13
646.363	13482.29
646.556	13582.64
646.749	13406.52
646.942	13461.81
647.135	13388.08
647.328	13211.96
647.521	13283.64
647.714	13183.29
647.907	13044.02
648.099	13125.94
648.292	12740.93
648.485	12835.13
648.678	12667.2
648.871	12540.22
649.064	12572.99
649.256	12822.84
649.449	12380.48
649.642	12417.35
649.835	12173.64
650.027	12282.18
650.22	12370.24
650.413	12112.2
650.605	12124.49
650.798	12061
650.991	11841.87
651.183	11901.26
651.376	11766.09
651.568	11759.95
651.761	11628.88
651.954	11874.63
652.146	11577.68
652.339	11553.1
652.531	11434.32
652.724	11280.72
652.916	11075.93
653.109	11256.15
653.301	11313.49
653.494	11227.48
653.686	10928.47
653.879	11196.76
654.071	10987.86
654.263	10811.74
654.456	10815.83
654.648	10864.99
654.84	10686.81
655.033	10580.32
655.225	10781.02
655.417	10629.47
655.61	10625.37
655.802	10543.46
655.994	10324.32
656.186	10537.31
656.379	10248.55
656.571	10246.5
656.763	10244.45
656.955	10084.71
657.148	10129.77
657.34	9982.31
657.532	9974.12
657.724	9881.96
657.916	9912.68
658.108	9824.62
658.3	9787.75
658.492	9593.2
658.684	9775.47
658.876	9546.09
659.068	9431.41
659.26	9568.62
659.452	9580.91
659.644	9367.92
659.836	9251.19
660.028	9341.3
660.22	9058.68
660.412	9222.52
660.604	9111.92
660.796	9214.32
660.988	9015.67
661.18	9030.01
661.372	8827.26
661.563	8960.38
661.755	8972.66
661.947	8876.41
662.139	8794.49
662.331	8620.41
662.522	8636.8
662.714	8376.7
662.906	8446.34
663.097	8669.56
663.289	8456.57
663.481	8233.35
663.673	8352.13
663.864	8481.15
664.056	8286.59
664.247	8186.24
664.439	8104.32
664.631	8161.67
664.822	8186.24
665.014	8038.79
665.205	8163.72
665.397	7981.45
665.588	8038.79
665.78	7850.38
665.971	8014.21
666.163	7825.8
666.354	7680.39
666.546	7752.07
666.737	7575.95
666.929	7807.37
667.12	7563.66
667.311	7616.91
667.503	7549.32
667.694	7616.91
667.885	7526.8
668.077	7491.98
668.268	7444.88
668.459	7375.25
668.651	7391.63
668.842	7410.06
669.033	7281.04
669.224	7117.2
669.416	7252.37
669.607	7176.59
669.798	7131.54
669.989	7260.56
670.18	7018.9
670.371	7098.77
670.563	7082.39
670.754	7068.05
670.945	6943.13
671.136	7082.39
671.327	7066
671.518	6998.42
671.709	6883.73
671.9	6787.48
672.091	6678.94
672.282	6769.05
672.473	6500.76
672.664	6719.9
672.855	6728.09
673.046	6779.29
673.237	6721.95
673.428	6617.5
673.619	6785.43
673.809	6400.41
674	6666.65
674.191	6613.4
674.382	6379.93
674.573	6535.58
674.764	6404.51
674.954	6508.96
675.145	6459.81
675.336	6300.06
675.527	6326.69
675.717	6498.72
675.908	6076.84
676.099	6418.85
676.289	6343.07
676.48	6203.81
676.671	6314.4
676.861	6396.32
677.052	6228.38
677.243	6134.18
677.433	6181.28
677.624	6121.89
677.814	6179.23
678.005	6150.56
678.195	6232.48
678.386	6255.01
678.576	5935.53
678.767	6156.71
678.957	6105.51
679.148	6183.33
679.338	6212
679.529	6162.85
679.719	6095.27
679.909	5984.68
680.1	6003.11
680.29	5849.51
680.481	5788.07
680.671	5933.48
680.861	5978.53
681.052	5990.82
681.242	5999.01
681.432	6066.6
681.622	6009.25
681.813	5804.46
682.003	5872.04
682.193	5820.84
682.383	5984.68
682.573	5974.44
682.764	5886.37
682.954	5919.14
683.144	6031.78
683.334	5685.67
683.524	5802.41
683.714	5843.37
683.904	5728.68
684.094	5884.33
684.284	5726.63
684.474	5745.06
684.664	5865.89
684.854	5722.54
685.044	5673.39
685.234	5810.6
685.424	5712.3
685.614	5632.43
685.804	5566.89
685.994	5605.8
686.184	5605.8
686.374	5685.67
686.564	5568.94
686.753	5591.47
686.943	5378.48
687.133	5521.84
687.323	5491.12
687.513	5556.65
687.702	5415.34
687.892	5530.03
688.082	5456.3
688.272	5495.21
688.461	5353.9
688.651	5431.73
688.841	5294.51
689.03	5290.42
689.22	5358
689.41	5327.28
689.599	5335.47
689.789	5263.79
689.979	5194.16
690.168	5331.37
690.358	5157.3
690.547	5171.63
690.737	5210.54
690.926	5138.87
691.116	4989.36
691.305	5149.11
691.495	5091.76
691.684	5120.43
691.874	5173.68
692.063	5089.71
692.252	5091.76
692.442	5204.4
692.631	5089.71
692.82	4956.6
693.01	5048.75
693.199	5067.19
693.388	4846.01
693.578	4917.68
693.767	4958.64
693.956	4950.45
694.146	4983.22
694.335	4962.74
694.524	4870.58
694.713	4839.86
694.902	4934.07
695.092	4839.86
695.281	4798.9
695.47	4676.02
695.659	4866.49
695.848	4725.18
696.037	4790.71
696.226	4786.61
696.415	4651.45
696.604	4788.66
696.793	4663.74
696.982	4911.54
697.171	4852.15
697.36	4700.6
697.549	4549.05
697.738	4641.21
697.927	4641.21
698.116	4723.13
698.305	4616.63
698.494	4622.78
698.683	4712.89
698.872	4663.74
699.061	4659.64
699.25	4467.13
699.438	4551.1
699.627	4565.43
699.816	4542.91
700.005	4432.32
700.193	4297.15
700.382	4383.17
700.571	4352.45
700.76	4420.03
700.948	4528.57
701.137	4358.59
701.326	4401.6
701.514	4420.03
701.703	4401.6
701.892	4344.25
702.08	4448.7
702.269	4377.02
702.457	4319.68
702.646	4440.51
702.834	4315.58
703.023	4278.72
703.212	4166.08
703.4	4311.49
703.589	4174.27
703.777	4340.16
703.965	4223.42
704.154	4225.47
704.342	4151.74
704.531	4057.54
704.719	4139.46
704.907	4188.61
705.096	4129.22
705.284	4225.47
705.472	4098.5
705.661	3992
705.849	4057.54
706.037	4141.5
706.226	4102.59
706.414	4059.59
706.602	4049.35
706.79	4045.25
706.979	3946.95
707.167	4024.77
707.355	3830.21
707.543	3932.61
707.731	3750.34
707.919	3844.55
708.107	4002.24
708.296	3805.64
708.484	3744.2
708.672	3805.64
708.86	3791.3
709.048	3944.9
709.236	3852.74
709.424	3951.04
709.612	3893.7
709.8	3799.49
709.988	3758.53
710.176	3754.44
710.364	3733.96
710.551	3865.03
710.739	3799.49
710.927	3647.94
711.115	3699.14
711.303	3832.26
711.491	3709.38
711.679	3514.83
711.866	3736.01
712.054	3586.51
712.242	3660.23
712.43	3680.71
712.617	3654.09
712.805	3684.81
712.993	3643.85
713.181	3598.79
713.368	3635.66
713.556	3537.35
713.744	3447.24
713.931	3680.71
714.119	3475.91
714.306	3656.14
714.494	3465.68
714.682	3529.16
714.869	3451.34
715.057	3516.87
715.244	3297.74
715.432	3543.5
715.619	3437
715.807	3361.23
715.994	3498.44
716.182	3443.15
716.369	3551.69
716.556	3434.96
716.744	3295.69
716.931	3320.27
717.119	3500.49
717.306	3273.17
717.493	3383.76
717.681	3332.56
717.868	3279.31
718.055	3275.21
718.242	3420.62
718.43	3371.47
718.617	3287.5
718.804	3168.72
718.991	3252.69
719.179	3240.4
719.366	3242.45
719.553	3181.01
719.74	3314.13
719.927	3099.09
720.114	3199.44
720.301	3168.72
720.488	3131.86
720.676	3115.47
720.863	3191.25
721.05	3172.82
721.237	3127.76
721.424	3162.58
721.611	3172.82
721.798	3135.95
721.985	3086.8
722.172	2949.59
722.358	2951.63
722.545	3064.27
722.732	3029.46
722.919	3078.61
723.106	3127.76
723.293	2947.54
723.48	2976.21
723.667	2976.21
723.853	2935.25
724.04	2920.92
724.227	2914.77
724.414	3025.36
724.6	2910.68
724.787	3041.75
724.974	2978.26
725.161	3002.83
725.347	2984.4
725.534	2927.06
725.72	2984.4
725.907	2916.82
726.094	2980.31
726.28	2861.52
726.467	2873.81
726.653	2879.96
726.84	2927.06
727.027	3035.6
727.213	2818.52
727.4	2834.9
727.586	2798.04
727.773	2814.42
727.959	2836.95
728.145	2908.63
728.332	2769.37
728.518	2914.77
728.705	2740.69
728.891	2834.9
729.077	2648.54
729.264	2773.46
729.45	2886.1
729.636	2742.74
729.823	2826.71
730.009	2806.23
730.195	2703.83
730.382	2712.02
730.568	2746.84
730.754	2757.08
730.94	2685.4
731.126	2654.68
731.313	2755.03
731.499	2814.42
731.685	2716.12
731.871	2611.67
732.057	2847.19
732.243	2703.83
732.429	2775.51
732.615	2691.54
732.801	2636.25
732.987	2681.3
733.173	2701.78
733.359	2591.19
733.545	2517.47
733.731	2521.56
733.917	2591.19
734.103	2607.58
734.289	2578.9
734.475	2578.9
734.661	2640.34
734.847	2585.05
735.033	2583
735.219	2509.27
735.404	2578.9
735.59	2529.75
735.776	2404.83
735.962	2374.11
736.148	2611.67
736.333	2533.85
736.519	2550.23
736.705	2406.88
736.89	2539.99
737.076	2503.13
737.262	2370.01
737.447	2302.43
737.633	2533.85
737.819	2566.62
738.004	2404.83
738.19	2458.07
738.375	2550.23
738.561	2456.03
738.747	2443.74
738.932	2400.73
739.118	2421.21
739.303	2370.01
739.489	2378.2
739.674	2341.34
739.859	2238.94
740.045	2255.33
740.23	2327
740.416	2232.8
740.601	2382.3
740.786	2408.92
740.972	2304.48
741.157	2275.81
741.342	2290.14
741.528	2226.65
741.713	2253.28
741.898	2240.99
742.084	2300.38
742.269	2251.23
742.454	2284
742.639	2167.26
742.824	2173.41
743.01	2169.31
743.195	2189.79
743.38	2148.83
743.565	2146.78
743.75	2097.63
743.935	2197.98
744.12	2234.85
744.305	2111.97
744.49	2087.39
744.675	2181.6
744.86	2062.82
745.045	2025.95
745.23	2034.14
745.415	2109.92
745.6	2050.53
745.785	1978.85
745.97	2095.58
746.155	1976.8
746.34	1948.13
746.525	1933.79
746.71	1911.27
746.895	1935.84
747.079	1831.4
747.264	1855.97
747.449	1909.22
747.634	1874.4
747.819	1968.61
748.003	1878.5
748.188	1894.88
748.373	1831.4
748.557	1956.32
748.742	1772
748.927	1739.24
749.111	1829.35
749.296	1704.42
749.481	1776.1
749.665	1706.47
749.85	1755.62
750.034	1866.21
750.219	1720.81
750.404	1798.63
750.588	1745.38
750.773	1595.88
750.957	1710.57
751.141	1724.9
751.326	1749.48
751.51	1608.17
751.695	1571.3
751.879	1612.26
752.064	1659.37
752.248	1610.22
752.432	1579.5
752.617	1645.03
752.801	1548.78
752.985	1559.02
753.17	1583.59
753.354	1522.15
753.538	1485.29
753.722	1499.63
753.907	1513.96
754.091	1468.91
754.275	1532.39
754.459	1530.34
754.643	1534.44
754.828	1446.38
755.012	1464.81
755.196	1370.6
755.38	1436.14
755.564	1384.94
755.748	1407.47
755.932	1356.27
756.116	1427.95
756.3	1438.19
756.484	1309.16
756.668	1364.46
756.852	1264.11
757.036	1331.69
757.22	1436.14
757.404	1374.7
757.588	1337.84
757.772	1231.34
757.956	1354.22
758.14	1266.16
758.323	1231.34
758.507	1372.65
758.691	1286.64
758.875	1378.79
759.059	1331.69
759.242	1223.15
759.426	1149.42
759.61	1251.82
759.794	1247.72
759.977	1282.54
760.161	1233.39
760.345	1223.15
760.528	1235.44
760.712	1290.73
760.895	1262.06
761.079	1227.25
761.263	1071.6
761.446	1137.13
761.63	1137.13
761.813	1133.04
761.997	1071.6
762.18	1133.04
762.364	1149.42
762.547	1059.31
762.731	1087.98
762.914	1104.37
763.098	1067.5
763.281	1174
763.464	1028.59
763.648	1112.56
763.831	1075.7
764.015	1155.57
764.198	1085.94
764.381	1083.89
764.564	1012.21
764.748	1051.12
764.931	1006.06
765.114	1061.36
765.297	1065.46
765.481	1020.4
765.664	1063.41
765.847	1040.88
766.03	1067.5
766.213	1014.26
766.397	954.87
766.58	1096.18
766.763	971.25
766.946	971.25
767.129	956.91
767.312	1049.07
767.495	924.15
767.678	969.2
767.861	1010.16
768.044	999.92
768.227	985.58
768.41	977.39
768.593	958.96
768.776	911.86
768.959	946.67
769.142	1006.06
769.324	989.68
769.507	926.19
769.69	852.47
769.873	969.2
770.056	1010.16
770.239	956.91
770.421	944.63
770.604	891.38
770.787	903.67
770.97	862.71
771.152	825.84
771.335	915.95
771.518	907.76
771.7	870.9
771.883	961.01
772.066	848.37
772.248	829.94
772.431	928.24
772.613	899.57
772.796	815.6
772.978	819.7
773.161	913.91
773.343	823.8
773.526	809.46
773.708	813.56
773.891	797.17
774.073	807.41
774.256	750.07
774.438	848.37
774.621	766.45
774.803	702.97
774.985	840.18
775.168	815.6
775.35	770.55
775.532	766.45
775.715	793.08
775.897	725.49
776.079	793.08
776.261	756.21
776.444	723.44
776.626	680.44
776.808	709.11
776.99	694.77
777.173	627.19
777.355	756.21
777.537	748.02
777.719	731.64
777.901	649.72
778.083	649.72
778.265	616.95
778.447	690.68
778.629	592.37
778.811	719.35
778.993	727.54
779.175	774.64
779.357	662.01
779.539	647.67
779.721	625.14
779.903	682.49
780.085	670.2
780.267	686.58
780.449	657.91
780.631	625.14
780.812	651.77
780.994	686.58
781.176	575.99
781.358	602.61
781.54	688.63
781.721	659.96
781.903	518.65
782.085	594.42
782.267	594.42
782.448	606.71
782.63	510.46
782.812	522.74
782.993	596.47
783.175	567.8
783.357	596.47
783.538	526.84
783.72	502.26
783.901	508.41
784.083	588.28
784.264	553.46
784.446	547.32
784.627	489.98
784.809	530.94
784.99	483.83
785.172	479.74
785.353	543.22
785.535	463.35
785.716	477.69
785.897	387.58
786.079	436.73
786.26	451.07
786.441	391.67
786.623	391.67
786.804	510.46
786.985	432.63
787.167	485.88
787.348	403.96
787.529	412.15
787.71	395.77
787.891	414.2
788.073	383.48
788.254	354.81
788.435	502.26
788.616	485.88
788.797	363
788.978	457.21
789.159	420.35
789.34	379.39
789.522	391.67
789.703	500.22
789.884	403.96
790.065	403.96
790.246	438.78
790.427	381.43
790.607	522.74
790.788	360.95
790.969	432.63
791.15	403.96
791.331	330.23
791.512	414.2
791.693	363
791.874	342.52
792.054	453.11
792.235	326.14
792.416	291.32
792.597	305.66
792.778	371.19
792.958	322.04
793.139	332.28
793.32	406.01
793.5	270.84
793.681	412.15
793.862	326.14
794.042	346.62
794.223	272.89
794.404	283.13
794.584	285.18
794.765	326.14
794.945	340.47
795.126	354.81
795.306	377.34
795.487	371.19
795.667	317.95
795.848	309.76
796.028	315.9
796.209	293.37
796.389	248.32
796.57	250.36
796.75	256.51
796.93	231.93
797.111	313.85
797.291	289.28
797.471	350.71
797.652	297.47
797.832	291.32
798.012	334.33
798.192	293.37
798.373	252.41
798.553	315.9
798.733	340.47
798.913	227.84
799.093	225.79
799.274	242.17
799.454	311.8
799.634	252.41
799.814	354.81
799.994	274.94
800.174	289.28
800.354	332.28
800.534	231.93
800.714	322.04
800.894	190.97
801.074	166.4
801.254	176.64
801.434	240.12
801.614	240.12
801.794	211.45
801.974	885.23
802.154	256.51
802.334	264.7
802.514	281.08
802.693	252.41
802.873	217.6
803.053	201.21
803.233	313.85
803.413	279.04
803.592	223.74
803.772	272.89
803.952	217.6
804.131	213.5
804.311	203.26
804.491	240.12
804.67	227.84
804.85	190.97
805.03	281.08
805.209	309.76
805.389	217.6
805.568	186.88
805.748	256.51
805.928	256.51
806.107	231.93
806.287	164.35
806.466	276.99
806.646	201.21
806.825	190.97
807.004	147.97
807.184	256.51
807.363	231.93
807.543	252.41
807.722	184.83
807.901	225.79
808.081	207.36
808.26	145.92
808.439	244.22
808.619	188.93
808.798	160.25
808.977	215.55
809.156	272.89
809.336	207.36
809.515	203.26
809.694	180.73
809.873	256.51
810.052	207.36
810.231	141.82
810.411	154.11
810.59	209.4
810.769	219.64
810.948	215.55
811.127	121.34
811.306	178.69
811.485	182.78
811.664	203.26
811.843	158.21
812.022	186.88
812.201	174.59
812.38	217.6
812.559	199.16
812.737	158.21
812.916	104.96
813.095	199.16
813.274	176.64
813.453	236.03
813.632	203.26
813.811	256.51
813.989	125.44
814.168	147.97
814.347	201.21
814.526	205.31
814.704	195.07
814.883	184.83
815.062	205.31
815.24	227.84
815.419	170.49
815.598	119.29
815.776	133.63
815.955	211.45
816.133	133.63
816.312	104.96
816.49	84.48
816.669	188.93
816.847	78.33
817.026	188.93
817.204	129.53
817.383	182.78
817.561	178.69
817.74	94.72
817.918	49.66
818.097	53.76
818.275	143.87
818.453	111.1
818.632	195.07
818.81	100.86
818.988	45.57
819.167	135.68
819.345	154.11
819.523	143.87
819.701	158.21
819.879	135.68
820.058	205.31
820.236	133.63
820.414	107.01
820.592	57.86
820.77	162.3
820.948	145.92
821.127	129.53
821.305	53.76
821.483	96.77
821.661	152.06
821.839	125.44
822.017	94.72
822.195	57.86
822.373	100.86
822.551	109.05
822.729	164.35
822.907	76.29
823.085	104.96
823.262	61.95
823.44	166.4
823.618	107.01
823.796	162.3
823.974	113.15
824.152	94.72
824.329	125.44
824.507	125.44
824.685	37.38
824.863	129.53
825.04	174.59
825.218	190.97
825.396	92.67
825.574	164.35
825.751	47.62
825.929	119.29
826.107	100.86
826.284	176.64
826.462	96.77
826.639	121.34
826.817	61.95
826.994	2.56
827.172	64
827.349	166.4
827.527	51.71
827.704	80.38
827.882	133.63
828.059	94.72
828.237	72.19
828.414	64
828.591	66.05
828.769	143.87
828.946	14.85
829.124	172.54
829.301	133.63
829.478	135.68
829.655	135.68
829.833	72.19
830.01	31.23
830.187	107.01
830.364	131.58
830.542	129.53
830.719	94.72
830.896	51.71
831.073	145.92
831.25	113.15
831.427	125.44
831.604	96.77
831.782	47.62
831.959	43.52
832.136	45.57
832.313	121.34
832.49	72.19
832.667	68.09
832.844	121.34
833.021	174.59
833.198	111.1
833.374	80.38
833.551	51.71
833.728	72.19
833.905	98.81
834.082	35.33
834.259	80.38
834.436	86.53
834.612	94.72
834.789	168.45
834.966	37.38
835.143	68.09
835.319	27.14
835.496	113.15
835.673	88.57
835.85	127.49
836.026	127.49
836.203	154.11
836.38	133.63
836.556	47.62
836.733	51.71
836.909	125.44
837.086	45.57
837.262	51.71
837.439	59.9
837.616	127.49
837.792	-5.63
837.968	35.33
838.145	18.94
838.321	92.67
838.498	100.86
838.674	117.25
838.851	47.62
839.027	100.86
839.203	51.71
839.38	55.81
839.556	18.94
839.732	141.82
839.909	8.7
840.085	55.81
840.261	41.47
840.437	31.23
840.614	37.38
840.79	150.01
840.966	35.33
841.142	88.57
841.318	2.56
841.494	104.96
841.671	29.18
841.847	84.48
842.023	2.56
842.199	61.95
842.375	80.38
842.551	51.71
842.727	-42.5
842.903	47.62
843.079	80.38
843.255	125.44
843.431	18.94
843.607	37.38
843.783	-62.98
843.959	86.53
844.134	31.23
844.31	45.57
844.486	47.62
844.662	102.91
844.838	33.28
845.013	-19.97
845.189	76.29
845.365	55.81
845.541	109.05
845.716	27.14
845.892	61.95
846.068	55.81
846.244	43.52
846.419	107.01
846.595	53.76
846.77	16.9
846.946	78.33
847.122	68.09
847.297	64
847.473	72.19
847.648	23.04
847.824	78.33
847.999	68.09
848.175	76.29
848.35	55.81
848.526	35.33
848.701	29.18
848.876	23.04
849.052	33.28
849.227	12.8
849.403	70.14
849.578	-36.35
849.753	29.18
849.929	117.25
850.104	16.9
850.279	-30.21
850.454	102.91
850.63	27.14
850.805	31.23
850.98	43.52
851.155	59.9
851.33	27.14
851.505	33.28
851.681	94.72
851.856	16.9
852.031	82.43
852.206	20.99
852.381	76.29
852.556	18.94
852.731	84.48
852.906	96.77
853.081	-1.54
853.256	70.14
853.431	72.19
853.606	68.09
853.781	27.14
853.956	29.18
854.131	0.51
854.305	-58.88
854.48	27.14
854.655	82.43
854.83	18.94
855.005	43.52
855.18	-48.64
855.354	29.18
855.529	2.56
855.704	23.04
855.879	76.29
856.053	35.33
856.228	29.18
856.403	8.7
856.577	43.52
856.752	-1.54
856.926	16.9
857.101	53.76
857.276	-24.06
857.45	98.81
857.625	90.62
857.799	64
857.974	66.05
858.148	-42.5
858.323	64
858.497	51.71
858.672	37.38
858.846	-9.73
859.02	84.48
859.195	18.94
859.369	70.14
859.543	14.85
859.718	53.76
859.892	111.1
860.066	6.66
860.241	-11.78
860.415	43.52
860.589	45.57
860.763	-62.98
860.938	37.38
861.112	37.38
861.286	29.18
861.46	35.33
861.634	23.04
861.808	29.18
861.982	-38.4
862.157	39.42
862.331	-5.63
862.505	-11.78
862.679	-11.78
862.853	57.86
863.027	14.85
863.201	4.61
863.375	0.51
863.549	109.05
863.722	-42.5
863.896	57.86
864.07	8.7
864.244	145.92
864.418	2.56
864.592	12.8
864.766	18.94
864.939	51.71
865.113	-54.78
865.287	72.19
865.461	10.75
865.634	68.09
865.808	78.33
865.982	-36.35
866.156	33.28
866.329	-3.58
866.503	51.71
866.676	23.04
866.85	39.42
867.024	-11.78
867.197	27.14
867.371	47.62
867.544	-3.58
867.718	-26.11
867.891	-7.68
868.065	-11.78
868.238	111.1
868.412	31.23
868.585	20.99
868.759	12.8
868.932	45.57
869.105	43.52
869.279	25.09
869.452	-44.54
869.625	-13.82
869.799	59.9
869.972	35.33
870.145	18.94
870.319	37.38
870.492	-19.97
870.665	33.28
870.838	68.09
871.011	-62.98
871.185	-22.02
871.358	0.51
871.531	37.38
871.704	20.99
871.877	10.75
872.05	33.28
872.223	10.75
872.396	92.67
872.569	10.75
872.742	-5.63
872.915	39.42
873.088	-38.4
873.261	6.66
873.434	64
873.607	-32.26
873.78	10.75
873.953	-38.4
874.126	-38.4
874.299	18.94
874.471	-28.16
874.644	4.61
874.817	4.61
874.99	78.33
875.163	10.75
875.335	2.56
875.508	4.61
875.681	88.57
875.853	27.14
876.026	35.33
876.199	27.14
876.371	90.62
876.544	20.99
876.717	29.18
876.889	-13.82
877.062	-5.63
877.234	-54.78
877.407	33.28
877.579	-13.82
877.752	-30.21
877.924	84.48
878.097	-71.17
878.269	31.23
878.442	31.23
878.614	43.52
878.786	-5.63
878.959	-58.88
879.131	47.62
879.303	-44.54
879.476	8.7
879.648	-62.98
879.82	10.75
879.993	-34.3
880.165	61.95
880.337	8.7
880.509	20.99
880.681	-30.21
880.854	-50.69
881.026	8.7
881.198	76.29
881.37	-69.12
881.542	20.99
881.714	-46.59
881.886	37.38
882.058	41.47
882.23	35.33
882.402	57.86
882.574	-93.69
882.746	51.71
882.918	104.96
883.09	37.38
883.262	-46.59
883.434	27.14
883.606	-52.74
883.778	-60.93
883.95	117.25
884.122	37.38
884.293	29.18
884.465	-5.63
884.637	10.75
884.809	35.33
884.98	-1.54
885.152	-36.35
885.324	2.56
885.496	0.51
885.667	-9.73
885.839	-48.64
886.011	41.47
886.182	6.66
886.354	2.56
886.525	18.94
886.697	6.66
886.869	-22.02
887.04	-1.54
887.212	47.62
887.383	141.82
887.555	18.94
887.726	-5.63
887.897	55.81
888.069	37.38
888.24	12.8
888.412	12.8
888.583	-1.54
888.754	6.66
888.926	-9.73
889.097	-24.06
889.268	-101.89
889.44	92.67
889.611	-71.17
889.782	-9.73
889.953	82.43
890.125	23.04
890.296	6.66
890.467	43.52
890.638	2.56
890.809	-46.59
890.98	-32.26
891.151	-22.02
891.323	-13.82
891.494	-36.35
891.665	16.9
891.836	29.18
892.007	27.14
892.178	-46.59
892.349	-38.4
892.52	-46.59
892.691	-13.82
892.862	14.85
893.032	-17.92
893.203	10.75
893.374	20.99
893.545	47.62
893.716	-19.97
893.887	35.33
894.057	43.52
894.228	-17.92
894.399	-30.21
894.57	117.25
894.74	10.75
894.911	16.9
895.082	-108.03
895.253	-30.21
895.423	29.18
895.594	-9.73
895.764	-54.78
895.935	-56.83
896.106	-26.11
896.276	-5.63
896.447	45.57
896.617	2.56
896.788	-83.45
896.958	-56.83
897.129	-38.4
897.299	43.52
897.47	23.04
897.64	43.52
897.81	8.7
897.981	53.76
898.151	-3.58
898.322	72.19
898.492	31.23
898.662	-30.21
898.832	2.56
899.003	16.9
899.173	37.38
899.343	98.81
899.513	-69.12
