Data from USB4F104151__232__14-34-02-438.txt Node

Date: Thu Mar 13 14:34:02 EDT 2025
User: louis
Spectrometer: USB4F10415
Trigger mode: 4
Integration Time (sec): 2.500000E-2
Scans to average: 1
Electric dark correction enabled: true
Nonlinearity correction enabled: false
Boxcar width: 0
XAxis mode: Wavelengths
Number of Pixels in Spectrum: 3648
>>>>>Begin Spectral Data<<<<<
178.204	-38.91
178.424	-38.91
178.644	-38.91
178.864	-155.65
179.084	-161.79
179.304	8.19
179.524	-22.53
179.744	-36.86
179.964	51.2
180.184	-53.25
180.404	55.3
180.624	10.24
180.844	67.58
181.064	-43.01
181.283	12.29
181.503	-71.68
181.723	22.53
181.943	20.48
182.163	77.82
182.383	47.1
182.602	83.97
182.822	108.54
183.042	-10.24
183.262	24.58
183.482	67.58
183.701	22.53
183.921	-18.43
184.141	-18.43
184.361	96.25
184.58	92.16
184.8	59.39
185.02	38.91
185.239	49.15
185.459	112.64
185.679	53.25
185.898	-16.38
186.118	63.49
186.338	-22.53
186.557	57.34
186.777	-22.53
186.997	12.29
187.216	8.19
187.436	55.3
187.655	51.2
187.875	-2.05
188.095	28.67
188.314	6.14
188.534	149.5
188.753	10.24
188.973	12.29
189.192	83.97
189.412	34.82
189.631	59.39
189.851	53.25
190.07	-2.05
190.29	14.34
190.509	69.63
190.729	26.62
190.948	-45.06
191.168	149.5
191.387	71.68
191.607	71.68
191.826	-30.72
192.045	2.05
192.265	-4.1
192.484	2.05
192.704	92.16
192.923	75.77
193.142	38.91
193.362	75.77
193.581	47.1
193.8	30.72
194.02	43.01
194.239	-6.14
194.458	59.39
194.678	81.92
194.897	51.2
195.116	-22.53
195.335	43.01
195.555	65.54
195.774	16.38
195.993	28.67
196.212	43.01
196.432	24.58
196.651	61.44
196.87	75.77
197.089	75.77
197.308	38.91
197.528	4.1
197.747	-20.48
197.966	-47.1
198.185	122.88
198.404	-22.53
198.623	75.77
198.842	2.05
199.062	2.05
199.281	96.25
199.5	43.01
199.719	83.97
199.938	75.77
200.157	102.4
200.376	38.91
200.595	51.2
200.814	67.58
201.033	71.68
201.252	47.1
201.471	22.53
201.69	100.35
201.909	-22.53
202.128	110.59
202.347	55.3
202.566	51.2
202.785	2.05
203.004	-6.14
203.223	118.78
203.442	53.25
203.661	-63.49
203.879	63.49
204.098	30.72
204.317	10.24
204.536	61.44
204.755	51.2
204.974	75.77
205.193	30.72
205.411	67.58
205.63	71.68
205.849	40.96
206.068	22.53
206.287	53.25
206.505	36.86
206.724	-36.86
206.943	43.01
207.162	28.67
207.381	43.01
207.599	-20.48
207.818	-18.43
208.037	-24.58
208.255	69.63
208.474	14.34
208.693	67.58
208.911	26.62
209.13	-18.43
209.349	55.3
209.567	45.06
209.786	65.54
210.005	100.35
210.223	71.68
210.442	-4.1
210.661	26.62
210.879	28.67
211.098	38.91
211.316	61.44
211.535	86.01
211.753	100.35
211.972	51.2
212.191	61.44
212.409	43.01
212.628	65.54
212.846	16.38
213.065	110.59
213.283	14.34
213.502	16.38
213.72	-6.14
213.938	49.15
214.157	69.63
214.375	26.62
214.594	-47.1
214.812	40.96
215.031	20.48
215.249	-4.1
215.467	88.06
215.686	2.05
215.904	71.68
216.122	-6.14
216.341	90.11
216.559	8.19
216.778	118.78
216.996	-24.58
217.214	34.82
217.432	-22.53
217.651	22.53
217.869	10.24
218.087	-18.43
218.306	-6.14
218.524	43.01
218.742	6.14
218.96	75.77
219.179	112.64
219.397	16.38
219.615	141.31
219.833	129.02
220.051	12.29
220.27	92.16
220.488	-6.14
220.706	75.77
220.924	26.62
221.142	59.39
221.36	-6.14
221.578	26.62
221.796	43.01
222.015	18.43
222.233	49.15
222.451	55.3
222.669	28.67
222.887	34.82
223.105	-6.14
223.323	59.39
223.541	6.14
223.759	69.63
223.977	69.63
224.195	124.93
224.413	36.86
224.631	75.77
224.849	34.82
225.067	112.64
225.285	6.14
225.503	71.68
225.721	-92.16
225.939	36.86
226.157	102.4
226.375	133.12
226.592	22.53
226.81	-18.43
227.028	174.08
227.246	114.69
227.464	45.06
227.682	110.59
227.9	36.86
228.117	53.25
228.335	69.63
228.553	69.63
228.771	67.58
228.989	51.2
229.206	20.48
229.424	22.53
229.642	28.67
229.86	-14.34
230.077	141.31
230.295	26.62
230.513	53.25
230.731	28.67
230.948	71.68
231.166	104.45
231.384	-4.1
231.601	94.21
231.819	83.97
232.037	51.2
232.254	-26.62
232.472	-8.19
232.689	88.06
232.907	83.97
233.125	83.97
233.342	65.54
233.56	-14.34
233.777	45.06
233.995	20.48
234.213	49.15
234.43	51.2
234.648	43.01
234.865	-59.39
235.083	-22.53
235.3	28.67
235.518	92.16
235.735	24.58
235.953	59.39
236.17	28.67
236.388	10.24
236.605	51.2
236.822	45.06
237.04	86.01
237.257	75.77
237.475	24.58
237.692	34.82
237.909	49.15
238.127	51.2
238.344	86.01
238.562	18.43
238.779	-47.1
238.996	-14.34
239.214	-14.34
239.431	92.16
239.648	43.01
239.865	86.01
240.083	14.34
240.3	51.2
240.517	43.01
240.735	26.62
240.952	124.93
241.169	75.77
241.386	98.3
241.603	20.48
241.821	-12.29
242.038	38.91
242.255	43.01
242.472	-10.24
242.689	51.2
242.907	-8.19
243.124	55.3
243.341	-6.14
243.558	6.14
243.775	-30.72
243.992	-28.67
244.209	-6.14
244.426	18.43
244.643	133.12
244.86	-49.15
245.078	100.35
245.295	92.16
245.512	6.14
245.729	-24.58
245.946	75.77
246.163	47.1
246.38	67.58
246.597	0
246.814	102.4
247.031	61.44
247.248	88.06
247.464	116.73
247.681	108.54
247.898	43.01
248.115	116.73
248.332	20.48
248.549	129.02
248.766	61.44
248.983	61.44
249.2	-12.29
249.417	159.74
249.633	49.15
249.85	26.62
250.067	-6.14
250.284	-36.86
250.501	73.73
250.717	92.16
250.934	-6.14
251.151	86.01
251.368	38.91
251.585	2.05
251.801	69.63
252.018	2.05
252.235	137.21
252.451	10.24
252.668	14.34
252.885	135.17
253.102	79.87
253.318	96.25
253.535	6.14
253.752	75.77
253.968	4.1
254.185	-4.1
254.401	57.34
254.618	77.82
254.835	6.14
255.051	149.5
255.268	18.43
255.484	67.58
255.701	26.62
255.917	100.35
256.134	-14.34
256.351	36.86
256.567	-55.3
256.784	12.29
257	18.43
257.217	67.58
257.433	131.07
257.65	36.86
257.866	106.49
258.082	-2.05
258.299	34.82
258.515	28.67
258.732	6.14
258.948	38.91
259.165	45.06
259.381	12.29
259.597	32.77
259.814	2.05
260.03	10.24
260.246	-18.43
260.463	77.82
260.679	30.72
260.895	-12.29
261.112	73.73
261.328	2.05
261.544	-2.05
261.761	61.44
261.977	6.14
262.193	6.14
262.409	12.29
262.626	53.25
262.842	26.62
263.058	-12.29
263.274	53.25
263.49	57.34
263.707	67.58
263.923	40.96
264.139	-2.05
264.355	59.39
264.571	81.92
264.787	96.25
265.004	108.54
265.22	28.67
265.436	4.1
265.652	55.3
265.868	34.82
266.084	59.39
266.3	4.1
266.516	-14.34
266.732	69.63
266.948	-24.58
267.164	26.62
267.38	118.78
267.596	59.39
267.812	67.58
268.028	51.2
268.244	18.43
268.46	67.58
268.676	-28.67
268.892	18.43
269.108	81.92
269.324	14.34
269.54	79.87
269.756	96.25
269.972	59.39
270.188	135.17
270.403	59.39
270.619	59.39
270.835	43.01
271.051	14.34
271.267	51.2
271.483	53.25
271.698	96.25
271.914	51.2
272.13	75.77
272.346	83.97
272.562	-6.14
272.777	59.39
272.993	49.15
273.209	-34.82
273.425	94.21
273.64	8.19
273.856	53.25
274.072	-18.43
274.287	-22.53
274.503	92.16
274.719	10.24
274.934	51.2
275.15	-4.1
275.366	34.82
275.581	-14.34
275.797	51.2
276.012	102.4
276.228	22.53
276.444	26.62
276.659	55.3
276.875	-20.48
277.09	-22.53
277.306	-8.19
277.521	4.1
277.737	10.24
277.952	98.3
278.168	47.1
278.383	36.86
278.599	10.24
278.814	75.77
279.03	59.39
279.245	86.01
279.461	108.54
279.676	53.25
279.892	47.1
280.107	77.82
280.322	12.29
280.538	110.59
280.753	10.24
280.969	124.93
281.184	18.43
281.399	86.01
281.615	36.86
281.83	96.25
282.045	2.05
282.26	26.62
282.476	71.68
282.691	43.01
282.906	4.1
283.122	28.67
283.337	92.16
283.552	53.25
283.767	26.62
283.983	14.34
284.198	75.77
284.413	4.1
284.628	-36.86
284.843	86.01
285.058	32.77
285.274	86.01
285.489	-38.91
285.704	92.16
285.919	-6.14
286.134	69.63
286.349	-2.05
286.564	45.06
286.779	86.01
286.995	53.25
287.21	10.24
287.425	59.39
287.64	100.35
287.855	83.97
288.07	-30.72
288.285	12.29
288.5	55.3
288.715	-4.1
288.93	-2.05
289.145	-8.19
289.36	6.14
289.575	22.53
289.79	104.45
290.004	34.82
290.219	118.78
290.434	26.62
290.649	6.14
290.864	10.24
291.079	-26.62
291.294	20.48
291.509	57.34
291.724	67.58
291.938	-12.29
292.153	-20.48
292.368	32.77
292.583	65.54
292.798	61.44
293.012	67.58
293.227	59.39
293.442	63.49
293.657	83.97
293.871	20.48
294.086	59.39
294.301	71.68
294.516	88.06
294.73	141.31
294.945	-22.53
295.16	10.24
295.374	45.06
295.589	75.77
295.804	133.12
296.018	40.96
296.233	55.3
296.447	61.44
296.662	55.3
296.877	51.2
297.091	-22.53
297.306	4.1
297.52	75.77
297.735	81.92
297.949	26.62
298.164	88.06
298.378	67.58
298.593	49.15
298.807	-14.34
299.022	86.01
299.236	28.67
299.451	22.53
299.665	55.3
299.88	63.49
300.094	73.73
300.309	34.82
300.523	47.1
300.737	10.24
300.952	43.01
301.166	67.58
301.381	20.48
301.595	51.2
301.809	59.39
302.024	2.05
302.238	61.44
302.452	88.06
302.667	59.39
302.881	92.16
303.095	86.01
303.309	28.67
303.524	67.58
303.738	20.48
303.952	-6.14
304.166	-30.72
304.381	-47.1
304.595	116.73
304.809	18.43
305.023	38.91
305.237	61.44
305.452	47.1
305.666	59.39
305.88	57.34
306.094	67.58
306.308	10.24
306.522	55.3
306.736	26.62
306.95	6.14
307.164	86.01
307.379	106.49
307.593	28.67
307.807	120.83
308.021	88.06
308.235	83.97
308.449	34.82
308.663	-14.34
308.877	116.73
309.091	118.78
309.305	26.62
309.519	-6.14
309.733	88.06
309.947	61.44
310.161	137.21
310.374	75.77
310.588	92.16
310.802	92.16
311.016	83.97
311.23	47.1
311.444	51.2
311.658	47.1
311.872	126.97
312.085	67.58
312.299	141.31
312.513	69.63
312.727	79.87
312.941	47.1
313.154	14.34
313.368	-2.05
313.582	129.02
313.796	4.1
314.009	-28.67
314.223	69.63
314.437	-38.91
314.651	92.16
314.864	53.25
315.078	67.58
315.292	53.25
315.505	20.48
315.719	36.86
315.933	47.1
316.146	43.01
316.36	-36.86
316.573	18.43
316.787	8.19
317.001	28.67
317.214	88.06
317.428	57.34
317.641	2.05
317.855	40.96
318.068	0
318.282	18.43
318.495	147.45
318.709	10.24
318.922	69.63
319.136	124.93
319.349	-69.63
319.563	-47.1
319.776	69.63
319.99	-30.72
320.203	61.44
320.417	30.72
320.63	106.49
320.843	69.63
321.057	61.44
321.27	83.97
321.483	18.43
321.697	92.16
321.91	38.91
322.124	108.54
322.337	157.69
322.55	96.25
322.763	49.15
322.977	129.02
323.19	20.48
323.403	65.54
323.617	96.25
323.83	75.77
324.043	49.15
324.256	34.82
324.469	-12.29
324.683	43.01
324.896	22.53
325.109	102.4
325.322	-16.38
325.535	57.34
325.748	98.3
325.962	75.77
326.175	55.3
326.388	135.17
326.601	-6.14
326.814	49.15
327.027	59.39
327.24	118.78
327.453	-43.01
327.666	86.01
327.879	45.06
328.092	45.06
328.305	57.34
328.518	8.19
328.731	-16.38
328.944	43.01
329.157	43.01
329.37	-10.24
329.583	43.01
329.796	16.38
330.009	18.43
330.222	110.59
330.435	79.87
330.648	126.97
330.861	61.44
331.073	75.77
331.286	20.48
331.499	22.53
331.712	51.2
331.925	112.64
332.138	30.72
332.35	38.91
332.563	63.49
332.776	75.77
332.989	36.86
333.202	20.48
333.414	18.43
333.627	-20.48
333.84	-22.53
334.053	43.01
334.265	-77.82
334.478	4.1
334.691	-24.58
334.903	53.25
335.116	10.24
335.329	43.01
335.541	43.01
335.754	75.77
335.966	20.48
336.179	53.25
336.392	69.63
336.604	59.39
336.817	143.36
337.029	47.1
337.242	16.38
337.454	102.4
337.667	26.62
337.88	92.16
338.092	92.16
338.305	57.34
338.517	32.77
338.729	55.3
338.942	69.63
339.154	51.2
339.367	-6.14
339.579	69.63
339.792	57.34
340.004	122.88
340.217	65.54
340.429	102.4
340.641	6.14
340.854	30.72
341.066	-2.05
341.278	106.49
341.491	75.77
341.703	55.3
341.915	30.72
342.128	34.82
342.34	59.39
342.552	151.55
342.764	55.3
342.977	10.24
343.189	53.25
343.401	-6.14
343.613	-34.82
343.826	47.1
344.038	157.69
344.25	43.01
344.462	45.06
344.674	59.39
344.886	47.1
345.099	69.63
345.311	10.24
345.523	83.97
345.735	-63.49
345.947	92.16
346.159	47.1
346.371	2.05
346.583	26.62
346.795	53.25
347.007	63.49
347.219	92.16
347.431	75.77
347.643	71.68
347.855	57.34
348.067	79.87
348.279	-30.72
348.491	61.44
348.703	12.29
348.915	51.2
349.127	-14.34
349.339	81.92
349.551	47.1
349.763	69.63
349.975	43.01
350.187	10.24
350.399	79.87
350.61	63.49
350.822	6.14
351.034	36.86
351.246	36.86
351.458	51.2
351.669	75.77
351.881	176.13
352.093	100.35
352.305	116.73
352.517	55.3
352.728	83.97
352.94	18.43
353.152	36.86
353.363	34.82
353.575	83.97
353.787	71.68
353.999	100.35
354.21	63.49
354.422	71.68
354.633	-12.29
354.845	77.82
355.057	-10.24
355.268	36.86
355.48	86.01
355.692	124.93
355.903	38.91
356.115	45.06
356.326	6.14
356.538	53.25
356.749	153.6
356.961	102.4
357.172	55.3
357.384	6.14
357.595	169.98
357.807	53.25
358.018	51.2
358.23	18.43
358.441	133.12
358.653	86.01
358.864	118.78
359.075	67.58
359.287	51.2
359.498	108.54
359.709	28.67
359.921	53.25
360.132	92.16
360.344	22.53
360.555	-4.1
360.766	75.77
360.977	92.16
361.189	102.4
361.4	-24.58
361.611	75.77
361.823	67.58
362.034	30.72
362.245	2.05
362.456	49.15
362.667	34.82
362.879	43.01
363.09	43.01
363.301	43.01
363.512	108.54
363.723	77.82
363.935	45.06
364.146	147.45
364.357	18.43
364.568	108.54
364.779	14.34
364.99	174.08
365.201	90.11
365.412	133.12
365.623	-73.73
365.834	18.43
366.045	36.86
366.256	145.41
366.467	116.73
366.678	104.45
366.889	67.58
367.1	51.2
367.311	45.06
367.522	24.58
367.733	43.01
367.944	108.54
368.155	141.31
368.366	92.16
368.577	116.73
368.788	116.73
368.999	61.44
369.209	43.01
369.42	106.49
369.631	169.98
369.842	104.45
370.053	-6.14
370.264	75.77
370.474	86.01
370.685	108.54
370.896	26.62
371.107	108.54
371.317	59.39
371.528	53.25
371.739	110.59
371.95	92.16
372.16	94.21
372.371	-69.63
372.582	34.82
372.792	36.86
373.003	94.21
373.214	38.91
373.424	92.16
373.635	22.53
373.846	137.21
374.056	122.88
374.267	86.01
374.477	98.3
374.688	40.96
374.898	75.77
375.109	51.2
375.319	-4.1
375.53	34.82
375.74	36.86
375.951	71.68
376.161	47.1
376.372	94.21
376.582	2.05
376.793	75.77
377.003	59.39
377.214	51.2
377.424	34.82
377.635	108.54
377.845	92.16
378.055	153.6
378.266	-16.38
378.476	43.01
378.686	12.29
378.897	51.2
379.107	12.29
379.317	14.34
379.528	-20.48
379.738	43.01
379.948	36.86
380.158	43.01
380.369	157.69
380.579	104.45
380.789	43.01
380.999	86.01
381.21	112.64
381.42	174.08
381.63	18.43
381.84	110.59
382.05	38.91
382.261	100.35
382.471	67.58
382.681	53.25
382.891	120.83
383.101	126.97
383.311	-32.77
383.521	51.2
383.731	-26.62
383.941	118.78
384.151	45.06
384.361	45.06
384.571	159.74
384.781	34.82
384.991	184.32
385.201	102.4
385.411	-4.1
385.621	151.55
385.831	88.06
386.041	43.01
386.251	43.01
386.461	100.35
386.671	34.82
386.881	59.39
387.091	34.82
387.301	88.06
387.511	108.54
387.72	59.39
387.93	104.45
388.14	20.48
388.35	79.87
388.56	149.5
388.769	38.91
388.979	67.58
389.189	12.29
389.399	51.2
389.609	51.2
389.818	118.78
390.028	77.82
390.238	51.2
390.447	47.1
390.657	88.06
390.867	55.3
391.076	53.25
391.286	102.4
391.496	61.44
391.705	18.43
391.915	108.54
392.125	131.07
392.334	110.59
392.544	83.97
392.753	10.24
392.963	14.34
393.172	57.34
393.382	34.82
393.591	67.58
393.801	43.01
394.01	90.11
394.22	63.49
394.429	51.2
394.639	79.87
394.848	124.93
395.058	104.45
395.267	28.67
395.477	92.16
395.686	110.59
395.895	145.41
396.105	178.17
396.314	69.63
396.524	77.82
396.733	83.97
396.942	110.59
397.152	167.93
397.361	157.69
397.57	47.1
397.78	38.91
397.989	88.06
398.198	174.08
398.407	124.93
398.617	110.59
398.826	100.35
399.035	110.59
399.244	204.8
399.453	223.23
399.663	174.08
399.872	116.73
400.081	71.68
400.29	159.74
400.499	178.17
400.708	192.51
400.917	167.93
401.127	172.03
401.336	79.87
401.545	243.71
401.754	210.94
401.963	161.79
402.172	86.01
402.381	133.12
402.59	118.78
402.799	178.17
403.008	120.83
403.217	180.22
403.426	247.8
403.635	110.59
403.844	223.23
404.053	157.69
404.262	100.35
404.471	282.62
404.68	206.84
404.888	118.78
405.097	186.37
405.306	249.85
405.515	172.03
405.724	208.89
405.933	247.8
406.142	198.65
406.35	296.96
406.559	200.7
406.768	296.96
406.977	272.38
407.185	247.8
407.394	256
407.603	280.57
407.812	233.47
408.02	299
408.229	239.61
408.438	284.67
408.646	256
408.855	305.15
409.064	315.39
409.272	280.57
409.481	333.82
409.69	399.35
409.898	329.72
410.107	403.45
410.315	366.59
410.524	403.45
410.733	452.6
410.941	368.63
411.15	495.61
411.358	413.69
411.567	493.56
411.775	454.65
411.984	495.61
412.192	530.42
412.401	534.52
412.609	542.71
412.818	567.29
413.026	583.67
413.234	634.87
413.443	729.08
413.651	669.69
413.86	608.25
414.068	679.93
414.276	794.61
414.485	757.75
414.693	845.81
414.901	921.59
415.11	888.82
415.318	823.28
415.526	913.39
415.734	995.31
415.943	894.96
416.151	970.74
416.359	935.92
416.567	1056.75
416.776	1064.94
416.984	1161.2
417.192	1181.68
417.4	1183.73
417.608	1169.39
417.817	1298.41
418.025	1402.86
418.233	1419.24
418.441	1337.32
418.649	1417.19
418.857	1492.97
419.065	1685.48
419.273	1501.16
419.481	1626.09
419.689	1710.05
419.897	1814.5
420.105	1765.35
420.313	1857.51
420.521	1943.52
420.729	1935.33
420.937	2131.94
421.145	2146.27
421.353	2252.77
421.561	2332.64
421.769	2453.47
421.977	2506.71
422.185	2406.36
422.393	2686.94
422.601	2811.86
422.809	2858.96
423.017	2729.94
423.224	2985.94
423.432	2897.88
423.64	3016.66
423.848	3426.25
424.056	3188.69
424.263	3516.36
424.471	3565.51
424.679	3495.88
424.887	3762.12
425.094	3827.65
425.302	3680.2
425.51	4009.92
425.718	4130.75
425.925	4163.52
426.133	4302.78
426.341	4468.67
426.548	4695.99
426.756	4761.53
426.964	4861.88
427.171	5203.89
427.379	5271.47
427.586	5474.22
427.794	5416.88
428.001	5808.04
428.209	5986.21
428.417	5838.76
428.624	6109.09
428.832	6203.3
429.039	6154.15
429.247	6164.39
429.454	6840.22
429.662	7114.64
429.869	6809.5
430.076	7194.51
430.284	7049.11
430.491	7260.05
430.699	7673.74
430.906	7718.79
431.114	7937.93
431.321	8118.15
431.528	8296.32
431.736	8824.7
431.943	9150.32
432.15	8941.43
432.358	8949.62
432.565	9629.55
432.772	9576.3
432.979	9979.75
433.187	10159.97
433.394	10233.7
433.601	10860.38
433.808	10626.91
434.016	10817.37
434.223	11036.5
434.43	12111.69
434.637	11560.78
434.844	12580.67
435.052	12805.95
435.259	12562.24
435.466	12808
435.673	12754.75
435.88	13428.53
436.087	13971.24
436.294	13930.28
436.501	13735.73
436.708	14167.85
436.915	14599.97
437.122	15206.17
437.329	14982.94
437.537	15558.42
437.743	15791.89
437.95	15558.42
438.157	16615.17
438.364	17002.24
438.571	17073.92
438.778	17184.51
438.985	18534.12
439.192	17749.75
439.399	18464.49
439.606	18124.52
439.813	19095.26
440.02	20147.92
440.227	19623.64
440.433	20119.24
440.64	20252.36
440.847	20377.29
441.054	20911.81
441.261	22005.42
441.467	21933.75
441.674	22365.87
441.881	23170.72
442.088	22820.52
442.294	22724.26
442.501	23348.89
442.708	23889.56
442.914	24782.47
443.121	25734.78
443.328	24895.11
443.534	26973.8
443.741	25998.96
443.948	25652.86
444.154	27735.64
444.361	27485.79
444.568	27403.87
444.774	27493.98
444.981	27647.58
445.187	28456.53
445.394	30090.8
445.6	29408.83
445.807	32144.92
446.013	30860.84
446.22	31225.38
446.426	32779.79
446.633	32824.84
446.839	34301.43
447.046	32734.73
447.252	34407.92
447.459	34668.01
447.665	34493.94
447.871	35904.99
448.078	37320.13
448.284	35626.46
448.491	36654.54
448.697	38008.25
448.903	38731.18
449.11	38706.61
449.316	38256.06
449.522	38722.99
449.728	40025.5
449.935	40254.87
450.141	40344.98
450.347	40750.48
450.553	38942.13
450.76	40218.01
450.966	41280.91
451.172	40897.94
451.378	42012.03
451.584	41123.21
451.791	42446.2
451.997	42478.97
452.203	42808.69
452.409	43033.97
452.615	42085.76
452.821	40717.71
453.027	40605.08
453.233	42634.61
453.44	40865.17
453.646	41094.54
453.852	41510.28
454.058	42052.99
454.264	40805.78
454.47	41739.65
454.676	40856.98
454.882	41979.26
455.088	38401.46
455.294	38866.35
455.5	39560.61
455.705	39919.01
455.911	38211
456.117	37553.6
456.323	37141.96
456.529	34844.14
456.735	36896.21
456.941	36163.03
457.147	34831.85
457.352	33932.79
457.558	33836.54
457.764	33904.12
457.97	33238.53
458.176	32339.47
458.381	32411.15
458.587	30750.25
458.793	30393.9
458.999	29025.86
459.204	31092.26
459.41	30164.53
459.616	28202.58
459.821	28583.5
460.027	28401.23
460.233	27809.37
460.438	26150.51
460.644	26572.39
460.85	25509.5
461.055	24921.73
461.261	24729.22
461.466	23123.62
461.672	22466.22
461.878	23934.61
462.083	22365.87
462.289	21888.69
462.494	21513.91
462.7	20823.75
462.905	20262.6
463.111	20891.33
463.316	21022.4
463.522	20498.12
463.727	20600.52
463.932	20426.44
464.138	19861.2
464.343	20293.32
464.549	19773.14
464.754	20328.14
464.959	20242.12
465.165	19850.96
465.37	19078.88
465.575	18507.49
465.781	19230.43
465.986	19449.56
466.191	18753.25
466.397	18061.04
466.602	17456.89
466.807	17962.73
467.012	18046.7
467.218	17858.29
467.423	17862.38
467.628	17956.59
467.833	18675.43
468.038	17819.38
468.244	17377.01
468.449	17999.6
468.654	17377.01
468.859	17207.03
469.064	17241.85
469.269	16518.92
469.474	16756.48
469.679	17055.48
469.885	16510.72
470.09	16641.79
470.295	16674.56
470.5	16181
470.705	16361.22
470.91	15898.38
471.115	15767.31
471.32	16021.26
471.525	15947.53
471.73	15623.95
471.935	15740.69
472.139	15134.49
472.344	15251.22
472.549	14759.71
472.754	14690.08
472.959	14757.66
473.164	14012.2
473.369	14085.93
473.574	14542.63
473.778	14245.67
473.983	14323.49
474.188	14096.17
474.393	13430.58
474.598	13575.98
474.802	13510.45
475.007	13354.8
475.212	13326.13
475.417	12894.01
475.621	13004.6
475.826	12939.07
476.031	12642.11
476.235	12449.6
476.44	12775.23
476.645	12635.97
476.849	12543.81
477.054	12396.35
477.259	12209.99
477.463	12220.23
477.668	11923.27
477.872	11986.76
478.077	11652.94
478.282	11474.77
478.486	11468.62
478.691	11372.37
478.895	11007.83
479.1	11110.23
479.304	11157.33
479.509	10721.12
479.713	11114.33
479.918	10962.78
480.122	10653.53
480.326	10594.14
480.531	10755.93
480.735	10780.51
480.94	10631.01
481.144	10970.97
481.348	10258.28
481.553	10618.72
481.757	10272.61
481.961	10643.29
482.166	10667.87
482.37	10536.8
482.574	10217.32
482.778	10110.82
482.983	10544.99
483.187	10422.11
483.391	10567.52
483.595	10366.82
483.8	10311.52
484.004	10489.7
484.208	10626.91
484.412	10368.87
484.616	10405.73
484.821	10397.54
485.025	10229.6
485.229	10528.61
485.433	10172.26
485.637	10342.24
485.841	10325.86
486.045	10307.43
486.249	10475.36
486.453	10338.15
486.657	10260.32
486.861	10415.97
487.065	9998.18
487.269	10399.59
487.473	10063.72
487.677	10149.73
487.881	10286.95
488.085	10241.89
488.289	10340.19
488.493	10231.65
488.697	10268.52
488.901	10477.41
489.105	10176.36
489.309	10446.69
489.512	10168.16
489.716	10393.44
489.92	10524.51
490.124	10221.41
490.328	10422.11
490.531	10243.94
490.735	10452.83
490.939	10536.8
491.143	10563.42
491.346	10385.25
491.55	10524.51
491.754	10803.04
491.958	10594.14
492.161	10592.09
492.365	10794.84
492.569	10575.71
492.772	10700.64
492.976	11013.98
493.18	10841.95
493.383	11032.41
493.587	11177.81
493.79	11245.4
493.994	10923.87
494.197	11136.85
494.401	11226.96
494.605	11089.75
494.808	11261.78
495.012	11102.04
495.215	11417.43
495.419	11491.15
495.622	11534.16
495.825	11865.93
496.029	11509.58
496.232	11980.62
496.436	11749.2
496.639	11923.27
496.843	12191.56
497.046	12240.71
497.249	12240.71
497.453	12269.38
497.656	12463.94
497.859	12484.42
498.063	12597.06
498.266	13057.85
498.469	12859.2
498.673	13027.13
498.876	13305.65
499.079	13291.32
499.282	13483.83
499.485	13416.24
499.689	13594.42
499.892	13715.25
500.095	13850.41
500.298	14157.61
500.501	14020.39
500.705	14225.19
500.908	14440.23
501.111	14903.07
501.314	14747.42
501.517	15046.43
501.72	15013.66
501.923	15042.33
502.126	15523.6
502.329	15591.19
502.532	15501.08
502.735	15818.51
502.938	15812.37
503.141	16144.14
503.344	16152.33
503.547	16486.15
503.75	16447.24
503.953	16551.68
504.156	16807.68
504.359	17315.58
504.562	17041.15
504.765	17405.69
504.968	17415.93
505.17	17852.14
505.373	17876.72
505.576	17956.59
505.779	18310.89
505.982	18407.14
506.185	18835.17
506.387	18919.14
506.59	18777.83
506.793	19275.48
506.996	19394.26
507.198	20207.31
507.401	19623.64
507.604	19855.06
507.807	20313.8
508.009	20598.47
508.212	20649.67
508.415	20780.74
508.617	21071.55
508.82	21274.3
509.022	20985.54
509.225	21579.45
509.428	21898.93
509.63	21876.4
509.833	21882.55
510.035	22116.01
510.238	22339.24
510.44	22761.12
510.643	23373.47
510.845	23377.56
511.048	23135.9
511.25	23365.28
511.453	23735.96
511.655	24583.82
511.858	24092.3
512.06	24852.1
512.262	24555.15
512.465	24532.62
512.667	24934.02
512.87	25241.21
513.072	25271.93
513.274	25792.12
513.477	25925.24
513.679	26158.7
513.881	26736.23
514.084	26504.81
514.286	26621.55
514.488	26863.21
514.69	27584.09
514.893	27672.15
515.095	27590.24
515.297	27862.61
515.499	28026.45
515.701	28450.38
515.904	28714.57
516.106	28859.98
516.308	28927.56
516.51	29539.9
516.712	29412.93
516.914	29824.57
517.116	30670.38
517.318	30406.19
517.52	30400.05
517.722	30176.82
517.925	30942.76
518.127	31325.73
518.329	31348.26
518.531	31000.1
518.733	31923.74
518.935	32099.86
519.136	32392.72
519.338	32671.25
519.54	32656.91
519.742	32826.89
519.944	33039.88
520.146	33285.64
520.348	33324.55
520.55	33422.85
520.752	33824.25
520.954	34522.61
521.155	34153.97
521.357	34594.29
521.559	34825.71
521.761	35292.65
521.963	34897.39
522.164	35186.15
522.366	35530.21
522.568	35587.55
522.77	35700.19
522.971	36015.58
523.173	36083.16
523.375	36353.49
523.576	36423.12
523.778	36208.09
523.98	36812.24
524.181	36851.15
524.383	36802
524.584	37201.35
524.786	37164.49
524.988	36873.68
525.189	36926.92
525.391	37494.21
525.592	37367.24
525.794	37434.82
525.995	37922.24
526.197	37932.48
526.398	37811.65
526.6	37842.37
526.801	37887.42
527.003	38065.6
527.204	38151.61
527.406	38276.54
527.607	38088.12
527.808	38587.83
528.01	38059.45
528.211	38165.95
528.412	38991.28
528.614	38935.98
528.815	38663.6
529.016	38837.68
529.218	38440.37
529.419	38970.8
529.62	38532.53
529.822	38407.61
530.023	38675.89
530.224	38514.1
530.425	38350.26
530.626	38313.4
530.828	38256.06
531.029	38716.85
531.23	38098.36
531.431	38510
531.632	38964.65
531.833	38720.95
532.035	38679.99
532.236	38722.99
532.437	38804.91
532.638	38149.56
532.839	38448.57
533.04	38616.5
533.241	38002.11
533.442	39257.51
533.643	38704.56
533.844	38217.14
534.045	38684.08
534.246	38090.17
534.447	38507.96
534.648	38426.04
534.849	38344.12
535.05	38098.36
535.251	38401.46
535.451	37998.01
535.652	38217.14
535.853	38270.39
536.054	38208.95
536.255	38387.13
536.456	37610.95
536.657	38651.31
536.857	37768.64
537.058	37686.72
537.259	38387.13
537.46	37957.05
537.66	37916.09
537.861	38065.6
538.062	37795.26
538.263	37961.15
538.463	37787.07
538.664	37797.31
538.865	37680.58
539.065	37922.24
539.266	37426.63
539.466	37797.31
539.667	37330.37
539.868	37819.84
540.068	38145.47
540.269	37330.37
540.469	37756.35
540.67	37379.53
540.87	37420.49
541.071	37248.46
541.271	37789.12
541.472	37189.06
541.672	37383.62
541.873	37082.57
542.073	37223.88
542.274	37842.37
542.474	37207.5
542.675	36875.73
542.875	37586.37
543.075	37424.58
543.276	36879.82
543.476	37338.57
543.676	36806.09
543.877	37193.16
544.077	37273.03
544.277	36924.88
544.478	37211.59
544.678	37416.39
544.878	37035.47
545.078	37502.4
545.279	36926.92
545.479	37066.19
545.679	37266.89
545.879	36756.94
546.079	37101
546.28	37037.51
546.48	36722.13
546.68	37307.85
546.88	36990.41
547.08	37129.67
547.28	36636.11
547.48	36539.86
547.68	37297.61
547.88	36609.49
548.081	37215.69
548.281	36961.74
548.481	36900.3
548.681	37258.7
548.881	36910.54
549.081	37055.95
549.28	36941.26
549.48	37354.95
549.68	36896.21
549.88	37737.92
550.08	36595.15
550.28	37211.59
550.48	36953.55
550.68	37205.45
550.88	36871.63
551.08	37363.14
551.279	37346.76
551.479	37101
551.679	37199.3
551.879	37025.23
552.079	37334.47
552.278	37127.63
552.478	36838.86
552.678	37094.86
552.878	36935.12
553.077	37010.89
553.277	36697.55
553.477	37557.7
553.676	37006.8
553.876	37291.46
554.076	36971.98
554.275	37074.38
554.475	36421.08
554.674	37236.17
554.874	36738.51
555.074	37123.53
555.273	37408.2
555.473	37277.13
555.672	37037.51
555.872	37164.49
556.071	37340.61
556.271	37221.83
556.47	37195.21
556.67	36871.63
556.869	36924.88
557.068	37008.84
557.268	36814.29
557.467	36933.07
557.667	37248.46
557.866	37354.95
558.065	37283.27
558.265	37084.62
558.464	36965.84
558.663	37600.71
558.863	36910.54
559.062	37709.25
559.261	37006.8
559.461	37365.19
559.66	37162.44
559.859	37086.67
560.058	37121.48
560.258	37342.66
560.457	36804.05
560.656	37469.64
560.855	37070.28
561.054	37440.96
561.253	37019.08
561.453	36842.96
561.652	37029.32
561.851	37283.27
562.05	37244.36
562.249	36736.46
562.448	37457.35
562.647	37262.79
562.846	36928.97
563.045	37287.37
563.244	36728.27
563.443	37160.39
563.642	36765.14
563.841	37004.75
564.04	36787.66
564.239	36937.16
564.438	36693.46
564.637	36818.38
564.836	36498.9
565.035	36503
565.234	36879.82
565.432	36748.75
565.631	36476.37
565.83	36423.12
566.029	36484.56
566.228	36357.59
566.427	36453.84
566.625	36265.43
566.824	36109.78
567.023	36646.35
567.222	35651.04
567.42	36486.61
567.619	36269.53
567.818	36066.78
568.016	36074.97
568.215	36584.91
568.414	35829.21
568.612	36148.7
568.811	35245.54
569.01	36240.85
569.208	35384.8
569.407	35745.25
569.605	35718.62
569.804	36007.39
570.002	35558.88
570.201	35620.32
570.4	35343.84
570.598	35024.36
570.797	35212.77
570.995	35233.25
571.193	34784.75
571.392	35421.67
571.59	34586.1
571.789	35044.84
571.987	34889.2
572.186	34698.73
572.384	34549.23
572.582	34944.49
572.781	35038.7
572.979	34012.67
573.177	34915.82
573.376	34885.1
573.574	34174.45
573.772	34899.44
573.971	34051.58
574.169	33965.56
574.367	33424.9
574.565	34110.97
574.763	33687.04
574.962	34160.12
575.16	33666.56
575.358	33977.85
575.556	33406.47
575.754	33629.69
575.952	33226.25
576.151	33613.31
576.349	32986.63
576.547	33181.19
576.745	33322.5
576.943	32839.18
577.141	33115.65
577.339	32978.44
577.537	32681.49
577.735	32960.01
577.933	32646.67
578.131	32732.68
578.329	32501.26
578.527	32263.7
578.725	32425.49
578.923	32302.61
579.121	32337.43
579.319	32091.67
579.516	32157.21
579.714	32441.87
579.912	31972.89
580.11	31516.19
580.308	31870.49
580.506	31768.09
580.704	31495.71
580.901	31612.45
581.099	31614.49
581.297	31440.42
581.495	31563.29
581.692	31370.79
581.89	31254.05
582.088	31366.69
582.285	31204.9
582.483	31266.34
582.681	30961.19
582.878	31063.59
583.076	30545.45
583.274	30938.66
583.471	30451.25
583.669	30414.38
583.866	30389.81
584.064	30563.89
584.262	30043.7
584.459	30701.1
584.657	30486.06
584.854	30608.94
585.052	29910.58
585.249	30285.36
585.447	30176.82
585.644	30139.96
585.841	30121.52
586.039	30168.63
586.236	29638.2
586.434	29627.96
586.631	29429.31
586.828	29709.88
587.026	29763.13
587.223	29666.88
587.42	29355.58
587.618	29277.76
587.815	29531.71
588.012	29230.66
588.21	28937.8
588.407	29216.32
588.604	29238.85
588.801	28765.77
588.999	29025.86
589.196	28708.43
589.393	28890.7
589.59	28505.68
589.787	28343.89
589.984	28372.56
590.182	28397.13
590.379	28663.37
590.576	28163.67
590.773	28552.78
590.97	28405.33
591.167	28540.49
591.364	27909.72
591.561	28159.57
591.758	27985.49
591.955	28020.31
592.152	28116.56
592.349	27821.66
592.546	27995.73
592.743	28104.28
592.94	27717.21
593.137	27555.42
593.334	27786.84
593.531	27551.32
593.727	27461.21
593.924	27668.06
594.121	27280.99
594.318	27623
594.515	26924.65
594.712	27516.51
594.908	27340.38
595.105	27172.45
595.302	27111.01
595.499	27033.19
595.696	27199.07
595.892	26709.61
596.089	27078.24
596.286	27383.39
596.482	27070.05
596.679	26728.04
596.876	27035.24
597.072	26945.12
597.269	27154.02
597.466	26797.67
597.662	26646.12
597.859	26701.42
598.055	26740.33
598.252	26646.12
598.448	26685.03
598.645	26685.03
598.841	26504.81
599.038	26826.34
599.234	26814.05
599.431	26246.77
599.627	26494.57
599.824	26576.49
600.02	26396.27
600.217	26560.11
600.413	26611.31
600.609	26330.73
600.806	26357.36
601.002	26752.62
601.198	26222.19
601.395	26168.94
601.591	26371.69
601.787	26639.98
601.984	26537.58
602.18	26691.18
602.376	26201.71
602.572	26001.01
602.769	26214
602.965	26281.58
603.161	26279.53
603.357	26349.17
603.553	26246.77
603.75	26134.13
603.946	26611.31
604.142	26623.59
604.338	26353.26
604.534	26451.56
604.73	25960.05
604.926	26390.13
605.122	26553.96
605.318	26381.93
605.514	26287.73
605.71	26144.37
605.906	26336.88
606.102	26596.97
606.298	26547.82
606.494	26459.76
606.69	26676.84
606.886	26572.39
607.082	26660.46
607.278	26732.14
607.474	26371.69
607.67	26560.11
607.866	26099.31
608.062	26795.62
608.257	26656.36
608.453	26867.3
608.649	26764.9
608.845	26345.07
609.041	26773.1
609.236	26906.21
609.432	26900.07
609.628	26682.98
609.824	26838.63
610.019	26635.88
610.215	26875.49
610.411	26830.44
610.606	26906.21
610.802	26875.49
610.998	26705.51
611.193	26797.67
611.389	26682.98
611.584	26975.84
611.78	26883.69
611.976	27280.99
612.171	27158.11
612.367	27096.67
612.562	27041.38
612.758	26500.72
612.953	27139.68
613.149	27121.25
613.344	26981.99
613.539	27315.81
613.735	26705.51
613.93	26994.28
614.126	27016.8
614.321	27381.34
614.517	26998.37
614.712	27072.1
614.907	26719.85
615.103	27033.19
615.298	26754.66
615.493	27205.22
615.688	26752.62
615.884	27600.47
616.079	26668.65
616.274	27160.16
616.47	27006.56
616.665	27190.88
616.86	27076.19
617.055	27049.57
617.25	26869.35
617.445	27209.31
617.641	26535.53
617.836	27276.9
618.031	26756.71
618.226	27035.24
618.421	26779.24
618.616	26920.55
618.811	26601.07
619.006	27074.15
619.201	26044.02
619.396	26750.57
619.591	26168.94
619.786	26732.14
619.981	26115.7
620.176	26584.68
620.371	26113.65
620.566	26228.34
620.761	25790.07
620.956	25978.48
621.151	25828.98
621.346	25685.62
621.541	25652.86
621.735	25575.03
621.93	25747.06
622.125	25446.01
622.32	25009.79
622.515	25419.39
622.709	25419.39
622.904	25077.38
623.099	24991.36
623.294	25095.81
623.488	24589.96
623.683	24936.07
623.878	24293.01
624.072	24733.32
624.267	24626.82
624.462	24336.01
624.656	24350.35
624.851	24051.35
625.046	23981.71
625.24	23901.84
625.435	23441.05
625.629	23619.22
625.824	23393.95
626.018	23682.71
626.213	23381.66
626.407	23209.63
626.602	23209.63
626.796	23383.71
626.991	23066.27
627.185	23072.42
627.38	22935.2
627.574	22537.9
627.768	22304.43
627.963	22251.18
628.157	22275.76
628.352	22316.72
628.546	22087.34
628.74	22408.87
628.935	22023.86
629.129	21913.27
629.323	21835.44
629.517	21534.39
629.712	21606.07
629.906	21472.95
630.1	21278.4
630.294	21272.25
630.489	20795.07
630.683	21049.02
630.877	21051.07
631.071	20926.14
631.265	20942.53
631.459	20901.57
631.653	20375.24
631.848	20752.07
632.042	20383.43
632.236	20154.06
632.43	20063.95
632.624	20166.35
632.818	19936.98
633.012	19697.36
633.206	19678.93
633.4	19805.91
633.594	19332.83
633.788	19715.8
633.982	19388.12
634.176	19187.42
634.369	19203.8
634.563	19179.23
634.757	19058.4
634.951	18880.22
635.145	18790.11
635.339	18798.31
635.533	18745.06
635.726	18484.97
635.92	18269.93
636.114	18339.56
636.308	18124.52
636.501	18116.33
636.695	18265.83
636.889	17917.68
637.083	17864.43
637.276	17858.29
637.47	17735.41
637.664	17553.14
637.857	17557.24
638.051	17454.84
638.244	17301.24
638.438	17420.02
638.632	16994.04
638.825	17170.17
639.019	17030.91
639.212	16844.54
639.406	16783.1
639.599	16742.14
639.793	16944.89
639.986	16283.4
640.18	16398.09
640.373	16500.48
640.567	16088.84
640.76	16105.23
640.954	15992.59
641.147	15951.63
641.34	16101.13
641.534	15884.05
641.727	15763.22
641.92	15953.68
642.114	15509.27
642.307	15507.22
642.5	15316.76
642.694	15316.76
642.887	15288.09
643.08	15296.28
643.273	14911.26
643.467	14907.16
643.66	14804.77
643.853	14538.53
644.046	14491.43
644.239	14741.28
644.432	14591.78
644.626	14149.42
644.819	14296.87
645.012	14655.26
645.205	14411.56
645.398	14239.53
645.591	14108.46
645.784	14063.4
645.977	13627.18
646.17	13987.63
646.363	13657.9
646.556	13659.95
646.749	13520.69
646.942	13614.9
647.135	13543.22
647.328	13297.46
647.521	13332.28
647.714	13264.69
647.907	13035.32
648.099	13137.72
648.292	12977.98
648.485	13066.04
648.678	12689.21
648.871	12894.01
649.064	12674.88
649.256	12924.73
649.449	12617.54
649.642	12695.36
649.835	12541.76
650.027	12535.62
650.22	12363.59
650.413	12105.54
650.605	12302.15
650.798	11951.95
650.991	11947.85
651.183	12019.53
651.376	11964.23
651.568	12003.14
651.761	11917.13
651.954	11646.8
652.146	11841.36
652.339	11671.37
652.531	11720.53
652.724	11390.8
652.916	11171.67
653.109	11380.56
653.301	11366.23
653.494	11415.38
653.686	11016.02
653.879	11360.08
654.071	11036.5
654.263	10958.68
654.456	10964.82
654.648	11120.47
654.84	10637.15
655.033	10833.75
655.225	10852.19
655.417	10807.13
655.61	10708.83
655.802	10674.01
655.994	10442.59
656.186	10583.9
656.379	10332
656.571	10442.59
656.763	10127.21
656.955	10293.09
657.148	10336.1
657.34	10260.32
657.532	9996.14
657.724	9987.94
657.916	9951.08
658.108	9910.12
658.3	9703.28
658.492	9891.69
658.684	9576.3
658.876	9670.51
659.068	9617.26
659.26	9676.65
659.452	9561.97
659.644	9383.79
659.836	9119.6
660.028	9465.71
660.22	9285.49
660.412	9463.66
660.604	9279.35
660.796	9248.63
660.988	9117.56
661.18	9101.17
661.372	9047.93
661.563	9058.17
661.755	8920.95
661.947	8984.44
662.139	8873.85
662.331	8712.06
662.522	8648.57
662.714	8605.56
662.906	8564.61
663.097	8791.93
663.289	8654.72
663.481	8437.63
663.673	8312.71
663.864	8423.3
664.056	8259.46
664.247	8298.37
664.439	8288.13
664.631	8398.72
664.822	8265.6
665.014	8451.97
665.205	8093.57
665.397	8175.49
665.588	8030.09
665.78	8007.56
665.971	7976.84
666.163	7800.71
666.354	7731.08
666.546	7835.53
666.737	7741.32
666.929	7796.62
667.12	7661.45
667.311	7456.65
667.503	7520.14
667.694	7526.29
667.885	7387.02
668.077	7391.12
668.268	7483.28
668.459	7413.65
668.651	7434.13
668.842	7301.01
669.033	7260.05
669.224	7149.46
669.416	7380.88
669.607	7182.23
669.798	7118.74
669.989	7202.71
670.18	7382.93
670.371	7122.84
670.563	7092.12
670.754	6934.42
670.945	6973.33
671.136	6852.5
671.327	6924.18
671.518	6901.65
671.709	6764.44
671.9	6807.45
672.091	6889.37
672.282	6850.46
672.473	6735.77
672.664	6729.63
672.855	6561.69
673.046	6662.04
673.237	6678.43
673.428	6805.4
673.619	6754.2
673.809	6653.85
674	6498.2
674.191	6490.01
674.382	6459.29
674.573	6412.19
674.764	6549.4
674.954	6573.98
675.145	6459.29
675.336	6420.38
675.527	6363.04
675.717	6326.18
675.908	6295.46
676.099	6168.48
676.289	6248.35
676.48	6320.03
676.671	6115.23
676.861	6277.02
677.052	6137.76
677.243	6182.82
677.433	6203.3
677.624	6164.39
677.814	6080.42
678.005	5885.86
678.195	6195.11
678.386	6141.86
678.576	5892.01
678.767	6066.08
678.957	6092.71
679.148	6057.89
679.338	6096.8
679.529	5973.92
679.719	5892.01
679.909	6023.08
680.1	6049.7
680.29	5889.96
680.481	5928.87
680.671	5935.01
680.861	5875.62
681.052	5949.35
681.242	5932.97
681.432	5803.94
681.622	5695.4
681.813	5795.75
682.003	5810.09
682.193	5820.33
682.383	5801.9
682.573	5740.46
682.764	5695.4
682.954	5683.11
683.144	5803.94
683.334	5666.73
683.524	5687.21
683.714	5638.06
683.904	5580.71
684.094	5738.41
684.284	5621.67
684.474	5603.24
684.664	5621.67
684.854	5556.14
685.044	5509.04
685.234	5582.76
685.424	5498.8
685.614	5470.12
685.804	5640.11
685.994	5545.9
686.184	5590.95
686.374	5533.61
686.564	5556.14
686.753	5386.16
686.943	5353.39
687.133	5359.53
687.323	5257.14
687.513	5351.34
687.702	5343.15
687.892	5474.22
688.082	5353.39
688.272	5330.86
688.461	5220.27
688.651	5302.19
688.841	5134.26
689.03	5257.14
689.22	5214.13
689.41	5195.7
689.599	5154.74
689.789	5195.7
689.979	5113.78
690.168	5089.2
690.358	5277.62
690.547	5040.05
690.737	5056.43
690.926	4970.42
691.116	5015.48
691.305	4937.65
691.495	4857.78
691.684	4921.27
691.874	4999.09
692.063	4880.31
692.252	4990.9
692.442	4861.88
692.631	4839.35
692.82	4913.08
693.01	4761.53
693.199	4861.88
693.388	4632.51
693.578	4835.25
693.767	4827.06
693.956	4865.97
694.146	4698.04
694.335	4675.51
694.524	4679.61
694.713	4798.39
694.902	4671.42
695.092	4591.55
695.281	4569.02
695.47	4605.88
695.659	4530.11
695.848	4679.61
696.037	4804.53
696.226	4587.45
696.415	4507.58
696.604	4607.93
696.793	4597.69
696.982	4589.5
697.171	4462.52
697.36	4571.07
697.549	4476.86
697.738	4413.37
697.927	4353.98
698.116	4399.04
698.305	4433.85
698.494	4401.08
698.683	4384.7
698.872	4501.44
699.061	4298.69
699.25	4458.43
699.438	4210.62
699.627	4331.45
699.816	4442.04
700.005	4233.15
700.193	4356.03
700.382	4358.08
700.571	4265.92
700.76	4192.19
700.948	4231.1
701.137	4179.9
701.326	4308.93
701.514	4243.39
701.703	4179.9
701.892	4114.37
702.08	4212.67
702.269	4206.53
702.457	4124.61
702.646	4151.23
702.834	3991.49
703.023	4073.41
703.212	4302.78
703.4	4065.22
703.589	4138.94
703.777	4081.6
703.965	3919.81
704.154	3960.77
704.342	3919.81
704.531	4079.55
704.719	3801.03
704.907	4040.64
705.096	3774.41
705.284	3899.33
705.472	3897.28
705.661	4003.78
705.849	3946.44
706.037	3948.48
706.226	3788.74
706.414	3893.19
706.602	3923.91
706.79	3942.34
706.979	3864.52
707.167	3876.8
707.355	3854.28
707.543	3887.04
707.731	3868.61
707.919	3715.02
708.107	3762.12
708.296	3561.42
708.484	3639.24
708.672	3768.26
708.86	3680.2
709.048	3825.61
709.236	3616.71
709.424	3665.86
709.612	3575.75
709.8	3661.77
709.988	3565.51
710.176	3608.52
710.364	3698.63
710.551	3590.09
710.739	3520.46
710.927	3532.75
711.115	3753.93
711.303	3459.02
711.491	3692.49
711.679	3459.02
711.866	3639.24
712.054	3614.66
712.242	3583.95
712.43	3491.79
712.617	3567.56
712.805	3282.89
712.993	3459.02
713.181	3418.06
713.368	3393.48
713.556	3434.44
713.744	3330
713.931	3375.05
714.119	3309.52
714.306	3311.57
714.494	3293.13
714.682	3352.52
714.869	3323.85
715.057	3366.86
715.244	3282.89
715.432	3295.18
715.619	3321.81
715.807	3168.21
715.994	3184.59
716.182	3110.86
716.369	3225.55
716.556	3219.41
716.744	3084.24
716.931	3028.95
717.119	3280.85
717.306	3254.22
717.493	3133.39
717.681	3100.62
717.868	3127.25
718.055	3082.19
718.242	3074
718.43	3336.14
718.617	3174.35
718.804	3127.25
718.991	3129.3
719.179	3057.62
719.366	3178.45
719.553	3030.99
719.74	2981.84
719.927	2953.17
720.114	2877.4
720.301	2856.92
720.488	2975.7
720.676	2848.72
720.863	3108.82
721.05	2912.21
721.237	2930.64
721.424	3016.66
721.611	2869.2
721.798	2811.86
721.985	2848.72
722.172	2873.3
722.358	2918.36
722.545	2848.72
722.732	2762.71
722.919	2822.1
723.106	2879.44
723.293	2836.44
723.48	2912.21
723.667	2750.42
723.853	2779.09
724.04	2914.26
724.227	2838.48
724.414	2865.11
724.6	2795.48
724.787	2795.48
724.974	2754.52
725.161	2740.18
725.347	2779.09
725.534	2680.79
725.72	2779.09
725.907	2766.81
726.094	2705.37
726.28	2742.23
726.467	2557.91
726.653	2559.96
726.84	2633.69
727.027	2623.45
727.213	2627.54
727.4	2602.97
727.586	2619.35
727.773	2519
727.959	2600.92
728.145	2629.59
728.332	2521.05
728.518	2367.45
728.705	2570.2
728.891	2516.95
729.077	2619.35
729.264	2557.91
729.45	2652.12
729.636	2656.22
729.823	2486.23
730.009	2582.49
730.195	2551.77
730.382	2598.87
730.568	2572.25
730.754	2629.59
730.94	2543.58
731.126	2488.28
731.313	2469.85
731.499	2471.9
731.685	2516.95
731.871	2539.48
732.057	2484.19
732.243	2478.04
732.429	2398.17
732.615	2516.95
732.801	2428.89
732.987	2439.13
733.173	2422.75
733.359	2416.6
733.545	2394.08
733.731	2357.21
733.917	2410.46
734.103	2410.46
734.289	2461.66
734.475	2369.5
734.661	2426.84
734.847	2291.68
735.033	2263.01
735.219	2402.27
735.404	2312.16
735.59	2349.02
735.776	2205.66
735.962	2443.23
736.148	2301.92
736.333	2303.96
736.519	2295.77
736.705	2312.16
736.89	2281.44
737.076	2357.21
737.262	2105.31
737.447	2265.05
737.633	2281.44
737.819	2160.61
738.004	2142.18
738.19	2068.45
738.375	2213.85
738.561	2312.16
738.747	2181.09
738.932	2125.79
739.118	2365.4
739.303	2246.62
739.489	2267.1
739.674	2129.89
739.859	2115.55
740.045	2035.68
740.23	2211.81
740.416	2127.84
740.601	2146.27
740.786	2086.88
740.972	2076.64
741.157	2066.4
741.342	2082.78
741.528	2068.45
741.713	2080.74
741.898	1931.23
742.084	2041.82
742.269	1980.39
742.454	1990.63
742.639	2086.88
742.824	1955.81
743.01	2078.69
743.195	1929.19
743.38	1959.91
743.565	1955.81
743.75	1949.67
743.935	1845.22
744.12	2045.92
744.305	1933.28
744.49	1976.29
744.675	1929.19
744.86	1882.08
745.045	1828.84
745.23	1888.23
745.415	1693.67
745.6	1830.88
745.785	1787.88
745.97	1945.57
746.155	1828.84
746.34	1800.16
746.525	1789.92
746.71	1839.08
746.895	1798.12
747.079	1714.15
747.264	1798.12
747.449	1726.44
747.634	1740.77
747.819	1804.26
748.003	1626.09
748.188	1648.61
748.373	1722.34
748.557	1673.19
748.742	1722.34
748.927	1634.28
749.111	1636.33
749.296	1583.08
749.481	1619.94
749.665	1705.96
749.85	1619.94
750.034	1583.08
750.219	1552.36
750.404	1574.89
750.588	1624.04
750.773	1652.71
750.957	1550.31
751.141	1630.18
751.326	1607.66
751.51	1421.29
751.695	1535.98
751.879	1511.4
752.064	1521.64
752.248	1400.81
752.432	1525.74
752.617	1423.34
752.801	1460.2
752.985	1419.24
753.17	1409
753.354	1423.34
753.538	1392.62
753.722	1361.9
753.907	1404.91
754.091	1316.84
754.275	1366
754.459	1527.78
754.643	1290.22
754.828	1331.18
755.012	1366
755.196	1329.13
755.38	1378.28
755.564	1208.3
755.748	1284.08
755.932	1230.83
756.116	1273.84
756.3	1214.45
756.484	1308.65
756.668	1222.64
756.852	1212.4
757.036	1226.73
757.22	1216.49
757.404	1140.72
757.588	1198.06
757.772	1222.64
757.956	1155.05
758.14	1181.68
758.323	1054.7
758.507	1183.73
758.691	1159.15
758.875	1150.96
759.059	1200.11
759.242	1124.33
759.426	1093.62
759.61	1128.43
759.794	1116.14
759.977	1179.63
760.161	1202.16
760.345	1050.61
760.528	1116.14
760.712	1013.74
760.895	1030.13
761.079	1171.44
761.263	1083.38
761.446	962.55
761.63	1050.61
761.813	1120.24
761.997	1003.5
762.18	1013.74
762.364	989.17
762.547	1050.61
762.731	944.11
762.914	1101.81
763.098	993.26
763.281	1091.57
763.464	921.59
763.648	948.21
763.831	944.11
764.015	997.36
764.198	1015.79
764.381	954.35
764.564	925.68
764.748	976.88
764.931	927.73
765.114	942.07
765.297	1013.74
765.481	974.83
765.664	1050.61
765.847	1009.65
766.03	954.35
766.213	878.58
766.397	929.78
766.58	935.92
766.763	935.92
766.946	899.06
767.129	909.3
767.312	909.3
767.495	997.36
767.678	884.72
767.861	864.24
768.044	880.63
768.227	856.05
768.41	886.77
768.593	888.82
768.776	894.96
768.959	907.25
769.142	917.49
769.324	899.06
769.507	894.96
769.69	858.1
769.873	819.19
770.056	942.07
770.239	778.23
770.421	905.2
770.604	792.56
770.787	890.87
770.97	862.19
771.152	722.93
771.335	925.68
771.518	845.81
771.7	796.66
771.883	845.81
772.066	780.28
772.248	796.66
772.431	897.01
772.613	794.61
772.796	839.67
772.978	806.9
773.161	876.53
773.343	698.36
773.526	735.22
773.708	739.32
773.891	796.66
774.073	741.36
774.256	757.75
774.438	821.24
774.621	903.15
774.803	702.45
774.985	765.94
775.168	808.95
775.35	770.04
775.532	815.09
775.715	747.51
775.897	747.51
776.079	692.21
776.261	749.56
776.444	712.69
776.626	720.88
776.808	675.83
776.99	577.53
777.173	608.25
777.355	602.1
777.537	555
777.719	667.64
777.901	665.59
778.083	616.44
778.265	636.92
778.447	604.15
778.629	616.44
778.811	673.78
778.993	583.67
779.175	686.07
779.357	567.29
779.539	550.9
779.721	579.58
779.903	567.29
780.085	634.87
780.267	612.34
780.449	589.82
780.631	659.45
780.812	645.11
780.994	653.3
781.176	583.67
781.358	522.23
781.54	516.09
781.721	583.67
781.903	542.71
782.085	555
782.267	657.4
782.448	528.38
782.63	550.9
782.812	544.76
782.993	522.23
783.175	591.86
783.357	612.34
783.538	518.14
783.72	421.88
783.901	528.38
784.083	577.53
784.264	546.81
784.446	468.98
784.627	495.61
784.809	479.22
784.99	559.1
785.172	518.14
785.353	530.42
785.535	444.41
785.716	516.09
785.897	434.17
786.079	477.18
786.26	419.83
786.441	425.98
786.623	391.16
786.804	473.08
786.985	389.11
787.167	372.73
787.348	366.59
787.529	493.56
787.71	481.27
787.891	479.22
788.073	362.49
788.254	354.3
788.435	452.6
788.616	419.83
788.797	403.45
788.978	432.12
789.159	460.79
789.34	399.35
789.522	421.88
789.703	395.26
789.884	321.53
790.065	378.87
790.246	339.96
790.427	346.11
790.607	415.74
790.788	376.83
790.969	342.01
791.15	419.83
791.331	354.3
791.512	358.39
791.693	323.58
791.874	346.11
792.054	374.78
792.235	288.76
792.416	356.35
792.597	360.44
792.778	264.19
792.958	333.82
793.139	321.53
793.32	436.22
793.5	311.29
793.681	327.68
793.862	354.3
794.042	282.62
794.223	315.39
794.404	354.3
794.584	223.23
794.765	262.14
794.945	296.96
795.126	337.91
795.306	331.77
795.487	315.39
795.667	299
795.848	329.72
796.028	223.23
796.209	372.73
796.389	313.34
796.57	333.82
796.75	262.14
796.93	333.82
797.111	235.52
797.291	294.91
797.471	296.96
797.652	358.39
797.832	243.71
798.012	305.15
798.192	233.47
798.373	202.75
798.553	223.23
798.733	337.91
798.913	258.04
799.093	288.76
799.274	247.8
799.454	331.77
799.634	208.89
799.814	296.96
799.994	331.77
800.174	321.53
800.354	251.9
800.534	215.04
800.714	215.04
800.894	266.24
801.074	176.13
801.254	227.32
801.434	354.3
801.614	260.09
801.794	178.17
801.974	1066.99
802.154	223.23
802.334	256
802.514	208.89
802.693	233.47
802.873	231.42
803.053	284.67
803.233	272.38
803.413	196.61
803.592	180.22
803.772	272.38
803.952	296.96
804.131	223.23
804.311	247.8
804.491	247.8
804.67	292.86
804.85	260.09
805.03	256
805.209	192.51
805.389	167.93
805.568	161.79
805.748	196.61
805.928	231.42
806.107	217.08
806.287	210.94
806.466	256
806.646	174.08
806.825	182.27
807.004	215.04
807.184	174.08
807.363	249.85
807.543	247.8
807.722	165.89
807.901	206.84
808.081	208.89
808.26	83.97
808.439	266.24
808.619	192.51
808.798	225.28
808.977	200.7
809.156	186.37
809.336	243.71
809.515	153.6
809.694	219.13
809.873	235.52
810.052	212.99
810.231	251.9
810.411	165.89
810.59	215.04
810.769	108.54
810.948	288.76
811.127	133.12
811.306	137.21
811.485	94.21
811.664	239.61
811.843	178.17
812.022	126.97
812.201	157.69
812.38	151.55
812.559	169.98
812.737	120.83
812.916	71.68
813.095	174.08
813.274	157.69
813.453	165.89
813.632	241.66
813.811	210.94
813.989	102.4
814.168	106.49
814.347	182.27
814.526	145.41
814.704	182.27
814.883	190.46
815.062	159.74
815.24	202.75
815.419	155.65
815.598	190.46
815.776	133.12
815.955	153.6
816.133	63.49
816.312	116.73
816.49	157.69
816.669	169.98
816.847	104.45
817.026	190.46
817.204	188.41
817.383	157.69
817.561	100.35
817.74	210.94
817.918	200.7
818.097	135.17
818.275	139.26
818.453	83.97
818.632	190.46
818.81	90.11
818.988	124.93
819.167	110.59
819.345	174.08
819.523	159.74
819.701	133.12
819.879	151.55
820.058	108.54
820.236	188.41
820.414	135.17
820.592	141.31
820.77	112.64
820.948	106.49
821.127	63.49
821.305	129.02
821.483	55.3
821.661	182.27
821.839	116.73
822.017	28.67
822.195	43.01
822.373	124.93
822.551	86.01
822.729	143.36
822.907	126.97
823.085	83.97
823.262	90.11
823.44	106.49
823.618	61.44
823.796	116.73
823.974	36.86
824.152	92.16
824.329	133.12
824.507	118.78
824.685	94.21
824.863	75.77
825.04	63.49
825.218	161.79
825.396	79.87
825.574	126.97
825.751	118.78
825.929	83.97
826.107	120.83
826.284	174.08
826.462	157.69
826.639	34.82
826.817	79.87
826.994	94.21
827.172	61.44
827.349	176.13
827.527	100.35
827.704	88.06
827.882	126.97
828.059	133.12
828.237	36.86
828.414	69.63
828.591	81.92
828.769	118.78
828.946	75.77
829.124	118.78
829.301	94.21
829.478	34.82
829.655	147.45
829.833	114.69
830.01	88.06
830.187	67.58
830.364	110.59
830.542	43.01
830.719	67.58
830.896	112.64
831.073	100.35
831.25	110.59
831.427	86.01
831.604	118.78
831.782	51.2
831.959	124.93
832.136	63.49
832.313	94.21
832.49	45.06
832.667	88.06
832.844	57.34
833.021	133.12
833.198	57.34
833.374	67.58
833.551	88.06
833.728	149.5
833.905	149.5
834.082	149.5
834.259	92.16
834.436	169.98
834.612	55.3
834.789	116.73
834.966	59.39
835.143	57.34
835.319	30.72
835.496	83.97
835.673	153.6
835.85	169.98
836.026	51.2
836.203	110.59
836.38	63.49
836.556	94.21
836.733	51.2
836.909	106.49
837.086	20.48
837.262	45.06
837.439	61.44
837.616	141.31
837.792	2.05
837.968	45.06
838.145	67.58
838.321	8.19
838.498	96.25
838.674	122.88
838.851	126.97
839.027	129.02
839.203	90.11
839.38	36.86
839.556	135.17
839.732	100.35
839.909	120.83
840.085	77.82
840.261	30.72
840.437	120.83
840.614	92.16
840.79	116.73
840.966	86.01
841.142	149.5
841.318	18.43
841.494	55.3
841.671	30.72
841.847	4.1
842.023	4.1
842.199	34.82
842.375	104.45
842.551	36.86
842.727	36.86
842.903	102.4
843.079	14.34
843.255	124.93
843.431	122.88
843.607	100.35
843.783	-26.62
843.959	118.78
844.134	38.91
844.31	145.41
844.486	14.34
844.662	100.35
844.838	38.91
845.013	94.21
845.189	83.97
845.365	57.34
845.541	0
845.716	53.25
845.892	55.3
846.068	59.39
846.244	26.62
846.419	34.82
846.595	43.01
846.77	30.72
846.946	79.87
847.122	-18.43
847.297	75.77
847.473	92.16
847.648	88.06
847.824	18.43
847.999	18.43
848.175	2.05
848.35	6.14
848.526	18.43
848.701	-18.43
848.876	94.21
849.052	38.91
849.227	63.49
849.403	6.14
849.578	108.54
849.753	112.64
849.929	129.02
850.104	28.67
850.279	2.05
850.454	73.73
850.63	49.15
850.805	-4.1
850.98	73.73
851.155	120.83
851.33	34.82
851.505	8.19
851.681	86.01
851.856	92.16
852.031	55.3
852.206	26.62
852.381	55.3
852.556	61.44
852.731	14.34
852.906	55.3
853.081	38.91
853.256	102.4
853.431	28.67
853.606	2.05
853.781	-14.34
853.956	38.91
854.131	57.34
854.305	-8.19
854.48	24.58
854.655	-10.24
854.83	2.05
855.005	26.62
855.18	73.73
855.354	4.1
855.529	26.62
855.704	20.48
855.879	90.11
856.053	59.39
856.228	75.77
856.403	-18.43
856.577	28.67
856.752	26.62
856.926	43.01
857.101	22.53
857.276	45.06
857.45	-12.29
857.625	65.54
857.799	69.63
857.974	12.29
858.148	20.48
858.323	96.25
858.497	-6.14
858.672	55.3
858.846	-14.34
859.02	12.29
859.195	-53.25
859.369	20.48
859.543	43.01
859.718	83.97
859.892	6.14
860.066	34.82
860.241	34.82
860.415	-2.05
860.589	77.82
860.763	45.06
860.938	53.25
861.112	10.24
861.286	67.58
861.46	6.14
861.634	-53.25
861.808	51.2
861.982	61.44
862.157	18.43
862.331	12.29
862.505	-6.14
862.679	12.29
862.853	-24.58
863.027	28.67
863.201	116.73
863.375	20.48
863.549	51.2
863.722	73.73
863.896	55.3
864.07	-28.67
864.244	43.01
864.418	12.29
864.592	18.43
864.766	22.53
864.939	-4.1
865.113	22.53
865.287	47.1
865.461	18.43
865.634	-22.53
865.808	10.24
865.982	-36.86
866.156	-10.24
866.329	83.97
866.503	-14.34
866.676	51.2
866.85	-75.77
867.024	4.1
867.197	-14.34
867.371	65.54
867.544	69.63
867.718	30.72
867.891	79.87
868.065	-22.53
868.238	14.34
868.412	18.43
868.585	69.63
868.759	-14.34
868.932	-36.86
869.105	-4.1
869.279	36.86
869.452	51.2
869.625	36.86
869.799	43.01
869.972	36.86
870.145	110.59
870.319	-6.14
870.492	-14.34
870.665	-45.06
870.838	12.29
871.011	36.86
871.185	65.54
871.358	-47.1
871.531	2.05
871.704	-34.82
871.877	-6.14
872.05	30.72
872.223	-30.72
872.396	75.77
872.569	71.68
872.742	2.05
872.915	-12.29
873.088	-8.19
873.261	-36.86
873.434	53.25
873.607	18.43
873.78	2.05
873.953	-38.91
874.126	63.49
874.299	14.34
874.471	-4.1
874.644	63.49
874.817	-18.43
874.99	79.87
875.163	-14.34
875.335	83.97
875.508	18.43
875.681	55.3
875.853	30.72
876.026	22.53
876.199	-10.24
876.371	65.54
876.544	-2.05
876.717	2.05
876.889	43.01
877.062	71.68
877.234	12.29
877.407	26.62
877.579	59.39
877.752	18.43
877.924	26.62
878.097	24.58
878.269	59.39
878.442	10.24
878.614	-26.62
878.786	-53.25
878.959	38.91
879.131	45.06
879.303	6.14
879.476	28.67
879.648	18.43
879.82	100.35
879.993	34.82
880.165	26.62
880.337	12.29
880.509	118.78
880.681	12.29
880.854	-4.1
881.026	92.16
881.198	100.35
881.37	61.44
881.542	6.14
881.714	20.48
881.886	96.25
882.058	-6.14
882.23	18.43
882.402	6.14
882.574	14.34
882.746	100.35
882.918	38.91
883.09	75.77
883.262	26.62
883.434	-30.72
883.606	-30.72
883.778	-20.48
883.95	75.77
884.122	-61.44
884.293	2.05
884.465	22.53
884.637	51.2
884.809	59.39
884.98	18.43
885.152	73.73
885.324	10.24
885.496	-96.25
885.667	108.54
885.839	2.05
886.011	106.49
886.182	4.1
886.354	43.01
886.525	-18.43
886.697	79.87
886.869	30.72
887.04	-59.39
887.212	40.96
887.383	59.39
887.555	26.62
887.726	63.49
887.897	-28.67
888.069	59.39
888.24	79.87
888.412	22.53
888.583	-38.91
888.754	8.19
888.926	18.43
889.097	28.67
889.268	-30.72
889.44	-2.05
889.611	-65.53
889.782	-43.01
889.953	18.43
890.125	6.14
890.296	20.48
890.467	-36.86
890.638	49.15
890.809	-2.05
890.98	-43.01
891.151	67.58
891.323	75.77
891.494	38.91
891.665	-55.3
891.836	57.34
892.007	51.2
892.178	28.67
892.349	69.63
892.52	18.43
892.691	55.3
892.862	75.77
893.032	-83.97
893.203	28.67
893.374	18.43
893.545	18.43
893.716	-30.72
893.887	47.1
894.057	-22.53
894.228	10.24
894.399	20.48
894.57	75.77
894.74	24.58
894.911	77.82
895.082	26.62
895.253	30.72
895.423	-12.29
895.594	-2.05
895.764	10.24
895.935	20.48
896.106	36.86
896.276	-12.29
896.447	26.62
896.617	94.21
896.788	-47.1
896.958	36.86
897.129	-47.1
897.299	43.01
897.47	69.63
897.64	45.06
897.81	47.1
897.981	-67.58
898.151	18.43
898.322	51.2
898.492	-4.1
898.662	14.34
898.832	47.1
899.003	-36.86
899.173	-92.16
899.343	22.53
899.513	14.34
