Data from USB4F104151__35__14-29-41-962.txt Node

Date: Thu Mar 13 14:29:41 EDT 2025
User: louis
Spectrometer: USB4F10415
Trigger mode: 4
Integration Time (sec): 2.500000E-2
Scans to average: 1
Electric dark correction enabled: true
Nonlinearity correction enabled: false
Boxcar width: 0
XAxis mode: Wavelengths
Number of Pixels in Spectrum: 3648
>>>>>Begin Spectral Data<<<<<
178.204	-112.98
178.424	-112.98
178.644	-112.98
178.864	-121.17
179.084	-137.56
179.304	-72.02
179.524	-22.87
179.744	20.14
179.964	44.71
180.184	-29.01
180.404	-37.2
180.624	22.19
180.844	-41.3
181.064	-39.25
181.283	-6.49
181.503	79.53
181.723	81.58
181.943	-47.44
182.163	69.29
182.383	-53.59
182.602	91.82
182.822	67.24
183.042	91.82
183.262	-4.44
183.482	3.75
183.701	-20.82
183.921	16.04
184.141	-18.77
184.361	112.3
184.58	75.43
184.8	-20.82
185.02	-59.73
185.239	30.38
185.459	85.67
185.679	83.63
185.898	16.04
186.118	30.38
186.338	-43.35
186.557	75.43
186.777	1.71
186.997	36.52
187.216	83.63
187.436	34.47
187.655	132.78
187.875	79.53
188.095	7.85
188.314	118.44
188.534	13.99
188.753	28.33
188.973	22.19
189.192	106.15
189.412	128.68
189.631	102.06
189.851	85.67
190.07	143.02
190.29	-78.16
190.509	16.04
190.729	38.57
190.948	59.05
191.168	118.44
191.387	50.86
191.607	30.38
191.826	30.38
192.045	67.24
192.265	30.38
192.484	48.81
192.704	28.33
192.923	-10.58
193.142	175.78
193.362	-2.39
193.581	100.01
193.8	-20.82
194.02	52.91
194.239	7.85
194.458	48.81
194.678	79.53
194.897	3.75
195.116	65.19
195.335	-49.49
195.555	9.9
195.774	34.47
195.993	59.05
196.212	-22.87
196.432	-35.16
196.651	61.1
196.87	9.9
197.089	118.44
197.308	38.57
197.528	9.9
197.747	1.71
197.966	-55.64
198.185	50.86
198.404	-53.59
198.623	5.8
198.842	108.2
199.062	38.57
199.281	75.43
199.5	28.33
199.719	57
199.938	34.47
200.157	108.2
200.376	7.85
200.595	11.95
200.814	59.05
201.033	34.47
201.252	77.48
201.471	85.67
201.69	50.86
201.909	20.14
202.128	75.43
202.347	7.85
202.566	73.39
202.785	34.47
203.004	-35.16
203.223	50.86
203.442	28.33
203.661	100.01
203.879	124.58
204.098	87.72
204.317	34.47
204.536	34.47
204.755	46.76
204.974	143.02
205.193	61.1
205.411	59.05
205.63	5.8
205.849	24.23
206.068	-4.44
206.287	36.52
206.505	116.39
206.724	18.09
206.943	-2.39
207.162	42.67
207.381	102.06
207.599	30.38
207.818	54.95
208.037	54.95
208.255	65.19
208.474	134.82
208.693	44.71
208.911	59.05
209.13	11.95
209.349	40.62
209.567	30.38
209.786	16.04
210.005	50.86
210.223	61.1
210.442	-6.49
210.661	81.58
210.879	102.06
211.098	18.09
211.316	42.67
211.535	102.06
211.753	-0.34
211.972	61.1
212.191	-14.68
212.409	11.95
212.628	46.76
212.846	9.9
213.065	36.52
213.283	157.35
213.502	-10.58
213.72	61.1
213.938	85.67
214.157	42.67
214.375	11.95
214.594	50.86
214.812	87.72
215.031	11.95
215.249	75.43
215.467	32.43
215.686	120.49
215.904	50.86
216.122	-8.53
216.341	67.24
216.559	-2.39
216.778	24.23
216.996	5.8
217.214	36.52
217.432	3.75
217.651	11.95
217.869	61.1
218.087	67.24
218.306	63.15
218.524	57
218.742	20.14
218.96	77.48
219.179	-37.2
219.397	40.62
219.615	75.43
219.833	69.29
220.051	93.87
220.27	147.11
220.488	75.43
220.706	89.77
220.924	46.76
221.142	34.47
221.36	106.15
221.578	93.87
221.796	95.91
222.015	91.82
222.233	30.38
222.451	124.58
222.669	-43.35
222.887	89.77
223.105	-45.4
223.323	36.52
223.541	-6.49
223.759	11.95
223.977	-39.25
224.195	54.95
224.413	3.75
224.631	18.09
224.849	38.57
225.067	108.2
225.285	5.8
225.503	-10.58
225.721	18.09
225.939	75.43
226.157	61.1
226.375	130.73
226.592	-22.87
226.81	20.14
227.028	69.29
227.246	128.68
227.464	42.67
227.682	46.76
227.9	130.73
228.117	100.01
228.335	32.43
228.553	30.38
228.771	100.01
228.989	50.86
229.206	-10.58
229.424	-14.68
229.642	75.43
229.86	-20.82
230.077	48.81
230.295	44.71
230.513	59.05
230.731	59.05
230.948	1.71
231.166	3.75
231.384	-29.01
231.601	-29.01
231.819	69.29
232.037	3.75
232.254	-22.87
232.472	46.76
232.689	34.47
232.907	97.96
233.125	-4.44
233.342	26.28
233.56	-4.44
233.777	-69.97
233.995	44.71
234.213	85.67
234.43	81.58
234.648	-22.87
234.865	50.86
235.083	46.76
235.3	9.9
235.518	79.53
235.735	48.81
235.953	79.53
236.17	42.67
236.388	9.9
236.605	48.81
236.822	52.91
237.04	91.82
237.257	-33.11
237.475	52.91
237.692	50.86
237.909	-0.34
238.127	1.71
238.344	50.86
238.562	69.29
238.779	-55.64
238.996	52.91
239.214	36.52
239.431	63.15
239.648	50.86
239.865	83.63
240.083	75.43
240.3	30.38
240.517	26.28
240.735	44.71
240.952	75.43
241.169	20.14
241.386	22.19
241.603	-45.4
241.821	36.52
242.038	73.39
242.255	50.86
242.472	9.9
242.689	42.67
242.907	85.67
243.124	40.62
243.341	73.39
243.558	54.95
243.775	-18.77
243.992	30.38
244.209	50.86
244.426	83.63
244.643	130.73
244.86	110.25
245.078	75.43
245.295	-31.06
245.512	54.95
245.729	9.9
245.946	-47.44
246.163	30.38
246.38	18.09
246.597	-45.4
246.814	59.05
247.031	50.86
247.248	-14.68
247.464	61.1
247.681	3.75
247.898	13.99
248.115	73.39
248.332	50.86
248.549	97.96
248.766	77.48
248.983	13.99
249.2	16.04
249.417	42.67
249.633	38.57
249.85	-12.63
250.067	-51.54
250.284	52.91
250.501	-14.68
250.717	46.76
250.934	24.23
251.151	-6.49
251.368	-18.77
251.585	83.63
251.801	63.15
252.018	-4.44
252.235	34.47
252.451	75.43
252.668	63.15
252.885	77.48
253.102	34.47
253.318	9.9
253.535	50.86
253.752	-20.82
253.968	69.29
254.185	59.05
254.401	108.2
254.618	79.53
254.835	42.67
255.051	69.29
255.268	18.09
255.484	42.67
255.701	5.8
255.917	77.48
256.134	85.67
256.351	-4.44
256.567	9.9
256.784	65.19
257	20.14
257.217	136.87
257.433	34.47
257.65	77.48
257.866	-12.63
258.082	24.23
258.299	52.91
258.515	169.64
258.732	-8.53
258.948	50.86
259.165	54.95
259.381	26.28
259.597	50.86
259.814	-6.49
260.03	-49.49
260.246	69.29
260.463	116.39
260.679	42.67
260.895	69.29
261.112	75.43
261.328	42.67
261.544	-8.53
261.761	91.82
261.977	108.2
262.193	-47.44
262.409	32.43
262.626	42.67
262.842	73.39
263.058	91.82
263.274	61.1
263.49	59.05
263.707	50.86
263.923	30.38
264.139	-12.63
264.355	9.9
264.571	104.11
264.787	-18.77
265.004	20.14
265.22	108.2
265.436	-8.53
265.652	-0.34
265.868	57
266.084	-6.49
266.3	44.71
266.516	9.9
266.732	100.01
266.948	26.28
267.164	38.57
267.38	18.09
267.596	63.15
267.812	100.01
268.028	83.63
268.244	61.1
268.46	71.34
268.676	13.99
268.892	-4.44
269.108	-43.35
269.324	79.53
269.54	-4.44
269.756	9.9
269.972	1.71
270.188	52.91
270.403	-35.16
270.619	42.67
270.835	-4.44
271.051	34.47
271.267	18.09
271.483	61.1
271.698	57
271.914	-6.49
272.13	24.23
272.346	83.63
272.562	22.19
272.777	-14.68
272.993	71.34
273.209	104.11
273.425	9.9
273.64	-26.96
273.856	102.06
274.072	28.33
274.287	-41.3
274.503	69.29
274.719	42.67
274.934	52.91
275.15	-18.77
275.366	67.24
275.581	-18.77
275.797	13.99
276.012	83.63
276.228	1.71
276.444	5.8
276.659	73.39
276.875	30.38
277.09	36.52
277.306	44.71
277.521	-6.49
277.737	26.28
277.952	110.25
278.168	34.47
278.383	-14.68
278.599	36.52
278.814	116.39
279.03	100.01
279.245	118.44
279.461	26.28
279.676	77.48
279.892	26.28
280.107	-39.25
280.322	11.95
280.538	22.19
280.753	3.75
280.969	59.05
281.184	3.75
281.399	126.63
281.615	57
281.83	100.01
282.045	18.09
282.26	16.04
282.476	22.19
282.691	81.58
282.906	83.63
283.122	34.47
283.337	-14.68
283.552	140.97
283.767	18.09
283.983	118.44
284.198	13.99
284.413	77.48
284.628	-26.96
284.843	81.58
285.058	100.01
285.274	36.52
285.489	28.33
285.704	67.24
285.919	36.52
286.134	59.05
286.349	52.91
286.564	52.91
286.779	77.48
286.995	100.01
287.21	-0.34
287.425	69.29
287.64	34.47
287.855	28.33
288.07	26.28
288.285	67.24
288.5	83.63
288.715	65.19
288.93	-39.25
289.145	81.58
289.36	48.81
289.575	-12.63
289.79	36.52
290.004	75.43
290.219	59.05
290.434	83.63
290.649	59.05
290.864	1.71
291.079	91.82
291.294	-16.73
291.509	50.86
291.724	106.15
291.938	42.67
292.153	81.58
292.368	32.43
292.583	46.76
292.798	77.48
293.012	18.09
293.227	42.67
293.442	3.75
293.657	16.04
293.871	124.58
294.086	36.52
294.301	102.06
294.516	59.05
294.73	116.39
294.945	-88.4
295.16	54.95
295.374	93.87
295.589	59.05
295.804	73.39
296.018	67.24
296.233	100.01
296.447	22.19
296.662	-8.53
296.877	50.86
297.091	-6.49
297.306	11.95
297.52	75.43
297.735	32.43
297.949	-61.78
298.164	87.72
298.378	22.19
298.593	-2.39
298.807	44.71
299.022	67.24
299.236	93.87
299.451	22.19
299.665	83.63
299.88	18.09
300.094	77.48
300.309	11.95
300.523	118.44
300.737	87.72
300.952	46.76
301.166	124.58
301.381	-8.53
301.595	9.9
301.809	-22.87
302.024	-10.58
302.238	1.71
302.452	73.39
302.667	16.04
302.881	95.91
303.095	46.76
303.309	69.29
303.524	50.86
303.738	59.05
303.952	-2.39
304.166	59.05
304.381	36.52
304.595	73.39
304.809	24.23
305.023	67.24
305.237	-47.44
305.452	91.82
305.666	-14.68
305.88	36.52
306.094	87.72
306.308	116.39
306.522	38.57
306.736	34.47
306.95	122.54
307.164	28.33
307.379	34.47
307.593	73.39
307.807	67.24
308.021	52.91
308.235	89.77
308.449	38.57
308.663	40.62
308.877	28.33
309.091	132.78
309.305	108.2
309.519	16.04
309.733	75.43
309.947	-20.82
310.161	71.34
310.374	13.99
310.588	104.11
310.802	20.14
311.016	69.29
311.23	71.34
311.444	-6.49
311.658	34.47
311.872	67.24
312.085	102.06
312.299	75.43
312.513	34.47
312.727	-0.34
312.941	18.09
313.154	34.47
313.368	40.62
313.582	75.43
313.796	61.1
314.009	104.11
314.223	52.91
314.437	-10.58
314.651	63.15
314.864	28.33
315.078	9.9
315.292	-14.68
315.505	16.04
315.719	54.95
315.933	-0.34
316.146	67.24
316.36	32.43
316.573	112.3
316.787	95.91
317.001	34.47
317.214	30.38
317.428	-2.39
317.641	54.95
317.855	59.05
318.068	75.43
318.282	38.57
318.495	108.2
318.709	110.25
318.922	34.47
319.136	32.43
319.349	59.05
319.563	1.71
319.776	34.47
319.99	59.05
320.203	95.91
320.417	57
320.63	22.19
320.843	59.05
321.057	50.86
321.27	102.06
321.483	7.85
321.697	65.19
321.91	22.19
322.124	22.19
322.337	71.34
322.55	36.52
322.763	61.1
322.977	126.63
323.19	61.1
323.403	71.34
323.617	5.8
323.83	16.04
324.043	34.47
324.256	75.43
324.469	-18.77
324.683	44.71
324.896	9.9
325.109	34.47
325.322	-22.87
325.535	34.47
325.748	75.43
325.962	42.67
326.175	71.34
326.388	59.05
326.601	91.82
326.814	50.86
327.027	59.05
327.24	77.48
327.453	5.8
327.666	46.76
327.879	91.82
328.092	190.12
328.305	42.67
328.518	42.67
328.731	34.47
328.944	61.1
329.157	77.48
329.37	102.06
329.583	157.35
329.796	87.72
330.009	44.71
330.222	77.48
330.435	42.67
330.648	26.28
330.861	100.01
331.073	79.53
331.286	120.49
331.499	44.71
331.712	22.19
331.925	32.43
332.138	48.81
332.35	38.57
332.563	50.86
332.776	83.63
332.989	-4.44
333.202	1.71
333.414	-10.58
333.627	36.52
333.84	13.99
334.053	34.47
334.265	13.99
334.478	83.63
334.691	63.15
334.903	87.72
335.116	-14.68
335.329	36.52
335.541	83.63
335.754	91.82
335.966	40.62
336.179	59.05
336.392	13.99
336.604	91.82
336.817	42.67
337.029	42.67
337.242	77.48
337.454	132.78
337.667	100.01
337.88	110.25
338.092	67.24
338.305	-22.87
338.517	13.99
338.729	59.05
338.942	91.82
339.154	40.62
339.367	34.47
339.579	91.82
339.792	50.86
340.004	-2.39
340.217	-2.39
340.429	59.05
340.641	-72.02
340.854	93.87
341.066	26.28
341.278	63.15
341.491	97.96
341.703	26.28
341.915	9.9
342.128	89.77
342.34	18.09
342.552	28.33
342.764	28.33
342.977	112.3
343.189	-22.87
343.401	93.87
343.613	40.62
343.826	83.63
344.038	-10.58
344.25	16.04
344.462	-22.87
344.674	81.58
344.886	-4.44
345.099	-6.49
345.311	69.29
345.523	61.1
345.735	18.09
345.947	83.63
346.159	52.91
346.371	13.99
346.583	108.2
346.795	116.39
347.007	61.1
347.219	26.28
347.431	77.48
347.643	118.44
347.855	-31.06
348.067	77.48
348.279	69.29
348.491	112.3
348.703	95.91
348.915	22.19
349.127	54.95
349.339	59.05
349.551	50.86
349.763	67.24
349.975	30.38
350.187	87.72
350.399	93.87
350.61	102.06
350.822	67.24
351.034	42.67
351.246	20.14
351.458	36.52
351.669	122.54
351.881	79.53
352.093	7.85
352.305	116.39
352.517	46.76
352.728	28.33
352.94	-31.06
353.152	34.47
353.363	-65.88
353.575	30.38
353.787	85.67
353.999	9.9
354.21	67.24
354.422	36.52
354.633	26.28
354.845	34.47
355.057	112.3
355.268	20.14
355.48	77.48
355.692	67.24
355.903	59.05
356.115	102.06
356.326	-22.87
356.538	102.06
356.749	126.63
356.961	126.63
357.172	36.52
357.384	93.87
357.595	190.12
357.807	42.67
358.018	44.71
358.23	26.28
358.441	112.3
358.653	83.63
358.864	65.19
359.075	36.52
359.287	-18.77
359.498	102.06
359.709	79.53
359.921	69.29
360.132	75.43
360.344	132.78
360.555	-59.73
360.766	-6.49
360.977	42.67
361.189	122.54
361.4	59.05
361.611	34.47
361.823	100.01
362.034	-65.88
362.245	-22.87
362.456	95.91
362.667	77.48
362.879	-20.82
363.09	28.33
363.301	104.11
363.512	75.43
363.723	11.95
363.935	50.86
364.146	91.82
364.357	26.28
364.568	-26.96
364.779	-14.68
364.99	110.25
365.201	-12.63
365.412	54.95
365.623	-10.58
365.834	28.33
366.045	28.33
366.256	157.35
366.467	97.96
366.678	1.71
366.889	79.53
367.1	-22.87
367.311	75.43
367.522	-53.59
367.733	87.72
367.944	44.71
368.155	-12.63
368.366	104.11
368.577	85.67
368.788	34.47
368.999	18.09
369.209	16.04
369.42	69.29
369.631	169.64
369.842	34.47
370.053	-4.44
370.264	54.95
370.474	59.05
370.685	38.57
370.896	11.95
371.107	118.44
371.317	122.54
371.528	65.19
371.739	28.33
371.95	28.33
372.16	24.23
372.371	59.05
372.582	79.53
372.792	100.01
373.003	-6.49
373.214	71.34
373.424	85.67
373.635	95.91
373.846	126.63
374.056	104.11
374.267	77.48
374.477	89.77
374.688	36.52
374.898	91.82
375.109	46.76
375.319	18.09
375.53	100.01
375.74	9.9
375.951	118.44
376.161	63.15
376.372	95.91
376.582	-4.44
376.793	69.29
377.003	38.57
377.214	128.68
377.424	52.91
377.635	91.82
377.845	-2.39
378.055	134.82
378.266	-39.25
378.476	69.29
378.686	30.38
378.897	42.67
379.107	140.97
379.317	59.05
379.528	104.11
379.738	91.82
379.948	11.95
380.158	34.47
380.369	128.68
380.579	-2.39
380.789	100.01
380.999	44.71
381.21	30.38
381.42	134.82
381.63	38.57
381.84	93.87
382.05	85.67
382.261	118.44
382.471	100.01
382.681	59.05
382.891	93.87
383.101	50.86
383.311	34.47
383.521	-6.49
383.731	-31.06
383.941	149.16
384.151	91.82
384.361	32.43
384.571	77.48
384.781	42.67
384.991	69.29
385.201	100.01
385.411	81.58
385.621	95.91
385.831	-4.44
386.041	42.67
386.251	52.91
386.461	34.47
386.671	11.95
386.881	183.98
387.091	42.67
387.301	100.01
387.511	-6.49
387.72	13.99
387.93	112.3
388.14	36.52
388.35	46.76
388.56	91.82
388.769	124.58
388.979	59.05
389.189	-4.44
389.399	100.01
389.609	18.09
389.818	95.91
390.028	149.16
390.238	-61.78
390.447	81.58
390.657	63.15
390.867	42.67
391.076	34.47
391.286	91.82
391.496	85.67
391.705	95.91
391.915	110.25
392.125	147.11
392.334	71.34
392.544	100.01
392.753	100.01
392.963	1.71
393.172	67.24
393.382	50.86
393.591	87.72
393.801	46.76
394.01	87.72
394.22	22.19
394.429	100.01
394.639	100.01
394.848	110.25
395.058	52.91
395.267	-14.68
395.477	136.87
395.686	18.09
395.895	140.97
396.105	124.58
396.314	95.91
396.524	136.87
396.733	95.91
396.942	89.77
397.152	93.87
397.361	93.87
397.57	104.11
397.78	132.78
397.989	108.2
398.198	206.5
398.407	112.3
398.617	36.52
398.826	104.11
399.035	235.18
399.244	140.97
399.453	110.25
399.663	100.01
399.872	118.44
400.081	26.28
400.29	120.49
400.499	59.05
400.708	108.2
400.917	120.49
401.127	102.06
401.336	100.01
401.545	206.5
401.754	179.88
401.963	171.69
402.172	136.87
402.381	108.2
402.59	114.34
402.799	145.06
403.008	190.12
403.217	181.93
403.426	157.35
403.635	104.11
403.844	192.17
404.053	143.02
404.262	122.54
404.471	255.65
404.68	202.41
404.888	173.74
405.097	59.05
405.306	100.01
405.515	161.45
405.724	100.01
405.933	91.82
406.142	192.17
406.35	222.89
406.559	190.12
406.768	226.98
406.977	196.26
407.185	181.93
407.394	183.98
407.603	239.27
407.812	220.84
408.02	321.19
408.229	265.89
408.438	329.38
408.646	265.89
408.855	233.13
409.064	255.65
409.272	249.51
409.481	370.34
409.69	274.09
409.898	263.85
410.107	388.77
410.315	323.24
410.524	290.47
410.733	431.78
410.941	427.68
411.15	460.45
411.358	396.96
411.567	444.07
411.775	431.78
411.984	435.88
412.192	501.41
412.401	425.64
412.609	495.27
412.818	558.75
413.026	542.37
413.234	626.34
413.443	542.37
413.651	509.6
413.86	601.76
414.068	667.3
414.276	685.73
414.485	693.92
414.693	620.19
414.901	800.41
415.11	812.7
415.318	792.22
415.526	898.72
415.734	913.05
415.943	822.94
416.151	913.05
416.359	886.43
416.567	943.77
416.776	1132.19
416.984	1076.89
417.192	1148.57
417.4	1072.79
417.608	1148.57
417.817	1160.86
418.025	1181.34
418.233	1277.59
418.441	1126.04
418.649	1332.89
418.857	1408.66
419.065	1412.76
419.273	1328.79
419.481	1474.2
419.689	1713.81
419.897	1562.26
420.105	1691.28
420.313	1746.58
420.521	1699.47
420.729	1808.02
420.937	1861.26
421.145	1943.18
421.353	1943.18
421.561	2100.87
421.769	2197.13
421.977	2209.42
422.185	2254.47
422.393	2287.24
422.601	2424.45
422.809	2537.09
423.017	2418.31
423.224	2623.11
423.432	2725.51
423.64	2721.41
423.848	2872.96
424.056	2877.05
424.263	3008.12
424.471	3106.43
424.679	3139.19
424.887	3167.87
425.094	3389.05
425.302	3468.92
425.51	3393.14
425.718	3632.76
425.925	3634.8
426.133	3866.22
426.341	4048.49
426.548	4197.99
426.756	4083.31
426.964	4189.8
427.171	4554.34
427.379	4607.59
427.586	4832.86
427.794	4888.16
428.001	5019.23
428.209	5195.36
428.417	5224.03
428.624	5502.55
428.832	5523.03
429.039	5645.91
429.247	5514.84
429.454	6288.97
429.662	6501.96
429.869	6104.65
430.076	6442.57
430.284	6372.94
430.491	6665.8
430.699	6737.48
430.906	6760
431.114	7065.15
431.321	7169.6
431.528	7474.74
431.736	7833.14
431.943	8095.28
432.15	8050.22
432.358	8062.51
432.565	8461.87
432.772	8402.47
432.979	8887.84
433.187	8957.47
433.394	9133.6
433.601	9569.82
433.808	9676.31
434.016	9643.54
434.223	10012.18
434.43	10685.96
434.637	10614.28
434.844	11148.8
435.052	11230.72
435.259	11007.49
435.466	11240.96
435.673	11290.11
435.88	12006.9
436.087	12609
436.294	12498.41
436.501	12172.78
436.708	12250.61
436.915	12832.23
437.122	13600.22
437.329	13387.23
437.537	13811.16
437.743	13952.47
437.95	14153.17
438.157	14634.44
438.364	15373.76
438.571	14931.4
438.778	15220.16
438.985	16481.71
439.192	16061.88
439.399	16483.76
439.606	16092.6
439.813	16842.15
440.02	17784.22
440.227	17675.68
440.433	17450.4
440.64	18228.63
440.847	17773.98
441.054	18566.54
441.261	19357.06
441.467	19457.41
441.674	19580.29
441.881	20634.99
442.088	20149.62
442.294	20229.49
442.501	20669.81
442.708	21069.16
442.914	22142.3
443.121	22752.59
443.328	22199.64
443.534	23987.52
443.741	23366.98
443.948	22783.31
444.154	24669.49
444.361	24499.51
444.568	24380.73
444.774	24438.07
444.981	24622.39
445.187	25511.21
445.394	26787.09
445.6	26225.95
445.807	28878.07
446.013	27327.75
446.22	28155.13
446.426	28923.12
446.633	29132.01
446.839	30082.27
447.046	28968.18
447.252	30577.88
447.459	30823.64
447.665	30596.31
447.871	31947.97
448.078	33215.66
448.284	31710.41
448.491	32480.44
448.697	33674.41
448.903	34190.5
449.11	34327.71
449.316	34041
449.522	34374.81
449.728	35212.43
449.935	35556.49
450.141	35918.98
450.347	36443.26
450.553	35241.1
450.76	35685.51
450.966	36719.74
451.172	36336.77
451.378	37547.12
451.584	36605.05
451.791	37647.47
451.997	37153.91
452.203	37792.87
452.409	37706.86
452.615	37487.73
452.821	36265.09
453.027	36189.31
453.233	37747.82
453.44	36533.37
453.646	36922.49
453.852	37282.93
454.058	37303.41
454.264	36197.51
454.47	36873.34
454.676	36000.9
454.882	37442.67
455.088	34098.34
455.294	34464.92
455.5	35095.7
455.705	35370.13
455.911	33944.74
456.117	33135.79
456.323	32560.31
456.529	31225.04
456.735	32437.44
456.941	31669.45
457.147	31120.59
457.352	30229.73
457.558	29840.61
457.764	30024.93
457.97	29275.37
458.176	28343.55
458.381	28601.59
458.587	27227.4
458.793	27436.3
458.999	25484.58
459.204	27436.3
459.41	26887.44
459.616	25060.65
459.821	24743.22
460.027	24868.14
460.233	24466.74
460.438	23135.56
460.644	23319.88
460.85	22572.37
461.055	22123.87
461.261	21769.57
461.466	20471.15
461.672	19576.19
461.878	20950.38
462.083	19983.74
462.289	19484.03
462.494	19146.12
462.7	18101.65
462.905	17771.93
463.111	18568.59
463.316	18374.03
463.522	18103.7
463.727	17829.27
463.932	18040.22
464.138	17712.54
464.343	17939.86
464.549	17196.45
464.754	17855.9
464.959	17444.26
465.165	17511.84
465.37	16801.19
465.575	16178.61
465.781	17145.25
465.986	17124.77
466.191	16491.95
466.397	16238
466.602	15271.36
466.807	15863.22
467.012	15857.08
467.218	15895.99
467.423	15484.35
467.628	15662.52
467.833	16217.52
468.038	15590.84
468.244	15228.35
468.449	16008.63
468.654	15168.96
468.859	15271.36
469.064	14935.49
469.269	14603.72
469.474	14550.48
469.679	14734.79
469.885	14179.79
470.09	14575.05
470.295	14407.12
470.5	14001.62
470.705	14130.64
470.91	13762.01
471.115	13700.57
471.32	13931.99
471.525	13977.05
471.73	13549.02
471.935	13495.77
472.139	12887.53
472.344	13186.53
472.549	13000.16
472.754	12985.83
472.959	12701.16
473.164	12332.53
473.369	12310
473.574	12666.35
473.778	12312.05
473.983	12191.22
474.188	12279.28
474.393	11841.01
474.598	11881.97
474.802	11527.67
475.007	11382.27
475.212	11671.03
475.417	11073.03
475.621	11298.3
475.826	11259.39
476.031	11118.08
476.235	10901
476.44	10841.61
476.645	10716.68
476.849	10616.33
477.054	10505.74
477.259	10511.88
477.463	10497.55
477.668	10348.04
477.872	10245.65
478.077	10120.72
478.282	9938.45
478.486	9768.47
478.691	9788.95
478.895	9782.81
479.1	9713.17
479.304	9848.34
479.509	9338.4
479.713	9512.47
479.918	9448.99
480.122	9184.8
480.326	9178.65
480.531	9279.01
480.735	9326.11
480.94	9279.01
481.144	9457.18
481.348	9074.21
481.553	9037.34
481.757	8898.08
481.961	9006.63
482.166	9106.98
482.37	9102.88
482.574	8943.14
482.778	9102.88
482.983	9201.18
483.187	8799.78
483.391	9004.58
483.595	8853.03
483.8	8820.26
484.004	8730.15
484.208	8996.39
484.412	8760.87
484.616	9049.63
484.821	8934.95
485.025	8586.79
485.229	8791.59
485.433	8775.2
485.637	8758.82
485.841	8769.06
486.045	8859.17
486.249	8846.88
486.453	8619.56
486.657	8773.16
486.861	8775.2
487.065	8410.67
487.269	8785.44
487.473	8629.8
487.677	8928.8
487.881	8998.43
488.085	8611.37
488.289	8871.46
488.493	8826.4
488.697	8893.99
488.901	8873.51
489.105	8785.44
489.309	8805.92
489.512	8906.27
489.716	8914.47
489.92	8902.18
490.124	8885.8
490.328	8881.7
490.531	8910.37
490.735	8857.12
490.939	9000.48
491.143	8986.15
491.346	8920.61
491.55	9133.6
491.754	9104.93
491.958	9033.25
492.161	9195.04
492.365	9008.67
492.569	9297.44
492.772	9092.64
492.976	9213.47
493.18	9268.77
493.383	9324.06
493.587	9252.38
493.79	9172.51
493.994	9125.41
494.197	9270.81
494.401	9389.6
494.605	9549.34
494.808	9510.43
495.012	9582.1
495.215	9846.29
495.419	9700.89
495.622	9840.15
495.825	9823.76
496.029	9934.36
496.232	10180.11
496.436	9993.75
496.639	10280.46
496.843	10128.91
497.046	10317.33
497.249	10475.02
497.453	10329.61
497.656	10503.69
497.859	10610.18
498.063	10759.69
498.266	10888.71
498.469	11005.44
498.673	11081.22
498.876	11195.9
499.079	11263.49
499.282	11224.58
499.485	11621.88
499.689	11423.23
499.892	11654.65
500.095	11709.94
500.298	11881.97
500.501	11732.47
500.705	12129.78
500.908	12127.73
501.111	12201.46
501.314	12584.43
501.517	12449.26
501.72	12785.13
501.923	12596.71
502.126	12723.69
502.329	13104.61
502.532	13215.2
502.735	13223.39
502.938	13487.58
503.141	13510.11
503.344	13579.74
503.547	13731.29
503.75	13686.23
503.953	13895.13
504.156	14198.23
504.359	14280.14
504.562	14218.71
504.765	14640.59
504.968	14845.38
505.17	14966.21
505.373	15031.75
505.576	15099.33
505.779	15316.42
505.982	15412.67
506.185	15689.15
506.387	15582.65
506.59	15805.88
506.793	15994.29
506.996	16063.93
507.198	16649.64
507.401	16283.06
507.604	16629.16
507.807	16799.15
508.009	17319.33
508.212	17331.62
508.415	17520.03
508.617	17759.64
508.82	17632.67
509.022	17632.67
509.225	18126.23
509.428	18242.96
509.63	18220.44
509.833	18308.5
510.035	18765.2
510.238	18939.27
510.44	18959.75
510.643	19481.99
510.845	19287.43
511.048	19330.44
511.25	19670.4
511.453	19996.03
511.655	20680.05
511.858	20077.94
512.06	20821.36
512.262	20641.14
512.465	20446.58
512.667	20735.34
512.87	21103.98
513.072	21149.03
513.274	21345.64
513.477	21708.13
513.679	21914.97
513.881	22418.77
514.084	22496.6
514.286	22201.69
514.488	22613.33
514.69	23084.36
514.893	23287.11
515.095	22996.3
515.297	23551.3
515.499	23491.91
515.701	23760.19
515.904	24055.1
516.106	24089.92
516.308	24274.23
516.51	24618.29
516.712	24890.67
516.914	24892.72
517.116	25556.26
517.318	25361.7
517.52	25527.59
517.722	25439.53
517.925	26015.01
518.127	26254.62
518.329	26404.12
518.531	26297.63
518.733	26686.74
518.935	26617.11
519.136	26842.39
519.338	27059.47
519.54	27530.5
519.742	27630.85
519.944	27630.85
520.146	28024.06
520.348	28495.1
520.55	28273.92
520.752	28192
520.954	28712.18
521.155	28613.88
521.357	28830.96
521.559	29000.94
521.761	29340.91
521.963	29261.04
522.164	29299.95
522.366	29478.12
522.568	29570.28
522.77	29695.21
522.971	30182.62
523.173	29971.68
523.375	30143.71
523.576	30262.49
523.778	30190.81
523.98	30432.47
524.181	30631.13
524.383	30813.4
524.584	30817.49
524.786	30731.48
524.988	30854.36
525.189	31048.91
525.391	31173.84
525.592	31448.27
525.794	31397.07
525.995	31354.06
526.197	31388.88
526.398	31290.57
526.6	31399.12
526.801	31816.9
527.003	31786.18
527.204	31669.45
527.406	31669.45
527.607	31704.26
527.808	31904.96
528.01	31554.76
528.211	31665.35
528.412	32015.55
528.614	31698.12
528.815	31646.92
529.016	32007.36
529.218	31771.85
529.419	31526.09
529.62	32007.36
529.822	31536.33
530.023	31861.96
530.224	31661.26
530.425	31722.69
530.626	31646.92
530.828	31036.63
531.029	31976.64
531.23	31536.33
531.431	31612.1
531.632	31667.4
531.833	31528.14
532.035	31354.06
532.236	31380.68
532.437	31263.95
532.638	31280.33
532.839	31608.01
533.04	31405.26
533.241	30856.4
533.442	31581.38
533.643	31450.31
533.844	31319.24
534.045	31192.27
534.246	30973.14
534.447	31567.05
534.648	31020.24
534.849	30926.03
535.05	30573.78
535.251	30731.48
535.451	30911.7
535.652	30770.39
535.853	30799.06
536.054	30852.31
536.255	31007.95
536.456	30452.95
536.657	31298.77
536.857	30794.96
537.058	30401.75
537.259	30584.02
537.46	30645.46
537.66	30719.19
537.861	30387.42
538.062	30553.3
538.263	30168.29
538.463	30444.76
538.664	30268.64
538.865	30205.15
539.065	30518.49
539.266	30375.13
539.466	30080.22
539.667	29895.91
539.868	30430.43
540.068	29842.66
540.269	30282.97
540.469	30479.58
540.67	29621.48
540.87	30143.71
541.071	29787.36
541.271	30063.84
541.472	29773.03
541.672	29609.19
541.873	29697.25
542.073	29422.83
542.274	30262.49
542.474	29719.78
542.675	29431.02
542.875	29836.52
543.075	29551.85
543.276	29553.9
543.476	30016.74
543.676	29570.28
543.877	29547.75
544.077	29674.73
544.277	29385.96
544.478	29691.11
544.678	30055.65
544.878	29857
545.078	29900
545.279	29498.6
545.479	29519.08
545.679	29986.02
545.879	29813.99
546.079	29752.55
546.28	29727.97
546.48	28986.61
546.68	29689.06
546.88	29670.63
547.08	29533.42
547.28	29471.98
547.48	29111.53
547.68	29517.03
547.88	29347.05
548.081	29320.43
548.281	29467.88
548.481	29424.87
548.681	29801.7
548.881	29541.61
549.081	29619.43
549.28	29396.2
549.48	29660.39
549.68	29611.24
549.88	30020.83
550.08	29617.38
550.28	29801.7
550.48	29336.81
550.68	29783.27
550.88	29652.2
551.08	29557.99
551.279	29555.94
551.479	29428.97
551.679	29543.66
551.879	29234.41
552.079	29465.83
552.278	29396.2
552.478	29496.55
552.678	29791.46
552.878	29754.6
553.077	29611.24
553.277	29435.11
553.477	30481.63
553.676	29508.84
553.876	29437.16
554.076	29820.13
554.275	29601
554.475	29553.9
554.674	29549.8
554.874	30156
555.074	30035.17
555.273	30301.4
555.473	29971.68
555.672	29695.21
555.872	29945.06
556.071	30268.64
556.271	29979.87
556.47	29514.98
556.67	29500.65
556.869	29842.66
557.068	30022.88
557.268	29615.33
557.467	29922.53
557.667	30078.18
557.866	30176.48
558.065	29922.53
558.265	30139.61
558.464	29797.6
558.663	30303.45
558.863	29852.9
559.062	30221.53
559.261	29639.91
559.461	29918.43
559.66	29605.09
559.859	29979.87
560.058	29703.4
560.258	30139.61
560.457	29625.57
560.656	30160.09
560.855	29826.28
561.054	29773.03
561.253	29848.8
561.453	29873.38
561.652	30192.86
561.851	29981.92
562.05	30008.54
562.249	29877.47
562.448	30139.61
562.647	30201.05
562.846	30004.45
563.045	29766.88
563.244	29986.02
563.443	30166.24
563.642	29545.7
563.841	29857
564.04	29629.67
564.239	29785.32
564.438	29770.98
564.637	29664.49
564.836	29734.12
565.035	29463.79
565.234	29488.36
565.432	29644.01
565.631	29367.53
565.83	29750.5
566.029	29304.04
566.228	28990.7
566.427	29172.97
566.625	29467.88
566.824	29156.59
567.023	29486.31
567.222	28957.94
567.42	29338.86
567.619	29084.91
567.818	28908.79
568.016	29203.69
568.215	29340.91
568.414	28996.85
568.612	29189.36
568.811	28919.03
569.01	28878.07
569.208	28638.45
569.407	28943.6
569.605	28456.18
569.804	28904.69
570.002	28249.34
570.201	28742.9
570.4	28341.5
570.598	28253.44
570.797	27966.72
570.995	28429.56
571.193	28046.59
571.392	28138.75
571.59	28022.02
571.789	28089.6
571.987	27966.72
572.186	27870.47
572.384	27870.47
572.582	27759.88
572.781	27731.2
572.979	27129.1
573.177	27462.92
573.376	27772.16
573.574	27096.33
573.772	27530.5
573.971	27309.32
574.169	26797.33
574.367	27024.65
574.565	27241.74
574.763	27106.57
574.962	26617.11
575.16	26424.6
575.358	26889.49
575.556	26666.26
575.754	26787.09
575.952	26598.68
576.151	26928.4
576.349	26246.43
576.547	26277.15
576.745	26279.19
576.943	26670.36
577.141	25998.62
577.339	25779.49
577.537	25728.29
577.735	26115.36
577.933	25632.04
578.131	25799.97
578.329	25521.45
578.527	25314.6
578.725	25582.88
578.923	25586.98
579.121	25437.48
579.319	25460.01
579.516	25408.81
579.714	25523.49
579.912	25347.37
580.11	25056.56
580.308	24976.69
580.506	24851.76
580.704	24603.96
580.901	24894.77
581.099	24913.2
581.297	24298.81
581.495	24560.95
581.692	24993.07
581.89	24337.72
582.088	24786.22
582.285	24419.64
582.483	24511.8
582.681	24055.1
582.878	23954.75
583.076	24085.82
583.274	24649.01
583.471	24022.33
583.669	23860.54
583.866	23827.78
584.064	24030.52
584.262	23598.4
584.459	23850.3
584.657	23827.78
584.854	23842.11
585.052	23182.66
585.249	23690.56
585.447	23780.67
585.644	23188.81
585.841	23194.95
586.039	23338.31
586.236	23285.06
586.434	23182.66
586.631	23057.74
586.828	23358.79
587.026	23012.68
587.223	23340.36
587.42	23067.98
587.618	23203.14
587.815	22877.52
588.012	22660.43
588.21	22695.25
588.407	22746.45
588.604	22515.03
588.801	22670.67
588.999	22668.62
589.196	22748.5
589.393	22439.25
589.59	22388.05
589.787	22447.44
589.984	22299.99
590.182	21945.69
590.379	22510.93
590.576	22558.03
590.773	22218.07
590.97	22062.43
591.167	22134.1
591.364	22162.78
591.561	21847.39
591.758	21980.51
591.955	21955.93
592.152	21978.46
592.349	21904.73
592.546	21595.49
592.743	21904.73
592.94	21583.2
593.137	21824.86
593.334	21874.01
593.531	21644.64
593.727	22000.99
593.924	21747.04
594.121	21509.47
594.318	21714.27
594.515	21341.54
594.712	21519.71
594.908	21814.62
595.105	21472.61
595.302	21249.38
595.499	21413.22
595.696	21507.43
595.892	21452.13
596.089	21462.37
596.286	21405.03
596.482	21341.54
596.679	21556.58
596.876	21423.46
597.072	21204.33
597.269	21300.58
597.466	20989.29
597.662	20950.38
597.859	21132.65
598.055	21402.98
598.252	21081.45
598.448	21316.97
598.645	21122.41
598.841	21085.54
599.038	21134.7
599.234	21378.4
599.431	21034.35
599.627	21218.66
599.824	21343.59
600.02	21302.63
600.217	21351.78
600.413	21564.77
600.609	21249.38
600.806	21034.35
601.002	21233
601.198	20979.05
601.395	21235.05
601.591	21333.35
601.787	21095.78
601.984	20977
602.18	21577.06
602.376	21554.53
602.572	21450.08
602.769	21319.01
602.965	21372.26
603.161	21626.21
603.357	21445.99
603.553	21415.27
603.75	21650.78
603.946	21474.66
604.142	21570.91
604.338	21470.56
604.534	21974.36
604.73	21415.27
604.926	21566.82
605.122	21955.93
605.318	21486.95
605.514	21738.85
605.71	21618.02
605.906	21769.57
606.102	21626.21
606.298	21814.62
606.494	21912.92
606.69	22043.99
606.886	21949.79
607.082	21685.6
607.278	22246.74
607.474	21820.77
607.67	22193.5
607.866	22052.19
608.062	22617.43
608.257	22422.87
608.453	22037.85
608.649	22349.14
608.845	22203.74
609.041	22492.5
609.236	22562.13
609.432	22398.29
609.628	22889.81
609.824	22504.79
610.019	22308.18
610.215	22607.19
610.411	22691.15
610.606	22422.87
610.802	22668.62
610.998	22908.24
611.193	22895.95
611.389	22895.95
611.584	22783.31
611.78	22857.04
611.976	22736.21
612.171	23037.26
612.367	22998.35
612.562	22797.65
612.758	22805.84
612.953	22867.28
613.149	23317.83
613.344	22740.3
613.539	23188.81
613.735	23016.78
613.93	23147.85
614.126	23209.29
614.321	23592.26
614.517	23168.33
614.712	23045.45
614.907	23072.07
615.103	23383.37
615.298	23160.14
615.493	23524.68
615.688	23106.89
615.884	23510.34
616.079	22938.96
616.274	23541.06
616.47	23115.08
616.665	23436.61
616.86	23346.5
617.055	23323.97
617.25	23487.81
617.445	23573.83
617.641	23070.03
617.836	23381.32
618.031	22904.14
618.226	23326.02
618.421	23151.95
618.616	23401.8
618.811	22771.02
619.006	23582.02
619.201	22883.66
619.396	23221.58
619.591	22938.96
619.786	23123.27
619.981	22424.92
620.176	22963.53
620.371	22349.14
620.566	22744.4
620.761	22472.02
620.956	22605.14
621.151	22308.18
621.346	22482.26
621.541	22095.19
621.735	22576.47
621.93	21906.78
622.125	22031.71
622.32	21929.31
622.515	22054.23
622.709	21855.58
622.904	21491.04
623.099	21646.69
623.294	21937.5
623.488	21413.22
623.683	21474.66
623.878	21402.98
624.072	21544.29
624.267	21226.85
624.462	21095.78
624.656	20931.95
624.851	20866.41
625.046	20757.87
625.24	20591.98
625.435	20612.46
625.629	20702.57
625.824	20346.23
626.018	20432.24
626.213	20213.11
626.407	19656.06
626.602	20209.01
626.796	20092.28
626.991	19936.63
627.185	19621.25
627.38	19522.94
627.574	19647.87
627.768	19705.21
627.963	19406.21
628.157	19328.39
628.352	19694.97
628.546	18857.35
628.74	19481.99
628.935	19189.13
629.129	19010.95
629.323	18662.8
629.517	18664.85
629.712	18607.5
629.906	18627.98
630.1	18294.16
630.294	18425.23
630.489	18163.09
630.683	18259.35
630.877	17980.82
631.071	18146.71
631.265	18064.79
631.459	17763.74
631.653	17530.27
631.848	17853.85
632.042	17894.81
632.236	17718.68
632.43	17552.8
632.624	17522.08
632.818	17264.04
633.012	17259.94
633.206	17487.26
633.4	16985.51
633.594	16840.11
633.788	16944.55
633.982	16764.33
634.176	16985.51
634.369	16772.52
634.563	16827.82
634.757	16506.29
634.951	16367.02
635.145	16469.42
635.339	16410.03
635.533	16068.02
635.726	16139.7
635.92	15918.52
636.114	15779.26
636.308	15672.76
636.501	15519.17
636.695	15820.22
636.889	15717.82
637.083	15457.73
637.276	15230.4
637.47	15410.62
637.664	15189.44
637.857	15279.55
638.051	15336.9
638.244	15027.65
638.438	14644.68
638.632	14683.59
638.825	14618.06
639.019	14441.93
639.212	14382.54
639.406	14534.09
639.599	14319.06
639.793	14382.54
639.986	13876.69
640.18	14083.54
640.373	14099.92
640.567	13845.98
640.76	13862.36
640.954	13719
641.147	13686.23
641.34	13463.01
641.534	13489.63
641.727	13469.15
641.92	13581.79
642.114	13469.15
642.307	13383.13
642.5	13073.89
642.694	12977.64
642.887	12690.92
643.08	13041.12
643.273	12963.3
643.467	12541.42
643.66	12586.47
643.853	12629.48
644.046	12492.27
644.239	12606.95
644.432	12471.79
644.626	12307.95
644.819	12154.35
645.012	12207.6
645.205	12273.14
645.398	11970.04
645.591	11816.44
645.784	12043.76
645.977	11716.09
646.17	11732.47
646.363	11462.14
646.556	11439.61
646.749	11431.42
646.942	11437.56
647.135	11372.03
647.328	11298.3
647.521	11118.08
647.714	10970.63
647.907	11265.53
648.099	10964.48
648.292	10888.71
648.485	10978.82
648.678	10741.25
648.871	10708.49
649.064	10765.83
649.256	10733.06
649.449	10497.55
649.642	10522.12
649.835	10452.49
650.027	10221.07
650.22	10313.23
650.413	10399.24
650.605	10280.46
650.798	10257.93
650.991	9973.27
651.183	10003.99
651.376	9852.44
651.568	9987.6
651.761	10087.95
651.954	9862.68
652.146	9813.52
652.339	9815.57
652.531	9692.69
652.724	9512.47
652.916	9381.4
653.109	9186.85
653.301	9481.75
653.494	9444.89
653.686	9279.01
653.879	9430.55
654.071	9190.94
654.263	9256.48
654.456	9137.7
654.648	9221.66
654.84	9149.98
655.033	9115.17
655.225	8918.56
655.417	8701.48
655.61	8793.64
655.802	8818.21
655.994	8914.47
656.186	8934.95
656.379	8627.75
656.571	8689.19
656.763	8463.91
656.955	8490.54
657.148	8539.69
657.34	8703.53
657.532	8367.66
657.724	8443.43
657.916	8402.47
658.108	8179.25
658.3	8171.05
658.492	8228.4
658.684	8058.42
658.876	8130.09
659.068	8183.34
659.26	7968.31
659.452	8007.22
659.644	8005.17
659.836	7827
660.028	7958.07
660.22	7763.51
660.412	7616.05
660.604	7734.84
660.796	7806.52
660.988	7489.08
661.18	7491.13
661.372	7407.16
661.563	7425.59
661.755	7581.24
661.947	7607.86
662.139	7263.8
662.331	7298.62
662.522	7423.55
662.714	7202.36
662.906	7093.82
663.097	7005.76
663.289	7040.58
663.481	6999.62
663.673	7149.12
663.864	6993.47
664.056	6780.48
664.247	6929.98
664.439	6723.14
664.631	6858.31
664.822	6972.99
665.014	6897.22
665.205	6817.35
665.397	6719.04
665.588	6645.32
665.78	6592.07
665.971	6440.52
666.163	6751.81
666.354	6645.32
666.546	6540.87
666.737	6434.38
666.929	6377.03
667.12	6354.51
667.311	6325.83
667.503	6342.22
667.694	6311.5
667.885	6223.44
668.077	6231.63
668.268	6215.24
668.459	6258.25
668.651	6215.24
668.842	6133.33
669.033	5920.34
669.224	6073.93
669.416	6016.59
669.607	6026.83
669.798	5910.1
669.989	5801.55
670.18	5955.15
670.371	5893.71
670.563	5625.43
670.754	5764.69
670.945	5762.64
671.136	5959.25
671.327	5762.64
671.518	5793.36
671.709	5883.47
671.9	5789.27
672.091	5676.63
672.282	5725.78
672.473	5539.41
672.664	5588.57
672.855	5631.57
673.046	5561.94
673.237	5713.49
673.428	5604.95
673.619	5465.69
673.809	5459.54
674	5475.93
674.191	5582.42
674.382	5496.41
674.573	5443.16
674.764	5391.96
674.954	5469.78
675.145	5228.12
675.336	5355.1
675.527	5269.08
675.717	5422.68
675.908	5271.13
676.099	5365.34
676.289	5176.92
676.48	5185.12
676.671	5285.47
676.861	5365.34
677.052	5254.75
677.243	5254.75
677.433	5121.63
677.624	5375.58
677.814	5066.33
678.005	5260.89
678.195	5178.97
678.386	5164.64
678.576	5076.57
678.767	5164.64
678.957	5158.49
679.148	5226.07
679.338	5115.48
679.529	5140.06
679.719	5330.52
679.909	5213.79
680.1	5176.92
680.29	5152.35
680.481	5193.31
680.671	5035.61
680.861	5158.49
681.052	5101.15
681.242	5004.89
681.432	5148.25
681.622	4961.89
681.813	5033.57
682.003	5072.48
682.193	4943.46
682.383	4976.22
682.573	4943.46
682.764	5131.87
682.954	5105.24
683.144	5080.67
683.334	5017.18
683.524	4984.41
683.714	4912.74
683.904	4990.56
684.094	4970.08
684.284	5121.63
684.474	5097.05
684.664	5031.52
684.854	4884.06
685.044	4822.63
685.234	4884.06
685.424	4882.02
685.614	4877.92
685.804	5054.05
685.994	5064.29
686.184	4970.08
686.374	4810.34
686.564	5031.52
686.753	4851.3
686.943	4898.4
687.133	4853.34
687.323	4820.58
687.513	4935.26
687.702	4732.51
687.892	4826.72
688.082	4812.39
688.272	4724.32
688.461	4863.58
688.651	5025.37
688.841	4662.88
689.03	4687.46
689.22	4644.45
689.41	4791.91
689.599	4695.65
689.789	4763.23
689.979	4599.4
690.168	4705.89
690.358	4714.08
690.547	4656.74
690.737	4654.69
690.926	4589.16
691.116	4583.01
691.305	4585.06
691.495	4531.81
691.684	4531.81
691.874	4621.92
692.063	4482.66
692.252	4421.22
692.442	4425.32
692.631	4429.42
692.82	4542.05
693.01	4597.35
693.199	4542.05
693.388	4429.42
693.578	4554.34
693.767	4476.52
693.956	4497
694.146	4421.22
694.335	4453.99
694.524	4435.56
694.713	4408.94
694.902	4267.63
695.092	4335.21
695.281	4214.38
695.47	4419.18
695.659	4359.78
695.848	4519.53
696.037	4286.06
696.226	4458.09
696.415	4318.82
696.604	4277.87
696.793	4353.64
696.982	4200.04
697.171	4290.15
697.36	4220.52
697.549	4200.04
697.738	4281.96
697.927	4238.95
698.116	4347.5
698.305	4243.05
698.494	4195.95
698.683	4142.7
698.872	4302.44
699.061	4163.18
699.25	4140.65
699.438	4105.84
699.627	4091.5
699.816	4181.61
700.005	4107.88
700.193	4136.56
700.382	4140.65
700.571	4077.16
700.76	4011.63
700.948	4167.28
701.137	4124.27
701.326	4124.27
701.514	3929.71
701.703	3976.81
701.892	3982.96
702.08	4089.45
702.269	3909.23
702.457	3884.66
702.646	4011.63
702.834	3976.81
703.023	3946.09
703.212	3993.2
703.4	3923.57
703.589	3884.66
703.777	3827.31
703.965	3915.37
704.154	3907.18
704.342	3958.38
704.531	3892.85
704.719	3794.54
704.907	3796.59
705.096	3864.18
705.284	3784.3
705.472	3864.18
705.661	3751.54
705.849	3720.82
706.037	3733.11
706.226	3860.08
706.414	3665.52
706.602	3645.04
706.79	3880.56
706.979	3737.2
707.167	3731.06
707.355	3565.17
707.543	3599.99
707.731	3634.8
707.919	3733.11
708.107	3632.76
708.296	3778.16
708.484	3530.36
708.672	3618.42
708.86	3677.81
709.048	3509.88
709.236	3438.2
709.424	3610.23
709.612	3548.79
709.8	3532.4
709.988	3532.4
710.176	3466.87
710.364	3327.61
710.551	3458.68
710.739	3573.36
710.927	3417.72
711.115	3520.12
711.303	3444.34
711.491	3378.81
711.679	3276.41
711.866	3466.87
712.054	3358.33
712.242	3393.14
712.43	3409.53
712.617	3511.93
712.805	3337.85
712.993	3327.61
713.181	3305.08
713.368	3225.21
713.556	3368.57
713.744	3114.62
713.931	3450.49
714.119	3108.48
714.306	3239.55
714.494	3135.1
714.682	3260.02
714.869	3141.24
715.057	3296.89
715.244	3196.54
715.432	3184.25
715.619	3202.68
715.807	3155.58
715.994	3167.87
716.182	3114.62
716.369	3118.72
716.556	3049.08
716.744	3028.6
716.931	2991.74
717.119	3155.58
717.306	3118.72
717.493	3104.38
717.681	3157.63
717.868	3032.7
718.055	3069.56
718.242	3090.04
718.43	2991.74
718.617	2991.74
718.804	3008.12
718.991	2963.07
719.179	2928.25
719.366	2918.01
719.553	2999.93
719.74	2922.11
719.927	2881.15
720.114	2918.01
720.301	2979.45
720.488	2836.1
720.676	2791.04
720.863	2911.87
721.05	2782.85
721.237	2922.11
721.424	2797.18
721.611	2862.72
721.798	2698.88
721.985	2864.77
722.172	2829.95
722.358	2776.7
722.545	2797.18
722.732	2659.97
722.919	2750.08
723.106	2676.35
723.293	2688.64
723.48	2700.93
723.667	2643.59
723.853	2614.91
724.04	2801.28
724.227	2655.87
724.414	2707.07
724.6	2696.83
724.787	2715.27
724.974	2682.5
725.161	2635.39
725.347	2608.77
725.534	2576
725.72	2573.96
725.907	2637.44
726.094	2541.19
726.28	2553.48
726.467	2565.76
726.653	2610.82
726.84	2557.57
727.027	2633.35
727.213	2561.67
727.4	2555.52
727.586	2561.67
727.773	2526.85
727.959	2549.38
728.145	2446.98
728.332	2393.73
728.518	2453.13
728.705	2582.15
728.891	2549.38
729.077	2582.15
729.264	2475.65
729.45	2483.84
729.636	2426.5
729.823	2352.77
730.009	2533
730.195	2324.1
730.382	2475.65
730.568	2524.8
730.754	2391.69
730.94	2410.12
731.126	2442.89
731.313	2442.89
731.499	2383.49
731.685	2346.63
731.871	2367.11
732.057	2311.82
732.243	2336.39
732.429	2352.77
732.615	2262.66
732.801	2344.58
732.987	2328.2
733.173	2338.44
733.359	2250.38
733.545	2217.61
733.731	2201.23
733.917	2297.48
734.103	2248.33
734.289	2209.42
734.475	2219.66
734.661	2446.98
734.847	2150.03
735.033	2340.49
735.219	2168.46
735.404	2233.99
735.59	2188.94
735.776	2283.14
735.962	2313.86
736.148	2266.76
736.333	2291.34
736.519	2180.75
736.705	2256.52
736.89	2264.71
737.076	2147.98
737.262	2113.16
737.447	2100.87
737.633	2180.75
737.819	2139.79
738.004	2143.88
738.19	2258.57
738.375	2111.11
738.561	2272.9
738.747	2119.31
738.932	1971.85
739.118	2033.29
739.303	2084.49
739.489	2115.21
739.674	1994.38
739.859	2029.2
740.045	1992.33
740.23	2100.87
740.416	2010.76
740.601	2057.87
740.786	1984.14
740.972	1984.14
741.157	1926.8
741.342	2090.63
741.528	1957.52
741.713	2010.76
741.898	1904.27
742.084	1906.32
742.269	1891.98
742.454	2008.72
742.639	1859.21
742.824	1978
743.01	1943.18
743.195	1988.24
743.38	1836.69
743.565	1754.77
743.75	1844.88
743.935	1906.32
744.12	1877.65
744.305	1875.6
744.49	1787.54
744.675	1879.69
744.86	1724.05
745.045	1787.54
745.23	1799.82
745.415	1789.58
745.6	1754.77
745.785	1756.82
745.97	1795.73
746.155	1769.1
746.34	1738.38
746.525	1724.05
746.71	1744.53
746.895	1652.37
747.079	1601.17
747.264	1640.08
747.449	1719.95
747.634	1685.14
747.819	1635.99
748.003	1613.46
748.188	1640.08
748.373	1685.14
748.557	1574.55
748.742	1492.63
748.927	1539.73
749.111	1576.59
749.296	1590.93
749.481	1635.99
749.665	1543.83
749.85	1549.97
750.034	1582.74
750.219	1509.01
750.404	1476.24
750.588	1472.15
750.773	1547.92
750.957	1506.96
751.141	1484.44
751.326	1484.44
751.51	1345.17
751.695	1443.48
751.879	1377.94
752.064	1402.52
752.248	1345.17
752.432	1439.38
752.617	1404.57
752.801	1386.13
752.985	1310.36
753.17	1336.98
753.354	1316.5
753.538	1281.69
753.722	1355.41
753.907	1160.86
754.091	1171.1
754.275	1304.21
754.459	1365.65
754.643	1177.24
754.828	1246.87
755.012	1289.88
755.196	1132.19
755.38	1271.45
755.564	1189.53
755.748	1216.15
755.932	1244.82
756.116	1214.1
756.3	1207.96
756.484	1187.48
756.668	1214.1
756.852	1150.62
757.036	1103.51
757.22	1150.62
757.404	1091.23
757.588	1091.23
757.772	1164.95
757.956	1105.56
758.14	1040.03
758.323	1140.38
758.507	1185.43
758.691	1183.38
758.875	1136.28
759.059	1134.23
759.242	1046.17
759.426	1123.99
759.61	1074.84
759.794	1009.31
759.977	1103.51
760.161	1068.7
760.345	1017.5
760.528	1042.07
760.712	1013.4
760.895	1095.32
761.079	1064.6
761.263	1070.75
761.446	980.64
761.63	1003.16
761.813	1019.55
761.997	984.73
762.18	927.39
762.364	1009.31
762.547	992.92
762.731	1001.12
762.914	980.64
763.098	898.72
763.281	878.24
763.464	878.24
763.648	988.83
763.831	962.2
764.015	921.24
764.198	1064.6
764.381	855.71
764.564	931.48
764.748	929.44
764.931	870.05
765.114	874.14
765.297	902.81
765.481	919.2
765.664	870.05
765.847	814.75
766.03	870.05
766.213	927.39
766.397	966.3
766.58	896.67
766.763	833.18
766.946	874.14
767.129	898.72
767.312	800.41
767.495	976.54
767.678	833.18
767.861	820.89
768.044	849.57
768.227	894.62
768.41	743.07
768.593	837.28
768.776	865.95
768.959	841.37
769.142	886.43
769.324	804.51
769.507	923.29
769.69	831.13
769.873	698.02
770.056	831.13
770.239	759.46
770.421	816.8
770.604	741.02
770.787	771.74
770.97	700.06
771.152	738.98
771.335	816.8
771.518	800.41
771.7	724.64
771.883	886.43
772.066	738.98
772.248	741.02
772.431	763.55
772.613	790.17
772.796	792.22
772.978	747.17
773.161	730.78
773.343	788.13
773.526	763.55
773.708	650.91
773.891	667.3
774.073	781.98
774.256	673.44
774.438	650.91
774.621	669.34
774.803	706.21
774.985	577.19
775.168	634.53
775.35	691.87
775.532	728.74
775.715	683.68
775.897	700.06
776.079	632.48
776.261	620.19
776.444	628.39
776.626	751.26
776.808	554.66
776.99	659.1
777.173	622.24
777.355	698.02
777.537	657.06
777.719	579.23
777.901	575.14
778.083	571.04
778.265	646.82
778.447	657.06
778.629	546.47
778.811	618.15
778.993	568.99
779.175	642.72
779.357	648.86
779.539	591.52
779.721	550.56
779.903	618.15
780.085	558.75
780.267	601.76
780.449	485.03
780.631	652.96
780.812	534.18
780.994	571.04
781.176	538.27
781.358	536.23
781.54	491.17
781.721	554.66
781.903	485.03
782.085	566.95
782.267	579.23
782.448	435.88
782.63	478.88
782.812	575.14
782.993	454.31
783.175	421.54
783.357	476.84
783.538	505.51
783.72	466.6
783.901	396.96
784.083	517.79
784.264	439.97
784.446	415.4
784.627	353.96
784.809	478.88
784.99	423.59
785.172	452.26
785.353	446.12
785.535	405.16
785.716	497.32
785.897	458.4
786.079	419.49
786.26	419.49
786.441	396.96
786.623	429.73
786.804	439.97
786.985	407.2
787.167	366.25
787.348	427.68
787.529	413.35
787.71	472.74
787.891	452.26
788.073	411.3
788.254	306.85
788.435	396.96
788.616	374.44
788.797	356.01
788.978	345.77
789.159	255.65
789.34	431.78
789.522	390.82
789.703	327.33
789.884	362.15
790.065	415.4
790.246	411.3
790.427	253.61
790.607	331.43
790.788	349.86
790.969	345.77
791.15	331.43
791.331	288.42
791.512	296.61
791.693	370.34
791.874	341.67
792.054	382.63
792.235	374.44
792.416	313
792.597	337.57
792.778	431.78
792.958	362.15
793.139	380.58
793.32	255.65
793.5	233.13
793.681	323.24
793.862	286.37
794.042	362.15
794.223	280.23
794.404	222.89
794.584	226.98
794.765	304.81
794.945	284.33
795.126	290.47
795.306	366.25
795.487	249.51
795.667	327.33
795.848	306.85
796.028	274.09
796.209	317.09
796.389	337.57
796.57	233.13
796.75	280.23
796.93	280.23
797.111	231.08
797.291	272.04
797.471	214.7
797.652	220.84
797.832	243.37
798.012	272.04
798.192	292.52
798.373	192.17
798.553	274.09
798.733	247.46
798.913	259.75
799.093	222.89
799.274	222.89
799.454	237.22
799.634	317.09
799.814	255.65
799.994	288.42
800.174	265.89
800.354	214.7
800.534	198.31
800.714	274.09
800.894	235.18
801.074	257.7
801.254	247.46
801.434	261.8
801.614	222.89
801.794	272.04
801.974	898.72
802.154	249.51
802.334	208.55
802.514	167.59
802.693	173.74
802.873	231.08
803.053	292.52
803.233	198.31
803.413	200.36
803.592	208.55
803.772	200.36
803.952	235.18
804.131	222.89
804.311	208.55
804.491	214.7
804.67	169.64
804.85	177.83
805.03	272.04
805.209	216.74
805.389	181.93
805.568	222.89
805.748	206.5
805.928	190.12
806.107	231.08
806.287	173.74
806.466	210.6
806.646	179.88
806.825	194.22
807.004	169.64
807.184	165.54
807.363	222.89
807.543	208.55
807.722	255.65
807.901	198.31
808.081	165.54
808.26	118.44
808.439	198.31
808.619	145.06
808.798	231.08
808.977	161.45
809.156	249.51
809.336	263.85
809.515	161.45
809.694	108.2
809.873	173.74
810.052	138.92
810.231	214.7
810.411	95.91
810.59	206.5
810.769	202.41
810.948	134.82
811.127	222.89
811.306	159.4
811.485	130.73
811.664	173.74
811.843	165.54
812.022	177.83
812.201	138.92
812.38	183.98
812.559	50.86
812.737	134.82
812.916	120.49
813.095	149.16
813.274	128.68
813.453	140.97
813.632	210.6
813.811	190.12
813.989	112.3
814.168	140.97
814.347	128.68
814.526	59.05
814.704	173.74
814.883	231.08
815.062	122.54
815.24	169.64
815.419	100.01
815.598	102.06
815.776	67.24
815.955	214.7
816.133	69.29
816.312	140.97
816.49	124.58
816.669	237.22
816.847	91.82
817.026	151.21
817.204	128.68
817.383	186.02
817.561	112.3
817.74	177.83
817.918	167.59
818.097	85.67
818.275	95.91
818.453	173.74
818.632	116.39
818.81	67.24
818.988	108.2
819.167	83.63
819.345	75.43
819.523	159.4
819.701	138.92
819.879	140.97
820.058	59.05
820.236	42.67
820.414	118.44
820.592	81.58
820.77	77.48
820.948	167.59
821.127	73.39
821.305	126.63
821.483	128.68
821.661	128.68
821.839	108.2
822.017	106.15
822.195	106.15
822.373	132.78
822.551	69.29
822.729	75.43
822.907	67.24
823.085	175.78
823.262	95.91
823.44	100.01
823.618	116.39
823.796	100.01
823.974	42.67
824.152	24.23
824.329	97.96
824.507	102.06
824.685	120.49
824.863	145.06
825.04	108.2
825.218	63.15
825.396	100.01
825.574	102.06
825.751	30.38
825.929	118.44
826.107	42.67
826.284	140.97
826.462	188.07
826.639	83.63
826.817	38.57
826.994	124.58
827.172	87.72
827.349	177.83
827.527	102.06
827.704	157.35
827.882	112.3
828.059	108.2
828.237	100.01
828.414	124.58
828.591	108.2
828.769	11.95
828.946	54.95
829.124	132.78
829.301	171.69
829.478	102.06
829.655	75.43
829.833	149.16
830.01	83.63
830.187	143.02
830.364	63.15
830.542	61.1
830.719	104.11
830.896	85.67
831.073	106.15
831.25	97.96
831.427	173.74
831.604	65.19
831.782	63.15
831.959	30.38
832.136	75.43
832.313	181.93
832.49	75.43
832.667	65.19
832.844	5.8
833.021	100.01
833.198	26.28
833.374	87.72
833.551	157.35
833.728	61.1
833.905	89.77
834.082	1.71
834.259	46.76
834.436	194.22
834.612	77.48
834.789	114.34
834.966	151.21
835.143	67.24
835.319	-10.58
835.496	95.91
835.673	67.24
835.85	67.24
836.026	44.71
836.203	118.44
836.38	69.29
836.556	36.52
836.733	-51.54
836.909	153.26
837.086	83.63
837.262	100.01
837.439	61.1
837.616	18.09
837.792	50.86
837.968	128.68
838.145	-10.58
838.321	63.15
838.498	102.06
838.674	79.53
838.851	71.34
839.027	102.06
839.203	100.01
839.38	140.97
839.556	-22.87
839.732	50.86
839.909	34.47
840.085	157.35
840.261	24.23
840.437	93.87
840.614	30.38
840.79	118.44
840.966	102.06
841.142	-35.16
841.318	42.67
841.494	-24.92
841.671	77.48
841.847	59.05
842.023	48.81
842.199	83.63
842.375	95.91
842.551	26.28
842.727	-10.58
842.903	73.39
843.079	91.82
843.255	138.92
843.431	44.71
843.607	93.87
843.783	-80.21
843.959	-4.44
844.134	48.81
844.31	102.06
844.486	108.2
844.662	34.47
844.838	91.82
845.013	108.2
845.189	140.97
845.365	-22.87
845.541	16.04
845.716	44.71
845.892	-39.25
846.068	-2.39
846.244	59.05
846.419	18.09
846.595	20.14
846.77	38.57
846.946	81.58
847.122	-2.39
847.297	36.52
847.473	30.38
847.648	-12.63
847.824	77.48
847.999	-12.63
848.175	54.95
848.35	118.44
848.526	63.15
848.701	69.29
848.876	69.29
849.052	104.11
849.227	67.24
849.403	-14.68
849.578	9.9
849.753	9.9
849.929	52.91
850.104	26.28
850.279	22.19
850.454	54.95
850.63	54.95
850.805	108.2
850.98	85.67
851.155	36.52
851.33	34.47
851.505	-45.4
851.681	126.63
851.856	46.76
852.031	77.48
852.206	140.97
852.381	1.71
852.556	20.14
852.731	54.95
852.906	100.01
853.081	52.91
853.256	108.2
853.431	42.67
853.606	-20.82
853.781	50.86
853.956	-14.68
854.131	95.91
854.305	-39.25
854.48	83.63
854.655	63.15
854.83	7.85
855.005	108.2
855.18	69.29
855.354	-2.39
855.529	75.43
855.704	30.38
855.879	3.75
856.053	-6.49
856.228	102.06
856.403	34.47
856.577	-33.11
856.752	22.19
856.926	83.63
857.101	20.14
857.276	81.58
857.45	50.86
857.625	93.87
857.799	16.04
857.974	75.43
858.148	-69.97
858.323	108.2
858.497	52.91
858.672	-4.44
858.846	-24.92
859.02	50.86
859.195	-31.06
859.369	28.33
859.543	28.33
859.718	44.71
859.892	54.95
860.066	44.71
860.241	30.38
860.415	77.48
860.589	3.75
860.763	42.67
860.938	3.75
861.112	18.09
861.286	71.34
861.46	42.67
861.634	9.9
861.808	77.48
861.982	46.76
862.157	69.29
862.331	13.99
862.505	-26.96
862.679	-31.06
862.853	18.09
863.027	46.76
863.201	54.95
863.375	-14.68
863.549	100.01
863.722	9.9
863.896	9.9
864.07	-6.49
864.244	81.58
864.418	22.19
864.592	3.75
864.766	75.43
864.939	87.72
865.113	30.38
865.287	75.43
865.461	50.86
865.634	-14.68
865.808	26.28
865.982	-20.82
866.156	-47.44
866.329	1.71
866.503	69.29
866.676	95.91
866.85	11.95
867.024	-63.83
867.197	-10.58
867.371	-47.44
867.544	-24.92
867.718	-4.44
867.891	-55.64
868.065	61.1
868.238	22.19
868.412	163.5
868.585	50.86
868.759	50.86
868.932	-4.44
869.105	-35.16
869.279	-14.68
869.452	28.33
869.625	63.15
869.799	59.05
869.972	-37.2
870.145	-18.77
870.319	7.85
870.492	38.57
870.665	-94.55
870.838	-26.96
871.011	73.39
871.185	18.09
871.358	24.23
871.531	-22.87
871.704	83.63
871.877	75.43
872.05	-29.01
872.223	3.75
872.396	54.95
872.569	65.19
872.742	9.9
872.915	-12.63
873.088	30.38
873.261	30.38
873.434	61.1
873.607	42.67
873.78	-18.77
873.953	-10.58
874.126	-10.58
874.299	28.33
874.471	52.91
874.644	18.09
874.817	34.47
874.99	34.47
875.163	26.28
875.335	-10.58
875.508	83.63
875.681	48.81
875.853	-12.63
876.026	44.71
876.199	46.76
876.371	1.71
876.544	-10.58
876.717	38.57
876.889	50.86
877.062	85.67
877.234	5.8
877.407	1.71
877.579	26.28
877.752	59.05
877.924	61.1
878.097	69.29
878.269	-39.25
878.442	59.05
878.614	69.29
878.786	-39.25
878.959	-63.83
879.131	18.09
879.303	-12.63
879.476	54.95
879.648	-18.77
879.82	-18.77
879.993	3.75
880.165	75.43
880.337	-22.87
880.509	-6.49
880.681	20.14
880.854	9.9
881.026	59.05
881.198	63.15
881.37	-20.82
881.542	-20.82
881.714	44.71
881.886	-12.63
882.058	-39.25
882.23	65.19
882.402	9.9
882.574	3.75
882.746	-16.73
882.918	61.1
883.09	-59.73
883.262	77.48
883.434	30.38
883.606	50.86
883.778	18.09
883.95	-18.77
884.122	26.28
884.293	18.09
884.465	11.95
884.637	9.9
884.809	-55.64
884.98	20.14
885.152	3.75
885.324	-18.77
885.496	28.33
885.667	-39.25
885.839	-2.39
886.011	-31.06
886.182	32.43
886.354	46.76
886.525	9.9
886.697	26.28
886.869	48.81
887.04	-31.06
887.212	44.71
887.383	75.43
887.555	34.47
887.726	-20.82
887.897	3.75
888.069	83.63
888.24	26.28
888.412	-35.16
888.583	-53.59
888.754	42.67
888.926	-61.78
889.097	42.67
889.268	-22.87
889.44	18.09
889.611	-55.64
889.782	-37.2
889.953	-2.39
890.125	108.2
890.296	13.99
890.467	-31.06
890.638	-2.39
890.809	42.67
890.98	-39.25
891.151	32.43
891.323	36.52
891.494	54.95
891.665	26.28
891.836	30.38
892.007	-20.82
892.178	52.91
892.349	9.9
892.52	36.52
892.691	75.43
892.862	28.33
893.032	-20.82
893.203	-4.44
893.374	30.38
893.545	59.05
893.716	34.47
893.887	116.39
894.057	52.91
894.228	-33.11
894.399	-0.34
894.57	36.52
894.74	-14.68
894.911	54.95
895.082	36.52
895.253	-37.2
895.423	24.23
895.594	11.95
895.764	26.28
895.935	-72.02
896.106	30.38
896.276	18.09
896.447	59.05
896.617	-12.63
896.788	-29.01
896.958	81.58
897.129	-51.54
897.299	1.71
897.47	50.86
897.64	18.09
897.81	-55.64
897.981	30.38
898.151	38.57
898.322	3.75
898.492	28.33
898.662	18.09
898.832	-53.59
899.003	36.52
899.173	87.72
899.343	-12.63
899.513	-35.16
