Data from USB4F104151__204__14-33-17-101.txt Node

Date: Thu Mar 13 14:33:17 EDT 2025
User: louis
Spectrometer: USB4F10415
Trigger mode: 4
Integration Time (sec): 2.500000E-2
Scans to average: 1
Electric dark correction enabled: true
Nonlinearity correction enabled: false
Boxcar width: 0
XAxis mode: Wavelengths
Number of Pixels in Spectrum: 3648
>>>>>Begin Spectral Data<<<<<
178.204	-159.91
178.424	-159.91
178.644	-159.91
178.864	-137.38
179.084	-141.48
179.304	-45.23
179.524	1.88
179.744	34.64
179.964	30.55
180.184	-4.27
180.404	30.55
180.624	-39.08
180.844	18.26
181.064	-47.27
181.283	67.41
181.503	-43.18
181.723	-4.27
181.943	-114.86
182.163	114.52
182.383	8.02
182.602	14.17
182.822	77.65
183.042	34.64
183.262	-32.94
183.482	-2.22
183.701	-14.51
183.921	-6.31
184.141	-12.46
184.361	-6.31
184.58	-22.7
184.8	26.45
185.02	22.36
185.239	36.69
185.459	-6.31
185.679	55.12
185.898	-4.27
186.118	26.45
186.338	44.88
186.557	5.97
186.777	24.4
186.997	59.22
187.216	3.93
187.436	69.46
187.655	22.36
187.875	77.65
188.095	-14.51
188.314	28.5
188.534	61.27
188.753	-4.27
188.973	30.55
189.192	51.03
189.412	10.07
189.631	73.56
189.851	1.88
190.07	51.03
190.29	-6.31
190.509	20.31
190.729	34.64
190.948	77.65
191.168	157.52
191.387	59.22
191.607	-10.41
191.826	20.31
192.045	-2.22
192.265	-14.51
192.484	75.6
192.704	67.41
192.923	1.88
193.142	91.99
193.362	85.84
193.581	75.6
193.8	12.12
194.02	51.03
194.239	36.69
194.458	-6.31
194.678	20.31
194.897	-16.55
195.116	75.6
195.335	-37.03
195.555	122.71
195.774	-61.61
195.993	20.31
196.212	67.41
196.432	-45.23
196.651	67.41
196.87	-39.08
197.089	124.76
197.308	-6.31
197.528	77.65
197.747	-34.99
197.966	20.31
198.185	44.88
198.404	5.97
198.623	32.6
198.842	59.22
199.062	-2.22
199.281	44.88
199.5	63.32
199.719	71.51
199.938	61.27
200.157	67.41
200.376	30.55
200.595	85.84
200.814	55.12
201.033	1.88
201.252	91.99
201.471	20.31
201.69	51.03
201.909	-14.51
202.128	28.5
202.347	5.97
202.566	-4.27
202.785	30.55
203.004	-32.94
203.223	67.41
203.442	22.36
203.661	42.84
203.879	12.12
204.098	-32.94
204.317	63.32
204.536	61.27
204.755	18.26
204.974	55.12
205.193	51.03
205.411	91.99
205.63	18.26
205.849	10.07
206.068	44.88
206.287	46.93
206.505	51.03
206.724	20.31
206.943	10.07
207.162	-8.36
207.381	30.55
207.599	-10.41
207.818	-12.46
208.037	-14.51
208.255	44.88
208.474	30.55
208.693	28.5
208.911	20.31
209.13	8.02
209.349	110.42
209.567	65.36
209.786	87.89
210.005	-26.79
210.223	-16.55
210.442	-69.8
210.661	48.98
210.879	44.88
211.098	69.46
211.316	59.22
211.535	26.45
211.753	53.08
211.972	65.36
212.191	3.93
212.409	18.26
212.628	71.51
212.846	12.12
213.065	5.97
213.283	91.99
213.502	-37.03
213.72	46.93
213.938	28.5
214.157	-37.03
214.375	20.31
214.594	26.45
214.812	71.51
215.031	-51.37
215.249	12.12
215.467	75.6
215.686	16.21
215.904	83.8
216.122	-20.65
216.341	14.17
216.559	-8.36
216.778	59.22
216.996	26.45
217.214	14.17
217.432	-2.22
217.651	-34.99
217.869	-28.84
218.087	10.07
218.306	28.5
218.524	-16.55
218.742	-28.84
218.96	-12.46
219.179	18.26
219.397	71.51
219.615	94.04
219.833	32.6
220.051	42.84
220.27	79.7
220.488	18.26
220.706	10.07
220.924	-37.03
221.142	34.64
221.36	-80.04
221.578	18.26
221.796	51.03
222.015	1.88
222.233	36.69
222.451	65.36
222.669	-61.61
222.887	116.56
223.105	-14.51
223.323	14.17
223.541	-14.51
223.759	1.88
223.977	18.26
224.195	-2.22
224.413	-18.6
224.631	130.9
224.849	-6.31
225.067	69.46
225.285	-14.51
225.503	-39.08
225.721	-2.22
225.939	-55.47
226.157	-16.55
226.375	132.95
226.592	-39.08
226.81	10.07
227.028	114.52
227.246	34.64
227.464	51.03
227.682	81.75
227.9	-22.7
228.117	36.69
228.335	-4.27
228.553	-6.31
228.771	-14.51
228.989	87.89
229.206	94.04
229.424	14.17
229.642	-16.55
229.86	-2.22
230.077	85.84
230.295	16.21
230.513	48.98
230.731	28.5
230.948	61.27
231.166	-10.41
231.384	-30.89
231.601	-6.31
231.819	67.41
232.037	5.97
232.254	-12.46
232.472	12.12
232.689	-14.51
232.907	67.41
233.125	-0.17
233.342	67.41
233.56	-8.36
233.777	12.12
233.995	1.88
234.213	-12.46
234.43	44.88
234.648	61.27
234.865	-2.22
235.083	5.97
235.3	46.93
235.518	96.08
235.735	16.21
235.953	98.13
236.17	87.89
236.388	108.37
236.605	57.17
236.822	51.03
237.04	28.5
237.257	-6.31
237.475	14.17
237.692	67.41
237.909	5.97
238.127	8.02
238.344	42.84
238.562	20.31
238.779	18.26
238.996	26.45
239.214	59.22
239.431	59.22
239.648	-51.37
239.865	79.7
240.083	-18.6
240.3	-43.18
240.517	38.74
240.735	-12.46
240.952	83.8
241.169	32.6
241.386	18.26
241.603	53.08
241.821	1.88
242.038	124.76
242.255	44.88
242.472	-26.79
242.689	-22.7
242.907	42.84
243.124	24.4
243.341	-43.18
243.558	-6.31
243.775	-22.7
243.992	-12.46
244.209	3.93
244.426	26.45
244.643	46.93
244.86	-80.04
245.078	34.64
245.295	-10.41
245.512	-10.41
245.729	1.88
245.946	53.08
246.163	3.93
246.38	26.45
246.597	5.97
246.814	55.12
247.031	67.41
247.248	-6.31
247.464	14.17
247.681	34.64
247.898	3.93
248.115	-86.19
248.332	-10.41
248.549	-2.22
248.766	32.6
248.983	-65.71
249.2	83.8
249.417	-2.22
249.633	-69.8
249.85	100.18
250.067	-32.94
250.284	22.36
250.501	83.8
250.717	3.93
250.934	-55.47
251.151	55.12
251.368	5.97
251.585	91.99
251.801	10.07
252.018	36.69
252.235	44.88
252.451	-12.46
252.668	-20.65
252.885	30.55
253.102	-10.41
253.318	-34.99
253.535	18.26
253.752	75.6
253.968	-4.27
254.185	-22.7
254.401	-24.75
254.618	36.69
254.835	55.12
255.051	8.02
255.268	20.31
255.484	-4.27
255.701	3.93
255.917	18.26
256.134	46.93
256.351	-14.51
256.567	20.31
256.784	8.02
257	-10.41
257.217	55.12
257.433	71.51
257.65	71.51
257.866	79.7
258.082	-32.94
258.299	51.03
258.515	22.36
258.732	16.21
258.948	40.79
259.165	-18.6
259.381	5.97
259.597	-12.46
259.814	18.26
260.03	-30.89
260.246	44.88
260.463	53.08
260.679	75.6
260.895	3.93
261.112	38.74
261.328	-14.51
261.544	5.97
261.761	100.18
261.977	24.4
262.193	-28.84
262.409	-14.51
262.626	5.97
262.842	83.8
263.058	28.5
263.274	79.7
263.49	14.17
263.707	5.97
263.923	36.69
264.139	26.45
264.355	81.75
264.571	38.74
264.787	3.93
265.004	14.17
265.22	5.97
265.436	22.36
265.652	48.98
265.868	61.27
266.084	51.03
266.3	22.36
266.516	1.88
266.732	42.84
266.948	28.5
267.164	16.21
267.38	18.26
267.596	18.26
267.812	59.22
268.028	-28.84
268.244	44.88
268.46	-63.66
268.676	-53.42
268.892	26.45
269.108	20.31
269.324	1.88
269.54	-43.18
269.756	89.94
269.972	12.12
270.188	53.08
270.403	-41.13
270.619	79.7
270.835	42.84
271.051	42.84
271.267	-2.22
271.483	42.84
271.698	89.94
271.914	61.27
272.13	14.17
272.346	-6.31
272.562	59.22
272.777	87.89
272.993	5.97
273.209	61.27
273.425	79.7
273.64	-59.56
273.856	38.74
274.072	-6.31
274.287	-30.89
274.503	61.27
274.719	-30.89
274.934	63.32
275.15	-71.85
275.366	124.76
275.581	-47.27
275.797	20.31
276.012	-34.99
276.228	-37.03
276.444	85.84
276.659	71.51
276.875	-34.99
277.09	30.55
277.306	1.88
277.521	28.5
277.737	-20.65
277.952	30.55
278.168	-20.65
278.383	-22.7
278.599	-59.56
278.814	34.64
279.03	-6.31
279.245	-18.6
279.461	20.31
279.676	96.08
279.892	-45.23
280.107	-28.84
280.322	10.07
280.538	-37.03
280.753	34.64
280.969	67.41
281.184	20.31
281.399	91.99
281.615	12.12
281.83	36.69
282.045	24.4
282.26	75.6
282.476	-80.04
282.691	116.56
282.906	34.64
283.122	-41.13
283.337	104.28
283.552	14.17
283.767	-34.99
283.983	63.32
284.198	53.08
284.413	75.6
284.628	5.97
284.843	104.28
285.058	67.41
285.274	22.36
285.489	-53.42
285.704	63.32
285.919	-18.6
286.134	-16.55
286.349	42.84
286.564	-6.31
286.779	104.28
286.995	51.03
287.21	-32.94
287.425	59.22
287.64	28.5
287.855	42.84
288.07	26.45
288.285	75.6
288.5	40.79
288.715	53.08
288.93	22.36
289.145	-12.46
289.36	124.76
289.575	102.23
289.79	42.84
290.004	42.84
290.219	18.26
290.434	-20.65
290.649	-51.37
290.864	116.56
291.079	5.97
291.294	38.74
291.509	32.6
291.724	22.36
291.938	-4.27
292.153	71.51
292.368	-39.08
292.583	67.41
292.798	44.88
293.012	116.56
293.227	26.45
293.442	61.27
293.657	14.17
293.871	85.84
294.086	42.84
294.301	91.99
294.516	48.98
294.73	22.36
294.945	-26.79
295.16	-51.37
295.374	51.03
295.589	63.32
295.804	1.88
296.018	42.84
296.233	44.88
296.447	-53.42
296.662	24.4
296.877	85.84
297.091	85.84
297.306	26.45
297.52	-14.51
297.735	65.36
297.949	24.4
298.164	71.51
298.378	1.88
298.593	1.88
298.807	-28.84
299.022	59.22
299.236	67.41
299.451	34.64
299.665	-0.17
299.88	83.8
300.094	71.51
300.309	1.88
300.523	10.07
300.737	5.97
300.952	22.36
301.166	63.32
301.381	-10.41
301.595	42.84
301.809	-0.17
302.024	22.36
302.238	-14.51
302.452	51.03
302.667	42.84
302.881	141.14
303.095	30.55
303.309	116.56
303.524	18.26
303.738	63.32
303.952	10.07
304.166	55.12
304.381	-4.27
304.595	53.08
304.809	-2.22
305.023	28.5
305.237	26.45
305.452	18.26
305.666	-49.32
305.88	18.26
306.094	24.4
306.308	22.36
306.522	67.41
306.736	28.5
306.95	26.45
307.164	-47.27
307.379	22.36
307.593	1.88
307.807	1.88
308.021	22.36
308.235	26.45
308.449	-47.27
308.663	26.45
308.877	161.62
309.091	28.5
309.305	81.75
309.519	10.07
309.733	14.17
309.947	-8.36
310.161	18.26
310.374	53.08
310.588	28.5
310.802	-22.7
311.016	-18.6
311.23	34.64
311.444	34.64
311.658	71.51
311.872	63.32
312.085	61.27
312.299	63.32
312.513	73.56
312.727	26.45
312.941	30.55
313.154	100.18
313.368	91.99
313.582	36.69
313.796	-10.41
314.009	69.46
314.223	85.84
314.437	22.36
314.651	3.93
314.864	-0.17
315.078	12.12
315.292	-10.41
315.505	-14.51
315.719	42.84
315.933	1.88
316.146	14.17
316.36	28.5
316.573	34.64
316.787	-22.7
317.001	46.93
317.214	44.88
317.428	114.52
317.641	-45.23
317.855	12.12
318.068	-6.31
318.282	42.84
318.495	63.32
318.709	79.7
318.922	8.02
319.136	77.65
319.349	124.76
319.563	24.4
319.776	38.74
319.99	-8.36
320.203	48.98
320.417	116.56
320.63	34.64
320.843	40.79
321.057	51.03
321.27	108.37
321.483	22.36
321.697	85.84
321.91	36.69
322.124	-6.31
322.337	28.5
322.55	65.36
322.763	-39.08
322.977	44.88
323.19	51.03
323.403	116.56
323.617	8.02
323.83	81.75
324.043	67.41
324.256	38.74
324.469	1.88
324.683	112.47
324.896	-22.7
325.109	1.88
325.322	18.26
325.535	34.64
325.748	69.46
325.962	-12.46
326.175	14.17
326.388	14.17
326.601	36.69
326.814	94.04
327.027	53.08
327.24	100.18
327.453	-6.31
327.666	46.93
327.879	69.46
328.092	116.56
328.305	53.08
328.518	14.17
328.731	-28.84
328.944	57.17
329.157	26.45
329.37	-18.6
329.583	67.41
329.796	157.52
330.009	10.07
330.222	59.22
330.435	100.18
330.648	36.69
330.861	89.94
331.073	26.45
331.286	67.41
331.499	46.93
331.712	10.07
331.925	85.84
332.138	83.8
332.35	108.37
332.563	14.17
332.776	53.08
332.989	24.4
333.202	-26.79
333.414	42.84
333.627	91.99
333.84	38.74
334.053	65.36
334.265	42.84
334.478	-2.22
334.691	71.51
334.903	48.98
335.116	10.07
335.329	10.07
335.541	42.84
335.754	153.43
335.966	26.45
336.179	-22.7
336.392	10.07
336.604	26.45
336.817	-2.22
337.029	46.93
337.242	10.07
337.454	116.56
337.667	20.31
337.88	75.6
338.092	79.7
338.305	-39.08
338.517	-20.65
338.729	53.08
338.942	34.64
339.154	-73.9
339.367	91.99
339.579	112.47
339.792	10.07
340.004	57.17
340.217	-16.55
340.429	100.18
340.641	48.98
340.854	98.13
341.066	40.79
341.278	59.22
341.491	91.99
341.703	3.93
341.915	26.45
342.128	94.04
342.34	67.41
342.552	10.07
342.764	67.41
342.977	-20.65
343.189	-6.31
343.401	51.03
343.613	-2.22
343.826	36.69
344.038	-14.51
344.25	-14.51
344.462	30.55
344.674	42.84
344.886	28.5
345.099	128.85
345.311	59.22
345.523	46.93
345.735	-34.99
345.947	65.36
346.159	55.12
346.371	59.22
346.583	34.64
346.795	128.85
347.007	-4.27
347.219	5.97
347.431	-39.08
347.643	42.84
347.855	32.6
348.067	81.75
348.279	-14.51
348.491	51.03
348.703	55.12
348.915	-47.27
349.127	-14.51
349.339	59.22
349.551	65.36
349.763	30.55
349.975	69.46
350.187	53.08
350.399	53.08
350.61	98.13
350.822	12.12
351.034	42.84
351.246	20.31
351.458	53.08
351.669	96.08
351.881	38.74
352.093	77.65
352.305	51.03
352.517	69.46
352.728	75.6
352.94	20.31
353.152	132.95
353.363	61.27
353.575	51.03
353.787	22.36
353.999	10.07
354.21	149.33
354.422	1.88
354.633	-10.41
354.845	8.02
355.057	75.6
355.268	59.22
355.48	-32.94
355.692	-10.41
355.903	67.41
356.115	20.31
356.326	24.4
356.538	143.19
356.749	30.55
356.961	14.17
357.172	53.08
357.384	61.27
357.595	-18.6
357.807	-10.41
358.018	18.26
358.23	-67.75
358.441	65.36
358.653	81.75
358.864	28.5
359.075	42.84
359.287	83.8
359.498	42.84
359.709	18.26
359.921	10.07
360.132	91.99
360.344	38.74
360.555	79.7
360.766	75.6
360.977	3.93
361.189	22.36
361.4	59.22
361.611	5.97
361.823	75.6
362.034	75.6
362.245	10.07
362.456	85.84
362.667	22.36
362.879	67.41
363.09	77.65
363.301	87.89
363.512	1.88
363.723	46.93
363.935	30.55
364.146	69.46
364.357	-30.89
364.568	55.12
364.779	18.26
364.99	1.88
365.201	61.27
365.412	51.03
365.623	28.5
365.834	100.18
366.045	91.99
366.256	91.99
366.467	-12.46
366.678	75.6
366.889	38.74
367.1	18.26
367.311	59.22
367.522	44.88
367.733	71.51
367.944	-20.65
368.155	94.04
368.366	73.56
368.577	34.64
368.788	149.33
368.999	83.8
369.209	18.26
369.42	149.33
369.631	20.31
369.842	65.36
370.053	42.84
370.264	44.88
370.474	10.07
370.685	63.32
370.896	36.69
371.107	77.65
371.317	36.69
371.528	1.88
371.739	65.36
371.95	44.88
372.16	96.08
372.371	14.17
372.582	44.88
372.792	100.18
373.003	-22.7
373.214	96.08
373.424	1.88
373.635	18.26
373.846	108.37
374.056	46.93
374.267	53.08
374.477	-4.27
374.688	20.31
374.898	104.28
375.109	65.36
375.319	-2.22
375.53	83.8
375.74	59.22
375.951	69.46
376.161	81.75
376.372	118.61
376.582	1.88
376.793	51.03
377.003	67.41
377.214	87.89
377.424	108.37
377.635	-10.41
377.845	69.46
378.055	34.64
378.266	-14.51
378.476	135
378.686	102.23
378.897	69.46
379.107	48.98
379.317	30.55
379.528	28.5
379.738	141.14
379.948	38.74
380.158	32.6
380.369	48.98
380.579	59.22
380.789	-4.27
380.999	42.84
381.21	42.84
381.42	116.56
381.63	-14.51
381.84	100.18
382.05	108.37
382.261	169.81
382.471	67.41
382.681	44.88
382.891	100.18
383.101	55.12
383.311	10.07
383.521	116.56
383.731	89.94
383.941	96.08
384.151	91.99
384.361	102.23
384.571	94.04
384.781	55.12
384.991	63.32
385.201	159.57
385.411	63.32
385.621	67.41
385.831	81.75
386.041	51.03
386.251	-22.7
386.461	94.04
386.671	55.12
386.881	77.65
387.091	48.98
387.301	108.37
387.511	69.46
387.72	106.32
387.93	126.8
388.14	59.22
388.35	14.17
388.56	53.08
388.769	130.9
388.979	100.18
389.189	44.88
389.399	53.08
389.609	116.56
389.818	65.36
390.028	75.6
390.238	1.88
390.447	59.22
390.657	108.37
390.867	3.93
391.076	18.26
391.286	38.74
391.496	34.64
391.705	18.26
391.915	110.42
392.125	36.69
392.334	51.03
392.544	110.42
392.753	149.33
392.963	12.12
393.172	149.33
393.382	34.64
393.591	194.39
393.801	57.17
394.01	96.08
394.22	157.52
394.429	126.8
394.639	85.84
394.848	91.99
395.058	159.57
395.267	130.9
395.477	108.37
395.686	110.42
395.895	159.57
396.105	196.43
396.314	124.76
396.524	137.04
396.733	94.04
396.942	104.28
397.152	116.56
397.361	163.67
397.57	91.99
397.78	116.56
397.989	104.28
398.198	214.87
398.407	145.24
398.617	32.6
398.826	167.76
399.035	73.56
399.244	63.32
399.453	116.56
399.663	96.08
399.872	132.95
400.081	157.52
400.29	186.19
400.499	85.84
400.708	173.91
400.917	102.23
401.127	190.29
401.336	178
401.545	225.11
401.754	124.76
401.963	167.76
402.172	87.89
402.381	147.28
402.59	116.56
402.799	116.56
403.008	175.95
403.217	106.32
403.426	200.53
403.635	141.14
403.844	69.46
404.053	167.76
404.262	145.24
404.471	231.25
404.68	173.91
404.888	71.51
405.097	167.76
405.306	161.62
405.515	247.63
405.724	233.3
405.933	198.48
406.142	272.21
406.35	202.58
406.559	165.71
406.768	278.35
406.977	223.06
407.185	178
407.394	247.63
407.603	247.63
407.812	290.64
408.02	329.55
408.229	370.51
408.438	335.7
408.646	241.49
408.855	333.65
409.064	378.7
409.272	255.83
409.481	335.7
409.69	395.09
409.898	360.27
410.107	407.38
410.315	444.24
410.524	397.14
410.733	427.85
410.941	378.7
411.15	485.2
411.358	470.86
411.567	542.54
411.775	460.62
411.984	522.06
412.192	612.17
412.401	608.08
412.609	642.89
412.818	708.43
413.026	628.56
413.234	608.08
413.443	737.1
413.651	704.33
413.86	769.87
414.068	796.49
414.276	780.11
414.485	804.68
414.693	796.49
414.901	931.66
415.11	952.13
415.318	886.6
415.526	991.05
415.734	991.05
415.943	1023.81
416.151	1083.2
416.359	1052.49
416.567	1158.98
416.776	1199.94
416.984	1279.81
417.192	1365.82
417.4	1304.39
417.608	1304.39
417.817	1384.26
418.025	1496.89
418.233	1478.46
418.441	1519.42
418.649	1460.03
418.857	1730.36
419.065	1836.86
419.273	1738.55
419.481	1742.65
419.689	1998.65
419.897	2033.46
420.105	1978.17
420.313	2168.63
420.521	2150.2
420.729	2156.34
420.937	2324.27
421.145	2305.84
421.353	2373.43
421.561	2664.24
421.769	2576.17
421.977	2705.2
422.185	2844.46
422.393	2909.99
422.601	3051.3
422.809	3180.32
423.017	3229.48
423.224	3184.42
423.432	3372.83
423.64	3290.92
423.848	3712.8
424.056	3653.41
424.263	3944.22
424.471	3905.31
424.679	4028.18
424.887	4142.87
425.094	4212.5
425.302	4212.5
425.51	4458.26
425.718	4620.05
425.925	4681.49
426.133	4847.37
426.341	5129.99
426.548	5228.29
426.756	5314.31
426.964	5304.07
427.171	5584.64
427.379	5951.23
427.586	6024.95
427.794	6065.91
428.001	6405.88
428.209	6637.3
428.417	6606.58
428.624	7007.98
428.832	7063.27
429.039	6964.97
429.247	7030.51
429.454	7571.17
429.662	8222.42
429.869	7526.11
430.076	8220.38
430.284	7866.08
430.491	8244.95
430.699	8746.7
430.906	8779.47
431.114	8775.38
431.321	9086.67
431.528	9422.53
431.736	9918.14
431.943	10292.92
432.15	10096.32
432.358	10284.73
432.565	10757.81
432.772	10962.61
432.979	11130.54
433.187	11376.3
433.394	11511.46
433.601	12242.59
433.808	12519.06
434.016	12390.04
434.223	12549.78
434.43	13528.71
434.637	13002.38
434.844	13852.29
435.052	14290.56
435.259	14313.08
435.466	14343.8
435.673	14204.54
435.88	14997.1
436.087	15855.2
436.294	15804
436.501	15478.38
436.708	15642.21
436.915	16328.28
437.122	17077.84
437.329	17153.62
437.537	17817.16
437.743	17612.36
437.95	17616.46
438.157	18753.08
438.364	18959.92
438.571	19228.21
438.778	19314.22
438.985	20901.4
439.192	20139.55
439.399	20758.04
439.606	20500
439.813	21663.24
440.02	22771.19
440.227	22564.35
440.433	21939.72
440.64	22830.58
440.847	22621.69
441.054	23297.52
441.261	24761.82
441.467	24473.06
441.674	24866.27
441.881	26019.27
442.088	25994.7
442.294	25578.96
442.501	26326.47
442.708	26883.52
442.914	28048.81
443.121	28865.95
443.328	28079.53
443.534	29820.3
443.741	28960.16
443.948	28861.85
444.154	31167.87
444.361	30860.67
444.568	31012.22
444.774	30932.35
444.981	31128.95
445.187	32306.54
445.394	33676.63
445.6	33037.66
445.807	36255.02
446.013	34475.34
446.22	35274.04
446.426	37006.62
446.633	36918.56
446.839	38464.78
447.046	36420.91
447.252	38673.67
447.459	38761.73
447.665	38702.34
447.871	40434.92
448.078	41968.85
448.284	39531.77
448.491	41309.41
448.697	42122.45
448.903	43553.98
449.11	43472.06
449.316	43035.84
449.522	43457.73
449.728	44786.86
449.935	44842.15
450.141	45083.81
450.347	45649.05
450.553	44188.85
450.76	44864.68
450.966	46337.17
451.172	45841.56
451.378	47111.3
451.584	46333.07
451.791	47266.95
451.997	47131.78
452.203	47799.42
452.409	48149.62
452.615	47197.32
452.821	46259.35
453.027	45440.16
453.233	47860.86
453.44	45935.77
453.646	46363.79
453.852	46234.77
454.058	47287.43
454.264	45427.87
454.47	46806.16
454.676	45657.24
454.882	46922.89
455.088	43195.59
455.294	44045.49
455.5	44457.13
455.705	44393.65
455.911	43021.51
456.117	42357.97
456.323	41868.5
456.529	39384.32
456.735	41286.88
456.941	40250.61
457.147	39542.01
457.352	38128.91
457.558	38124.82
457.764	37616.92
457.97	37324.06
458.176	36480.3
458.381	36703.53
458.587	34688.32
458.793	34579.78
458.999	32972.13
459.204	35177.79
459.41	34610.5
459.616	32146.79
459.821	31757.68
460.027	32062.83
460.233	31069.56
460.438	29910.41
460.644	29613.46
460.85	28609.95
461.055	28290.47
461.261	28523.94
461.466	25945.55
461.672	25048.54
461.878	26721.73
462.083	25159.13
462.289	24677.85
462.494	24354.27
462.7	23483.89
462.905	22724.09
463.111	23469.55
463.316	23537.13
463.522	23041.53
463.727	22924.79
463.932	23010.81
464.138	22734.33
464.343	23201.27
464.549	22072.84
464.754	23115.25
464.959	22865.4
465.165	22441.47
465.37	21587.47
465.575	21038.61
465.781	21474.83
465.986	21884.42
466.191	21095.96
466.397	20669.98
466.602	19512.88
466.807	20485.66
467.012	20737.56
467.218	20545.05
467.423	20026.92
467.628	20280.86
467.833	20934.17
468.038	20141.6
468.244	19891.75
468.449	20424.22
468.654	19572.27
468.859	19342.89
469.064	19328.56
469.269	18910.77
469.474	18984.5
469.679	19312.17
469.885	18544.19
470.09	18898.48
470.295	18335.29
470.5	18087.49
470.705	18359.87
470.91	17983.04
471.115	17471.05
471.32	18206.27
471.525	17813.06
471.73	17659.46
471.935	17282.64
472.139	16784.98
472.344	17034.83
472.549	17032.79
472.754	16907.86
472.959	16373.34
473.164	16053.86
473.369	15957.6
473.574	16393.82
473.778	16516.7
473.983	15992.42
474.188	16062.05
474.393	15357.55
474.598	15451.75
474.802	15296.11
475.007	14970.48
475.212	15238.76
475.417	14487.16
475.621	14716.53
475.826	14718.58
476.031	14161.53
476.235	14169.73
476.44	14351.99
476.645	13696.64
476.849	14108.29
477.054	13667.97
477.259	13592.2
477.463	13602.44
477.668	13313.67
477.872	13518.47
478.077	13315.72
478.282	13149.84
478.486	12947.09
478.691	12656.28
478.895	12709.52
479.1	12660.37
479.304	12631.7
479.509	12250.78
479.713	12486.29
479.918	12224.15
480.122	12043.93
480.326	12226.2
480.531	12277.4
480.735	12056.22
480.94	12019.36
481.144	12209.82
481.348	11759.27
481.553	11906.72
481.757	11775.65
481.961	11927.2
482.166	12191.39
482.37	11916.96
482.574	11652.77
482.778	11691.68
482.983	11816.61
483.187	11675.3
483.391	11800.23
483.595	11679.4
483.8	11349.67
484.004	11720.35
484.208	11636.39
484.412	11673.25
484.616	11564.71
484.821	11777.7
485.025	11462.31
485.229	11751.07
485.433	11658.92
485.637	11640.48
485.841	11593.38
486.045	11478.69
486.249	11466.41
486.453	11646.63
486.657	11996.83
486.861	11636.39
487.065	11441.83
487.269	11556.52
487.473	11470.5
487.677	11624.1
487.881	11830.94
488.085	11443.88
488.289	11536.04
488.493	11689.63
488.697	11781.79
488.901	11753.12
489.105	11710.11
489.309	11617.96
489.512	11708.07
489.716	11816.61
489.92	11767.46
490.124	11587.24
490.328	11966.11
490.531	11792.03
490.735	11767.46
490.939	11925.15
491.143	11675.3
491.346	11744.93
491.55	11816.61
491.754	11896.48
491.958	11912.86
492.161	11916.96
492.365	12291.74
492.569	12082.84
492.772	12136.09
492.976	12312.22
493.18	12234.39
493.383	12310.17
493.587	12242.59
493.79	12560.02
493.994	12306.07
494.197	12367.51
494.401	12805.78
494.605	12416.66
494.808	12897.94
495.012	13088.4
495.215	12854.93
495.419	12965.52
495.622	13211.28
495.825	13133.45
496.029	13039.25
496.232	13381.26
496.436	13532.81
496.639	13631.11
496.843	13643.4
497.046	14007.94
497.249	13913.73
497.453	14050.94
497.656	14169.73
497.859	14184.06
498.063	14397.05
498.266	14583.41
498.469	14644.85
498.673	14694.01
498.876	14593.65
499.079	15013.49
499.282	15236.72
499.485	15668.84
499.689	15398.51
499.892	15717.99
500.095	15699.56
500.298	16027.23
500.501	15928.93
500.705	16043.62
500.908	16576.09
501.111	16739.93
501.314	17030.74
501.517	16934.48
501.72	16934.48
501.923	16901.72
502.126	17503.82
502.329	17501.77
502.532	17798.73
502.735	17851.97
502.938	18382.4
503.141	18265.66
503.344	18855.48
503.547	18607.67
503.75	18886.2
503.953	19121.71
504.156	19297.84
504.359	19279.41
504.562	19404.33
504.765	19846.69
504.968	20041.25
505.17	20223.52
505.373	20205.09
505.576	20784.66
505.779	20885.01
505.982	20966.93
506.185	21388.81
506.387	21108.24
506.59	21743.11
506.793	21976.58
506.996	21865.99
507.198	22691.32
507.401	22529.53
507.604	22742.52
507.807	22937.08
508.009	23102.96
508.212	23723.5
508.415	23879.14
508.617	24221.16
508.82	23971.3
509.022	23952.87
509.225	24522.21
509.428	24866.27
509.63	25161.17
509.833	24882.65
510.035	25834.96
510.238	25841.1
510.44	25918.92
510.643	26168.77
510.845	26283.46
511.048	26367.43
511.25	26707.39
511.453	26869.18
511.655	28200.36
511.858	27684.27
512.06	27940.27
512.262	27977.13
512.465	28009.9
512.667	28339.62
512.87	28958.11
513.072	28958.11
513.274	29224.34
513.477	29767.06
513.679	29918.6
513.881	30076.3
514.084	30246.28
514.286	30348.68
514.488	30836.09
514.69	31946.09
514.893	31378.81
515.095	31591.8
515.297	31710.58
515.499	31964.53
515.701	32220.52
515.904	32877.92
516.106	32791.9
516.308	33248.6
516.51	33760.59
516.712	33459.54
516.914	34071.89
517.116	34569.54
517.318	34364.74
517.52	34377.03
517.722	34774.34
517.925	35298.62
518.127	35456.31
518.329	35605.81
518.531	35448.12
518.733	36183.34
518.935	36185.39
519.136	36314.41
519.338	37299.48
519.54	37147.93
519.742	37113.12
519.944	37807.38
520.146	37829.91
520.348	38161.68
520.55	38335.76
520.752	38157.58
520.954	39034.11
521.155	38630.66
521.357	39195.9
521.559	39269.63
521.761	39744.76
521.963	39331.07
522.164	39795.96
522.366	39695.61
522.568	40013.04
522.77	40482.03
522.971	40901.86
523.173	40541.42
523.375	41053.41
523.576	40955.11
523.778	41049.31
523.98	41704.66
524.181	41675.99
524.383	41637.08
524.584	42155.22
524.786	42136.79
524.988	41692.38
525.189	42505.42
525.391	42474.7
525.592	42362.06
525.794	42501.32
525.995	42519.76
526.197	42667.21
526.398	42843.34
526.6	43164.87
526.801	42869.96
527.003	43359.42
527.204	43177.15
527.406	43226.31
527.607	43566.27
527.808	43513.02
528.01	42403.02
528.211	43234.5
528.412	43848.89
528.614	43721.91
528.815	43601.08
529.016	44258.48
529.218	43560.12
529.419	43594.94
529.62	43349.18
529.822	43734.2
530.023	43553.98
530.224	43570.36
530.425	43420.86
530.626	43207.87
530.828	42939.59
531.029	43676.86
531.23	43519.17
531.431	43734.2
531.632	43738.3
531.833	43517.12
532.035	43394.24
532.236	43427.01
532.437	43666.62
532.638	43285.7
532.839	43517.12
533.04	43809.98
533.241	42998.98
533.442	43719.87
533.643	43271.36
533.844	43623.61
534.045	43242.69
534.246	42581.2
534.447	43265.22
534.648	43254.98
534.849	43490.49
535.05	42800.33
535.251	42937.54
535.451	42863.82
535.652	43099.33
535.853	42986.69
536.054	43152.58
536.255	42974.41
536.456	42464.46
536.657	43250.88
536.857	42636.49
537.058	42456.27
537.259	43242.69
537.46	42910.92
537.66	42298.58
537.861	42626.25
538.062	42964.17
538.263	42222.8
538.463	42280.14
538.664	42456.27
538.865	42411.21
539.065	42718.41
539.266	42335.44
539.466	42927.3
539.667	42147.03
539.868	42521.8
540.068	42106.07
540.269	42122.45
540.469	42411.21
540.67	41966.8
540.87	42050.77
541.071	42251.47
541.271	41999.57
541.472	41878.74
541.672	42310.86
541.873	41780.44
542.073	41172.19
542.274	42155.22
542.474	41954.52
542.675	41473.24
542.875	42101.97
543.075	41884.89
543.276	41303.26
543.476	42065.11
543.676	41833.69
543.877	42116.31
544.077	41710.81
544.277	41409.76
544.478	41794.78
544.678	41745.62
544.878	41888.98
545.078	41536.73
545.279	41120.99
545.479	41497.82
545.679	41632.99
545.879	41446.62
546.079	41381.09
546.28	41915.61
546.48	41137.38
546.68	41551.07
546.88	41514.2
547.08	41420
547.28	41290.98
547.48	40824.04
547.68	41708.76
547.88	41123.04
548.081	41714.9
548.281	41084.13
548.481	41333.98
548.681	41559.26
548.881	41778.39
549.081	41501.92
549.28	41192.67
549.48	41628.89
549.68	41553.12
549.88	41716.95
550.08	41225.44
550.28	41561.31
550.48	41180.38
550.68	41624.79
550.88	41123.04
551.08	41450.72
551.279	41743.58
551.479	41022.69
551.679	41587.93
551.879	41120.99
552.079	41503.96
552.278	41944.28
552.478	41686.23
552.678	41241.82
552.878	41766.1
553.077	41555.16
553.277	41555.16
553.477	41999.57
553.676	41479.39
553.876	41651.42
554.076	41530.59
554.275	41819.35
554.475	41180.38
554.674	41645.27
554.874	41663.71
555.074	41532.64
555.273	41784.54
555.473	41870.55
555.672	41061.6
555.872	41534.68
556.071	41712.86
556.271	41841.88
556.47	41772.25
556.67	41589.98
556.869	41751.77
557.068	41647.32
557.268	41512.16
557.467	41800.92
557.667	41729.24
557.866	41741.53
558.065	41893.08
558.265	41802.97
558.464	41626.84
558.663	42144.98
558.863	41807.06
559.062	41848.02
559.261	41020.64
559.461	42038.48
559.66	41096.42
559.859	41518.3
560.058	41342.17
560.258	41512.16
560.457	41364.7
560.656	41350.37
560.855	41538.78
561.054	41489.63
561.253	41583.83
561.453	41544.92
561.652	41508.06
561.851	41467.1
562.05	41389.28
562.249	41452.76
562.448	41579.74
562.647	41321.69
562.846	41346.27
563.045	41295.07
563.244	41297.12
563.443	41774.3
563.642	40848.61
563.841	41397.47
564.04	41192.67
564.239	41831.64
564.438	40776.94
564.637	41243.87
564.836	41286.88
565.035	40832.23
565.234	41120.99
565.432	40643.82
565.631	40856.81
565.83	41026.79
566.029	40498.41
566.228	40443.12
566.427	40725.74
566.625	40604.91
566.824	40418.54
567.023	40844.52
567.222	39787.77
567.42	40623.34
567.619	40348.91
567.818	40289.52
568.016	40191.22
568.215	40621.29
568.414	40094.96
568.612	40469.74
568.811	39922.93
569.01	40074.48
569.208	39632.12
569.407	40049.91
569.605	39562.49
569.804	39877.88
570.002	39851.25
570.201	39953.65
570.4	39621.88
570.598	38948.1
570.797	39267.58
570.995	39204.1
571.193	38493.45
571.392	39095.55
571.59	39019.78
571.789	38876.42
571.987	38806.79
572.186	38706.44
572.384	38540.55
572.582	38438.15
572.781	38741.25
572.979	38366.48
573.177	38845.7
573.376	38669.58
573.574	38102.29
573.772	38309.13
573.971	38227.21
574.169	38094.1
574.367	37997.84
574.565	38044.94
574.763	37610.78
574.962	37518.62
575.16	37104.93
575.358	37477.66
575.556	37117.21
575.754	37463.32
575.952	37051.68
576.151	37188.89
576.349	36767.01
576.547	36635.94
576.745	36803.88
576.943	36785.44
577.141	36969.76
577.339	36539.69
577.537	36248.88
577.735	36578.6
577.933	36425
578.131	36203.82
578.329	36164.91
578.527	35484.98
578.725	35788.08
578.923	36175.15
579.121	35687.73
579.319	35462.46
579.516	36015.41
579.714	35788.08
579.912	35157.31
580.11	35419.45
580.308	35304.76
580.506	35085.63
580.704	34612.55
580.901	34893.12
581.099	35087.68
581.297	35243.32
581.495	34399.56
581.692	34735.43
581.89	34493.77
582.088	34618.69
582.285	34377.03
582.483	34762.05
582.681	34493.77
582.878	34393.42
583.076	33746.26
583.274	34342.22
583.471	33973.58
583.669	34030.93
583.866	33228.12
584.064	33979.73
584.262	33428.82
584.459	33733.97
584.657	33543.51
584.854	33910.1
585.052	33123.68
585.249	33004.89
585.447	33082.72
585.644	32718.18
585.841	33037.66
586.039	33316.18
586.236	32955.74
586.434	32961.89
586.631	32316.78
586.828	32806.24
587.026	32808.29
587.223	32468.33
587.42	32646.5
587.618	32750.95
587.815	32257.39
588.012	32134.51
588.21	32071.02
588.407	32261.48
588.604	32118.12
588.801	32077.16
588.999	31759.73
589.196	31835.5
589.393	31872.37
589.59	31534.45
589.787	31139.19
589.984	31516.02
590.182	31069.56
590.379	31135.1
590.576	31124.86
590.773	31270.26
590.97	30791.04
591.167	31098.23
591.364	30877.05
591.561	31260.02
591.758	30903.68
591.955	30778.75
592.152	30918.01
592.349	30363.01
592.546	30700.93
592.743	30844.29
592.94	30307.72
593.137	30561.67
593.334	30725.5
593.531	30369.16
593.727	30436.74
593.924	30524.8
594.121	30002.57
594.318	30236.04
594.515	29633.94
594.712	30373.25
594.908	29967.76
595.105	30168.46
595.302	29828.49
595.499	29869.45
595.696	29765.01
595.892	29576.59
596.089	29955.47
596.286	30332.29
596.482	29789.58
596.679	29887.89
596.876	29738.38
597.072	29660.56
597.269	29539.73
597.466	29566.35
597.662	29253.01
597.859	29840.78
598.055	29523.35
598.252	29220.25
598.448	29265.3
598.645	29267.35
598.841	29205.91
599.038	29304.21
599.234	29238.68
599.431	29181.34
599.627	28917.15
599.824	29449.62
600.02	29128.09
600.217	29195.67
600.413	29072.79
600.609	29123.99
600.806	29003.16
601.002	28974.49
601.198	28999.07
601.395	28968.35
601.591	29171.1
601.787	29148.57
601.984	28798.37
602.18	29064.6
602.376	28964.25
602.572	29162.9
602.769	29167
602.965	28626.34
603.161	29042.07
603.357	28835.23
603.553	28759.45
603.75	29029.79
603.946	28554.66
604.142	29308.31
604.338	28521.89
604.534	29052.31
604.73	28663.2
604.926	28835.23
605.122	29083.03
605.318	28564.9
605.514	28908.96
605.71	28745.12
605.906	29007.26
606.102	28689.82
606.298	29099.42
606.494	28915.1
606.69	28986.78
606.886	28986.78
607.082	28460.45
607.278	29126.04
607.474	28659.1
607.67	28716.45
607.866	28749.21
608.062	28812.7
608.257	28962.2
608.453	29005.21
608.649	29289.88
608.845	28970.4
609.041	29167
609.236	29298.07
609.432	29191.58
609.628	29435.28
609.824	29326.74
610.019	29003.16
610.215	29212.06
610.411	29123.99
610.606	29265.3
610.802	29179.29
610.998	29353.37
611.193	29001.11
611.389	28941.72
611.584	28921.24
611.78	29261.21
611.976	29330.84
612.171	28855.71
612.367	29400.47
612.562	29146.52
612.758	29023.64
612.953	28734.88
613.149	29556.11
613.344	29263.25
613.539	29853.07
613.735	29263.25
613.93	29271.45
614.126	29187.48
614.321	29625.75
614.517	29441.43
614.712	29205.91
614.907	29517.2
615.103	29324.69
615.298	29187.48
615.493	29787.53
615.688	29310.36
615.884	29447.57
616.079	29087.13
616.274	29277.59
616.47	29373.85
616.665	29287.83
616.86	29042.07
617.055	29666.7
617.25	29060.51
617.445	29459.86
617.641	28757.41
617.836	29459.86
618.031	28601.76
618.226	29552.02
618.421	29064.6
618.616	29113.75
618.811	28612
619.006	29343.13
619.201	28423.59
619.396	29009.31
619.591	28208.55
619.786	28947.87
619.981	28368.29
620.176	28499.36
620.371	28038.57
620.566	28640.67
620.761	27997.61
620.956	28337.57
621.151	27921.84
621.346	28134.82
621.541	27450.8
621.735	27798.96
621.93	27057.59
622.125	27559.34
622.32	27258.29
622.515	27540.91
622.709	27028.92
622.904	27157.94
623.099	26844.6
623.294	26996.15
623.488	26645.95
623.683	26740.16
623.878	26107.33
624.072	26725.82
624.267	26381.76
624.462	26162.63
624.656	25843.15
624.851	25859.53
625.046	26035.66
625.24	25730.51
625.435	25079.25
625.629	25675.21
625.824	25331.15
626.018	25327.06
626.213	24837.59
626.407	24907.23
626.602	24919.51
626.796	24735.2
626.991	24894.94
627.185	24333.79
627.38	24774.11
627.574	24124.9
627.768	24331.75
627.963	24004.07
628.157	23905.77
628.352	23999.98
628.546	23428.59
628.74	24008.17
628.935	23238.13
629.129	23746.03
629.323	22943.22
629.517	23252.47
629.712	23369.2
629.906	23129.59
630.1	22595.07
630.294	22871.54
630.489	22595.07
630.683	22750.71
630.877	22416.9
631.071	22199.81
631.265	22644.22
631.459	21949.96
631.653	22111.75
631.848	21825.03
632.042	21632.52
632.236	21589.52
632.43	21575.18
632.624	21763.59
632.818	21491.21
633.012	20999.7
633.206	21177.87
633.4	21263.89
633.594	20743.7
633.788	21241.36
633.982	20807.19
634.176	20813.34
634.369	20547.1
634.563	20393.5
634.757	20442.65
634.951	20373.02
635.145	20385.31
635.339	20303.39
635.533	19854.89
635.726	19871.27
635.92	19656.23
636.114	19785.26
636.308	19476.01
636.501	19324.46
636.695	19514.92
636.889	19113.52
637.083	19365.42
637.276	19050.03
637.47	18814.52
637.664	19021.36
637.857	18648.63
638.051	18810.42
638.244	18402.88
638.438	18503.23
638.632	18468.41
638.825	18118.21
639.019	18157.12
639.212	18126.4
639.406	18208.32
639.599	17839.69
639.793	17870.4
639.986	17663.56
640.18	17555.02
640.373	17192.53
640.567	17172.05
640.76	17299.02
640.954	17311.31
641.147	16813.65
641.34	16959.06
641.534	16868.95
641.727	16924.24
641.92	16832.08
642.114	16500.31
642.307	16459.35
642.5	16285.28
642.694	16062.05
642.887	16098.91
643.08	16197.21
643.273	15918.69
643.467	16098.91
643.66	15670.89
643.853	15885.92
644.046	15451.75
644.239	15750.76
644.432	15345.26
644.626	15605.35
644.819	15050.35
645.012	15275.63
645.205	15124.08
645.398	15011.44
645.591	14880.37
645.784	14976.62
645.977	14646.9
646.17	14814.84
646.363	14521.98
646.556	14407.29
646.749	14460.54
646.942	14452.34
647.135	13993.6
647.328	14206.59
647.521	14122.62
647.714	14022.27
647.907	14102.14
648.099	13829.76
648.292	13878.91
648.485	13629.06
648.678	13538.95
648.871	13491.85
649.064	13438.6
649.256	13479.56
649.449	13186.7
649.642	13059.73
649.835	13108.88
650.027	13198.99
650.22	13051.53
650.413	12916.37
650.605	12897.94
650.798	12752.53
650.991	12459.67
651.183	12736.15
651.376	12662.42
651.568	12582.55
651.761	12271.26
651.954	12482.2
652.146	12271.26
652.339	12541.59
652.531	12234.39
652.724	12355.22
652.916	11927.2
653.109	12150.43
653.301	12146.33
653.494	12002.97
653.686	11679.4
653.879	11962.01
654.071	11464.36
654.263	11517.61
654.456	11677.35
654.648	11642.53
654.84	11480.74
655.033	11343.53
655.225	11380.39
655.417	11380.39
655.61	11290.28
655.802	11159.21
655.994	11085.48
656.186	10983.09
656.379	10884.78
656.571	11007.66
656.763	10661.55
656.955	10624.69
657.148	10948.27
657.34	10733.23
657.532	10571.44
657.724	10415.8
657.916	10483.38
658.108	10436.28
658.3	10442.42
658.492	10356.41
658.684	10292.92
658.876	10501.81
659.068	9993.92
659.26	9897.66
659.452	10081.98
659.644	9864.89
659.836	9942.72
660.028	9821.89
660.22	9766.59
660.412	9862.85
660.604	9619.14
660.796	9782.98
660.988	9641.67
661.18	9594.56
661.372	9443.01
661.563	9438.92
661.755	9346.76
661.947	9385.67
662.139	9367.24
662.331	9115.34
662.522	9127.63
662.714	8996.56
662.906	8855.25
663.097	8943.31
663.289	8949.45
663.481	8851.15
663.673	8830.67
663.864	8652.5
664.056	8689.36
664.247	8703.7
664.439	8525.52
664.631	8681.17
664.822	8623.83
665.014	8441.56
665.205	8550.1
665.397	8349.4
665.588	8494.8
665.78	8453.84
665.971	8410.84
666.163	8144.6
666.354	8208.09
666.546	8120.03
666.737	8011.48
666.929	8105.69
667.12	8017.63
667.311	8107.74
667.503	7948
667.694	8099.55
667.885	7687.9
668.077	7943.9
668.268	7829.21
668.459	7735.01
668.651	7759.58
668.842	7753.44
669.033	7587.55
669.224	7601.89
669.416	7694.05
669.607	7646.94
669.798	7390.95
669.989	7333.61
670.18	7349.99
670.371	7331.56
670.563	7139.05
670.754	7231.21
670.945	7184.1
671.136	7325.41
671.327	7163.62
671.518	7327.46
671.709	7247.59
671.9	7081.71
672.091	7280.36
672.282	7069.42
672.473	6938.35
672.664	7126.76
672.855	6997.74
673.046	6792.94
673.237	6958.83
673.428	6899.44
673.619	6981.35
673.809	6786.8
674	7106.28
674.191	6842.09
674.382	6809.33
674.573	6645.49
674.764	6719.21
674.954	6686.45
675.145	6680.3
675.336	6756.08
675.527	6655.73
675.717	6678.26
675.908	6663.92
676.099	6608.62
676.289	6608.62
676.48	6524.66
676.671	6506.23
676.861	6477.55
677.052	6432.5
677.243	6428.4
677.433	6229.75
677.624	6561.52
677.814	6412.02
678.005	6387.44
678.195	6432.5
678.386	6493.94
678.576	6262.52
678.767	6211.32
678.957	6227.7
679.148	6168.31
679.338	6295.29
679.529	6221.56
679.719	6149.88
679.909	6313.72
680.1	6151.93
680.29	6160.12
680.481	6180.6
680.671	6139.64
680.861	6061.82
681.052	6080.25
681.242	6127.35
681.432	6201.08
681.622	5926.65
681.813	6057.72
682.003	6051.58
682.193	6055.67
682.383	6098.68
682.573	5885.69
682.764	5850.88
682.954	5992.19
683.144	6035.19
683.334	5949.18
683.524	6047.48
683.714	5793.53
683.904	5863.16
684.094	5904.12
684.284	5850.88
684.474	5891.84
684.664	5902.08
684.854	5793.53
685.044	5764.86
685.234	5779.2
685.424	5865.21
685.614	5803.77
685.804	5746.43
685.994	5678.85
686.184	5660.41
686.374	5732.09
686.564	5914.36
686.753	5666.56
686.943	5818.11
687.133	5560.06
687.323	5588.74
687.513	5687.04
687.702	5689.09
687.892	5541.63
688.082	5494.53
688.272	5707.52
688.461	5443.33
688.651	5588.74
688.841	5519.11
689.03	5648.13
689.22	5263.11
689.41	5426.95
689.599	5523.2
689.789	5310.21
689.979	5347.08
690.168	5367.56
690.358	5281.54
690.547	5441.28
690.737	5412.61
690.926	5326.6
691.116	5236.49
691.305	5285.64
691.495	5113.61
691.684	5228.29
691.874	5328.64
692.063	5048.07
692.252	5314.31
692.442	5269.25
692.631	5154.57
692.82	5189.38
693.01	5091.08
693.199	5099.27
693.388	4968.2
693.578	5033.74
693.767	5158.66
693.956	5029.64
694.146	5054.22
694.335	4992.78
694.524	5058.31
694.713	4990.73
694.902	5027.59
695.092	4986.63
695.281	4986.63
695.47	4876.04
695.659	4960.01
695.848	4925.19
696.037	4847.37
696.226	4728.59
696.415	4759.31
696.604	4826.89
696.793	4738.83
696.982	4763.4
697.171	4828.94
697.36	4697.87
697.549	4830.99
697.738	4691.73
697.927	4699.92
698.116	4781.84
698.305	4656.91
698.494	4726.54
698.683	4591.38
698.872	4697.87
699.061	4618
699.25	4550.42
699.438	4699.92
699.627	4583.18
699.816	4589.33
700.005	4658.96
700.193	4613.9
700.382	4609.81
700.571	4396.82
700.76	4413.2
700.948	4550.42
701.137	4503.31
701.326	4501.26
701.514	4405.01
701.703	4370.19
701.892	4409.11
702.08	4531.98
702.269	4450.07
702.457	4335.38
702.646	4405.01
702.834	4431.63
703.023	4327.19
703.212	4372.24
703.4	4155.16
703.589	4302.61
703.777	4335.38
703.965	4239.12
704.154	4290.32
704.342	4284.18
704.531	4120.34
704.719	4146.97
704.907	4177.69
705.096	4065.05
705.284	4239.12
705.472	4183.83
705.661	4110.1
705.849	4138.77
706.037	4146.97
706.226	3983.13
706.414	4081.43
706.602	4146.97
706.79	4056.86
706.979	4056.86
707.167	3995.42
707.355	4058.9
707.543	4013.85
707.731	4075.29
707.919	3933.98
708.107	3989.27
708.296	3964.7
708.484	3714.84
708.672	3790.62
708.86	3876.63
709.048	3893.02
709.236	3893.02
709.424	3839.77
709.612	3790.62
709.8	3735.32
709.988	3835.67
710.176	3778.33
710.364	3735.32
710.551	3870.49
710.739	3739.42
710.927	3774.24
711.115	3737.37
711.303	3753.76
711.491	3901.21
711.679	3639.07
711.866	3688.22
712.054	3790.62
712.242	3624.73
712.43	3673.89
712.617	3604.25
712.805	3784.48
712.993	3618.59
713.181	3458.85
713.368	3600.16
713.556	3585.82
713.744	3540.77
713.931	3657.5
714.119	3581.73
714.306	3516.19
714.494	3639.07
714.682	3557.15
714.869	3524.38
715.057	3518.24
715.244	3487.52
715.432	3479.33
715.619	3559.2
715.807	3327.78
715.994	3448.61
716.182	3428.13
716.369	3434.27
716.556	3426.08
716.744	3319.59
716.931	3346.21
717.119	3383.07
717.306	3389.22
717.493	3264.29
717.681	3311.39
717.868	3335.97
718.055	3360.55
718.242	3385.12
718.43	3163.94
718.617	3338.02
718.804	3073.83
718.991	3262.24
719.179	3278.63
719.366	3159.85
719.553	3213.09
719.74	3231.52
719.927	3098.41
720.114	3198.76
720.301	3157.8
720.488	3073.83
720.676	3200.8
720.863	3065.64
721.05	3163.94
721.237	3082.02
721.424	3270.44
721.611	3090.21
721.798	3014.44
721.985	3065.64
722.172	3075.88
722.358	3069.73
722.545	3002.15
722.732	3213.09
722.919	3018.54
723.106	3067.69
723.293	2955.05
723.48	2983.72
723.667	3045.16
723.853	2879.27
724.04	3131.17
724.227	2940.71
724.414	2969.38
724.6	2795.31
724.787	2967.34
724.974	2967.34
725.161	2948.9
725.347	2955.05
725.534	2811.69
725.72	2934.57
725.907	2912.04
726.094	2983.72
726.28	2813.74
726.467	2740.01
726.653	2821.93
726.84	2869.03
727.027	2916.14
727.213	2731.82
727.4	2787.11
727.586	2809.64
727.773	2705.2
727.959	2864.94
728.145	2692.91
728.332	2680.62
728.518	2778.92
728.705	2727.72
728.891	2625.33
729.077	2737.96
729.264	2721.58
729.45	2705.2
729.636	2762.54
729.823	2699.05
730.009	2697
730.195	2731.82
730.382	2742.06
730.568	2623.28
730.754	2690.86
730.94	2604.85
731.126	2674.48
731.313	2713.39
731.499	2631.47
731.685	2592.56
731.871	2615.09
732.057	2694.96
732.243	2641.71
732.429	2531.12
732.615	2516.78
732.801	2539.31
732.987	2598.7
733.173	2598.7
733.359	2477.87
733.545	2471.73
733.731	2479.92
733.917	2559.79
734.103	2527.02
734.289	2549.55
734.475	2418.48
734.661	2434.86
734.847	2408.24
735.033	2516.78
735.219	2531.12
735.404	2434.86
735.59	2473.78
735.776	2486.06
735.962	2608.94
736.148	2574.13
736.333	2455.34
736.519	2520.88
736.705	2469.68
736.89	2326.32
737.076	2332.47
737.262	2322.23
737.447	2398
737.633	2475.82
737.819	2354.99
738.004	2291.51
738.19	2373.43
738.375	2314.03
738.561	2305.84
738.747	2387.76
738.932	2279.22
739.118	2314.03
739.303	2324.27
739.489	2230.07
739.674	2236.21
739.859	2240.31
740.045	2303.79
740.23	2238.26
740.416	2142
740.601	2262.83
740.786	2289.46
740.972	2228.02
741.157	2217.78
741.342	2230.07
741.528	2092.85
741.713	2139.96
741.898	2142
742.084	2107.19
742.269	2111.29
742.454	2148.15
742.639	2144.05
742.824	2135.86
743.01	2146.1
743.195	2086.71
743.38	2051.89
743.565	1957.69
743.75	1998.65
743.935	2033.46
744.12	2096.95
744.305	1937.21
744.49	2008.89
744.675	2058.04
744.86	2039.61
745.045	2025.27
745.23	2049.85
745.415	1918.78
745.6	2033.46
745.785	2037.56
745.97	1967.93
746.155	1972.02
746.34	1943.35
746.525	1902.39
746.71	1967.93
746.895	1779.51
747.079	1949.5
747.264	1773.37
747.449	1863.48
747.634	1914.68
747.819	1879.86
748.003	1812.28
748.188	1775.42
748.373	1787.71
748.557	1931.06
748.742	1824.57
748.927	1759.03
749.111	1677.12
749.296	1720.12
749.481	1730.36
749.665	1705.79
749.85	1746.75
750.034	1677.12
750.219	1695.55
750.404	1697.6
750.588	1687.36
750.773	1615.68
750.957	1623.87
751.141	1599.29
751.326	1525.57
751.51	1541.95
751.695	1636.16
751.879	1617.72
752.064	1613.63
752.248	1558.33
752.432	1484.61
752.617	1519.42
752.801	1468.22
752.985	1451.84
753.17	1505.09
753.354	1494.85
753.538	1511.23
753.722	1474.37
753.907	1437.5
754.091	1419.07
754.275	1507.13
754.459	1503.04
754.643	1345.34
754.828	1394.5
755.012	1451.84
755.196	1353.54
755.38	1396.54
755.564	1341.25
755.748	1298.24
755.932	1369.92
756.116	1296.19
756.3	1222.47
756.484	1285.95
756.668	1388.35
756.852	1222.47
757.036	1214.27
757.22	1394.5
757.404	1265.47
757.588	1261.38
757.772	1306.43
757.956	1255.23
758.14	1255.23
758.323	1328.96
758.507	1247.04
758.691	1124.16
758.875	1242.95
759.059	1374.02
759.242	1169.22
759.426	1210.18
759.61	1177.41
759.794	1109.83
759.977	1214.27
760.161	1255.23
760.345	1140.55
760.528	1249.09
760.712	1134.4
760.895	1050.44
761.079	1132.36
761.263	1167.17
761.446	1044.29
761.63	1083.2
761.813	1130.31
761.997	1181.51
762.18	1101.64
762.364	1075.01
762.547	956.23
762.731	1144.64
762.914	999.24
763.098	943.94
763.281	1111.88
763.464	1058.63
763.648	1075.01
763.831	1029.96
764.015	982.85
764.198	1085.25
764.381	1019.72
764.564	1021.77
764.748	1042.25
764.931	1009.48
765.114	923.46
765.297	1118.02
765.481	1046.34
765.664	1042.25
765.847	943.94
766.03	1058.63
766.213	902.98
766.397	859.98
766.58	929.61
766.763	960.33
766.946	943.94
767.129	886.6
767.312	935.75
767.495	995.14
767.678	878.41
767.861	997.19
768.044	917.32
768.227	968.52
768.41	970.57
768.593	911.18
768.776	939.85
768.959	837.45
769.142	986.95
769.324	819.02
769.507	857.93
769.69	900.94
769.873	853.83
770.056	984.9
770.239	821.06
770.421	964.42
770.604	1013.57
770.787	833.35
770.97	960.33
771.152	878.41
771.335	833.35
771.518	925.51
771.7	960.33
771.883	941.89
772.066	935.75
772.248	804.68
772.431	847.69
772.613	821.06
772.796	784.2
772.978	821.06
773.161	733
773.343	790.35
773.526	763.72
773.708	722.76
773.891	829.26
774.073	806.73
774.256	735.05
774.438	837.45
774.621	700.23
774.803	816.97
774.985	673.61
775.168	808.78
775.35	780.11
775.532	741.19
775.715	726.86
775.897	771.91
776.079	733
776.261	741.19
776.444	739.15
776.626	714.57
776.808	714.57
776.99	638.8
777.173	628.56
777.355	675.66
777.537	683.85
777.719	677.71
777.901	706.38
778.083	737.1
778.265	595.79
778.447	665.42
778.629	665.42
778.811	646.99
778.993	620.36
779.175	671.56
779.357	567.12
779.539	579.4
779.721	716.62
779.903	538.45
780.085	554.83
780.267	610.12
780.449	522.06
780.631	651.08
780.812	573.26
780.994	542.54
781.176	550.73
781.358	528.21
781.54	544.59
781.721	593.74
781.903	567.12
782.085	567.12
782.267	606.03
782.448	526.16
782.63	470.86
782.812	487.25
782.993	587.6
783.175	601.93
783.357	554.83
783.538	507.73
783.72	569.16
783.901	542.54
784.083	497.49
784.264	509.77
784.446	477.01
784.627	483.15
784.809	479.05
784.99	505.68
785.172	464.72
785.353	460.62
785.535	440.14
785.716	395.09
785.897	423.76
786.079	528.21
786.26	452.43
786.441	370.51
786.623	423.76
786.804	366.42
786.985	532.3
787.167	452.43
787.348	440.14
787.529	415.57
787.71	558.92
787.891	468.81
788.073	460.62
788.254	415.57
788.435	511.82
788.616	366.42
788.797	403.28
788.978	411.47
789.159	438.09
789.34	395.09
789.522	366.42
789.703	419.66
789.884	317.26
790.065	487.25
790.246	438.09
790.427	325.46
790.607	436.05
790.788	345.94
790.969	386.9
791.15	341.84
791.331	331.6
791.512	257.87
791.693	321.36
791.874	331.6
792.054	444.24
792.235	380.75
792.416	335.7
792.597	356.18
792.778	380.75
792.958	329.55
793.139	304.98
793.32	390.99
793.5	266.07
793.681	343.89
793.862	354.13
794.042	321.36
794.223	286.54
794.404	354.13
794.584	208.72
794.765	354.13
794.945	370.51
795.126	296.78
795.306	395.09
795.487	313.17
795.667	231.25
795.848	327.5
796.028	264.02
796.209	304.98
796.389	319.31
796.57	304.98
796.75	227.15
796.93	327.5
797.111	210.77
797.291	350.03
797.471	309.07
797.652	255.83
797.832	272.21
798.012	280.4
798.192	329.55
798.373	214.87
798.553	132.95
798.733	243.54
798.913	188.24
799.093	272.21
799.274	245.59
799.454	235.35
799.634	286.54
799.814	288.59
799.994	243.54
800.174	304.98
800.354	223.06
800.534	268.11
800.714	239.44
800.894	298.83
801.074	186.19
801.254	149.33
801.434	167.76
801.614	255.83
801.794	198.48
801.974	993.09
802.154	233.3
802.334	255.83
802.514	192.34
802.693	202.58
802.873	235.35
803.053	255.83
803.233	247.63
803.413	243.54
803.592	208.72
803.772	214.87
803.952	218.96
804.131	231.25
804.311	251.73
804.491	278.35
804.67	196.43
804.85	239.44
805.03	243.54
805.209	186.19
805.389	249.68
805.568	237.39
805.748	241.49
805.928	167.76
806.107	145.24
806.287	135
806.466	198.48
806.646	223.06
806.825	124.76
807.004	151.38
807.184	167.76
807.363	223.06
807.543	184.15
807.722	151.38
807.901	178
808.081	202.58
808.26	132.95
808.439	94.04
808.619	145.24
808.798	243.54
808.977	247.63
809.156	190.29
809.336	202.58
809.515	200.53
809.694	116.56
809.873	241.49
810.052	178
810.231	198.48
810.411	110.42
810.59	135
810.769	110.42
810.948	159.57
811.127	116.56
811.306	100.18
811.485	178
811.664	272.21
811.843	178
812.022	141.14
812.201	147.28
812.38	175.95
812.559	75.6
812.737	135
812.916	67.41
813.095	165.71
813.274	182.1
813.453	116.56
813.632	114.52
813.811	98.13
813.989	118.61
814.168	143.19
814.347	81.75
814.526	182.1
814.704	141.14
814.883	192.34
815.062	44.88
815.24	198.48
815.419	163.67
815.598	157.52
815.776	85.84
815.955	223.06
816.133	173.91
816.312	91.99
816.49	46.93
816.669	89.94
816.847	145.24
817.026	83.8
817.204	110.42
817.383	210.77
817.561	118.61
817.74	175.95
817.918	182.1
818.097	128.85
818.275	141.14
818.453	124.76
818.632	159.57
818.81	87.89
818.988	106.32
819.167	102.23
819.345	149.33
819.523	157.52
819.701	85.84
819.879	79.7
820.058	51.03
820.236	132.95
820.414	69.46
820.592	155.47
820.77	124.76
820.948	116.56
821.127	85.84
821.305	126.8
821.483	22.36
821.661	175.95
821.839	110.42
822.017	114.52
822.195	112.47
822.373	30.55
822.551	34.64
822.729	157.52
822.907	85.84
823.085	96.08
823.262	159.57
823.44	14.17
823.618	28.5
823.796	112.47
823.974	143.19
824.152	73.56
824.329	116.56
824.507	116.56
824.685	69.46
824.863	114.52
825.04	106.32
825.218	165.71
825.396	36.69
825.574	69.46
825.751	67.41
825.929	167.76
826.107	124.76
826.284	-22.7
826.462	118.61
826.639	96.08
826.817	91.99
826.994	94.04
827.172	112.47
827.349	264.02
827.527	120.66
827.704	30.55
827.882	75.6
828.059	85.84
828.237	120.66
828.414	48.98
828.591	116.56
828.769	87.89
828.946	112.47
829.124	91.99
829.301	143.19
829.478	118.61
829.655	167.76
829.833	94.04
830.01	26.45
830.187	67.41
830.364	102.23
830.542	65.36
830.719	147.28
830.896	102.23
831.073	108.37
831.25	108.37
831.427	112.47
831.604	87.89
831.782	46.93
831.959	141.14
832.136	83.8
832.313	69.46
832.49	20.31
832.667	32.6
832.844	102.23
833.021	85.84
833.198	71.51
833.374	132.95
833.551	128.85
833.728	61.27
833.905	73.56
834.082	22.36
834.259	110.42
834.436	94.04
834.612	102.23
834.789	67.41
834.966	153.43
835.143	116.56
835.319	116.56
835.496	18.26
835.673	110.42
835.85	65.36
836.026	-6.31
836.203	75.6
836.38	94.04
836.556	-0.17
836.733	83.8
836.909	32.6
837.086	75.6
837.262	38.74
837.439	42.84
837.616	61.27
837.792	67.41
837.968	53.08
838.145	-22.7
838.321	71.51
838.498	20.31
838.674	79.7
838.851	61.27
839.027	85.84
839.203	116.56
839.38	59.22
839.556	18.26
839.732	18.26
839.909	46.93
840.085	34.64
840.261	3.93
840.437	42.84
840.614	59.22
840.79	124.76
840.966	42.84
841.142	63.32
841.318	1.88
841.494	42.84
841.671	34.64
841.847	46.93
842.023	42.84
842.199	-22.7
842.375	96.08
842.551	42.84
842.727	1.88
842.903	55.12
843.079	-20.65
843.255	63.32
843.431	-51.37
843.607	14.17
843.783	44.88
843.959	-10.41
844.134	40.79
844.31	59.22
844.486	28.5
844.662	-18.6
844.838	-18.6
845.013	69.46
845.189	69.46
845.365	1.88
845.541	67.41
845.716	26.45
845.892	83.8
846.068	1.88
846.244	-16.55
846.419	38.74
846.595	10.07
846.77	-43.18
846.946	42.84
847.122	63.32
847.297	10.07
847.473	59.22
847.648	-6.31
847.824	44.88
847.999	-37.03
848.175	75.6
848.35	22.36
848.526	67.41
848.701	71.51
848.876	38.74
849.052	91.99
849.227	59.22
849.403	-4.27
849.578	-2.22
849.753	69.46
849.929	91.99
850.104	-47.27
850.279	30.55
850.454	34.64
850.63	46.93
850.805	-71.85
850.98	94.04
851.155	3.93
851.33	10.07
851.505	18.26
851.681	91.99
851.856	-32.94
852.031	34.64
852.206	55.12
852.381	-14.51
852.556	40.79
852.731	-14.51
852.906	-37.03
853.081	51.03
853.256	-12.46
853.431	1.88
853.606	-6.31
853.781	5.97
853.956	-69.8
854.131	46.93
854.305	69.46
854.48	38.74
854.655	36.69
854.83	59.22
855.005	51.03
855.18	32.6
855.354	34.64
855.529	-6.31
855.704	14.17
855.879	42.84
856.053	44.88
856.228	114.52
856.403	14.17
856.577	79.7
856.752	-61.61
856.926	-32.94
857.101	48.98
857.276	-6.31
857.45	26.45
857.625	110.42
857.799	46.93
857.974	44.88
858.148	20.31
858.323	22.36
858.497	67.41
858.672	32.6
858.846	-22.7
859.02	67.41
859.195	67.41
859.369	18.26
859.543	-4.27
859.718	-20.65
859.892	-37.03
860.066	-30.89
860.241	1.88
860.415	42.84
860.589	-8.36
860.763	51.03
860.938	-34.99
861.112	91.99
861.286	-75.95
861.46	20.31
861.634	26.45
861.808	8.02
861.982	-37.03
862.157	59.22
862.331	-18.6
862.505	59.22
862.679	-51.37
862.853	69.46
863.027	-30.89
863.201	67.41
863.375	-30.89
863.549	46.93
863.722	30.55
863.896	34.64
864.07	28.5
864.244	28.5
864.418	12.12
864.592	3.93
864.766	-22.7
864.939	18.26
865.113	-39.08
865.287	12.12
865.461	55.12
865.634	77.65
865.808	26.45
865.982	-28.84
866.156	8.02
866.329	-45.23
866.503	-16.55
866.676	20.31
866.85	5.97
867.024	-20.65
867.197	38.74
867.371	26.45
867.544	16.21
867.718	-47.27
867.891	28.5
868.065	-110.76
868.238	34.64
868.412	-14.51
868.585	-32.94
868.759	-20.65
868.932	-32.94
869.105	-37.03
869.279	16.21
869.452	26.45
869.625	-10.41
869.799	-22.7
869.972	-47.27
870.145	46.93
870.319	24.4
870.492	34.64
870.665	-39.08
870.838	12.12
871.011	-28.84
871.185	-28.84
871.358	-28.84
871.531	24.4
871.704	10.07
871.877	-0.17
872.05	1.88
872.223	-59.56
872.396	30.55
872.569	1.88
872.742	-43.18
872.915	124.76
873.088	28.5
873.261	10.07
873.434	-30.89
873.607	71.51
873.78	-12.46
873.953	108.37
874.126	-49.32
874.299	-4.27
874.471	1.88
874.644	14.17
874.817	-22.7
874.99	14.17
875.163	14.17
875.335	-59.56
875.508	5.97
875.681	38.74
875.853	30.55
876.026	42.84
876.199	36.69
876.371	-47.27
876.544	-14.51
876.717	8.02
876.889	-47.27
877.062	22.36
877.234	3.93
877.407	-6.31
877.579	-41.13
877.752	57.17
877.924	77.65
878.097	42.84
878.269	14.17
878.442	16.21
878.614	20.31
878.786	55.12
878.959	18.26
879.131	-10.41
879.303	-67.75
879.476	26.45
879.648	51.03
879.82	44.88
879.993	34.64
880.165	-37.03
880.337	-55.47
880.509	-30.89
880.681	18.26
880.854	20.31
881.026	12.12
881.198	112.47
881.37	-45.23
881.542	-8.36
881.714	-2.22
881.886	10.07
882.058	-57.51
882.23	44.88
882.402	-37.03
882.574	-22.7
882.746	91.99
882.918	57.17
883.09	59.22
883.262	42.84
883.434	-37.03
883.606	-28.84
883.778	-47.27
883.95	67.41
884.122	-47.27
884.293	24.4
884.465	53.08
884.637	-0.17
884.809	-55.47
884.98	53.08
885.152	10.07
885.324	53.08
885.496	-55.47
885.667	-55.47
885.839	-67.75
886.011	14.17
886.182	65.36
886.354	20.31
886.525	26.45
886.697	-22.7
886.869	-18.6
887.04	-61.61
887.212	-39.08
887.383	46.93
887.555	34.64
887.726	-43.18
887.897	-45.23
888.069	-37.03
888.24	63.32
888.412	-86.19
888.583	12.12
888.754	10.07
888.926	-77.99
889.097	-94.38
889.268	-10.41
889.44	-22.7
889.611	-88.23
889.782	24.4
889.953	-22.7
890.125	22.36
890.296	-55.47
890.467	-22.7
890.638	-6.31
890.809	-14.51
890.98	-47.27
891.151	-32.94
891.323	46.93
891.494	-49.32
891.665	-30.89
891.836	1.88
892.007	-43.18
892.178	69.46
892.349	-4.27
892.52	-30.89
892.691	10.07
892.862	-37.03
893.032	-39.08
893.203	30.55
893.374	38.74
893.545	18.26
893.716	14.17
893.887	63.32
894.057	22.36
894.228	51.03
894.399	-22.7
894.57	-61.61
894.74	-22.7
894.911	-47.27
895.082	-55.47
895.253	26.45
895.423	63.32
895.594	69.46
895.764	75.6
895.935	1.88
896.106	16.21
896.276	-12.46
896.447	-45.23
896.617	-39.08
896.788	-30.89
896.958	-63.66
897.129	-63.66
897.299	34.64
897.47	96.08
897.64	34.64
897.81	65.36
897.981	-39.08
898.151	-104.62
898.322	83.8
898.492	44.88
898.662	18.26
898.832	65.36
899.003	-22.7
899.173	51.03
899.343	-10.41
899.513	-20.65
