Data from USB4F104151__289__14-34-50-399.txt Node

Date: Thu Mar 13 14:34:50 EDT 2025
User: louis
Spectrometer: USB4F10415
Trigger mode: 4
Integration Time (sec): 2.500000E-2
Scans to average: 1
Electric dark correction enabled: true
Nonlinearity correction enabled: false
Boxcar width: 0
XAxis mode: Wavelengths
Number of Pixels in Spectrum: 3648
>>>>>Begin Spectral Data<<<<<
178.204	-135.51
178.424	-135.51
178.644	-135.51
178.864	-104.79
179.084	-135.51
179.304	-12.63
179.524	-6.49
179.744	22.19
179.964	30.38
180.184	18.09
180.404	5.8
180.624	20.14
180.844	-31.06
181.064	-80.21
181.283	-4.44
181.503	-20.82
181.723	59.05
181.943	-80.21
182.163	108.2
182.383	69.29
182.602	102.06
182.822	28.33
183.042	140.97
183.262	28.33
183.482	36.52
183.701	-63.83
183.921	11.95
184.141	-4.44
184.361	44.71
184.58	61.1
184.8	9.9
185.02	34.47
185.239	50.86
185.459	42.67
185.679	36.52
185.898	18.09
186.118	44.71
186.338	73.39
186.557	-2.39
186.777	-26.96
186.997	-39.25
187.216	18.09
187.436	54.95
187.655	95.91
187.875	20.14
188.095	44.71
188.314	11.95
188.534	67.24
188.753	16.04
188.973	77.48
189.192	93.87
189.412	91.82
189.631	9.9
189.851	73.39
190.07	100.01
190.29	20.14
190.509	9.9
190.729	69.29
190.948	136.87
191.168	177.83
191.387	69.29
191.607	11.95
191.826	13.99
192.045	26.28
192.265	50.86
192.484	7.85
192.704	71.34
192.923	-45.4
193.142	87.72
193.362	59.05
193.581	67.24
193.8	32.43
194.02	91.82
194.239	52.91
194.458	71.34
194.678	-4.44
194.897	26.28
195.116	69.29
195.335	79.53
195.555	116.39
195.774	-29.01
195.993	1.71
196.212	-26.96
196.432	-2.39
196.651	-37.2
196.87	42.67
197.089	149.16
197.308	91.82
197.528	59.05
197.747	42.67
197.966	63.15
198.185	165.54
198.404	1.71
198.623	89.77
198.842	24.23
199.062	140.97
199.281	34.47
199.5	3.75
199.719	59.05
199.938	40.62
200.157	104.11
200.376	63.15
200.595	3.75
200.814	26.28
201.033	87.72
201.252	1.71
201.471	18.09
201.69	140.97
201.909	91.82
202.128	-72.02
202.347	77.48
202.566	52.91
202.785	3.75
203.004	18.09
203.223	83.63
203.442	11.95
203.661	-6.49
203.879	44.71
204.098	44.71
204.317	18.09
204.536	42.67
204.755	-31.06
204.974	83.63
205.193	42.67
205.411	75.43
205.63	13.99
205.849	5.8
206.068	20.14
206.287	63.15
206.505	26.28
206.724	34.47
206.943	-35.16
207.162	52.91
207.381	34.47
207.599	-6.49
207.818	75.43
208.037	9.9
208.255	-26.96
208.474	116.39
208.693	-8.53
208.911	-2.39
209.13	24.23
209.349	-22.87
209.567	34.47
209.786	44.71
210.005	48.81
210.223	-4.44
210.442	-51.54
210.661	1.71
210.879	118.44
211.098	-0.34
211.316	89.77
211.535	71.34
211.753	-8.53
211.972	75.43
212.191	-6.49
212.409	36.52
212.628	13.99
212.846	11.95
213.065	50.86
213.283	42.67
213.502	-6.49
213.72	13.99
213.938	13.99
214.157	-0.34
214.375	57
214.594	11.95
214.812	30.38
215.031	5.8
215.249	11.95
215.467	77.48
215.686	20.14
215.904	81.58
216.122	9.9
216.341	77.48
216.559	-45.4
216.778	79.53
216.996	5.8
217.214	30.38
217.432	-14.68
217.651	-51.54
217.869	57
218.087	102.06
218.306	-55.64
218.524	97.96
218.742	-2.39
218.96	18.09
219.179	42.67
219.397	54.95
219.615	165.54
219.833	18.09
220.051	-10.58
220.27	61.1
220.488	73.39
220.706	83.63
220.924	34.47
221.142	-2.39
221.36	-26.96
221.578	-18.77
221.796	22.19
222.015	36.52
222.233	44.71
222.451	100.01
222.669	9.9
222.887	87.72
223.105	36.52
223.323	87.72
223.541	-37.2
223.759	147.11
223.977	97.96
224.195	69.29
224.413	11.95
224.631	59.05
224.849	18.09
225.067	91.82
225.285	-39.25
225.503	22.19
225.721	-2.39
225.939	50.86
226.157	-24.92
226.375	106.15
226.592	-14.68
226.81	18.09
227.028	91.82
227.246	75.43
227.464	71.34
227.682	26.28
227.9	52.91
228.117	-35.16
228.335	75.43
228.553	3.75
228.771	75.43
228.989	52.91
229.206	16.04
229.424	36.52
229.642	11.95
229.86	-4.44
230.077	26.28
230.295	61.1
230.513	89.77
230.731	75.43
230.948	79.53
231.166	87.72
231.384	40.62
231.601	9.9
231.819	93.87
232.037	63.15
232.254	38.57
232.472	52.91
232.689	-6.49
232.907	59.05
233.125	59.05
233.342	-18.77
233.56	13.99
233.777	26.28
233.995	44.71
234.213	71.34
234.43	59.05
234.648	1.71
234.865	36.52
235.083	-6.49
235.3	9.9
235.518	-2.39
235.735	71.34
235.953	108.2
236.17	67.24
236.388	124.58
236.605	61.1
236.822	24.23
237.04	42.67
237.257	65.19
237.475	24.23
237.692	46.76
237.909	34.47
238.127	71.34
238.344	30.38
238.562	44.71
238.779	-26.96
238.996	-6.49
239.214	71.34
239.431	54.95
239.648	9.9
239.865	-8.53
240.083	110.25
240.3	61.1
240.517	1.71
240.735	-26.96
240.952	91.82
241.169	95.91
241.386	44.71
241.603	38.57
241.821	61.1
242.038	100.01
242.255	75.43
242.472	85.67
242.689	46.76
242.907	75.43
243.124	26.28
243.341	20.14
243.558	-0.34
243.775	-31.06
243.992	16.04
244.209	20.14
244.426	130.73
244.643	69.29
244.86	32.43
245.078	34.47
245.295	91.82
245.512	38.57
245.729	28.33
245.946	-43.35
246.163	20.14
246.38	46.76
246.597	77.48
246.814	50.86
247.031	3.75
247.248	38.57
247.464	61.1
247.681	-8.53
247.898	77.48
248.115	75.43
248.332	36.52
248.549	102.06
248.766	34.47
248.983	59.05
249.2	-22.87
249.417	108.2
249.633	75.43
249.85	93.87
250.067	5.8
250.284	75.43
250.501	-59.73
250.717	97.96
250.934	-26.96
251.151	13.99
251.368	59.05
251.585	1.71
251.801	1.71
252.018	-65.88
252.235	38.57
252.451	1.71
252.668	32.43
252.885	67.24
253.102	48.81
253.318	28.33
253.535	50.86
253.752	1.71
253.968	28.33
254.185	63.15
254.401	5.8
254.618	46.76
254.835	30.38
255.051	28.33
255.268	18.09
255.484	38.57
255.701	38.57
255.917	-14.68
256.134	61.1
256.351	36.52
256.567	50.86
256.784	16.04
257	-37.2
257.217	34.47
257.433	100.01
257.65	-14.68
257.866	138.92
258.082	24.23
258.299	38.57
258.515	42.67
258.732	59.05
258.948	-24.92
259.165	57
259.381	36.52
259.597	50.86
259.814	36.52
260.03	9.9
260.246	-12.63
260.463	59.05
260.679	77.48
260.895	9.9
261.112	91.82
261.328	-29.01
261.544	1.71
261.761	61.1
261.977	69.29
262.193	26.28
262.409	38.57
262.626	20.14
262.842	34.47
263.058	28.33
263.274	-55.64
263.49	77.48
263.707	13.99
263.923	11.95
264.139	-33.11
264.355	28.33
264.571	122.54
264.787	42.67
265.004	75.43
265.22	54.95
265.436	93.87
265.652	-6.49
265.868	36.52
266.084	77.48
266.3	9.9
266.516	-63.83
266.732	16.04
266.948	38.57
267.164	40.62
267.38	-4.44
267.596	50.86
267.812	61.1
268.028	65.19
268.244	1.71
268.46	61.1
268.676	48.81
268.892	118.44
269.108	13.99
269.324	13.99
269.54	18.09
269.756	116.39
269.972	-33.11
270.188	38.57
270.403	-4.44
270.619	89.77
270.835	54.95
271.051	9.9
271.267	11.95
271.483	38.57
271.698	46.76
271.914	128.68
272.13	9.9
272.346	26.28
272.562	-14.68
272.777	83.63
272.993	-2.39
273.209	20.14
273.425	67.24
273.64	7.85
273.856	85.67
274.072	50.86
274.287	30.38
274.503	118.44
274.719	5.8
274.934	-6.49
275.15	18.09
275.366	59.05
275.581	13.99
275.797	75.43
276.012	89.77
276.228	52.91
276.444	65.19
276.659	110.25
276.875	20.14
277.09	38.57
277.306	63.15
277.521	-24.92
277.737	57
277.952	38.57
278.168	9.9
278.383	93.87
278.599	63.15
278.814	57
279.03	34.47
279.245	104.11
279.461	1.71
279.676	91.82
279.892	-63.83
280.107	36.52
280.322	40.62
280.538	61.1
280.753	44.71
280.969	38.57
281.184	3.75
281.399	108.2
281.615	81.58
281.83	26.28
282.045	20.14
282.26	-14.68
282.476	-20.82
282.691	85.67
282.906	-31.06
283.122	3.75
283.337	3.75
283.552	22.19
283.767	-22.87
283.983	48.81
284.198	69.29
284.413	79.53
284.628	48.81
284.843	83.63
285.058	114.34
285.274	50.86
285.489	34.47
285.704	59.05
285.919	71.34
286.134	20.14
286.349	65.19
286.564	-35.16
286.779	108.2
286.995	54.95
287.21	-18.77
287.425	24.23
287.64	54.95
287.855	63.15
288.07	-31.06
288.285	83.63
288.5	91.82
288.715	140.97
288.93	91.82
289.145	-2.39
289.36	100.01
289.575	-80.21
289.79	108.2
290.004	52.91
290.219	100.01
290.434	36.52
290.649	42.67
290.864	-43.35
291.079	34.47
291.294	50.86
291.509	50.86
291.724	67.24
291.938	20.14
292.153	46.76
292.368	50.86
292.583	5.8
292.798	63.15
293.012	59.05
293.227	-47.44
293.442	50.86
293.657	50.86
293.871	89.77
294.086	85.67
294.301	126.63
294.516	-12.63
294.73	18.09
294.945	26.28
295.16	73.39
295.374	132.78
295.589	61.1
295.804	11.95
296.018	81.58
296.233	149.16
296.447	-69.97
296.662	22.19
296.877	36.52
297.091	67.24
297.306	-18.77
297.52	11.95
297.735	138.92
297.949	20.14
298.164	85.67
298.378	-0.34
298.593	26.28
298.807	50.86
299.022	-10.58
299.236	5.8
299.451	87.72
299.665	24.23
299.88	44.71
300.094	75.43
300.309	50.86
300.523	79.53
300.737	-14.68
300.952	75.43
301.166	83.63
301.381	-2.39
301.595	59.05
301.809	11.95
302.024	34.47
302.238	79.53
302.452	95.91
302.667	67.24
302.881	116.39
303.095	38.57
303.309	95.91
303.524	36.52
303.738	-22.87
303.952	36.52
304.166	-6.49
304.381	-14.68
304.595	71.34
304.809	1.71
305.023	52.91
305.237	34.47
305.452	30.38
305.666	104.11
305.88	116.39
306.094	46.76
306.308	50.86
306.522	24.23
306.736	28.33
306.95	120.49
307.164	1.71
307.379	124.58
307.593	83.63
307.807	50.86
308.021	100.01
308.235	44.71
308.449	1.71
308.663	34.47
308.877	132.78
309.091	61.1
309.305	59.05
309.519	-35.16
309.733	95.91
309.947	46.76
310.161	87.72
310.374	9.9
310.588	85.67
310.802	42.67
311.016	42.67
311.23	93.87
311.444	42.67
311.658	77.48
311.872	102.06
312.085	100.01
312.299	120.49
312.513	77.48
312.727	54.95
312.941	-6.49
313.154	61.1
313.368	87.72
313.582	59.05
313.796	73.39
314.009	67.24
314.223	63.15
314.437	59.05
314.651	69.29
314.864	42.67
315.078	38.57
315.292	52.91
315.505	42.67
315.719	13.99
315.933	50.86
316.146	-14.68
316.36	40.62
316.573	24.23
316.787	102.06
317.001	-4.44
317.214	71.34
317.428	42.67
317.641	38.57
317.855	75.43
318.068	-20.82
318.282	20.14
318.495	116.39
318.709	52.91
318.922	-31.06
319.136	65.19
319.349	85.67
319.563	28.33
319.776	122.54
319.99	34.47
320.203	7.85
320.417	71.34
320.63	20.14
320.843	124.58
321.057	52.91
321.27	69.29
321.483	85.67
321.697	52.91
321.91	79.53
322.124	11.95
322.337	91.82
322.55	34.47
322.763	59.05
322.977	54.95
323.19	40.62
323.403	52.91
323.617	95.91
323.83	83.63
324.043	22.19
324.256	91.82
324.469	9.9
324.683	54.95
324.896	52.91
325.109	77.48
325.322	-6.49
325.535	38.57
325.748	67.24
325.962	42.67
326.175	3.75
326.388	57
326.601	38.57
326.814	54.95
327.027	67.24
327.24	67.24
327.453	48.81
327.666	50.86
327.879	87.72
328.092	69.29
328.305	13.99
328.518	28.33
328.731	75.43
328.944	61.1
329.157	83.63
329.37	22.19
329.583	110.25
329.796	30.38
330.009	71.34
330.222	75.43
330.435	63.15
330.648	26.28
330.861	34.47
331.073	40.62
331.286	38.57
331.499	40.62
331.712	46.76
331.925	42.67
332.138	77.48
332.35	83.63
332.563	9.9
332.776	81.58
332.989	22.19
333.202	46.76
333.414	34.47
333.627	83.63
333.84	75.43
334.053	79.53
334.265	22.19
334.478	5.8
334.691	9.9
334.903	104.11
335.116	34.47
335.329	61.1
335.541	-10.58
335.754	112.3
335.966	-2.39
336.179	3.75
336.392	28.33
336.604	50.86
336.817	30.38
337.029	91.82
337.242	-8.53
337.454	59.05
337.667	73.39
337.88	102.06
338.092	9.9
338.305	97.96
338.517	-37.2
338.729	54.95
338.942	52.91
339.154	50.86
339.367	9.9
339.579	81.58
339.792	20.14
340.004	42.67
340.217	-33.11
340.429	54.95
340.641	75.43
340.854	-16.73
341.066	61.1
341.278	75.43
341.491	46.76
341.703	46.76
341.915	-2.39
342.128	69.29
342.34	89.77
342.552	5.8
342.764	67.24
342.977	34.47
343.189	46.76
343.401	28.33
343.613	91.82
343.826	50.86
344.038	9.9
344.25	-6.49
344.462	-4.44
344.674	77.48
344.886	9.9
345.099	63.15
345.311	50.86
345.523	9.9
345.735	50.86
345.947	69.29
346.159	34.47
346.371	75.43
346.583	20.14
346.795	69.29
347.007	9.9
347.219	124.58
347.431	77.48
347.643	20.14
347.855	52.91
348.067	50.86
348.279	-14.68
348.491	5.8
348.703	102.06
348.915	59.05
349.127	-0.34
349.339	38.57
349.551	69.29
349.763	75.43
349.975	69.29
350.187	124.58
350.399	110.25
350.61	67.24
350.822	42.67
351.034	83.63
351.246	-20.82
351.458	44.71
351.669	85.67
351.881	69.29
352.093	67.24
352.305	159.4
352.517	85.67
352.728	50.86
352.94	-20.82
353.152	75.43
353.363	100.01
353.575	81.58
353.787	100.01
353.999	157.35
354.21	120.49
354.422	110.25
354.633	18.09
354.845	36.52
355.057	54.95
355.268	18.09
355.48	50.86
355.692	-20.82
355.903	63.15
356.115	5.8
356.326	52.91
356.538	163.5
356.749	81.58
356.961	46.76
357.172	-4.44
357.384	46.76
357.595	143.02
357.807	59.05
358.018	50.86
358.23	50.86
358.441	77.48
358.653	77.48
358.864	42.67
359.075	71.34
359.287	1.71
359.498	32.43
359.709	-26.96
359.921	-12.63
360.132	165.54
360.344	67.24
360.555	-10.58
360.766	95.91
360.977	5.8
361.189	100.01
361.4	52.91
361.611	28.33
361.823	136.87
362.034	157.35
362.245	59.05
362.456	38.57
362.667	50.86
362.879	-20.82
363.09	28.33
363.301	69.29
363.512	124.58
363.723	87.72
363.935	18.09
364.146	75.43
364.357	59.05
364.568	102.06
364.779	-47.44
364.99	54.95
365.201	-20.82
365.412	106.15
365.623	34.47
365.834	87.72
366.045	16.04
366.256	108.2
366.467	104.11
366.678	77.48
366.889	18.09
367.1	22.19
367.311	61.1
367.522	50.86
367.733	87.72
367.944	128.68
368.155	18.09
368.366	100.01
368.577	118.44
368.788	89.77
368.999	5.8
369.209	83.63
369.42	118.44
369.631	120.49
369.842	28.33
370.053	3.75
370.264	118.44
370.474	26.28
370.685	57
370.896	34.47
371.107	143.02
371.317	77.48
371.528	-2.39
371.739	59.05
371.95	48.81
372.16	52.91
372.371	42.67
372.582	95.91
372.792	61.1
373.003	124.58
373.214	34.47
373.424	120.49
373.635	59.05
373.846	59.05
374.056	50.86
374.267	69.29
374.477	34.47
374.688	-2.39
374.898	83.63
375.109	67.24
375.319	100.01
375.53	61.1
375.74	9.9
375.951	57
376.161	5.8
376.372	110.25
376.582	7.85
376.793	126.63
377.003	18.09
377.214	71.34
377.424	93.87
377.635	83.63
377.845	57
378.055	132.78
378.266	13.99
378.476	71.34
378.686	34.47
378.897	26.28
379.107	67.24
379.317	81.58
379.528	67.24
379.738	59.05
379.948	9.9
380.158	81.58
380.369	44.71
380.579	130.73
380.789	87.72
380.999	71.34
381.21	61.1
381.42	50.86
381.63	34.47
381.84	79.53
382.05	-26.96
382.261	83.63
382.471	171.69
382.681	44.71
382.891	214.7
383.101	85.67
383.311	54.95
383.521	28.33
383.731	65.19
383.941	104.11
384.151	11.95
384.361	11.95
384.571	110.25
384.781	100.01
384.991	100.01
385.201	91.82
385.411	91.82
385.621	67.24
385.831	69.29
386.041	54.95
386.251	75.43
386.461	73.39
386.671	77.48
386.881	85.67
387.091	63.15
387.301	132.78
387.511	110.25
387.72	42.67
387.93	9.9
388.14	-6.49
388.35	34.47
388.56	91.82
388.769	104.11
388.979	102.06
389.189	77.48
389.399	42.67
389.609	81.58
389.818	175.78
390.028	63.15
390.238	118.44
390.447	50.86
390.657	75.43
390.867	128.68
391.076	102.06
391.286	73.39
391.496	75.43
391.705	69.29
391.915	153.26
392.125	61.1
392.334	48.81
392.544	177.83
392.753	79.53
392.963	26.28
393.172	91.82
393.382	75.43
393.591	120.49
393.801	91.82
394.01	175.78
394.22	153.26
394.429	67.24
394.639	77.48
394.848	83.63
395.058	179.88
395.267	97.96
395.477	153.26
395.686	91.82
395.895	220.84
396.105	202.41
396.314	157.35
396.524	77.48
396.733	100.01
396.942	202.41
397.152	108.2
397.361	124.58
397.57	44.71
397.78	149.16
397.989	100.01
398.198	218.79
398.407	91.82
398.617	104.11
398.826	50.86
399.035	102.06
399.244	124.58
399.453	149.16
399.663	106.15
399.872	132.78
400.081	38.57
400.29	120.49
400.499	106.15
400.708	165.54
400.917	140.97
401.127	110.25
401.336	87.72
401.545	198.31
401.754	183.98
401.963	198.31
402.172	149.16
402.381	128.68
402.59	124.58
402.799	102.06
403.008	183.98
403.217	151.21
403.426	136.87
403.635	126.63
403.844	132.78
404.053	190.12
404.262	79.53
404.471	214.7
404.68	206.5
404.888	171.69
405.097	210.6
405.306	100.01
405.515	243.37
405.724	222.89
405.933	210.6
406.142	243.37
406.35	216.74
406.559	202.41
406.768	190.12
406.977	247.46
407.185	263.85
407.394	253.61
407.603	265.89
407.812	306.85
408.02	300.71
408.229	255.65
408.438	265.89
408.646	280.23
408.855	298.66
409.064	356.01
409.272	343.72
409.481	345.77
409.69	280.23
409.898	360.1
410.107	427.68
410.315	337.57
410.524	401.06
410.733	415.4
410.941	454.31
411.15	554.66
411.358	460.45
411.567	501.41
411.775	513.7
411.984	478.88
412.192	550.56
412.401	532.13
412.609	575.14
412.818	632.48
413.026	669.34
413.234	626.34
413.443	583.33
413.651	689.82
413.86	679.58
414.068	747.17
414.276	755.36
414.485	771.74
414.693	812.7
414.901	870.05
415.11	919.2
415.318	872.09
415.526	951.96
415.734	917.15
415.943	1013.4
416.151	1027.74
416.359	1109.66
416.567	1083.03
416.776	1191.58
416.984	1218.2
417.192	1236.63
417.4	1132.19
417.608	1199.77
417.817	1298.07
418.025	1285.78
418.233	1394.33
418.441	1371.8
418.649	1435.28
418.857	1574.55
419.065	1592.98
419.273	1607.31
419.481	1668.75
419.689	1709.71
419.897	1699.47
420.105	1740.43
420.313	1918.61
420.521	1949.32
420.729	2000.52
420.937	2066.06
421.145	2051.72
421.353	2107.02
421.561	2330.25
421.769	2422.41
421.977	2428.55
422.185	2559.62
422.393	2557.57
422.601	2737.79
422.809	2774.66
423.017	2832
423.224	2756.22
423.432	3118.72
423.64	3214.97
423.848	3300.98
424.056	3327.61
424.263	3411.57
424.471	3350.14
424.679	3430.01
424.887	3788.4
425.094	3800.69
425.302	3851.89
425.51	3829.36
425.718	4163.18
425.925	4179.56
426.133	4277.87
426.341	4419.18
426.548	4638.31
426.756	4642.4
426.964	4703.84
427.171	4974.17
427.379	5183.07
427.586	5322.33
427.794	5434.97
428.001	5615.19
428.209	6006.35
428.417	5729.88
428.624	6250.06
428.832	6252.11
429.039	6284.87
429.247	6153.8
429.454	6893.12
429.662	7151.17
429.869	6770.24
430.076	7337.53
430.284	6938.18
430.491	7411.26
430.699	7513.66
430.906	7681.59
431.114	7697.97
431.321	8076.85
431.528	8193.58
431.736	8758.82
431.943	9188.89
432.15	8943.14
432.358	8922.66
432.565	9653.78
432.772	9408.03
432.979	9750.04
433.187	10182.16
433.394	10290.7
433.601	10800.65
433.808	10987.01
434.016	10905.09
434.223	11191.81
434.43	11908.6
434.637	11605.5
434.844	12305.9
435.052	12844.52
435.259	12453.36
435.466	12699.11
435.673	12398.06
435.88	13583.84
436.087	14124.5
436.294	13805.02
436.501	13759.96
436.708	14042.58
436.915	14534.09
437.122	15041.99
437.329	15058.37
437.537	15703.48
437.743	15685.05
437.95	15654.33
438.157	16604.59
438.364	16987.56
438.571	17081.77
438.778	17182.12
438.985	18541.97
439.192	17925.53
439.399	18423.19
439.606	18054.55
439.813	19305.86
440.02	20254.07
440.227	19950.97
440.433	19426.69
440.64	20249.97
440.847	20065.66
441.054	20989.29
441.261	21914.97
441.467	21767.52
441.674	21790.05
441.881	23113.03
442.088	22742.35
442.294	22898
442.501	23258.44
442.708	23799.1
442.914	24530.23
443.121	25722.15
443.328	24984.88
443.534	26438.94
443.741	26236.19
443.948	25634.08
444.154	27516.17
444.361	27510.02
444.568	27753.73
444.774	27208.97
444.981	27655.43
445.187	28583.16
445.394	30057.7
445.6	29469.93
445.807	32259.26
446.013	30975.19
446.22	31190.22
446.426	32738.49
446.633	32625.85
446.839	34096.29
447.046	32677.05
447.252	34491.55
447.459	34329.76
447.665	34497.69
447.871	35568.78
448.078	37497.97
448.284	35714.19
448.491	36830.33
448.697	37485.68
448.903	38362.21
449.11	38425.7
449.316	38007.91
449.522	38618.21
449.728	39685.2
449.935	40008.78
450.141	39801.93
450.347	40555.58
450.553	39507.02
450.76	40178.76
450.966	41620.53
451.172	41147.45
451.378	42189.86
451.584	41065.53
451.791	42415.14
451.997	42169.38
452.203	42611.74
452.409	42853.4
452.615	42703.9
452.821	40924.22
453.027	40539.2
453.233	42603.55
453.44	41215.03
453.646	41413.68
453.852	41399.35
454.058	42497.06
454.264	40705.09
454.47	41927.72
454.676	40784.96
454.882	42279.97
455.088	38470.75
455.294	38956.12
455.5	39801.93
455.705	40203.33
455.911	38337.63
456.117	37620.84
456.323	37592.17
456.529	35157.14
456.735	36711.55
456.941	35738.76
457.147	35566.73
457.352	34368.67
457.558	33995.94
457.764	33920.17
457.97	33465.52
458.176	32564.41
458.381	32224.45
458.587	30907.6
458.793	30874.84
458.999	29019.38
459.204	31243.47
459.41	30573.78
459.616	28609.78
459.821	28404.99
460.027	28560.63
460.233	27815.17
460.438	26322.2
460.644	26570.01
460.85	25756.96
461.055	25017.64
461.261	25269.55
461.466	23182.66
461.672	22615.38
461.878	23842.11
462.083	22394.2
462.289	21947.74
462.494	21964.12
462.7	20925.8
462.905	20311.41
463.111	20657.52
463.316	20915.56
463.522	20620.66
463.727	20467.06
463.932	20542.83
464.138	20299.12
464.343	20563.31
464.549	19987.83
464.754	20344.18
464.959	20348.28
465.165	20051.32
465.37	18988.42
465.575	18593.17
465.781	19461.51
465.986	19357.06
466.191	18789.77
466.397	18656.65
466.602	17522.08
466.807	18302.36
467.012	18216.34
467.218	18007.45
467.423	17911.19
467.628	17991.06
467.833	18826.64
468.038	17894.81
468.244	17366.43
468.449	18156.95
468.654	17507.74
468.859	17550.75
469.064	17313.19
469.269	16684.46
469.474	16711.08
469.679	17092.01
469.885	16543.15
470.09	16715.18
470.295	16793
470.5	16192.95
470.705	16547.25
470.91	15992.25
471.115	15689.15
471.32	16055.73
471.525	15994.29
471.73	15578.56
471.935	15525.31
472.139	14939.59
472.344	14917.06
472.549	14921.16
472.754	14951.88
472.959	14702.03
473.164	14486.99
473.369	14136.79
473.574	14693.83
473.778	14534.09
473.983	14239.19
474.188	14343.63
474.393	13702.62
474.598	13694.43
474.802	13481.44
475.007	13293.02
475.212	13657.56
475.417	13325.79
475.621	12948.97
475.826	12928.49
476.031	12817.9
476.235	12568.04
476.44	12789.22
476.645	12670.44
476.849	12537.32
477.054	12250.61
477.259	12297.71
477.463	12201.46
477.668	11855.35
477.872	11947.51
478.077	11904.5
478.282	11597.31
478.486	11652.6
478.691	11312.64
478.895	11482.62
479.1	11259.39
479.304	11316.73
479.509	10886.66
479.713	11247.1
479.918	10888.71
480.122	10685.96
480.326	10870.28
480.531	10982.92
480.735	10759.69
480.94	10608.14
481.144	10987.01
481.348	10339.85
481.553	10464.78
481.757	10497.55
481.961	10716.68
482.166	10716.68
482.37	10536.46
482.574	10513.93
482.778	10331.66
482.983	10495.5
483.187	10642.95
483.391	10536.46
483.595	10413.58
483.8	10268.17
484.004	10475.02
484.208	10511.88
484.412	10407.44
484.616	10384.91
484.821	10479.11
485.025	10067.47
485.229	10548.75
485.433	10155.54
485.637	10302.99
485.841	10229.26
486.045	10090
486.249	10331.66
486.453	10225.17
486.657	10462.73
486.861	10466.83
487.065	10024.47
487.269	10470.92
487.473	10186.26
487.677	10470.92
487.881	10442.25
488.085	10243.6
488.289	10415.63
488.493	10331.66
488.697	10333.71
488.901	10389
489.105	10403.34
489.309	10321.42
489.512	10432.01
489.716	10464.78
489.92	10296.85
490.124	10419.72
490.328	10659.34
490.531	10294.8
490.735	10589.71
490.939	10761.73
491.143	10317.33
491.346	10622.47
491.55	10692.1
491.754	10726.92
491.958	10743.3
492.161	10776.07
492.365	10759.69
492.569	10753.54
492.772	10898.95
492.976	10954.24
493.18	10786.31
493.383	11077.12
493.587	11109.89
493.79	11150.85
493.994	10845.7
494.197	11183.62
494.401	11136.51
494.605	11320.83
494.808	11316.73
495.012	11574.78
495.215	11546.11
495.419	11548.15
495.622	11552.25
495.825	11789.81
496.029	11888.12
496.232	12107.25
496.436	11822.58
496.639	12115.44
496.843	12232.18
497.046	12271.09
497.249	12617.19
497.453	12459.5
497.656	12715.5
497.859	12635.63
498.063	12807.66
498.266	12924.39
498.469	12959.2
498.673	13047.27
498.876	13313.5
499.079	13407.71
499.282	13534.68
499.485	13954.52
499.689	13805.02
499.892	13981.14
500.095	14001.62
500.298	14312.91
500.501	14099.92
500.705	14796.23
500.908	14839.24
501.111	14820.81
501.314	15023.56
501.517	15033.8
501.72	15039.94
501.923	15128
502.126	15750.59
502.329	15881.66
502.532	15867.32
502.735	15934.9
502.938	16407.98
503.141	16549.29
503.344	16565.68
503.547	16338.35
503.75	16827.82
503.953	16958.89
504.156	17188.26
504.359	17311.14
504.562	17520.03
504.765	17687.96
504.968	17907.1
505.17	17997.21
505.373	17728.92
505.576	18380.18
505.779	18683.28
505.982	18718.09
506.185	18922.89
506.387	19000.71
506.59	19096.97
506.793	19561.86
506.996	19520.9
507.198	20106.62
507.401	19875.2
507.604	20485.49
507.807	20555.12
508.009	20538.74
508.212	20561.26
508.415	21116.26
508.617	21050.73
508.82	21462.37
509.022	21388.64
509.225	21808.48
509.428	21896.54
509.63	21939.55
509.833	22121.82
510.035	22826.32
510.238	22582.61
510.44	22619.47
510.643	23213.38
510.845	23227.72
511.048	23475.52
511.25	23401.8
511.453	23905.6
511.655	25142.57
511.858	24288.57
512.06	24663.35
512.262	24763.7
512.465	25017.64
512.667	25234.73
512.87	25621.8
513.072	25613.6
513.274	25900.32
513.477	26449.18
513.679	26348.82
513.881	26692.88
514.084	26940.69
514.286	26817.81
514.488	27282.7
514.69	27774.21
514.893	28177.66
515.095	27755.78
515.297	28204.28
515.499	28515.58
515.701	28800.24
515.904	28966.13
516.106	29207.79
516.308	29459.69
516.51	29840.61
516.712	29979.87
516.914	29981.92
517.116	30495.96
517.318	30506.2
517.52	30758.1
517.722	30811.35
517.925	31362.25
518.127	31708.36
518.329	31614.15
518.531	31284.43
518.733	32464.06
518.935	32396.48
519.136	32453.82
519.338	32939.19
519.54	33031.35
519.742	32818.36
519.944	33504.43
520.146	33705.13
520.348	33772.71
520.55	33608.87
520.752	34120.87
520.954	34444.45
521.155	34075.81
521.357	34907.29
521.559	34966.68
521.761	35470.48
521.963	35380.37
522.164	35187.86
522.366	35339.41
522.568	35736.71
522.77	36144.26
522.971	36576.38
523.173	35990.66
523.375	36281.47
523.576	36326.53
523.778	36330.62
523.98	36971.64
524.181	37264.5
524.383	36732.03
524.584	36994.17
524.786	37504.11
524.988	37610.6
525.189	37655.66
525.391	37907.56
525.592	37975.14
525.794	38222.95
525.995	38155.36
526.197	38050.92
526.398	37665.9
526.6	38343.78
526.801	38470.75
527.003	38388.83
527.204	38431.84
527.406	38665.31
527.607	38157.41
527.808	38960.22
528.01	38308.96
528.211	38575.2
528.412	39332.95
528.614	38753.37
528.815	38892.63
529.016	39232.6
529.218	38827.1
529.419	39251.03
529.62	38734.94
529.822	38743.13
530.023	38982.74
530.224	38906.97
530.425	38567.01
530.626	38435.94
530.828	38300.77
531.029	39095.38
531.23	38927.45
531.431	38544.48
531.632	38906.97
531.833	38579.29
532.035	39060.57
532.236	38503.52
532.437	38823
532.638	38747.23
532.839	38872.15
533.04	38919.26
533.241	38548.57
533.442	39509.07
533.643	38763.61
533.844	38728.8
534.045	38704.22
534.246	38243.43
534.447	38409.31
534.648	38315.11
534.849	38642.78
535.05	38018.15
535.251	38429.79
535.451	38419.55
535.652	38573.15
535.853	38415.46
536.054	38452.32
536.255	38179.94
536.456	37645.42
536.657	38399.07
536.857	37936.23
537.058	37850.22
537.259	38225
537.46	38044.77
537.66	37960.81
537.861	38222.95
538.062	37753.96
538.263	38132.84
538.463	37817.45
538.664	37506.16
538.865	38159.46
539.065	37913.7
539.266	37540.97
539.466	38110.31
539.667	37133.43
539.868	37932.14
540.068	37903.46
540.269	37663.85
540.469	38059.11
540.67	37811.31
540.87	37504.11
541.071	37295.22
541.271	37688.43
541.472	37551.21
541.672	37315.7
541.873	37481.58
542.073	37053.56
542.274	37608.56
542.474	37055.61
542.675	37258.35
542.875	37817.45
543.075	37272.69
543.276	37065.85
543.476	37854.31
543.676	37565.55
543.877	37239.92
544.077	37678.19
544.277	37012.6
544.478	37246.07
544.678	37715.05
544.878	37399.66
545.078	37311.6
545.279	37256.31
545.479	37112.95
545.679	37403.76
545.879	37239.92
546.079	37170.29
546.28	37571.69
546.48	37002.36
546.68	37158
546.88	37182.58
547.08	37022.84
547.28	36889.72
547.48	36848.76
547.68	36934.78
547.88	37112.95
548.081	37280.88
548.281	37074.04
548.481	37248.11
548.681	37461.1
548.881	37332.08
549.081	37305.46
549.28	36861.05
549.48	37389.42
549.68	37182.58
549.88	37889.13
550.08	37297.27
550.28	36865.14
550.48	37198.96
550.68	37252.21
550.88	37078.13
551.08	37305.46
551.279	37266.55
551.479	37192.82
551.679	37203.06
551.879	37065.85
552.079	37493.87
552.278	37053.56
552.478	37282.93
552.678	37221.49
552.878	37452.91
553.077	37143.67
553.277	37069.94
553.477	37692.52
553.676	37293.17
553.876	37108.85
554.076	37424.24
554.275	37485.68
554.475	36977.78
554.674	37756.01
554.874	37307.51
555.074	37227.63
555.273	37614.7
555.473	37610.6
555.672	37112.95
555.872	37268.59
556.071	37463.15
556.271	37575.79
556.47	37510.25
556.67	37059.7
556.869	37008.5
557.068	37749.87
557.268	37477.49
557.467	37407.86
557.667	37495.92
557.866	37430.38
558.065	37485.68
558.265	37033.08
558.464	37366.9
558.663	37799.02
558.863	37209.2
559.062	37678.19
559.261	37278.83
559.461	37598.32
559.66	37127.28
559.859	37610.6
560.058	36975.73
560.258	37354.61
560.457	37006.45
560.656	37538.93
560.855	37461.1
561.054	37618.8
561.253	36885.62
561.453	37248.11
561.652	37258.35
561.851	37545.07
562.05	37280.88
562.249	36844.66
562.448	37332.08
562.647	37346.42
562.846	37143.67
563.045	37387.38
563.244	36797.56
563.443	37567.6
563.642	37037.17
563.841	36951.16
564.04	37067.89
564.239	37203.06
564.438	36594.81
564.637	37106.8
564.836	36961.4
565.035	36385.92
565.234	36865.14
565.432	36727.93
565.631	36469.89
565.83	36781.18
566.029	36541.57
566.228	36711.55
566.427	36078.72
566.625	36318.34
566.824	36277.38
567.023	36476.03
567.222	35978.37
567.42	36648.06
567.619	36131.97
567.818	36187.27
568.016	36469.89
568.215	36766.84
568.414	35763.34
568.612	36238.47
568.811	35730.57
569.01	35923.08
569.208	35290.26
569.407	36056.2
569.605	35628.17
569.804	36070.53
570.002	35406.99
570.201	35988.61
570.4	35486.86
570.598	35175.57
570.797	35081.36
570.995	35286.16
571.193	34686.11
571.392	35175.57
571.59	34991.25
571.789	34970.77
571.987	35089.56
572.186	35054.74
572.384	34753.69
572.582	34634.91
572.781	34778.26
572.979	34284.7
573.177	34727.06
573.376	34561.18
573.574	34307.23
573.772	34340
573.971	34002.08
574.169	33797.29
574.367	34059.43
574.565	34049.19
574.763	33905.83
574.962	33799.33
575.16	33449.13
575.358	33936.55
575.556	33207.47
575.754	33543.34
575.952	33275.05
576.151	33881.25
576.349	32959.67
576.547	32756.92
576.745	33236.14
576.943	33076.4
577.141	33143.98
577.339	33037.49
577.537	32810.17
577.735	32996.53
577.933	32572.6
578.131	32693.43
578.329	32564.41
578.527	32267.45
578.725	32580.79
578.923	32529.59
579.121	32373.95
579.319	32081.09
579.516	32263.36
579.714	32457.92
579.912	31954.12
580.11	31624.39
580.308	31927.49
580.506	31915.2
580.704	31601.86
580.901	31354.06
581.099	31765.7
581.297	31311.05
581.495	31167.7
581.692	31485.13
581.89	31292.62
582.088	31577.29
582.285	31063.25
582.483	30880.98
582.681	31044.82
582.878	30682.33
583.076	30264.54
583.274	31005.91
583.471	30440.67
583.669	30815.44
583.866	30129.37
584.064	30667.99
584.262	30360.8
584.459	30305.5
584.657	30151.9
584.854	30121.18
585.052	29859.04
585.249	30264.54
585.447	30067.94
585.644	29531.37
585.841	29668.58
586.039	29945.06
586.236	29555.94
586.434	29551.85
586.631	29375.72
586.828	29365.48
587.026	29465.83
587.223	29334.76
587.42	29265.13
587.618	29256.94
587.815	28919.03
588.012	28759.28
588.21	29326.57
588.407	29531.37
588.604	28957.94
588.801	28796.15
588.999	28615.93
589.196	28601.59
589.393	28429.56
589.59	28564.73
589.787	28464.38
589.984	28544.25
590.182	28251.39
590.379	28708.08
590.576	28513.53
590.773	28603.64
590.97	28114.17
591.167	28110.08
591.364	28022.02
591.561	28030.21
591.758	27731.2
591.955	28026.11
592.152	27933.95
592.349	27723.01
592.546	27718.92
592.743	27485.45
592.94	27690.24
593.137	27782.4
593.334	27966.72
593.531	27120.91
593.727	27374.86
593.924	27540.74
594.121	27374.86
594.318	27540.74
594.515	26909.97
594.712	27516.17
594.908	27041.04
595.105	27202.83
595.302	26608.92
595.499	27258.12
595.696	27030.8
595.892	26938.64
596.089	26928.4
596.286	27133.2
596.482	27127.05
596.679	26668.31
596.876	27243.79
597.072	26703.12
597.269	26725.65
597.466	26918.16
597.662	26729.75
597.859	26594.58
598.055	27006.22
598.252	26404.12
598.448	26465.56
598.645	26473.75
598.841	26227.99
599.038	26483.99
599.234	26715.41
599.431	26279.19
599.627	26479.89
599.824	26500.37
600.02	26273.05
600.217	26443.03
600.413	26311.96
600.609	26500.37
600.806	26537.24
601.002	26701.08
601.198	26164.51
601.395	26170.65
601.591	26176.8
601.787	26230.04
601.984	26221.85
602.18	26328.34
602.376	26254.62
602.572	26203.42
602.769	26125.6
602.965	25449.77
603.161	26205.47
603.357	26213.66
603.553	25867.55
603.75	26453.27
603.946	26105.12
604.142	26217.75
604.338	25824.54
604.534	26334.49
604.73	26039.58
604.926	26238.23
605.122	26217.75
605.318	25896.22
605.514	26164.51
605.71	26184.99
605.906	26160.41
606.102	26438.94
606.298	26580.25
606.494	26340.63
606.69	26318.11
606.886	26258.71
607.082	25871.65
607.278	26483.99
607.474	26121.5
607.67	26469.65
607.866	25855.26
608.062	26504.47
608.257	26361.11
608.453	26201.37
608.649	26406.17
608.845	26408.22
609.041	26494.23
609.236	26592.53
609.432	26459.41
609.628	26828.05
609.824	26223.9
610.019	26447.13
610.215	26297.63
610.411	26649.88
610.606	26473.75
610.802	26715.41
610.998	26516.76
611.193	26713.36
611.389	26662.16
611.584	26436.89
611.78	26518.81
611.976	27053.33
612.171	26889.49
612.367	26731.79
612.562	26696.98
612.758	26488.09
612.953	26488.09
613.149	26928.4
613.344	26633.49
613.539	26967.31
613.735	26633.49
613.93	27006.22
614.126	26711.32
614.321	27096.33
614.517	27133.2
614.712	26883.34
614.907	26940.69
615.103	26848.53
615.298	26627.35
615.493	27061.52
615.688	26719.51
615.884	27280.65
616.079	26545.43
616.274	27131.15
616.47	27122.96
616.665	26778.9
616.86	26799.38
617.055	26651.92
617.25	26496.28
617.445	27301.13
617.641	26510.61
617.836	27102.48
618.031	26449.18
618.226	26912.02
618.421	26633.49
618.616	26821.91
618.811	26248.47
619.006	26916.11
619.201	26062.11
619.396	26438.94
619.591	26125.6
619.786	26537.24
619.981	26096.92
620.176	26131.74
620.371	26043.68
620.566	26162.46
620.761	25957.66
620.956	25797.92
621.151	25527.59
621.346	26021.15
621.541	25197.87
621.735	25683.23
621.93	25214.25
622.125	25406.76
622.32	25009.45
622.515	25056.56
622.709	25142.57
622.904	24943.92
623.099	24413.49
623.294	24718.64
623.488	24405.3
623.683	24519.99
623.878	24192.31
624.072	24177.98
624.267	24245.56
624.462	24280.38
624.656	23778.62
624.851	23678.27
625.046	23819.58
625.24	23553.35
625.435	23366.98
625.629	23307.59
625.824	23024.97
626.018	23090.51
626.213	22777.17
626.407	22992.2
626.602	22916.43
626.796	22687.06
626.991	22910.29
627.185	22383.96
627.38	22424.92
627.574	22574.42
627.768	22207.83
627.963	22279.51
628.157	22091.1
628.352	22220.12
628.546	21966.17
628.74	21974.36
628.935	21437.8
629.129	21720.42
629.323	21706.08
629.517	21284.2
629.712	21192.04
629.906	21333.35
630.1	20796.78
630.294	21009.77
630.489	20854.12
630.683	20962.67
630.877	20397.43
631.071	20301.17
631.265	20456.82
631.459	20170.1
631.653	20512.11
631.848	20043.13
632.042	19977.59
632.236	20284.79
632.43	19897.72
632.624	19627.39
632.818	19725.69
633.012	19395.97
633.206	19416.45
633.4	19664.25
633.594	19447.17
633.788	19393.92
633.982	19295.62
634.176	18802.06
634.369	19033.48
634.563	19113.35
634.757	18718.09
634.951	18851.21
635.145	18535.82
635.339	18562.45
635.533	18081.17
635.726	18376.08
635.92	18132.37
636.114	18034.07
636.308	17962.39
636.501	17782.17
636.695	18322.84
636.889	17644.96
637.083	17517.98
637.276	17276.32
637.47	17548.7
637.664	17583.52
637.857	17356.19
638.051	17128.87
638.244	16975.27
638.438	16991.66
638.632	16883.11
638.825	16901.54
639.019	16754.09
639.212	16721.32
639.406	16518.57
639.599	16477.62
639.793	16362.93
639.986	16117.17
640.18	16147.89
640.373	15922.62
640.567	15656.38
640.76	15891.9
640.954	15779.26
641.147	15697.34
641.34	15535.55
641.534	15631.8
641.727	15297.99
641.92	15539.65
642.114	15254.98
642.307	15164.87
642.5	14935.49
642.694	15041.99
642.887	14874.06
643.08	15148.48
643.273	14591.44
643.467	14532.04
643.66	14599.63
643.853	14296.53
644.046	13981.14
644.239	14306.77
644.432	14306.77
644.626	14163.41
644.819	13948.37
645.012	14056.92
645.205	13782.49
645.398	13845.98
645.591	13854.17
645.784	13907.41
645.977	13555.16
646.17	13479.39
646.363	13379.04
646.556	13313.5
646.749	13254.11
646.942	13370.85
647.135	13241.82
647.328	13047.27
647.521	12979.68
647.714	12936.68
647.907	12756.46
648.099	12781.03
648.292	13004.26
648.485	12805.61
648.678	12551.66
648.871	12537.32
649.064	12674.54
649.256	12518.89
649.449	12404.21
649.642	12051.95
649.835	11965.94
650.027	11963.89
650.22	11941.36
650.413	12017.14
650.605	12154.35
650.798	11597.31
650.991	11640.31
651.183	11707.9
651.376	11617.79
651.568	11628.03
651.761	11431.42
651.954	11310.59
652.146	11417.08
652.339	11251.2
652.531	11128.32
652.724	11064.83
652.916	10872.32
653.109	11132.42
653.301	11126.27
653.494	11105.79
653.686	11058.69
653.879	11040.26
654.071	10855.94
654.263	10997.25
654.456	10540.55
654.648	10880.52
654.84	10499.59
655.033	10456.59
655.225	10421.77
655.417	9887.25
655.61	10389
655.802	10298.89
655.994	10071.57
656.186	10208.78
656.379	10214.93
656.571	10147.34
656.763	9967.12
656.955	10020.37
657.148	9836.05
657.34	9827.86
657.532	9676.31
657.724	9586.2
657.916	9674.26
658.108	9661.98
658.3	9635.35
658.492	9582.1
658.684	9352.73
658.876	9442.84
659.068	9573.91
659.26	9315.87
659.452	9328.16
659.644	9270.81
659.836	9057.82
660.028	9135.65
660.22	8873.51
660.412	9432.6
660.604	8896.03
660.796	8842.79
660.988	9004.58
661.18	8986.15
661.372	8785.44
661.563	8885.8
661.755	8670.76
661.947	8599.08
662.139	8648.23
662.331	8474.15
662.522	8363.56
662.714	8386.09
662.906	8353.32
663.097	8310.32
663.289	8289.84
663.481	8158.77
663.673	8330.8
663.864	8218.16
664.056	8140.33
664.247	8052.27
664.439	8021.55
664.631	7988.78
664.822	7788.08
665.014	7804.47
665.205	7695.93
665.397	7876.15
665.588	7941.68
665.78	7665.21
665.971	7718.45
666.163	7589.43
666.354	7835.19
666.546	7521.85
666.737	7507.51
666.929	7591.48
667.12	7587.38
667.311	7366.2
667.503	7538.23
667.694	7413.31
667.885	7202.36
668.077	7317.05
668.268	7136.83
668.459	7366.2
668.651	7282.24
668.842	7099.97
669.033	6993.47
669.224	7071.29
669.416	7071.29
669.607	7173.69
669.798	6839.87
669.989	6903.36
670.18	7022.14
670.371	6979.14
670.563	6948.42
670.754	7003.71
670.945	6651.46
671.136	6663.75
671.327	6762.05
671.518	6501.96
671.709	6786.63
671.9	6727.24
672.091	6706.76
672.282	6510.15
672.473	6514.25
672.664	6678.08
672.855	6233.68
673.046	6493.77
673.237	6628.93
673.428	6581.83
673.619	6579.78
673.809	6313.55
674	6393.42
674.191	6448.71
674.382	6327.88
674.573	6342.22
674.764	6491.72
674.954	6428.23
675.145	6211.15
675.336	6217.29
675.527	6377.03
675.717	6288.97
675.908	5953.1
676.099	6184.52
676.289	5983.82
676.48	6047.31
676.671	5965.39
676.861	6078.03
677.052	6211.15
677.243	6041.17
677.433	6051.41
677.624	6043.21
677.814	5953.1
678.005	6043.21
678.195	6004.3
678.386	5899.86
678.576	5869.14
678.767	5926.48
678.957	5949.01
679.148	5949.01
679.338	5875.28
679.529	5926.48
679.719	5916.24
679.909	5805.65
680.1	5846.61
680.29	5867.09
680.481	5944.91
680.671	5824.08
680.861	5910.1
681.052	5781.07
681.242	5779.03
681.432	5842.51
681.622	5645.91
681.813	5664.34
682.003	5787.22
682.193	5658.2
682.383	5815.89
682.573	5654.1
682.764	5746.26
682.954	5695.06
683.144	5590.61
683.334	5621.33
683.524	5709.4
683.714	5615.19
683.904	5527.13
684.094	5621.33
684.284	5496.41
684.474	5451.35
684.664	5656.15
684.854	5563.99
685.044	5559.89
685.234	5576.28
685.424	5543.51
685.614	5486.17
685.804	5420.63
685.994	5547.61
686.184	5451.35
686.374	5406.3
686.564	5590.61
686.753	5281.37
686.943	5412.44
687.133	5480.02
687.323	5301.85
687.513	5443.16
687.702	5410.39
687.892	5351
688.082	5328.47
688.272	5269.08
688.461	5340.76
688.651	5203.55
688.841	5191.26
689.03	5221.98
689.22	5140.06
689.41	5097.05
689.599	5133.92
689.789	5258.84
689.979	5023.33
690.168	5121.63
690.358	5092.96
690.547	5117.53
690.737	5035.61
690.926	5107.29
691.116	5080.67
691.305	4984.41
691.495	5023.33
691.684	4929.12
691.874	5039.71
692.063	4982.37
692.252	4980.32
692.442	5035.61
692.631	5002.85
692.82	4877.92
693.01	4925.02
693.199	4787.81
693.388	4845.15
693.578	4871.78
693.767	4828.77
693.956	4902.5
694.146	4834.91
694.335	4709.99
694.524	4779.62
694.713	4908.64
694.902	4709.99
695.092	4691.56
695.281	4542.05
695.47	4773.47
695.659	4628.07
695.848	4714.08
696.037	4621.92
696.226	4550.25
696.415	4632.16
696.604	4650.6
696.793	4638.31
696.982	4654.69
697.171	4656.74
697.36	4456.04
697.549	4451.94
697.738	4681.32
697.927	4580.96
698.116	4617.83
698.305	4482.66
698.494	4609.64
698.683	4390.5
698.872	4501.09
699.061	4525.67
699.25	4384.36
699.438	4456.04
699.627	4382.31
699.816	4433.51
700.005	4335.21
700.193	4396.65
700.382	4394.6
700.571	4421.22
700.76	4300.39
700.948	4279.91
701.137	4384.36
701.326	4511.33
701.514	4277.87
701.703	4296.3
701.892	4238.95
702.08	4427.37
702.269	4263.53
702.457	4216.43
702.646	4302.44
702.834	4159.08
703.023	4222.57
703.212	4261.48
703.4	4154.99
703.589	4130.41
703.777	4103.79
703.965	3987.05
704.154	4187.75
704.342	3978.86
704.531	4077.16
704.719	4103.79
704.907	4079.21
705.096	4075.12
705.284	4079.21
705.472	3929.71
705.661	3950.19
705.849	4081.26
706.037	4097.64
706.226	4001.39
706.414	3896.94
706.602	3907.18
706.79	4097.64
706.979	3901.04
707.167	4023.92
707.355	3890.8
707.543	3909.23
707.731	3903.09
707.919	3915.37
708.107	3819.12
708.296	3833.46
708.484	3774.07
708.672	3884.66
708.86	3761.78
709.048	3757.68
709.236	3653.23
709.424	3640.95
709.612	3622.52
709.8	3581.56
709.988	3780.21
710.176	3772.02
710.364	3862.13
710.551	3614.32
710.739	3501.69
710.927	3663.47
711.115	3548.79
711.303	3647.09
711.491	3645.04
711.679	3704.43
711.866	3599.99
712.054	3544.69
712.242	3432.05
712.43	3747.44
712.617	3526.26
712.805	3591.8
712.993	3499.64
713.181	3470.97
713.368	3565.17
713.556	3397.24
713.744	3487.35
713.931	3632.76
714.119	3425.91
714.306	3419.77
714.494	3432.05
714.682	3393.14
714.869	3391.09
715.057	3597.94
715.244	3425.91
715.432	3337.85
715.619	3409.53
715.807	3382.9
715.994	3309.18
716.182	3333.75
716.369	3352.18
716.556	3374.71
716.744	3200.63
716.931	3354.23
717.119	3335.8
717.306	3305.08
717.493	3217.02
717.681	3081.85
717.868	3278.46
718.055	3249.79
718.242	3122.81
718.43	3159.67
718.617	3251.83
718.804	3237.5
718.991	3184.25
719.179	3212.92
719.366	3178.11
719.553	3198.59
719.74	3114.62
719.927	3139.19
720.114	3092.09
720.301	3040.89
720.488	3124.86
720.676	3120.76
720.863	3141.24
721.05	3096.19
721.237	2987.65
721.424	3151.48
721.611	3131
721.798	3184.25
721.985	2967.17
722.172	3057.28
722.358	3018.36
722.545	3049.08
722.732	2801.28
722.919	2930.3
723.106	3016.32
723.293	2901.63
723.48	2889.34
723.667	2909.82
723.853	2825.86
724.04	2887.29
724.227	2975.36
724.414	2799.23
724.6	2819.71
724.787	2862.72
724.974	2930.3
725.161	2819.71
725.347	2739.84
725.534	2942.59
725.72	2840.19
725.907	2797.18
726.094	2788.99
726.28	2877.05
726.467	2752.13
726.653	2852.48
726.84	2913.92
727.027	2899.58
727.213	2821.76
727.4	2795.14
727.586	2705.03
727.773	2680.45
727.959	2844.29
728.145	2733.7
728.332	2592.39
728.518	2664.07
728.705	2756.22
728.891	2635.39
729.077	2639.49
729.264	2582.15
729.45	2668.16
729.636	2729.6
729.823	2641.54
730.009	2672.26
730.195	2713.22
730.382	2573.96
730.568	2672.26
730.754	2713.22
730.94	2651.78
731.126	2573.96
731.313	2616.96
731.499	2619.01
731.685	2641.54
731.871	2633.35
732.057	2639.49
732.243	2510.47
732.429	2582.15
732.615	2739.84
732.801	2541.19
732.987	2569.86
733.173	2559.62
733.359	2539.14
733.545	2500.23
733.731	2541.19
733.917	2487.94
734.103	2508.42
734.289	2504.32
734.475	2422.41
734.661	2610.82
734.847	2401.93
735.033	2479.75
735.219	2436.74
735.404	2397.83
735.59	2451.08
735.776	2410.12
735.962	2469.51
736.148	2442.89
736.333	2469.51
736.519	2461.32
736.705	2397.83
736.89	2395.78
737.076	2381.45
737.262	2320.01
737.447	2348.68
737.633	2233.99
737.819	2309.77
738.004	2299.53
738.19	2340.49
738.375	2354.82
738.561	2328.2
738.747	2250.38
738.932	2303.62
739.118	2455.17
739.303	2301.58
739.489	2326.15
739.674	2303.62
739.859	2238.09
740.045	2240.14
740.23	2238.09
740.416	2252.42
740.601	2274.95
740.786	2117.26
740.972	2168.46
741.157	2256.52
741.342	2186.89
741.528	2262.66
741.713	2205.32
741.898	2131.59
742.084	2231.94
742.269	2082.44
742.454	2049.68
742.639	2215.56
742.824	2027.15
743.01	2100.87
743.195	2125.45
743.38	2092.68
743.565	2164.36
743.75	2045.58
743.935	2055.82
744.12	1955.47
744.305	2027.15
744.49	1957.52
744.675	2059.92
744.86	1961.61
745.045	2109.07
745.23	2018.96
745.415	1967.76
745.6	2004.62
745.785	1926.8
745.97	2041.48
746.155	1910.41
746.34	2033.29
746.525	1898.13
746.71	1934.99
746.895	1885.84
747.079	1869.45
747.264	1857.17
747.449	1787.54
747.634	1834.64
747.819	1791.63
748.003	1805.97
748.188	1691.28
748.373	1836.69
748.557	1791.63
748.742	1830.54
748.927	1799.82
749.111	1754.77
749.296	1615.51
749.481	1762.96
749.665	1765.01
749.85	1666.71
750.034	1683.09
750.219	1724.05
750.404	1666.71
750.588	1617.55
750.773	1644.18
750.957	1623.7
751.141	1625.75
751.326	1631.89
751.51	1517.2
751.695	1599.12
751.879	1533.59
752.064	1500.82
752.248	1558.16
752.432	1732.24
752.617	1572.5
752.801	1558.16
752.985	1545.88
753.17	1554.07
753.354	1427.09
753.538	1492.63
753.722	1410.71
753.907	1486.48
754.091	1406.61
754.275	1463.96
754.459	1457.81
754.643	1345.17
754.828	1451.67
755.012	1500.82
755.196	1281.69
755.38	1453.72
755.564	1365.65
755.748	1423
755.932	1427.09
756.116	1330.84
756.3	1304.21
756.484	1314.45
756.668	1345.17
756.852	1248.92
757.036	1314.45
757.22	1355.41
757.404	1328.79
757.588	1263.26
757.772	1205.91
757.956	1191.58
758.14	1261.21
758.323	1222.3
758.507	1087.13
758.691	1109.66
758.875	1226.39
759.059	1230.49
759.242	1212.06
759.426	1167
759.61	1164.95
759.794	1126.04
759.977	1226.39
760.161	1212.06
760.345	1123.99
760.528	1162.9
760.712	1199.77
760.895	1107.61
761.079	1083.03
761.263	1152.67
761.446	1140.38
761.63	1105.56
761.813	1089.18
761.997	972.44
762.18	1001.12
762.364	1103.51
762.547	994.97
762.731	1050.27
762.914	1017.5
763.098	1019.55
763.281	984.73
763.464	992.92
763.648	1009.31
763.831	929.44
764.015	1037.98
764.198	1058.46
764.381	1029.79
764.564	986.78
764.748	962.2
764.931	1091.23
765.114	960.16
765.297	1052.31
765.481	990.88
765.664	1001.12
765.847	1011.36
766.03	929.44
766.213	919.2
766.397	962.2
766.58	894.62
766.763	1017.5
766.946	1017.5
767.129	984.73
767.312	870.05
767.495	1011.36
767.678	968.35
767.861	994.97
768.044	882.33
768.227	951.96
768.41	923.29
768.593	984.73
768.776	992.92
768.959	949.92
769.142	960.16
769.324	911
769.507	913.05
769.69	890.53
769.873	888.48
770.056	966.3
770.239	872.09
770.421	888.48
770.604	874.14
770.787	814.75
770.97	847.52
771.152	861.85
771.335	857.76
771.518	781.98
771.7	921.24
771.883	943.77
772.066	841.37
772.248	837.28
772.431	822.94
772.613	855.71
772.796	851.61
772.978	800.41
773.161	839.33
773.343	812.7
773.526	708.26
773.708	781.98
773.891	771.74
774.073	771.74
774.256	829.09
774.438	831.13
774.621	812.7
774.803	827.04
774.985	763.55
775.168	749.22
775.35	716.45
775.532	841.37
775.715	792.22
775.897	755.36
776.079	837.28
776.261	820.89
776.444	691.87
776.626	712.35
776.808	673.44
776.99	657.06
777.173	628.39
777.355	655.01
777.537	640.67
777.719	669.34
777.901	644.77
778.083	665.25
778.265	673.44
778.447	695.97
778.629	571.04
778.811	681.63
778.993	722.59
779.175	747.17
779.357	591.52
779.539	542.37
779.721	675.49
779.903	681.63
780.085	577.19
780.267	659.1
780.449	607.91
780.631	620.19
780.812	595.62
780.994	659.1
781.176	568.99
781.358	566.95
781.54	566.95
781.721	632.48
781.903	566.95
782.085	532.13
782.267	597.67
782.448	595.62
782.63	532.13
782.812	534.18
782.993	568.99
783.175	550.56
783.357	540.32
783.538	550.56
783.72	501.41
783.901	550.56
784.083	503.46
784.264	493.22
784.446	513.7
784.627	513.7
784.809	509.6
784.99	462.5
785.172	566.95
785.353	435.88
785.535	495.27
785.716	460.45
785.897	386.72
786.079	444.07
786.26	427.68
786.441	487.08
786.623	407.2
786.804	392.87
786.985	403.11
787.167	427.68
787.348	335.53
787.529	470.69
787.71	480.93
787.891	419.49
788.073	446.12
788.254	386.72
788.435	423.59
788.616	446.12
788.797	382.63
788.978	353.96
789.159	378.53
789.34	427.68
789.522	358.05
789.703	353.96
789.884	456.36
790.065	460.45
790.246	480.93
790.427	437.92
790.607	417.44
790.788	382.63
790.969	370.34
791.15	364.2
791.331	304.81
791.512	396.96
791.693	358.05
791.874	321.19
792.054	464.55
792.235	460.45
792.416	345.77
792.597	290.47
792.778	366.25
792.958	353.96
793.139	374.44
793.32	345.77
793.5	341.67
793.681	384.68
793.862	323.24
794.042	321.19
794.223	300.71
794.404	208.55
794.584	319.14
794.765	356.01
794.945	304.81
795.126	349.86
795.306	298.66
795.487	358.05
795.667	315.05
795.848	370.34
796.028	333.48
796.209	394.92
796.389	370.34
796.57	282.28
796.75	272.04
796.93	233.13
797.111	298.66
797.291	304.81
797.471	257.7
797.652	249.51
797.832	241.32
798.012	329.38
798.192	218.79
798.373	255.65
798.553	257.7
798.733	294.57
798.913	300.71
799.093	235.18
799.274	304.81
799.454	267.94
799.634	272.04
799.814	308.9
799.994	280.23
800.174	353.96
800.354	239.27
800.534	224.94
800.714	280.23
800.894	181.93
801.074	151.21
801.254	208.55
801.434	272.04
801.614	206.5
801.794	155.3
801.974	966.3
802.154	118.44
802.334	222.89
802.514	255.65
802.693	265.89
802.873	198.31
803.053	284.33
803.233	259.75
803.413	224.94
803.592	202.41
803.772	222.89
803.952	104.11
804.131	132.78
804.311	269.99
804.491	251.56
804.67	243.37
804.85	169.64
805.03	292.52
805.209	210.6
805.389	188.07
805.568	161.45
805.748	226.98
805.928	173.74
806.107	163.5
806.287	253.61
806.466	194.22
806.646	190.12
806.825	138.92
807.004	216.74
807.184	177.83
807.363	202.41
807.543	216.74
807.722	190.12
807.901	173.74
808.081	319.14
808.26	93.87
808.439	140.97
808.619	198.31
808.798	128.68
808.977	151.21
809.156	218.79
809.336	175.78
809.515	159.4
809.694	177.83
809.873	147.11
810.052	173.74
810.231	206.5
810.411	231.08
810.59	159.4
810.769	165.54
810.948	229.03
811.127	136.87
811.306	173.74
811.485	194.22
811.664	208.55
811.843	149.16
812.022	155.3
812.201	214.7
812.38	181.93
812.559	157.35
812.737	239.27
812.916	128.68
813.095	181.93
813.274	202.41
813.453	175.78
813.632	235.18
813.811	222.89
813.989	116.39
814.168	218.79
814.347	194.22
814.526	186.02
814.704	190.12
814.883	226.98
815.062	110.25
815.24	171.69
815.419	95.91
815.598	165.54
815.776	102.06
815.955	136.87
816.133	159.4
816.312	181.93
816.49	95.91
816.669	147.11
816.847	173.74
817.026	140.97
817.204	175.78
817.383	143.02
817.561	120.49
817.74	140.97
817.918	181.93
818.097	173.74
818.275	122.54
818.453	83.63
818.632	183.98
818.81	149.16
818.988	85.67
819.167	124.58
819.345	169.64
819.523	93.87
819.701	128.68
819.879	181.93
820.058	91.82
820.236	140.97
820.414	124.58
820.592	159.4
820.77	87.72
820.948	124.58
821.127	120.49
821.305	220.84
821.483	118.44
821.661	161.45
821.839	118.44
822.017	122.54
822.195	143.02
822.373	214.7
822.551	132.78
822.729	87.72
822.907	52.91
823.085	183.98
823.262	85.67
823.44	61.1
823.618	159.4
823.796	102.06
823.974	126.63
824.152	65.19
824.329	157.35
824.507	118.44
824.685	177.83
824.863	104.11
825.04	118.44
825.218	128.68
825.396	67.24
825.574	177.83
825.751	132.78
825.929	110.25
826.107	13.99
826.284	157.35
826.462	71.34
826.639	13.99
826.817	134.82
826.994	110.25
827.172	75.43
827.349	183.98
827.527	108.2
827.704	102.06
827.882	38.57
828.059	36.52
828.237	177.83
828.414	132.78
828.591	102.06
828.769	63.15
828.946	34.47
829.124	112.3
829.301	100.01
829.478	67.24
829.655	83.63
829.833	85.67
830.01	79.53
830.187	102.06
830.364	136.87
830.542	100.01
830.719	165.54
830.896	126.63
831.073	110.25
831.25	124.58
831.427	128.68
831.604	108.2
831.782	71.34
831.959	59.05
832.136	59.05
832.313	114.34
832.49	59.05
832.667	112.3
832.844	61.1
833.021	136.87
833.198	183.98
833.374	54.95
833.551	138.92
833.728	71.34
833.905	140.97
834.082	28.33
834.259	20.14
834.436	102.06
834.612	30.38
834.789	69.29
834.966	116.39
835.143	132.78
835.319	67.24
835.496	157.35
835.673	69.29
835.85	157.35
836.026	145.06
836.203	157.35
836.38	38.57
836.556	30.38
836.733	24.23
836.909	59.05
837.086	26.28
837.262	22.19
837.439	87.72
837.616	63.15
837.792	44.71
837.968	-6.49
838.145	63.15
838.321	77.48
838.498	67.24
838.674	34.47
838.851	34.47
839.027	100.01
839.203	44.71
839.38	83.63
839.556	52.91
839.732	128.68
839.909	71.34
840.085	108.2
840.261	-35.16
840.437	61.1
840.614	100.01
840.79	97.96
840.966	11.95
841.142	34.47
841.318	-14.68
841.494	108.2
841.671	77.48
841.847	38.57
842.023	18.09
842.199	42.67
842.375	110.25
842.551	9.9
842.727	20.14
842.903	9.9
843.079	-45.4
843.255	3.75
843.431	91.82
843.607	79.53
843.783	-4.44
843.959	52.91
844.134	13.99
844.31	26.28
844.486	36.52
844.662	-55.64
844.838	46.76
845.013	114.34
845.189	108.2
845.365	18.09
845.541	59.05
845.716	100.01
845.892	18.09
846.068	26.28
846.244	34.47
846.419	124.58
846.595	67.24
846.77	112.3
846.946	134.82
847.122	28.33
847.297	36.52
847.473	38.57
847.648	40.62
847.824	34.47
847.999	-72.02
848.175	67.24
848.35	57
848.526	61.1
848.701	95.91
848.876	-6.49
849.052	77.48
849.227	30.38
849.403	-8.53
849.578	42.67
849.753	1.71
849.929	93.87
850.104	34.47
850.279	83.63
850.454	59.05
850.63	34.47
850.805	26.28
850.98	93.87
851.155	44.71
851.33	116.39
851.505	-14.68
851.681	50.86
851.856	38.57
852.031	87.72
852.206	-59.73
852.381	59.05
852.556	42.67
852.731	79.53
852.906	165.54
853.081	34.47
853.256	79.53
853.431	-69.97
853.606	110.25
853.781	69.29
853.956	48.81
854.131	-6.49
854.305	-22.87
854.48	-12.63
854.655	126.63
854.83	9.9
855.005	91.82
855.18	18.09
855.354	48.81
855.529	-22.87
855.704	1.71
855.879	87.72
856.053	30.38
856.228	69.29
856.403	-14.68
856.577	-18.77
856.752	-29.01
856.926	-22.87
857.101	22.19
857.276	-12.63
857.45	16.04
857.625	1.71
857.799	40.62
857.974	61.1
858.148	9.9
858.323	18.09
858.497	5.8
858.672	18.09
858.846	61.1
859.02	83.63
859.195	-94.55
859.369	-0.34
859.543	50.86
859.718	28.33
859.892	28.33
860.066	100.01
860.241	71.34
860.415	-6.49
860.589	67.24
860.763	42.67
860.938	52.91
861.112	50.86
861.286	-37.2
861.46	104.11
861.634	59.05
861.808	54.95
861.982	1.71
862.157	1.71
862.331	69.29
862.505	-4.44
862.679	108.2
862.853	34.47
863.027	13.99
863.201	44.71
863.375	22.19
863.549	36.52
863.722	67.24
863.896	3.75
864.07	26.28
864.244	42.67
864.418	34.47
864.592	-14.68
864.766	20.14
864.939	-0.34
865.113	46.76
865.287	85.67
865.461	-16.73
865.634	34.47
865.808	16.04
865.982	-6.49
866.156	34.47
866.329	26.28
866.503	36.52
866.676	67.24
866.85	77.48
867.024	-39.25
867.197	16.04
867.371	59.05
867.544	-45.4
867.718	61.1
867.891	52.91
868.065	-20.82
868.238	63.15
868.412	34.47
868.585	20.14
868.759	50.86
868.932	-0.34
869.105	36.52
869.279	26.28
869.452	-39.25
869.625	18.09
869.799	3.75
869.972	-86.36
870.145	46.76
870.319	-14.68
870.492	42.67
870.665	3.75
870.838	11.95
871.011	-31.06
871.185	50.86
871.358	-20.82
871.531	73.39
871.704	-2.39
871.877	-31.06
872.05	50.86
872.223	26.28
872.396	34.47
872.569	89.77
872.742	-45.4
872.915	3.75
873.088	-14.68
873.261	11.95
873.434	34.47
873.607	-22.87
873.78	69.29
873.953	-47.44
874.126	79.53
874.299	9.9
874.471	-6.49
874.644	-10.58
874.817	34.47
874.99	67.24
875.163	-6.49
875.335	85.67
875.508	54.95
875.681	91.82
875.853	-6.49
876.026	-6.49
876.199	9.9
876.371	75.43
876.544	18.09
876.717	-22.87
876.889	13.99
877.062	69.29
877.234	34.47
877.407	26.28
877.579	77.48
877.752	87.72
877.924	18.09
878.097	18.09
878.269	59.05
878.442	46.76
878.614	38.57
878.786	42.67
878.959	22.19
879.131	-20.82
879.303	-6.49
879.476	9.9
879.648	26.28
879.82	-22.87
879.993	-86.36
880.165	-45.4
880.337	-39.25
880.509	18.09
880.681	-133.46
880.854	54.95
881.026	69.29
881.198	42.67
881.37	-8.53
881.542	61.1
881.714	-49.49
881.886	24.23
882.058	1.71
882.23	38.57
882.402	-0.34
882.574	5.8
882.746	-20.82
882.918	77.48
883.09	69.29
883.262	36.52
883.434	-6.49
883.606	-14.68
883.778	-26.96
883.95	116.39
884.122	50.86
884.293	3.75
884.465	-53.59
884.637	-31.06
884.809	5.8
884.98	50.86
885.152	1.71
885.324	59.05
885.496	-18.77
885.667	34.47
885.839	-4.44
886.011	108.2
886.182	20.14
886.354	-22.87
886.525	-39.25
886.697	26.28
886.869	-12.63
887.04	-10.58
887.212	116.39
887.383	83.63
887.555	-8.53
887.726	-10.58
887.897	-43.35
888.069	-4.44
888.24	61.1
888.412	26.28
888.583	-67.92
888.754	20.14
888.926	-39.25
889.097	-8.53
889.268	13.99
889.44	75.43
889.611	-24.92
889.782	40.62
889.953	-31.06
890.125	34.47
890.296	11.95
890.467	9.9
890.638	95.91
890.809	-51.54
890.98	-12.63
891.151	24.23
891.323	75.43
891.494	46.76
891.665	-35.16
891.836	-31.06
892.007	9.9
892.178	-0.34
892.349	-4.44
892.52	-14.68
892.691	-39.25
892.862	-76.12
893.032	-4.44
893.203	18.09
893.374	57
893.545	1.71
893.716	-20.82
893.887	-2.39
894.057	42.67
894.228	63.15
894.399	-31.06
894.57	81.58
894.74	67.24
894.911	110.25
895.082	20.14
895.253	-14.68
895.423	-6.49
895.594	67.24
895.764	-0.34
895.935	18.09
896.106	34.47
896.276	-14.68
896.447	38.57
896.617	-0.34
896.788	-59.73
896.958	-72.02
897.129	5.8
897.299	3.75
897.47	18.09
897.64	-10.58
897.81	-53.59
897.981	1.71
898.151	95.91
898.322	34.47
898.492	83.63
898.662	20.14
898.832	13.99
899.003	-55.64
899.173	79.53
899.343	34.47
899.513	-8.53
