Data from USB4F104151__275__14-34-41-726.txt Node

Date: Thu Mar 13 14:34:41 EDT 2025
User: louis
Spectrometer: USB4F10415
Trigger mode: 4
Integration Time (sec): 2.500000E-2
Scans to average: 1
Electric dark correction enabled: true
Nonlinearity correction enabled: false
Boxcar width: 0
XAxis mode: Wavelengths
Number of Pixels in Spectrum: 3648
>>>>>Begin Spectral Data<<<<<
178.204	-102.4
178.424	-102.4
178.644	-102.4
178.864	-129.02
179.084	-137.21
179.304	16.38
179.524	16.38
179.744	6.14
179.964	104.45
180.184	10.24
180.404	-4.1
180.624	-73.73
180.844	-22.53
181.064	-24.58
181.283	2.05
181.503	-16.38
181.723	-14.34
181.943	-2.05
182.163	75.77
182.383	-36.86
182.602	-40.96
182.822	69.63
183.042	32.77
183.262	-51.2
183.482	59.39
183.701	6.14
183.921	8.19
184.141	8.19
184.361	51.2
184.58	-30.72
184.8	26.62
185.02	10.24
185.239	98.3
185.459	18.43
185.679	-16.38
185.898	-32.77
186.118	77.82
186.338	49.15
186.557	86.01
186.777	-12.29
186.997	32.77
187.216	34.82
187.436	61.44
187.655	26.62
187.875	45.06
188.095	57.34
188.314	-10.24
188.534	43.01
188.753	8.19
188.973	12.29
189.192	92.16
189.412	-4.1
189.631	8.19
189.851	32.77
190.07	98.3
190.29	24.58
190.509	2.05
190.729	8.19
190.948	120.83
191.168	182.27
191.387	-16.38
191.607	59.39
191.826	49.15
192.045	36.86
192.265	16.38
192.484	24.58
192.704	32.77
192.923	104.45
193.142	139.26
193.362	34.82
193.581	67.58
193.8	8.19
194.02	131.07
194.239	0
194.458	40.96
194.678	-49.15
194.897	24.58
195.116	-10.24
195.335	-30.72
195.555	61.44
195.774	86.01
195.993	51.2
196.212	-38.91
196.432	-16.38
196.651	-30.72
196.87	57.34
197.089	163.84
197.308	100.35
197.528	81.92
197.747	75.77
197.966	45.06
198.185	57.34
198.404	20.48
198.623	57.34
198.842	86.01
199.062	20.48
199.281	67.58
199.5	24.58
199.719	10.24
199.938	57.34
200.157	4.1
200.376	26.62
200.595	24.58
200.814	90.11
201.033	12.29
201.252	71.68
201.471	51.2
201.69	65.53
201.909	8.19
202.128	8.19
202.347	57.34
202.566	-6.14
202.785	20.48
203.004	32.77
203.223	106.49
203.442	34.82
203.661	51.2
203.879	28.67
204.098	69.63
204.317	-55.3
204.536	98.3
204.755	32.77
204.974	57.34
205.193	14.34
205.411	124.93
205.63	49.15
205.849	-6.14
206.068	-32.77
206.287	16.38
206.505	49.15
206.724	49.15
206.943	8.19
207.162	-32.77
207.381	47.1
207.599	4.1
207.818	55.3
208.037	-38.91
208.255	40.96
208.474	10.24
208.693	24.58
208.911	0
209.13	45.06
209.349	65.53
209.567	-12.29
209.786	49.15
210.005	102.4
210.223	43.01
210.442	28.67
210.661	59.39
210.879	10.24
211.098	-6.14
211.316	-16.38
211.535	83.97
211.753	34.82
211.972	65.53
212.191	20.48
212.409	8.19
212.628	81.92
212.846	0
213.065	14.34
213.283	57.34
213.502	8.19
213.72	77.82
213.938	90.11
214.157	12.29
214.375	98.3
214.594	51.2
214.812	32.77
215.031	81.92
215.249	-57.34
215.467	36.86
215.686	18.43
215.904	118.78
216.122	18.43
216.341	67.58
216.559	61.44
216.778	65.53
216.996	135.17
217.214	18.43
217.432	-28.67
217.651	-20.48
217.869	45.06
218.087	47.1
218.306	-6.14
218.524	32.77
218.742	16.38
218.96	34.82
219.179	-6.14
219.397	36.86
219.615	75.77
219.833	75.77
220.051	40.96
220.27	131.07
220.488	45.06
220.706	131.07
220.924	-53.25
221.142	12.29
221.36	51.2
221.578	114.69
221.796	61.44
222.015	-59.39
222.233	12.29
222.451	98.3
222.669	0
222.887	65.53
223.105	53.25
223.323	81.92
223.541	24.58
223.759	90.11
223.977	26.62
224.195	110.59
224.413	92.16
224.631	10.24
224.849	55.3
225.067	36.86
225.285	57.34
225.503	12.29
225.721	59.39
225.939	106.49
226.157	92.16
226.375	188.41
226.592	4.1
226.81	-32.77
227.028	28.67
227.246	122.88
227.464	-8.19
227.682	38.91
227.9	100.35
228.117	57.34
228.335	67.58
228.553	-49.15
228.771	-20.48
228.989	90.11
229.206	26.62
229.424	12.29
229.642	24.58
229.86	-4.1
230.077	-30.72
230.295	75.77
230.513	57.34
230.731	36.86
230.948	32.77
231.166	71.68
231.384	86.01
231.601	-6.14
231.819	75.77
232.037	-65.54
232.254	36.86
232.472	40.96
232.689	28.67
232.907	59.39
233.125	-36.86
233.342	-24.58
233.56	73.73
233.777	20.48
233.995	26.62
234.213	51.2
234.43	8.19
234.648	32.77
234.865	28.67
235.083	106.49
235.3	67.58
235.518	-32.77
235.735	57.34
235.953	73.73
236.17	30.72
236.388	2.05
236.605	8.19
236.822	16.38
237.04	106.49
237.257	57.34
237.475	10.24
237.692	43.01
237.909	26.62
238.127	-22.53
238.344	4.1
238.562	63.49
238.779	59.39
238.996	14.34
239.214	-69.63
239.431	40.96
239.648	65.53
239.865	77.82
240.083	98.3
240.3	53.25
240.517	14.34
240.735	8.19
240.952	59.39
241.169	32.77
241.386	-4.1
241.603	67.58
241.821	-4.1
242.038	53.25
242.255	16.38
242.472	43.01
242.689	0
242.907	102.4
243.124	24.58
243.341	43.01
243.558	32.77
243.775	69.63
243.992	20.48
244.209	86.01
244.426	8.19
244.643	92.16
244.86	-8.19
245.078	24.58
245.295	86.01
245.512	34.82
245.729	16.38
245.946	12.29
246.163	32.77
246.38	24.58
246.597	38.91
246.814	2.05
247.031	92.16
247.248	-28.67
247.464	67.58
247.681	75.77
247.898	49.15
248.115	-20.48
248.332	-12.29
248.549	57.34
248.766	75.77
248.983	88.06
249.2	22.53
249.417	32.77
249.633	-4.1
249.85	81.92
250.067	22.53
250.284	67.58
250.501	98.3
250.717	108.54
250.934	-16.38
251.151	67.58
251.368	59.39
251.585	51.2
251.801	-6.14
252.018	-30.72
252.235	4.1
252.451	32.77
252.668	8.19
252.885	18.43
253.102	26.62
253.318	49.15
253.535	26.62
253.752	2.05
253.968	-16.38
254.185	2.05
254.401	51.2
254.618	-16.38
254.835	0
255.051	36.86
255.268	-10.24
255.484	40.96
255.701	59.39
255.917	20.48
256.134	16.38
256.351	67.58
256.567	43.01
256.784	-8.19
257	-51.2
257.217	4.1
257.433	81.92
257.65	49.15
257.866	40.96
258.082	-36.86
258.299	-2.05
258.515	24.58
258.732	-8.19
258.948	20.48
259.165	24.58
259.381	-6.14
259.597	45.06
259.814	16.38
260.03	12.29
260.246	4.1
260.463	12.29
260.679	94.21
260.895	49.15
261.112	55.3
261.328	10.24
261.544	61.44
261.761	139.26
261.977	65.53
262.193	-51.2
262.409	34.82
262.626	-16.38
262.842	102.4
263.058	-40.96
263.274	2.05
263.49	-16.38
263.707	43.01
263.923	94.21
264.139	-77.82
264.355	22.53
264.571	69.63
264.787	63.49
265.004	40.96
265.22	-6.14
265.436	32.77
265.652	-30.72
265.868	0
266.084	0
266.3	57.34
266.516	-2.05
266.732	16.38
266.948	69.63
267.164	8.19
267.38	8.19
267.596	-28.67
267.812	0
268.028	32.77
268.244	47.1
268.46	51.2
268.676	12.29
268.892	57.34
269.108	-65.54
269.324	8.19
269.54	34.82
269.756	139.26
269.972	8.19
270.188	-36.86
270.403	-30.72
270.619	-4.1
270.835	24.58
271.051	86.01
271.267	0
271.483	20.48
271.698	59.39
271.914	34.82
272.13	-6.14
272.346	98.3
272.562	55.3
272.777	63.49
272.993	32.77
273.209	73.73
273.425	43.01
273.64	-8.19
273.856	94.21
274.072	32.77
274.287	49.15
274.503	10.24
274.719	34.82
274.934	30.72
275.15	20.48
275.366	-8.19
275.581	43.01
275.797	67.58
276.012	6.14
276.228	30.72
276.444	22.53
276.659	-6.14
276.875	-28.67
277.09	16.38
277.306	49.15
277.521	28.67
277.737	-4.1
277.952	18.43
278.168	47.1
278.383	14.34
278.599	-49.15
278.814	36.86
279.03	47.1
279.245	124.93
279.461	-4.1
279.676	16.38
279.892	47.1
280.107	-14.34
280.322	53.25
280.538	98.3
280.753	30.72
280.969	43.01
281.184	32.77
281.399	172.03
281.615	2.05
281.83	61.44
282.045	8.19
282.26	75.77
282.476	26.62
282.691	36.86
282.906	8.19
283.122	8.19
283.337	81.92
283.552	106.49
283.767	-2.05
283.983	77.82
284.198	34.82
284.413	40.96
284.628	36.86
284.843	20.48
285.058	83.97
285.274	4.1
285.489	49.15
285.704	53.25
285.919	24.58
286.134	24.58
286.349	90.11
286.564	24.58
286.779	104.45
286.995	51.2
287.21	45.06
287.425	98.3
287.64	86.01
287.855	-22.53
288.07	61.44
288.285	-16.38
288.5	110.59
288.715	65.53
288.93	-16.38
289.145	-38.91
289.36	49.15
289.575	20.48
289.79	135.17
290.004	0
290.219	49.15
290.434	-12.29
290.649	57.34
290.864	51.2
291.079	59.39
291.294	34.82
291.509	49.15
291.724	18.43
291.938	-2.05
292.153	57.34
292.368	26.62
292.583	-14.34
292.798	98.3
293.012	34.82
293.227	98.3
293.442	36.86
293.657	57.34
293.871	90.11
294.086	32.77
294.301	110.59
294.516	34.82
294.73	28.67
294.945	-28.67
295.16	49.15
295.374	51.2
295.589	49.15
295.804	-63.49
296.018	-28.67
296.233	65.53
296.447	47.1
296.662	0
296.877	18.43
297.091	32.77
297.306	12.29
297.52	61.44
297.735	12.29
297.949	40.96
298.164	38.91
298.378	28.67
298.593	81.92
298.807	83.97
299.022	-45.06
299.236	2.05
299.451	18.43
299.665	10.24
299.88	10.24
300.094	69.63
300.309	-20.48
300.523	10.24
300.737	-8.19
300.952	57.34
301.166	67.58
301.381	10.24
301.595	59.39
301.809	32.77
302.024	32.77
302.238	-20.48
302.452	10.24
302.667	-65.54
302.881	98.3
303.095	49.15
303.309	6.14
303.524	14.34
303.738	57.34
303.952	-40.96
304.166	8.19
304.381	-71.68
304.595	86.01
304.809	26.62
305.023	36.86
305.237	12.29
305.452	57.34
305.666	49.15
305.88	94.21
306.094	53.25
306.308	71.68
306.522	112.64
306.736	43.01
306.95	53.25
307.164	18.43
307.379	34.82
307.593	92.16
307.807	-6.14
308.021	43.01
308.235	-4.1
308.449	-45.06
308.663	20.48
308.877	129.02
309.091	16.38
309.305	81.92
309.519	-61.44
309.733	108.54
309.947	-45.06
310.161	94.21
310.374	-10.24
310.588	61.44
310.802	36.86
311.016	51.2
311.23	40.96
311.444	18.43
311.658	20.48
311.872	90.11
312.085	57.34
312.299	32.77
312.513	73.73
312.727	24.58
312.941	8.19
313.154	26.62
313.368	-43.01
313.582	40.96
313.796	-14.34
314.009	2.05
314.223	53.25
314.437	69.63
314.651	63.49
314.864	-67.58
315.078	24.58
315.292	65.53
315.505	-28.67
315.719	65.53
315.933	-18.43
316.146	65.53
316.36	-4.1
316.573	61.44
316.787	69.63
317.001	8.19
317.214	-20.48
317.428	75.77
317.641	4.1
317.855	2.05
318.068	4.1
318.282	12.29
318.495	51.2
318.709	73.73
318.922	40.96
319.136	49.15
319.349	77.82
319.563	55.3
319.776	57.34
319.99	-49.15
320.203	40.96
320.417	26.62
320.63	57.34
320.843	69.63
321.057	49.15
321.27	-24.58
321.483	-8.19
321.697	122.88
321.91	-20.48
322.124	24.58
322.337	16.38
322.55	36.86
322.763	49.15
322.977	18.43
323.19	-36.86
323.403	40.96
323.617	51.2
323.83	106.49
324.043	4.1
324.256	-6.14
324.469	4.1
324.683	90.11
324.896	24.58
325.109	77.82
325.322	18.43
325.535	67.58
325.748	69.63
325.962	24.58
326.175	67.58
326.388	49.15
326.601	141.31
326.814	40.96
327.027	73.73
327.24	61.44
327.453	36.86
327.666	4.1
327.879	131.07
328.092	73.73
328.305	67.58
328.518	53.25
328.731	43.01
328.944	26.62
329.157	81.92
329.37	8.19
329.583	55.3
329.796	96.25
330.009	-30.72
330.222	28.67
330.435	94.21
330.648	73.73
330.861	-47.1
331.073	-14.34
331.286	71.68
331.499	14.34
331.712	8.19
331.925	18.43
332.138	-14.34
332.35	98.3
332.563	24.58
332.776	43.01
332.989	-28.67
333.202	-88.06
333.414	36.86
333.627	4.1
333.84	73.73
334.053	55.3
334.265	24.58
334.478	2.05
334.691	24.58
334.903	67.58
335.116	18.43
335.329	32.77
335.541	38.91
335.754	-18.43
335.966	-6.14
336.179	-16.38
336.392	53.25
336.604	8.19
336.817	59.39
337.029	32.77
337.242	63.49
337.454	122.88
337.667	40.96
337.88	49.15
338.092	67.58
338.305	77.82
338.517	49.15
338.729	18.43
338.942	43.01
339.154	-8.19
339.367	-57.34
339.579	116.73
339.792	-4.1
340.004	40.96
340.217	20.48
340.429	16.38
340.641	8.19
340.854	8.19
341.066	4.1
341.278	67.58
341.491	75.77
341.703	61.44
341.915	-40.96
342.128	20.48
342.34	28.67
342.552	-2.05
342.764	65.53
342.977	0
343.189	16.38
343.401	75.77
343.613	16.38
343.826	98.3
344.038	-30.72
344.25	73.73
344.462	-24.58
344.674	49.15
344.886	22.53
345.099	18.43
345.311	16.38
345.523	40.96
345.735	-32.77
345.947	96.25
346.159	32.77
346.371	24.58
346.583	40.96
346.795	118.78
347.007	-20.48
347.219	57.34
347.431	38.91
347.643	10.24
347.855	-14.34
348.067	90.11
348.279	49.15
348.491	-34.82
348.703	135.17
348.915	40.96
349.127	-6.14
349.339	65.53
349.551	116.73
349.763	53.25
349.975	40.96
350.187	90.11
350.399	40.96
350.61	96.25
350.822	-12.29
351.034	81.92
351.246	18.43
351.458	38.91
351.669	77.82
351.881	51.2
352.093	24.58
352.305	55.3
352.517	24.58
352.728	110.59
352.94	71.68
353.152	65.53
353.363	-4.1
353.575	108.54
353.787	165.89
353.999	57.34
354.21	108.54
354.422	10.24
354.633	59.39
354.845	-32.77
355.057	88.06
355.268	59.39
355.48	-4.1
355.692	53.25
355.903	-22.53
356.115	-4.1
356.326	-32.77
356.538	53.25
356.749	114.69
356.961	40.96
357.172	8.19
357.384	-45.06
357.595	75.77
357.807	10.24
358.018	0
358.23	18.43
358.441	49.15
358.653	69.63
358.864	131.07
359.075	-26.62
359.287	67.58
359.498	49.15
359.709	126.97
359.921	49.15
360.132	-6.14
360.344	81.92
360.555	34.82
360.766	73.73
360.977	57.34
361.189	122.88
361.4	73.73
361.611	38.91
361.823	12.29
362.034	49.15
362.245	32.77
362.456	34.82
362.667	59.39
362.879	-24.58
363.09	108.54
363.301	-28.67
363.512	36.86
363.723	49.15
363.935	-14.34
364.146	81.92
364.357	20.48
364.568	122.88
364.779	73.73
364.99	24.58
365.201	34.82
365.412	94.21
365.623	51.2
365.834	69.63
366.045	67.58
366.256	102.4
366.467	22.53
366.678	4.1
366.889	59.39
367.1	43.01
367.311	51.2
367.522	49.15
367.733	28.67
367.944	67.58
368.155	92.16
368.366	55.3
368.577	43.01
368.788	100.35
368.999	36.86
369.209	-16.38
369.42	73.73
369.631	98.3
369.842	114.69
370.053	65.53
370.264	120.83
370.474	49.15
370.685	40.96
370.896	86.01
371.107	102.4
371.317	104.45
371.528	69.63
371.739	118.78
371.95	69.63
372.16	45.06
372.371	88.06
372.582	53.25
372.792	55.3
373.003	49.15
373.214	65.53
373.424	53.25
373.635	43.01
373.846	40.96
374.056	81.92
374.267	-10.24
374.477	32.77
374.688	24.58
374.898	63.49
375.109	18.43
375.319	45.06
375.53	108.54
375.74	57.34
375.951	73.73
376.161	45.06
376.372	75.77
376.582	-16.38
376.793	32.77
377.003	24.58
377.214	73.73
377.424	73.73
377.635	0
377.845	-30.72
378.055	45.06
378.266	110.59
378.476	92.16
378.686	18.43
378.897	0
379.107	110.59
379.317	53.25
379.528	-24.58
379.738	98.3
379.948	-6.14
380.158	122.88
380.369	10.24
380.579	98.3
380.789	51.2
380.999	176.13
381.21	133.12
381.42	122.88
381.63	-4.1
381.84	92.16
382.05	63.49
382.261	135.17
382.471	114.69
382.681	-16.38
382.891	73.73
383.101	18.43
383.311	12.29
383.521	47.1
383.731	40.96
383.941	92.16
384.151	59.39
384.361	49.15
384.571	71.68
384.781	94.21
384.991	133.12
385.201	73.73
385.411	2.05
385.621	92.16
385.831	83.97
386.041	57.34
386.251	57.34
386.461	108.54
386.671	75.77
386.881	102.4
387.091	-8.19
387.301	86.01
387.511	-40.96
387.72	32.77
387.93	71.68
388.14	-38.91
388.35	104.45
388.56	151.55
388.769	-6.14
388.979	61.44
389.189	110.59
389.399	-16.38
389.609	165.89
389.818	24.58
390.028	24.58
390.238	75.77
390.447	-28.67
390.657	36.86
390.867	-4.1
391.076	40.96
391.286	61.44
391.496	57.34
391.705	65.53
391.915	86.01
392.125	106.49
392.334	8.19
392.544	102.4
392.753	40.96
392.963	51.2
393.172	40.96
393.382	71.68
393.591	149.5
393.801	59.39
394.01	135.17
394.22	108.54
394.429	51.2
394.639	51.2
394.848	43.01
395.058	34.82
395.267	0
395.477	100.35
395.686	94.21
395.895	141.31
396.105	174.08
396.314	16.38
396.524	83.97
396.733	90.11
396.942	165.89
397.152	73.73
397.361	147.45
397.57	57.34
397.78	122.88
397.989	155.65
398.198	188.41
398.407	75.77
398.617	67.58
398.826	34.82
399.035	65.53
399.244	98.3
399.453	0
399.663	73.73
399.872	108.54
400.081	106.49
400.29	190.46
400.499	-8.19
400.708	81.92
400.917	77.82
401.127	98.3
401.336	53.25
401.545	116.73
401.754	114.69
401.963	110.59
402.172	114.69
402.381	145.41
402.59	51.2
402.799	174.08
403.008	151.55
403.217	110.59
403.426	106.49
403.635	190.46
403.844	106.49
404.053	86.01
404.262	133.12
404.471	231.42
404.68	137.21
404.888	180.22
405.097	180.22
405.306	147.45
405.515	206.84
405.724	147.45
405.933	126.97
406.142	163.84
406.35	174.08
406.559	204.8
406.768	159.74
406.977	235.52
407.185	241.66
407.394	190.46
407.603	182.27
407.812	258.04
408.02	249.85
408.229	288.76
408.438	194.56
408.646	245.76
408.855	157.69
409.064	313.34
409.272	229.37
409.481	296.96
409.69	268.28
409.898	264.19
410.107	303.1
410.315	321.53
410.524	256
410.733	348.15
410.941	393.21
411.15	348.15
411.358	327.67
411.567	466.94
411.775	423.93
411.984	352.25
412.192	405.5
412.401	495.61
412.609	454.65
412.818	548.86
413.026	446.46
413.234	518.14
413.443	563.19
413.651	575.48
413.86	511.99
414.068	647.16
414.276	712.69
414.485	614.39
414.693	673.78
414.901	767.99
415.11	778.23
415.318	753.65
415.526	753.65
415.734	786.42
415.943	827.38
416.151	827.38
416.359	872.43
416.567	1001.46
416.776	868.34
416.984	976.88
417.192	960.5
417.4	968.69
417.608	1030.13
417.817	1056.75
418.025	1153.01
418.233	1173.49
418.441	1183.73
418.649	1130.48
418.857	1306.6
419.065	1314.8
419.273	1273.84
419.481	1351.66
419.689	1495.02
419.897	1443.82
420.105	1525.74
420.313	1556.46
420.521	1619.94
420.729	1615.85
420.937	1763.3
421.145	1814.5
421.353	1873.89
421.561	1877.99
421.769	1957.86
421.977	2041.82
422.185	2113.5
422.393	2224.09
422.601	2326.49
422.809	2269.15
423.017	2342.88
423.224	2394.08
423.432	2605.02
423.64	2408.41
423.848	2719.7
424.056	2670.55
424.263	2873.3
424.471	2914.26
424.679	3014.61
424.887	3012.56
425.094	3061.71
425.302	3301.33
425.51	3409.87
425.718	3383.24
425.925	3461.07
426.133	3573.71
426.341	3694.54
426.548	3856.33
426.756	3751.88
426.964	4063.17
427.171	4194.24
427.379	4272.06
427.586	4364.22
427.794	4534.2
428.001	4689.85
428.209	4915.12
428.417	4872.12
428.624	5218.22
428.832	5019.57
429.039	5087.15
429.247	5212.08
429.454	5638.06
429.662	5998.5
429.869	5638.06
430.076	5947.3
430.284	5787.56
430.491	5978.02
430.699	6426.53
430.906	6545.31
431.114	6465.44
431.321	6895.51
431.528	6680.47
431.736	7268.24
431.943	7487.37
432.15	7452.56
432.358	7473.04
432.565	7966.6
432.772	7866.25
432.979	8429.44
433.187	8400.77
433.394	8337.28
433.601	8873.85
433.808	9086.84
434.016	8824.7
434.223	9305.97
434.43	10026.85
434.637	9783.15
434.844	10372.96
435.052	10514.27
435.259	10588
435.466	10448.74
435.673	10334.05
435.88	10905.43
436.087	11648.85
436.294	11575.12
436.501	11409.23
436.708	11519.82
436.915	12068.68
437.122	12451.65
437.329	12416.83
437.537	12863.29
437.743	13066.04
437.95	13233.97
438.157	13516.59
438.364	13981.48
438.571	13924.14
438.778	14147.37
438.985	15283.99
439.192	14632.74
439.399	15240.98
439.606	14778.14
439.813	16154.38
440.02	16733.95
440.227	16324.36
440.433	16133.9
440.64	16727.81
440.847	16606.98
441.054	17137.4
441.261	18390.76
441.467	17759.99
441.674	18527.97
441.881	19103.45
442.088	18898.66
442.294	18781.92
442.501	19347.16
442.708	19902.16
442.914	20100.81
443.121	21171.9
443.328	20645.57
443.534	22156.97
443.741	21632.69
443.948	21081.79
444.154	22853.28
444.361	22521.51
444.568	22458.03
444.774	22634.15
444.981	23103.14
445.187	23584.41
445.394	24749.7
445.6	24067.73
445.807	26787.43
446.013	25306.75
446.22	26156.66
446.426	27164.26
446.633	27334.24
446.839	28253.78
447.046	26711.66
447.252	28386.89
447.459	28603.98
447.665	28284.5
447.871	29654.59
448.078	30711.34
448.284	29685.31
448.491	30545.45
448.697	31258.15
448.903	31792.67
449.11	32011.8
449.316	31411.74
449.522	32351.76
449.728	33066.5
449.935	32865.8
450.141	33244.68
450.347	34006.52
450.553	33125.89
450.76	33680.89
450.966	34338.29
451.172	33809.92
451.378	34737.65
451.584	34180.6
451.791	35288.55
451.997	34893.29
452.203	35524.07
452.409	35534.31
452.615	35255.78
452.821	34113.02
453.027	33517.06
453.233	35499.49
453.44	33883.64
453.646	34117.11
453.852	34502.13
454.058	35089.9
454.264	33658.37
454.47	34803.18
454.676	33889.79
454.882	34805.23
455.088	32226.84
455.294	32079.38
455.5	32591.37
455.705	33015.3
455.911	31608.35
456.117	31163.94
456.323	30740.01
456.529	29224.51
456.735	30285.36
456.941	29474.37
457.147	29052.48
457.352	28016.21
457.558	27749.98
457.764	27633.24
457.97	27555.42
458.176	26676.84
458.381	26639.98
458.587	25689.72
458.793	25206.4
458.999	24131.22
459.204	25851.51
459.41	24862.34
459.616	23627.42
459.821	23756.44
460.027	23185.05
460.233	22914.72
460.438	21581.49
460.644	21614.26
460.85	21038.78
461.055	20430.54
461.261	20453.06
461.466	18968.29
461.672	18652.9
461.878	19756.75
462.083	18423.53
462.289	18013.93
462.494	17884.91
462.7	16934.65
462.905	16662.27
463.111	17014.52
463.316	17229.56
463.522	16776.96
463.727	16768.77
463.932	16762.62
464.138	16240.39
464.343	16416.52
464.549	16017.16
464.754	16662.27
464.959	16391.94
465.165	16494.34
465.37	15589.14
465.575	15263.51
465.781	15886.09
465.986	15660.82
466.191	15441.68
466.397	14751.52
466.602	14270.25
466.807	14991.13
467.012	14657.31
467.218	14585.63
467.423	14630.69
467.628	14724.9
467.833	15105.82
468.038	14606.11
468.244	14034.73
468.449	14655.26
468.654	14274.34
468.859	13819.69
469.064	14049.07
469.269	13358.9
469.474	13594.42
469.679	13860.65
469.885	13291.32
470.09	13322.04
470.295	13479.73
470.5	13057.85
470.705	13131.58
470.91	12707.65
471.115	12824.38
471.32	13160.25
471.525	12937.02
471.73	12492.61
471.935	12552
472.139	11984.71
472.344	12064.58
472.549	12197.7
472.754	12021.58
472.959	11667.28
473.164	11485.01
473.369	11554.64
473.574	11757.39
473.778	11501.39
473.983	11566.93
474.188	11648.85
474.393	10987.35
474.598	11157.33
474.802	11018.07
475.007	10608.48
475.212	10690.4
475.417	10477.41
475.621	10381.15
475.826	10458.98
476.031	10297.19
476.235	9987.94
476.44	10200.93
476.645	9899.88
476.849	10125.16
477.054	9756.52
477.259	9758.57
477.463	9891.69
477.668	9553.77
477.872	9748.33
478.077	9445.23
478.282	9183.09
478.486	9199.48
478.691	9080.69
478.895	9129.84
479.1	9039.73
479.304	9170.8
479.509	8933.24
479.713	9039.73
479.918	8767.35
480.122	8611.71
480.326	8853.37
480.531	8693.63
480.735	8572.8
480.94	8486.78
481.144	8744.83
481.348	8306.56
481.553	8576.89
481.757	8490.88
481.961	8429.44
482.166	8535.93
482.37	8505.21
482.574	8376.19
482.778	8159.11
482.983	8441.73
483.187	8314.75
483.391	8259.46
483.595	8220.55
483.8	8298.37
484.004	8392.58
484.208	8480.64
484.412	8206.21
484.616	8431.49
484.821	8429.44
485.025	8216.45
485.229	8288.13
485.433	8167.3
485.637	8322.94
485.841	8230.79
486.045	8269.7
486.249	8265.6
486.453	8017.8
486.657	8218.5
486.861	8249.22
487.065	8060.81
487.269	8116.1
487.473	7917.45
487.677	8324.99
487.881	8249.22
488.085	8232.83
488.289	8269.7
488.493	8183.68
488.697	8085.38
488.901	8310.66
489.105	8232.83
489.309	8257.41
489.512	8265.6
489.716	8337.28
489.92	8447.87
490.124	8093.57
490.328	8251.27
490.531	8101.76
490.735	8308.61
490.939	8318.85
491.143	8263.55
491.346	8300.42
491.55	8331.14
491.754	8288.13
491.958	8476.54
492.161	8368
492.365	8447.87
492.569	8433.54
492.772	8480.64
492.976	8464.25
493.18	8454.01
493.383	8609.66
493.587	8519.55
493.79	8771.45
493.994	8845.18
494.197	8740.73
494.401	8890.23
494.605	8636.28
494.808	8984.44
495.012	8830.84
495.215	9105.27
495.419	9009.01
495.622	9031.54
495.825	9045.88
496.029	9027.45
496.232	9236.34
496.436	9404.27
496.639	9500.53
496.843	9531.25
497.046	9641.84
497.249	9705.32
497.453	9690.99
497.656	9602.93
497.859	9801.58
498.063	10026.85
498.266	10116.97
498.469	9977.7
498.673	10162.02
498.876	10547.04
499.079	10405.73
499.282	10348.39
499.485	10674.01
499.689	10731.36
499.892	10966.87
500.095	10821.47
500.298	11038.55
500.501	11009.88
500.705	11392.85
500.908	11181.91
501.111	11648.85
501.314	11609.93
501.517	11673.42
501.72	11835.21
501.923	11800.4
502.126	11845.45
502.329	12148.55
502.532	12173.13
502.735	12209.99
502.938	12422.98
503.141	12437.31
503.344	12674.88
503.547	12959.55
503.75	13010.75
503.953	13174.58
504.156	13207.35
504.359	12990.27
504.562	13199.16
504.765	13643.57
504.968	13545.27
505.17	13926.19
505.373	13889.32
505.576	14192.42
505.779	14393.12
505.982	14268.2
506.185	14331.69
506.387	14741.28
506.59	14614.3
506.793	14931.74
506.996	15027.99
507.198	15597.33
507.401	15251.22
507.604	15699.73
507.807	15838.99
508.009	15855.37
508.212	15871.76
508.415	16086.79
508.617	16555.78
508.82	16500.48
509.022	16322.31
509.225	16985.85
509.428	16789.25
509.63	16787.2
509.833	17276.66
510.035	17698.55
510.238	17395.45
510.44	17661.68
510.643	17872.62
510.845	18116.33
511.048	17825.52
511.25	18376.42
511.453	18507.49
511.655	19123.93
511.858	18876.13
512.06	18929.38
512.262	19377.88
512.465	18970.33
512.667	19515.09
512.87	19680.98
513.072	19721.94
513.274	20061.9
513.477	20045.52
513.679	20274.89
513.881	20666.05
514.084	20758.21
514.286	20893.38
514.488	20960.96
514.69	21687.99
514.893	21450.42
515.095	21597.88
515.297	21913.27
515.499	22105.77
515.701	22077.1
515.904	22486.7
516.106	22529.7
516.308	23006.88
516.51	23025.31
516.712	22892.19
516.914	23512.73
517.116	23725.72
517.318	23535.26
517.52	23680.66
517.722	23830.16
517.925	24399.5
518.127	24317.58
518.329	24635.02
518.531	24618.63
518.733	24901.25
518.935	25015.94
519.136	25257.6
519.338	25439.87
519.54	25292.41
519.742	25708.15
519.944	25792.12
520.146	26021.49
520.348	26363.5
520.55	26357.36
520.752	26760.81
520.954	26977.89
521.155	26812.01
521.357	26926.69
521.559	27100.77
521.761	27397.73
521.963	27278.94
522.164	27280.99
522.366	27485.79
522.568	27844.18
522.77	28034.64
522.971	28413.52
523.173	28206.67
523.375	28272.21
523.576	27997.78
523.778	28085.84
523.98	28661.32
524.181	28739.15
524.383	28677.71
524.584	28780.1
524.786	28968.52
524.988	28661.32
525.189	29054.53
525.391	29003.33
525.592	29118.02
525.794	29550.14
525.995	28902.98
526.197	29310.53
526.398	29670.97
526.6	29464.13
526.801	29595.2
527.003	29560.38
527.204	29660.73
527.406	29734.46
527.607	29789.75
527.808	29869.62
528.01	29279.81
528.211	29486.65
528.412	30113.33
528.614	29994.55
528.815	29529.66
529.016	30299.7
529.218	29470.27
529.419	29564.48
529.62	29881.91
529.822	29728.31
530.023	30127.67
530.224	30107.19
530.425	30027.32
530.626	29576.76
530.828	29593.15
531.029	30117.43
531.23	29584.96
531.431	29554.24
531.632	29763.13
531.833	29640.25
532.035	29576.76
532.236	29345.34
532.437	29799.99
532.638	29396.54
532.839	29679.16
533.04	29484.61
533.241	29120.07
533.442	29652.54
533.643	29836.86
533.844	29290.05
534.045	29836.86
534.246	29390.4
534.447	29412.93
534.648	29062.72
534.849	29394.5
535.05	29077.06
535.251	29158.98
535.451	28968.52
535.652	29285.95
535.853	28853.83
536.054	29152.84
536.255	29457.98
536.456	28644.94
536.657	29259.33
536.857	28724.81
537.058	29029.96
537.259	29013.57
537.46	29070.92
537.66	28671.56
537.861	29066.82
538.062	28552.78
538.263	28872.26
538.463	28489.29
538.664	28839.5
538.865	28661.32
539.065	28943.94
539.266	28339.79
539.466	29005.38
539.667	28515.92
539.868	28673.61
540.068	28358.22
540.269	28341.84
540.469	28632.65
540.67	28337.74
540.87	28524.11
541.071	28393.04
541.271	28268.11
541.472	28096.08
541.672	28001.88
541.873	28311.12
542.073	28120.66
542.274	28251.73
542.474	28384.85
542.675	28091.99
542.875	28358.22
543.075	28184.15
543.276	27809.37
543.476	28440.14
543.676	27975.25
543.877	28376.65
544.077	28008.02
544.277	28208.72
544.478	27860.57
544.678	28239.44
544.878	27956.82
545.078	28044.88
545.279	27862.61
545.479	27745.88
545.679	27909.72
545.879	27780.7
546.079	28014.16
546.28	27883.09
546.48	27743.83
546.68	27856.47
546.88	27907.67
547.08	27559.52
547.28	27913.81
547.48	27745.88
547.68	27641.43
547.88	27917.91
548.081	28012.12
548.281	28184.15
548.481	27905.62
548.681	27731.54
548.881	28028.5
549.081	27903.57
549.28	27887.19
549.48	28221.01
549.68	27799.13
549.88	28284.5
550.08	27788.89
550.28	27905.62
550.48	28118.61
550.68	28229.2
550.88	27872.85
551.08	28008.02
551.279	27983.44
551.479	27580
551.679	28071.51
551.879	27981.4
552.079	28161.62
552.278	27782.74
552.478	27928.15
552.678	28231.25
552.878	28380.75
553.077	28075.6
553.277	28153.43
553.477	28208.72
553.676	28026.45
553.876	28319.31
554.076	28024.4
554.275	28216.91
554.475	28214.87
554.674	28364.37
554.874	28067.41
555.074	28413.52
555.273	28343.89
555.473	28413.52
555.672	28184.15
555.872	28268.11
556.071	28554.83
556.271	28522.06
556.47	28116.56
556.67	28227.15
556.869	28274.26
557.068	28536.4
557.268	28069.46
557.467	28194.39
557.667	28329.55
557.866	28546.64
558.065	28667.47
558.265	28360.27
558.464	28296.78
558.663	28581.45
558.863	28323.41
559.062	28765.77
559.261	28438.09
559.461	28407.37
559.66	27969.11
559.859	28692.04
560.058	28419.66
560.258	29003.33
560.457	28358.22
560.656	28917.32
560.855	28339.79
561.054	28556.88
561.253	28171.86
561.453	28296.78
561.652	28517.96
561.851	28694.09
562.05	28403.28
562.249	28356.18
562.448	28311.12
562.647	28208.72
562.846	28368.46
563.045	28182.1
563.244	28577.36
563.443	28251.73
563.642	27989.59
563.841	28221.01
564.04	28139.09
564.239	28491.34
564.438	27919.96
564.637	28393.04
564.836	28298.83
565.035	27995.73
565.234	28276.3
565.432	28278.35
565.631	27993.68
565.83	27989.59
566.029	27854.42
566.228	27981.4
566.427	28075.6
566.625	27782.74
566.824	27674.2
567.023	27758.17
567.222	27168.35
567.42	27463.26
567.619	27733.59
567.818	27491.93
568.016	27723.35
568.215	28030.55
568.414	27561.56
568.612	27469.4
568.811	27493.98
569.01	27348.57
569.208	27262.56
569.407	27393.63
569.605	26922.6
569.804	27276.9
570.002	26852.97
570.201	27201.12
570.4	27139.68
570.598	26848.87
570.797	26576.49
570.995	26748.52
571.193	26496.62
571.392	26646.12
571.59	26713.7
571.789	26766.95
571.987	26320.49
572.186	26037.87
572.384	26300.01
572.582	26445.42
572.781	26590.83
572.979	25986.68
573.177	26091.12
573.376	26191.47
573.574	25917.04
573.772	26080.88
573.971	25659
574.169	25691.77
574.367	25609.85
574.565	25560.7
574.763	25480.83
574.962	25349.76
575.16	25327.23
575.358	25269.89
575.556	25067.14
575.754	25312.89
575.952	24929.92
576.151	25267.84
576.349	24761.99
576.547	24934.02
576.745	25032.32
576.943	24710.79
577.141	24731.27
577.339	24745.61
577.537	24798.85
577.735	24499.85
577.933	24364.68
578.131	24657.54
578.329	24280.72
578.527	24268.43
578.725	24163.98
578.923	24198.8
579.121	23928.47
579.319	23969.43
579.516	24178.32
579.714	24092.3
579.912	24180.37
580.11	23510.68
580.308	23662.23
580.506	23869.08
580.704	23201.44
580.901	23506.59
581.099	23873.17
581.297	23234.21
581.495	23426.71
581.692	23471.77
581.89	23322.27
582.088	23217.82
582.285	22974.11
582.483	23402.14
582.681	23037.6
582.878	22683.3
583.076	22773.41
583.274	22900.39
583.471	22896.29
583.669	22716.07
583.866	22773.41
584.064	22580.9
584.262	22572.71
584.459	22644.39
584.657	22439.59
584.854	22797.99
585.052	22281.9
585.249	22263.47
585.447	22511.27
585.644	22126.25
585.841	21923.51
586.039	22300.33
586.236	21958.32
586.434	21765.81
586.631	22165.17
586.828	21972.66
587.026	21864.11
587.223	22292.14
587.42	21708.47
587.618	21808.82
587.815	21409.47
588.012	21681.85
588.21	21624.5
588.407	21898.93
588.604	21446.33
588.801	21221.05
588.999	21423.8
589.196	21487.29
589.393	21579.45
589.59	21157.57
589.787	21149.37
589.984	20936.38
590.182	21100.22
590.379	21135.04
590.576	20870.85
590.773	20979.39
590.97	20729.54
591.167	21167.81
591.364	20840.13
591.561	20885.19
591.758	20623.05
591.955	20555.46
592.152	20856.51
592.349	20874.95
592.546	20717.25
592.743	20797.12
592.94	20365
593.137	20745.92
593.334	20702.92
593.531	20436.68
593.727	20463.3
593.924	20625.09
594.121	20162.25
594.318	20856.51
594.515	19988.17
594.712	20539.08
594.908	20227.79
595.105	20780.74
595.302	20250.31
595.499	20205.26
595.696	20395.72
595.892	20127.44
596.089	20373.19
596.286	20240.08
596.482	20311.75
596.679	20119.24
596.876	20504.26
597.072	20297.42
597.269	20252.36
597.466	20444.87
597.662	20102.86
597.859	20553.41
598.055	20342.47
598.252	20246.22
598.448	20215.5
598.645	20295.37
598.841	20199.12
599.038	20365
599.234	20393.67
599.431	20162.25
599.627	20029.13
599.824	20350.67
600.02	20174.54
600.217	20602.57
600.413	20250.31
600.609	20066
600.806	20395.72
601.002	20328.14
601.198	20190.92
601.395	20180.68
601.591	20266.7
601.787	20125.39
601.984	20305.61
602.18	20643.52
602.376	20362.95
602.572	20416.2
602.769	20430.54
602.965	20066
603.161	20797.12
603.357	20410.06
603.553	20436.68
603.75	20518.6
603.946	20643.52
604.142	20588.23
604.338	20551.37
604.534	20451.02
604.73	20598.47
604.926	20731.59
605.122	20856.51
605.318	20643.52
605.514	20764.36
605.71	20827.84
605.906	20766.4
606.102	20629.19
606.298	20831.94
606.494	21415.61
606.69	21149.37
606.886	21112.51
607.082	20704.96
607.278	21225.15
607.474	21051.07
607.67	21206.72
607.866	21094.08
608.062	21661.37
608.257	21403.32
608.453	21239.48
608.649	21262.01
608.845	21270.2
609.041	21431.99
609.236	21667.51
609.432	21462.71
609.628	21806.77
609.824	21735.09
610.019	21743.28
610.215	21628.6
610.411	21964.46
610.606	21864.11
610.802	21647.03
610.998	21765.81
611.193	21941.94
611.389	21714.61
611.584	22187.69
611.78	21794.48
611.976	21958.32
612.171	22097.58
612.367	22116.01
612.562	22271.66
612.758	21659.32
612.953	22062.77
613.149	22214.32
613.344	22152.88
613.539	22527.66
613.735	22378.15
613.93	22251.18
614.126	22283.95
614.321	22552.23
614.517	22402.73
614.712	22347.43
614.907	22245.04
615.103	22853.28
615.298	22474.41
615.493	22763.17
615.688	22404.78
615.884	22789.8
616.079	22335.15
616.274	22711.97
616.47	22757.03
616.665	22605.48
616.86	22572.71
617.055	22173.36
617.25	22625.96
617.445	22949.54
617.641	22388.39
617.836	22892.19
618.031	22199.98
618.226	22861.48
618.421	22337.2
618.616	22595.24
618.811	22240.94
619.006	22503.08
619.201	22050.48
619.396	22400.68
619.591	21997.23
619.786	22294.19
619.981	22099.63
620.176	22275.76
620.371	21950.13
620.566	22142.64
620.761	22095.53
620.956	22329
621.151	21565.11
621.346	21782.2
621.541	21204.67
621.735	21708.47
621.93	21399.23
622.125	21501.62
622.32	21132.99
622.515	21239.48
622.709	21366.46
622.904	21284.54
623.099	20971.2
623.294	21192.38
623.488	20772.55
623.683	20920
623.878	20735.68
624.072	20686.53
624.267	20639.43
624.462	20508.36
624.656	20494.02
624.851	20233.93
625.046	20199.12
625.24	20174.54
625.435	19908.3
625.629	20080.33
625.824	19896.02
626.018	19945.17
626.213	19416.79
626.407	19912.4
626.602	19285.72
626.796	19521.24
626.991	19807.95
627.185	19523.29
627.38	19078.88
627.574	19091.16
627.768	18962.14
627.963	18876.13
628.157	18890.46
628.352	18878.18
628.546	18720.48
628.74	18910.94
628.935	18460.39
629.129	18724.58
629.323	18384.62
629.517	18325.22
629.712	18284.26
629.906	18079.47
630.1	17968.88
630.294	18196.2
630.489	17813.23
630.683	17950.45
630.877	17716.98
631.071	17510.13
631.265	17772.27
631.459	17526.52
631.653	17667.83
631.848	17370.87
632.042	17307.38
632.236	17317.62
632.43	17170.17
632.624	17053.44
632.818	16803.58
633.012	16635.65
633.206	16555.78
633.4	16459.52
633.594	16514.82
633.788	16434.95
633.982	16559.88
634.176	16727.81
634.369	16322.31
634.563	16121.61
634.757	15933.2
634.951	16310.02
635.145	16021.26
635.339	15963.92
635.533	15810.32
635.726	15695.63
635.92	15464.21
636.114	15392.53
636.308	15425.3
636.501	15146.78
636.695	15458.07
636.889	15154.97
637.083	15245.08
637.276	14978.84
637.47	14815.01
637.664	14888.73
637.857	14735.14
638.051	14733.09
638.244	14726.94
638.438	14780.19
638.632	14479.14
638.825	14311.21
639.019	14182.18
639.212	14149.42
639.406	14243.62
639.599	14282.53
639.793	13950.76
639.986	13756.21
640.18	14075.69
640.373	13846.32
640.567	13582.13
640.76	13664.05
640.954	13483.83
641.147	13373.24
641.34	13285.17
641.534	13242.17
641.727	13131.58
641.92	13121.34
642.114	13086.52
642.307	12705.6
642.5	12816.19
642.694	12566.34
642.887	12441.41
643.08	12717.89
643.273	12617.54
643.467	12281.67
643.66	12242.76
643.853	12316.48
644.046	11935.56
644.239	11939.66
644.432	12101.45
644.626	11937.61
644.819	11773.77
645.012	11849.55
645.205	11769.68
645.398	11685.71
645.591	11476.82
645.784	11405.14
645.977	11599.69
646.17	11388.75
646.363	11384.66
646.556	11218.77
646.749	11097.94
646.942	11124.57
647.135	10989.4
647.328	11108.18
647.521	11034.46
647.714	10786.65
647.907	10651.49
648.099	10698.59
648.292	10884.95
648.485	10784.6
648.678	10485.6
648.871	10518.37
649.064	10536.8
649.256	10329.95
649.449	10487.65
649.642	10098.53
649.835	10037.09
650.027	10237.8
650.22	10100.58
650.413	9959.27
650.605	10094.44
650.798	9754.48
650.991	9779.05
651.183	9944.94
651.376	9600.88
651.568	9846.63
651.761	9631.6
651.954	9662.32
652.146	9629.55
652.339	9340.79
652.531	9598.83
652.724	9281.39
652.916	9310.07
653.109	9224.05
653.301	9289.59
653.494	9289.59
653.686	8957.82
653.879	9301.87
654.071	9109.36
654.263	9004.92
654.456	9090.93
654.648	8984.44
654.84	8765.31
655.033	8707.96
655.225	8832.89
655.417	8382.34
655.61	8560.51
655.802	8568.7
655.994	8540.03
656.186	8574.85
656.379	8497.02
656.571	8458.11
656.763	8437.63
656.955	8189.83
657.148	8347.52
657.34	8281.99
657.532	8224.64
657.724	8134.53
657.916	8050.57
658.108	8040.33
658.3	7921.54
658.492	8146.82
658.684	7724.94
658.876	7870.34
659.068	7772.04
659.26	7851.91
659.452	7737.23
659.644	7643.02
659.836	7434.13
660.028	7733.13
660.22	7573.39
660.412	7585.68
660.604	7397.26
660.796	7311.25
660.988	7339.92
661.18	7380.88
661.372	7278.48
661.563	7380.88
661.755	7083.92
661.947	7278.48
662.139	6930.33
662.331	7192.47
662.522	7083.92
662.714	7135.12
662.906	6903.7
663.097	6905.75
663.289	6971.29
663.481	6819.74
663.673	6920.09
663.864	6768.54
664.056	6768.54
664.247	6725.53
664.439	6406.05
664.631	6727.58
664.822	6760.34
665.014	6582.17
665.205	6524.83
665.397	6508.44
665.588	6520.73
665.78	6277.02
665.971	6264.74
666.163	6383.52
666.354	6334.37
666.546	6287.26
666.737	6180.77
666.929	6201.25
667.12	6340.51
667.311	6012.84
667.503	6250.4
667.694	6266.78
667.885	5994.4
668.077	5879.72
668.268	5865.38
668.459	5930.92
668.651	5939.11
668.842	6033.32
669.033	5787.56
669.224	5799.85
669.416	5875.62
669.607	5738.41
669.798	5711.78
669.989	5844.9
670.18	5656.49
670.371	5599.15
670.563	5767.08
670.754	5590.95
670.945	5636.01
671.136	5713.83
671.327	5492.65
671.518	5611.43
671.709	5586.86
671.9	5640.11
672.091	5533.61
672.282	5463.98
672.473	5259.18
672.664	5578.67
672.855	5466.03
673.046	5517.23
673.237	5523.37
673.428	5314.48
673.619	5357.49
673.809	5351.34
674	5416.88
674.191	5300.14
674.382	5267.38
674.573	5210.03
674.764	5087.15
674.954	5267.38
675.145	5203.89
675.336	5191.6
675.527	5205.94
675.717	5314.48
675.908	5128.11
676.099	5005.24
676.289	5269.42
676.48	5132.21
676.671	5099.44
676.861	5115.83
677.052	5009.33
677.243	4978.61
677.433	4931.51
677.624	5076.91
677.814	4976.56
678.005	4919.22
678.195	5015.48
678.386	4818.87
678.576	4837.3
678.767	4808.63
678.957	4921.27
679.148	4964.28
679.338	5038
679.529	4792.25
679.719	4933.56
679.909	5058.48
680.1	4827.06
680.29	4841.4
680.481	4939.7
680.671	5056.43
680.861	4702.14
681.052	4906.93
681.242	4695.99
681.432	4888.5
681.622	4837.3
681.813	4992.95
682.003	4753.34
682.193	4960.18
682.383	4880.31
682.573	4843.45
682.764	4710.33
682.954	4796.34
683.144	4919.22
683.334	4810.68
683.524	4810.68
683.714	4847.54
683.904	4827.06
684.094	4788.15
684.284	4681.66
684.474	4759.48
684.664	4661.18
684.854	4829.11
685.044	4687.8
685.234	4788.15
685.424	4630.46
685.614	4687.8
685.804	4868.02
685.994	4702.14
686.184	4614.07
686.374	4745.14
686.564	4523.96
686.753	4769.72
686.943	4644.79
687.133	4657.08
687.323	4722.62
687.513	4679.61
687.702	4521.91
687.892	4605.88
688.082	4540.35
688.272	4581.31
688.461	4530.11
688.651	4689.85
688.841	4491.2
689.03	4456.38
689.22	4652.98
689.41	4501.44
689.599	4546.49
689.789	4540.35
689.979	4358.08
690.168	4595.64
690.358	4505.53
690.547	4296.64
690.737	4356.03
690.926	4569.02
691.116	4460.48
691.305	4542.39
691.495	4468.67
691.684	4374.46
691.874	4263.87
692.063	4431.8
692.252	4480.96
692.442	4333.5
692.631	4337.6
692.82	4302.78
693.01	4368.32
693.199	4358.08
693.388	4284.35
693.578	4153.28
693.767	4394.94
693.956	4370.37
694.146	4093.89
694.335	4192.19
694.524	4177.86
694.713	4186.05
694.902	4263.87
695.092	4155.33
695.281	4138.94
695.47	4175.81
695.659	4276.16
695.848	4286.4
696.037	4153.28
696.226	4247.49
696.415	4071.36
696.604	4194.24
696.793	4167.62
696.982	4153.28
697.171	4200.38
697.36	4032.45
697.549	4030.4
697.738	4120.51
697.927	3956.68
698.116	4087.75
698.305	4247.49
698.494	4102.08
698.683	4030.4
698.872	4173.76
699.061	3942.34
699.25	3968.96
699.438	3944.39
699.627	3944.39
699.816	3895.24
700.005	3989.44
700.193	4120.51
700.382	3964.87
700.571	3907.52
700.76	3885
700.948	3944.39
701.137	3860.42
701.326	3844.04
701.514	3899.33
701.703	3932.1
701.892	3860.42
702.08	4163.52
702.269	3770.31
702.457	3776.45
702.646	3819.46
702.834	3844.04
703.023	3872.71
703.212	3866.56
703.4	3915.72
703.589	3792.84
703.777	3907.52
703.965	3710.92
704.154	3778.5
704.342	3645.38
704.531	3852.23
704.719	3678.15
704.907	3796.93
705.096	3608.52
705.284	3717.06
705.472	3678.15
705.661	3669.96
705.849	3614.66
706.037	3579.85
706.226	3669.96
706.414	3708.87
706.602	3631.05
706.79	3665.86
706.979	3694.54
707.167	3604.42
707.355	3710.92
707.543	3506.12
707.731	3645.38
707.919	3571.66
708.107	3436.49
708.296	3538.89
708.484	3516.36
708.672	3450.83
708.86	3598.28
709.048	3456.97
709.236	3465.16
709.424	3475.4
709.612	3499.98
709.8	3420.11
709.988	3416.01
710.176	3366.86
710.364	3506.12
710.551	3399.63
710.739	3444.68
710.927	3428.3
711.115	3200.98
711.303	3403.72
711.491	3303.37
711.679	3327.95
711.866	3254.22
712.054	3254.22
712.242	3278.8
712.43	3452.88
712.617	3284.94
712.805	3346.38
712.993	3383.24
713.181	3219.41
713.368	3252.17
713.556	3293.13
713.744	3303.37
713.931	3358.67
714.119	3194.83
714.306	3243.98
714.494	3235.79
714.682	3196.88
714.869	3039.19
715.057	3121.1
715.244	3182.54
715.432	3235.79
715.619	3188.69
715.807	3014.61
715.994	3094.48
716.182	3205.07
716.369	3080.14
716.556	3149.78
716.744	2949.07
716.931	3082.19
717.119	3018.71
717.306	3131.34
717.493	3067.86
717.681	3049.43
717.868	3063.76
718.055	3030.99
718.242	3018.71
718.43	2949.07
718.617	2992.08
718.804	3057.62
718.991	3117.01
719.179	3090.38
719.366	2973.65
719.553	3010.51
719.74	3018.71
719.927	2867.16
720.114	2936.79
720.301	2834.39
720.488	2844.63
720.676	2844.63
720.863	2998.23
721.05	2879.44
721.237	2975.7
721.424	2920.4
721.611	2910.16
721.798	2852.82
721.985	2799.57
722.172	2754.52
722.358	2693.08
722.545	2785.24
722.732	2748.37
722.919	2881.49
723.106	2607.06
723.293	2785.24
723.48	2785.24
723.667	2666.46
723.853	2789.33
724.04	2787.29
724.227	2697.17
724.414	2711.51
724.6	2703.32
724.787	2715.61
724.974	2729.94
725.161	2717.65
725.347	2584.54
725.534	2617.3
725.72	2707.41
725.907	2658.26
726.094	2699.22
726.28	2672.6
726.467	2605.02
726.653	2678.74
726.84	2658.26
727.027	2588.63
727.213	2631.64
727.4	2633.69
727.586	2623.45
727.773	2547.67
727.959	2519
728.145	2605.02
728.332	2420.7
728.518	2551.77
728.705	2645.98
728.891	2473.95
729.077	2625.5
729.264	2574.3
729.45	2596.82
729.636	2615.26
729.823	2387.93
730.009	2633.69
730.195	2629.59
730.382	2471.9
730.568	2432.99
730.754	2383.84
730.94	2457.56
731.126	2461.66
731.313	2490.33
731.499	2473.95
731.685	2396.12
731.871	2535.39
732.057	2443.23
732.243	2457.56
732.429	2359.26
732.615	2410.46
732.801	2383.84
732.987	2404.32
733.173	2355.16
733.359	2269.15
733.545	2265.05
733.731	2377.69
733.917	2318.3
734.103	2375.64
734.289	2334.68
734.475	2396.12
734.661	2367.45
734.847	2265.05
735.033	2330.59
735.219	2306.01
735.404	2271.2
735.59	2310.11
735.776	2301.92
735.962	2299.87
736.148	2240.48
736.333	2316.25
736.519	2211.81
736.705	2297.82
736.89	2232.29
737.076	2285.53
737.262	2197.47
737.447	2236.38
737.633	2252.77
737.819	2336.73
738.004	2289.63
738.19	2136.03
738.375	2263.01
738.561	2191.33
738.747	2197.47
738.932	2090.98
739.118	2170.85
739.303	2187.23
739.489	2215.9
739.674	2074.59
739.859	2115.55
740.045	2113.5
740.23	2039.78
740.416	2080.74
740.601	2025.44
740.786	2111.46
740.972	2041.82
741.157	1941.47
741.342	1941.47
741.528	2023.39
741.713	1966.05
741.898	2041.82
742.084	1951.71
742.269	2050.02
742.454	2039.78
742.639	2035.68
742.824	1916.9
743.01	2070.5
743.195	2088.93
743.38	1957.86
743.565	2064.35
743.75	1949.67
743.935	2009.06
744.12	1925.09
744.305	1943.52
744.49	1968.1
744.675	1802.21
744.86	1875.94
745.045	1859.56
745.23	1853.41
745.415	1859.56
745.6	1867.75
745.785	1785.83
745.97	2041.82
746.155	1710.05
746.34	1753.06
746.525	1781.73
746.71	1732.58
746.895	1728.49
747.079	1714.15
747.264	1736.68
747.449	1777.64
747.634	1679.33
747.819	1728.49
748.003	1695.72
748.188	1611.75
748.373	1669.09
748.557	1615.85
748.742	1624.04
748.927	1634.28
749.111	1525.74
749.296	1671.14
749.481	1662.95
749.665	1607.66
749.85	1566.7
750.034	1665
750.219	1527.78
750.404	1495.02
750.588	1527.78
750.773	1527.78
750.957	1511.4
751.141	1564.65
751.326	1542.12
751.51	1544.17
751.695	1576.94
751.879	1417.19
752.064	1490.92
752.248	1533.93
752.432	1447.91
752.617	1513.45
752.801	1443.82
752.985	1378.28
753.17	1519.59
753.354	1355.76
753.538	1458.15
753.722	1351.66
753.907	1384.43
754.091	1322.99
754.275	1372.14
754.459	1247.21
754.643	1296.36
754.828	1409
755.012	1322.99
755.196	1413.1
755.38	1322.99
755.564	1198.06
755.748	1380.33
755.932	1257.45
756.116	1347.56
756.3	1155.05
756.484	1284.08
756.668	1187.82
756.852	1220.59
757.036	1187.82
757.22	1206.25
757.404	1118.19
757.588	1181.68
757.772	1232.88
757.956	1130.48
758.14	1351.66
758.323	1015.79
758.507	1187.82
758.691	1130.48
758.875	1114.09
759.059	1157.1
759.242	1107.95
759.426	1142.77
759.61	1097.71
759.794	1007.6
759.977	1212.4
760.161	1181.68
760.345	1187.82
760.528	1077.23
760.712	1173.49
760.895	925.68
761.079	1013.74
761.263	1032.18
761.446	1040.37
761.63	1073.14
761.813	976.88
761.997	956.4
762.18	958.45
762.364	1056.75
762.547	950.26
762.731	1007.6
762.914	978.93
763.098	974.83
763.281	935.92
763.464	1040.37
763.648	905.2
763.831	917.49
764.015	974.83
764.198	966.64
764.381	909.3
764.564	999.41
764.748	899.06
764.931	1017.84
765.114	907.25
765.297	1044.46
765.481	917.49
765.664	937.97
765.847	884.72
766.03	946.16
766.213	925.68
766.397	942.07
766.58	825.33
766.763	919.54
766.946	909.3
767.129	927.73
767.312	937.97
767.495	925.68
767.678	864.24
767.861	817.14
768.044	890.87
768.227	927.73
768.41	786.42
768.593	813.04
768.776	897.01
768.959	884.72
769.142	911.35
769.324	829.43
769.507	815.09
769.69	780.28
769.873	839.67
770.056	870.39
770.239	778.23
770.421	880.63
770.604	835.57
770.787	753.65
770.97	759.8
771.152	835.57
771.335	767.99
771.518	780.28
771.7	856.05
771.883	866.29
772.066	802.8
772.248	684.02
772.431	835.57
772.613	763.89
772.796	679.93
772.978	845.81
773.161	808.95
773.343	798.71
773.526	700.41
773.708	712.69
773.891	712.69
774.073	677.88
774.256	737.27
774.438	727.03
774.621	753.65
774.803	737.27
774.985	698.36
775.168	753.65
775.35	724.98
775.532	712.69
775.715	630.77
775.897	714.74
776.079	712.69
776.261	712.69
776.444	647.16
776.626	624.63
776.808	688.12
776.99	663.54
777.173	610.29
777.355	690.17
777.537	690.17
777.719	649.21
777.901	645.11
778.083	614.39
778.265	612.34
778.447	616.44
778.629	665.59
778.811	649.21
778.993	653.3
779.175	602.1
779.357	663.54
779.539	536.57
779.721	673.78
779.903	708.6
780.085	530.42
780.267	548.86
780.449	610.29
780.631	679.93
780.812	684.02
780.994	610.29
781.176	643.06
781.358	555
781.54	518.14
781.721	577.53
781.903	493.56
782.085	557.05
782.267	600.05
782.448	485.37
782.63	507.9
782.812	542.71
782.993	507.9
783.175	507.9
783.357	505.85
783.538	509.94
783.72	356.35
783.901	495.61
784.083	452.6
784.264	630.77
784.446	507.9
784.627	438.27
784.809	460.79
784.99	360.44
785.172	507.9
785.353	462.84
785.535	503.8
785.716	479.22
785.897	393.21
786.079	440.31
786.26	540.66
786.441	450.55
786.623	352.25
786.804	327.67
786.985	475.13
787.167	434.17
787.348	450.55
787.529	428.03
787.71	409.59
787.891	428.03
788.073	387.07
788.254	362.49
788.435	454.65
788.616	382.97
788.797	436.22
788.978	407.55
789.159	313.34
789.34	352.25
789.522	382.97
789.703	385.02
789.884	442.36
790.065	428.03
790.246	380.92
790.427	385.02
790.607	362.49
790.788	317.44
790.969	333.82
791.15	364.54
791.331	286.72
791.512	362.49
791.693	356.35
791.874	393.21
792.054	333.82
792.235	366.59
792.416	307.2
792.597	301.05
792.778	370.68
792.958	313.34
793.139	335.87
793.32	311.29
793.5	247.8
793.681	372.73
793.862	374.78
794.042	270.33
794.223	262.14
794.404	301.05
794.584	270.33
794.765	360.44
794.945	278.52
795.126	344.06
795.306	331.77
795.487	305.15
795.667	292.86
795.848	323.58
796.028	274.43
796.209	305.15
796.389	378.87
796.57	284.67
796.75	196.6
796.93	325.63
797.111	311.29
797.291	196.6
797.471	313.34
797.652	212.99
797.832	229.37
798.012	290.81
798.192	270.33
798.373	212.99
798.553	249.85
798.733	245.76
798.913	200.7
799.093	274.43
799.274	253.95
799.454	272.38
799.634	286.72
799.814	206.84
799.994	245.76
800.174	206.84
800.354	258.04
800.534	172.03
800.714	196.6
800.894	239.61
801.074	131.07
801.254	231.42
801.434	237.56
801.614	245.76
801.794	264.19
801.974	974.83
802.154	258.04
802.334	229.37
802.514	155.65
802.693	172.03
802.873	352.25
803.053	270.33
803.233	264.19
803.413	196.6
803.592	143.36
803.772	165.89
803.952	196.6
804.131	206.84
804.311	196.6
804.491	225.28
804.67	159.74
804.85	202.75
805.03	270.33
805.209	278.52
805.389	180.22
805.568	223.23
805.748	139.26
805.928	167.93
806.107	253.95
806.287	182.27
806.466	196.6
806.646	172.03
806.825	180.22
807.004	188.41
807.184	124.93
807.363	188.41
807.543	204.8
807.722	174.08
807.901	212.99
808.081	221.18
808.26	40.96
808.439	141.31
808.619	163.84
808.798	245.76
808.977	172.03
809.156	180.22
809.336	215.04
809.515	139.26
809.694	180.22
809.873	190.46
810.052	215.04
810.231	180.22
810.411	235.52
810.59	165.89
810.769	233.47
810.948	204.8
811.127	167.93
811.306	122.88
811.485	77.82
811.664	120.83
811.843	192.51
812.022	159.74
812.201	124.93
812.38	155.65
812.559	196.6
812.737	188.41
812.916	120.83
813.095	69.63
813.274	102.4
813.453	188.41
813.632	196.6
813.811	149.5
813.989	55.3
814.168	264.19
814.347	98.3
814.526	217.08
814.704	206.84
814.883	204.8
815.062	81.92
815.24	147.45
815.419	106.49
815.598	157.69
815.776	135.17
815.955	102.4
816.133	147.45
816.312	163.84
816.49	188.41
816.669	151.55
816.847	75.77
817.026	141.31
817.204	141.31
817.383	124.93
817.561	92.16
817.74	102.4
817.918	129.02
818.097	98.3
818.275	49.15
818.453	40.96
818.632	110.59
818.81	135.17
818.988	57.34
819.167	155.65
819.345	120.83
819.523	32.77
819.701	81.92
819.879	188.41
820.058	180.22
820.236	98.3
820.414	139.26
820.592	116.73
820.77	65.53
820.948	92.16
821.127	114.69
821.305	157.69
821.483	94.21
821.661	118.78
821.839	57.34
822.017	98.3
822.195	90.11
822.373	116.73
822.551	176.13
822.729	106.49
822.907	163.84
823.085	116.73
823.262	92.16
823.44	106.49
823.618	32.77
823.796	98.3
823.974	59.39
824.152	102.4
824.329	157.69
824.507	155.65
824.685	94.21
824.863	57.34
825.04	135.17
825.218	147.45
825.396	106.49
825.574	98.3
825.751	51.2
825.929	28.67
826.107	98.3
826.284	92.16
826.462	126.97
826.639	108.54
826.817	40.96
826.994	61.44
827.172	51.2
827.349	124.93
827.527	96.25
827.704	137.21
827.882	147.45
828.059	16.38
828.237	83.97
828.414	94.21
828.591	-28.67
828.769	106.49
828.946	59.39
829.124	92.16
829.301	172.03
829.478	157.69
829.655	4.1
829.833	83.97
830.01	51.2
830.187	43.01
830.364	67.58
830.542	59.39
830.719	135.17
830.896	157.69
831.073	34.82
831.25	114.69
831.427	116.73
831.604	83.97
831.782	61.44
831.959	126.97
832.136	59.39
832.313	75.77
832.49	28.67
832.667	81.92
832.844	-2.05
833.021	143.36
833.198	26.62
833.374	151.55
833.551	108.54
833.728	8.19
833.905	69.63
834.082	8.19
834.259	110.59
834.436	49.15
834.612	16.38
834.789	145.41
834.966	59.39
835.143	59.39
835.319	26.62
835.496	49.15
835.673	73.73
835.85	137.21
836.026	106.49
836.203	124.93
836.38	38.91
836.556	65.53
836.733	139.26
836.909	53.25
837.086	8.19
837.262	57.34
837.439	63.49
837.616	59.39
837.792	96.25
837.968	92.16
838.145	8.19
838.321	106.49
838.498	108.54
838.674	0
838.851	116.73
839.027	77.82
839.203	75.77
839.38	81.92
839.556	122.88
839.732	59.39
839.909	112.64
840.085	90.11
840.261	12.29
840.437	24.58
840.614	32.77
840.79	79.87
840.966	65.53
841.142	86.01
841.318	79.87
841.494	24.58
841.671	86.01
841.847	-8.19
842.023	49.15
842.199	88.06
842.375	106.49
842.551	43.01
842.727	65.53
842.903	100.35
843.079	2.05
843.255	137.21
843.431	67.58
843.607	26.62
843.783	0
843.959	57.34
844.134	53.25
844.31	40.96
844.486	55.3
844.662	43.01
844.838	57.34
845.013	24.58
845.189	90.11
845.365	36.86
845.541	65.53
845.716	40.96
845.892	40.96
846.068	16.38
846.244	-4.1
846.419	75.77
846.595	36.86
846.77	45.06
846.946	32.77
847.122	81.92
847.297	40.96
847.473	81.92
847.648	-16.38
847.824	24.58
847.999	-6.14
848.175	26.62
848.35	94.21
848.526	45.06
848.701	81.92
848.876	67.58
849.052	182.27
849.227	43.01
849.403	49.15
849.578	20.48
849.753	-8.19
849.929	92.16
850.104	24.58
850.279	24.58
850.454	69.63
850.63	57.34
850.805	81.92
850.98	-26.62
851.155	69.63
851.33	126.97
851.505	40.96
851.681	133.12
851.856	88.06
852.031	40.96
852.206	20.48
852.381	28.67
852.556	-8.19
852.731	36.86
852.906	61.44
853.081	38.91
853.256	30.72
853.431	16.38
853.606	12.29
853.781	-49.15
853.956	-34.82
854.131	53.25
854.305	0
854.48	32.77
854.655	28.67
854.83	65.53
855.005	20.48
855.18	36.86
855.354	-14.34
855.529	49.15
855.704	-36.86
855.879	-14.34
856.053	2.05
856.228	-6.14
856.403	36.86
856.577	40.96
856.752	-24.58
856.926	2.05
857.101	32.77
857.276	16.38
857.45	49.15
857.625	65.53
857.799	32.77
857.974	94.21
858.148	-24.58
858.323	90.11
858.497	-51.2
858.672	-16.38
858.846	-30.72
859.02	65.53
859.195	-12.29
859.369	-6.14
859.543	24.58
859.718	-4.1
859.892	-32.77
860.066	67.58
860.241	-22.53
860.415	-32.77
860.589	43.01
860.763	0
860.938	-12.29
861.112	32.77
861.286	-8.19
861.46	-16.38
861.634	-53.25
861.808	81.92
861.982	92.16
862.157	16.38
862.331	36.86
862.505	-24.58
862.679	-67.58
862.853	6.14
863.027	-16.38
863.201	30.72
863.375	49.15
863.549	67.58
863.722	49.15
863.896	59.39
864.07	28.67
864.244	-2.05
864.418	71.68
864.592	49.15
864.766	0
864.939	-30.72
865.113	2.05
865.287	-65.54
865.461	8.19
865.634	20.48
865.808	40.96
865.982	22.53
866.156	-79.87
866.329	-49.15
866.503	-2.05
866.676	36.86
866.85	-30.72
867.024	57.34
867.197	81.92
867.371	-4.1
867.544	18.43
867.718	10.24
867.891	32.77
868.065	45.06
868.238	-16.38
868.412	49.15
868.585	-4.1
868.759	26.62
868.932	-30.72
869.105	-22.53
869.279	-40.96
869.452	-4.1
869.625	63.49
869.799	51.2
869.972	81.92
870.145	90.11
870.319	12.29
870.492	47.1
870.665	-6.14
870.838	-104.45
871.011	-73.73
871.185	4.1
871.358	40.96
871.531	24.58
871.704	4.1
871.877	57.34
872.05	8.19
872.223	24.58
872.396	18.43
872.569	0
872.742	-16.38
872.915	-40.96
873.088	18.43
873.261	26.62
873.434	40.96
873.607	34.82
873.78	106.49
873.953	-14.34
874.126	49.15
874.299	-20.48
874.471	-22.53
874.644	-18.43
874.817	-20.48
874.99	57.34
875.163	-22.53
875.335	40.96
875.508	-8.19
875.681	114.69
875.853	65.53
876.026	32.77
876.199	-6.14
876.371	45.06
876.544	24.58
876.717	6.14
876.889	-8.19
877.062	10.24
877.234	-6.14
877.407	24.58
877.579	2.05
877.752	77.82
877.924	-49.15
878.097	8.19
878.269	18.43
878.442	0
878.614	43.01
878.786	94.21
878.959	-53.25
879.131	67.58
879.303	-28.67
879.476	8.19
879.648	73.73
879.82	26.62
879.993	-14.34
880.165	-32.77
880.337	-6.14
880.509	26.62
880.681	-55.3
880.854	20.48
881.026	6.14
881.198	81.92
881.37	4.1
881.542	26.62
881.714	28.67
881.886	8.19
882.058	40.96
882.23	57.34
882.402	-16.38
882.574	40.96
882.746	-28.67
882.918	106.49
883.09	-20.48
883.262	18.43
883.434	32.77
883.606	-16.38
883.778	12.29
883.95	49.15
884.122	-28.67
884.293	2.05
884.465	-73.73
884.637	20.48
884.809	-57.34
884.98	57.34
885.152	-24.58
885.324	75.77
885.496	22.53
885.667	8.19
885.839	32.77
886.011	12.29
886.182	-12.29
886.354	69.63
886.525	-49.15
886.697	34.82
886.869	-79.87
887.04	-16.38
887.212	129.02
887.383	96.25
887.555	-6.14
887.726	30.72
887.897	10.24
888.069	-8.19
888.24	24.58
888.412	18.43
888.583	24.58
888.754	34.82
888.926	8.19
889.097	38.91
889.268	-61.44
889.44	-24.58
889.611	-63.49
889.782	67.58
889.953	-61.44
890.125	24.58
890.296	-18.43
890.467	36.86
890.638	-6.14
890.809	32.77
890.98	16.38
891.151	86.01
891.323	16.38
891.494	8.19
891.665	-32.77
891.836	40.96
892.007	26.62
892.178	16.38
892.349	73.73
892.52	8.19
892.691	-24.58
892.862	22.53
893.032	-63.49
893.203	-8.19
893.374	0
893.545	40.96
893.716	16.38
893.887	65.53
894.057	-47.1
894.228	-6.14
894.399	34.82
894.57	-14.34
894.74	98.3
894.911	79.87
895.082	77.82
895.253	-14.34
895.423	-47.1
895.594	-45.06
895.764	-14.34
895.935	-16.38
896.106	-8.19
896.276	43.01
896.447	22.53
896.617	28.67
896.788	-8.19
896.958	-30.72
897.129	-30.72
897.299	10.24
897.47	36.86
897.64	-22.53
897.81	-36.86
897.981	-26.62
898.151	-36.86
898.322	16.38
898.492	-40.96
898.662	-8.19
898.832	-20.48
899.003	36.86
899.173	-38.91
899.343	-24.58
899.513	-28.67
