Data from USB4F104151__158__14-32-02-572.txt Node

Date: Thu Mar 13 14:32:02 EDT 2025
User: louis
Spectrometer: USB4F10415
Trigger mode: 4
Integration Time (sec): 2.500000E-2
Scans to average: 1
Electric dark correction enabled: true
Nonlinearity correction enabled: false
Boxcar width: 0
XAxis mode: Wavelengths
Number of Pixels in Spectrum: 3648
>>>>>Begin Spectral Data<<<<<
178.204	-149.33
178.424	-149.33
178.644	-149.33
178.864	-145.24
179.084	-100.18
179.304	-5.97
179.524	-1.88
179.744	16.55
179.964	-10.07
180.184	-10.07
180.404	-40.79
180.624	32.94
180.844	-34.64
181.064	-69.46
181.283	69.8
181.503	6.31
181.723	47.27
181.943	-57.17
182.163	90.28
182.383	8.36
182.602	82.09
182.822	75.95
183.042	88.23
183.262	8.36
183.482	59.56
183.701	-24.4
183.921	80.04
184.141	-28.5
184.361	53.42
184.58	-42.84
184.8	-1.88
185.02	0.17
185.239	98.47
185.459	-8.02
185.679	41.13
185.898	-85.84
186.118	51.37
186.338	47.27
186.557	131.24
186.777	-42.84
186.997	30.89
187.216	75.95
187.436	137.38
187.655	86.19
187.875	24.75
188.095	24.75
188.314	10.41
188.534	121
188.753	14.51
188.973	18.6
189.192	82.09
189.412	98.47
189.631	30.89
189.851	8.36
190.07	67.75
190.29	45.23
190.509	47.27
190.729	37.03
190.948	123.05
191.168	186.54
191.387	92.33
191.607	-1.88
191.826	-28.5
192.045	63.66
192.265	80.04
192.484	51.37
192.704	8.36
192.923	-65.36
193.142	137.38
193.362	37.03
193.581	49.32
193.8	-16.21
194.02	22.7
194.239	57.51
194.458	63.66
194.678	10.41
194.897	-18.26
195.116	8.36
195.335	30.89
195.555	2.22
195.774	-26.45
195.993	86.19
196.212	51.37
196.432	-34.64
196.651	-59.22
196.87	10.41
197.089	151.72
197.308	34.99
197.528	47.27
197.747	22.7
197.966	-8.02
198.185	116.9
198.404	-34.64
198.623	-18.26
198.842	63.66
199.062	-5.97
199.281	39.08
199.5	26.79
199.719	59.56
199.938	84.14
200.157	77.99
200.376	84.14
200.595	73.9
200.814	-28.5
201.033	49.32
201.252	67.75
201.471	53.42
201.69	90.28
201.909	0.17
202.128	67.75
202.347	2.22
202.566	88.23
202.785	-26.45
203.004	92.33
203.223	104.62
203.442	75.95
203.661	47.27
203.879	41.13
204.098	12.46
204.317	39.08
204.536	147.62
204.755	24.75
204.974	80.04
205.193	41.13
205.411	125.1
205.63	24.75
205.849	-14.17
206.068	0.17
206.287	55.47
206.505	131.24
206.724	80.04
206.943	-8.02
207.162	8.36
207.381	30.89
207.599	39.08
207.818	65.71
208.037	-18.26
208.255	2.22
208.474	55.47
208.693	151.72
208.911	63.66
209.13	12.46
209.349	102.57
209.567	14.51
209.786	51.37
210.005	98.47
210.223	49.32
210.442	47.27
210.661	22.7
210.879	22.7
211.098	59.56
211.316	92.33
211.535	112.81
211.753	41.13
211.972	116.9
212.191	39.08
212.409	61.61
212.628	6.31
212.846	-26.45
213.065	71.85
213.283	65.71
213.502	14.51
213.72	104.62
213.938	10.41
214.157	16.55
214.375	86.19
214.594	63.66
214.812	-10.07
215.031	14.51
215.249	26.79
215.467	10.41
215.686	24.75
215.904	71.85
216.122	55.47
216.341	14.51
216.559	-26.45
216.778	137.38
216.996	22.7
217.214	39.08
217.432	-22.36
217.651	28.84
217.869	-18.26
218.087	75.95
218.306	-8.02
218.524	100.52
218.742	49.32
218.96	71.85
219.179	16.55
219.397	47.27
219.615	77.99
219.833	137.38
220.051	-26.45
220.27	82.09
220.488	71.85
220.706	71.85
220.924	-10.07
221.142	59.56
221.36	16.55
221.578	47.27
221.796	57.51
222.015	59.56
222.233	34.99
222.451	118.95
222.669	-14.17
222.887	30.89
223.105	14.51
223.323	30.89
223.541	16.55
223.759	104.62
223.977	24.75
224.195	123.05
224.413	112.81
224.631	6.31
224.849	71.85
225.067	39.08
225.285	16.55
225.503	47.27
225.721	-18.26
225.939	-1.88
226.157	22.7
226.375	137.38
226.592	-42.84
226.81	-10.07
227.028	30.89
227.246	153.77
227.464	30.89
227.682	90.28
227.9	112.81
228.117	112.81
228.335	4.27
228.553	34.99
228.771	-22.36
228.989	47.27
229.206	20.65
229.424	49.32
229.642	30.89
229.86	-16.21
230.077	90.28
230.295	63.66
230.513	18.6
230.731	8.36
230.948	57.51
231.166	96.43
231.384	39.08
231.601	116.9
231.819	88.23
232.037	80.04
232.254	20.65
232.472	57.51
232.689	30.89
232.907	39.08
233.125	47.27
233.342	39.08
233.56	12.46
233.777	-10.07
233.995	55.47
234.213	-1.88
234.43	30.89
234.648	59.56
234.865	63.66
235.083	71.85
235.3	39.08
235.518	0.17
235.735	98.47
235.953	57.51
236.17	26.79
236.388	77.99
236.605	80.04
236.822	51.37
237.04	30.89
237.257	26.79
237.475	82.09
237.692	-14.17
237.909	32.94
238.127	-1.88
238.344	45.23
238.562	24.75
238.779	102.57
238.996	-51.03
239.214	37.03
239.431	6.31
239.648	-14.17
239.865	-67.41
240.083	41.13
240.3	20.65
240.517	43.18
240.735	-10.07
240.952	-5.97
241.169	34.99
241.386	73.9
241.603	22.7
241.821	-18.26
242.038	77.99
242.255	41.13
242.472	18.6
242.689	41.13
242.907	69.8
243.124	32.94
243.341	73.9
243.558	51.37
243.775	30.89
243.992	6.31
244.209	-42.84
244.426	104.62
244.643	96.43
244.86	30.89
245.078	112.81
245.295	104.62
245.512	65.71
245.729	55.47
245.946	47.27
246.163	67.75
246.38	71.85
246.597	-10.07
246.814	32.94
247.031	-55.12
247.248	102.57
247.464	75.95
247.681	32.94
247.898	-8.02
248.115	67.75
248.332	-26.45
248.549	47.27
248.766	110.76
248.983	24.75
249.2	30.89
249.417	22.7
249.633	-16.21
249.85	2.22
250.067	75.95
250.284	75.95
250.501	45.23
250.717	104.62
250.934	-10.07
251.151	39.08
251.368	18.6
251.585	-5.97
251.801	-36.69
252.018	18.6
252.235	82.09
252.451	-10.07
252.668	8.36
252.885	104.62
253.102	0.17
253.318	67.75
253.535	180.39
253.752	16.55
253.968	12.46
254.185	12.46
254.401	2.22
254.618	104.62
254.835	-26.45
255.051	32.94
255.268	47.27
255.484	57.51
255.701	-8.02
255.917	92.33
256.134	30.89
256.351	47.27
256.567	0.17
256.784	57.51
257	14.51
257.217	-67.41
257.433	92.33
257.65	65.71
257.866	61.61
258.082	63.66
258.299	37.03
258.515	-1.88
258.732	4.27
258.948	-38.74
259.165	24.75
259.381	32.94
259.597	6.31
259.814	2.22
260.03	-10.07
260.246	-18.26
260.463	121
260.679	100.52
260.895	137.38
261.112	-79.7
261.328	43.18
261.544	39.08
261.761	100.52
261.977	16.55
262.193	-24.4
262.409	51.37
262.626	-16.21
262.842	-48.98
263.058	20.65
263.274	82.09
263.49	32.94
263.707	65.71
263.923	30.89
264.139	47.27
264.355	51.37
264.571	88.23
264.787	-10.07
265.004	73.9
265.22	-10.07
265.436	59.56
265.652	39.08
265.868	131.24
266.084	-20.31
266.3	82.09
266.516	-42.84
266.732	80.04
266.948	110.76
267.164	10.41
267.38	100.52
267.596	49.32
267.812	88.23
268.028	63.66
268.244	-10.07
268.46	-22.36
268.676	63.66
268.892	57.51
269.108	18.6
269.324	39.08
269.54	-1.88
269.756	84.14
269.972	2.22
270.188	34.99
270.403	30.89
270.619	41.13
270.835	39.08
271.051	39.08
271.267	57.51
271.483	-14.17
271.698	43.18
271.914	63.66
272.13	26.79
272.346	49.32
272.562	114.86
272.777	80.04
272.993	-14.17
273.209	22.7
273.425	53.42
273.64	14.51
273.856	47.27
274.072	6.31
274.287	-18.26
274.503	55.47
274.719	88.23
274.934	-24.4
275.15	-46.93
275.366	75.95
275.581	14.51
275.797	14.51
276.012	22.7
276.228	73.9
276.444	-79.7
276.659	82.09
276.875	-1.88
277.09	57.51
277.306	65.71
277.521	55.47
277.737	-5.97
277.952	100.52
278.168	75.95
278.383	57.51
278.599	16.55
278.814	104.62
279.03	96.43
279.245	16.55
279.461	-1.88
279.676	22.7
279.892	12.46
280.107	-10.07
280.322	-1.88
280.538	55.47
280.753	22.7
280.969	84.14
281.184	16.55
281.399	2.22
281.615	-26.45
281.83	30.89
282.045	47.27
282.26	6.31
282.476	43.18
282.691	39.08
282.906	-1.88
283.122	71.85
283.337	34.99
283.552	14.51
283.767	65.71
283.983	108.71
284.198	96.43
284.413	8.36
284.628	-3.93
284.843	88.23
285.058	88.23
285.274	55.47
285.489	8.36
285.704	18.6
285.919	-16.21
286.134	-1.88
286.349	43.18
286.564	-1.88
286.779	178.34
286.995	135.34
287.21	24.75
287.425	96.43
287.64	37.03
287.855	14.51
288.07	18.6
288.285	129.19
288.5	57.51
288.715	114.86
288.93	63.66
289.145	10.41
289.36	14.51
289.575	12.46
289.79	53.42
290.004	57.51
290.219	116.9
290.434	22.7
290.649	59.56
290.864	30.89
291.079	30.89
291.294	30.89
291.509	75.95
291.724	57.51
291.938	22.7
292.153	65.71
292.368	41.13
292.583	30.89
292.798	100.52
293.012	55.47
293.227	22.7
293.442	45.23
293.657	41.13
293.871	121
294.086	43.18
294.301	80.04
294.516	71.85
294.73	49.32
294.945	2.22
295.16	-18.26
295.374	112.81
295.589	71.85
295.804	6.31
296.018	80.04
296.233	133.29
296.447	-1.88
296.662	6.31
296.877	67.75
297.091	51.37
297.306	77.99
297.52	24.75
297.735	55.47
297.949	39.08
298.164	10.41
298.378	-18.26
298.593	129.19
298.807	26.79
299.022	8.36
299.236	96.43
299.451	2.22
299.665	20.65
299.88	69.8
300.094	57.51
300.309	47.27
300.523	80.04
300.737	14.51
300.952	30.89
301.166	118.95
301.381	22.7
301.595	16.55
301.809	84.14
302.024	6.31
302.238	71.85
302.452	14.51
302.667	-40.79
302.881	90.28
303.095	73.9
303.309	22.7
303.524	39.08
303.738	18.6
303.952	2.22
304.166	88.23
304.381	22.7
304.595	41.13
304.809	-14.17
305.023	63.66
305.237	-22.36
305.452	22.7
305.666	22.7
305.88	47.27
306.094	71.85
306.308	73.9
306.522	161.96
306.736	55.47
306.95	104.62
307.164	90.28
307.379	20.65
307.593	84.14
307.807	22.7
308.021	49.32
308.235	18.6
308.449	-5.97
308.663	-38.74
308.877	96.43
309.091	22.7
309.305	100.52
309.519	-22.36
309.733	24.75
309.947	12.46
310.161	32.94
310.374	22.7
310.588	67.75
310.802	14.51
311.016	63.66
311.23	63.66
311.444	6.31
311.658	30.89
311.872	80.04
312.085	16.55
312.299	121
312.513	55.47
312.727	112.81
312.941	-71.51
313.154	41.13
313.368	41.13
313.582	84.14
313.796	6.31
314.009	-38.74
314.223	41.13
314.437	47.27
314.651	84.14
314.864	12.46
315.078	16.55
315.292	-18.26
315.505	57.51
315.719	129.19
315.933	49.32
316.146	59.56
316.36	-46.93
316.573	73.9
316.787	45.23
317.001	37.03
317.214	47.27
317.428	8.36
317.641	73.9
317.855	47.27
318.068	26.79
318.282	39.08
318.495	112.81
318.709	47.27
318.922	14.51
319.136	174.25
319.349	98.47
319.563	37.03
319.776	55.47
319.99	24.75
320.203	63.66
320.417	80.04
320.63	94.38
320.843	67.75
321.057	114.86
321.27	57.51
321.483	-26.45
321.697	63.66
321.91	-5.97
322.124	55.47
322.337	84.14
322.55	-36.69
322.763	-18.26
322.977	-14.17
323.19	41.13
323.403	47.27
323.617	6.31
323.83	49.32
324.043	4.27
324.256	30.89
324.469	71.85
324.683	47.27
324.896	114.86
325.109	32.94
325.322	6.31
325.535	114.86
325.748	71.85
325.962	12.46
326.175	-5.97
326.388	112.81
326.601	49.32
326.814	47.27
327.027	30.89
327.24	98.47
327.453	-69.46
327.666	63.66
327.879	153.77
328.092	80.04
328.305	73.9
328.518	-30.55
328.731	30.89
328.944	55.47
329.157	30.89
329.37	49.32
329.583	92.33
329.796	59.56
330.009	-67.41
330.222	96.43
330.435	2.22
330.648	39.08
330.861	30.89
331.073	96.43
331.286	22.7
331.499	88.23
331.712	80.04
331.925	92.33
332.138	69.8
332.35	51.37
332.563	47.27
332.776	116.9
332.989	80.04
333.202	41.13
333.414	-18.26
333.627	34.99
333.84	8.36
334.053	55.47
334.265	80.04
334.478	-14.17
334.691	-1.88
334.903	10.41
335.116	69.8
335.329	20.65
335.541	106.67
335.754	59.56
335.966	16.55
336.179	14.51
336.392	63.66
336.604	71.85
336.817	96.43
337.029	90.28
337.242	61.61
337.454	34.99
337.667	90.28
337.88	18.6
338.092	102.57
338.305	92.33
338.517	65.71
338.729	96.43
338.942	110.76
339.154	-16.21
339.367	-14.17
339.579	8.36
339.792	-24.4
340.004	26.79
340.217	71.85
340.429	88.23
340.641	16.55
340.854	47.27
341.066	10.41
341.278	55.47
341.491	96.43
341.703	43.18
341.915	14.51
342.128	90.28
342.34	-8.02
342.552	67.75
342.764	39.08
342.977	51.37
343.189	14.51
343.401	22.7
343.613	88.23
343.826	41.13
344.038	71.85
344.25	39.08
344.462	-51.03
344.674	100.52
344.886	53.42
345.099	75.95
345.311	75.95
345.523	26.79
345.735	-5.97
345.947	125.1
346.159	8.36
346.371	22.7
346.583	-8.02
346.795	63.66
347.007	92.33
347.219	92.33
347.431	49.32
347.643	69.8
347.855	26.79
348.067	65.71
348.279	30.89
348.491	88.23
348.703	82.09
348.915	45.23
349.127	10.41
349.339	22.7
349.551	73.9
349.763	59.56
349.975	43.18
350.187	112.81
350.399	92.33
350.61	100.52
350.822	63.66
351.034	88.23
351.246	20.65
351.458	82.09
351.669	63.66
351.881	82.09
352.093	47.27
352.305	49.32
352.517	75.95
352.728	129.19
352.94	80.04
353.152	30.89
353.363	32.94
353.575	49.32
353.787	172.2
353.999	88.23
354.21	100.52
354.422	49.32
354.633	86.19
354.845	57.51
355.057	125.1
355.268	80.04
355.48	30.89
355.692	6.31
355.903	14.51
356.115	24.75
356.326	-1.88
356.538	57.51
356.749	-1.88
356.961	63.66
357.172	125.1
357.384	34.99
357.595	73.9
357.807	75.95
358.018	104.62
358.23	121
358.441	73.9
358.653	77.99
358.864	71.85
359.075	59.56
359.287	65.71
359.498	131.24
359.709	63.66
359.921	-10.07
360.132	26.79
360.344	96.43
360.555	47.27
360.766	20.65
360.977	80.04
361.189	94.38
361.4	-5.97
361.611	82.09
361.823	82.09
362.034	92.33
362.245	63.66
362.456	96.43
362.667	151.72
362.879	34.99
363.09	86.19
363.301	92.33
363.512	51.37
363.723	75.95
363.935	14.51
364.146	47.27
364.357	92.33
364.568	106.67
364.779	24.75
364.99	22.7
365.201	37.03
365.412	133.29
365.623	22.7
365.834	39.08
366.045	34.99
366.256	39.08
366.467	24.75
366.678	43.18
366.889	116.9
367.1	51.37
367.311	108.71
367.522	63.66
367.733	24.75
367.944	114.86
368.155	22.7
368.366	39.08
368.577	77.99
368.788	131.24
368.999	0.17
369.209	-44.88
369.42	123.05
369.631	71.85
369.842	71.85
370.053	104.62
370.264	80.04
370.474	34.99
370.685	37.03
370.896	39.08
371.107	71.85
371.317	43.18
371.528	-12.12
371.739	98.47
371.95	-5.97
372.16	65.71
372.371	32.94
372.582	39.08
372.792	106.67
373.003	84.14
373.214	73.9
373.424	161.96
373.635	47.27
373.846	82.09
374.056	75.95
374.267	41.13
374.477	161.96
374.688	67.75
374.898	55.47
375.109	6.31
375.319	106.67
375.53	178.34
375.74	39.08
375.951	65.71
376.161	2.22
376.372	123.05
376.582	-14.17
376.793	73.9
377.003	10.41
377.214	55.47
377.424	67.75
377.635	22.7
377.845	-10.07
378.055	75.95
378.266	28.84
378.476	59.56
378.686	14.51
378.897	80.04
379.107	110.76
379.317	32.94
379.528	121
379.738	45.23
379.948	10.41
380.158	131.24
380.369	84.14
380.579	71.85
380.789	0.17
380.999	88.23
381.21	123.05
381.42	145.58
381.63	116.9
381.84	47.27
382.05	71.85
382.261	108.71
382.471	65.71
382.681	41.13
382.891	178.34
383.101	94.38
383.311	100.52
383.521	39.08
383.731	8.36
383.941	174.25
384.151	51.37
384.361	49.32
384.571	67.75
384.781	82.09
384.991	129.19
385.201	145.58
385.411	77.99
385.621	116.9
385.831	100.52
386.041	34.99
386.251	71.85
386.461	131.24
386.671	65.71
386.881	75.95
387.091	112.81
387.301	106.67
387.511	139.43
387.72	65.71
387.93	80.04
388.14	116.9
388.35	137.38
388.56	104.62
388.769	80.04
388.979	110.76
389.189	75.95
389.399	71.85
389.609	116.9
389.818	69.8
390.028	80.04
390.238	147.62
390.447	41.13
390.657	88.23
390.867	88.23
391.076	67.75
391.286	121
391.496	65.71
391.705	131.24
391.915	73.9
392.125	100.52
392.334	143.53
392.544	131.24
392.753	118.95
392.963	57.51
393.172	164.01
393.382	67.75
393.591	137.38
393.801	96.43
394.01	133.29
394.22	59.56
394.429	67.75
394.639	71.85
394.848	61.61
395.058	2.22
395.267	80.04
395.477	82.09
395.686	121
395.895	157.86
396.105	178.34
396.314	129.19
396.524	121
396.733	96.43
396.942	172.2
397.152	161.96
397.361	108.71
397.57	106.67
397.78	96.43
397.989	170.15
398.198	227.5
398.407	63.66
398.617	49.32
398.826	174.25
399.035	121
399.244	129.19
399.453	133.29
399.663	196.78
399.872	155.82
400.081	94.38
400.29	161.96
400.499	26.79
400.708	180.39
400.917	57.51
401.127	100.52
401.336	180.39
401.545	159.91
401.754	170.15
401.963	88.23
402.172	245.93
402.381	170.15
402.59	143.53
402.799	172.2
403.008	147.62
403.217	227.5
403.426	147.62
403.635	102.57
403.844	102.57
404.053	139.43
404.262	157.86
404.471	235.69
404.68	194.73
404.888	243.88
405.097	170.15
405.306	153.77
405.515	219.3
405.724	190.63
405.933	235.69
406.142	239.78
406.35	219.3
406.559	223.4
406.768	237.74
406.977	309.41
407.185	284.84
407.394	301.22
407.603	252.07
407.812	170.15
408.02	254.12
408.229	293.03
408.438	280.74
408.646	288.93
408.855	309.41
409.064	336.04
409.272	260.26
409.481	379.04
409.69	270.5
409.898	417.96
410.107	393.38
410.315	358.57
410.524	487.59
410.733	469.16
410.941	395.43
411.15	522.4
411.358	485.54
411.567	614.56
411.775	546.98
411.984	493.73
412.192	549.03
412.401	557.22
412.609	755.87
412.818	735.39
413.026	602.27
413.234	606.37
413.443	637.09
413.651	700.58
413.86	676
414.068	825.5
414.276	819.36
414.485	749.73
414.693	800.93
414.901	886.94
415.11	841.89
415.318	934.04
415.526	936.09
415.734	907.42
415.943	1038.49
416.151	999.58
416.359	1120.41
416.567	1136.79
416.776	1267.86
416.984	1237.14
417.192	1308.82
417.4	1196.18
417.608	1202.33
417.817	1423.51
418.025	1288.34
418.233	1497.24
418.441	1499.28
418.649	1595.54
418.857	1693.84
419.065	1689.74
419.273	1607.83
419.481	1671.31
419.689	1896.59
419.897	1890.45
420.105	1982.6
420.313	1941.65
420.521	2089.1
420.729	2037.9
420.937	2152.59
421.145	2232.46
421.353	2386.05
421.561	2431.11
421.769	2410.63
421.977	2601.09
422.185	2625.67
422.393	2730.11
422.601	2873.47
422.809	2852.99
423.017	2891.9
423.224	3037.31
423.432	3086.46
423.64	3205.24
423.848	3508.34
424.056	3332.22
424.263	3620.98
424.471	3594.36
424.679	3817.58
424.887	3889.26
425.094	3856.5
425.302	4032.62
425.51	4032.62
425.718	4235.37
425.925	4204.65
426.133	4448.36
426.341	4810.85
426.548	4888.67
426.756	4913.25
426.964	4966.49
427.171	5455.96
427.379	5470.3
427.586	5462.1
427.794	5619.8
428.001	5701.72
428.209	6174.8
428.417	6109.26
428.624	6549.57
428.832	6570.05
429.039	6463.56
429.247	6393.93
429.454	6832.19
429.662	7637.05
429.869	7186.49
430.076	7473.21
430.284	7438.39
430.491	7809.08
430.699	8110.13
430.906	8122.41
431.114	8161.33
431.321	8568.87
431.528	8675.37
431.736	9187.36
431.943	9549.85
432.15	9183.26
432.358	9420.83
432.565	9969.68
432.772	9791.51
432.979	10332.17
433.187	10358.8
433.394	10608.65
433.601	11225.09
433.808	11368.45
434.016	11415.55
434.223	11986.93
434.43	12556.27
434.637	12527.6
434.844	12918.76
435.052	13058.02
435.259	13184.99
435.466	13524.96
435.673	13205.47
435.88	14276.56
436.087	14757.83
436.294	14579.66
436.501	14452.69
436.708	14708.68
436.915	15267.78
437.122	16005.05
437.329	15843.26
437.537	16648.11
437.743	16787.37
437.95	16365.49
438.157	17225.64
438.364	17850.27
438.571	17831.83
438.778	17999.77
438.985	19163.01
439.192	18913.16
439.399	19392.39
439.606	19023.75
439.813	20191.09
440.02	21636.96
440.227	20891.5
440.433	20531.06
440.64	21342.05
440.847	20993.9
441.054	21700.45
441.261	23369.54
441.467	22978.38
441.674	23494.47
441.881	23977.79
442.088	23988.03
442.294	23938.88
442.501	24303.42
442.708	24926
442.914	26097.44
443.121	26971.92
443.328	25896.74
443.534	28053.25
443.741	27518.73
443.948	26947.34
444.154	29003.5
444.361	28595.96
444.568	29054.7
444.774	28888.82
444.981	29433.58
445.187	30111.46
445.394	31168.21
445.6	31125.2
445.807	33762.98
446.013	32534.2
446.22	32677.56
446.426	34606.75
446.633	34602.65
446.839	35643.02
447.046	34242.21
447.252	35993.22
447.459	36181.63
447.665	36060.8
447.871	37678.7
448.078	39143
448.284	37308.02
448.491	38356.58
448.697	39990.86
448.903	40404.55
449.11	40867.39
449.316	39929.42
449.522	40779.32
449.728	41592.37
449.935	42112.55
450.141	42153.51
450.347	43075.1
450.553	41377.33
450.76	42241.57
450.966	43103.77
451.172	43247.13
451.378	44467.72
451.584	43068.95
451.791	44430.85
451.997	44723.71
452.203	45037.05
452.409	44994.04
452.615	44893.69
452.821	43494.93
453.027	42759.71
453.233	44727.81
453.44	42958.36
453.646	43732.5
453.852	43363.86
454.058	44307.97
454.264	43056.67
454.47	43888.14
454.676	43224.6
454.882	44465.67
455.088	40431.17
455.294	41334.32
455.5	41926.19
455.705	42626.59
455.911	41092.66
456.117	39865.93
456.323	39792.2
456.529	37146.23
456.735	38934.1
456.941	38059.62
457.147	37258.87
457.352	36382.34
457.558	35800.71
457.764	35853.96
457.97	35389.07
458.176	34666.14
458.381	34201.25
458.587	32962.23
458.793	32724.66
458.999	31000.27
459.204	33400.49
459.41	32614.07
459.616	30254.81
459.821	30293.72
460.027	30424.79
460.233	29437.67
460.438	28180.22
460.644	28206.84
460.85	27037.45
461.055	26685.2
461.261	26543.89
461.466	24592.18
461.672	23942.97
461.878	25360.17
462.083	23883.58
462.289	23447.36
462.494	23035.72
462.7	22421.33
462.905	21770.08
463.111	22312.79
463.316	22570.83
463.522	21733.22
463.727	21639.01
463.932	22003.55
464.138	21722.98
464.343	21749.6
464.549	21243.75
464.754	21591.91
464.959	21749.6
465.165	21450.6
465.37	20031.35
465.575	19933.05
465.781	20670.32
465.986	20907.88
466.191	19879.8
466.397	19642.24
466.602	18753.42
466.807	19451.78
467.012	19529.6
467.218	19146.63
467.423	19212.17
467.628	19011.46
467.833	19888
468.038	19021.7
468.244	18405.27
468.449	19242.89
468.654	18470.8
468.859	18513.81
469.064	18438.03
469.269	18003.86
469.474	17770.4
469.679	18270.1
469.885	17534.88
470.09	17719.2
470.295	17504.16
470.5	17422.24
470.705	17612.7
470.91	17178.53
471.115	16842.67
471.32	17102.76
471.525	17020.84
471.73	16787.37
471.935	16576.43
472.139	16093.11
472.344	16185.27
472.549	16107.44
472.754	15943.61
472.959	15534.01
473.164	15208.39
473.369	15026.12
473.574	15605.69
473.778	15382.46
473.983	15220.67
474.188	15026.12
474.393	14559.18
474.598	14665.67
474.802	14700.49
475.007	14385.1
475.212	14532.56
475.417	13959.13
475.621	13942.74
475.826	13877.21
476.031	13623.26
476.235	13268.96
476.44	13467.61
476.645	13432.8
476.849	13303.78
477.054	13111.27
477.259	13240.29
477.463	12777.45
477.668	12556.27
477.872	12849.13
478.077	12439.53
478.282	12564.46
478.486	12339.18
478.691	12074.99
478.895	12107.76
479.1	12038.13
479.304	12146.67
479.509	11771.9
479.713	11704.31
479.918	11724.79
480.122	11425.79
480.326	11646.97
480.531	11589.63
480.735	11563
480.94	11356.16
481.144	11767.8
481.348	11296.77
481.553	11438.08
481.757	11130.88
481.961	11091.97
482.166	11395.07
482.37	11163.65
482.574	11073.54
482.778	11124.74
482.983	11356.16
483.187	11190.27
483.391	11157.5
483.595	11198.46
483.8	11042.82
484.004	11157.5
484.208	11139.07
484.412	11010.05
484.616	11122.69
484.821	11337.73
485.025	10956.8
485.229	11028.48
485.433	10967.04
485.637	11266.05
485.841	10768.39
486.045	11024.39
486.249	10975.24
486.453	11071.49
486.657	11231.23
486.861	11272.19
487.065	10985.48
487.269	11206.66
487.473	10821.64
487.677	10954.76
487.881	11192.32
488.085	10977.28
488.289	11231.23
488.493	10958.85
488.697	11085.83
488.901	11087.87
489.105	11020.29
489.309	11120.64
489.512	11141.12
489.716	11073.54
489.92	11204.61
490.124	11044.87
490.328	11350.01
490.531	11083.78
490.735	11581.43
490.939	11386.88
491.143	11345.92
491.346	11302.91
491.55	11425.79
491.754	11329.53
491.958	11540.47
492.161	11454.46
492.365	11458.56
492.569	11411.45
492.772	11491.32
492.976	11800.57
493.18	11782.13
493.383	11728.89
493.587	11624.44
493.79	11950.07
493.994	11681.78
494.197	12040.18
494.401	12158.96
494.605	11929.59
494.808	12072.95
495.012	12320.75
495.215	12175.34
495.419	12529.64
495.622	12296.18
495.825	12593.13
496.029	12361.71
496.232	12978.15
496.436	12724.2
496.639	13015.01
496.843	12840.93
497.046	13363.17
497.249	13522.91
497.453	13555.68
497.656	13457.37
497.859	13473.76
498.063	13703.13
498.266	13940.69
498.469	13893.59
498.673	14088.15
498.876	14305.23
499.079	14305.23
499.282	14370.77
499.485	14837.7
499.689	14735.31
499.892	14911.43
500.095	15075.27
500.298	15333.31
500.501	15194.05
500.705	15646.65
500.908	15747
501.111	15671.23
501.314	16041.91
501.517	16007.09
501.72	16406.45
501.923	16297.91
502.126	16496.56
502.329	16869.29
502.532	16932.78
502.735	17115.05
502.938	17627.04
503.141	17459.1
503.344	17713.05
503.547	17711
503.75	17733.53
503.953	18390.93
504.156	18628.49
504.359	18483.09
504.562	18683.79
504.765	19068.81
504.968	19117.96
505.17	19490.69
505.373	19474.31
505.576	19746.69
505.779	19599.23
505.982	19875.71
506.185	20338.55
506.387	20391.8
506.59	20744.05
506.793	21141.35
506.996	20932.46
507.198	21749.6
507.401	21282.66
507.604	21714.78
507.807	21837.66
508.009	22357.85
508.212	22357.85
508.415	22544.21
508.617	22736.72
508.82	23039.82
509.022	22642.51
509.225	23568.2
509.428	23564.1
509.63	23791.42
509.833	23740.22
510.035	24504.12
510.238	24323.9
510.44	24792.88
510.643	25386.79
510.845	24882.99
511.048	25253.67
511.25	25263.91
511.453	25642.79
511.655	26343.19
511.858	26408.73
512.06	26523.41
512.262	26978.06
512.465	26799.89
512.667	27227.92
512.87	27432.71
513.072	27371.27
513.274	27813.63
513.477	27985.66
513.679	28434.17
513.881	28569.33
514.084	28989.17
514.286	29128.43
514.488	28980.98
514.69	29894.37
514.893	30064.35
515.095	29841.12
515.297	30164.7
515.499	30301.92
515.701	30521.05
515.904	30910.16
516.106	31407.82
516.308	31764.17
516.51	31805.13
516.712	31852.23
516.914	32280.25
517.116	32923.32
517.318	32786.1
517.52	32992.95
517.722	32841.4
517.925	33535.66
518.127	33623.72
518.329	33902.25
518.531	33566.38
518.733	34746.01
518.935	34897.56
519.136	34623.13
519.338	34963.09
519.54	35516.04
519.742	35458.7
519.944	35206.8
520.146	35987.08
520.348	36458.11
520.55	36355.71
520.752	36419.2
520.954	37256.82
521.155	36507.26
521.357	36972.15
521.559	37320.31
521.761	38129.25
521.963	37965.42
522.164	38409.82
522.366	38135.4
522.568	38501.98
522.77	38358.63
522.971	39081.56
523.173	38518.37
523.375	39134.81
523.576	38803.03
523.778	39046.74
523.98	39667.28
524.181	39310.93
524.383	39757.39
524.584	40080.97
524.786	39865.93
524.988	39806.54
525.189	40384.07
525.391	40560.19
525.592	40754.75
525.794	40144.45
525.995	41002.55
526.197	40666.69
526.398	41193.01
526.6	40609.34
526.801	41420.34
527.003	41059.9
527.204	41002.55
527.406	41637.42
527.607	41020.98
527.808	41403.95
528.01	40947.26
528.211	41420.34
528.412	41831.98
528.614	41840.17
528.815	41160.25
529.016	41913.9
529.218	41475.63
529.419	41750.06
529.62	41801.26
529.822	41707.05
530.023	41690.67
530.224	42069.54
530.425	41823.79
530.626	41516.59
530.828	41467.44
531.029	42194.47
531.23	41668.14
531.431	41733.68
531.632	41735.73
531.833	42061.35
532.035	41991.72
532.236	41651.76
532.437	42126.89
532.638	41119.29
532.839	41858.6
533.04	41723.44
533.241	41414.19
533.442	42419.75
533.643	41913.9
533.844	41819.69
534.045	41776.69
534.246	41143.86
534.447	41686.57
534.648	41422.39
534.849	41586.22
535.05	41365.04
535.251	41442.87
535.451	41264.69
535.652	41776.69
535.853	41373.24
536.054	41311.8
536.255	41528.88
536.456	40947.26
536.657	41561.65
536.857	41020.98
537.058	41139.77
537.259	41623.09
537.46	41496.11
537.66	40924.73
537.861	40732.22
538.062	41057.85
538.263	40758.84
538.463	40613.44
538.664	41084.47
538.865	41186.87
539.065	41182.77
539.266	40556.1
539.466	41264.69
539.667	40545.86
539.868	41133.62
540.068	40877.63
540.269	41047.61
540.469	41033.27
540.67	40881.72
540.87	40670.78
541.071	40570.43
541.271	40711.74
541.472	41051.7
541.672	40719.93
541.873	40414.79
542.073	40150.6
542.274	40828.48
542.474	40617.53
542.675	40279.62
542.875	40693.31
543.075	40545.86
543.276	40132.17
543.476	40435.27
543.676	40029.77
543.877	40603.2
544.077	40488.51
544.277	40543.81
544.478	40357.44
544.678	40652.35
544.878	40468.03
545.078	40416.83
545.279	40316.48
545.479	40169.03
545.679	40283.72
545.879	40293.96
546.079	40408.64
546.28	40291.91
546.48	40021.58
546.68	40375.87
546.88	40339.01
547.08	40109.64
547.28	40373.83
547.48	39851.59
547.68	40232.52
547.88	39876.17
548.081	39890.51
548.281	40107.59
548.481	40316.48
548.681	40588.86
548.881	40226.37
549.081	40253
549.28	39886.41
549.48	40384.07
549.68	40189.51
549.88	40681.02
550.08	40285.76
550.28	41014.84
550.48	40048.2
550.68	40060.49
550.88	40406.59
551.08	40263.24
551.279	40746.56
551.479	39992.9
551.679	40429.12
551.879	39939.66
552.079	40226.37
552.278	40027.72
552.478	40683.07
552.678	40128.07
552.878	40717.89
553.077	40226.37
553.277	39876.17
553.477	40668.73
553.676	40216.13
553.876	40609.34
554.076	40343.11
554.275	40169.03
554.475	39847.5
554.674	40840.76
554.874	40422.98
555.074	40242.76
555.273	40654.4
555.473	40525.38
555.672	40193.61
555.872	40271.43
556.071	40300.1
556.271	40472.13
556.47	40142.41
556.67	39999.05
556.869	40662.59
557.068	40525.38
557.268	39939.66
557.467	40617.53
557.667	40513.09
557.866	40355.39
558.065	40152.65
558.265	40451.65
558.464	40158.79
558.663	40769.08
558.863	40220.23
559.062	40525.38
559.261	39931.47
559.461	40504.9
559.66	39788.11
559.859	40300.1
560.058	40050.25
560.258	40099.4
560.457	40070.73
560.656	40590.91
560.855	40126.02
561.054	40445.51
561.253	40271.43
561.453	40009.29
561.652	40177.22
561.851	39966.28
562.05	40033.86
562.249	39513.68
562.448	40232.52
562.647	40062.54
562.846	39698
563.045	40304.2
563.244	39683.66
563.443	40382.02
563.642	39417.43
563.841	39878.22
564.04	39437.9
564.239	40511.04
564.438	39837.26
564.637	39921.23
564.836	39652.94
565.035	39253.59
565.234	39790.16
565.432	39208.53
565.631	39620.17
565.83	39708.24
566.029	39122.52
566.228	39214.68
566.427	39243.35
566.625	39122.52
566.824	38456.93
567.023	39562.83
567.222	38794.84
567.42	39265.88
567.619	39386.71
567.818	39028.31
568.016	39065.17
568.215	39081.56
568.414	38760.03
568.612	39282.26
568.811	38655.58
569.01	38854.23
569.208	38628.96
569.407	38764.12
569.605	38266.47
569.804	38577.76
570.002	38510.18
570.201	38684.25
570.4	38200.93
570.598	38104.68
570.797	38014.57
570.995	38432.35
571.193	37815.91
571.392	38194.79
571.59	37807.72
571.789	38028.9
571.987	37758.57
572.186	37457.52
572.384	37449.33
572.582	37328.5
572.781	37938.79
572.979	37334.64
573.177	37547.63
573.376	37230.19
573.574	36970.1
573.772	37334.64
573.971	36910.71
574.169	37002.87
574.367	36814.46
574.565	37150.32
574.763	36703.87
574.962	36499.07
575.16	36144.77
575.358	36654.72
575.556	35884.68
575.754	36523.65
575.952	36054.66
576.151	36603.52
576.349	35665.55
576.547	35765.9
576.745	36099.72
576.943	36021.89
577.141	35813
577.339	35774.09
577.537	35559.05
577.735	35481.23
577.933	35165.84
578.131	35575.44
578.329	35169.94
578.527	34928.28
578.725	35032.72
578.923	35253.9
579.121	35116.69
579.319	35108.5
579.516	34977.43
579.714	34926.23
579.912	34811.54
580.11	34715.29
580.308	34506.4
580.506	34752.15
580.704	33855.14
580.901	34631.32
581.099	34539.16
581.297	34104.99
581.495	33975.97
581.692	34047.65
581.89	34121.38
582.088	34010.79
582.285	33664.68
582.483	33834.66
582.681	33496.75
582.878	33418.92
583.076	32960.18
583.274	33601.19
583.471	32906.93
583.669	33171.12
583.866	32829.11
584.064	33222.32
584.262	32777.91
584.459	32913.08
584.657	32921.27
584.854	32898.74
585.052	32476.86
585.249	32839.35
585.447	32460.48
585.644	32476.86
585.841	32845.49
586.039	32540.35
586.236	32229.05
586.434	32292.54
586.631	32018.11
586.828	32329.41
587.026	32038.59
587.223	31946.44
587.42	31846.08
587.618	31956.68
587.815	31469.26
588.012	31542.99
588.21	31688.39
588.407	31786.69
588.604	31280.85
588.801	31313.61
588.999	31682.25
589.196	31434.44
589.393	31157.97
589.59	31233.74
589.787	31039.19
589.984	30940.88
590.182	30848.72
590.379	30963.41
590.576	30527.19
590.773	30584.54
590.97	30559.96
591.167	30611.16
591.364	30179.04
591.561	30848.72
591.758	30224.09
591.955	30375.64
592.152	30568.15
592.349	30588.63
592.546	30353.12
592.743	30273.24
592.94	29626.09
593.137	30037.73
593.334	30047.97
593.531	29570.79
593.727	29595.37
593.924	29744.87
594.121	29527.78
594.318	29742.82
594.515	29783.78
594.712	29646.57
594.908	29417.19
595.105	29456.11
595.302	29202.16
595.499	29439.72
595.696	29542.12
595.892	29218.54
596.089	29570.79
596.286	29359.85
596.482	29073.14
596.679	29253.36
596.876	28888.82
597.072	29193.97
597.269	29273.84
597.466	28573.43
597.662	28702.45
597.859	29062.9
598.055	28765.94
598.252	28786.42
598.448	28628.73
598.645	28702.45
598.841	28483.32
599.038	28440.31
599.234	28837.62
599.431	28282.62
599.627	28108.54
599.824	28489.46
600.02	28403.45
600.217	28634.87
600.413	28393.21
600.609	28282.62
600.806	27977.47
601.002	28419.83
601.198	28415.74
601.395	28120.83
601.591	28210.94
601.787	28557.05
601.984	28043.01
602.18	28616.44
602.376	28331.77
602.572	28241.66
602.769	28358.39
602.965	28069.63
603.161	28288.76
603.357	27897.6
603.553	28055.29
603.75	28116.73
603.946	27746.05
604.142	27961.09
604.338	27756.29
604.534	28262.14
604.73	27825.92
604.926	28030.72
605.122	28018.43
605.318	28045.05
605.514	27961.09
605.71	27985.66
605.906	28292.86
606.102	27805.44
606.298	27692.8
606.494	27922.18
606.69	27940.61
606.886	28387.07
607.082	27840.26
607.278	28358.39
607.474	27897.6
607.67	28141.31
607.866	27791.11
608.062	28399.35
608.257	28049.15
608.453	27961.09
608.649	28204.8
608.845	27981.57
609.041	28200.7
609.236	28192.51
609.432	27946.75
609.628	28055.29
609.824	28122.88
610.019	28206.84
610.215	28118.78
610.411	28096.25
610.606	27946.75
610.802	28258.04
610.998	28329.72
611.193	28172.03
611.389	28239.61
611.584	27993.86
611.78	28417.79
611.976	27981.57
612.171	28172.03
612.367	28038.91
612.562	28081.92
612.758	27602.69
612.953	28120.83
613.149	28002.05
613.344	28274.43
613.539	28374.78
613.735	28061.44
613.93	28438.26
614.126	28108.54
614.321	28342.01
614.517	28065.53
614.712	28104.45
614.907	28253.95
615.103	28299
615.298	27793.15
615.493	28452.6
615.688	27686.66
615.884	28585.72
616.079	28069.63
616.274	28264.19
616.47	27709.19
616.665	28323.58
616.86	28040.96
617.055	27907.84
617.25	27848.45
617.445	28212.99
617.641	27559.69
617.836	28057.34
618.031	27426.57
618.226	27907.84
618.421	27692.8
618.616	27969.28
618.811	27238.16
619.006	28155.65
619.201	27363.08
619.396	27668.23
619.591	27033.36
619.786	27211.53
619.981	26990.35
620.176	27098.89
620.371	27098.89
620.566	26988.3
620.761	26826.51
620.956	26877.71
621.151	26648.34
621.346	26920.72
621.541	26470.17
621.735	26523.41
621.93	26079
622.125	26468.12
622.32	25884.45
622.515	26382.1
622.709	25876.26
622.904	25710.37
623.099	25562.92
623.294	25802.53
623.488	25485.09
623.683	25884.45
623.878	24926
624.072	25311.02
624.267	25028.4
624.462	25098.03
624.656	25007.92
624.851	24723.25
625.046	24784.69
625.24	24788.78
625.435	24303.42
625.629	24237.88
625.824	24196.92
626.018	24303.42
626.213	23598.91
626.407	23918.4
626.602	23517
626.796	23928.64
626.991	23738.18
627.185	23473.99
627.38	23271.24
627.574	23011.15
627.768	22783.82
627.963	22976.33
628.157	22599.51
628.352	23005
628.546	22699.86
628.74	22722.38
628.935	22288.21
629.129	22370.13
629.323	21966.68
629.517	22230.87
629.712	21895
629.906	22386.52
630.1	21712.74
630.294	21708.64
630.489	21636.96
630.683	21307.24
630.877	21157.74
631.071	21135.21
631.265	21475.17
631.459	21110.63
631.653	21153.64
631.848	20756.33
632.042	20346.74
632.236	20909.93
632.43	20963.18
632.624	20518.77
632.818	20227.96
633.012	20182.9
633.206	20123.51
633.4	19994.49
633.594	19963.77
633.788	19853.18
633.982	19879.8
634.176	19703.68
634.369	19668.86
634.563	19715.97
634.757	19117.96
634.951	19554.18
635.145	19373.96
635.339	19191.69
635.533	19249.03
635.726	19175.3
635.92	18634.64
636.114	18890.63
636.308	18550.67
636.501	18630.54
636.695	18495.38
636.889	18354.07
637.083	18266
637.276	17868.7
637.47	18327.44
637.664	17762.2
637.857	17977.24
638.051	17942.42
638.244	17633.18
638.438	17565.6
638.632	17336.23
638.825	17452.96
639.019	17393.57
639.212	17080.23
639.406	17317.79
639.599	17135.53
639.793	17055.65
639.986	16799.66
640.18	16828.33
640.373	16521.13
640.567	16525.23
640.76	16455.6
640.954	16383.92
641.147	16113.59
641.34	16304.05
641.534	16078.77
641.727	16052.15
641.92	15988.66
642.114	15783.87
642.307	15660.99
642.5	15603.64
642.694	15550.4
642.887	15491.01
643.08	15720.38
643.273	15255.49
643.467	15247.3
643.66	15239.11
643.853	15073.22
644.046	14688.2
644.239	14907.34
644.432	14802.89
644.626	14497.74
644.819	14415.82
645.012	14651.34
645.205	14335.95
645.398	14196.69
645.591	14432.21
645.784	14090.2
645.977	13995.99
646.17	14266.32
646.363	13836.25
646.556	13903.83
646.749	13934.55
646.942	13498.33
647.135	13666.27
647.328	13484
647.521	13449.18
647.714	13240.29
647.907	13381.6
648.099	13187.04
648.292	13113.31
648.485	13000.68
648.678	13010.92
648.871	13039.59
649.064	12840.93
649.256	12861.41
649.449	12787.69
649.642	12689.39
649.835	12503.02
650.027	12673
650.22	12294.13
650.413	12312.56
650.605	12238.83
650.798	12478.44
650.991	11997.17
651.183	12304.37
651.376	12072.95
651.568	11864.05
651.761	11886.58
651.954	11984.88
652.146	11710.46
652.339	11913.2
652.531	11909.11
652.724	11829.24
652.916	11470.84
653.109	11321.34
653.301	11411.45
653.494	11462.65
653.686	11409.4
653.879	11347.97
654.071	11296.77
654.263	11032.58
654.456	11153.41
654.648	11102.21
654.84	10936.32
655.033	10762.25
655.225	10809.35
655.417	10663.94
655.61	10700.81
655.802	10786.82
655.994	10504.2
656.186	10641.42
656.379	10582.03
656.571	10565.64
656.763	10459.15
656.955	10225.68
657.148	10299.41
657.34	10260.49
657.532	10035.22
657.724	10084.37
657.916	10004.5
658.108	10043.41
658.3	9959.44
658.492	9975.83
658.684	9682.97
658.876	9814.04
659.068	9799.7
659.26	9586.71
659.452	9754.65
659.644	9764.89
659.836	9793.56
660.028	9537.56
660.22	9308.19
660.412	9357.34
660.604	9429.02
660.796	9336.86
660.988	9287.71
661.18	9150.5
661.372	9076.77
661.563	9275.42
661.755	9031.71
661.947	8943.65
662.139	9009.19
662.331	8724.52
662.522	8788
662.714	8802.34
662.906	8861.73
663.097	8691.75
663.289	8544.3
663.481	8749.09
663.673	8583.21
663.864	8529.96
664.056	8445.99
664.247	8347.69
664.439	8362.03
664.631	8302.64
664.822	8443.95
665.014	8380.46
665.205	8247.34
665.397	8153.13
665.588	8210.48
665.78	8151.09
665.971	7847.99
666.163	7964.72
666.354	7923.76
666.546	7882.8
666.737	7890.99
666.929	7946.29
667.12	7716.92
667.311	7886.9
667.503	7573.56
667.694	7800.88
667.885	7727.16
668.077	7667.77
668.268	7669.81
668.459	7657.53
668.651	7600.18
668.842	7618.61
669.033	7491.64
669.224	7409.72
669.416	7493.69
669.607	7381.05
669.798	7223.36
669.989	7374.91
670.18	7323.71
670.371	7206.97
670.563	7030.85
670.754	7159.87
670.945	7049.28
671.136	7084.09
671.327	7061.57
671.518	7166.01
671.709	7018.56
671.9	6811.71
672.091	6907.97
672.282	7043.14
672.473	6756.42
672.664	7036.99
672.855	6727.75
673.046	6662.21
673.237	6938.69
673.428	6914.11
673.619	6846.53
673.809	6694.98
674	6602.82
674.191	6633.54
674.382	6572.1
674.573	6744.13
674.764	6604.87
674.954	6514.76
675.145	6649.93
675.336	6633.54
675.527	6545.48
675.717	6543.43
675.908	6412.36
676.099	6279.24
676.289	6375.5
676.48	6371.4
676.671	6527.05
676.861	6434.89
677.052	6387.79
677.243	6303.82
677.433	6340.68
677.624	6510.66
677.814	6359.11
678.005	6203.47
678.195	6305.87
678.386	6365.26
678.576	6187.08
678.767	6289.48
678.957	6199.37
679.148	6320.2
679.338	6242.38
679.529	6144.08
679.719	6191.18
679.909	6309.96
680.1	6264.91
680.29	6258.76
680.481	6148.17
680.671	6154.32
680.861	6070.35
681.052	6340.68
681.242	6137.93
681.432	6068.3
681.622	5949.52
681.813	6031.44
682.003	6158.41
682.193	6076.49
682.383	5982.29
682.573	6113.36
682.764	5988.43
682.954	5945.42
683.144	6096.97
683.334	6025.29
683.524	5922.9
683.714	5851.22
683.904	5789.78
684.094	5914.7
684.284	5996.62
684.474	5838.93
684.664	5945.42
684.854	5826.64
685.044	5810.26
685.234	5802.07
685.424	5888.08
685.614	5666.9
685.804	5789.78
685.994	5845.07
686.184	5765.2
686.374	5734.48
686.564	5750.87
686.753	5781.59
686.943	5664.85
687.133	5691.48
687.323	5513.3
687.513	5642.32
687.702	5544.02
687.892	5685.33
688.082	5496.92
688.272	5666.9
688.461	5570.65
688.651	5558.36
688.841	5421.14
689.03	5519.45
689.22	5355.61
689.41	5521.49
689.599	5480.54
689.789	5558.36
689.979	5371.99
690.168	5412.95
690.358	5363.8
690.547	5374.04
690.737	5269.59
690.926	5306.46
691.116	5208.16
691.305	5290.07
691.495	5218.4
691.684	5265.5
691.874	5175.39
692.063	5134.43
692.252	5298.27
692.442	5136.48
692.631	5257.31
692.82	5027.93
693.01	5062.75
693.199	5171.29
693.388	5113.95
693.578	5169.24
693.767	4972.64
693.956	5111.9
694.146	4964.45
694.335	5064.8
694.524	4882.53
694.713	5101.66
694.902	4896.86
695.092	4970.59
695.281	4898.91
695.47	4907.1
695.659	4964.45
695.848	4757.6
696.037	4909.15
696.226	4941.92
696.415	4720.74
696.604	4888.67
696.793	4808.8
696.982	4831.33
697.171	4800.61
697.36	4993.12
697.549	4696.16
697.738	4806.75
697.927	4569.19
698.116	4917.34
698.305	4597.86
698.494	4644.96
698.683	4661.35
698.872	4708.45
699.061	4620.39
699.25	4520.04
699.438	4470.89
699.627	4606.05
699.816	4520.04
700.005	4505.7
700.193	4626.53
700.382	4595.81
700.571	4528.23
700.76	4534.37
700.948	4489.32
701.137	4479.08
701.326	4556.9
701.514	4386.92
701.703	4503.65
701.892	4354.15
702.08	4659.3
702.269	4444.26
702.457	4350.06
702.646	4479.08
702.834	4358.25
703.023	4372.58
703.212	4356.2
703.4	4456.55
703.589	4311.14
703.777	4249.71
703.965	4227.18
704.154	4221.03
704.342	4135.02
704.531	4178.03
704.719	4063.34
704.907	4280.43
705.096	4055.15
705.284	4055.15
705.472	4151.4
705.661	4036.72
705.849	4163.69
706.037	4065.39
706.226	4137.07
706.414	4147.31
706.602	4016.24
706.79	3975.28
706.979	4014.19
707.167	4102.25
707.355	3842.16
707.543	4077.68
707.731	4094.06
707.919	3997.81
708.107	3917.93
708.296	3948.65
708.484	3807.34
708.672	3938.41
708.86	3977.33
709.048	3860.59
709.236	3774.58
709.424	4030.57
709.612	3793.01
709.8	3962.99
709.988	3842.16
710.176	3987.57
710.364	3889.26
710.551	3713.14
710.739	3639.41
710.927	3911.79
711.115	3856.5
711.303	3717.23
711.491	3856.5
711.679	3635.32
711.866	3725.43
712.054	3653.75
712.242	3694.71
712.43	3872.88
712.617	3610.74
712.805	3758.19
712.993	3725.43
713.181	3582.07
713.368	3670.13
713.556	3596.4
713.744	3444.85
713.931	3684.47
714.119	3547.25
714.306	3504.25
714.494	3479.67
714.682	3422.33
714.869	3487.86
715.057	3545.2
715.244	3487.86
715.432	3459.19
715.619	3629.17
715.807	3418.23
715.994	3381.37
716.182	3381.37
716.369	3618.93
716.556	3459.19
716.744	3344.5
716.931	3270.78
717.119	3422.33
717.306	3442.81
717.493	3491.96
717.681	3336.31
717.868	3184.76
718.055	3315.83
718.242	3256.44
718.43	3358.84
718.617	3231.87
718.804	3283.06
718.991	3201.15
719.179	3246.2
719.366	3135.61
719.553	3283.06
719.74	3258.49
719.927	3094.65
720.114	3203.19
720.301	3151.99
720.488	3039.36
720.676	3078.27
720.863	3283.06
721.05	3307.64
721.237	3078.27
721.424	3106.94
721.611	3074.17
721.798	3123.32
721.985	3094.65
722.172	3121.28
722.358	3063.93
722.545	3072.12
722.732	3045.5
722.919	2959.49
723.106	2916.48
723.293	2963.58
723.48	3074.17
723.667	2959.49
723.853	2996.35
724.04	2979.97
724.227	2986.11
724.414	2990.21
724.6	2848.9
724.787	2928.77
724.974	2992.25
725.161	2859.14
725.347	2814.08
725.534	2857.09
725.72	2865.28
725.907	2918.53
726.094	2992.25
726.28	2908.29
726.467	2967.68
726.653	2758.78
726.84	2875.52
727.027	2990.21
727.213	2766.98
727.4	2814.08
727.586	2861.18
727.773	2687.11
727.959	2805.89
728.145	2799.74
728.332	2691.2
728.518	2594.95
728.705	2752.64
728.891	2744.45
729.077	2728.07
729.264	2678.91
729.45	2687.11
729.636	2836.61
729.823	2660.48
730.009	2703.49
730.195	2617.47
730.382	2580.61
730.568	2750.59
730.754	2635.91
730.94	2539.65
731.126	2644.1
731.313	2711.68
731.499	2691.2
731.685	2609.28
731.871	2623.62
732.057	2734.21
732.243	2613.38
732.429	2529.41
732.615	2629.76
732.801	2502.79
732.987	2539.65
733.173	2570.37
733.359	2592.9
733.545	2562.18
733.731	2416.77
733.917	2564.23
734.103	2568.32
734.289	2570.37
734.475	2549.89
734.661	2547.84
734.847	2490.5
735.033	2564.23
735.219	2429.06
735.404	2611.33
735.59	2463.88
735.776	2441.35
735.962	2537.6
736.148	2431.11
736.333	2504.84
736.519	2334.86
736.705	2480.26
736.89	2406.53
737.076	2359.43
737.262	2377.86
737.447	2330.76
737.633	2375.81
737.819	2445.45
738.004	2347.14
738.19	2312.33
738.375	2381.96
738.561	2384.01
738.747	2336.9
738.932	2246.79
739.118	2271.37
739.303	2316.42
739.489	2171.02
739.674	2193.55
739.859	2173.07
740.045	2123.91
740.23	2326.66
740.416	2156.68
740.601	2218.12
740.786	2308.23
740.972	2236.55
741.157	2130.06
741.342	2166.92
741.528	2029.71
741.713	2263.18
741.898	2144.39
742.084	2220.17
742.269	2160.78
742.454	2240.65
742.639	2166.92
742.824	2111.63
743.01	2146.44
743.195	2042
743.38	2158.73
743.565	2119.82
743.75	2029.71
743.935	2050.19
744.12	2087.05
744.305	2121.87
744.49	2013.32
744.675	2066.57
744.86	2068.62
745.045	1988.75
745.23	1955.98
745.415	1939.6
745.6	2023.56
745.785	1964.17
745.97	2013.32
746.155	2029.71
746.34	1970.32
746.525	1865.87
746.71	1923.21
746.895	1884.3
747.079	1802.38
747.264	1884.3
747.449	1845.39
747.634	1824.91
747.819	1816.72
748.003	1761.42
748.188	1931.41
748.373	1779.86
748.557	1841.29
748.742	1804.43
748.927	1763.47
749.111	1769.62
749.296	1728.66
749.481	1691.79
749.665	1775.76
749.85	1652.88
750.034	1724.56
750.219	1656.98
750.404	1671.31
750.588	1638.55
750.773	1640.59
750.957	1546.39
751.141	1640.59
751.326	1659.03
751.51	1611.92
751.695	1538.2
751.879	1591.44
752.064	1532.05
752.248	1538.2
752.432	1616.02
752.617	1546.39
752.801	1450.13
752.985	1396.89
753.17	1519.76
753.354	1570.96
753.538	1454.23
753.722	1341.59
753.907	1376.41
754.091	1417.37
754.275	1458.32
754.459	1423.51
754.643	1458.32
754.828	1411.22
755.012	1384.6
755.196	1333.4
755.38	1368.21
755.564	1267.86
755.748	1343.64
755.932	1292.44
756.116	1374.36
756.3	1357.97
756.484	1253.53
756.668	1292.44
756.852	1319.06
757.036	1286.3
757.22	1325.21
757.404	1228.95
757.588	1333.4
757.772	1267.86
757.956	1169.56
758.14	1259.67
758.323	1263.77
758.507	1278.1
758.691	1165.46
758.875	1341.59
759.059	1284.25
759.242	1247.38
759.426	1132.7
759.61	1192.09
759.794	1134.75
759.977	1177.75
760.161	1261.72
760.345	1210.52
760.528	1202.33
760.712	1054.87
760.895	1147.03
761.079	1046.68
761.263	1124.51
761.446	1050.78
761.63	1104.03
761.813	1112.22
761.997	1071.26
762.18	1030.3
762.364	1218.71
762.547	1018.01
762.731	1153.18
762.914	1171.61
763.098	1042.59
763.281	1054.87
763.464	1040.54
763.648	1032.35
763.831	981.15
764.015	995.48
764.198	1108.12
764.381	946.33
764.564	1063.07
764.748	1087.64
764.931	970.91
765.114	985.24
765.297	1034.39
765.481	997.53
765.664	942.24
765.847	950.43
766.03	934.04
766.213	958.62
766.397	925.85
766.58	858.27
766.763	944.28
766.946	907.42
767.129	989.34
767.312	1009.82
767.495	923.8
767.678	997.53
767.861	948.38
768.044	950.43
768.227	921.76
768.41	936.09
768.593	1030.3
768.776	909.47
768.959	843.93
769.142	956.57
769.324	950.43
769.507	901.28
769.69	950.43
769.873	835.74
770.056	940.19
770.239	876.7
770.421	936.09
770.604	884.89
770.787	925.85
770.97	907.42
771.152	850.08
771.335	884.89
771.518	848.03
771.7	841.89
771.883	888.99
772.066	876.7
772.248	876.7
772.431	850.08
772.613	929.95
772.796	794.78
772.978	891.04
773.161	891.04
773.343	753.82
773.526	860.32
773.708	768.16
773.891	827.55
774.073	860.32
774.256	782.49
774.438	923.8
774.621	651.42
774.803	895.13
774.985	702.62
775.168	768.16
775.35	735.39
775.532	821.41
775.715	702.62
775.897	753.82
776.079	794.78
776.261	786.59
776.444	702.62
776.626	678.05
776.808	723.1
776.99	669.86
777.173	751.78
777.355	712.86
777.537	663.71
777.719	759.97
777.901	690.34
778.083	700.58
778.265	612.51
778.447	647.33
778.629	751.78
778.811	669.86
778.993	635.04
779.175	727.2
779.357	678.05
779.539	614.56
779.721	622.75
779.903	628.9
780.085	688.29
780.267	624.8
780.449	620.71
780.631	661.66
780.812	639.14
780.994	628.9
781.176	587.94
781.358	639.14
781.54	522.4
781.721	616.61
781.903	612.51
782.085	583.84
782.267	645.28
782.448	653.47
782.63	526.5
782.812	592.03
782.993	583.84
783.175	546.98
783.357	452.77
783.538	637.09
783.72	538.79
783.901	493.73
784.083	587.94
784.264	493.73
784.446	481.44
784.627	497.83
784.809	510.11
784.99	409.76
785.172	514.21
785.353	528.55
785.535	526.5
785.716	534.69
785.897	428.2
786.079	415.91
786.26	436.39
786.441	434.34
786.623	452.77
786.804	397.48
786.985	555.17
787.167	450.72
787.348	450.72
787.529	383.14
787.71	516.26
787.891	409.76
788.073	448.68
788.254	397.48
788.435	501.92
788.616	403.62
788.797	391.33
788.978	417.96
789.159	415.91
789.34	495.78
789.522	383.14
789.703	385.19
789.884	407.72
790.065	403.62
790.246	477.35
790.427	350.37
790.607	428.2
790.788	313.51
790.969	383.14
791.15	432.29
791.331	301.22
791.512	329.89
791.693	381.09
791.874	374.95
792.054	438.44
792.235	417.96
792.416	327.85
792.597	276.65
792.778	391.33
792.958	354.47
793.139	393.38
793.32	368.81
793.5	276.65
793.681	329.89
793.862	385.19
794.042	358.57
794.223	309.41
794.404	331.94
794.584	247.97
794.765	374.95
794.945	374.95
795.126	327.85
795.306	379.04
795.487	329.89
795.667	319.65
795.848	354.47
796.028	342.18
796.209	309.41
796.389	325.8
796.57	325.8
796.75	237.74
796.93	311.46
797.111	286.89
797.291	338.09
797.471	333.99
797.652	333.99
797.832	311.46
798.012	276.65
798.192	252.07
798.373	204.97
798.553	336.04
798.733	280.74
798.913	309.41
799.093	325.8
799.274	198.82
799.454	280.74
799.634	229.54
799.814	327.85
799.994	346.28
800.174	305.32
800.354	254.12
800.534	235.69
800.714	321.7
800.894	219.3
801.074	151.72
801.254	213.16
801.434	295.08
801.614	268.45
801.794	262.31
801.974	942.24
802.154	274.6
802.334	270.5
802.514	157.86
802.693	194.73
802.873	174.25
803.053	268.45
803.233	284.84
803.413	247.97
803.592	96.43
803.772	284.84
803.952	311.46
804.131	227.5
804.311	245.93
804.491	307.37
804.67	180.39
804.85	188.58
805.03	204.97
805.209	293.03
805.389	168.1
805.568	213.16
805.748	223.4
805.928	280.74
806.107	223.4
806.287	239.78
806.466	221.35
806.646	278.69
806.825	217.26
807.004	190.63
807.184	268.45
807.363	143.53
807.543	278.69
807.722	186.54
807.901	194.73
808.081	247.97
808.26	172.2
808.439	295.08
808.619	161.96
808.798	227.5
808.977	237.74
809.156	256.17
809.336	272.55
809.515	182.44
809.694	204.97
809.873	196.78
810.052	233.64
810.231	239.78
810.411	139.43
810.59	182.44
810.769	129.19
810.948	178.34
811.127	129.19
811.306	182.44
811.485	178.34
811.664	260.26
811.843	149.67
812.022	149.67
812.201	116.9
812.38	186.54
812.559	145.58
812.737	170.15
812.916	100.52
813.095	170.15
813.274	153.77
813.453	186.54
813.632	178.34
813.811	252.07
813.989	139.43
814.168	153.77
814.347	211.11
814.526	172.2
814.704	145.58
814.883	237.74
815.062	139.43
815.24	227.5
815.419	141.48
815.598	106.67
815.776	94.38
815.955	180.39
816.133	194.73
816.312	133.29
816.49	114.86
816.669	213.16
816.847	129.19
817.026	157.86
817.204	147.62
817.383	102.57
817.561	55.47
817.74	194.73
817.918	149.67
818.097	63.66
818.275	100.52
818.453	90.28
818.632	170.15
818.81	127.14
818.988	104.62
819.167	186.54
819.345	129.19
819.523	98.47
819.701	86.19
819.879	182.44
820.058	123.05
820.236	194.73
820.414	96.43
820.592	80.04
820.77	135.34
820.948	90.28
821.127	137.38
821.305	131.24
821.483	137.38
821.661	71.85
821.839	129.19
822.017	67.75
822.195	202.92
822.373	104.62
822.551	121
822.729	108.71
822.907	129.19
823.085	98.47
823.262	133.29
823.44	104.62
823.618	182.44
823.796	145.58
823.974	121
824.152	114.86
824.329	104.62
824.507	188.58
824.685	137.38
824.863	82.09
825.04	59.56
825.218	100.52
825.396	106.67
825.574	147.62
825.751	141.48
825.929	125.1
826.107	77.99
826.284	96.43
826.462	166.06
826.639	14.51
826.817	75.95
826.994	116.9
827.172	96.43
827.349	151.72
827.527	22.7
827.704	104.62
827.882	123.05
828.059	55.47
828.237	100.52
828.414	110.76
828.591	49.32
828.769	106.67
828.946	129.19
829.124	96.43
829.301	61.61
829.478	145.58
829.655	139.43
829.833	100.52
830.01	18.6
830.187	63.66
830.364	106.67
830.542	77.99
830.719	135.34
830.896	2.22
831.073	110.76
831.25	104.62
831.427	88.23
831.604	176.3
831.782	49.32
831.959	75.95
832.136	53.42
832.313	39.08
832.49	102.57
832.667	104.62
832.844	26.79
833.021	129.19
833.198	112.81
833.374	63.66
833.551	125.1
833.728	24.75
833.905	155.82
834.082	16.55
834.259	73.9
834.436	98.47
834.612	88.23
834.789	96.43
834.966	153.77
835.143	127.14
835.319	104.62
835.496	55.47
835.673	88.23
835.85	125.1
836.026	125.1
836.203	96.43
836.38	47.27
836.556	133.29
836.733	65.71
836.909	153.77
837.086	100.52
837.262	-36.69
837.439	96.43
837.616	112.81
837.792	92.33
837.968	57.51
838.145	55.47
838.321	88.23
838.498	61.61
838.674	170.15
838.851	32.94
839.027	71.85
839.203	71.85
839.38	104.62
839.556	2.22
839.732	149.67
839.909	55.47
840.085	55.47
840.261	-16.21
840.437	24.75
840.614	51.37
840.79	26.79
840.966	47.27
841.142	90.28
841.318	8.36
841.494	6.31
841.671	30.89
841.847	-10.07
842.023	112.81
842.199	55.47
842.375	153.77
842.551	22.7
842.727	8.36
842.903	139.43
843.079	49.32
843.255	80.04
843.431	59.56
843.607	104.62
843.783	30.89
843.959	80.04
844.134	6.31
844.31	73.9
844.486	24.75
844.662	26.79
844.838	55.47
845.013	84.14
845.189	24.75
845.365	88.23
845.541	63.66
845.716	104.62
845.892	65.71
846.068	45.23
846.244	34.99
846.419	28.84
846.595	-20.31
846.77	51.37
846.946	30.89
847.122	65.71
847.297	22.7
847.473	24.75
847.648	18.6
847.824	8.36
847.999	-14.17
848.175	45.23
848.35	57.51
848.526	108.71
848.701	73.9
848.876	63.66
849.052	71.85
849.227	26.79
849.403	69.8
849.578	127.14
849.753	34.99
849.929	92.33
850.104	8.36
850.279	88.23
850.454	14.51
850.63	112.81
850.805	41.13
850.98	24.75
851.155	30.89
851.33	51.37
851.505	49.32
851.681	86.19
851.856	14.51
852.031	41.13
852.206	47.27
852.381	43.18
852.556	-26.45
852.731	69.8
852.906	125.1
853.081	32.94
853.256	49.32
853.431	39.08
853.606	30.89
853.781	43.18
853.956	6.31
854.131	71.85
854.305	-1.88
854.48	-20.31
854.655	6.31
854.83	-26.45
855.005	-5.97
855.18	32.94
855.354	-14.17
855.529	-5.97
855.704	-26.45
855.879	123.05
856.053	0.17
856.228	121
856.403	6.31
856.577	47.27
856.752	32.94
856.926	51.37
857.101	63.66
857.276	57.51
857.45	6.31
857.625	51.37
857.799	22.7
857.974	41.13
858.148	80.04
858.323	104.62
858.497	73.9
858.672	32.94
858.846	34.99
859.02	92.33
859.195	10.41
859.369	-5.97
859.543	55.47
859.718	22.7
859.892	-1.88
860.066	63.66
860.241	55.47
860.415	-59.22
860.589	-42.84
860.763	67.75
860.938	32.94
861.112	86.19
861.286	-36.69
861.46	0.17
861.634	2.22
861.808	20.65
861.982	-53.08
862.157	2.22
862.331	-8.02
862.505	-8.02
862.679	32.94
862.853	16.55
863.027	2.22
863.201	73.9
863.375	45.23
863.549	34.99
863.722	32.94
863.896	71.85
864.07	0.17
864.244	-42.84
864.418	86.19
864.592	32.94
864.766	34.99
864.939	47.27
865.113	-8.02
865.287	24.75
865.461	-18.26
865.634	37.03
865.808	34.99
865.982	39.08
866.156	6.31
866.329	67.75
866.503	67.75
866.676	26.79
866.85	10.41
867.024	22.7
867.197	121
867.371	-16.21
867.544	0.17
867.718	-40.79
867.891	39.08
868.065	32.94
868.238	30.89
868.412	20.65
868.585	55.47
868.759	-14.17
868.932	24.75
869.105	71.85
869.279	18.6
869.452	22.7
869.625	14.51
869.799	14.51
869.972	30.89
870.145	59.56
870.319	59.56
870.492	-32.6
870.665	-18.26
870.838	16.55
871.011	-34.64
871.185	34.99
871.358	-20.31
871.531	22.7
871.704	-1.88
871.877	-40.79
872.05	37.03
872.223	18.6
872.396	55.47
872.569	80.04
872.742	53.42
872.915	43.18
873.088	98.47
873.261	-63.32
873.434	14.51
873.607	43.18
873.78	26.79
873.953	2.22
874.126	30.89
874.299	90.28
874.471	47.27
874.644	51.37
874.817	55.47
874.99	49.32
875.163	96.43
875.335	0.17
875.508	57.51
875.681	82.09
875.853	53.42
876.026	-40.79
876.199	41.13
876.371	55.47
876.544	45.23
876.717	-18.26
876.889	57.51
877.062	121
877.234	-108.37
877.407	-65.36
877.579	47.27
877.752	6.31
877.924	10.41
878.097	98.47
878.269	8.36
878.442	18.6
878.614	59.56
878.786	34.99
878.959	55.47
879.131	65.71
879.303	30.89
879.476	-48.98
879.648	-10.07
879.82	43.18
879.993	22.7
880.165	-28.5
880.337	37.03
880.509	-8.02
880.681	-10.07
880.854	2.22
881.026	32.94
881.198	18.6
881.37	12.46
881.542	14.51
881.714	-48.98
881.886	14.51
882.058	-46.93
882.23	43.18
882.402	-1.88
882.574	2.22
882.746	-46.93
882.918	73.9
883.09	71.85
883.262	0.17
883.434	12.46
883.606	47.27
883.778	-12.12
883.95	71.85
884.122	30.89
884.293	88.23
884.465	-51.03
884.637	34.99
884.809	63.66
884.98	14.51
885.152	-14.17
885.324	16.55
885.496	34.99
885.667	-51.03
885.839	-34.64
886.011	16.55
886.182	55.47
886.354	-5.97
886.525	-3.93
886.697	26.79
886.869	43.18
887.04	-10.07
887.212	71.85
887.383	104.62
887.555	-26.45
887.726	-51.03
887.897	10.41
888.069	49.32
888.24	24.75
888.412	34.99
888.583	39.08
888.754	24.75
888.926	-48.98
889.097	-14.17
889.268	-71.51
889.44	55.47
889.611	-30.55
889.782	22.7
889.953	-83.8
890.125	90.28
890.296	-55.12
890.467	6.31
890.638	-38.74
890.809	0.17
890.98	-59.22
891.151	43.18
891.323	63.66
891.494	8.36
891.665	22.7
891.836	-10.07
892.007	92.33
892.178	77.99
892.349	73.9
892.52	-16.21
892.691	14.51
892.862	-77.65
893.032	-32.6
893.203	-1.88
893.374	39.08
893.545	39.08
893.716	-67.41
893.887	26.79
894.057	34.99
894.228	-3.93
894.399	-8.02
894.57	51.37
894.74	8.36
894.911	88.23
895.082	26.79
895.253	10.41
895.423	18.6
895.594	57.51
895.764	-28.5
895.935	-34.64
896.106	-5.97
896.276	32.94
896.447	34.99
896.617	-1.88
896.788	-89.94
896.958	-34.64
897.129	100.52
897.299	14.51
897.47	71.85
897.64	16.55
897.81	2.22
897.981	12.46
898.151	14.51
898.322	-48.98
898.492	67.75
898.662	6.31
898.832	18.6
899.003	49.32
899.173	34.99
899.343	-59.22
899.513	-10.07
