Data from USB4F104151__102__14-30-52-392.txt Node

Date: Thu Mar 13 14:30:52 EDT 2025
User: louis
Spectrometer: USB4F10415
Trigger mode: 4
Integration Time (sec): 2.500000E-2
Scans to average: 1
Electric dark correction enabled: true
Nonlinearity correction enabled: false
Boxcar width: 0
XAxis mode: Wavelengths
Number of Pixels in Spectrum: 3648
>>>>>Begin Spectral Data<<<<<
178.204	-117.25
178.424	-117.25
178.644	-117.25
178.864	-139.77
179.084	-152.06
179.304	-10.75
179.524	-2.56
179.744	-20.99
179.964	-18.94
180.184	3.58
180.404	-29.18
180.624	3.58
180.844	24.06
181.064	-41.47
181.283	-68.09
181.503	52.74
181.723	108.03
181.943	-20.99
182.163	69.12
182.383	-16.9
182.602	118.27
182.822	122.37
183.042	85.5
183.262	-12.8
183.482	-27.14
183.701	9.73
183.921	-37.38
184.141	-2.56
184.361	56.83
184.58	42.5
184.8	60.93
185.02	3.58
185.239	118.27
185.459	28.16
185.679	62.98
185.898	30.21
186.118	9.73
186.338	69.12
186.557	5.63
186.777	3.58
186.997	5.63
187.216	3.58
187.436	67.07
187.655	126.46
187.875	13.82
188.095	69.12
188.314	89.6
188.534	40.45
188.753	46.59
188.973	75.26
189.192	44.54
189.412	44.54
189.631	56.83
189.851	36.35
190.07	85.5
190.29	-8.7
190.509	13.82
190.729	-4.61
190.948	30.21
191.168	183.81
191.387	69.12
191.607	-45.57
191.826	30.21
192.045	50.69
192.265	54.78
192.484	44.54
192.704	77.31
192.923	36.35
193.142	44.54
193.362	67.07
193.581	110.08
193.8	110.08
194.02	15.87
194.239	36.35
194.458	101.89
194.678	-2.56
194.897	81.41
195.116	71.17
195.335	46.59
195.555	50.69
195.774	28.16
195.993	69.12
196.212	46.59
196.432	-4.61
196.651	54.78
196.87	26.11
197.089	77.31
197.308	85.5
197.528	36.35
197.747	-12.8
197.966	95.74
198.185	103.93
198.404	58.88
198.623	-2.56
198.842	73.21
199.062	112.13
199.281	101.89
199.5	3.58
199.719	138.75
199.938	60.93
200.157	52.74
200.376	65.02
200.595	44.54
200.814	83.45
201.033	3.58
201.252	81.41
201.471	73.21
201.69	13.82
201.909	30.21
202.128	73.21
202.347	60.93
202.566	114.17
202.785	-78.33
203.004	13.82
203.223	85.5
203.442	11.78
203.661	7.68
203.879	101.89
204.098	19.97
204.317	19.97
204.536	85.5
204.755	128.51
204.974	97.79
205.193	99.84
205.411	77.31
205.63	38.4
205.849	62.98
206.068	48.64
206.287	28.16
206.505	54.78
206.724	60.93
206.943	56.83
207.162	-45.57
207.381	93.69
207.599	30.21
207.818	73.21
208.037	24.06
208.255	60.93
208.474	116.22
208.693	52.74
208.911	19.97
209.13	7.68
209.349	28.16
209.567	11.78
209.786	36.35
210.005	60.93
210.223	-20.99
210.442	-20.99
210.661	60.93
210.879	48.64
211.098	38.4
211.316	62.98
211.535	3.58
211.753	60.93
211.972	40.45
212.191	60.93
212.409	101.89
212.628	24.06
212.846	15.87
213.065	40.45
213.283	54.78
213.502	7.68
213.72	-2.56
213.938	-12.8
214.157	56.83
214.375	60.93
214.594	34.3
214.812	77.31
215.031	28.16
215.249	38.4
215.467	-10.75
215.686	5.63
215.904	28.16
216.122	38.4
216.341	7.68
216.559	-18.94
216.778	40.45
216.996	130.56
217.214	38.4
217.432	-12.8
217.651	19.97
217.869	75.26
218.087	-8.7
218.306	48.64
218.524	11.78
218.742	38.4
218.96	71.17
219.179	-29.18
219.397	30.21
219.615	136.7
219.833	-33.28
220.051	52.74
220.27	83.45
220.488	38.4
220.706	11.78
220.924	7.68
221.142	11.78
221.36	-14.85
221.578	87.55
221.796	7.68
222.015	30.21
222.233	120.32
222.451	69.12
222.669	-20.99
222.887	85.5
223.105	44.54
223.323	19.97
223.541	44.54
223.759	48.64
223.977	44.54
224.195	62.98
224.413	30.21
224.631	32.26
224.849	95.74
225.067	60.93
225.285	-57.86
225.503	44.54
225.721	-45.57
225.939	19.97
226.157	-18.94
226.375	132.61
226.592	11.78
226.81	97.79
227.028	17.92
227.246	120.32
227.464	56.83
227.682	114.17
227.9	65.02
228.117	-23.04
228.335	7.68
228.553	3.58
228.771	60.93
228.989	56.83
229.206	77.31
229.424	-33.28
229.642	52.74
229.86	62.98
230.077	134.65
230.295	46.59
230.513	-12.8
230.731	54.78
230.948	28.16
231.166	101.89
231.384	79.36
231.601	85.5
231.819	120.32
232.037	112.13
232.254	-43.52
232.472	101.89
232.689	-12.8
232.907	79.36
233.125	19.97
233.342	56.83
233.56	11.78
233.777	-29.18
233.995	24.06
234.213	69.12
234.43	46.59
234.648	1.54
234.865	22.02
235.083	97.79
235.3	65.02
235.518	52.74
235.735	112.13
235.953	85.5
236.17	-16.9
236.388	44.54
236.605	36.35
236.822	116.22
237.04	46.59
237.257	-20.99
237.475	24.06
237.692	60.93
237.909	75.26
238.127	58.88
238.344	46.59
238.562	110.08
238.779	-20.99
238.996	52.74
239.214	79.36
239.431	101.89
239.648	42.5
239.865	38.4
240.083	67.07
240.3	-27.14
240.517	-4.61
240.735	79.36
240.952	77.31
241.169	87.55
241.386	58.88
241.603	30.21
241.821	28.16
242.038	110.08
242.255	36.35
242.472	34.3
242.689	36.35
242.907	157.18
243.124	3.58
243.341	28.16
243.558	7.68
243.775	-33.28
243.992	73.21
244.209	42.5
244.426	69.12
244.643	60.93
244.86	62.98
245.078	28.16
245.295	99.84
245.512	50.69
245.729	52.74
245.946	56.83
246.163	95.74
246.38	34.3
246.597	36.35
246.814	28.16
247.031	65.02
247.248	9.73
247.464	112.13
247.681	85.5
247.898	95.74
248.115	44.54
248.332	97.79
248.549	81.41
248.766	101.89
248.983	19.97
249.2	3.58
249.417	69.12
249.633	46.59
249.85	-10.75
250.067	30.21
250.284	69.12
250.501	52.74
250.717	19.97
250.934	-27.14
251.151	-10.75
251.368	-10.75
251.585	30.21
251.801	54.78
252.018	48.64
252.235	81.41
252.451	-20.99
252.668	48.64
252.885	36.35
253.102	19.97
253.318	89.6
253.535	-27.14
253.752	22.02
253.968	36.35
254.185	-49.66
254.401	40.45
254.618	130.56
254.835	28.16
255.051	75.26
255.268	105.98
255.484	36.35
255.701	60.93
255.917	151.04
256.134	-10.75
256.351	5.63
256.567	-12.8
256.784	24.06
257	-20.99
257.217	44.54
257.433	112.13
257.65	85.5
257.866	-16.9
258.082	38.4
258.299	1.54
258.515	73.21
258.732	60.93
258.948	-51.71
259.165	-0.51
259.381	11.78
259.597	54.78
259.814	7.68
260.03	-25.09
260.246	44.54
260.463	54.78
260.679	22.02
260.895	-4.61
261.112	69.12
261.328	79.36
261.544	7.68
261.761	159.23
261.977	36.35
262.193	-29.18
262.409	3.58
262.626	28.16
262.842	30.21
263.058	-31.23
263.274	93.69
263.49	36.35
263.707	19.97
263.923	46.59
264.139	22.02
264.355	30.21
264.571	62.98
264.787	40.45
265.004	15.87
265.22	60.93
265.436	56.83
265.652	103.93
265.868	116.22
266.084	77.31
266.3	60.93
266.516	19.97
266.732	114.17
266.948	13.82
267.164	11.78
267.38	110.08
267.596	56.83
267.812	91.65
268.028	-68.09
268.244	30.21
268.46	32.26
268.676	-33.28
268.892	-27.14
269.108	48.64
269.324	36.35
269.54	46.59
269.756	101.89
269.972	-12.8
270.188	11.78
270.403	11.78
270.619	81.41
270.835	93.69
271.051	28.16
271.267	-8.7
271.483	-37.38
271.698	85.5
271.914	52.74
272.13	28.16
272.346	7.68
272.562	48.64
272.777	-12.8
272.993	19.97
273.209	28.16
273.425	77.31
273.64	52.74
273.856	60.93
274.072	48.64
274.287	60.93
274.503	40.45
274.719	-82.43
274.934	-4.61
275.15	30.21
275.366	44.54
275.581	11.78
275.797	44.54
276.012	81.41
276.228	15.87
276.444	128.51
276.659	56.83
276.875	-27.14
277.09	48.64
277.306	-0.51
277.521	69.12
277.737	3.58
277.952	126.46
278.168	32.26
278.383	62.98
278.599	26.11
278.814	65.02
279.03	15.87
279.245	44.54
279.461	5.63
279.676	130.56
279.892	36.35
280.107	-14.85
280.322	-49.66
280.538	46.59
280.753	52.74
280.969	60.93
281.184	110.08
281.399	46.59
281.615	-12.8
281.83	30.21
282.045	3.58
282.26	65.02
282.476	24.06
282.691	9.73
282.906	15.87
283.122	-0.51
283.337	24.06
283.552	52.74
283.767	89.6
283.983	22.02
284.198	52.74
284.413	56.83
284.628	3.58
284.843	83.45
285.058	87.55
285.274	34.3
285.489	24.06
285.704	30.21
285.919	77.31
286.134	17.92
286.349	13.82
286.564	101.89
286.779	89.6
286.995	-10.75
287.21	52.74
287.425	11.78
287.64	-12.8
287.855	73.21
288.07	28.16
288.285	89.6
288.5	60.93
288.715	54.78
288.93	22.02
289.145	89.6
289.36	-16.9
289.575	28.16
289.79	110.08
290.004	93.69
290.219	95.74
290.434	30.21
290.649	44.54
290.864	9.73
291.079	48.64
291.294	52.74
291.509	65.02
291.724	19.97
291.938	22.02
292.153	52.74
292.368	69.12
292.583	85.5
292.798	44.54
293.012	44.54
293.227	79.36
293.442	40.45
293.657	85.5
293.871	161.28
294.086	24.06
294.301	112.13
294.516	144.89
294.73	9.73
294.945	60.93
295.16	19.97
295.374	34.3
295.589	101.89
295.804	95.74
296.018	1.54
296.233	69.12
296.447	15.87
296.662	-18.94
296.877	95.74
297.091	69.12
297.306	44.54
297.52	3.58
297.735	93.69
297.949	97.79
298.164	85.5
298.378	124.41
298.593	79.36
298.807	13.82
299.022	42.5
299.236	114.17
299.451	93.69
299.665	17.92
299.88	52.74
300.094	93.69
300.309	24.06
300.523	22.02
300.737	-2.56
300.952	83.45
301.166	26.11
301.381	-23.04
301.595	44.54
301.809	-8.7
302.024	-18.94
302.238	69.12
302.452	118.27
302.667	-16.9
302.881	87.55
303.095	85.5
303.309	65.02
303.524	-37.38
303.738	15.87
303.952	85.5
304.166	85.5
304.381	71.17
304.595	110.08
304.809	-4.61
305.023	103.93
305.237	28.16
305.452	40.45
305.666	87.55
305.88	-8.7
306.094	62.98
306.308	110.08
306.522	40.45
306.736	75.26
306.95	81.41
307.164	71.17
307.379	44.54
307.593	95.74
307.807	60.93
308.021	69.12
308.235	36.35
308.449	3.58
308.663	-10.75
308.877	77.31
309.091	11.78
309.305	95.74
309.519	15.87
309.733	136.7
309.947	60.93
310.161	28.16
310.374	3.58
310.588	46.59
310.802	38.4
311.016	-18.94
311.23	56.83
311.444	5.63
311.658	85.5
311.872	22.02
312.085	52.74
312.299	48.64
312.513	65.02
312.727	62.98
312.941	28.16
313.154	69.12
313.368	46.59
313.582	83.45
313.796	69.12
314.009	-0.51
314.223	73.21
314.437	17.92
314.651	-4.61
314.864	24.06
315.078	91.65
315.292	36.35
315.505	15.87
315.719	60.93
315.933	30.21
316.146	95.74
316.36	71.17
316.573	134.65
316.787	56.83
317.001	11.78
317.214	44.54
317.428	79.36
317.641	65.02
317.855	52.74
318.068	19.97
318.282	3.58
318.495	85.5
318.709	114.17
318.922	-18.94
319.136	75.26
319.349	99.84
319.563	128.51
319.776	24.06
319.99	7.68
320.203	52.74
320.417	44.54
320.63	30.21
320.843	93.69
321.057	89.6
321.27	101.89
321.483	130.56
321.697	79.36
321.91	60.93
322.124	93.69
322.337	83.45
322.55	-14.85
322.763	54.78
322.977	13.82
323.19	-16.9
323.403	110.08
323.617	-2.56
323.83	120.32
324.043	95.74
324.256	112.13
324.469	36.35
324.683	77.31
324.896	99.84
325.109	69.12
325.322	-25.09
325.535	95.74
325.748	89.6
325.962	77.31
326.175	24.06
326.388	44.54
326.601	93.69
326.814	75.26
327.027	54.78
327.24	118.27
327.453	54.78
327.666	52.74
327.879	71.17
328.092	58.88
328.305	22.02
328.518	91.65
328.731	44.54
328.944	3.58
329.157	114.17
329.37	11.78
329.583	77.31
329.796	81.41
330.009	-8.7
330.222	85.5
330.435	38.4
330.648	69.12
330.861	52.74
331.073	58.88
331.286	77.31
331.499	54.78
331.712	44.54
331.925	134.65
332.138	30.21
332.35	126.46
332.563	30.21
332.776	130.56
332.989	11.78
333.202	60.93
333.414	67.07
333.627	44.54
333.84	58.88
334.053	15.87
334.265	48.64
334.478	50.69
334.691	28.16
334.903	17.92
335.116	15.87
335.329	40.45
335.541	34.3
335.754	167.42
335.966	-2.56
336.179	54.78
336.392	101.89
336.604	79.36
336.817	128.51
337.029	38.4
337.242	36.35
337.454	44.54
337.667	22.02
337.88	71.17
338.092	38.4
338.305	44.54
338.517	38.4
338.729	146.94
338.942	71.17
339.154	24.06
339.367	91.65
339.579	-25.09
339.792	58.88
340.004	44.54
340.217	36.35
340.429	73.21
340.641	38.4
340.854	69.12
341.066	-4.61
341.278	77.31
341.491	110.08
341.703	62.98
341.915	85.5
342.128	136.7
342.34	44.54
342.552	56.83
342.764	42.5
342.977	24.06
343.189	69.12
343.401	77.31
343.613	11.78
343.826	69.12
344.038	81.41
344.25	85.5
344.462	85.5
344.674	36.35
344.886	69.12
345.099	34.3
345.311	36.35
345.523	48.64
345.735	15.87
345.947	46.59
346.159	38.4
346.371	101.89
346.583	28.16
346.795	62.98
347.007	24.06
347.219	40.45
347.431	36.35
347.643	105.98
347.855	11.78
348.067	144.89
348.279	44.54
348.491	60.93
348.703	167.42
348.915	44.54
349.127	38.4
349.339	11.78
349.551	-29.18
349.763	126.46
349.975	132.61
350.187	46.59
350.399	138.75
350.61	54.78
350.822	101.89
351.034	28.16
351.246	24.06
351.458	89.6
351.669	19.97
351.881	60.93
352.093	54.78
352.305	54.78
352.517	28.16
352.728	85.5
352.94	52.74
353.152	69.12
353.363	15.87
353.575	110.08
353.787	83.45
353.999	-4.61
354.21	97.79
354.422	60.93
354.633	69.12
354.845	126.46
355.057	99.84
355.268	52.74
355.48	24.06
355.692	52.74
355.903	56.83
356.115	93.69
356.326	56.83
356.538	142.85
356.749	46.59
356.961	112.13
357.172	79.36
357.384	83.45
357.595	183.81
357.807	85.5
358.018	11.78
358.23	60.93
358.441	122.37
358.653	71.17
358.864	48.64
359.075	56.83
359.287	77.31
359.498	73.21
359.709	54.78
359.921	36.35
360.132	122.37
360.344	60.93
360.555	11.78
360.766	67.07
360.977	-2.56
361.189	110.08
361.4	87.55
361.611	85.5
361.823	128.51
362.034	89.6
362.245	-10.75
362.456	77.31
362.667	7.68
362.879	44.54
363.09	44.54
363.301	118.27
363.512	122.37
363.723	19.97
363.935	91.65
364.146	52.74
364.357	50.69
364.568	136.7
364.779	19.97
364.99	151.04
365.201	60.93
365.412	85.5
365.623	-4.61
365.834	116.22
366.045	46.59
366.256	134.65
366.467	52.74
366.678	87.55
366.889	81.41
367.1	5.63
367.311	89.6
367.522	128.51
367.733	62.98
367.944	110.08
368.155	54.78
368.366	62.98
368.577	105.98
368.788	134.65
368.999	81.41
369.209	89.6
369.42	136.7
369.631	136.7
369.842	122.37
370.053	87.55
370.264	77.31
370.474	46.59
370.685	28.16
370.896	-12.8
371.107	105.98
371.317	93.69
371.528	40.45
371.739	71.17
371.95	93.69
372.16	167.42
372.371	60.93
372.582	65.02
372.792	62.98
373.003	114.17
373.214	11.78
373.424	40.45
373.635	118.27
373.846	54.78
374.056	36.35
374.267	60.93
374.477	36.35
374.688	118.27
374.898	30.21
375.109	101.89
375.319	22.02
375.53	87.55
375.74	54.78
375.951	26.11
376.161	28.16
376.372	11.78
376.582	11.78
376.793	60.93
377.003	54.78
377.214	36.35
377.424	19.97
377.635	65.02
377.845	28.16
378.055	112.13
378.266	28.16
378.476	110.08
378.686	26.11
378.897	46.59
379.107	89.6
379.317	79.36
379.528	30.21
379.738	50.69
379.948	44.54
380.158	9.73
380.369	52.74
380.579	95.74
380.789	67.07
380.999	28.16
381.21	62.98
381.42	77.31
381.63	69.12
381.84	52.74
382.05	62.98
382.261	65.02
382.471	167.42
382.681	97.79
382.891	105.98
383.101	56.83
383.311	28.16
383.521	3.58
383.731	108.03
383.941	11.78
384.151	54.78
384.361	11.78
384.571	105.98
384.781	87.55
384.991	167.42
385.201	83.45
385.411	118.27
385.621	183.81
385.831	83.45
386.041	54.78
386.251	38.4
386.461	161.28
386.671	46.59
386.881	87.55
387.091	22.02
387.301	142.85
387.511	134.65
387.72	122.37
387.93	167.42
388.14	24.06
388.35	140.8
388.56	36.35
388.769	73.21
388.979	44.54
389.189	73.21
389.399	77.31
389.609	101.89
389.818	44.54
390.028	52.74
390.238	128.51
390.447	44.54
390.657	97.79
390.867	91.65
391.076	-2.56
391.286	38.4
391.496	105.98
391.705	138.75
391.915	144.89
392.125	130.56
392.334	60.93
392.544	153.09
392.753	54.78
392.963	77.31
393.172	44.54
393.382	38.4
393.591	167.42
393.801	128.51
394.01	151.04
394.22	77.31
394.429	85.5
394.639	62.98
394.848	192
395.058	136.7
395.267	87.55
395.477	110.08
395.686	151.04
395.895	183.81
396.105	148.99
396.314	134.65
396.524	93.69
396.733	126.46
396.942	134.65
397.152	183.81
397.361	185.85
397.57	101.89
397.78	87.55
397.989	187.9
398.198	177.66
398.407	165.37
398.617	177.66
398.826	153.09
399.035	122.37
399.244	163.33
399.453	200.19
399.663	122.37
399.872	159.23
400.081	60.93
400.29	151.04
400.499	126.46
400.708	212.48
400.917	114.17
401.127	167.42
401.336	151.04
401.545	79.36
401.754	142.85
401.963	208.38
402.172	204.28
402.381	167.42
402.59	136.7
402.799	148.99
403.008	194.05
403.217	196.09
403.426	167.42
403.635	165.37
403.844	241.15
404.053	183.81
404.262	124.41
404.471	267.77
404.68	175.61
404.888	243.2
405.097	192
405.306	224.76
405.515	155.13
405.724	161.28
405.933	192
406.142	216.57
406.35	216.57
406.559	216.57
406.768	243.2
406.977	380.41
407.185	310.78
407.394	273.92
407.603	253.44
407.812	339.45
408.02	335.35
408.229	388.6
408.438	296.44
408.646	290.3
408.855	339.45
409.064	351.74
409.272	335.35
409.481	364.03
409.69	400.89
409.898	413.18
410.107	441.85
410.315	470.52
410.524	454.14
410.733	423.42
410.941	462.33
411.15	454.14
411.358	482.81
411.567	552.44
411.775	536.06
411.984	609.78
412.192	593.4
412.401	611.83
412.609	681.46
412.818	644.6
413.026	685.56
413.234	679.41
413.443	777.72
413.651	736.76
413.86	761.33
414.068	855.54
414.276	749.04
414.485	949.75
414.693	853.49
414.901	937.46
415.11	1000.94
415.318	882.16
415.526	1027.57
415.734	1074.67
415.943	1062.38
416.151	1187.31
416.359	1160.69
416.567	1191.41
416.776	1148.4
416.984	1293.8
417.192	1357.29
417.4	1365.48
417.608	1474.03
417.817	1439.21
418.025	1431.02
418.233	1644.01
418.441	1537.51
418.649	1629.67
418.857	1779.17
419.065	1852.9
419.273	1863.14
419.481	1822.18
419.689	1897.96
419.897	1994.21
420.105	2088.42
420.313	2160.1
420.521	2272.73
420.729	2305.5
420.937	2315.74
421.145	2430.43
421.353	2586.07
421.561	2657.75
421.769	2788.82
421.977	2797.01
422.185	2784.73
422.393	3003.86
422.601	3120.59
422.809	3108.3
423.017	3235.28
423.224	3163.6
423.432	3444.17
423.64	3550.67
423.848	3773.89
424.056	3632.58
424.263	3960.26
424.471	3909.06
424.679	4001.22
424.887	4306.37
425.094	4439.48
425.302	4281.79
425.51	4527.55
425.718	4611.51
425.925	4660.66
426.133	5019.06
426.341	5103.03
426.548	5346.73
426.756	5361.07
426.964	5567.92
427.171	5735.85
427.379	5920.17
427.586	6026.66
427.794	6122.91
428.001	6483.36
428.209	6696.35
428.417	6454.69
428.624	7083.41
428.832	6974.87
429.039	6925.72
429.247	6962.58
429.454	7726.47
429.662	8084.87
429.869	7597.45
430.076	8138.12
430.284	7894.41
430.491	8246.66
430.699	8719.74
430.906	8908.15
431.114	8865.14
431.321	9092.47
431.528	9422.19
431.736	9907.56
431.943	10507.62
432.15	10331.49
432.358	10184.04
432.565	10837.34
432.772	10554.72
432.979	11392.34
433.187	11726.16
433.394	11638.09
433.601	12377.41
433.808	12477.76
434.016	12164.42
434.223	12774.72
434.43	13661.49
434.637	13440.31
434.844	14421.28
435.052	14286.12
435.259	14335.27
435.466	14673.18
435.673	14335.27
435.88	15273.24
436.087	15990.03
436.294	15977.74
436.501	15615.25
436.708	15969.55
436.915	16569.6
437.122	17376.5
437.329	17272.06
437.537	17820.91
437.743	18146.54
437.95	17855.73
438.157	18908.38
438.364	19309.79
438.571	19520.73
438.778	19655.89
438.985	21372.09
439.192	20417.74
439.399	21048.51
439.606	20262.09
439.813	21470.39
440.02	23112.86
440.227	22707.37
440.433	22465.71
440.64	23489.69
440.847	22754.47
441.054	23493.79
441.261	25234.56
441.467	24839.3
441.674	24956.04
441.881	26313.84
442.088	26160.24
442.294	25891.96
442.501	26692.71
442.708	27133.03
442.914	28230.74
443.121	29465.66
443.328	28322.9
443.534	30727.21
443.741	29525.05
443.948	29144.13
444.154	31691.8
444.361	31179.81
444.568	31265.83
444.774	31513.63
444.981	31632.41
445.187	32300.05
445.394	33872.89
445.6	33526.78
445.807	36842.45
446.013	35259.37
446.22	35914.72
446.426	37137.35
446.633	37430.21
446.839	38859.7
447.046	37608.39
447.252	38945.71
447.459	39285.67
447.665	39402.41
447.871	40922
448.078	42562.42
448.284	40661.91
448.491	41325.45
448.697	43080.56
448.903	43787.11
449.11	44122.97
449.316	43555.69
449.522	44133.21
449.728	45341.52
449.935	45720.39
450.141	45654.86
450.347	46742.33
450.553	45026.13
450.76	45642.57
450.966	47022.9
451.172	46410.56
451.378	47913.76
451.584	46953.27
451.791	47555.37
451.997	47618.86
452.203	48562.97
452.409	48548.64
452.615	48298.78
452.821	46572.35
453.027	46453.56
453.233	48737.05
453.44	46277.44
453.646	47272.75
453.852	47459.12
454.058	47979.3
454.264	46805.81
454.47	47416.11
454.676	46435.13
454.882	48026.4
455.088	43930.47
455.294	44428.12
455.5	45284.17
455.705	46060.35
455.911	44374.87
456.117	43092.85
456.323	42287.99
456.529	40606.61
456.735	42144.64
456.941	41149.32
457.147	40414.1
457.352	39318.44
457.558	38964.14
457.764	38994.86
457.97	38087.61
458.176	37362.63
458.381	37032.91
458.587	35302.37
458.793	35728.35
458.999	33776.64
459.204	35871.71
459.41	35320.81
459.616	32787.47
459.821	32982.02
460.027	32789.52
460.233	31876.12
460.438	30317.62
460.644	30477.36
460.85	29207.62
461.055	29041.73
461.261	28734.54
461.466	26580.07
461.672	25820.28
461.878	27749.46
462.083	25973.88
462.289	25523.32
462.494	25054.34
462.7	24200.33
462.905	23043.23
463.111	24398.99
463.316	24413.32
463.522	23786.65
463.727	23563.42
463.932	23493.79
464.138	23649.43
464.343	23442.59
464.549	22809.76
464.754	23561.37
464.959	23250.08
465.165	23192.73
465.37	22150.32
465.575	21617.85
465.781	22281.39
465.986	22396.07
466.191	21585.08
466.397	21308.6
466.602	20241.61
466.807	20972.74
467.012	20980.93
467.218	20833.47
467.423	20794.56
467.628	20733.12
467.833	21429.43
468.038	20690.12
468.244	20151.5
468.449	21116.09
468.654	20247.76
468.859	19850.45
469.064	19926.22
469.269	19363.03
469.474	19270.87
469.679	19668.18
469.885	19315.93
470.09	19330.27
470.295	19373.27
470.5	18543.85
470.705	18762.98
470.91	18369.77
471.115	18246.89
471.32	18554.08
471.525	18390.25
471.73	17765.62
471.935	17771.76
472.139	17499.38
472.344	17507.57
472.549	17552.63
472.754	17300.73
472.959	16510.21
473.164	16315.66
473.369	16184.59
473.574	17040.64
473.778	16592.13
473.983	16497.92
474.188	16278.79
474.393	15658.26
474.598	15711.5
474.802	15768.85
475.007	15654.16
475.212	15475.99
475.417	15109.4
475.621	14972.19
475.826	14910.75
476.031	14415.14
476.235	14273.83
476.44	14763.29
476.645	14157.1
476.849	13999.4
477.054	14112.04
477.259	14126.38
477.463	13948.2
477.668	13749.55
477.872	13915.44
478.077	13495.6
478.282	13249.85
478.486	13194.55
478.691	13028.67
478.895	13059.38
479.1	12873.02
479.304	12825.92
479.509	12420.42
479.713	12866.88
479.918	12559.68
480.122	12172.61
480.326	12404.03
480.531	12610.88
480.735	12166.47
480.94	12244.29
481.144	12666.17
481.348	11963.72
481.553	12111.18
481.757	12086.6
481.961	12180.81
482.166	12191.05
482.37	12025.16
482.574	11787.6
482.778	11920.71
482.983	12137.8
483.187	11935.05
483.391	12016.97
483.595	11771.21
483.8	11826.51
484.004	11799.88
484.208	11918.67
484.412	11871.56
484.616	11801.93
484.821	12008.78
485.025	11652.43
485.229	12082.5
485.433	11963.72
485.637	11748.68
485.841	11640.14
486.045	11640.14
486.249	12023.11
486.453	11742.54
486.657	11697.49
486.861	11593.04
487.065	11595.09
487.269	11771.21
487.473	11502.93
487.677	11855.18
487.881	11935.05
488.085	11691.34
488.289	11826.51
488.493	11677.01
488.697	12008.78
488.901	11726.16
489.105	12019.02
489.309	11953.48
489.512	12135.75
489.716	11732.3
489.92	11760.97
490.124	11726.16
490.328	12135.75
490.531	11976.01
490.735	11998.54
490.939	12178.76
491.143	11900.23
491.346	11873.61
491.55	12211.53
491.754	12023.11
491.958	12395.84
492.161	12252.49
492.365	12195.14
492.569	12473.67
492.772	12248.39
492.976	12498.24
493.18	12436.8
493.383	12471.62
493.587	12440.9
493.79	12832.06
493.994	12307.78
494.197	12672.32
494.401	12717.37
494.605	12813.63
494.808	12950.84
495.012	12862.78
495.215	13077.82
495.419	13094.2
495.622	13249.85
495.825	13319.48
496.029	13241.65
496.232	13495.6
496.436	13307.19
496.639	14150.95
496.843	13806.89
497.046	14056.75
497.249	14142.76
497.453	14392.61
497.656	14517.54
497.859	14472.48
498.063	14664.99
498.266	14771.49
498.469	14904.6
498.673	15017.24
498.876	15486.23
499.079	15105.31
499.282	15355.16
499.485	15711.5
499.689	15596.82
499.892	15758.61
500.095	15942.92
500.298	16338.18
500.501	15944.97
500.705	16555.27
500.908	16772.35
501.111	16762.11
501.314	16971.01
501.517	17229.05
501.72	17339.64
501.923	17394.93
502.126	17927.41
502.329	17898.73
502.532	18152.68
502.735	18087.15
502.938	18316.52
503.141	18363.62
503.344	18816.22
503.547	18740.45
503.75	19150.04
503.953	19428.57
504.156	19594.45
504.359	19674.32
504.562	19846.35
504.765	20245.71
504.968	20329.67
505.17	20761.8
505.373	20460.74
505.576	20782.27
505.779	21144.77
505.982	21429.43
506.185	21834.93
506.387	21851.31
506.59	21978.29
506.793	22287.53
506.996	22111.41
507.198	22680.74
507.401	22836.39
507.604	23112.86
507.807	23557.27
508.009	23399.58
508.212	23760.02
508.415	24099.98
508.617	24425.61
508.82	24362.12
509.022	24327.31
509.225	24968.32
509.428	25193.6
509.63	25476.22
509.833	25201.79
510.035	26053.75
510.238	25711.74
510.44	26246.26
510.643	26621.03
510.845	27018.34
511.048	26844.26
511.25	27597.91
511.453	27311.2
511.655	28251.22
511.858	28064.85
512.06	28124.24
512.262	28722.25
512.465	28329.04
512.667	29025.35
512.87	29463.61
513.072	29224
513.274	29615.16
513.477	30123.06
513.679	30024.76
513.881	30788.65
514.084	30749.74
514.286	30962.73
514.488	30977.06
514.69	31931.42
514.893	31671.32
515.095	32091.16
515.297	32494.61
515.499	32322.58
515.701	33141.77
515.904	33356.8
516.106	33176.58
516.308	33590.27
516.51	34102.26
516.712	34386.93
516.914	34735.09
517.116	35159.02
517.318	35261.41
517.52	35443.68
517.722	35374.05
517.925	35775.45
518.127	36371.41
518.329	36717.52
518.531	36320.21
518.733	36848.59
518.935	36809.68
519.136	37233.61
519.338	37555.14
519.54	38030.27
519.742	38708.15
519.944	38534.07
520.146	38958
520.348	38693.81
520.55	39095.21
520.752	39189.42
520.954	39676.83
521.155	39674.79
521.357	40246.17
521.559	40223.64
521.761	40696.72
521.963	40328.09
522.164	40702.87
522.366	40752.02
522.568	41540.49
522.77	41751.43
522.971	41845.63
523.173	41384.84
523.375	42263.42
523.576	42095.49
523.778	41589.64
523.98	42519.42
524.181	42754.93
524.383	42437.5
524.584	42754.93
524.786	42873.71
524.988	43027.31
525.189	43772.77
525.391	43391.85
525.592	43414.38
525.794	43950.95
525.995	43901.79
526.197	43826.02
526.398	43932.51
526.6	44450.65
526.801	44086.11
527.003	44098.4
527.204	44622.68
527.406	44407.64
527.607	44720.98
527.808	44876.63
528.01	43866.98
528.211	44313.44
528.412	44790.61
528.614	44589.91
528.815	44409.69
529.016	44653.4
529.218	44424.03
529.419	44811.09
529.62	44893.01
529.822	44544.86
530.023	44536.66
530.224	44999.51
530.425	44712.79
530.626	44174.17
530.828	44114.78
531.029	44913.49
531.23	44499.8
531.431	44413.79
531.632	44415.83
531.833	44733.27
532.035	44706.65
532.236	44481.37
532.437	44712.79
532.638	44200.8
532.839	44682.07
533.04	44446.55
533.241	44008.29
533.442	44878.68
533.643	44444.51
533.844	44557.14
534.045	44225.37
534.246	43737.96
534.447	44544.86
534.648	44073.82
534.849	44276.57
535.05	43914.08
535.251	44407.64
535.451	43660.13
535.652	44424.03
535.853	43803.49
536.054	43842.4
536.255	44088.16
536.456	43299.69
536.657	44215.13
536.857	43729.76
537.058	43414.38
537.259	43778.92
537.46	43598.69
537.66	43238.25
537.861	43647.85
538.062	43275.12
538.263	43580.26
538.463	43330.41
538.664	42787.7
538.865	43449.19
539.065	43744.1
539.266	43098.99
539.466	43250.54
539.667	42488.7
539.868	43172.72
540.068	43228.01
540.269	42824.56
540.469	43420.52
540.67	42666.87
540.87	42986.35
541.071	43352.94
541.271	42730.36
541.472	43246.44
541.672	42697.59
541.873	42132.35
542.073	42435.45
542.274	42951.54
542.474	42519.42
542.675	42419.06
542.875	42933.1
543.075	42464.12
543.276	42083.2
543.476	42994.54
543.676	42247.04
543.877	42765.17
544.077	42630.01
544.277	42122.11
544.478	42304.38
544.678	42812.27
544.878	42460.02
545.078	42660.73
545.279	42353.53
545.479	41964.42
545.679	42584.95
545.879	42337.15
546.079	42214.27
546.28	42142.59
546.48	41646.98
546.68	42443.64
546.88	42697.59
547.08	42292.09
547.28	42158.97
547.48	42115.97
547.68	42273.66
547.88	41751.43
548.081	42378.11
548.281	42138.49
548.481	41870.21
548.681	42259.32
548.881	42339.19
549.081	42363.77
549.28	41898.88
549.48	42511.22
549.68	41950.08
549.88	42355.58
550.08	41923.46
550.28	42148.73
550.48	42115.97
550.68	42879.86
550.88	42212.22
551.08	42390.39
551.279	42247.04
551.479	42150.78
551.679	42097.53
551.879	42148.73
552.079	42683.25
552.278	42238.84
552.478	42064.77
552.678	42529.66
552.878	42623.86
553.077	42826.61
553.277	42046.33
553.477	42902.39
553.676	42326.91
553.876	42417.02
554.076	42543.99
554.275	42322.81
554.475	41933.7
554.674	42392.44
554.874	42179.45
555.074	42324.86
555.273	42478.46
555.473	42789.75
555.672	42181.5
555.872	42093.44
556.071	42697.59
556.271	42447.74
556.47	42314.62
556.67	42363.77
556.869	42398.59
557.068	42492.79
557.268	42285.95
557.467	42523.51
557.667	42601.33
557.866	42701.68
558.065	42599.29
558.265	42455.93
558.464	42838.9
558.663	43066.22
558.863	42148.73
559.062	42713.97
559.261	42191.74
559.461	42779.51
559.66	42099.58
559.859	42638.2
560.058	42140.54
560.258	42548.09
560.457	41829.25
560.656	42679.16
560.855	42230.65
561.054	42605.43
561.253	41976.7
561.453	42535.8
561.652	42668.92
561.851	42832.75
562.05	42441.59
562.249	42070.91
562.448	42410.87
562.647	42550.13
562.846	42292.09
563.045	42414.97
563.244	42019.71
563.443	42517.37
563.642	41671.56
563.841	41950.08
564.04	41528.2
564.239	42328.95
564.438	41442.18
564.637	42115.97
564.836	42128.25
565.035	41603.97
565.234	42056.57
565.432	41792.39
565.631	41483.14
565.83	41780.1
566.029	41878.4
566.228	41442.18
566.427	41419.66
566.625	41253.77
566.824	40997.77
567.023	41663.36
567.222	40760.21
567.42	41679.75
567.619	41225.1
567.818	41270.15
568.016	41036.69
568.215	41460.62
568.414	40854.42
568.612	41409.42
568.811	40600.47
569.01	40962.96
569.208	40307.61
569.407	41096.08
569.605	40336.28
569.804	40663.96
570.002	40100.76
570.201	40393.62
570.4	40242.07
570.598	39984.03
570.797	39984.03
570.995	40004.51
571.193	39572.39
571.392	40291.23
571.59	39412.65
571.789	39738.27
571.987	39795.62
572.186	39416.74
572.384	39095.21
572.582	39308.2
572.781	39764.9
572.979	39005.1
573.177	39033.77
573.376	38937.52
573.574	38677.43
573.772	39207.85
573.971	38443.96
574.169	38259.64
574.367	38099.9
574.565	38499.25
574.763	38450.1
574.962	38235.06
575.16	37823.42
575.358	38282.17
575.556	37960.64
575.754	38394.81
575.952	37524.42
576.151	38233.02
576.349	37901.25
576.547	37612.48
576.745	37465.03
576.943	37665.73
577.141	37352.39
577.339	37354.44
577.537	37008.33
577.735	37192.65
577.933	36914.12
578.131	37082.06
578.329	36826.06
578.527	36535.25
578.725	36821.97
578.923	36518.87
579.121	36420.56
579.319	36283.35
579.516	36615.12
579.714	36404.18
579.912	36152.28
580.11	35986.39
580.308	35924.96
580.506	35980.25
580.704	35218.41
580.901	35560.42
581.099	35595.23
581.297	35322.85
581.495	35187.69
581.692	35363.81
581.89	34855.92
582.088	35345.38
582.285	34878.44
582.483	35249.13
582.681	34929.64
582.878	34771.95
583.076	34440.18
583.274	35140.58
583.471	34481.14
583.669	34503.67
583.866	34431.99
584.064	34589.68
584.262	33915.9
584.459	34163.7
584.657	34114.55
584.854	34216.95
585.052	33500.16
585.249	33850.36
585.447	34012.15
585.644	33504.26
585.841	33508.35
586.039	34153.46
586.236	32902.15
586.434	33199.11
586.631	33000.46
586.828	33229.83
587.026	33547.26
587.223	33065.99
587.42	32812.04
587.618	33203.21
587.815	32554
588.012	32717.84
588.21	32687.12
588.407	33039.37
588.604	32363.54
588.801	32597.01
588.999	32549.9
589.196	32302.1
589.393	32203.8
589.59	32085.01
589.787	31757.34
589.984	31736.86
590.182	31493.15
590.379	31855.64
590.576	31874.07
590.773	31921.18
590.97	31685.66
591.167	31714.33
591.364	31439.9
591.561	32156.69
591.758	31403.04
591.955	31343.65
592.152	31648.8
592.349	31011.88
592.546	31321.12
592.743	31431.71
592.94	30919.72
593.137	30917.67
593.334	31101.99
593.531	30782.51
593.727	30749.74
593.924	30948.39
594.121	30692.4
594.318	30895.14
594.515	30446.64
594.712	30866.47
594.908	30710.83
595.105	30747.69
595.302	30286.9
595.499	30450.74
595.696	30065.72
595.892	30147.64
596.089	30383.15
596.286	30340.15
596.482	30510.13
596.679	30311.47
596.876	30438.45
597.072	30200.88
597.269	30553.13
597.466	30014.52
597.662	30030.9
597.859	29854.78
598.055	29932.6
598.252	29572.16
598.448	30125.11
598.645	29629.5
598.841	29549.63
599.038	30030.9
599.234	30102.58
599.431	29635.64
599.627	29586.49
599.824	29803.58
600.02	29586.49
600.217	29570.11
600.413	29680.7
600.609	29463.61
600.806	29779
601.002	29979.7
601.198	29498.43
601.395	29680.7
601.591	29543.49
601.787	29512.77
601.984	29189.19
602.18	29991.99
602.376	29645.88
602.572	29625.4
602.769	29795.39
602.965	29334.59
603.161	29410.37
603.357	29475.9
603.553	29897.78
603.75	29088.84
603.946	29119.56
604.142	29688.89
604.338	29461.57
604.534	29393.98
604.73	29209.67
604.926	29463.61
605.122	29543.49
605.318	29692.99
605.514	29402.18
605.71	29738.04
605.906	29475.9
606.102	29463.61
606.298	29668.41
606.494	29539.39
606.69	29930.55
606.886	29637.69
607.082	29613.12
607.278	29727.8
607.474	29025.35
607.67	29779
607.866	29148.23
608.062	30067.77
608.257	29686.84
608.453	29557.82
608.649	29799.48
608.845	29477.95
609.041	29705.27
609.236	29873.21
609.432	29752.38
609.628	29797.43
609.824	29867.06
610.019	29678.65
610.215	29717.56
610.411	30252.08
610.606	29674.56
610.802	29930.55
610.998	29899.83
611.193	29916.22
611.389	29518.91
611.584	29668.41
611.78	29809.72
611.976	29815.87
612.171	30039.09
612.367	29912.12
612.562	29711.42
612.758	29310.02
612.953	29721.66
613.149	30071.86
613.344	29547.58
613.539	30143.54
613.735	30094.39
613.93	30196.79
614.126	30170.16
614.321	30059.57
614.517	30264.37
614.712	29869.11
614.907	30219.31
615.103	30196.79
615.298	29951.03
615.493	30338.1
615.688	29785.15
615.884	30485.55
616.079	29535.29
616.274	30446.64
616.47	30049.33
616.665	29918.26
616.86	30008.37
617.055	30149.68
617.25	29959.22
617.445	30172.21
617.641	29615.16
617.836	30315.57
618.031	29502.53
618.226	30090.29
618.421	29635.64
618.616	30008.37
618.811	29537.34
619.006	29549.63
619.201	29017.16
619.396	29664.32
619.591	28916.81
619.786	29066.31
619.981	29062.21
620.176	29154.37
620.371	28791.88
620.566	29070.4
620.761	28849.22
620.956	28853.32
621.151	28324.94
621.346	28785.74
621.541	28691.53
621.735	28789.83
621.93	28152.91
622.125	28099.67
622.32	27755.61
622.515	28281.94
622.709	27712.6
622.904	27935.83
623.099	27647.07
623.294	27561.05
623.488	27282.53
623.683	27509.85
623.878	27303.01
624.072	27075.68
624.267	27038.82
624.462	27049.06
624.656	26694.76
624.851	26412.14
625.046	26512.49
625.24	26434.67
625.435	26051.7
625.629	26342.51
625.824	26291.31
626.018	25971.83
626.213	25400.44
626.407	25769.08
626.602	25269.37
626.796	25566.33
626.991	25238.65
627.185	25160.83
627.38	25097.35
627.574	24831.11
627.768	24474.76
627.963	24800.39
628.157	24863.88
628.352	24384.65
628.546	24040.59
628.74	24487.05
628.935	23819.41
629.129	24106.13
629.323	23688.34
629.517	23536.79
629.712	23571.61
629.906	23383.2
630.1	23391.39
630.294	23628.95
630.489	23037.09
630.683	23225.5
630.877	22975.65
631.071	22660.26
631.265	22893.73
631.459	22811.81
631.653	22502.57
631.848	22713.51
632.042	22115.5
632.236	22207.66
632.43	22043.82
632.624	22273.2
632.818	21986.48
633.012	21544.12
633.206	21623.99
633.4	21433.53
633.594	21124.29
633.788	21236.92
633.982	21376.19
634.176	21075.13
634.369	21105.85
634.563	20985.02
634.757	21050.56
634.951	20712.64
635.145	20665.54
635.339	20767.94
635.533	20450.5
635.726	20380.87
635.92	20270.28
636.114	19952.85
636.308	20004.05
636.501	19903.7
636.695	19899.6
636.889	19625.17
637.083	19690.71
637.276	19338.46
637.47	19614.93
637.664	19356.89
637.857	19191
638.051	19137.76
638.244	18857.18
638.438	18863.33
638.632	19055.84
638.825	18406.63
639.019	18525.41
639.212	18500.84
639.406	18502.89
639.599	18287.85
639.793	18148.59
639.986	17863.92
640.18	18083.05
640.373	17968.37
640.567	17657.07
640.76	17546.48
640.954	17380.6
641.147	17411.32
641.34	17253.62
641.534	17181.95
641.727	17181.95
641.92	17038.59
642.114	16837.89
642.307	16805.12
642.5	16850.17
642.694	16545.03
642.887	16399.62
643.08	16524.55
643.273	16391.43
643.467	16342.28
643.66	16018.7
643.853	15918.35
644.046	15557.91
644.239	16020.75
644.432	15869.2
644.626	15738.13
644.819	15731.98
645.012	15764.75
645.205	15451.41
645.398	15412.5
645.591	15269.14
645.784	15123.74
645.977	14789.92
646.17	14996.76
646.363	14732.58
646.556	14656.8
646.749	14863.65
646.942	14777.63
647.135	14392.61
647.328	14355.75
647.521	14568.74
647.714	14363.94
647.907	14083.37
648.099	14093.61
648.292	14118.18
648.485	13897
648.678	13653.3
648.871	13688.11
649.064	13649.2
649.256	13550.9
649.449	13589.81
649.642	13641.01
649.835	13342
650.027	13231.41
650.22	13337.91
650.413	13122.87
650.605	13118.78
650.798	13122.87
650.991	12940.6
651.183	12830.01
651.376	12619.07
651.568	12821.82
651.761	12676.41
651.954	12766.53
652.146	12629.31
652.339	12602.69
652.531	12125.51
652.724	12524.86
652.916	12141.89
653.109	12008.78
653.301	12309.83
653.494	12346.69
653.686	12160.33
653.879	12168.52
654.071	11951.43
654.263	11851.08
654.456	11701.58
654.648	12004.68
654.84	11472.21
655.033	11541.84
655.225	11363.67
655.417	11455.83
655.61	11545.94
655.802	11363.67
655.994	11404.63
656.186	11119.96
656.379	11101.53
656.571	11267.41
656.763	10988.89
656.955	10866.01
657.148	11023.7
657.34	11058.52
657.532	10675.55
657.724	10636.64
657.916	10661.21
658.108	10788.19
658.3	10788.19
658.492	10624.35
658.684	10423.65
658.876	10335.59
659.068	10538.34
659.26	10253.67
659.452	10126.69
659.644	10335.59
659.836	10104.17
660.028	10253.67
660.22	9862.51
660.412	10022.25
660.604	9790.83
660.796	10007.91
660.988	9874.79
661.18	9649.52
661.372	9508.21
661.563	9559.41
661.755	9467.25
661.947	9508.21
662.139	9467.25
662.331	9424.24
662.522	9262.45
662.714	9194.87
662.906	9090.42
663.097	9039.22
663.289	9071.99
663.481	8906.1
663.673	9043.32
663.864	8797.56
664.056	8942.97
664.247	8930.68
664.439	8957.3
664.631	8922.49
664.822	8854.9
665.014	8783.23
665.205	8686.97
665.397	8498.56
665.588	8625.53
665.78	8498.56
665.971	8369.54
666.163	8260.99
666.354	8312.19
666.546	8289.67
666.737	8105.35
666.929	8156.55
667.12	8205.7
667.311	8099.2
667.503	8123.78
667.694	8127.88
667.885	7947.65
668.077	8064.39
668.268	7970.18
668.459	7974.28
668.651	7755.15
668.842	7843.21
669.033	7859.59
669.224	7650.7
669.416	7746.95
669.607	7630.22
669.798	7753.1
669.989	7785.87
670.18	7433.61
670.371	7576.97
670.563	7417.23
670.754	7587.21
670.945	7257.49
671.136	7490.96
671.327	7337.36
671.518	7329.17
671.709	7357.84
671.9	7484.81
672.091	7296.4
672.282	7263.63
672.473	7089.56
672.664	7347.6
672.855	7157.14
673.046	7237.01
673.237	7015.83
673.428	7163.28
673.619	7007.64
673.809	7083.41
674	7142.8
674.191	6868.38
674.382	7187.86
674.573	6903.19
674.764	6903.19
674.954	6880.66
675.145	6780.31
675.336	6954.39
675.527	6821.27
675.717	6851.99
675.908	6643.1
676.099	6706.59
676.289	6626.71
676.48	6745.5
676.671	6720.92
676.861	6737.31
677.052	6624.67
677.243	6591.9
677.433	6499.74
677.624	6655.39
677.814	6618.52
678.005	6618.52
678.195	6536.6
678.386	6518.17
678.576	6526.36
678.767	6442.4
678.957	6405.53
679.148	6606.24
679.338	6260.13
679.529	6530.46
679.719	6352.29
679.909	6409.63
680.1	6370.72
680.29	6387.1
680.481	6262.18
680.671	6335.9
680.861	6296.99
681.052	6409.63
681.242	6167.97
681.432	6233.5
681.622	6290.85
681.813	6340
682.003	6274.46
682.193	6182.31
682.383	6356.38
682.573	6059.43
682.764	6092.2
682.954	6153.63
683.144	6221.22
683.334	6129.06
683.524	6196.64
683.714	6114.72
683.904	6307.23
684.094	6100.39
684.284	6012.32
684.474	6253.98
684.664	6034.85
684.854	6098.34
685.044	6073.76
685.234	6028.71
685.424	5932.45
685.614	5877.16
685.804	5932.45
685.994	5959.08
686.184	5961.13
686.374	5832.1
686.564	5889.45
686.753	5873.06
686.943	5647.79
687.133	5997.99
687.323	5928.36
687.513	5799.34
687.702	5787.05
687.892	5723.56
688.082	5676.46
688.272	5684.65
688.461	5557.68
688.651	5684.65
688.841	5719.46
689.03	5598.63
689.22	5688.75
689.41	5623.21
689.599	5782.95
689.789	5705.13
689.979	5672.36
690.168	5615.02
690.358	5709.22
690.547	5469.61
690.737	5418.41
690.926	5537.2
691.116	5449.13
691.305	5610.92
691.495	5316.01
691.684	5436.85
691.874	5393.84
692.063	5426.61
692.252	5326.25
692.442	5402.03
692.631	5205.42
692.82	5186.99
693.01	5363.12
693.199	5387.69
693.388	5213.62
693.578	5191.09
693.767	5266.86
693.956	5270.96
694.146	5238.19
694.335	5189.04
694.524	5129.65
694.713	5189.04
694.902	5139.89
695.092	5103.03
695.281	5068.21
695.47	5125.55
695.659	5207.47
695.848	4873.65
696.037	5148.08
696.226	5008.82
696.415	5029.3
696.604	5033.4
696.793	4988.34
696.982	4883.89
697.171	5225.9
697.36	4928.95
697.549	4941.24
697.738	4828.6
697.927	4748.73
698.116	4820.41
698.305	5088.69
698.494	4775.35
698.683	4844.98
698.872	4873.65
699.061	4918.71
699.25	4855.22
699.438	4844.98
699.627	4859.32
699.816	4996.53
700.005	4814.26
700.193	4709.82
700.382	4769.21
700.571	4711.86
700.76	4758.97
700.948	4730.3
701.137	4715.96
701.326	4718.01
701.514	4593.08
701.703	4634.04
701.892	4681.14
702.08	4672.95
702.269	4634.04
702.457	4586.94
702.646	4748.73
702.834	4517.31
703.023	4445.63
703.212	4586.94
703.4	4462.01
703.589	4425.15
703.777	4541.88
703.965	4505.02
704.154	4525.5
704.342	4419
704.531	4361.66
704.719	4443.58
704.907	4445.63
705.096	4484.54
705.284	4425.15
705.472	4425.15
705.661	4435.39
705.849	4423.1
706.037	4566.46
706.226	4386.24
706.414	4330.94
706.602	4382.14
706.79	4355.52
706.979	4304.32
707.167	4279.74
707.355	4181.44
707.543	4177.34
707.731	4263.36
707.919	4173.25
708.107	4242.88
708.296	4158.91
708.484	4197.82
708.672	4222.4
708.86	4058.56
709.048	4036.03
709.236	4050.37
709.424	4083.14
709.612	4113.86
709.8	3962.31
709.988	4001.22
710.176	4113.86
710.364	4025.79
710.551	4054.47
710.739	3993.03
710.927	3966.4
711.115	3968.45
711.303	4001.22
711.491	3976.64
711.679	4001.22
711.866	3935.68
712.054	3943.88
712.242	3874.24
712.43	4017.6
712.617	3851.72
712.805	3757.51
712.993	3878.34
713.181	3714.5
713.368	3655.11
713.556	3698.12
713.744	3728.84
713.931	3878.34
714.119	3722.7
714.306	3837.38
714.494	3743.17
714.682	3628.49
714.869	3659.21
715.057	3595.72
715.244	3694.02
715.432	3724.74
715.619	3749.32
715.807	3759.56
715.994	3657.16
716.182	3634.63
716.369	3630.54
716.556	3646.92
716.744	3593.67
716.931	3552.71
717.119	3546.57
717.306	3485.13
717.493	3632.58
717.681	3595.72
717.868	3612.1
718.055	3700.17
718.242	3571.15
718.43	3554.76
718.617	3495.37
718.804	3562.95
718.991	3485.13
719.179	3509.71
719.366	3435.98
719.553	3263.95
719.74	3411.4
719.927	3362.25
720.114	3440.08
720.301	3358.16
720.488	3296.72
720.676	3214.8
720.863	3360.2
721.05	3421.64
721.237	3358.16
721.424	3409.36
721.611	3325.39
721.798	3134.93
721.985	3296.72
722.172	3263.95
722.358	3315.15
722.545	3255.76
722.732	3210.7
722.919	3200.46
723.106	3225.04
723.293	3214.8
723.48	3288.53
723.667	3143.12
723.853	3243.47
724.04	3214.8
724.227	3255.76
724.414	3198.42
724.6	3233.23
724.787	3075.54
724.974	3292.62
725.161	3157.46
725.347	2966.99
725.534	3157.46
725.72	3233.23
725.907	3071.44
726.094	3067.35
726.28	3087.82
726.467	3157.46
726.653	3022.29
726.84	3059.15
727.027	3212.75
727.213	3059.15
727.4	3059.15
727.586	3046.87
727.773	3034.58
727.959	2985.43
728.145	2928.08
728.332	3014.1
728.518	2944.47
728.705	3096.02
728.891	2981.33
729.077	2913.75
729.264	2979.28
729.45	2878.93
729.636	2944.47
729.823	2911.7
730.009	2862.55
730.195	2928.08
730.382	2895.32
730.568	2772.44
730.754	2921.94
730.94	2948.56
731.126	3012.05
731.313	2788.82
731.499	2878.93
731.685	2936.28
731.871	2876.88
732.057	2790.87
732.243	3001.81
732.429	2797.01
732.615	2797.01
732.801	2864.6
732.987	2799.06
733.173	2758.1
733.359	2842.07
733.545	2676.18
733.731	2674.14
733.917	2862.55
734.103	2711
734.289	2762.2
734.475	2631.13
734.661	2792.92
734.847	2602.46
735.033	2801.11
735.219	2667.99
735.404	2700.76
735.59	2649.56
735.776	2633.18
735.962	2735.57
736.148	2653.66
736.333	2622.94
736.519	2686.42
736.705	2612.7
736.89	2743.77
737.076	2692.57
737.262	2612.7
737.447	2534.87
737.633	2553.31
737.819	2643.42
738.004	2545.11
738.19	2579.93
738.375	2520.54
738.561	2579.93
738.747	2551.26
738.932	2403.8
739.118	2553.31
739.303	2502.11
739.489	2504.15
739.674	2405.85
739.859	2250.21
740.045	2481.63
740.23	2444.76
740.416	2360.8
740.601	2526.68
740.786	2522.59
740.972	2397.66
741.157	2389.47
741.342	2373.08
741.528	2356.7
741.713	2313.69
741.898	2412
742.084	2325.98
742.269	2330.08
742.454	2334.17
742.639	2328.03
742.824	2317.79
743.01	2272.73
743.195	2362.84
743.38	2227.68
743.565	2217.44
743.75	2225.63
743.935	2221.53
744.12	2293.21
744.305	2223.58
744.49	2094.56
744.675	2282.97
744.86	2180.57
745.045	2145.76
745.23	2293.21
745.415	2094.56
745.6	2131.42
745.785	2162.14
745.97	2151.9
746.155	2100.7
746.34	2020.83
746.525	2026.98
746.71	2203.1
746.895	2037.22
747.079	2063.84
747.264	1969.63
747.449	1973.73
747.634	2022.88
747.819	2016.74
748.003	2002.4
748.188	2006.5
748.373	2014.69
748.557	1969.63
748.742	1867.24
748.927	2035.17
749.111	1854.95
749.296	1928.67
749.481	1848.8
749.665	1906.15
749.85	1752.55
750.034	1938.91
750.219	1793.51
750.404	1883.62
750.588	1789.41
750.773	1820.13
750.957	1822.18
751.141	1775.08
751.326	1705.45
751.51	1662.44
751.695	1748.45
751.879	1699.3
752.064	1742.31
752.248	1756.65
752.432	1732.07
752.617	1693.16
752.801	1744.36
752.985	1717.73
753.17	1678.82
753.354	1711.59
753.538	1689.06
753.722	1539.56
753.907	1650.15
754.091	1664.49
754.275	1582.57
754.459	1531.37
754.643	1541.61
754.828	1506.79
755.012	1578.47
755.196	1431.02
755.38	1568.23
755.564	1449.45
755.748	1560.04
755.932	1486.31
756.116	1422.83
756.3	1502.7
756.484	1332.72
756.668	1482.22
756.852	1322.48
757.036	1363.44
757.22	1412.59
757.404	1418.73
757.588	1383.91
757.772	1420.78
757.956	1441.26
758.14	1469.93
758.323	1388.01
758.507	1426.92
758.691	1314.28
758.875	1428.97
759.059	1375.72
759.242	1347.05
759.426	1265.13
759.61	1314.28
759.794	1191.41
759.977	1291.76
760.161	1306.09
760.345	1191.41
760.528	1199.6
760.712	1226.22
760.895	1218.03
761.079	1291.76
761.263	1185.26
761.446	1258.99
761.63	1175.02
761.813	1226.22
761.997	1168.88
762.18	1064.43
762.364	1097.2
762.547	1125.87
762.731	1166.83
762.914	1134.06
763.098	1086.96
763.281	1138.16
763.464	1097.2
763.648	1191.41
763.831	1103.34
764.015	1144.3
764.198	1252.84
764.381	1091.06
764.564	1109.49
764.748	1084.91
764.931	1125.87
765.114	1068.53
765.297	1080.82
765.481	1029.62
765.664	1052.14
765.847	1011.18
766.03	1121.77
766.213	1080.82
766.397	1039.86
766.58	1101.3
766.763	1101.3
766.946	1117.68
767.129	1043.95
767.312	1068.53
767.495	1060.34
767.678	1033.71
767.861	1056.24
768.044	1080.82
768.227	1019.38
768.41	1025.52
768.593	1062.38
768.776	1037.81
768.959	921.07
769.142	1033.71
769.324	984.56
769.507	1007.09
769.69	1011.18
769.873	970.23
770.056	1037.81
770.239	949.75
770.421	1005.04
770.604	1043.95
770.787	908.79
770.97	1023.47
771.152	994.8
771.335	1002.99
771.518	929.27
771.7	933.36
771.883	900.59
772.066	904.69
772.248	974.32
772.431	1007.09
772.613	916.98
772.796	884.21
772.978	996.85
773.161	941.55
773.343	839.16
773.526	882.16
773.708	896.5
773.891	847.35
774.073	892.4
774.256	886.26
774.438	888.31
774.621	833.01
774.803	873.97
774.985	800.24
775.168	927.22
775.35	806.39
775.532	857.59
775.715	800.24
775.897	847.35
776.079	703.99
776.261	876.02
776.444	775.67
776.626	822.77
776.808	708.09
776.99	703.99
777.173	740.85
777.355	845.3
777.537	790
777.719	783.86
777.901	773.62
778.083	849.4
778.265	732.66
778.447	728.56
778.629	747
778.811	767.48
778.993	761.33
779.175	691.7
779.357	757.24
779.539	675.32
779.721	728.56
779.903	734.71
780.085	617.97
780.267	679.41
780.449	701.94
780.631	683.51
780.812	675.32
780.994	585.21
781.176	636.41
781.358	603.64
781.54	599.54
781.721	765.43
781.903	609.78
782.085	642.55
782.267	593.4
782.448	640.5
782.63	617.97
782.812	591.35
782.993	597.49
783.175	548.34
783.357	603.64
783.538	609.78
783.72	550.39
783.901	624.12
784.083	521.72
784.264	622.07
784.446	523.77
784.627	544.25
784.809	531.96
784.99	552.44
785.172	505.34
785.353	577.02
785.535	542.2
785.716	568.82
785.897	495.1
786.079	552.44
786.26	552.44
786.441	462.33
786.623	488.95
786.804	445.95
786.985	509.43
787.167	505.34
787.348	413.18
787.529	478.71
787.71	523.77
787.891	505.34
788.073	507.38
788.254	554.49
788.435	505.34
788.616	353.79
788.797	443.9
788.978	423.42
789.159	398.84
789.34	476.66
789.522	472.57
789.703	417.27
789.884	433.66
790.065	445.95
790.246	501.24
790.427	398.84
790.607	495.1
790.788	437.75
790.969	423.42
791.15	407.03
791.331	392.7
791.512	447.99
791.693	382.46
791.874	314.88
792.054	425.47
792.235	486.9
792.416	339.45
792.597	417.27
792.778	415.23
792.958	413.18
793.139	400.89
793.32	464.38
793.5	368.12
793.681	431.61
793.862	370.17
794.042	323.07
794.223	282.11
794.404	411.13
794.584	208.38
794.765	325.12
794.945	337.4
795.126	284.16
795.306	310.78
795.487	306.68
795.667	327.16
795.848	308.73
796.028	278.01
796.209	316.92
796.389	366.07
796.57	341.5
796.75	314.88
796.93	267.77
797.111	208.38
797.291	314.88
797.471	331.26
797.652	302.59
797.832	321.02
798.012	314.88
798.192	282.11
798.373	361.98
798.553	284.16
798.733	308.73
798.913	325.12
799.093	273.92
799.274	323.07
799.454	314.88
799.634	314.88
799.814	378.36
799.994	292.35
800.174	306.68
800.354	290.3
800.534	249.34
800.714	396.79
800.894	290.3
801.074	206.33
801.254	298.49
801.434	343.55
801.614	294.4
801.794	169.47
801.974	908.79
802.154	331.26
802.334	357.88
802.514	206.33
802.693	282.11
802.873	267.77
803.053	318.97
803.233	316.92
803.413	300.54
803.592	226.81
803.772	302.59
803.952	245.24
804.131	153.09
804.311	265.72
804.491	235
804.67	253.44
804.85	280.06
805.03	208.38
805.209	241.15
805.389	245.24
805.568	257.53
805.748	253.44
805.928	228.86
806.107	259.58
806.287	245.24
806.466	189.95
806.646	155.13
806.825	142.85
807.004	235
807.184	177.66
807.363	224.76
807.543	202.24
807.722	167.42
807.901	167.42
808.081	212.48
808.26	118.27
808.439	243.2
808.619	218.62
808.798	214.52
808.977	216.57
809.156	212.48
809.336	202.24
809.515	216.57
809.694	200.19
809.873	216.57
810.052	220.67
810.231	218.62
810.411	226.81
810.59	212.48
810.769	253.44
810.948	192
811.127	155.13
811.306	204.28
811.485	167.42
811.664	232.96
811.843	183.81
812.022	183.81
812.201	144.89
812.38	157.18
812.559	171.52
812.737	275.96
812.916	97.79
813.095	157.18
813.274	202.24
813.453	163.33
813.632	179.71
813.811	192
813.989	89.6
814.168	171.52
814.347	165.37
814.526	202.24
814.704	196.09
814.883	323.07
815.062	126.46
815.24	112.13
815.419	151.04
815.598	171.52
815.776	130.56
815.955	163.33
816.133	105.98
816.312	192
816.49	200.19
816.669	175.61
816.847	175.61
817.026	196.09
817.204	134.65
817.383	175.61
817.561	157.18
817.74	159.23
817.918	151.04
818.097	177.66
818.275	120.32
818.453	140.8
818.632	159.23
818.81	157.18
818.988	163.33
819.167	126.46
819.345	110.08
819.523	91.65
819.701	159.23
819.879	120.32
820.058	151.04
820.236	169.47
820.414	122.37
820.592	101.89
820.77	118.27
820.948	58.88
821.127	126.46
821.305	126.46
821.483	28.16
821.661	144.89
821.839	120.32
822.017	126.46
822.195	124.41
822.373	126.46
822.551	146.94
822.729	124.41
822.907	130.56
823.085	151.04
823.262	110.08
823.44	120.32
823.618	136.7
823.796	153.09
823.974	56.83
824.152	163.33
824.329	105.98
824.507	30.21
824.685	124.41
824.863	85.5
825.04	169.47
825.218	122.37
825.396	69.12
825.574	144.89
825.751	85.5
825.929	159.23
826.107	81.41
826.284	103.93
826.462	87.55
826.639	112.13
826.817	71.17
826.994	167.42
827.172	122.37
827.349	175.61
827.527	202.24
827.704	19.97
827.882	175.61
828.059	163.33
828.237	42.5
828.414	144.89
828.591	40.45
828.769	44.54
828.946	101.89
829.124	93.69
829.301	202.24
829.478	40.45
829.655	175.61
829.833	26.11
830.01	58.88
830.187	110.08
830.364	-2.56
830.542	69.12
830.719	157.18
830.896	101.89
831.073	101.89
831.25	101.89
831.427	103.93
831.604	85.5
831.782	56.83
831.959	60.93
832.136	22.02
832.313	24.06
832.49	89.6
832.667	75.26
832.844	-0.51
833.021	134.65
833.198	71.17
833.374	95.74
833.551	120.32
833.728	101.89
833.905	56.83
834.082	93.69
834.259	83.45
834.436	60.93
834.612	91.65
834.789	112.13
834.966	142.85
835.143	151.04
835.319	60.93
835.496	124.41
835.673	89.6
835.85	67.07
836.026	40.45
836.203	101.89
836.38	81.41
836.556	-12.8
836.733	54.78
836.909	110.08
837.086	-4.61
837.262	56.83
837.439	56.83
837.616	69.12
837.792	69.12
837.968	73.21
838.145	26.11
838.321	56.83
838.498	114.17
838.674	136.7
838.851	60.93
839.027	144.89
839.203	83.45
839.38	161.28
839.556	144.89
839.732	71.17
839.909	105.98
840.085	85.5
840.261	46.59
840.437	128.51
840.614	19.97
840.79	95.74
840.966	142.85
841.142	85.5
841.318	81.41
841.494	120.32
841.671	97.79
841.847	5.63
842.023	28.16
842.199	77.31
842.375	46.59
842.551	77.31
842.727	-0.51
842.903	54.78
843.079	50.69
843.255	132.61
843.431	54.78
843.607	77.31
843.783	42.5
843.959	3.58
844.134	-18.94
844.31	118.27
844.486	44.54
844.662	73.21
844.838	44.54
845.013	46.59
845.189	151.04
845.365	-4.61
845.541	28.16
845.716	101.89
845.892	108.03
846.068	101.89
846.244	38.4
846.419	110.08
846.595	118.27
846.77	120.32
846.946	67.07
847.122	15.87
847.297	22.02
847.473	196.09
847.648	40.45
847.824	36.35
847.999	44.54
848.175	5.63
848.35	65.02
848.526	132.61
848.701	95.74
848.876	79.36
849.052	30.21
849.227	3.58
849.403	-18.94
849.578	60.93
849.753	40.45
849.929	103.93
850.104	46.59
850.279	32.26
850.454	83.45
850.63	-2.56
850.805	52.74
850.98	60.93
851.155	-0.51
851.33	116.22
851.505	-23.04
851.681	32.26
851.856	-43.52
852.031	15.87
852.206	-16.9
852.381	13.82
852.556	11.78
852.731	28.16
852.906	52.74
853.081	-4.61
853.256	95.74
853.431	62.98
853.606	48.64
853.781	28.16
853.956	46.59
854.131	56.83
854.305	62.98
854.48	79.36
854.655	11.78
854.83	-18.94
855.005	-51.71
855.18	56.83
855.354	36.35
855.529	62.98
855.704	-8.7
855.879	118.27
856.053	3.58
856.228	9.73
856.403	-37.38
856.577	34.3
856.752	24.06
856.926	-16.9
857.101	48.64
857.276	24.06
857.45	19.97
857.625	85.5
857.799	93.69
857.974	32.26
858.148	40.45
858.323	38.4
858.497	15.87
858.672	-41.47
858.846	69.12
859.02	52.74
859.195	52.74
859.369	46.59
859.543	50.69
859.718	44.54
859.892	-12.8
860.066	22.02
860.241	24.06
860.415	7.68
860.589	11.78
860.763	69.12
860.938	-4.61
861.112	3.58
861.286	-37.38
861.46	22.02
861.634	24.06
861.808	-29.18
861.982	-4.61
862.157	-4.61
862.331	-0.51
862.505	22.02
862.679	30.21
862.853	52.74
863.027	-49.66
863.201	44.54
863.375	-45.57
863.549	69.12
863.722	-20.99
863.896	52.74
864.07	56.83
864.244	-4.61
864.418	101.89
864.592	-2.56
864.766	-29.18
864.939	13.82
865.113	81.41
865.287	79.36
865.461	26.11
865.634	44.54
865.808	7.68
865.982	101.89
866.156	-55.81
866.329	19.97
866.503	-0.51
866.676	42.5
866.85	48.64
867.024	77.31
867.197	81.41
867.371	167.42
867.544	-29.18
867.718	3.58
867.891	9.73
868.065	-20.99
868.238	-33.28
868.412	93.69
868.585	65.02
868.759	44.54
868.932	1.54
869.105	13.82
869.279	62.98
869.452	3.58
869.625	62.98
869.799	-29.18
869.972	13.82
870.145	13.82
870.319	13.82
870.492	11.78
870.665	36.35
870.838	48.64
871.011	-16.9
871.185	-12.8
871.358	24.06
871.531	101.89
871.704	-37.38
871.877	30.21
872.05	28.16
872.223	19.97
872.396	34.3
872.569	44.54
872.742	-45.57
872.915	30.21
873.088	-37.38
873.261	15.87
873.434	134.65
873.607	44.54
873.78	93.69
873.953	-64
874.126	-33.28
874.299	48.64
874.471	28.16
874.644	-37.38
874.817	-12.8
874.99	93.69
875.163	-55.81
875.335	-18.94
875.508	-4.61
875.681	69.12
875.853	-0.51
876.026	-43.52
876.199	1.54
876.371	34.3
876.544	-16.9
876.717	34.3
876.889	-16.9
877.062	-12.8
877.234	1.54
877.407	19.97
877.579	-4.61
877.752	77.31
877.924	13.82
878.097	60.93
878.269	13.82
878.442	-4.61
878.614	11.78
878.786	46.59
878.959	34.3
879.131	19.97
879.303	-49.66
879.476	-20.99
879.648	118.27
879.82	-18.94
879.993	36.35
880.165	-18.94
880.337	11.78
880.509	19.97
880.681	-74.24
880.854	62.98
881.026	-8.7
881.198	89.6
881.37	11.78
881.542	11.78
881.714	32.26
881.886	-2.56
882.058	30.21
882.23	-16.9
882.402	-43.52
882.574	3.58
882.746	7.68
882.918	122.37
883.09	30.21
883.262	36.35
883.434	56.83
883.606	-10.75
883.778	17.92
883.95	42.5
884.122	-59.9
884.293	52.74
884.465	50.69
884.637	91.65
884.809	-6.66
884.98	-10.75
885.152	7.68
885.324	-35.33
885.496	44.54
885.667	-4.61
885.839	-41.47
886.011	38.4
886.182	-2.56
886.354	60.93
886.525	60.93
886.697	13.82
886.869	15.87
887.04	1.54
887.212	87.55
887.383	120.32
887.555	44.54
887.726	44.54
887.897	-12.8
888.069	60.93
888.24	-66.05
888.412	60.93
888.583	-8.7
888.754	28.16
888.926	65.02
889.097	-27.14
889.268	-55.81
889.44	-10.75
889.611	-55.81
889.782	89.6
889.953	19.97
890.125	19.97
890.296	-43.52
890.467	-61.95
890.638	-6.66
890.809	38.4
890.98	13.82
891.151	-70.14
891.323	46.59
891.494	81.41
891.665	-20.99
891.836	-20.99
892.007	30.21
892.178	3.58
892.349	-45.57
892.52	62.98
892.691	-8.7
892.862	56.83
893.032	-6.66
893.203	-29.18
893.374	-27.14
893.545	101.89
893.716	52.74
893.887	19.97
894.057	36.35
894.228	-4.61
894.399	15.87
894.57	79.36
894.74	38.4
894.911	-18.94
895.082	-49.66
895.253	62.98
895.423	7.68
895.594	52.74
895.764	3.58
895.935	-45.57
896.106	28.16
896.276	-10.75
896.447	48.64
896.617	36.35
896.788	-98.81
896.958	-4.61
897.129	19.97
897.299	13.82
897.47	-29.18
897.64	67.07
897.81	-16.9
897.981	-59.9
898.151	-10.75
898.322	34.3
898.492	-18.94
898.662	-27.14
898.832	32.26
899.003	97.79
899.173	30.21
899.343	-2.56
899.513	-0.51
