Data from USB4F104151__315__14-35-08-419.txt Node

Date: Thu Mar 13 14:35:08 EDT 2025
User: louis
Spectrometer: USB4F10415
Trigger mode: 4
Integration Time (sec): 2.500000E-2
Scans to average: 1
Electric dark correction enabled: true
Nonlinearity correction enabled: false
Boxcar width: 0
XAxis mode: Wavelengths
Number of Pixels in Spectrum: 3648
>>>>>Begin Spectral Data<<<<<
178.204	-104.28
178.424	-104.28
178.644	-104.28
178.864	-145.24
179.084	-135
179.304	-69.46
179.524	-20.31
179.744	22.7
179.964	-22.36
180.184	2.22
180.404	6.31
180.624	37.03
180.844	43.18
181.064	10.41
181.283	10.41
181.503	-14.17
181.723	-5.97
181.943	-30.55
182.163	112.81
182.383	24.75
182.602	92.33
182.822	67.75
183.042	47.27
183.262	41.13
183.482	-14.17
183.701	51.37
183.921	59.56
184.141	39.08
184.361	100.52
184.58	53.42
184.8	67.75
185.02	10.41
185.239	-5.97
185.459	47.27
185.679	125.1
185.898	20.65
186.118	43.18
186.338	16.55
186.557	108.71
186.777	-46.93
186.997	14.51
187.216	6.31
187.436	69.8
187.655	49.32
187.875	43.18
188.095	45.23
188.314	131.24
188.534	116.9
188.753	92.33
188.973	-38.74
189.192	143.53
189.412	67.75
189.631	14.51
189.851	10.41
190.07	108.71
190.29	75.95
190.509	43.18
190.729	-5.97
190.948	75.95
191.168	157.86
191.387	127.14
191.607	18.6
191.826	-20.31
192.045	45.23
192.265	28.84
192.484	26.79
192.704	69.8
192.923	14.51
193.142	108.71
193.362	67.75
193.581	49.32
193.8	61.61
194.02	75.95
194.239	-18.26
194.458	75.95
194.678	57.51
194.897	-8.02
195.116	2.22
195.335	94.38
195.555	102.57
195.774	-1.88
195.993	53.42
196.212	10.41
196.432	34.99
196.651	75.95
196.87	-22.36
197.089	168.1
197.308	-8.02
197.528	96.43
197.747	2.22
197.966	22.7
198.185	145.58
198.404	-30.55
198.623	108.71
198.842	4.27
199.062	102.57
199.281	57.51
199.5	6.31
199.719	53.42
199.938	67.75
200.157	59.56
200.376	86.19
200.595	55.47
200.814	104.62
201.033	53.42
201.252	43.18
201.471	-3.93
201.69	86.19
201.909	26.79
202.128	18.6
202.347	22.7
202.566	57.51
202.785	-20.31
203.004	-14.17
203.223	75.95
203.442	73.9
203.661	12.46
203.879	-20.31
204.098	137.38
204.317	-55.12
204.536	96.43
204.755	86.19
204.974	92.33
205.193	37.03
205.411	100.52
205.63	37.03
205.849	43.18
206.068	51.37
206.287	112.81
206.505	65.71
206.724	14.51
206.943	18.6
207.162	92.33
207.381	96.43
207.599	65.71
207.818	84.14
208.037	18.6
208.255	-1.88
208.474	12.46
208.693	80.04
208.911	-18.26
209.13	12.46
209.349	-3.93
209.567	75.95
209.786	67.75
210.005	51.37
210.223	12.46
210.442	-22.36
210.661	61.61
210.879	34.99
211.098	43.18
211.316	94.38
211.535	77.99
211.753	-38.74
211.972	43.18
212.191	14.51
212.409	20.65
212.628	51.37
212.846	22.7
213.065	63.66
213.283	71.85
213.502	90.28
213.72	51.37
213.938	90.28
214.157	26.79
214.375	65.71
214.594	43.18
214.812	69.8
215.031	34.99
215.249	84.14
215.467	26.79
215.686	22.7
215.904	104.62
216.122	-12.12
216.341	157.86
216.559	67.75
216.778	108.71
216.996	51.37
217.214	26.79
217.432	57.51
217.651	47.27
217.869	63.66
218.087	30.89
218.306	59.56
218.524	69.8
218.742	47.27
218.96	92.33
219.179	37.03
219.397	32.94
219.615	182.44
219.833	57.51
220.051	-3.93
220.27	59.56
220.488	59.56
220.706	53.42
220.924	20.65
221.142	96.43
221.36	43.18
221.578	55.47
221.796	112.81
222.015	77.99
222.233	82.09
222.451	45.23
222.669	-3.93
222.887	110.76
223.105	-3.93
223.323	49.32
223.541	22.7
223.759	108.71
223.977	-8.02
224.195	67.75
224.413	43.18
224.631	127.14
224.849	30.89
225.067	135.34
225.285	-14.17
225.503	96.43
225.721	2.22
225.939	49.32
226.157	75.95
226.375	129.19
226.592	34.99
226.81	-10.07
227.028	28.84
227.246	59.56
227.464	75.95
227.682	116.9
227.9	77.99
228.117	125.1
228.335	-1.88
228.553	-38.74
228.771	57.51
228.989	61.61
229.206	82.09
229.424	118.95
229.642	45.23
229.86	75.95
230.077	84.14
230.295	22.7
230.513	6.31
230.731	51.37
230.948	-3.93
231.166	69.8
231.384	-63.32
231.601	2.22
231.819	112.81
232.037	10.41
232.254	4.27
232.472	71.85
232.689	-63.32
232.907	135.34
233.125	47.27
233.342	0.17
233.56	30.89
233.777	67.75
233.995	-32.6
234.213	116.9
234.43	4.27
234.648	-30.55
234.865	37.03
235.083	102.57
235.3	45.23
235.518	-14.17
235.735	110.76
235.953	61.61
236.17	30.89
236.388	10.41
236.605	30.89
236.822	63.66
237.04	22.7
237.257	4.27
237.475	4.27
237.692	84.14
237.909	34.99
238.127	30.89
238.344	10.41
238.562	92.33
238.779	2.22
238.996	-59.22
239.214	47.27
239.431	45.23
239.648	-30.55
239.865	59.56
240.083	84.14
240.3	92.33
240.517	63.66
240.735	22.7
240.952	96.43
241.169	73.9
241.386	90.28
241.603	96.43
241.821	69.8
242.038	63.66
242.255	22.7
242.472	12.46
242.689	59.56
242.907	110.76
243.124	37.03
243.341	14.51
243.558	-12.12
243.775	53.42
243.992	-5.97
244.209	51.37
244.426	92.33
244.643	110.76
244.86	55.47
245.078	-3.93
245.295	104.62
245.512	39.08
245.729	26.79
245.946	67.75
246.163	67.75
246.38	26.79
246.597	2.22
246.814	114.86
247.031	123.05
247.248	92.33
247.464	4.27
247.681	-16.21
247.898	59.56
248.115	77.99
248.332	47.27
248.549	84.14
248.766	63.66
248.983	-14.17
249.2	10.41
249.417	96.43
249.633	2.22
249.85	-8.02
250.067	110.76
250.284	-51.03
250.501	41.13
250.717	75.95
250.934	86.19
251.151	22.7
251.368	55.47
251.585	51.37
251.801	77.99
252.018	14.51
252.235	22.7
252.451	10.41
252.668	59.56
252.885	94.38
253.102	37.03
253.318	59.56
253.535	-5.97
253.752	-38.74
253.968	34.99
254.185	0.17
254.401	2.22
254.618	34.99
254.835	-1.88
255.051	61.61
255.268	75.95
255.484	-57.17
255.701	8.36
255.917	75.95
256.134	26.79
256.351	51.37
256.567	-8.02
256.784	69.8
257	0.17
257.217	77.99
257.433	37.03
257.65	71.85
257.866	26.79
258.082	-26.45
258.299	18.6
258.515	14.51
258.732	2.22
258.948	88.23
259.165	-30.55
259.381	-85.84
259.597	-34.64
259.814	8.36
260.03	59.56
260.246	104.62
260.463	61.61
260.679	84.14
260.895	51.37
261.112	20.65
261.328	86.19
261.544	-8.02
261.761	77.99
261.977	-20.31
262.193	84.14
262.409	135.34
262.626	6.31
262.842	86.19
263.058	67.75
263.274	92.33
263.49	-36.69
263.707	71.85
263.923	80.04
264.139	65.71
264.355	59.56
264.571	63.66
264.787	39.08
265.004	63.66
265.22	10.41
265.436	4.27
265.652	-44.88
265.868	-53.08
266.084	22.7
266.3	43.18
266.516	-16.21
266.732	-10.07
266.948	-10.07
267.164	63.66
267.38	80.04
267.596	59.56
267.812	94.38
268.028	37.03
268.244	18.6
268.46	-12.12
268.676	67.75
268.892	133.29
269.108	18.6
269.324	14.51
269.54	-38.74
269.756	82.09
269.972	30.89
270.188	-10.07
270.403	80.04
270.619	-18.26
270.835	57.51
271.051	-12.12
271.267	43.18
271.483	26.79
271.698	86.19
271.914	100.52
272.13	77.99
272.346	28.84
272.562	26.79
272.777	135.34
272.993	39.08
273.209	14.51
273.425	2.22
273.64	43.18
273.856	88.23
274.072	10.41
274.287	71.85
274.503	12.46
274.719	34.99
274.934	63.66
275.15	-10.07
275.366	26.79
275.581	67.75
275.797	-3.93
276.012	30.89
276.228	-16.21
276.444	2.22
276.659	157.86
276.875	14.51
277.09	22.7
277.306	30.89
277.521	59.56
277.737	69.8
277.952	-18.26
278.168	30.89
278.383	100.52
278.599	75.95
278.814	67.75
279.03	75.95
279.245	151.72
279.461	26.79
279.676	166.06
279.892	77.99
280.107	80.04
280.322	-14.17
280.538	53.42
280.753	49.32
280.969	75.95
281.184	43.18
281.399	100.52
281.615	65.71
281.83	-14.17
282.045	6.31
282.26	67.75
282.476	67.75
282.691	110.76
282.906	14.51
283.122	69.8
283.337	-14.17
283.552	10.41
283.767	80.04
283.983	65.71
284.198	37.03
284.413	51.37
284.628	43.18
284.843	18.6
285.058	92.33
285.274	-14.17
285.489	-34.64
285.704	108.71
285.919	30.89
286.134	43.18
286.349	2.22
286.564	-14.17
286.779	57.51
286.995	-3.93
287.21	43.18
287.425	92.33
287.64	24.75
287.855	-5.97
288.07	-94.04
288.285	80.04
288.5	51.37
288.715	26.79
288.93	10.41
289.145	0.17
289.36	82.09
289.575	59.56
289.79	135.34
290.004	28.84
290.219	37.03
290.434	12.46
290.649	2.22
290.864	82.09
291.079	67.75
291.294	-10.07
291.509	26.79
291.724	10.41
291.938	61.61
292.153	37.03
292.368	34.99
292.583	51.37
292.798	86.19
293.012	-22.36
293.227	69.8
293.442	-38.74
293.657	34.99
293.871	92.33
294.086	67.75
294.301	118.95
294.516	75.95
294.73	53.42
294.945	51.37
295.16	-40.79
295.374	100.52
295.589	125.1
295.804	0.17
296.018	-38.74
296.233	84.14
296.447	-1.88
296.662	45.23
296.877	100.52
297.091	-14.17
297.306	51.37
297.52	6.31
297.735	22.7
297.949	26.79
298.164	34.99
298.378	133.29
298.593	67.75
298.807	-22.36
299.022	10.41
299.236	84.14
299.451	2.22
299.665	47.27
299.88	18.6
300.094	127.14
300.309	20.65
300.523	37.03
300.737	63.66
300.952	34.99
301.166	34.99
301.381	18.6
301.595	45.23
301.809	32.94
302.024	26.79
302.238	-22.36
302.452	88.23
302.667	26.79
302.881	75.95
303.095	37.03
303.309	26.79
303.524	69.8
303.738	32.94
303.952	-38.74
304.166	55.47
304.381	14.51
304.595	139.43
304.809	34.99
305.023	61.61
305.237	-20.31
305.452	14.51
305.666	112.81
305.88	37.03
306.094	69.8
306.308	84.14
306.522	59.56
306.736	65.71
306.95	10.41
307.164	121
307.379	67.75
307.593	92.33
307.807	127.14
308.021	37.03
308.235	63.66
308.449	2.22
308.663	34.99
308.877	71.85
309.091	41.13
309.305	26.79
309.519	-75.6
309.733	24.75
309.947	-12.12
310.161	118.95
310.374	49.32
310.588	96.43
310.802	2.22
311.016	67.75
311.23	14.51
311.444	45.23
311.658	30.89
311.872	14.51
312.085	65.71
312.299	75.95
312.513	71.85
312.727	88.23
312.941	2.22
313.154	102.57
313.368	10.41
313.582	88.23
313.796	-20.31
314.009	69.8
314.223	116.9
314.437	84.14
314.651	12.46
314.864	69.8
315.078	26.79
315.292	26.79
315.505	55.47
315.719	59.56
315.933	26.79
316.146	37.03
316.36	-1.88
316.573	100.52
316.787	61.61
317.001	92.33
317.214	43.18
317.428	65.71
317.641	-22.36
317.855	51.37
318.068	92.33
318.282	61.61
318.495	37.03
318.709	159.91
318.922	43.18
319.136	114.86
319.349	51.37
319.563	12.46
319.776	26.79
319.99	-42.84
320.203	94.38
320.417	26.79
320.63	84.14
320.843	100.52
321.057	71.85
321.27	92.33
321.483	100.52
321.697	84.14
321.91	86.19
322.124	37.03
322.337	94.38
322.55	86.19
322.763	71.85
322.977	-63.32
323.19	47.27
323.403	37.03
323.617	30.89
323.83	43.18
324.043	67.75
324.256	43.18
324.469	-38.74
324.683	43.18
324.896	28.84
325.109	-5.97
325.322	-12.12
325.535	84.14
325.748	108.71
325.962	51.37
326.175	80.04
326.388	80.04
326.601	125.1
326.814	32.94
327.027	24.75
327.24	92.33
327.453	26.79
327.666	100.52
327.879	77.99
328.092	100.52
328.305	67.75
328.518	-3.93
328.731	45.23
328.944	75.95
329.157	51.37
329.37	-14.17
329.583	98.47
329.796	59.56
330.009	37.03
330.222	129.19
330.435	-38.74
330.648	153.77
330.861	69.8
331.073	55.47
331.286	69.8
331.499	69.8
331.712	-14.17
331.925	61.61
332.138	41.13
332.35	129.19
332.563	100.52
332.776	102.57
332.989	-22.36
333.202	-14.17
333.414	77.99
333.627	121
333.84	37.03
334.053	30.89
334.265	8.36
334.478	-28.5
334.691	0.17
334.903	59.56
335.116	75.95
335.329	10.41
335.541	55.47
335.754	65.71
335.966	2.22
336.179	84.14
336.392	6.31
336.604	110.76
336.817	59.56
337.029	123.05
337.242	2.22
337.454	135.34
337.667	14.51
337.88	145.58
338.092	86.19
338.305	51.37
338.517	10.41
338.729	108.71
338.942	47.27
339.154	88.23
339.367	6.31
339.579	102.57
339.792	30.89
340.004	80.04
340.217	26.79
340.429	77.99
340.641	2.22
340.854	-5.97
341.066	14.51
341.278	100.52
341.491	106.67
341.703	-22.36
341.915	102.57
342.128	94.38
342.34	116.9
342.552	67.75
342.764	43.18
342.977	-1.88
343.189	20.65
343.401	67.75
343.613	47.27
343.826	22.7
344.038	-22.36
344.25	6.31
344.462	71.85
344.674	116.9
344.886	26.79
345.099	32.94
345.311	51.37
345.523	82.09
345.735	-18.26
345.947	90.28
346.159	86.19
346.371	88.23
346.583	61.61
346.795	131.24
347.007	-1.88
347.219	20.65
347.431	80.04
347.643	125.1
347.855	10.41
348.067	77.99
348.279	-1.88
348.491	16.55
348.703	104.62
348.915	39.08
349.127	22.7
349.339	59.56
349.551	51.37
349.763	151.72
349.975	55.47
350.187	51.37
350.399	43.18
350.61	133.29
350.822	10.41
351.034	84.14
351.246	12.46
351.458	112.81
351.669	39.08
351.881	92.33
352.093	94.38
352.305	28.84
352.517	84.14
352.728	53.42
352.94	61.61
353.152	100.52
353.363	12.46
353.575	141.48
353.787	118.95
353.999	104.62
354.21	133.29
354.422	10.41
354.633	32.94
354.845	59.56
355.057	110.76
355.268	18.6
355.48	65.71
355.692	18.6
355.903	30.89
356.115	47.27
356.326	34.99
356.538	71.85
356.749	67.75
356.961	116.9
357.172	55.47
357.384	-28.5
357.595	159.91
357.807	116.9
358.018	4.27
358.23	18.6
358.441	59.56
358.653	57.51
358.864	59.56
359.075	84.14
359.287	102.57
359.498	114.86
359.709	100.52
359.921	84.14
360.132	84.14
360.344	39.08
360.555	75.95
360.766	166.06
360.977	51.37
361.189	159.91
361.4	67.75
361.611	112.81
361.823	55.47
362.034	92.33
362.245	-12.12
362.456	-26.45
362.667	108.71
362.879	0.17
363.09	92.33
363.301	43.18
363.512	135.34
363.723	61.61
363.935	45.23
364.146	55.47
364.357	69.8
364.568	45.23
364.779	125.1
364.99	8.36
365.201	59.56
365.412	80.04
365.623	-5.97
365.834	67.75
366.045	61.61
366.256	77.99
366.467	67.75
366.678	32.94
366.889	39.08
367.1	-14.17
367.311	94.38
367.522	12.46
367.733	67.75
367.944	125.1
368.155	22.7
368.366	55.47
368.577	69.8
368.788	141.48
368.999	75.95
369.209	84.14
369.42	133.29
369.631	110.76
369.842	92.33
370.053	102.57
370.264	151.72
370.474	24.75
370.685	12.46
370.896	114.86
371.107	112.81
371.317	92.33
371.528	71.85
371.739	45.23
371.95	53.42
372.16	67.75
372.371	14.51
372.582	71.85
372.792	28.84
373.003	96.43
373.214	102.57
373.424	108.71
373.635	12.46
373.846	92.33
374.056	153.77
374.267	55.47
374.477	149.67
374.688	77.99
374.898	71.85
375.109	12.46
375.319	61.61
375.53	67.75
375.74	96.43
375.951	55.47
376.161	37.03
376.372	129.19
376.582	37.03
376.793	39.08
377.003	59.56
377.214	2.22
377.424	59.56
377.635	67.75
377.845	39.08
378.055	77.99
378.266	-5.97
378.476	24.75
378.686	69.8
378.897	88.23
379.107	75.95
379.317	94.38
379.528	112.81
379.738	102.57
379.948	34.99
380.158	63.66
380.369	80.04
380.579	51.37
380.789	2.22
380.999	75.95
381.21	45.23
381.42	106.67
381.63	86.19
381.84	75.95
382.05	92.33
382.261	26.79
382.471	102.57
382.681	73.9
382.891	198.82
383.101	116.9
383.311	39.08
383.521	-30.55
383.731	49.32
383.941	108.71
384.151	121
384.361	127.14
384.571	55.47
384.781	51.37
384.991	131.24
385.201	106.67
385.411	71.85
385.621	53.42
385.831	34.99
386.041	67.75
386.251	123.05
386.461	135.34
386.671	45.23
386.881	127.14
387.091	37.03
387.301	77.99
387.511	96.43
387.72	129.19
387.93	110.76
388.14	47.27
388.35	116.9
388.56	116.9
388.769	112.81
388.979	77.99
389.189	59.56
389.399	28.84
389.609	88.23
389.818	86.19
390.028	133.29
390.238	92.33
390.447	77.99
390.657	110.76
390.867	73.9
391.076	26.79
391.286	108.71
391.496	133.29
391.705	67.75
391.915	174.25
392.125	125.1
392.334	71.85
392.544	176.3
392.753	67.75
392.963	84.14
393.172	100.52
393.382	100.52
393.591	104.62
393.801	86.19
394.01	80.04
394.22	116.9
394.429	96.43
394.639	47.27
394.848	168.1
395.058	116.9
395.267	57.51
395.477	55.47
395.686	123.05
395.895	112.81
396.105	215.21
396.314	123.05
396.524	92.33
396.733	133.29
396.942	141.48
397.152	200.87
397.361	108.71
397.57	110.76
397.78	133.29
397.989	121
398.198	141.48
398.407	94.38
398.617	112.81
398.826	161.96
399.035	137.38
399.244	151.72
399.453	149.67
399.663	149.67
399.872	161.96
400.081	63.66
400.29	182.44
400.499	182.44
400.708	118.95
400.917	96.43
401.127	67.75
401.336	69.8
401.545	190.63
401.754	151.72
401.963	239.78
402.172	145.58
402.381	69.8
402.59	92.33
402.799	96.43
403.008	196.78
403.217	127.14
403.426	223.4
403.635	176.3
403.844	145.58
404.053	200.87
404.262	108.71
404.471	125.1
404.68	141.48
404.888	133.29
405.097	98.47
405.306	192.68
405.515	221.35
405.724	102.57
405.933	192.68
406.142	192.68
406.35	223.4
406.559	225.45
406.768	121
406.977	235.69
407.185	190.63
407.394	233.64
407.603	219.3
407.812	209.06
408.02	317.61
408.229	264.36
408.438	217.26
408.646	239.78
408.855	256.17
409.064	305.32
409.272	190.63
409.481	403.62
409.69	297.13
409.898	282.79
410.107	352.42
410.315	313.51
410.524	368.81
410.733	460.96
410.941	391.33
411.15	379.04
411.358	426.15
411.567	477.35
411.775	432.29
411.984	493.73
412.192	469.16
412.401	391.33
412.609	469.16
412.818	575.65
413.026	551.07
413.234	587.94
413.443	592.03
413.651	649.38
413.86	608.42
414.068	682.14
414.276	729.25
414.485	731.3
414.693	731.3
414.901	792.73
415.11	714.91
415.318	762.02
415.526	819.36
415.734	948.38
415.943	823.45
416.151	913.56
416.359	938.14
416.567	1009.82
416.776	958.62
416.984	1036.44
417.192	1083.55
417.4	1104.03
417.608	1028.25
417.817	1083.55
418.025	1091.74
418.233	1290.39
418.441	1185.94
418.649	1296.53
418.857	1388.69
419.065	1435.8
419.273	1339.54
419.481	1511.57
419.689	1628.31
419.897	1749.14
420.105	1667.22
420.313	1732.75
420.521	1706.13
420.729	1853.58
420.937	1872.01
421.145	2013.32
421.353	1960.08
421.561	1988.75
421.769	2125.96
421.977	2111.63
422.185	2142.35
422.393	2316.42
422.601	2492.55
422.809	2467.97
423.017	2431.11
423.224	2533.51
423.432	2668.67
423.64	2809.98
423.848	2840.7
424.056	2889.85
424.263	2986.11
424.471	3045.5
424.679	3231.87
424.887	3407.99
425.094	3360.89
425.302	3418.23
425.51	3573.88
425.718	3668.08
425.925	3684.47
426.133	3788.91
426.341	4049
426.548	4180.07
426.756	4124.78
426.964	4251.75
427.171	4573.28
427.379	4618.34
427.586	4771.94
427.794	5032.03
428.001	5032.03
428.209	5318.75
428.417	5310.55
428.624	5691.48
428.832	5515.35
429.039	5621.84
429.247	5496.92
429.454	6015.05
429.662	6496.33
429.869	6088.78
430.076	6486.09
430.284	6244.43
430.491	6522.95
430.699	7000.13
430.906	6918.21
431.114	6996.03
431.321	7254.08
431.528	7497.78
431.736	7764.02
431.943	8300.59
432.15	8038.45
432.358	8099.89
432.565	8654.89
432.772	8421.42
432.979	8841.25
433.187	9023.52
433.394	9150.5
433.601	9482.27
433.808	9912.34
434.016	9771.03
434.223	10053.65
434.43	10717.19
434.637	10553.35
434.844	11145.22
435.052	11196.42
435.259	11268.09
435.466	11438.08
435.673	11167.74
435.88	11827.19
436.087	12589.03
436.294	12578.79
436.501	12396.53
436.708	12716.01
436.915	12994.53
437.122	13555.68
437.329	13658.07
437.537	13862.87
437.743	14018.52
437.95	13983.7
438.157	14671.82
438.364	15316.93
438.571	15208.39
438.778	15306.69
438.985	16881.58
439.192	16342.96
439.399	16478.13
439.606	16027.57
439.813	17248.16
440.02	18118.55
440.227	17950.62
440.433	17368.99
440.64	18184.09
440.847	17971.1
441.054	18483.09
441.261	19552.13
441.467	19349.38
441.674	19744.64
441.881	20643.7
442.088	20508.53
442.294	20346.74
442.501	20584.3
442.708	21258.09
442.914	22071.13
443.121	22779.73
443.328	22439.76
443.534	23867.2
443.741	23195.46
443.948	22923.08
444.154	24645.43
444.361	24360.76
444.568	24950.57
444.774	24661.81
444.981	24915.76
445.187	25536.29
445.394	26652.44
445.6	26480.41
445.807	28710.64
446.013	27371.27
446.22	28055.29
446.426	29196.01
446.633	29775.59
446.839	30234.33
447.046	29224.68
447.252	30863.06
447.459	31039.19
447.665	30631.64
447.871	32138.94
448.078	33355.44
448.284	32323.26
448.491	33044.15
448.697	34055.84
448.903	34797.21
449.11	34997.91
449.316	33889.96
449.522	34893.46
449.728	35552.91
449.935	35835.53
450.141	36333.18
450.347	36923
450.553	35387.02
450.76	36343.42
450.966	37338.74
451.172	36822.65
451.378	37969.51
451.584	37025.4
451.791	37733.99
451.997	38016.61
452.203	38590.05
452.409	38807.13
452.615	38319.71
452.821	37023.35
453.027	36306.56
453.233	38477.41
453.44	37074.55
453.646	37291.63
453.852	37015.16
454.058	38037.09
454.264	37029.49
454.47	37471.85
454.676	36595.32
454.882	37912.17
455.088	35059.35
455.294	35239.57
455.5	36036.23
455.705	36386.43
455.911	34795.16
456.117	34311.84
456.323	33627.82
456.529	32116.42
456.735	33545.9
456.941	32237.25
457.147	32132.8
457.352	31352.52
457.558	30576.34
457.764	30787.28
457.97	30174.94
458.176	29335.28
458.381	29382.38
458.587	28129.02
458.793	27989.76
458.999	26601.24
459.204	28157.69
459.41	27815.68
459.616	25655.08
459.821	26083.1
460.027	25605.92
460.233	25122.6
460.438	23873.34
460.644	24137.53
460.85	22941.52
461.055	22622.03
461.261	22744.91
461.466	21020.52
461.672	20285.3
461.878	21618.53
462.083	20270.97
462.289	19877.76
462.494	19545.98
462.7	18884.49
462.905	18413.46
463.111	18663.31
463.316	19079.05
463.522	18540.43
463.727	18700.17
463.932	18745.23
464.138	18249.62
464.343	18261.91
464.549	17926.04
464.754	18532.24
464.959	18151.32
465.165	17985.43
465.37	17239.97
465.575	16869.29
465.781	17262.5
465.986	17487.78
466.191	17059.75
466.397	16533.42
466.602	15706.04
466.807	16471.98
467.012	16656.3
467.218	16279.47
467.423	16220.08
467.628	16117.68
467.833	16906.15
468.038	16408.5
468.244	15663.04
468.449	15988.66
468.654	15669.18
468.859	15667.13
469.064	15669.18
469.269	14993.35
469.474	15075.27
469.679	15316.93
469.885	14856.14
470.09	15069.12
470.295	14813.13
470.5	14528.46
470.705	14698.44
470.91	14467.02
471.115	14395.34
471.32	14362.58
471.525	14409.68
471.73	14135.25
471.935	13756.38
472.139	13461.47
472.344	13690.84
472.549	13193.19
472.754	13373.41
472.959	13412.32
473.164	12726.25
473.369	12883.94
473.574	13148.13
473.778	13072.36
473.983	12842.98
474.188	12959.72
474.393	12216.3
474.598	12251.12
474.802	12265.46
475.007	12126.19
475.212	12038.13
475.417	11876.34
475.621	11487.23
475.826	11741.18
476.031	11499.52
476.235	11171.84
476.44	11411.45
476.645	11134.98
476.849	11003.91
477.054	11044.87
477.259	10913.8
477.463	10844.17
477.668	10631.18
477.872	10889.22
478.077	10590.22
478.282	10342.41
478.486	10102.8
478.691	10029.07
478.895	10096.66
479.1	10125.33
479.304	10110.99
479.509	9791.51
479.713	10106.9
479.918	9715.73
480.122	9619.48
480.326	9836.56
480.531	9547.8
480.735	9785.37
480.94	9474.07
481.144	9887.76
481.348	9599
481.553	9441.31
481.757	9256.99
481.961	9449.5
482.166	9519.13
482.37	9605.14
482.574	9234.46
482.778	9367.58
482.983	9560.09
483.187	9533.47
483.391	9275.42
483.595	9465.88
483.8	9240.61
484.004	9400.35
484.208	9343
484.412	9367.58
484.616	9418.78
484.821	9283.61
485.025	9283.61
485.229	9320.48
485.433	9162.78
485.637	9324.57
485.841	9226.27
486.045	9109.54
486.249	9285.66
486.453	9140.26
486.657	9185.31
486.861	9433.11
487.065	9091.1
487.269	9062.43
487.473	8929.31
487.677	9156.64
487.881	9259.04
488.085	9150.5
488.289	9300
488.493	9230.37
488.697	9381.92
488.901	9324.57
489.105	9287.71
489.309	9263.13
489.512	9226.27
489.716	9340.96
489.92	9295.9
490.124	9304.09
490.328	9492.51
490.531	9398.3
490.735	9400.35
490.939	9414.68
491.143	9492.51
491.346	9377.82
491.55	9576.47
491.754	9508.89
491.958	9564.18
492.161	9603.1
492.365	9443.35
492.569	9553.94
492.772	9734.17
492.976	9811.99
493.18	9736.21
493.383	9771.03
493.587	10016.79
493.79	9943.06
493.994	9668.63
494.197	9926.68
494.401	9969.68
494.605	9955.35
494.808	10246.16
495.012	10315.79
495.215	10278.93
495.419	10381.32
495.622	10303.5
495.825	10588.17
496.029	10485.77
496.232	10711.05
496.436	10663.94
496.639	10921.99
496.843	10727.43
497.046	10893.32
497.249	11038.72
497.453	11112.45
497.656	11249.66
497.859	11276.29
498.063	11089.92
498.266	11571.19
498.469	11444.22
498.673	11743.22
498.876	11788.28
499.079	11925.49
499.282	11827.19
499.485	12191.73
499.689	12120.05
499.892	12306.41
500.095	12330.99
500.298	12732.39
500.501	12492.78
500.705	12929
500.908	12879.85
501.111	13271.01
501.314	13344.74
501.517	13354.97
501.72	13572.06
501.923	13361.12
502.126	13805.53
502.329	13957.08
502.532	14079.96
502.735	14159.83
502.938	14399.44
503.141	14362.58
503.344	14594
503.547	14581.71
503.75	14927.81
503.953	14880.71
504.156	15144.9
504.359	15294.4
504.562	15282.11
504.765	15527.87
504.968	15925.18
505.17	15828.92
505.373	16015.29
505.576	16158.64
505.779	16320.43
505.982	16455.6
506.185	16820.14
506.387	16799.66
506.59	17176.48
506.793	17383.33
506.996	17217.44
507.198	17848.22
507.401	17457.06
507.604	17868.7
507.807	17950.62
508.009	18483.09
508.212	18491.28
508.415	18614.16
508.617	18673.55
508.82	18763.66
509.022	18769.8
509.225	19236.74
509.428	19607.42
509.63	19793.79
509.833	19900.28
510.035	20223.86
510.238	20187
510.44	20311.92
510.643	20778.86
510.845	21051.24
511.048	20598.64
511.25	21079.91
511.453	21190.5
511.655	22198.1
511.858	21626.72
512.06	21761.89
512.262	22187.86
512.465	22243.16
512.667	22732.62
512.87	22914.89
513.072	22873.93
513.274	23531.33
513.477	23359.3
513.679	23895.87
513.881	23908.16
514.084	24219.45
514.286	24094.52
514.488	24362.81
514.69	24897.33
514.893	24981.29
515.095	24590.13
515.297	25485.09
515.499	25399.08
515.701	25798.43
515.904	26029.85
516.106	26126.11
516.308	26349.34
516.51	26611.48
516.712	26679.06
516.914	27064.08
517.116	27203.34
517.318	27045.65
517.52	27344.65
517.722	27926.27
517.925	28147.45
518.127	28108.54
518.329	28364.54
518.531	28270.33
518.733	29005.55
518.935	28888.82
519.136	29124.33
519.338	29218.54
519.54	29509.35
519.742	29552.36
519.944	29908.71
520.146	30316.25
520.348	30115.55
520.55	30648.02
520.752	30930.64
520.954	31160.02
521.155	30865.11
521.357	31436.49
521.559	31594.18
521.761	31815.37
521.963	31885
522.164	32093.89
522.366	32325.31
522.568	32272.06
522.77	32235.2
522.971	32964.28
523.173	32423.61
523.375	32743.1
523.576	32880.31
523.778	32964.28
523.98	33316.53
524.181	33504.94
524.383	33398.45
524.584	33760.94
524.786	33291.95
524.988	33519.28
525.189	33959.59
525.391	33701.54
525.592	34088.61
525.794	34066.08
525.995	33922.73
526.197	33695.4
526.398	34064.03
526.6	34590.36
526.801	34434.72
527.003	34457.24
527.204	34332.32
527.406	34649.75
527.607	34436.77
527.808	34717.34
528.01	34283.17
528.211	34342.56
528.412	35104.4
528.614	34864.79
528.815	34760.34
529.016	35182.23
529.218	35030.68
529.419	34662.04
529.62	34786.97
529.822	34612.89
530.023	35339.92
530.224	34975.38
530.425	34846.36
530.626	34936.47
530.828	34659.99
531.029	35067.54
531.23	34729.62
531.431	34938.52
531.632	34733.72
531.833	34879.13
532.035	34641.56
532.236	34700.95
532.437	34987.67
532.638	34547.36
532.839	34705.05
533.04	34584.22
533.241	34238.11
533.442	34991.76
533.643	34172.58
533.844	34424.48
534.045	34453.15
534.246	33937.06
534.447	34899.61
534.648	34274.98
534.849	34569.88
535.05	34487.96
535.251	34492.06
535.451	34033.32
535.652	34277.02
535.853	34127.52
536.054	34162.34
536.255	34242.21
536.456	33779.37
536.657	34074.27
536.857	33967.78
537.058	33556.14
537.259	34170.53
537.46	33818.28
537.66	33910.44
537.861	33760.94
538.062	33308.33
538.263	33830.57
538.463	33504.94
538.664	33922.73
538.865	33824.42
539.065	33885.86
539.266	33312.43
539.466	33769.13
539.667	32995
539.868	33195.7
540.068	33091.25
540.269	33259.18
540.469	34002.6
540.67	33326.77
540.87	33040.05
541.071	33281.71
541.271	33568.43
541.472	33429.16
541.672	32913.08
541.873	32949.94
542.073	32931.51
542.274	33418.92
542.474	33218.22
542.675	32753.33
542.875	33351.34
543.075	32874.17
543.276	32675.51
543.476	33177.26
543.676	32773.81
543.877	32929.46
544.077	32911.03
544.277	32454.33
544.478	33124.02
544.678	32943.8
544.878	33066.67
545.078	32847.54
545.279	33060.53
545.479	32812.73
545.679	32833.21
545.879	33076.91
546.079	32825.01
546.28	32581.31
546.48	32513.72
546.68	33044.15
546.88	33058.48
547.08	32579.26
547.28	32646.84
547.48	32886.45
547.68	32870.07
547.88	32530.11
548.081	32990.9
548.281	32726.71
548.481	32546.49
548.681	32990.9
548.881	32741.05
549.081	32706.23
549.28	32384.7
549.48	32908.98
549.68	32716.47
549.88	33214.13
550.08	32921.27
550.28	32732.86
550.48	32503.48
550.68	33195.7
550.88	32908.98
551.08	32636.6
551.279	33031.86
551.479	32605.88
551.679	33261.23
551.879	32839.35
552.079	33242.8
552.278	32779.96
552.478	33107.63
552.678	33138.35
552.878	33416.88
553.077	33042.1
553.277	32687.8
553.477	33377.97
553.676	33171.12
553.876	33261.23
554.076	32954.04
554.275	33197.74
554.475	32659.13
554.674	33275.57
554.874	33201.84
555.074	33066.67
555.273	33152.69
555.473	33511.08
555.672	32966.32
555.872	33515.18
556.071	33506.99
556.271	33478.32
556.47	33263.28
556.67	32855.73
556.869	32949.94
557.068	33529.52
557.268	32978.61
557.467	33314.48
557.667	33375.92
557.866	33492.65
558.065	33199.79
558.265	33255.09
558.464	32892.6
558.663	33547.95
558.863	32743.1
559.062	33740.46
559.261	32997.04
559.461	33451.69
559.66	33124.02
559.859	33568.43
560.058	32997.04
560.258	33205.94
560.457	33367.73
560.656	33697.45
560.855	33414.83
561.054	33758.89
561.253	33207.98
561.453	33375.92
561.652	33445.55
561.851	33291.95
562.05	33375.92
562.249	33062.58
562.448	33730.22
562.647	33388.21
562.846	33496.75
563.045	33130.16
563.244	32939.7
563.443	33648.3
563.642	32775.86
563.841	33367.73
564.04	33019.57
564.239	33330.86
564.438	32911.03
564.637	33183.41
564.836	33158.83
565.035	32966.32
565.234	33097.39
565.432	32870.07
565.631	32816.82
565.83	33154.74
566.029	32554.68
566.228	32652.98
566.427	32749.24
566.625	32591.55
566.824	32407.23
567.023	32775.86
567.222	32063.17
567.42	32571.07
567.619	32470.72
567.818	32327.36
568.016	32362.17
568.215	32616.12
568.414	32292.54
568.612	32319.17
568.811	31942.34
569.01	31899.33
569.208	31479.5
569.407	31921.86
569.605	32022.21
569.804	31903.43
570.002	31442.63
570.201	31667.91
570.4	31776.45
570.598	31833.8
570.797	31368.91
570.995	31477.45
571.193	31098.58
571.392	31624.9
571.59	31112.91
571.789	31166.16
571.987	31219.41
572.186	30920.4
572.384	30973.65
572.582	31061.71
572.781	30848.72
572.979	30400.22
573.177	30555.86
573.376	30848.72
573.574	30473.95
573.772	30596.82
573.971	30082.78
574.169	29951.71
574.367	30150.37
574.565	30322.4
574.763	29632.23
574.962	29896.42
575.16	29466.35
575.358	29714.15
575.556	29462.25
575.754	29619.94
575.952	29392.62
576.151	29853.41
576.349	29234.92
576.547	29081.33
576.745	29075.18
576.943	29105.9
577.141	28901.11
577.339	28933.87
577.537	29089.52
577.735	28999.41
577.933	28659.45
578.131	28755.7
578.329	28339.96
578.527	28221.18
578.725	28555
578.923	28364.54
579.121	28155.65
579.319	28090.11
579.516	28227.32
579.714	28022.53
579.912	27819.78
580.11	27985.66
580.308	28055.29
580.506	27784.96
580.704	27322.12
580.901	27668.23
581.099	27825.92
581.297	27395.85
581.495	27381.51
581.692	27541.25
581.89	27100.94
582.088	27328.27
582.285	27178.76
582.483	27262.73
582.681	26838.8
582.878	26855.18
583.076	26572.57
583.274	26910.48
583.471	26554.13
583.669	26533.65
583.866	26390.3
584.064	26537.75
584.262	26486.55
584.459	26799.89
584.657	26238.75
584.854	26343.19
585.052	26019.61
585.249	26203.93
585.447	26345.24
585.644	25894.69
585.841	25777.95
586.039	26068.76
586.236	25988.89
586.434	25845.54
586.631	25884.45
586.828	25337.64
587.026	25753.38
587.223	25356.07
587.42	25431.85
587.618	25646.88
587.815	25249.58
588.012	25239.34
588.21	25354.02
588.407	25452.33
588.604	25073.45
588.801	25005.87
588.999	25304.87
589.196	25022.25
589.393	25227.05
589.59	24923.95
589.787	24946.48
589.984	25061.16
590.182	24706.87
590.379	24829.74
590.576	24547.12
590.773	24676.15
590.97	24258.36
591.167	24321.85
591.364	24317.75
591.561	24102.71
591.758	24352.57
591.955	24225.59
592.152	24508.21
592.349	24424.25
592.546	24391.48
592.743	24211.26
592.94	23885.63
593.137	24211.26
593.334	24186.68
593.531	24045.37
593.727	24262.46
593.924	24205.11
594.121	23680.83
594.318	23920.45
594.515	23834.43
594.712	23842.62
594.908	24047.42
595.105	23910.21
595.302	23631.68
595.499	23699.27
595.696	23680.83
595.892	23799.62
596.089	23983.93
596.286	24008.51
596.482	23555.91
596.679	23600.96
596.876	23398.21
597.072	23564.1
597.269	23392.07
597.466	23209.8
597.662	23430.98
597.859	23453.51
598.055	23639.87
598.252	23359.3
598.448	23525.19
598.645	23502.66
598.841	23600.96
599.038	23498.56
599.234	23449.41
599.431	23121.74
599.627	23283.53
599.824	23469.89
600.02	23154.51
600.217	23582.53
600.413	23285.58
600.609	23267.14
600.806	23465.8
601.002	23285.58
601.198	23545.67
601.395	22996.81
601.591	23332.68
601.787	23590.72
601.984	23367.49
602.18	23488.32
602.376	23301.96
602.572	23353.16
602.769	23430.98
602.965	23224.14
603.161	23443.27
603.357	23269.19
603.553	23318.34
603.75	23279.43
603.946	23332.68
604.142	23572.29
604.338	23310.15
604.534	23160.65
604.73	23574.34
604.926	22824.78
605.122	23465.8
605.318	23611.2
605.514	23459.65
605.71	23240.52
605.906	23740.22
606.102	23603.01
606.298	23607.11
606.494	23748.42
606.69	23519.04
606.886	23406.41
607.082	23306.06
607.278	23742.27
607.474	23412.55
607.67	23709.5
607.866	23699.27
608.062	23816
608.257	23836.48
608.453	23887.68
608.649	23756.61
608.845	23562.05
609.041	23603.01
609.236	23879.49
609.432	23676.74
609.628	23779.14
609.824	23877.44
610.019	23914.3
610.215	23809.86
610.411	24016.7
610.606	23473.99
610.802	24020.8
610.998	23729.98
611.193	24074.04
611.389	24237.88
611.584	23883.58
611.78	23811.9
611.976	24039.23
612.171	24086.33
612.367	23795.52
612.562	23988.03
612.758	23750.46
612.953	23799.62
613.149	24125.24
613.344	23834.43
613.539	24221.5
613.735	24090.43
613.93	24053.56
614.126	24315.7
614.321	24092.48
614.517	24166.2
614.712	24244.02
614.907	23973.69
615.103	24123.19
615.298	23762.75
615.493	24295.22
615.688	23777.09
615.884	24241.98
616.079	23824.19
616.274	24315.7
616.47	23955.26
616.665	23856.96
616.86	23865.15
617.055	23947.07
617.25	23920.45
617.445	24309.56
617.641	23828.29
617.836	24119.1
618.031	23631.68
618.226	24084.28
618.421	23523.14
618.616	24076.09
618.811	23496.52
619.006	23877.44
619.201	23385.93
619.396	23492.42
619.591	23056.2
619.786	23564.1
619.981	23357.25
620.176	23523.14
620.371	23068.49
620.566	23203.66
620.761	22861.65
620.956	23281.48
621.151	22910.8
621.346	23261
621.541	22320.98
621.735	22744.91
621.93	22349.65
622.125	22560.59
622.32	22292.31
622.515	22558.55
622.709	22378.33
622.904	22073.18
623.099	22052.7
623.294	22423.38
623.488	21825.37
623.683	21946.2
623.878	21481.31
624.072	21741.41
624.267	21614.43
624.462	21587.81
624.656	21151.59
624.851	21370.72
625.046	20967.27
625.24	21137.26
625.435	21053.29
625.629	20727.66
625.824	20805.49
626.018	20680.56
626.213	20436.85
626.407	20551.54
626.602	20363.12
626.796	20275.06
626.991	20453.23
627.185	20266.87
627.38	20031.35
627.574	19971.96
627.768	19931
627.963	19789.69
628.157	19537.79
628.352	19632
628.546	19179.4
628.74	19515.26
628.935	19382.15
629.129	19285.89
629.323	18954.12
629.517	18759.56
629.712	18978.7
629.906	18984.84
630.1	18577.3
630.294	19091.34
630.489	18483.09
630.683	18540.43
630.877	18491.28
631.071	18323.35
631.265	18608.01
631.459	18089.88
631.653	18059.16
631.848	17749.92
632.042	17831.83
632.236	18085.78
632.43	17657.76
632.624	17917.85
632.818	17571.74
633.012	17600.41
633.206	17135.53
633.4	17321.89
633.594	17235.88
633.788	17426.34
633.982	17004.46
634.176	16983.98
634.369	17067.94
634.563	16945.06
634.757	16783.27
634.951	16648.11
635.145	16623.53
635.339	16639.92
635.533	16209.84
635.726	16539.57
635.92	16269.23
636.114	16070.58
636.308	16172.98
636.501	16011.19
636.695	16000.95
636.889	15699.9
637.083	15599.55
637.276	15558.59
637.47	15699.9
637.664	15478.72
637.857	15572.93
638.051	15282.11
638.244	15124.42
638.438	15146.95
638.632	14870.47
638.825	14804.94
639.019	14899.14
639.212	14821.32
639.406	14720.97
639.599	14544.84
639.793	14694.35
639.986	14176.21
640.18	14270.42
640.373	14243.79
640.567	14170.07
640.76	13965.27
640.954	13944.79
641.147	14034.9
641.34	13858.78
641.534	13862.87
641.727	13619.16
641.92	13760.47
642.114	13584.35
642.307	13694.94
642.5	13567.96
642.694	13160.42
642.887	12953.57
643.08	13338.59
643.273	13096.93
643.467	13012.96
643.66	12935.14
643.853	12804.07
644.046	12744.68
644.239	12986.34
644.432	12478.44
644.626	12408.81
644.819	12503.02
645.012	12367.85
645.205	12365.81
645.398	12367.85
645.591	12210.16
645.784	12027.89
645.977	11900.92
646.17	11835.38
646.363	11972.6
646.556	11728.89
646.749	11806.71
646.942	11812.85
647.135	11708.41
647.328	11505.66
647.521	11581.43
647.714	11401.21
647.907	11286.53
648.099	11235.33
648.292	11452.41
648.485	11073.54
648.678	11180.03
648.871	11044.87
649.064	11165.7
649.256	11118.59
649.449	10870.79
649.642	10838.02
649.835	10661.9
650.027	10706.95
650.22	10471.43
650.413	10489.87
650.605	10641.42
650.798	10596.36
650.991	10446.86
651.183	10270.73
651.376	10143.76
651.568	10186.77
651.761	10012.69
651.954	10145.81
652.146	10027.03
652.339	9920.53
652.531	9850.9
652.724	9924.63
652.916	9685.01
653.109	9717.78
653.301	9734.17
653.494	9738.26
653.686	9441.31
653.879	9705.49
654.071	9375.77
654.263	9596.95
654.456	9394.2
654.648	9633.82
654.84	9441.31
655.033	9349.15
655.225	9340.96
655.417	9062.43
655.61	9181.21
655.802	9238.56
655.994	9046.05
656.186	8939.55
656.379	8906.79
656.571	9064.48
656.763	8738.85
656.955	9017.38
657.148	8882.21
657.34	8802.34
657.532	8675.37
657.724	8509.48
657.916	8708.13
658.108	8628.26
658.3	8534.06
658.492	8521.77
658.684	8300.59
658.876	8308.78
659.068	8370.22
659.26	8087.6
659.452	8169.52
659.644	8038.45
659.836	8185.9
660.028	8083.5
660.22	8054.83
660.412	8046.64
660.604	7778.36
660.796	7841.84
660.988	7991.34
661.18	7682.1
661.372	7768.12
661.563	7575.61
661.755	7563.32
661.947	7481.4
662.139	7606.33
662.331	7440.44
662.522	7426.11
662.714	7344.19
662.906	7501.88
663.097	7305.28
663.289	7254.08
663.481	7202.88
663.673	7227.45
663.864	7215.16
664.056	7223.36
664.247	7098.43
664.439	6959.17
664.631	6903.87
664.822	7010.37
665.014	6932.54
665.205	6846.53
665.397	6834.24
665.588	6899.78
665.78	6883.39
665.971	6893.63
666.163	6826.05
666.354	6744.13
666.546	6666.31
666.737	6629.45
666.929	6481.99
667.12	6686.79
667.311	6422.6
667.503	6654.02
667.694	6486.09
667.885	6481.99
668.077	6391.88
668.268	6371.4
668.459	6398.03
668.651	6287.43
668.842	6414.41
669.033	6154.32
669.224	6244.43
669.416	6293.58
669.607	6133.84
669.798	6178.89
669.989	6211.66
670.18	5982.29
670.371	6191.18
670.563	6015.05
670.754	5982.29
670.945	5894.22
671.136	6103.12
671.327	5918.8
671.518	6017.1
671.709	5802.07
671.9	5834.83
672.091	5869.65
672.282	5926.99
672.473	5849.17
672.664	5769.3
672.855	5818.45
673.046	5765.2
673.237	5752.91
673.428	5609.56
673.619	5892.18
673.809	5640.28
674	5617.75
674.191	5728.34
674.382	5720.15
674.573	5523.54
674.764	5572.69
674.954	5595.22
675.145	5687.38
675.336	5482.58
675.527	5654.61
675.717	5587.03
675.908	5412.95
676.099	5474.39
676.289	5515.35
676.48	5412.95
676.671	5337.18
676.861	5509.21
677.052	5466.2
677.243	5238.87
677.433	5386.33
677.624	5425.24
677.814	5281.88
678.005	5341.27
678.195	5269.59
678.386	5222.49
678.576	5333.08
678.767	5304.41
678.957	5310.55
679.148	5202.01
679.338	5169.24
679.529	5263.45
679.719	5165.15
679.909	5419.1
680.1	5255.26
680.29	5306.46
680.481	5347.42
680.671	5214.3
680.861	5165.15
681.052	5351.51
681.242	5165.15
681.432	5148.76
681.622	5154.91
681.813	5079.13
682.003	5294.17
682.193	5130.33
682.383	5261.4
682.573	5212.25
682.764	5113.95
682.954	5199.96
683.144	5234.78
683.334	5034.08
683.524	5097.56
683.714	5081.18
683.904	5107.8
684.094	5148.76
684.284	5056.61
684.474	5007.45
684.664	5103.71
684.854	4972.64
685.044	5036.13
685.234	5027.93
685.424	5021.79
685.614	4923.49
685.804	4950.11
685.994	5085.28
686.184	4886.62
686.374	4911.2
686.564	4984.93
686.753	4888.67
686.943	4946.02
687.133	4962.4
687.323	4925.54
687.513	4909.15
687.702	4821.09
687.892	4870.24
688.082	4683.88
688.272	4892.77
688.461	4872.29
688.651	4831.33
688.841	4722.79
689.03	4677.73
689.22	4835.42
689.41	4882.53
689.599	4638.82
689.789	4745.31
689.979	4665.44
690.168	4710.5
690.358	4649.06
690.547	4630.63
690.737	4577.38
690.926	4735.07
691.116	4556.9
691.305	4452.45
691.495	4542.57
691.684	4552.81
691.874	4745.31
692.063	4581.48
692.252	4483.17
692.442	4452.45
692.631	4595.81
692.82	4493.41
693.01	4497.51
693.199	4587.62
693.388	4393.06
693.578	4483.17
693.767	4409.45
693.956	4360.3
694.146	4241.51
694.335	4374.63
694.524	4409.45
694.713	4348.01
694.902	4280.43
695.092	4456.55
695.281	4362.34
695.47	4225.13
695.659	4180.07
695.848	4345.96
696.037	4300.91
696.226	4417.64
696.415	4163.69
696.604	4313.19
696.793	4223.08
696.982	4192.36
697.171	4292.71
697.36	4282.47
697.549	4098.16
697.738	4108.4
697.927	4245.61
698.116	4270.19
698.305	4147.31
698.494	4141.16
698.683	4100.2
698.872	4089.96
699.061	3983.47
699.25	4065.39
699.438	4026.48
699.627	4102.25
699.816	4114.54
700.005	4040.81
700.193	4098.16
700.382	4118.64
700.571	4212.84
700.76	4155.5
700.948	4147.31
701.137	3885.17
701.326	4112.49
701.514	3821.68
701.703	3930.22
701.892	3934.32
702.08	3965.04
702.269	4012.14
702.457	3928.17
702.646	3911.79
702.834	3934.32
703.023	3836.02
703.212	3956.85
703.4	3967.09
703.589	3870.83
703.777	3930.22
703.965	3879.02
704.154	3887.22
704.342	3715.19
704.531	3917.93
704.719	3700.85
704.907	3854.45
705.096	3721.33
705.284	3750
705.472	3729.52
705.661	3725.43
705.849	3868.78
706.037	3813.49
706.226	3758.19
706.414	3553.4
706.602	3745.91
706.79	3768.43
706.979	3778.67
707.167	3598.45
707.355	3758.19
707.543	3704.95
707.731	3620.98
707.919	3750
708.107	3641.46
708.296	3510.39
708.484	3512.44
708.672	3641.46
708.86	3602.55
709.048	3514.49
709.236	3575.92
709.424	3625.08
709.612	3532.92
709.8	3645.56
709.988	3541.11
710.176	3541.11
710.364	3524.72
710.551	3504.25
710.739	3410.04
710.927	3446.9
711.115	3457.14
711.303	3471.48
711.491	3428.47
711.679	3412.09
711.866	3369.08
712.054	3485.81
712.242	3442.81
712.43	3311.74
712.617	3420.28
712.805	3299.45
712.993	3340.41
713.181	3434.61
713.368	3356.79
713.556	3289.21
713.744	3215.48
713.931	3487.86
714.119	3338.36
714.306	3223.67
714.494	3297.4
714.682	3262.58
714.869	3172.47
715.057	3250.3
715.244	3147.9
715.432	3313.78
715.619	3356.79
715.807	3203.19
715.994	3371.13
716.182	3182.71
716.369	3217.53
716.556	3238.01
716.744	3141.75
716.931	3147.9
717.119	3117.18
717.306	3025.02
717.493	3205.24
717.681	3164.28
717.868	3111.04
718.055	3158.14
718.242	2969.73
718.43	3176.57
718.617	3106.94
718.804	3111.04
718.991	3100.8
719.179	3078.27
719.366	2977.92
719.553	3080.32
719.74	2912.38
719.927	3041.4
720.114	3012.73
720.301	2969.73
720.488	2855.04
720.676	2939.01
720.863	2977.92
721.05	3002.49
721.237	2994.3
721.424	3100.8
721.611	3012.73
721.798	2943.1
721.985	2973.82
722.172	2947.2
722.358	2916.48
722.545	2992.25
722.732	3029.12
722.919	2926.72
723.106	2984.06
723.293	2902.14
723.48	2893.95
723.667	2764.93
723.853	2766.98
724.04	2910.33
724.227	2805.89
724.414	2787.46
724.6	2717.83
724.787	2844.8
724.974	2883.71
725.161	2912.38
725.347	2803.84
725.534	2824.32
725.72	2734.21
725.907	2793.6
726.094	2852.99
726.28	2766.98
726.467	2691.2
726.653	2713.73
726.84	2707.59
727.027	2865.28
727.213	2678.91
727.4	2754.69
727.586	2680.96
727.773	2687.11
727.959	2758.78
728.145	2633.86
728.332	2597
728.518	2676.87
728.705	2672.77
728.891	2680.96
729.077	2640
729.264	2713.73
729.45	2652.29
729.636	2658.43
729.823	2691.2
730.009	2674.82
730.195	2648.19
730.382	2703.49
730.568	2601.09
730.754	2672.77
730.94	2543.75
731.126	2687.11
731.313	2740.35
731.499	2568.32
731.685	2672.77
731.871	2549.89
732.057	2547.84
732.243	2521.22
732.429	2568.32
732.615	2666.63
732.801	2543.75
732.987	2533.51
733.173	2703.49
733.359	2525.32
733.545	2517.12
733.731	2510.98
733.917	2525.32
734.103	2486.4
734.289	2451.59
734.475	2412.68
734.661	2650.24
734.847	2451.59
735.033	2451.59
735.219	2486.4
735.404	2519.17
735.59	2435.21
735.776	2381.96
735.962	2457.73
736.148	2549.89
736.333	2338.95
736.519	2427.01
736.705	2408.58
736.89	2357.38
737.076	2367.62
737.262	2324.62
737.447	2386.05
737.633	2271.37
737.819	2519.17
738.004	2351.24
738.19	2373.77
738.375	2412.68
738.561	2398.34
738.747	2314.38
738.932	2271.37
739.118	2390.15
739.303	2336.9
739.489	2330.76
739.674	2295.94
739.859	2259.08
740.045	2357.38
740.23	2173.07
740.416	2281.61
740.601	2248.84
740.786	2275.46
740.972	2097.29
741.157	2316.42
741.342	2218.12
741.528	2209.93
741.713	2240.65
741.898	2175.11
742.084	2246.79
742.269	2173.07
742.454	2144.39
742.639	2310.28
742.824	2173.07
743.01	2128.01
743.195	2214.02
743.38	2205.83
743.565	2085
743.75	2115.72
743.935	2091.15
744.12	2093.19
744.305	1953.93
744.49	2025.61
744.675	2015.37
744.86	2072.72
745.045	2074.76
745.23	2013.32
745.415	2011.28
745.6	2046.09
745.785	1966.22
745.97	2060.43
746.155	2050.19
746.34	1845.39
746.525	1960.08
746.71	2017.42
746.895	1849.49
747.079	1931.41
747.264	1853.58
747.449	1984.65
747.634	1894.54
747.819	1788.05
748.003	1853.58
748.188	1812.62
748.373	1882.25
748.557	1814.67
748.742	1890.45
748.927	1853.58
749.111	1816.72
749.296	1751.18
749.481	1779.86
749.665	1751.18
749.85	1749.14
750.034	1845.39
750.219	1665.17
750.404	1699.98
750.588	1661.07
750.773	1636.5
750.957	1634.45
751.141	1702.03
751.326	1749.14
751.51	1616.02
751.695	1550.48
751.879	1620.11
752.064	1665.17
752.248	1489.04
752.432	1632.4
752.617	1534.1
752.801	1585.3
752.985	1652.88
753.17	1523.86
753.354	1634.45
753.538	1575.06
753.722	1525.91
753.907	1542.29
754.091	1550.48
754.275	1501.33
754.459	1554.58
754.643	1419.41
754.828	1435.8
755.012	1370.26
755.196	1353.88
755.38	1360.02
755.564	1437.84
755.748	1380.5
755.932	1407.13
756.116	1374.36
756.3	1362.07
756.484	1231
756.668	1253.53
756.852	1388.69
757.036	1364.12
757.22	1257.62
757.404	1353.88
757.588	1382.55
757.772	1333.4
757.956	1304.73
758.14	1319.06
758.323	1247.38
758.507	1304.73
758.691	1198.23
758.875	1271.96
759.059	1288.34
759.242	1179.8
759.426	1173.66
759.61	1198.23
759.794	1214.62
759.977	1267.86
760.161	1239.19
760.345	1323.16
760.528	1261.72
760.712	1153.18
760.895	1214.62
761.079	1149.08
761.263	1132.7
761.446	1116.31
761.63	1196.18
761.813	1069.21
761.997	1083.55
762.18	1116.31
762.364	1136.79
762.547	1112.22
762.731	1120.41
762.914	1075.35
763.098	1011.87
763.281	1056.92
763.464	1116.31
763.648	1083.55
763.831	1085.59
764.015	989.34
764.198	1058.97
764.381	1058.97
764.564	1036.44
764.748	1124.51
764.931	977.05
765.114	1097.88
765.297	1040.54
765.481	1061.02
765.664	1022.11
765.847	1087.64
766.03	989.34
766.213	1048.73
766.397	1042.59
766.58	979.1
766.763	993.44
766.946	1028.25
767.129	1026.2
767.312	1050.78
767.495	927.9
767.678	962.72
767.861	1009.82
768.044	1026.2
768.227	1018.01
768.41	1007.77
768.593	958.62
768.776	1026.2
768.959	944.28
769.142	956.57
769.324	927.9
769.507	850.08
769.69	870.56
769.873	901.28
770.056	940.19
770.239	972.96
770.421	989.34
770.604	899.23
770.787	929.95
770.97	827.55
771.152	868.51
771.335	911.52
771.518	821.41
771.7	882.85
771.883	845.98
772.066	940.19
772.248	880.8
772.431	905.37
772.613	858.27
772.796	727.2
772.978	837.79
773.161	866.46
773.343	798.88
773.526	823.45
773.708	817.31
773.891	893.09
774.073	700.58
774.256	749.73
774.438	913.56
774.621	735.39
774.803	755.87
774.985	694.43
775.168	839.84
775.35	755.87
775.532	811.17
775.715	706.72
775.897	682.14
776.079	690.34
776.261	766.11
776.444	735.39
776.626	807.07
776.808	764.06
776.99	731.3
777.173	774.3
777.355	669.86
777.537	796.83
777.719	602.27
777.901	620.71
778.083	671.9
778.265	669.86
778.447	680.1
778.629	659.62
778.811	653.47
778.993	663.71
779.175	708.77
779.357	673.95
779.539	624.8
779.721	704.67
779.903	653.47
780.085	583.84
780.267	628.9
780.449	657.57
780.631	596.13
780.812	647.33
780.994	575.65
781.176	690.34
781.358	608.42
781.54	635.04
781.721	522.4
781.903	649.38
782.085	612.51
782.267	678.05
782.448	518.31
782.63	596.13
782.812	522.4
782.993	602.27
783.175	583.84
783.357	542.88
783.538	553.12
783.72	481.44
783.901	538.79
784.083	465.06
784.264	594.08
784.446	501.92
784.627	563.36
784.809	594.08
784.99	465.06
785.172	506.02
785.353	442.53
785.535	553.12
785.716	563.36
785.897	510.11
786.079	551.07
786.26	424.1
786.441	514.21
786.623	430.24
786.804	469.16
786.985	448.68
787.167	510.11
787.348	497.83
787.529	493.73
787.71	483.49
787.891	512.16
788.073	387.24
788.254	403.62
788.435	483.49
788.616	379.04
788.797	385.19
788.978	395.43
789.159	434.34
789.34	393.38
789.522	370.85
789.703	428.2
789.884	379.04
790.065	409.76
790.246	436.39
790.427	428.2
790.607	411.81
790.788	463.01
790.969	362.66
791.15	356.52
791.331	370.85
791.512	358.57
791.693	315.56
791.874	413.86
792.054	399.52
792.235	405.67
792.416	297.13
792.597	250.02
792.778	286.89
792.958	348.33
793.139	417.96
793.32	403.62
793.5	301.22
793.681	403.62
793.862	401.57
794.042	344.23
794.223	317.61
794.404	247.97
794.584	329.89
794.765	360.61
794.945	297.13
795.126	313.51
795.306	383.14
795.487	297.13
795.667	250.02
795.848	364.71
796.028	252.07
796.209	286.89
796.389	362.66
796.57	323.75
796.75	202.92
796.93	370.85
797.111	280.74
797.291	313.51
797.471	340.13
797.652	266.41
797.832	250.02
798.012	313.51
798.192	252.07
798.373	264.36
798.553	286.89
798.733	307.37
798.913	188.58
799.093	258.21
799.274	374.95
799.454	305.32
799.634	272.55
799.814	329.89
799.994	252.07
800.174	319.65
800.354	280.74
800.534	264.36
800.714	213.16
800.894	268.45
801.074	262.31
801.254	272.55
801.434	280.74
801.614	260.26
801.794	323.75
801.974	995.48
802.154	264.36
802.334	307.37
802.514	217.26
802.693	256.17
802.873	258.21
803.053	233.64
803.233	223.4
803.413	190.63
803.592	247.97
803.772	145.58
803.952	190.63
804.131	141.48
804.311	235.69
804.491	256.17
804.67	190.63
804.85	256.17
805.03	229.54
805.209	260.26
805.389	231.59
805.568	223.4
805.748	233.64
805.928	170.15
806.107	211.11
806.287	280.74
806.466	215.21
806.646	221.35
806.825	215.21
807.004	213.16
807.184	207.02
807.363	297.13
807.543	198.82
807.722	159.91
807.901	223.4
808.081	219.3
808.26	133.29
808.439	170.15
808.619	186.54
808.798	233.64
808.977	190.63
809.156	215.21
809.336	194.73
809.515	217.26
809.694	168.1
809.873	204.97
810.052	184.49
810.231	182.44
810.411	198.82
810.59	227.5
810.769	166.06
810.948	166.06
811.127	92.33
811.306	151.72
811.485	174.25
811.664	247.97
811.843	164.01
812.022	143.53
812.201	235.69
812.38	184.49
812.559	110.76
812.737	215.21
812.916	211.11
813.095	227.5
813.274	219.3
813.453	176.3
813.632	200.87
813.811	94.38
813.989	116.9
814.168	241.83
814.347	174.25
814.526	102.57
814.704	239.78
814.883	219.3
815.062	145.58
815.24	170.15
815.419	133.29
815.598	141.48
815.776	141.48
815.955	166.06
816.133	174.25
816.312	161.96
816.49	151.72
816.669	141.48
816.847	166.06
817.026	80.04
817.204	137.38
817.383	116.9
817.561	67.75
817.74	106.67
817.918	133.29
818.097	96.43
818.275	168.1
818.453	194.73
818.632	127.14
818.81	129.19
818.988	92.33
819.167	125.1
819.345	184.49
819.523	102.57
819.701	129.19
819.879	164.01
820.058	241.83
820.236	190.63
820.414	180.39
820.592	125.1
820.77	116.9
820.948	151.72
821.127	135.34
821.305	170.15
821.483	30.89
821.661	129.19
821.839	176.3
822.017	104.62
822.195	170.15
822.373	112.81
822.551	127.14
822.729	159.91
822.907	135.34
823.085	69.8
823.262	174.25
823.44	104.62
823.618	100.52
823.796	94.38
823.974	116.9
824.152	92.33
824.329	125.1
824.507	110.76
824.685	184.49
824.863	168.1
825.04	125.1
825.218	194.73
825.396	157.86
825.574	143.53
825.751	53.42
825.929	141.48
826.107	94.38
826.284	108.71
826.462	127.14
826.639	22.7
826.817	63.66
826.994	145.58
827.172	37.03
827.349	159.91
827.527	32.94
827.704	108.71
827.882	223.4
828.059	125.1
828.237	71.85
828.414	129.19
828.591	-12.12
828.769	131.24
828.946	104.62
829.124	67.75
829.301	143.53
829.478	94.38
829.655	102.57
829.833	34.99
830.01	82.09
830.187	133.29
830.364	43.18
830.542	84.14
830.719	104.62
830.896	153.77
831.073	102.57
831.25	125.1
831.427	129.19
831.604	51.37
831.782	69.8
831.959	125.1
832.136	59.56
832.313	92.33
832.49	55.47
832.667	157.86
832.844	24.75
833.021	100.52
833.198	80.04
833.374	67.75
833.551	137.38
833.728	86.19
833.905	112.81
834.082	75.95
834.259	137.38
834.436	118.95
834.612	59.56
834.789	157.86
834.966	77.99
835.143	116.9
835.319	30.89
835.496	77.99
835.673	41.13
835.85	67.75
836.026	43.18
836.203	86.19
836.38	104.62
836.556	67.75
836.733	108.71
836.909	196.78
837.086	59.56
837.262	6.31
837.439	34.99
837.616	106.67
837.792	75.95
837.968	67.75
838.145	-69.46
838.321	71.85
838.498	18.6
838.674	96.43
838.851	45.23
839.027	86.19
839.203	59.56
839.38	51.37
839.556	59.56
839.732	98.47
839.909	92.33
840.085	43.18
840.261	39.08
840.437	80.04
840.614	86.19
840.79	96.43
840.966	55.47
841.142	75.95
841.318	37.03
841.494	100.52
841.671	84.14
841.847	133.29
842.023	10.41
842.199	84.14
842.375	166.06
842.551	0.17
842.727	59.56
842.903	125.1
843.079	51.37
843.255	71.85
843.431	34.99
843.607	129.19
843.783	6.31
843.959	114.86
844.134	-18.26
844.31	92.33
844.486	28.84
844.662	121
844.838	37.03
845.013	80.04
845.189	26.79
845.365	55.47
845.541	26.79
845.716	77.99
845.892	98.47
846.068	18.6
846.244	39.08
846.419	127.14
846.595	10.41
846.77	26.79
846.946	43.18
847.122	32.94
847.297	59.56
847.473	75.95
847.648	26.79
847.824	84.14
847.999	-16.21
848.175	94.38
848.35	118.95
848.526	104.62
848.701	102.57
848.876	100.52
849.052	57.51
849.227	2.22
849.403	73.9
849.578	94.38
849.753	69.8
849.929	96.43
850.104	14.51
850.279	39.08
850.454	63.66
850.63	45.23
850.805	80.04
850.98	59.56
851.155	10.41
851.33	-5.97
851.505	4.27
851.681	71.85
851.856	39.08
852.031	86.19
852.206	73.9
852.381	-26.45
852.556	22.7
852.731	28.84
852.906	88.23
853.081	118.95
853.256	43.18
853.431	-18.26
853.606	26.79
853.781	67.75
853.956	-63.32
854.131	-18.26
854.305	2.22
854.48	63.66
854.655	2.22
854.83	-57.17
855.005	37.03
855.18	55.47
855.354	73.9
855.529	10.41
855.704	-3.93
855.879	14.51
856.053	-26.45
856.228	65.71
856.403	67.75
856.577	86.19
856.752	-34.64
856.926	34.99
857.101	26.79
857.276	-20.31
857.45	37.03
857.625	69.8
857.799	51.37
857.974	94.38
858.148	2.22
858.323	80.04
858.497	51.37
858.672	10.41
858.846	10.41
859.02	43.18
859.195	-59.22
859.369	75.95
859.543	92.33
859.718	47.27
859.892	112.81
860.066	51.37
860.241	-36.69
860.415	-14.17
860.589	59.56
860.763	-30.55
860.938	61.61
861.112	63.66
861.286	18.6
861.46	18.6
861.634	30.89
861.808	67.75
861.982	53.42
862.157	-18.26
862.331	-14.17
862.505	-5.97
862.679	-55.12
862.853	-5.97
863.027	57.51
863.201	86.19
863.375	-22.36
863.549	10.41
863.722	-30.55
863.896	71.85
864.07	88.23
864.244	22.7
864.418	67.75
864.592	69.8
864.766	18.6
864.939	45.23
865.113	14.51
865.287	84.14
865.461	14.51
865.634	51.37
865.808	-61.27
865.982	4.27
866.156	-12.12
866.329	-42.84
866.503	51.37
866.676	88.23
866.85	22.7
867.024	-22.36
867.197	18.6
867.371	51.37
867.544	43.18
867.718	4.27
867.891	63.66
868.065	14.51
868.238	10.41
868.412	12.46
868.585	30.89
868.759	49.32
868.932	22.7
869.105	-38.74
869.279	4.27
869.452	26.79
869.625	59.56
869.799	37.03
869.972	-10.07
870.145	12.46
870.319	47.27
870.492	16.55
870.665	34.99
870.838	-14.17
871.011	-48.98
871.185	22.7
871.358	22.7
871.531	4.27
871.704	-1.88
871.877	26.79
872.05	63.66
872.223	59.56
872.396	-12.12
872.569	10.41
872.742	2.22
872.915	92.33
873.088	-14.17
873.261	18.6
873.434	63.66
873.607	-34.64
873.78	90.28
873.953	-63.32
874.126	73.9
874.299	-12.12
874.471	-24.4
874.644	-1.88
874.817	-5.97
874.99	88.23
875.163	22.7
875.335	94.38
875.508	82.09
875.681	-5.97
875.853	-46.93
876.026	-22.36
876.199	92.33
876.371	10.41
876.544	-28.5
876.717	16.55
876.889	2.22
877.062	61.61
877.234	-20.31
877.407	67.75
877.579	137.38
877.752	22.7
877.924	47.27
878.097	102.57
878.269	28.84
878.442	18.6
878.614	45.23
878.786	6.31
878.959	14.51
879.131	63.66
879.303	-28.5
879.476	12.46
879.648	73.9
879.82	34.99
879.993	-14.17
880.165	-12.12
880.337	-12.12
880.509	51.37
880.681	-71.51
880.854	61.61
881.026	51.37
881.198	26.79
881.37	-44.88
881.542	80.04
881.714	-5.97
881.886	84.14
882.058	30.89
882.23	57.51
882.402	22.7
882.574	30.89
882.746	49.32
882.918	28.84
883.09	41.13
883.262	67.75
883.434	-1.88
883.606	-8.02
883.778	-12.12
883.95	59.56
884.122	6.31
884.293	39.08
884.465	30.89
884.637	100.52
884.809	-16.21
884.98	-42.84
885.152	34.99
885.324	18.6
885.496	49.32
885.667	-57.17
885.839	37.03
886.011	102.57
886.182	65.71
886.354	22.7
886.525	51.37
886.697	112.81
886.869	-30.55
887.04	-26.45
887.212	45.23
887.383	67.75
887.555	-20.31
887.726	18.6
887.897	12.46
888.069	-26.45
888.24	-5.97
888.412	16.55
888.583	-44.88
888.754	51.37
888.926	10.41
889.097	-16.21
889.268	61.61
889.44	92.33
889.611	-36.69
889.782	-67.41
889.953	-18.26
890.125	55.47
890.296	-61.27
890.467	-18.26
890.638	-3.93
890.809	49.32
890.98	14.51
891.151	43.18
891.323	32.94
891.494	26.79
891.665	12.46
891.836	16.55
892.007	51.37
892.178	2.22
892.349	-26.45
892.52	-34.64
892.691	-30.55
892.862	34.99
893.032	0.17
893.203	45.23
893.374	43.18
893.545	-5.97
893.716	-102.23
893.887	77.99
894.057	-65.36
894.228	-18.26
894.399	28.84
894.57	43.18
894.74	14.51
894.911	-8.02
895.082	-34.64
895.253	14.51
895.423	-46.93
895.594	12.46
895.764	75.95
895.935	-18.26
896.106	102.57
896.276	-32.6
896.447	18.6
896.617	61.61
896.788	-67.41
896.958	-8.02
897.129	10.41
897.299	67.75
897.47	53.42
897.64	67.75
897.81	32.94
897.981	12.46
898.151	-75.6
898.322	26.79
898.492	0.17
898.662	28.84
898.832	-94.04
899.003	47.27
899.173	18.6
899.343	59.56
899.513	-32.6
