Data from USB4F104151__103__14-30-52-817.txt Node

Date: Thu Mar 13 14:30:52 EDT 2025
User: louis
Spectrometer: USB4F10415
Trigger mode: 4
Integration Time (sec): 2.500000E-2
Scans to average: 1
Electric dark correction enabled: true
Nonlinearity correction enabled: false
Boxcar width: 0
XAxis mode: Wavelengths
Number of Pixels in Spectrum: 3648
>>>>>Begin Spectral Data<<<<<
178.204	-138.75
178.424	-138.75
178.644	-138.75
178.864	-157.18
179.084	-167.42
179.304	-24.06
179.524	-58.88
179.744	8.7
179.964	35.33
180.184	-30.21
180.404	76.29
180.624	-28.16
180.844	0.51
181.064	-52.74
181.283	57.86
181.503	-40.45
181.723	55.81
181.943	-126.46
182.163	88.57
182.383	16.9
182.602	72.19
182.822	86.53
183.042	66.05
183.262	14.85
183.482	29.18
183.701	-44.54
183.921	47.62
184.141	-1.54
184.361	88.57
184.58	16.9
184.8	80.38
185.02	12.8
185.239	33.28
185.459	33.28
185.679	55.81
185.898	4.61
186.118	76.29
186.338	66.05
186.557	64
186.777	45.57
186.997	0.51
187.216	-9.73
187.436	80.38
187.655	16.9
187.875	-17.92
188.095	96.77
188.314	8.7
188.534	127.49
188.753	20.99
188.973	33.28
189.192	20.99
189.412	86.53
189.631	-28.16
189.851	-11.78
190.07	94.72
190.29	12.8
190.509	-26.11
190.729	16.9
190.948	137.73
191.168	135.68
191.387	20.99
191.607	49.66
191.826	72.19
192.045	61.95
192.265	29.18
192.484	51.71
192.704	61.95
192.923	31.23
193.142	143.87
193.362	23.04
193.581	23.04
193.8	66.05
194.02	121.34
194.239	96.77
194.458	20.99
194.678	12.8
194.897	47.62
195.116	45.57
195.335	4.61
195.555	90.62
195.774	57.86
195.993	12.8
196.212	29.18
196.432	31.23
196.651	53.76
196.87	61.95
197.089	147.97
197.308	109.05
197.528	107.01
197.747	78.33
197.966	-17.92
198.185	70.14
198.404	14.85
198.623	12.8
198.842	94.72
199.062	-30.21
199.281	47.62
199.5	23.04
199.719	111.1
199.938	49.66
200.157	55.81
200.376	-24.06
200.595	47.62
200.814	8.7
201.033	39.42
201.252	57.86
201.471	45.57
201.69	53.76
201.909	-7.68
202.128	135.68
202.347	66.05
202.566	-32.26
202.785	-5.63
203.004	37.38
203.223	135.68
203.442	90.62
203.661	20.99
203.879	53.76
204.098	-17.92
204.317	57.86
204.536	53.76
204.755	137.73
204.974	37.38
205.193	37.38
205.411	76.29
205.63	-58.88
205.849	29.18
206.068	49.66
206.287	16.9
206.505	41.47
206.724	61.95
206.943	29.18
207.162	-11.78
207.381	61.95
207.599	4.61
207.818	-11.78
208.037	94.72
208.255	2.56
208.474	0.51
208.693	16.9
208.911	53.76
209.13	-30.21
209.349	33.28
209.567	-7.68
209.786	80.38
210.005	66.05
210.223	6.66
210.442	10.75
210.661	23.04
210.879	31.23
211.098	-19.97
211.316	29.18
211.535	31.23
211.753	-13.82
211.972	10.75
212.191	70.14
212.409	119.29
212.628	-9.73
212.846	37.38
213.065	-7.68
213.283	94.72
213.502	98.81
213.72	-36.35
213.938	12.8
214.157	74.24
214.375	6.66
214.594	68.09
214.812	86.53
215.031	12.8
215.249	82.43
215.467	47.62
215.686	4.61
215.904	57.86
216.122	45.57
216.341	49.66
216.559	47.62
216.778	-28.16
216.996	-3.58
217.214	59.9
217.432	-9.73
217.651	37.38
217.869	88.57
218.087	113.15
218.306	18.94
218.524	92.67
218.742	37.38
218.96	23.04
219.179	68.09
219.397	4.61
219.615	139.77
219.833	4.61
220.051	74.24
220.27	156.16
220.488	57.86
220.706	61.95
220.924	-7.68
221.142	-3.58
221.36	61.95
221.578	47.62
221.796	57.86
222.015	-11.78
222.233	41.47
222.451	68.09
222.669	-1.54
222.887	53.76
223.105	12.8
223.323	23.04
223.541	-11.78
223.759	-48.64
223.977	-52.74
224.195	119.29
224.413	45.57
224.631	55.81
224.849	20.99
225.067	119.29
225.285	41.47
225.503	12.8
225.721	76.29
225.939	16.9
226.157	82.43
226.375	121.34
226.592	20.99
226.81	78.33
227.028	-3.58
227.246	35.33
227.464	55.81
227.682	39.42
227.9	70.14
228.117	64
228.335	41.47
228.553	-15.87
228.771	51.71
228.989	14.85
229.206	31.23
229.424	10.75
229.642	-1.54
229.86	20.99
230.077	72.19
230.295	25.09
230.513	109.05
230.731	96.77
230.948	111.1
231.166	-3.58
231.384	-9.73
231.601	-15.87
231.819	51.71
232.037	70.14
232.254	-15.87
232.472	47.62
232.689	14.85
232.907	37.38
233.125	-28.16
233.342	47.62
233.56	-9.73
233.777	25.09
233.995	2.56
234.213	119.29
234.43	4.61
234.648	102.91
234.865	37.38
235.083	2.56
235.3	31.23
235.518	-3.58
235.735	53.76
235.953	41.47
236.17	70.14
236.388	14.85
236.605	12.8
236.822	49.66
237.04	49.66
237.257	49.66
237.475	-40.45
237.692	45.57
237.909	16.9
238.127	-9.73
238.344	154.11
238.562	53.76
238.779	-9.73
238.996	-52.74
239.214	84.48
239.431	31.23
239.648	41.47
239.865	55.81
240.083	45.57
240.3	-52.74
240.517	-26.11
240.735	27.14
240.952	4.61
241.169	16.9
241.386	45.57
241.603	49.66
241.821	-9.73
242.038	53.76
242.255	20.99
242.472	-52.74
242.689	55.81
242.907	80.38
243.124	55.81
243.341	49.66
243.558	-26.11
243.775	-36.35
243.992	16.9
244.209	72.19
244.426	100.86
244.643	20.99
244.86	14.85
245.078	37.38
245.295	45.57
245.512	57.86
245.729	6.66
245.946	86.53
246.163	18.94
246.38	12.8
246.597	37.38
246.814	70.14
247.031	20.99
247.248	14.85
247.464	41.47
247.681	61.95
247.898	55.81
248.115	-11.78
248.332	37.38
248.549	129.53
248.766	102.91
248.983	78.33
249.2	53.76
249.417	41.47
249.633	-19.97
249.85	20.99
250.067	20.99
250.284	16.9
250.501	84.48
250.717	72.19
250.934	10.75
251.151	31.23
251.368	37.38
251.585	90.62
251.801	66.05
252.018	2.56
252.235	47.62
252.451	29.18
252.668	33.28
252.885	78.33
253.102	49.66
253.318	29.18
253.535	2.56
253.752	8.7
253.968	27.14
254.185	86.53
254.401	29.18
254.618	72.19
254.835	29.18
255.051	139.77
255.268	94.72
255.484	12.8
255.701	37.38
255.917	45.57
256.134	20.99
256.351	72.19
256.567	14.85
256.784	53.76
257	-48.64
257.217	135.68
257.433	102.91
257.65	70.14
257.866	0.51
258.082	-32.26
258.299	-22.02
258.515	86.53
258.732	-32.26
258.948	35.33
259.165	-5.63
259.381	68.09
259.597	-11.78
259.814	47.62
260.03	-50.69
260.246	115.2
260.463	33.28
260.679	64
260.895	49.66
261.112	4.61
261.328	84.48
261.544	-50.69
261.761	84.48
261.977	-42.5
262.193	-93.69
262.409	6.66
262.626	45.57
262.842	53.76
263.058	-24.06
263.274	-9.73
263.49	25.09
263.707	20.99
263.923	55.81
264.139	25.09
264.355	31.23
264.571	113.15
264.787	-3.58
265.004	61.95
265.22	51.71
265.436	41.47
265.652	-19.97
265.868	70.14
266.084	29.18
266.3	53.76
266.516	31.23
266.732	-1.54
266.948	74.24
267.164	39.42
267.38	109.05
267.596	78.33
267.812	111.1
268.028	4.61
268.244	41.47
268.46	-58.88
268.676	88.57
268.892	45.57
269.108	-32.26
269.324	8.7
269.54	33.28
269.756	45.57
269.972	-77.31
270.188	29.18
270.403	49.66
270.619	39.42
270.835	31.23
271.051	104.96
271.267	80.38
271.483	4.61
271.698	37.38
271.914	31.23
272.13	39.42
272.346	-48.64
272.562	25.09
272.777	74.24
272.993	39.42
273.209	98.81
273.425	-22.02
273.64	-28.16
273.856	51.71
274.072	47.62
274.287	-69.12
274.503	29.18
274.719	2.56
274.934	16.9
275.15	8.7
275.366	117.25
275.581	39.42
275.797	64
276.012	78.33
276.228	115.2
276.444	33.28
276.659	57.86
276.875	12.8
277.09	47.62
277.306	0.51
277.521	29.18
277.737	49.66
277.952	94.72
278.168	37.38
278.383	160.25
278.599	4.61
278.814	4.61
279.03	25.09
279.245	45.57
279.461	27.14
279.676	55.81
279.892	-34.3
280.107	37.38
280.322	37.38
280.538	35.33
280.753	37.38
280.969	20.99
281.184	18.94
281.399	111.1
281.615	31.23
281.83	20.99
282.045	45.57
282.26	-28.16
282.476	53.76
282.691	33.28
282.906	-38.4
283.122	45.57
283.337	45.57
283.552	78.33
283.767	-36.35
283.983	61.95
284.198	-15.87
284.413	70.14
284.628	8.7
284.843	104.96
285.058	78.33
285.274	70.14
285.489	29.18
285.704	39.42
285.919	0.51
286.134	53.76
286.349	-11.78
286.564	-34.3
286.779	131.58
286.995	14.85
287.21	-3.58
287.425	64
287.64	-1.54
287.855	135.68
288.07	8.7
288.285	55.81
288.5	16.9
288.715	-15.87
288.93	92.67
289.145	12.8
289.36	107.01
289.575	31.23
289.79	74.24
290.004	31.23
290.219	64
290.434	41.47
290.649	20.99
290.864	31.23
291.079	-17.92
291.294	0.51
291.509	70.14
291.724	70.14
291.938	33.28
292.153	37.38
292.368	49.66
292.583	57.86
292.798	70.14
293.012	88.57
293.227	-19.97
293.442	-7.68
293.657	41.47
293.871	129.53
294.086	33.28
294.301	131.58
294.516	53.76
294.73	35.33
294.945	-7.68
295.16	-9.73
295.374	78.33
295.589	129.53
295.804	-5.63
296.018	-15.87
296.233	90.62
296.447	55.81
296.662	-7.68
296.877	61.95
297.091	20.99
297.306	-17.92
297.52	-44.54
297.735	47.62
297.949	74.24
298.164	39.42
298.378	39.42
298.593	49.66
298.807	4.61
299.022	137.73
299.236	94.72
299.451	8.7
299.665	41.47
299.88	88.57
300.094	78.33
300.309	72.19
300.523	29.18
300.737	12.8
300.952	0.51
301.166	-28.16
301.381	45.57
301.595	51.71
301.809	6.66
302.024	53.76
302.238	-9.73
302.452	88.57
302.667	45.57
302.881	102.91
303.095	94.72
303.309	4.61
303.524	94.72
303.738	47.62
303.952	-3.58
304.166	12.8
304.381	-65.02
304.595	94.72
304.809	14.85
305.023	39.42
305.237	53.76
305.452	6.66
305.666	76.29
305.88	61.95
306.094	104.96
306.308	23.04
306.522	53.76
306.736	39.42
306.95	39.42
307.164	64
307.379	-9.73
307.593	123.39
307.807	94.72
308.021	127.49
308.235	27.14
308.449	-34.3
308.663	88.57
308.877	72.19
309.091	41.47
309.305	70.14
309.519	-32.26
309.733	94.72
309.947	-11.78
310.161	6.66
310.374	88.57
310.588	137.73
310.802	-24.06
311.016	16.9
311.23	37.38
311.444	-17.92
311.658	111.1
311.872	53.76
312.085	45.57
312.299	49.66
312.513	94.72
312.727	66.05
312.941	61.95
313.154	78.33
313.368	8.7
313.582	12.8
313.796	25.09
314.009	57.86
314.223	18.94
314.437	70.14
314.651	82.43
314.864	29.18
315.078	12.8
315.292	-65.02
315.505	-17.92
315.719	168.45
315.933	70.14
316.146	64
316.36	6.66
316.573	43.52
316.787	53.76
317.001	88.57
317.214	10.75
317.428	51.71
317.641	16.9
317.855	39.42
318.068	23.04
318.282	53.76
318.495	4.61
318.709	80.38
318.922	23.04
319.136	64
319.349	61.95
319.563	94.72
319.776	70.14
319.99	20.99
320.203	23.04
320.417	57.86
320.63	14.85
320.843	61.95
321.057	107.01
321.27	88.57
321.483	98.81
321.697	131.58
321.91	33.28
322.124	53.76
322.337	66.05
322.55	-3.58
322.763	49.66
322.977	-46.59
323.19	29.18
323.403	14.85
323.617	78.33
323.83	49.66
324.043	12.8
324.256	25.09
324.469	-24.06
324.683	37.38
324.896	49.66
325.109	86.53
325.322	23.04
325.535	90.62
325.748	10.75
325.962	12.8
326.175	41.47
326.388	102.91
326.601	78.33
326.814	-32.26
327.027	119.29
327.24	102.91
327.453	16.9
327.666	23.04
327.879	70.14
328.092	53.76
328.305	94.72
328.518	-11.78
328.731	45.57
328.944	25.09
329.157	111.1
329.37	-42.5
329.583	147.97
329.796	88.57
330.009	-26.11
330.222	61.95
330.435	59.9
330.648	37.38
330.861	-26.11
331.073	143.87
331.286	43.52
331.499	61.95
331.712	29.18
331.925	45.57
332.138	-7.68
332.35	111.1
332.563	82.43
332.776	160.25
332.989	55.81
333.202	20.99
333.414	2.56
333.627	-11.78
333.84	-75.26
334.053	25.09
334.265	49.66
334.478	4.61
334.691	107.01
334.903	53.76
335.116	47.62
335.329	-38.4
335.541	49.66
335.754	90.62
335.966	18.94
336.179	37.38
336.392	45.57
336.604	72.19
336.817	45.57
337.029	57.86
337.242	31.23
337.454	74.24
337.667	25.09
337.88	111.1
338.092	70.14
338.305	64
338.517	-3.58
338.729	70.14
338.942	113.15
339.154	23.04
339.367	-1.54
339.579	12.8
339.792	-7.68
340.004	111.1
340.217	80.38
340.429	10.75
340.641	57.86
340.854	16.9
341.066	70.14
341.278	70.14
341.491	119.29
341.703	51.71
341.915	39.42
342.128	45.57
342.34	29.18
342.552	37.38
342.764	96.77
342.977	4.61
343.189	47.62
343.401	170.49
343.613	-17.92
343.826	80.38
344.038	37.38
344.25	170.49
344.462	0.51
344.674	76.29
344.886	72.19
345.099	45.57
345.311	66.05
345.523	74.24
345.735	-9.73
345.947	94.72
346.159	76.29
346.371	39.42
346.583	45.57
346.795	188.93
347.007	107.01
347.219	68.09
347.431	-3.58
347.643	6.66
347.855	45.57
348.067	64
348.279	-11.78
348.491	-5.63
348.703	72.19
348.915	45.57
349.127	23.04
349.339	94.72
349.551	39.42
349.763	94.72
349.975	88.57
350.187	-19.97
350.399	57.86
350.61	53.76
350.822	57.86
351.034	74.24
351.246	-15.87
351.458	72.19
351.669	107.01
351.881	86.53
352.093	102.91
352.305	86.53
352.517	82.43
352.728	88.57
352.94	8.7
353.152	88.57
353.363	-11.78
353.575	61.95
353.787	72.19
353.999	43.52
354.21	152.06
354.422	47.62
354.633	94.72
354.845	37.38
355.057	53.76
355.268	78.33
355.48	94.72
355.692	-5.63
355.903	57.86
356.115	4.61
356.326	14.85
356.538	47.62
356.749	119.29
356.961	64
357.172	-24.06
357.384	14.85
357.595	170.49
357.807	45.57
358.018	8.7
358.23	102.91
358.441	137.73
358.653	123.39
358.864	37.38
359.075	61.95
359.287	0.51
359.498	133.63
359.709	70.14
359.921	86.53
360.132	104.96
360.344	98.81
360.555	0.51
360.766	35.33
360.977	119.29
361.189	23.04
361.4	-19.97
361.611	121.34
361.823	80.38
362.034	59.9
362.245	-3.58
362.456	39.42
362.667	119.29
362.879	39.42
363.09	27.14
363.301	94.72
363.512	-22.02
363.723	29.18
363.935	-7.68
364.146	12.8
364.357	47.62
364.568	154.11
364.779	82.43
364.99	102.91
365.201	55.81
365.412	33.28
365.623	-48.64
365.834	4.61
366.045	66.05
366.256	61.95
366.467	23.04
366.678	76.29
366.889	133.63
367.1	-7.68
367.311	74.24
367.522	86.53
367.733	64
367.944	-13.82
368.155	72.19
368.366	-1.54
368.577	154.11
368.788	37.38
368.999	59.9
369.209	78.33
369.42	115.2
369.631	127.49
369.842	137.73
370.053	41.47
370.264	100.86
370.474	61.95
370.685	49.66
370.896	37.38
371.107	70.14
371.317	102.91
371.528	92.67
371.739	137.73
371.95	78.33
372.16	170.49
372.371	-3.58
372.582	43.52
372.792	68.09
373.003	72.19
373.214	74.24
373.424	84.48
373.635	80.38
373.846	55.81
374.056	29.18
374.267	43.52
374.477	-11.78
374.688	55.81
374.898	29.18
375.109	102.91
375.319	84.48
375.53	119.29
375.74	61.95
375.951	47.62
376.161	102.91
376.372	70.14
376.582	10.75
376.793	72.19
377.003	6.66
377.214	66.05
377.424	39.42
377.635	66.05
377.845	43.52
378.055	37.38
378.266	35.33
378.476	31.23
378.686	90.62
378.897	121.34
379.107	-3.58
379.317	80.38
379.528	64
379.738	-9.73
379.948	92.67
380.158	37.38
380.369	12.8
380.579	45.57
380.789	57.86
380.999	168.45
381.21	47.62
381.42	135.68
381.63	-11.78
381.84	102.91
382.05	78.33
382.261	61.95
382.471	98.81
382.681	70.14
382.891	25.09
383.101	193.02
383.311	6.66
383.521	25.09
383.731	178.69
383.941	57.86
384.151	98.81
384.361	18.94
384.571	94.72
384.781	72.19
384.991	127.49
385.201	107.01
385.411	102.91
385.621	80.38
385.831	37.38
386.041	66.05
386.251	-28.16
386.461	102.91
386.671	70.14
386.881	39.42
387.091	51.71
387.301	49.66
387.511	80.38
387.72	111.1
387.93	123.39
388.14	29.18
388.35	33.28
388.56	39.42
388.769	29.18
388.979	84.48
389.189	102.91
389.399	70.14
389.609	113.15
389.818	96.77
390.028	162.3
390.238	72.19
390.447	4.61
390.657	123.39
390.867	131.58
391.076	49.66
391.286	117.25
391.496	25.09
391.705	20.99
391.915	107.01
392.125	172.54
392.334	53.76
392.544	193.02
392.753	70.14
392.963	88.57
393.172	137.73
393.382	4.61
393.591	180.73
393.801	74.24
394.01	176.64
394.22	86.53
394.429	160.25
394.639	131.58
394.848	135.68
395.058	68.09
395.267	94.72
395.477	20.99
395.686	145.92
395.895	113.15
396.105	233.98
396.314	61.95
396.524	119.29
396.733	104.96
396.942	80.38
397.152	127.49
397.361	225.79
397.57	147.97
397.78	127.49
397.989	160.25
398.198	129.53
398.407	94.72
398.617	107.01
398.826	111.1
399.035	88.57
399.244	94.72
399.453	123.39
399.663	139.77
399.872	180.73
400.081	135.68
400.29	113.15
400.499	184.83
400.708	160.25
400.917	66.05
401.127	135.68
401.336	195.07
401.545	162.3
401.754	188.93
401.963	147.97
402.172	135.68
402.381	119.29
402.59	113.15
402.799	135.68
403.008	176.64
403.217	109.05
403.426	190.97
403.635	119.29
403.844	129.53
404.053	135.68
404.262	121.34
404.471	244.22
404.68	256.51
404.888	188.93
405.097	217.6
405.306	209.4
405.515	162.3
405.724	119.29
405.933	283.13
406.142	283.13
406.35	240.12
406.559	164.35
406.768	215.55
406.977	266.75
407.185	227.84
407.394	291.32
407.603	291.32
407.812	311.8
408.02	320
408.229	315.9
408.438	334.33
408.646	307.71
408.855	330.23
409.064	381.43
409.272	322.04
409.481	465.4
409.69	342.52
409.898	473.59
410.107	414.2
410.315	348.67
410.524	383.48
410.733	440.83
410.941	446.97
411.15	514.55
411.358	621.05
411.567	598.52
411.775	545.27
411.984	553.46
412.192	590.33
412.401	612.85
412.609	614.9
412.818	743.92
413.026	700.92
413.234	672.25
413.443	688.63
413.651	723.44
413.86	850.42
414.068	815.6
414.276	791.03
414.485	823.8
414.693	946.67
414.901	934.39
415.11	987.63
415.318	983.54
415.526	981.49
415.734	1014.26
415.943	1096.18
416.151	1159.66
416.359	1161.71
416.567	1184.24
416.776	1307.12
416.984	1307.12
417.192	1360.36
417.4	1339.88
417.608	1399.27
417.817	1425.9
418.025	1583.59
418.233	1685.99
418.441	1563.11
418.649	1573.35
418.857	1716.71
419.065	1880.55
419.273	1755.62
419.481	1851.88
419.689	1978.85
419.897	2046.43
420.105	2105.82
420.313	2134.5
420.521	2218.46
420.729	2306.52
420.937	2259.42
421.145	2353.63
421.353	2544.09
421.561	2609.62
421.769	2679.26
421.977	2929.11
422.185	2695.64
422.393	3049.94
422.601	3228.11
422.809	3092.94
423.017	3264.97
423.224	3224.01
423.432	3578.31
423.64	3494.35
423.848	3772.87
424.056	3576.27
424.263	3803.59
424.471	3899.84
424.679	4002.24
424.887	4256.19
425.094	4362.69
425.302	4293.05
425.51	4563.39
425.718	4735.42
425.925	4698.55
426.133	4911.54
426.341	5231.02
426.548	5493.16
426.756	5415.34
426.964	5378.48
427.171	5554.6
427.379	5804.46
427.586	5859.75
427.794	6279.58
428.001	6488.48
428.209	6779.29
428.417	6506.91
428.624	7156.11
428.832	7188.88
429.039	7135.64
429.247	7082.39
429.454	7682.44
429.662	8214.91
429.869	7633.29
430.076	8214.91
430.284	8112.52
430.491	8444.29
430.699	8866.17
430.906	8874.36
431.114	8999.29
431.321	9279.86
431.528	9556.33
431.736	10074.47
431.943	10522.98
432.15	10213.73
432.358	10408.29
432.565	11018.58
432.772	10914.14
432.979	11260.24
433.187	11366.74
433.394	11618.64
433.601	12601.66
433.808	12357.96
434.016	12372.29
434.223	12790.08
434.43	13844.78
434.637	13441.33
434.844	14129.45
435.052	14414.12
435.259	14311.72
435.466	14713.12
435.673	14465.32
435.88	15616.27
436.087	15970.57
436.294	16304.39
436.501	15954.19
436.708	16013.58
436.915	16652.55
437.122	17391.86
437.329	17426.68
437.537	17807.6
437.743	18190.57
437.95	17832.18
438.157	18591.97
438.364	19609.81
438.571	19689.68
438.778	19544.28
438.985	21420.22
439.192	20578.5
439.399	21139.65
439.606	20893.89
439.813	22067.38
440.02	23027.87
440.227	22714.53
440.433	22321.32
440.64	23208.09
440.847	23031.97
441.054	23697.56
441.261	25235.58
441.467	25063.55
441.674	25464.96
441.881	26398.83
442.088	26265.71
442.294	26087.54
442.501	26777.7
442.708	27388
442.914	28198.99
443.121	29546.56
443.328	28516.43
443.534	30844.97
443.741	29730.87
443.948	29382.72
444.154	31799.32
444.361	31385.63
444.568	31492.13
444.774	31627.29
444.981	32004.12
445.187	32960.52
445.394	34101.24
445.6	33650.69
445.807	36798.41
446.013	35538.91
446.22	35768.29
446.426	37435.33
446.633	37881.79
446.839	38930.35
447.046	37324.74
447.252	39708.58
447.459	39720.87
447.665	39356.33
447.871	40875.92
448.078	42725.24
448.284	40834.96
448.491	41584.52
448.697	43239.28
448.903	44003.17
449.11	44150.62
449.316	43482.98
449.522	44597.08
449.728	45530.95
449.935	46348.09
450.141	45977.41
450.347	46542.65
450.553	45205.33
450.76	46012.23
450.966	47357.74
451.172	46735.16
451.378	47906.6
451.584	47030.07
451.791	48211.74
451.997	48351.01
452.203	49137.43
452.409	48688.92
452.615	48379.68
452.821	46888.76
453.027	46434.11
453.233	49084.18
453.44	46710.58
453.646	47583.02
453.852	47648.55
454.058	48359.2
454.264	46772.02
454.47	48084.77
454.676	46778.17
454.882	48465.69
455.088	44066.66
455.294	45168.46
455.5	45360.97
455.705	46051.14
455.911	44287.84
456.117	43620.2
456.323	42362.75
456.529	40351.64
456.735	42100.61
456.941	41209.74
457.147	40351.64
457.352	39212.97
457.558	39315.37
457.764	38881.2
457.97	38438.84
458.176	37447.62
458.381	37412.81
458.587	35737.57
458.793	35831.77
458.999	33832.96
459.204	36073.43
459.41	34930.67
459.616	32530.45
459.821	32868.36
460.027	32815.12
460.233	32032.79
460.438	30500.91
460.644	31090.73
460.85	29343.81
461.055	28989.51
461.261	29020.23
461.466	26929.25
461.672	26058.87
461.878	27820.12
462.083	25942.13
462.289	25532.54
462.494	25272.45
462.7	24082.58
462.905	23394.46
463.111	24567.95
463.316	24479.88
463.522	23834.77
463.727	23589.02
463.932	23562.39
464.138	23523.48
464.343	23306.4
464.549	23048.35
464.754	23746.71
464.959	23279.77
465.165	23175.33
465.37	22255.79
465.575	21704.88
465.781	22614.18
465.986	22677.67
466.191	21958.83
466.397	21219.52
466.602	20269.26
466.807	21452.98
467.012	20936.9
467.218	21110.97
467.423	20426.95
467.628	20672.71
467.833	21803.19
468.038	20801.73
468.244	20226.25
468.449	21047.49
468.654	20146.38
468.859	20322.51
469.064	19673.3
469.269	19448.02
469.474	19591.38
469.679	19519.7
469.885	19177.69
470.09	19443.93
470.295	19110.11
470.5	18804.96
470.705	19124.44
470.91	18774.24
471.115	18258.15
471.32	18620.64
471.525	18555.11
471.73	18034.92
471.935	17801.46
472.139	17348.86
472.344	17549.56
472.549	17576.18
472.754	17133.82
472.959	16713.98
473.164	16490.76
473.369	16419.08
473.574	16920.83
473.778	16914.69
473.983	16593.15
474.188	16457.99
474.393	15753.49
474.598	15880.46
474.802	15591.7
475.007	15704.34
475.212	15638.8
475.417	14950.68
475.621	14844.19
475.826	15132.95
476.031	14922.01
476.235	14356.77
476.44	14864.67
476.645	14385.44
476.849	14668.06
477.054	14307.62
477.259	13996.33
477.463	13828.4
477.668	13787.44
477.872	13541.68
478.077	13533.49
478.282	13236.53
478.486	13087.03
478.691	13185.33
478.895	13209.91
479.1	12906.81
479.304	12919.1
479.509	12595.52
479.713	12783.93
479.918	12513.6
480.122	12177.73
480.326	12740.93
480.531	12724.54
480.735	12435.78
480.94	12247.37
481.144	12486.98
481.348	12050.76
481.553	12276.04
481.757	11964.75
481.961	12329.28
482.166	12437.83
482.37	11989.32
482.574	11936.07
482.778	12050.76
482.983	12054.86
483.187	11942.22
483.391	12296.52
483.595	11966.79
483.8	11655.5
484.004	12235.08
484.208	12187.97
484.412	11817.29
484.616	11977.03
484.821	11954.51
485.025	11680.08
485.229	11854.16
485.433	11663.69
485.637	12046.66
485.841	11944.27
486.045	11669.84
486.249	11977.03
486.453	11782.48
486.657	11888.97
486.861	11960.65
487.065	11825.48
487.269	11864.39
487.473	11686.22
487.677	12097.86
487.881	11948.36
488.085	11864.39
488.289	11653.45
488.493	11944.27
488.697	11841.87
488.901	11757.9
489.105	11858.25
489.309	11956.55
489.512	11942.22
489.716	11991.37
489.92	11925.83
490.124	11901.26
490.328	12038.47
490.531	11647.31
490.735	12155.21
490.939	11901.26
491.143	12046.66
491.346	12024.14
491.55	12376.39
491.754	12325.19
491.958	12341.57
492.161	12333.38
492.365	12341.57
492.569	12439.87
492.772	12333.38
492.976	12497.22
493.18	12419.39
493.383	12783.93
493.587	12714.3
493.79	12814.65
493.994	12669.25
494.197	12736.83
494.401	12851.52
494.605	12843.32
494.808	12966.2
495.012	13154.62
495.215	13091.13
495.419	13289.78
495.622	13230.39
495.825	13533.49
496.029	13259.06
496.232	13846.83
496.436	13545.78
496.639	14031.15
496.843	13777.2
497.046	14180.65
497.249	14305.57
497.453	14115.11
497.656	14496.03
497.859	14774.56
498.063	14747.93
498.266	14774.56
498.469	14823.71
498.673	15024.41
498.876	15323.41
499.079	15425.81
499.282	15157.53
499.485	15749.39
499.689	15735.06
499.892	15991.05
500.095	16093.45
500.298	16177.42
500.501	16234.76
500.705	16689.41
500.908	16716.03
501.111	16773.38
501.314	16967.93
501.517	17207.55
501.72	17553.65
501.923	17283.32
502.126	17797.36
502.329	18012.4
502.532	18252.01
502.735	18301.16
502.938	18487.53
503.141	18565.35
503.344	18938.08
503.547	19120.35
503.75	19030.24
503.953	19531.99
504.156	19890.38
504.359	19921.1
504.562	19749.07
504.765	20164.81
504.968	20787.39
505.17	20455.62
505.373	20504.78
505.576	21381.31
505.779	21137.6
505.982	21393.59
506.185	21786.8
506.387	21739.7
506.59	22034.61
506.793	22497.45
506.996	22376.62
507.198	23019.68
507.401	23056.54
507.604	23199.9
507.807	23648.41
508.009	23695.51
508.212	23861.4
508.415	24037.52
508.617	24201.36
508.82	24391.82
509.022	24303.76
509.225	25110.66
509.428	25268.35
509.63	25350.27
509.833	25225.34
510.035	25884.79
510.238	25815.16
510.44	26599.53
510.643	26900.58
510.845	26900.58
511.048	27115.62
511.25	27334.75
511.453	27629.66
511.655	28221.52
511.858	27932.76
512.06	28008.53
512.262	28833.86
512.465	28512.33
512.667	28964.93
512.87	29460.54
513.072	29392.96
513.274	29755.45
513.477	30572.59
513.679	30425.14
513.881	30736.43
514.084	31135.78
514.286	31037.48
514.488	31473.7
514.69	31969.3
514.893	32309.27
515.095	32227.35
515.297	32522.26
515.499	32548.88
515.701	33001.48
515.904	33818.62
516.106	33812.48
516.308	33937.4
516.51	34602.99
516.712	34324.47
516.914	34584.56
517.116	35323.88
517.318	35383.27
517.52	35510.24
517.722	35661.79
517.925	36284.37
518.127	36333.53
518.329	36550.61
518.531	36769.74
518.733	37142.47
518.935	37332.93
519.136	37507.01
519.338	38016.96
519.54	38084.54
519.742	38715.31
519.944	38633.39
520.146	39063.47
520.348	39403.43
520.55	39575.46
520.752	39276.46
520.954	39839.65
521.155	39651.23
521.357	40234.91
521.559	40390.55
521.761	40615.83
521.963	40400.79
522.164	41056.14
522.366	41248.65
522.568	41338.76
522.77	41252.75
522.971	42180.48
523.173	41590.66
523.375	41875.33
523.576	42116.99
523.778	41858.95
523.98	42962.8
524.181	42721.14
524.383	42551.16
524.584	43538.28
524.786	43036.53
524.988	43190.12
525.189	43648.87
525.391	43587.43
525.592	43958.11
525.794	43652.97
525.995	43829.09
526.197	43812.71
526.398	44154.72
526.6	44500.82
526.801	44390.23
527.003	44447.58
527.204	44603.22
527.406	44541.78
527.607	44414.81
527.808	44881.75
528.01	43890.53
528.211	44963.67
528.412	45207.37
528.614	45107.02
528.815	44808.02
529.016	45416.27
529.218	44777.3
529.419	44959.57
529.62	44949.33
529.822	45053.78
530.023	44971.86
530.224	45008.72
530.425	45012.82
530.626	44685.14
530.828	44439.39
531.029	45535.05
531.23	44437.34
531.431	44713.81
531.632	44517.21
531.833	45485.9
532.035	44560.22
532.236	44990.29
532.437	45098.83
532.638	44627.8
532.839	44603.22
533.04	45236.05
533.241	44556.12
533.442	45264.72
533.643	44263.26
533.844	44597.08
534.045	44980.05
534.246	44156.77
534.447	44994.39
534.648	44453.72
534.849	44693.33
535.05	44355.42
535.251	44164.96
535.451	44259.16
535.652	44074.85
535.853	44488.54
536.054	44132.19
536.255	44463.96
536.456	43597.67
536.657	44121.95
536.857	43796.32
537.058	43556.71
537.259	44021.6
537.46	43941.73
537.66	43710.31
537.861	44187.49
538.062	43333.48
538.263	43554.66
538.463	43132.78
538.664	43734.88
538.865	43673.45
539.065	43655.01
539.266	43265.9
539.466	43607.91
539.667	42927.98
539.868	43466.6
540.068	43362.15
540.269	43456.36
540.469	43755.36
540.67	42835.83
540.87	43075.44
541.071	43079.53
541.271	42784.63
541.472	43032.43
541.672	43112.3
541.873	42942.32
542.073	42354.55
542.274	43011.95
542.474	42864.5
542.675	42602.36
542.875	43321.19
543.075	43075.44
543.276	42452.86
543.476	43063.15
543.676	42344.31
543.877	42989.42
544.077	42620.79
544.277	43034.48
544.478	42397.56
544.678	42868.59
544.878	42987.38
545.078	42776.44
545.279	42344.31
545.479	42246.01
545.679	42436.47
545.879	42776.44
546.079	42409.85
546.28	42487.67
546.48	42065.79
546.68	42581.88
546.88	42567.54
547.08	42792.82
547.28	42442.62
547.48	42008.45
547.68	42350.46
547.88	42344.31
548.081	42436.47
548.281	42819.44
548.481	42391.42
548.681	42805.11
548.881	42598.26
549.081	42508.15
549.28	42565.49
549.48	42604.41
549.68	42389.37
549.88	42987.38
550.08	42499.96
550.28	42602.36
550.48	42327.93
550.68	42598.26
550.88	42428.28
551.08	42499.96
551.279	42678.13
551.479	42413.94
551.679	42786.68
551.879	42567.54
552.079	42893.17
552.278	42442.62
552.478	42624.89
552.678	42514.3
552.878	42835.83
553.077	42491.77
553.277	42164.09
553.477	42950.51
553.676	42413.94
553.876	42633.08
554.076	42360.7
554.275	42637.17
554.475	42137.47
554.674	42592.12
554.874	42391.42
555.074	42536.82
555.273	42805.11
555.473	43095.92
555.672	42223.48
555.872	42610.55
556.071	42637.17
556.271	42803.06
556.47	43009.9
556.67	42477.43
556.869	42631.03
557.068	42887.03
557.268	42459
557.467	42514.3
557.667	42985.33
557.866	42317.69
558.065	42368.89
558.265	42483.58
558.464	42356.6
558.663	43063.15
558.863	42329.98
559.062	43120.49
559.261	42188.67
559.461	43145.07
559.66	42264.44
559.859	42934.13
560.058	42256.25
560.258	42581.88
560.457	42362.75
560.656	42432.38
560.855	42862.45
561.054	42602.36
561.253	42434.42
561.453	42536.82
561.652	42680.18
561.851	42975.09
562.05	42428.28
562.249	42264.44
562.448	42825.59
562.647	42100.61
562.846	42600.31
563.045	42459
563.244	42047.36
563.443	42549.11
563.642	41944.96
563.841	42264.44
564.04	42151.8
564.239	42794.87
564.438	42024.83
564.637	42502.01
564.836	42426.23
565.035	41994.11
565.234	42155.9
565.432	42000.26
565.631	41981.82
565.83	42043.26
566.029	41834.37
566.228	41531.27
566.427	41394.06
566.625	41299.85
566.824	41283.47
567.023	41721.73
567.222	41095.05
567.42	41680.77
567.619	41439.11
567.818	41047.95
568.016	41058.19
568.215	41570.18
568.414	41039.76
568.612	41701.25
568.811	41033.61
569.01	41150.35
569.208	40421.27
569.407	40763.28
569.605	40560.53
569.804	41156.49
570.002	40398.74
570.201	40761.23
570.4	40388.5
570.598	40378.26
570.797	39999.39
570.995	40275.87
571.193	39974.81
571.392	40497.05
571.59	39610.28
571.789	39651.23
571.987	39798.69
572.186	39819.17
572.384	39546.79
572.582	39868.32
572.781	39593.89
572.979	38846.38
573.177	39309.22
573.376	39458.73
573.574	38983.6
573.772	39325.61
573.971	39143.34
574.169	38952.88
574.367	38406.07
574.565	38936.49
574.763	38455.22
574.962	38518.71
575.16	38191.03
575.358	38576.05
575.556	37865.41
575.754	38633.39
575.952	37648.32
576.151	38070.2
576.349	37470.15
576.547	37842.88
576.745	37736.38
576.943	37519.3
577.141	37093.32
577.339	37771.2
577.537	37556.16
577.735	37658.56
577.933	36845.52
578.131	37083.08
578.329	36937.68
578.527	36294.61
578.725	36739.02
578.923	37277.64
579.121	36331.48
579.319	36397.01
579.516	36679.63
579.714	36288.47
579.912	35909.6
580.11	36046.81
580.308	36073.43
580.506	36077.53
580.704	35543.01
580.901	36210.65
581.099	36020.19
581.297	35665.89
581.495	35594.21
581.692	35391.46
581.89	35362.79
582.088	35479.52
582.285	35348.45
582.483	35598.3
582.681	35051.5
582.878	34893.8
583.076	34584.56
583.274	34844.65
583.471	34455.54
583.669	34916.33
583.866	34684.91
584.064	34529.27
584.262	34191.35
584.459	34541.55
584.657	34101.24
584.854	34627.57
585.052	33789.95
585.249	34142.2
585.447	34199.54
585.644	33708.03
585.841	33792
586.039	33800.19
586.236	33409.03
586.434	33323.01
586.631	33513.47
586.828	33542.14
587.026	33296.39
587.223	33656.83
587.42	32690.19
587.618	33056.78
587.815	33101.83
588.012	32747.53
588.21	33079.3
588.407	33388.55
588.604	32174.1
588.801	32315.41
588.999	32460.82
589.196	32542.74
589.393	32239.64
589.59	32378.9
589.787	32202.77
589.984	32104.47
590.182	32002.07
590.379	32235.54
590.576	31655.96
590.773	31965.21
590.97	31795.23
591.167	32225.3
591.364	31438.88
591.561	31485.98
591.758	31701.02
591.955	31641.63
592.152	31807.51
592.349	31424.54
592.546	31107.11
592.743	31774.75
592.94	31012.9
593.137	31182.88
593.334	31361.06
593.531	30738.47
593.727	31205.41
593.924	31234.08
594.121	30900.26
594.318	31070.25
594.515	30548.01
594.712	30924.84
594.908	30914.6
595.105	30984.23
595.302	30601.26
595.499	30369.84
595.696	30429.23
595.892	30550.06
596.089	30390.32
596.286	30408.75
596.482	30660.65
596.679	30206
596.876	30644.27
597.072	30154.8
597.269	30294.07
597.466	30261.3
597.662	30031.93
597.859	30318.64
598.055	30355.5
598.252	29993.01
598.448	30048.31
598.645	29931.58
598.841	29741.11
599.038	30115.89
599.234	30023.73
599.431	30201.91
599.627	29945.91
599.824	29947.96
600.02	29855.8
600.217	29972.53
600.413	29935.67
600.609	29685.82
600.806	29798.46
601.002	29974.58
601.198	29397.06
601.395	29411.39
601.591	29595.71
601.787	29540.41
601.984	29708.35
602.18	29982.77
602.376	29761.59
602.572	29581.37
602.769	29773.88
602.965	29585.47
603.161	29943.86
603.357	30011.45
603.553	29589.56
603.75	29644.86
603.946	29362.24
604.142	29548.61
604.338	29458.49
604.534	29802.55
604.73	29603.9
604.926	29538.37
605.122	29730.87
605.318	29749.31
605.514	29521.98
605.71	29814.84
605.906	29341.76
606.102	29575.23
606.298	29876.28
606.494	29694.01
606.69	29732.92
606.886	29911.1
607.082	29491.26
607.278	30003.25
607.474	29231.17
607.67	29980.73
607.866	29579.32
608.062	29978.68
608.257	29683.77
608.453	29749.31
608.649	29999.16
608.845	30191.67
609.041	29610.04
609.236	29579.32
609.432	29575.23
609.628	29657.15
609.824	29632.57
610.019	30076.98
610.215	30050.36
610.411	30046.26
610.606	29839.42
610.802	30058.55
610.998	30031.93
611.193	29876.28
611.389	29837.37
611.584	30126.13
611.78	30394.42
611.976	29831.22
612.171	30056.5
612.367	30181.43
612.562	30005.3
612.758	29927.48
612.953	29933.62
613.149	30169.14
613.344	30230.58
613.539	30392.37
613.735	30249.01
613.93	30285.87
614.126	29974.58
614.321	30722.09
614.517	30058.55
614.712	29999.16
614.907	30052.41
615.103	30281.78
615.298	30187.57
615.493	30474.29
615.688	30101.56
615.884	30687.28
616.079	30001.21
616.274	30091.32
616.47	30257.2
616.665	30355.5
616.86	30115.89
617.055	29978.68
617.25	30068.79
617.445	30355.5
617.641	30011.45
617.836	30179.38
618.031	29485.12
618.226	30083.12
618.421	29638.72
618.616	30017.59
618.811	29493.31
619.006	30036.02
619.201	29143.11
619.396	29474.88
619.591	29216.83
619.786	29505.6
619.981	29055.04
620.176	29454.4
620.371	28975.17
620.566	29442.11
620.761	28819.53
620.956	28815.43
621.151	28555.34
621.346	28964.93
621.541	28418.13
621.735	28633.16
621.93	27928.66
622.125	28356.69
622.32	27715.67
622.515	28270.67
622.709	27844.7
622.904	28002.39
623.099	27613.27
623.294	27932.76
623.488	27568.22
623.683	27689.05
623.878	27105.38
624.072	27142.24
624.267	26751.08
624.462	27242.59
624.656	26800.23
624.851	26749.03
625.046	26527.85
625.24	26605.67
625.435	26603.63
625.629	26124.4
625.824	26304.62
626.018	26122.35
626.213	25673.85
626.407	25786.49
626.602	25256.06
626.796	25153.66
626.991	25489.53
627.185	25213.06
627.38	24948.87
627.574	24864.9
627.768	24690.82
627.963	24500.36
628.157	24782.98
628.352	24729.73
628.546	24494.22
628.74	24555.66
628.935	23933.07
629.129	23969.94
629.323	23638.17
629.517	24084.62
629.712	23814.29
629.906	23738.52
630.1	23304.35
630.294	23283.87
630.489	22997.15
630.683	23333.02
630.877	22890.66
631.071	22716.58
631.265	22775.97
631.459	22685.86
631.653	22372.52
631.848	22479.02
632.042	22206.64
632.236	22509.74
632.43	22173.87
632.624	22141.1
632.818	21874.87
633.012	21637.3
633.206	21747.89
633.4	21795
633.594	21491.9
633.788	21500.09
633.982	21366.97
634.176	21422.27
634.369	21129.41
634.563	20904.13
634.757	20785.35
634.951	20891.84
635.145	20746.44
635.339	20678.85
635.533	20412.62
635.726	20439.24
635.92	20056.27
636.114	20150.48
636.308	19960.02
636.501	19837.14
636.695	19845.33
636.889	19575
637.083	19345.62
637.276	19519.7
637.47	19353.82
637.664	19253.47
637.857	19202.27
638.051	19466.45
638.244	18852.06
638.438	19110.11
638.632	18764
638.825	18637.03
639.019	18243.82
639.212	18436.33
639.406	18524.39
639.599	18295.02
639.793	18481.38
639.986	17905.9
640.18	17977.58
640.373	18176.23
640.567	17580.28
640.76	17654
640.954	17496.31
641.147	17268.98
641.34	17314.04
641.534	17371.38
641.727	17275.13
641.92	17275.13
642.114	16904.45
642.307	16998.65
642.5	16611.59
642.694	16400.65
642.887	16447.75
643.08	16468.23
643.273	16570.63
643.467	16339.21
643.66	16148.75
643.853	16224.52
644.046	15710.48
644.239	15757.58
644.432	15685.9
644.626	15618.32
644.819	15659.28
645.012	15690
645.205	15544.59
645.398	15190.3
645.591	15319.32
645.784	15008.03
645.977	14977.31
646.17	14958.88
646.363	14731.55
646.556	14741.79
646.749	14799.13
646.942	14780.7
647.135	14424.36
647.328	14207.27
647.521	14379.3
647.714	14102.82
647.907	14307.62
648.099	14192.94
648.292	13959.47
648.485	14055.72
648.678	13707.57
648.871	13775.15
649.064	13781.29
649.256	13777.2
649.449	13818.16
649.642	13467.95
649.835	13402.42
650.027	13463.86
650.22	13373.75
650.413	13275.45
650.605	13259.06
650.798	13201.72
650.991	12966.2
651.183	13259.06
651.376	12984.63
651.568	12794.17
651.761	12886.33
651.954	12728.64
652.146	12552.51
652.339	12702.01
652.531	12552.51
652.724	12280.13
652.916	12257.6
653.109	12147.01
653.301	12194.12
653.494	12118.34
653.686	12028.23
653.879	12153.16
654.071	12028.23
654.263	11784.52
654.456	11766.09
654.648	11864.39
654.84	11739.47
655.033	11594.06
655.225	11522.38
655.417	11295.06
655.61	11465.04
655.802	11493.71
655.994	11319.64
656.186	11465.04
656.379	10944.86
656.571	11127.13
656.763	11049.3
656.955	10971.48
657.148	10989.91
657.34	10903.9
657.532	10893.66
657.724	10817.88
657.916	10797.4
658.108	10695
658.3	10420.58
658.492	10647.9
658.684	10330.47
658.876	10299.75
659.068	10424.67
659.26	10361.19
659.452	10213.73
659.644	10221.92
659.836	10195.3
660.028	10223.97
660.22	10021.22
660.412	10000.74
660.604	9910.63
660.796	9752.94
660.988	9879.91
661.18	9646.44
661.372	9605.49
661.563	9609.58
661.755	9548.14
661.947	9605.49
662.139	9501.04
662.331	9255.28
662.522	9421.17
662.714	9380.21
662.906	9367.92
663.097	9275.76
663.289	9294.19
663.481	9036.15
663.673	9085.3
663.864	8853.88
664.056	9046.39
664.247	8964.47
664.439	8843.64
664.631	8927.61
664.822	8751.48
665.014	8677.76
665.205	8612.22
665.397	8540.54
665.588	8548.73
665.78	8542.59
665.971	8397.18
666.163	8507.77
666.354	8376.7
666.546	8116.61
666.737	8069.51
666.929	8233.35
667.12	8292.74
667.311	8194.43
667.503	8126.85
667.694	8133
667.885	7920.01
668.077	8085.89
668.268	7811.46
668.459	7942.53
668.651	7870.86
668.842	7852.42
669.033	7911.82
669.224	7561.61
669.416	7934.34
669.607	7772.55
669.798	7547.28
669.989	7704.97
670.18	7614.86
670.371	7707.02
670.563	7432.59
670.754	7631.24
670.945	7446.93
671.136	7545.23
671.327	7469.45
671.518	7412.11
671.709	7319.95
671.9	7412.11
672.091	7393.68
672.282	7262.61
672.473	7098.77
672.664	7127.44
672.855	7049.62
673.046	7117.2
673.237	7176.59
673.428	6902.17
673.619	6914.45
673.809	6951.32
674	7012.76
674.191	7039.38
674.382	6926.74
674.573	6877.59
674.764	6762.9
674.954	7053.72
675.145	6740.38
675.336	6789.53
675.527	6709.66
675.717	6846.87
675.908	6814.1
676.099	6775.19
676.289	6861.21
676.48	6764.95
676.671	6496.67
676.861	6717.85
677.052	6459.81
677.243	6543.77
677.433	6390.17
677.624	6519.2
677.814	6523.29
678.005	6515.1
678.195	6543.77
678.386	6527.39
678.576	6304.16
678.767	6549.92
678.957	6390.17
679.148	6463.9
679.338	6326.69
679.529	6408.61
679.719	6451.61
679.909	6332.83
680.1	6404.51
680.29	6320.54
680.481	6255.01
680.671	6435.23
680.861	6300.06
681.052	6420.89
681.242	6279.58
681.432	6330.78
681.622	6334.88
681.813	6316.45
682.003	5988.77
682.193	6205.86
682.383	6377.89
682.573	5923.24
682.764	6193.57
682.954	6269.34
683.144	6099.36
683.334	6162.85
683.524	6207.91
683.714	6142.37
683.904	6082.98
684.094	6150.56
684.284	6052.26
684.474	6259.1
684.664	6074.79
684.854	6111.65
685.044	6052.26
685.234	6072.74
685.424	5933.48
685.614	6042.02
685.804	5945.77
685.994	5788.07
686.184	5878.18
686.374	5970.34
686.564	5939.62
686.753	5833.13
686.943	5792.17
687.133	5702.06
687.323	5702.06
687.513	5904.81
687.702	5812.65
687.892	5757.35
688.082	5892.52
688.272	5786.02
688.461	5659.05
688.651	5728.68
688.841	5683.63
689.03	5583.27
689.22	5837.22
689.41	5669.29
689.599	5566.89
689.789	5530.03
689.979	5630.38
690.168	5489.07
690.358	5458.35
690.547	5583.27
690.737	5482.92
690.926	5566.89
691.116	5503.4
691.305	5501.36
691.495	5368.24
691.684	5368.24
691.874	5515.69
692.063	5491.12
692.252	5358
692.442	5394.86
692.631	5271.98
692.82	5145.01
693.01	5394.86
693.199	5362.09
693.388	5226.93
693.578	5347.76
693.767	5325.23
693.956	5231.02
694.146	5210.54
694.335	4979.12
694.524	5099.95
694.713	5259.7
694.902	5276.08
695.092	5208.5
695.281	5233.07
695.47	5075.38
695.659	4911.54
695.848	4968.88
696.037	5009.84
696.226	5013.94
696.415	5026.23
696.604	5091.76
696.793	5046.71
696.982	4925.88
697.171	4903.35
697.36	5036.47
697.549	4837.81
697.738	4964.79
697.927	4915.64
698.116	4839.86
698.305	4913.59
698.494	4846.01
698.683	5028.28
698.872	4823.48
699.061	4811.19
699.25	4780.47
699.438	4727.22
699.627	4862.39
699.816	4852.15
700.005	4927.92
700.193	4618.68
700.382	4700.6
700.571	4643.26
700.76	4698.55
700.948	4602.3
701.137	4698.55
701.326	4667.83
701.514	4561.34
701.703	4624.83
701.892	4585.91
702.08	4731.32
702.269	4616.63
702.457	4530.62
702.646	4610.49
702.834	4551.1
703.023	4575.67
703.212	4577.72
703.4	4567.48
703.589	4426.17
703.777	4600.25
703.965	4444.6
704.154	4571.58
704.342	4430.27
704.531	4420.03
704.719	4383.17
704.907	4262.33
705.096	4180.42
705.284	4411.84
705.472	4338.11
705.661	4405.69
705.849	4417.98
706.037	4356.54
706.226	4487.61
706.414	4229.57
706.602	4223.42
706.79	4293.05
706.979	4342.21
707.167	4180.42
707.355	4293.05
707.543	4323.77
707.731	4143.55
707.919	4204.99
708.107	4100.55
708.296	4161.98
708.484	4047.3
708.672	4133.31
708.86	4151.74
709.048	4204.99
709.236	4043.2
709.424	4239.81
709.612	4178.37
709.8	4049.35
709.988	3961.28
710.176	3965.38
710.364	4166.08
710.551	4037.06
710.739	4014.53
710.927	3998.15
711.115	4075.97
711.303	4006.34
711.491	4006.34
711.679	3916.23
711.866	3858.89
712.054	3938.76
712.242	3928.52
712.43	3932.61
712.617	3699.14
712.805	3901.89
712.993	3834.31
713.181	3832.26
713.368	3809.73
713.556	3852.74
713.744	3627.46
713.931	3893.7
714.119	3684.81
714.306	3793.35
714.494	3723.72
714.682	3764.68
714.869	3725.77
715.057	3721.67
715.244	3764.68
715.432	3879.36
715.619	3596.75
715.807	3725.77
715.994	3649.99
716.182	3676.62
716.369	3699.14
716.556	3652.04
716.744	3643.85
716.931	3480.01
717.119	3561.93
717.306	3541.45
717.493	3486.15
717.681	3535.31
717.868	3549.64
718.055	3518.92
718.242	3371.47
718.43	3658.18
718.617	3551.69
718.804	3504.59
718.991	3367.37
719.179	3322.32
719.366	3391.95
719.553	3475.91
719.74	3383.76
719.927	3338.7
720.114	3365.32
720.301	3291.6
720.488	3363.28
720.676	3326.41
720.863	3420.62
721.05	3371.47
721.237	3189.2
721.424	3480.01
721.611	3326.41
721.798	3277.26
721.985	3254.73
722.172	3187.15
722.358	3299.79
722.545	3326.41
722.732	3279.31
722.919	3324.37
723.106	3199.44
723.293	3228.11
723.48	3262.93
723.667	3135.95
723.853	3092.94
724.04	3254.73
724.227	3142.1
724.414	3185.1
724.6	3076.56
724.787	3199.44
724.974	3183.06
725.161	3064.27
725.347	3027.41
725.534	3047.89
725.72	3015.12
725.907	3054.03
726.094	3068.37
726.28	3088.85
726.467	3049.94
726.653	3013.07
726.84	3006.93
727.027	3068.37
727.213	2968.02
727.4	3150.29
727.586	3080.66
727.773	3021.27
727.959	2884.05
728.145	2963.92
728.332	2789.85
728.518	2931.16
728.705	3084.75
728.891	2851.28
729.077	2978.26
729.264	2834.9
729.45	2896.34
729.636	3019.22
729.823	2789.85
730.009	3031.51
730.195	2882
730.382	2980.31
730.568	2814.42
730.754	2847.19
730.94	2951.63
731.126	2775.51
731.313	2830.8
731.499	2773.46
731.685	2869.72
731.871	2806.23
732.057	2789.85
732.243	2775.51
732.429	2941.4
732.615	2755.03
732.801	2642.39
732.987	2701.78
733.173	2775.51
733.359	2707.93
733.545	2675.16
733.731	2572.76
733.917	2757.08
734.103	2542.04
734.289	2724.31
734.475	2650.58
734.661	2769.37
734.847	2707.93
735.033	2679.26
735.219	2791.89
735.404	2759.13
735.59	2759.13
735.776	2603.48
735.962	2671.06
736.148	2544.09
736.333	2709.97
736.519	2613.72
736.705	2652.63
736.89	2560.47
737.076	2619.86
737.262	2535.9
737.447	2503.13
737.633	2552.28
737.819	2404.83
738.004	2496.99
738.19	2642.39
738.375	2601.43
738.561	2580.95
738.747	2474.46
738.932	2384.35
739.118	2486.75
739.303	2679.26
739.489	2511.32
739.674	2400.73
739.859	2353.63
740.045	2439.64
740.23	2453.98
740.416	2339.29
740.601	2421.21
740.786	2462.17
740.972	2413.02
741.157	2374.11
741.342	2335.2
741.528	2290.14
741.713	2413.02
741.898	2347.48
742.084	2208.22
742.269	2347.48
742.454	2275.81
742.639	2466.27
742.824	2251.23
743.01	2431.45
743.195	2294.24
743.38	2363.87
743.565	2234.85
743.75	2251.23
743.935	2208.22
744.12	2175.45
744.305	2167.26
744.49	2208.22
744.675	2210.27
744.86	2277.85
745.045	2265.57
745.23	2236.89
745.415	2105.82
745.6	2150.88
745.785	2046.43
745.97	2058.72
746.155	2140.64
746.34	2216.41
746.525	2040.29
746.71	2028
746.895	2134.5
747.079	2038.24
747.264	2007.52
747.449	2044.38
747.634	2101.73
747.819	2138.59
748.003	2003.43
748.188	1987.04
748.373	1966.56
748.557	1941.99
748.742	1874.4
748.927	1898.98
749.111	1817.06
749.296	1874.4
749.481	1851.88
749.665	1888.74
749.85	1843.68
750.034	1888.74
750.219	1761.77
750.404	1776.1
750.588	1843.68
750.773	1847.78
750.957	1827.3
751.141	1704.42
751.326	1718.76
751.51	1708.52
751.695	1751.53
751.879	1688.04
752.064	1749.48
752.248	1685.99
752.432	1735.14
752.617	1767.91
752.801	1737.19
752.985	1606.12
753.17	1602.02
753.354	1403.37
753.538	1563.11
753.722	1665.51
753.907	1634.79
754.091	1536.49
754.275	1563.11
754.459	1452.52
754.643	1511.91
754.828	1495.53
755.012	1530.34
755.196	1524.2
755.38	1532.39
755.564	1544.68
755.748	1448.43
755.932	1464.81
756.116	1460.71
756.3	1470.95
756.484	1348.08
756.668	1397.23
756.852	1339.88
757.036	1413.61
757.22	1427.95
757.404	1389.03
757.588	1425.9
757.772	1362.41
757.956	1429.99
758.14	1323.5
758.323	1327.6
758.507	1380.84
758.691	1323.5
758.875	1294.83
759.059	1231.34
759.242	1374.7
759.426	1339.88
759.61	1325.55
759.794	1270.25
759.977	1233.39
760.161	1315.31
760.345	1315.31
760.528	1229.29
760.712	1245.68
760.895	1217.01
761.079	1290.73
761.263	1266.16
761.446	1133.04
761.63	1210.86
761.813	1167.85
761.997	1077.74
762.18	1217.01
762.364	1102.32
762.547	1143.28
762.731	1171.95
762.914	1110.51
763.098	1225.2
763.281	1067.5
763.464	1206.77
763.648	1098.22
763.831	1180.14
764.015	1157.61
764.198	1112.56
764.381	1069.55
764.564	1192.43
764.748	1157.61
764.931	1135.09
765.114	1053.17
765.297	1008.11
765.481	987.63
765.664	1153.52
765.847	979.44
766.03	1124.85
766.213	1049.07
766.397	1126.89
766.58	1096.18
766.763	1120.75
766.946	1044.98
767.129	1028.59
767.312	1040.88
767.495	1030.64
767.678	979.44
767.861	1020.4
768.044	1036.78
768.227	1036.78
768.41	1030.64
768.593	1057.26
768.776	1006.06
768.959	926.19
769.142	1063.41
769.324	952.82
769.507	1014.26
769.69	1036.78
769.873	907.76
770.056	1087.98
770.239	963.06
770.421	1100.27
770.604	1018.35
770.787	973.3
770.97	967.15
771.152	883.19
771.335	913.91
771.518	938.48
771.7	995.82
771.883	926.19
772.066	870.9
772.248	971.25
772.431	950.77
772.613	981.49
772.796	942.58
772.978	971.25
773.161	895.47
773.343	936.43
773.526	799.22
773.708	848.37
773.891	801.27
774.073	842.23
774.256	776.69
774.438	905.71
774.621	786.93
774.803	889.33
774.985	834.04
775.168	915.95
775.35	791.03
775.532	801.27
775.715	846.32
775.897	791.03
776.079	770.55
776.261	737.78
776.444	856.56
776.626	750.07
776.808	729.59
776.99	694.77
777.173	674.29
777.355	799.22
777.537	678.39
777.719	791.03
777.901	692.73
778.083	768.5
778.265	764.4
778.447	717.3
778.629	655.86
778.811	793.08
778.993	741.88
779.175	774.64
779.357	766.45
779.539	666.1
779.721	596.47
779.903	700.92
780.085	637.43
780.267	655.86
780.449	700.92
780.631	698.87
780.812	711.16
780.994	637.43
781.176	629.24
781.358	623.09
781.54	668.15
781.721	573.94
781.903	621.05
782.085	602.61
782.267	629.24
782.448	627.19
782.63	606.71
782.812	561.66
782.993	610.81
783.175	582.14
783.357	619
783.538	528.89
783.72	537.08
783.901	598.52
784.083	522.74
784.264	590.33
784.446	563.7
784.627	487.93
784.809	602.61
784.99	586.23
785.172	547.32
785.353	567.8
785.535	559.61
785.716	565.75
785.897	449.02
786.079	524.79
786.26	459.26
786.441	584.18
786.623	479.74
786.804	432.63
786.985	508.41
787.167	563.7
787.348	430.59
787.529	469.5
787.71	545.27
787.891	420.35
788.073	334.33
788.254	473.59
788.435	502.26
788.616	467.45
788.797	385.53
788.978	489.98
789.159	485.88
789.34	434.68
789.522	479.74
789.703	479.74
789.884	426.49
790.065	408.06
790.246	479.74
790.427	416.25
790.607	442.87
790.788	434.68
790.969	410.11
791.15	352.76
791.331	352.76
791.512	375.29
791.693	438.78
791.874	420.35
792.054	397.82
792.235	408.06
792.416	352.76
792.597	324.09
792.778	446.97
792.958	410.11
793.139	350.71
793.32	432.63
793.5	342.52
793.681	342.52
793.862	383.48
794.042	373.24
794.223	332.28
794.404	399.87
794.584	307.71
794.765	332.28
794.945	377.34
795.126	287.23
795.306	309.76
795.487	399.87
795.667	289.28
795.848	307.71
796.028	283.13
796.209	307.71
796.389	324.09
796.57	324.09
796.75	276.99
796.93	365.05
797.111	242.17
797.291	274.94
797.471	363
797.652	324.09
797.832	301.56
798.012	307.71
798.192	309.76
798.373	299.52
798.553	301.56
798.733	363
798.913	279.04
799.093	293.37
799.274	373.24
799.454	328.19
799.634	229.88
799.814	301.56
799.994	320
800.174	276.99
800.354	262.65
800.534	262.65
800.714	248.32
800.894	176.64
801.074	195.07
801.254	266.75
801.434	307.71
801.614	211.45
801.794	209.4
801.974	999.92
802.154	303.61
802.334	281.08
802.514	195.07
802.693	344.57
802.873	315.9
803.053	233.98
803.233	242.17
803.413	258.56
803.592	227.84
803.772	225.79
803.952	186.88
804.131	258.56
804.311	242.17
804.491	250.36
804.67	246.27
804.85	186.88
805.03	215.55
805.209	229.88
805.389	197.12
805.568	168.45
805.748	209.4
805.928	279.04
806.107	211.45
806.287	211.45
806.466	295.42
806.646	229.88
806.825	274.94
807.004	160.25
807.184	143.87
807.363	211.45
807.543	242.17
807.722	291.32
807.901	248.32
808.081	276.99
808.26	176.64
808.439	274.94
808.619	186.88
808.798	252.41
808.977	223.74
809.156	223.74
809.336	180.73
809.515	258.56
809.694	215.55
809.873	219.64
810.052	139.77
810.231	250.36
810.411	248.32
810.59	217.6
810.769	172.54
810.948	147.97
811.127	172.54
811.306	107.01
811.485	131.58
811.664	164.35
811.843	168.45
812.022	137.73
812.201	168.45
812.38	162.3
812.559	209.4
812.737	125.44
812.916	82.43
813.095	172.54
813.274	186.88
813.453	141.82
813.632	197.12
813.811	203.26
813.989	119.29
814.168	184.83
814.347	127.49
814.526	131.58
814.704	193.02
814.883	225.79
815.062	172.54
815.24	260.6
815.419	127.49
815.598	242.17
815.776	84.48
815.955	115.2
816.133	86.53
816.312	135.68
816.49	150.01
816.669	135.68
816.847	49.66
817.026	213.5
817.204	141.82
817.383	152.06
817.561	129.53
817.74	184.83
817.918	162.3
818.097	195.07
818.275	102.91
818.453	154.11
818.632	264.7
818.81	96.77
818.988	92.67
819.167	107.01
819.345	143.87
819.523	147.97
819.701	135.68
819.879	119.29
820.058	190.97
820.236	131.58
820.414	47.62
820.592	137.73
820.77	178.69
820.948	141.82
821.127	143.87
821.305	90.62
821.483	90.62
821.661	203.26
821.839	78.33
822.017	168.45
822.195	23.04
822.373	170.49
822.551	180.73
822.729	217.6
822.907	92.67
823.085	160.25
823.262	119.29
823.44	119.29
823.618	119.29
823.796	168.45
823.974	127.49
824.152	117.25
824.329	104.96
824.507	129.53
824.685	135.68
824.863	152.06
825.04	162.3
825.218	184.83
825.396	84.48
825.574	121.34
825.751	137.73
825.929	199.16
826.107	102.91
826.284	160.25
826.462	53.76
826.639	72.19
826.817	45.57
826.994	94.72
827.172	123.39
827.349	102.91
827.527	115.2
827.704	127.49
827.882	143.87
828.059	127.49
828.237	53.76
828.414	135.68
828.591	78.33
828.769	109.05
828.946	88.57
829.124	121.34
829.301	84.48
829.478	135.68
829.655	203.26
829.833	86.53
830.01	70.14
830.187	107.01
830.364	64
830.542	113.15
830.719	94.72
830.896	111.1
831.073	72.19
831.25	113.15
831.427	29.18
831.604	107.01
831.782	176.64
831.959	35.33
832.136	94.72
832.313	84.48
832.49	-1.54
832.667	176.64
832.844	70.14
833.021	129.53
833.198	61.95
833.374	45.57
833.551	61.95
833.728	127.49
833.905	64
834.082	-3.58
834.259	66.05
834.436	123.39
834.612	70.14
834.789	100.86
834.966	78.33
835.143	88.57
835.319	-9.73
835.496	70.14
835.673	49.66
835.85	147.97
836.026	127.49
836.203	78.33
836.38	90.62
836.556	80.38
836.733	16.9
836.909	41.47
837.086	-1.54
837.262	70.14
837.439	98.81
837.616	53.76
837.792	-9.73
837.968	90.62
838.145	-17.92
838.321	74.24
838.498	53.76
838.674	16.9
838.851	76.29
839.027	18.94
839.203	70.14
839.38	166.4
839.556	-17.92
839.732	43.52
839.909	86.53
840.085	121.34
840.261	57.86
840.437	25.09
840.614	61.95
840.79	76.29
840.966	72.19
841.142	45.57
841.318	74.24
841.494	129.53
841.671	57.86
841.847	-3.58
842.023	8.7
842.199	76.29
842.375	94.72
842.551	37.38
842.727	-44.54
842.903	37.38
843.079	6.66
843.255	37.38
843.431	86.53
843.607	-11.78
843.783	18.94
843.959	45.57
844.134	80.38
844.31	154.11
844.486	0.51
844.662	49.66
844.838	27.14
845.013	86.53
845.189	16.9
845.365	53.76
845.541	131.58
845.716	29.18
845.892	49.66
846.068	27.14
846.244	47.62
846.419	64
846.595	16.9
846.77	45.57
846.946	74.24
847.122	86.53
847.297	115.2
847.473	61.95
847.648	41.47
847.824	47.62
847.999	-44.54
848.175	37.38
848.35	45.57
848.526	96.77
848.701	-3.58
848.876	64
849.052	111.1
849.227	98.81
849.403	29.18
849.578	2.56
849.753	68.09
849.929	86.53
850.104	57.86
850.279	45.57
850.454	12.8
850.63	172.54
850.805	61.95
850.98	-3.58
851.155	86.53
851.33	84.48
851.505	8.7
851.681	141.82
851.856	37.38
852.031	55.81
852.206	70.14
852.381	94.72
852.556	27.14
852.731	72.19
852.906	18.94
853.081	37.38
853.256	57.86
853.431	59.9
853.606	37.38
853.781	-52.74
853.956	-5.63
854.131	37.38
854.305	27.14
854.48	86.53
854.655	49.66
854.83	12.8
855.005	20.99
855.18	74.24
855.354	-54.78
855.529	43.52
855.704	20.99
855.879	57.86
856.053	74.24
856.228	70.14
856.403	-36.35
856.577	23.04
856.752	-44.54
856.926	4.61
857.101	-48.64
857.276	25.09
857.45	-17.92
857.625	96.77
857.799	8.7
857.974	70.14
858.148	20.99
858.323	37.38
858.497	-19.97
858.672	-36.35
858.846	53.76
859.02	102.91
859.195	-3.58
859.369	115.2
859.543	47.62
859.718	31.23
859.892	70.14
860.066	-11.78
860.241	-9.73
860.415	-9.73
860.589	43.52
860.763	37.38
860.938	-42.5
861.112	25.09
861.286	66.05
861.46	39.42
861.634	27.14
861.808	98.81
861.982	39.42
862.157	20.99
862.331	61.95
862.505	12.8
862.679	-11.78
862.853	-5.63
863.027	35.33
863.201	86.53
863.375	66.05
863.549	33.28
863.722	53.76
863.896	129.53
864.07	-69.12
864.244	-7.68
864.418	84.48
864.592	31.23
864.766	-15.87
864.939	37.38
865.113	29.18
865.287	88.57
865.461	-28.16
865.634	10.75
865.808	-7.68
865.982	29.18
866.156	-17.92
866.329	88.57
866.503	31.23
866.676	66.05
866.85	-3.58
867.024	-3.58
867.197	72.19
867.371	88.57
867.544	4.61
867.718	-19.97
867.891	82.43
868.065	-42.5
868.238	-1.54
868.412	12.8
868.585	12.8
868.759	-19.97
868.932	-7.68
869.105	8.7
869.279	29.18
869.452	57.86
869.625	18.94
869.799	53.76
869.972	-32.26
870.145	-28.16
870.319	78.33
870.492	20.99
870.665	14.85
870.838	49.66
871.011	-19.97
871.185	-28.16
871.358	-36.35
871.531	100.86
871.704	-24.06
871.877	98.81
872.05	-36.35
872.223	39.42
872.396	23.04
872.569	98.81
872.742	-46.59
872.915	25.09
873.088	4.61
873.261	10.75
873.434	29.18
873.607	16.9
873.78	49.66
873.953	-28.16
874.126	-65.02
874.299	6.66
874.471	4.61
874.644	-1.54
874.817	-24.06
874.99	94.72
875.163	-15.87
875.335	23.04
875.508	-44.54
875.681	74.24
875.853	0.51
876.026	-3.58
876.199	-15.87
876.371	-42.5
876.544	-17.92
876.717	6.66
876.889	29.18
877.062	18.94
877.234	-19.97
877.407	37.38
877.579	-24.06
877.752	51.71
877.924	94.72
878.097	-11.78
878.269	6.66
878.442	29.18
878.614	61.95
878.786	102.91
878.959	-19.97
879.131	-50.69
879.303	-46.59
879.476	-19.97
879.648	94.72
879.82	23.04
879.993	-44.54
880.165	41.47
880.337	-19.97
880.509	78.33
880.681	41.47
880.854	-44.54
881.026	31.23
881.198	45.57
881.37	14.85
881.542	-7.68
881.714	10.75
881.886	27.14
882.058	-50.69
882.23	49.66
882.402	0.51
882.574	12.8
882.746	20.99
882.918	33.28
883.09	90.62
883.262	25.09
883.434	20.99
883.606	-19.97
883.778	39.42
883.95	88.57
884.122	10.75
884.293	49.66
884.465	23.04
884.637	39.42
884.809	-1.54
884.98	33.28
885.152	64
885.324	8.7
885.496	-19.97
885.667	-11.78
885.839	14.85
886.011	59.9
886.182	-11.78
886.354	6.66
886.525	98.81
886.697	-7.68
886.869	16.9
887.04	29.18
887.212	0.51
887.383	131.58
887.555	-28.16
887.726	-9.73
887.897	-9.73
888.069	-19.97
888.24	70.14
888.412	47.62
888.583	-52.74
888.754	6.66
888.926	-52.74
889.097	8.7
889.268	20.99
889.44	74.24
889.611	-77.31
889.782	39.42
889.953	-40.45
890.125	12.8
890.296	29.18
890.467	-83.45
890.638	-34.3
890.809	53.76
890.98	-7.68
891.151	39.42
891.323	4.61
891.494	35.33
891.665	-19.97
891.836	-73.21
892.007	102.91
892.178	-3.58
892.349	-3.58
892.52	2.56
892.691	43.52
892.862	31.23
893.032	12.8
893.203	-38.4
893.374	33.28
893.545	37.38
893.716	-3.58
893.887	59.9
894.057	-19.97
894.228	-17.92
894.399	-11.78
894.57	145.92
894.74	-101.89
894.911	-3.58
895.082	-38.4
895.253	82.43
895.423	45.57
895.594	66.05
895.764	-17.92
895.935	-50.69
896.106	-36.35
896.276	-36.35
896.447	-15.87
896.617	-19.97
896.788	-17.92
896.958	39.42
897.129	-17.92
897.299	-56.83
897.47	41.47
897.64	-52.74
897.81	37.38
897.981	-15.87
898.151	-15.87
898.322	37.38
898.492	-1.54
898.662	-30.21
898.832	-87.55
899.003	-3.58
899.173	78.33
899.343	-87.55
899.513	-13.82
