Data from USB4F104151__220__14-33-53-265.txt Node

Date: Thu Mar 13 14:33:53 EDT 2025
User: louis
Spectrometer: USB4F10415
Trigger mode: 4
Integration Time (sec): 2.500000E-2
Scans to average: 1
Electric dark correction enabled: true
Nonlinearity correction enabled: false
Boxcar width: 0
XAxis mode: Wavelengths
Number of Pixels in Spectrum: 3648
>>>>>Begin Spectral Data<<<<<
178.204	-173.39
178.424	-173.39
178.644	-173.39
178.864	-120.15
179.084	-157.01
179.304	47.79
179.524	-79.19
179.744	-52.56
179.964	35.5
180.184	-42.32
180.404	35.5
180.624	70.31
180.844	23.21
181.064	-54.61
181.283	21.16
181.503	43.69
181.723	-48.47
181.943	-144.72
182.163	125.61
182.383	29.35
182.602	0.68
182.822	152.23
183.042	80.55
183.262	6.83
183.482	4.78
183.701	4.78
183.921	31.4
184.141	2.73
184.361	21.16
184.58	55.98
184.8	-62.8
185.02	84.65
185.239	23.21
185.459	-58.71
185.679	19.11
185.898	60.07
186.118	23.21
186.338	76.46
186.557	-9.56
186.777	31.4
186.997	127.66
187.216	4.78
187.436	70.31
187.655	92.84
187.875	43.69
188.095	68.27
188.314	101.03
188.534	60.07
188.753	21.16
188.973	-13.65
189.192	94.89
189.412	86.7
189.631	72.36
189.851	33.45
190.07	84.65
190.29	96.94
190.509	-5.46
190.729	35.5
190.948	70.31
191.168	92.84
191.387	94.89
191.607	-46.42
191.826	-11.61
192.045	37.55
192.265	37.55
192.484	-19.8
192.704	31.4
192.923	55.98
193.142	129.7
193.362	-7.51
193.581	31.4
193.8	88.75
194.02	60.07
194.239	80.55
194.458	10.92
194.678	103.08
194.897	113.32
195.116	4.78
195.335	55.98
195.555	51.88
195.774	45.74
195.993	21.16
196.212	21.16
196.432	8.87
196.651	35.5
196.87	-17.75
197.089	58.03
197.308	107.18
197.528	76.46
197.747	2.73
197.966	19.11
198.185	51.88
198.404	-40.28
198.623	80.55
198.842	123.56
199.062	43.69
199.281	115.37
199.5	53.93
199.719	101.03
199.938	70.31
200.157	35.5
200.376	70.31
200.595	111.27
200.814	-30.04
201.033	19.11
201.252	49.83
201.471	2.73
201.69	101.03
201.909	43.69
202.128	27.31
202.347	60.07
202.566	35.5
202.785	27.31
203.004	0.68
203.223	76.46
203.442	60.07
203.661	35.5
203.879	92.84
204.098	27.31
204.317	53.93
204.536	111.27
204.755	55.98
204.974	109.22
205.193	-38.23
205.411	74.41
205.63	78.51
205.849	39.59
206.068	125.61
206.287	-11.61
206.505	121.51
206.724	6.83
206.943	19.11
207.162	4.78
207.381	60.07
207.599	72.36
207.818	43.69
208.037	55.98
208.255	60.07
208.474	53.93
208.693	-21.85
208.911	68.27
209.13	45.74
209.349	125.61
209.567	-3.41
209.786	72.36
210.005	82.6
210.223	60.07
210.442	29.35
210.661	62.12
210.879	31.4
211.098	2.73
211.316	68.27
211.535	115.37
211.753	27.31
211.972	47.79
212.191	-46.42
212.409	55.98
212.628	49.83
212.846	10.92
213.065	51.88
213.283	-13.65
213.502	6.83
213.72	29.35
213.938	6.83
214.157	-1.37
214.375	117.42
214.594	-30.04
214.812	-32.08
215.031	62.12
215.249	33.45
215.467	62.12
215.686	80.55
215.904	43.69
216.122	35.5
216.341	51.88
216.559	55.98
216.778	43.69
216.996	-32.08
217.214	2.73
217.432	47.79
217.651	27.31
217.869	72.36
218.087	39.59
218.306	39.59
218.524	43.69
218.742	53.93
218.96	68.27
219.179	113.32
219.397	21.16
219.615	15.02
219.833	68.27
220.051	-54.61
220.27	55.98
220.488	60.07
220.706	35.5
220.924	-77.14
221.142	6.83
221.36	86.7
221.578	76.46
221.796	86.7
222.015	80.55
222.233	51.88
222.451	70.31
222.669	-44.37
222.887	62.12
223.105	-36.18
223.323	43.69
223.541	-56.66
223.759	2.73
223.977	27.31
224.195	92.84
224.413	23.21
224.631	146.09
224.849	-34.13
225.067	115.37
225.285	62.12
225.503	66.22
225.721	-27.99
225.939	96.94
226.157	43.69
226.375	121.51
226.592	55.98
226.81	-11.61
227.028	117.42
227.246	88.75
227.464	45.74
227.682	166.57
227.9	60.07
228.117	150.18
228.335	43.69
228.553	21.16
228.771	25.26
228.989	43.69
229.206	78.51
229.424	74.41
229.642	39.59
229.86	10.92
230.077	37.55
230.295	31.4
230.513	84.65
230.731	80.55
230.948	109.22
231.166	-17.75
231.384	49.83
231.601	82.6
231.819	109.22
232.037	51.88
232.254	19.11
232.472	27.31
232.689	-5.46
232.907	105.13
233.125	101.03
233.342	43.69
233.56	103.08
233.777	62.12
233.995	55.98
234.213	55.98
234.43	19.11
234.648	86.7
234.865	-36.18
235.083	113.32
235.3	68.27
235.518	43.69
235.735	76.46
235.953	109.22
236.17	23.21
236.388	23.21
236.605	19.11
236.822	101.03
237.04	27.31
237.257	27.31
237.475	15.02
237.692	35.5
237.909	68.27
238.127	35.5
238.344	29.35
238.562	49.83
238.779	-46.42
238.996	-11.61
239.214	113.32
239.431	133.8
239.648	-5.46
239.865	25.26
240.083	45.74
240.3	111.27
240.517	29.35
240.735	17.07
240.952	86.7
241.169	19.11
241.386	72.36
241.603	49.83
241.821	-54.61
242.038	45.74
242.255	74.41
242.472	-30.04
242.689	82.6
242.907	92.84
243.124	10.92
243.341	-21.85
243.558	-30.04
243.775	-11.61
243.992	-5.46
244.209	94.89
244.426	55.98
244.643	12.97
244.86	33.45
245.078	84.65
245.295	47.79
245.512	43.69
245.729	49.83
245.946	76.46
246.163	-17.75
246.38	53.93
246.597	43.69
246.814	23.21
247.031	66.22
247.248	76.46
247.464	37.55
247.681	68.27
247.898	51.88
248.115	43.69
248.332	-9.56
248.549	150.18
248.766	92.84
248.983	37.55
249.2	96.94
249.417	43.69
249.633	-13.65
249.85	64.17
250.067	8.87
250.284	62.12
250.501	72.36
250.717	68.27
250.934	23.21
251.151	92.84
251.368	-13.65
251.585	-9.56
251.801	60.07
252.018	12.97
252.235	88.75
252.451	2.73
252.668	39.59
252.885	113.32
253.102	35.5
253.318	62.12
253.535	80.55
253.752	80.55
253.968	27.31
254.185	23.21
254.401	6.83
254.618	39.59
254.835	-5.46
255.051	127.66
255.268	-27.99
255.484	92.84
255.701	-11.61
255.917	-5.46
256.134	-7.51
256.351	70.31
256.567	-79.19
256.784	113.32
257	-50.52
257.217	51.88
257.433	10.92
257.65	60.07
257.866	70.31
258.082	-48.47
258.299	49.83
258.515	60.07
258.732	19.11
258.948	21.16
259.165	-30.04
259.381	-13.65
259.597	49.83
259.814	-77.14
260.03	55.98
260.246	60.07
260.463	101.03
260.679	137.9
260.895	78.51
261.112	84.65
261.328	15.02
261.544	39.59
261.761	154.28
261.977	53.93
262.193	41.64
262.409	64.17
262.626	92.84
262.842	35.5
263.058	47.79
263.274	35.5
263.49	35.5
263.707	144.04
263.923	123.56
264.139	51.88
264.355	70.31
264.571	27.31
264.787	43.69
265.004	111.27
265.22	43.69
265.436	-44.37
265.652	19.11
265.868	68.27
266.084	68.27
266.3	74.41
266.516	74.41
266.732	10.92
266.948	47.79
267.164	41.64
267.38	-38.23
267.596	23.21
267.812	150.18
268.028	76.46
268.244	43.69
268.46	25.26
268.676	78.51
268.892	53.93
269.108	60.07
269.324	-3.41
269.54	-54.61
269.756	55.98
269.972	55.98
270.188	29.35
270.403	43.69
270.619	4.78
270.835	78.51
271.051	-17.75
271.267	31.4
271.483	12.97
271.698	76.46
271.914	68.27
272.13	84.65
272.346	39.59
272.562	35.5
272.777	76.46
272.993	76.46
273.209	98.99
273.425	62.12
273.64	47.79
273.856	88.75
274.072	-3.41
274.287	72.36
274.503	31.4
274.719	107.18
274.934	31.4
275.15	-13.65
275.366	53.93
275.581	8.87
275.797	27.31
276.012	-5.46
276.228	-58.71
276.444	72.36
276.659	88.75
276.875	-5.46
277.09	-1.37
277.306	39.59
277.521	96.94
277.737	2.73
277.952	80.55
278.168	68.27
278.383	84.65
278.599	70.31
278.814	19.11
279.03	92.84
279.245	43.69
279.461	72.36
279.676	-19.8
279.892	2.73
280.107	6.83
280.322	43.69
280.538	92.84
280.753	29.35
280.969	51.88
281.184	43.69
281.399	121.51
281.615	68.27
281.83	23.21
282.045	-9.56
282.26	113.32
282.476	15.02
282.691	117.42
282.906	72.36
283.122	80.55
283.337	43.69
283.552	27.31
283.767	4.78
283.983	82.6
284.198	51.88
284.413	47.79
284.628	0.68
284.843	76.46
285.058	92.84
285.274	43.69
285.489	-25.94
285.704	68.27
285.919	58.03
286.134	113.32
286.349	39.59
286.564	64.17
286.779	47.79
286.995	70.31
287.21	39.59
287.425	35.5
287.64	90.79
287.855	68.27
288.07	-19.8
288.285	64.17
288.5	70.31
288.715	41.64
288.93	2.73
289.145	33.45
289.36	-19.8
289.575	64.17
289.79	78.51
290.004	17.07
290.219	78.51
290.434	29.35
290.649	29.35
290.864	-11.61
291.079	-11.61
291.294	37.55
291.509	43.69
291.724	17.07
291.938	60.07
292.153	35.5
292.368	-11.61
292.583	47.79
292.798	53.93
293.012	62.12
293.227	41.64
293.442	70.31
293.657	117.42
293.871	37.55
294.086	-15.7
294.301	53.93
294.516	12.97
294.73	4.78
294.945	37.55
295.16	-36.18
295.374	-3.41
295.589	174.76
295.804	19.11
296.018	39.59
296.233	109.22
296.447	51.88
296.662	-5.46
296.877	70.31
297.091	76.46
297.306	12.97
297.52	47.79
297.735	72.36
297.949	27.31
298.164	158.38
298.378	51.88
298.593	35.5
298.807	-50.52
299.022	55.98
299.236	72.36
299.451	-5.46
299.665	23.21
299.88	12.97
300.094	55.98
300.309	43.69
300.523	80.55
300.737	72.36
300.952	2.73
301.166	92.84
301.381	19.11
301.595	19.11
301.809	29.35
302.024	109.22
302.238	117.42
302.452	84.65
302.667	-1.37
302.881	137.9
303.095	64.17
303.309	45.74
303.524	-19.8
303.738	10.92
303.952	35.5
304.166	12.97
304.381	51.88
304.595	125.61
304.809	43.69
305.023	19.11
305.237	96.94
305.452	-3.41
305.666	62.12
305.88	-34.13
306.094	70.31
306.308	98.99
306.522	53.93
306.736	27.31
306.95	84.65
307.164	21.16
307.379	60.07
307.593	133.8
307.807	80.55
308.021	92.84
308.235	90.79
308.449	37.55
308.663	-7.51
308.877	82.6
309.091	17.07
309.305	80.55
309.519	-9.56
309.733	37.55
309.947	96.94
310.161	121.51
310.374	8.87
310.588	43.69
310.802	35.5
311.016	72.36
311.23	62.12
311.444	-17.75
311.658	-5.46
311.872	2.73
312.085	86.7
312.299	47.79
312.513	72.36
312.727	6.83
312.941	-3.41
313.154	92.84
313.368	21.16
313.582	101.03
313.796	27.31
314.009	21.16
314.223	103.08
314.437	84.65
314.651	105.13
314.864	82.6
315.078	2.73
315.292	-1.37
315.505	-25.94
315.719	105.13
315.933	109.22
316.146	76.46
316.36	-23.89
316.573	113.32
316.787	82.6
317.001	49.83
317.214	60.07
317.428	37.55
317.641	-34.13
317.855	51.88
318.068	-15.7
318.282	-17.75
318.495	74.41
318.709	33.45
318.922	51.88
319.136	90.79
319.349	127.66
319.563	125.61
319.776	64.17
319.99	76.46
320.203	72.36
320.417	72.36
320.63	144.04
320.843	131.75
321.057	2.73
321.27	19.11
321.483	35.5
321.697	76.46
321.91	148.14
322.124	62.12
322.337	6.83
322.55	-25.94
322.763	62.12
322.977	64.17
323.19	55.98
323.403	113.32
323.617	19.11
323.83	60.07
324.043	-1.37
324.256	92.84
324.469	19.11
324.683	84.65
324.896	15.02
325.109	51.88
325.322	-44.37
325.535	62.12
325.748	23.21
325.962	96.94
326.175	64.17
326.388	133.8
326.601	58.03
326.814	41.64
327.027	21.16
327.24	39.59
327.453	-44.37
327.666	76.46
327.879	27.31
328.092	109.22
328.305	62.12
328.518	-1.37
328.731	43.69
328.944	68.27
329.157	70.31
329.37	58.03
329.583	68.27
329.796	96.94
330.009	6.83
330.222	60.07
330.435	33.45
330.648	35.5
330.861	96.94
331.073	68.27
331.286	86.7
331.499	15.02
331.712	51.88
331.925	84.65
332.138	74.41
332.35	15.02
332.563	6.83
332.776	64.17
332.989	55.98
333.202	-7.51
333.414	12.97
333.627	33.45
333.84	68.27
334.053	51.88
334.265	68.27
334.478	-7.51
334.691	8.87
334.903	68.27
335.116	39.59
335.329	53.93
335.541	-30.04
335.754	29.35
335.966	-36.18
336.179	15.02
336.392	39.59
336.604	33.45
336.817	101.03
337.029	117.42
337.242	76.46
337.454	45.74
337.667	113.32
337.88	117.42
338.092	60.07
338.305	78.51
338.517	19.11
338.729	154.28
338.942	103.08
339.154	47.79
339.367	29.35
339.579	84.65
339.792	60.07
340.004	84.65
340.217	47.79
340.429	47.79
340.641	-27.99
340.854	119.46
341.066	-9.56
341.278	45.74
341.491	191.14
341.703	74.41
341.915	101.03
342.128	19.11
342.34	10.92
342.552	4.78
342.764	51.88
342.977	-42.32
343.189	19.11
343.401	45.74
343.613	84.65
343.826	105.13
344.038	-17.75
344.25	64.17
344.462	62.12
344.674	64.17
344.886	10.92
345.099	53.93
345.311	68.27
345.523	55.98
345.735	60.07
345.947	92.84
346.159	80.55
346.371	133.8
346.583	29.35
346.795	86.7
347.007	-5.46
347.219	144.04
347.431	70.31
347.643	119.46
347.855	45.74
348.067	174.76
348.279	12.97
348.491	96.94
348.703	62.12
348.915	117.42
349.127	15.02
349.339	103.08
349.551	-38.23
349.763	101.03
349.975	111.27
350.187	53.93
350.399	111.27
350.61	113.32
350.822	35.5
351.034	103.08
351.246	2.73
351.458	43.69
351.669	43.69
351.881	109.22
352.093	27.31
352.305	121.51
352.517	78.51
352.728	86.7
352.94	76.46
353.152	62.12
353.363	68.27
353.575	103.08
353.787	131.75
353.999	76.46
354.21	141.99
354.422	15.02
354.633	86.7
354.845	92.84
355.057	64.17
355.268	-9.56
355.48	94.89
355.692	10.92
355.903	2.73
356.115	133.8
356.326	-1.37
356.538	103.08
356.749	141.99
356.961	96.94
357.172	29.35
357.384	29.35
357.595	176.81
357.807	10.92
358.018	62.12
358.23	78.51
358.441	129.7
358.653	68.27
358.864	68.27
359.075	51.88
359.287	103.08
359.498	146.09
359.709	0.68
359.921	53.93
360.132	115.37
360.344	105.13
360.555	78.51
360.766	152.23
360.977	101.03
361.189	84.65
361.4	76.46
361.611	131.75
361.823	15.02
362.034	45.74
362.245	101.03
362.456	31.4
362.667	37.55
362.879	68.27
363.09	96.94
363.301	35.5
363.512	43.69
363.723	-46.42
363.935	51.88
364.146	80.55
364.357	70.31
364.568	76.46
364.779	-23.89
364.99	23.21
365.201	35.5
365.412	103.08
365.623	10.92
365.834	58.03
366.045	55.98
366.256	92.84
366.467	51.88
366.678	68.27
366.889	45.74
367.1	55.98
367.311	109.22
367.522	51.88
367.733	49.83
367.944	103.08
368.155	92.84
368.366	41.64
368.577	86.7
368.788	119.46
368.999	86.7
369.209	105.13
369.42	182.95
369.631	176.81
369.842	68.27
370.053	47.79
370.264	68.27
370.474	51.88
370.685	125.61
370.896	35.5
371.107	158.38
371.317	113.32
371.528	47.79
371.739	107.18
371.95	84.65
372.16	17.07
372.371	-7.51
372.582	27.31
372.792	35.5
373.003	35.5
373.214	4.78
373.424	-52.56
373.635	29.35
373.846	123.56
374.056	109.22
374.267	43.69
374.477	35.5
374.688	119.46
374.898	103.08
375.109	135.85
375.319	53.93
375.53	29.35
375.74	43.69
375.951	76.46
376.161	47.79
376.372	141.99
376.582	72.36
376.793	117.42
377.003	68.27
377.214	72.36
377.424	29.35
377.635	41.64
377.845	148.14
378.055	60.07
378.266	47.79
378.476	80.55
378.686	68.27
378.897	125.61
379.107	78.51
379.317	19.11
379.528	-3.41
379.738	111.27
379.948	10.92
380.158	88.75
380.369	41.64
380.579	84.65
380.789	92.84
380.999	121.51
381.21	70.31
381.42	92.84
381.63	84.65
381.84	103.08
382.05	-3.41
382.261	109.22
382.471	47.79
382.681	62.12
382.891	98.99
383.101	43.69
383.311	2.73
383.521	62.12
383.731	84.65
383.941	119.46
384.151	90.79
384.361	43.69
384.571	51.88
384.781	66.22
384.991	166.57
385.201	162.47
385.411	109.22
385.621	103.08
385.831	94.89
386.041	158.38
386.251	148.14
386.461	135.85
386.671	58.03
386.881	117.42
387.091	150.18
387.301	158.38
387.511	51.88
387.72	43.69
387.93	133.8
388.14	53.93
388.35	53.93
388.56	41.64
388.769	96.94
388.979	94.89
389.189	27.31
389.399	-17.75
389.609	101.03
389.818	154.28
390.028	31.4
390.238	58.03
390.447	60.07
390.657	12.97
390.867	109.22
391.076	76.46
391.286	92.84
391.496	86.7
391.705	68.27
391.915	150.18
392.125	119.46
392.334	113.32
392.544	207.53
392.753	103.08
392.963	58.03
393.172	29.35
393.382	94.89
393.591	166.57
393.801	51.88
394.01	154.28
394.22	88.75
394.429	123.56
394.639	152.23
394.848	96.94
395.058	137.9
395.267	55.98
395.477	101.03
395.686	168.62
395.895	127.66
396.105	158.38
396.314	131.75
396.524	47.79
396.733	117.42
396.942	211.62
397.152	125.61
397.361	168.62
397.57	43.69
397.78	101.03
397.989	113.32
398.198	217.77
398.407	70.31
398.617	166.57
398.826	158.38
399.035	101.03
399.244	168.62
399.453	174.76
399.663	174.76
399.872	139.94
400.081	154.28
400.29	166.57
400.499	162.47
400.708	160.42
400.917	199.34
401.127	107.18
401.336	117.42
401.545	176.81
401.754	133.8
401.963	211.62
402.172	182.95
402.381	109.22
402.59	129.7
402.799	119.46
403.008	115.37
403.217	160.42
403.426	144.04
403.635	90.79
403.844	162.47
404.053	170.66
404.262	176.81
404.471	258.73
404.68	187.05
404.888	201.38
405.097	182.95
405.306	176.81
405.515	246.44
405.724	199.34
405.933	281.25
406.142	273.06
406.35	252.58
406.559	219.82
406.768	256.68
406.977	299.69
407.185	303.78
407.394	275.11
407.603	279.21
407.812	242.34
408.02	354.98
408.229	346.79
408.438	234.15
408.646	277.16
408.855	332.45
409.064	363.17
409.272	381.6
409.481	391.84
409.69	342.69
409.898	361.13
410.107	441
410.315	412.32
410.524	397.99
410.733	496.29
410.941	387.75
411.15	445.09
411.358	441
411.567	529.06
411.775	473.76
411.984	617.12
412.192	518.82
412.401	578.21
412.609	666.27
412.818	619.17
413.026	717.47
413.234	690.85
413.443	651.94
413.651	686.75
413.86	735.9
414.068	772.77
414.276	887.45
414.485	848.54
414.693	899.74
414.901	1002.14
415.11	1004.19
415.318	850.59
415.526	996
415.734	1108.63
415.943	1032.86
416.151	1241.75
416.359	1075.87
416.567	1108.63
416.776	1239.7
416.984	1333.91
417.192	1227.42
417.4	1358.49
417.608	1303.19
417.817	1389.21
418.025	1526.42
418.233	1559.19
418.441	1417.88
418.649	1575.57
418.857	1723.02
419.065	1796.75
419.273	1673.87
419.481	1854.09
419.689	1903.25
419.897	1993.36
420.105	1944.2
420.313	2075.27
420.521	2112.14
420.729	2216.58
420.937	2259.59
421.145	2361.99
421.353	2388.61
421.561	2534.02
421.769	2599.55
421.977	2681.47
422.185	2798.21
422.393	2839.17
422.601	3046.01
422.809	2935.42
423.017	3099.26
423.224	3148.41
423.432	3349.11
423.64	3349.11
423.848	3578.48
424.056	3570.29
424.263	3742.32
424.471	3738.23
424.679	3777.14
424.887	4065.9
425.094	4151.92
425.302	4131.44
425.51	4393.58
425.718	4502.12
425.925	4481.64
426.133	4704.87
426.341	5032.54
426.548	5065.31
426.756	5220.95
426.964	5419.61
427.171	5565.01
427.379	5818.96
427.586	5919.31
427.794	6034
428.001	6275.66
428.209	6402.63
428.417	6363.72
428.624	6785.6
428.832	6572.61
429.039	6775.36
429.247	6804.03
429.454	7463.48
429.662	7973.42
429.869	7494.2
430.076	8170.03
430.284	7803.44
430.491	8163.89
430.699	8485.42
430.906	8380.97
431.114	8559.14
431.321	9097.76
431.528	9128.48
431.736	9605.66
431.943	10240.53
432.15	9892.37
432.358	9884.18
432.565	10529.29
432.772	10525.19
432.979	10852.87
433.187	11153.92
433.394	11115.01
433.601	11883
433.808	11983.35
434.016	12014.07
434.223	12284.4
434.43	13040.1
434.637	13095.39
434.844	13687.26
435.052	13953.49
435.259	13830.62
435.466	14025.17
435.673	13887.96
435.88	14866.89
436.087	15401.41
436.294	15241.67
436.501	15151.56
436.708	15315.39
436.915	15954.36
437.122	16652.72
437.329	16785.83
437.537	17183.14
437.743	17443.23
437.95	17156.52
438.157	18059.67
438.364	18975.11
438.571	18987.4
438.778	18807.18
438.985	20273.53
439.192	19753.34
439.399	20574.58
439.606	19859.84
439.813	21270.89
440.02	22258.01
440.227	22163.8
440.433	21928.28
440.64	22511.96
440.847	22462.8
441.054	22927.69
441.261	24504.63
441.467	24129.85
441.674	24652.08
441.881	25682.21
442.088	25164.07
442.294	25162.03
442.501	25540.9
442.708	26536.21
442.914	27343.11
443.121	28373.24
443.328	27484.42
443.534	29407.47
443.741	28559.61
443.948	28274.94
444.154	30939.35
444.361	30154.97
444.568	30447.83
444.774	30228.7
444.981	31273.17
445.187	31480.01
445.394	32757.94
445.6	32358.59
445.807	35801.22
446.013	33822.89
446.22	34543.77
446.426	36151.43
446.633	36243.59
446.839	37183.6
447.046	36059.27
447.252	37644.4
447.459	37961.83
447.665	37476.46
447.871	39331.92
448.078	41246.77
448.284	38809.69
448.491	40169.54
448.697	41562.16
448.903	42645.54
449.11	42836
449.316	41973.8
449.522	42883.1
449.728	43560.98
449.935	43943.95
450.141	43845.65
450.347	44996.6
450.553	43563.03
450.76	44404.74
450.966	45578.23
451.172	44877.82
451.378	46100.46
451.584	45137.91
451.791	45840.37
451.997	46241.77
452.203	46669.79
452.409	47071.2
452.615	46532.58
452.821	44806.14
453.027	44038.15
453.233	46710.75
453.44	44750.85
453.646	44910.59
453.852	45441.01
454.058	46262.25
454.264	44961.79
454.47	45797.36
454.676	44795.9
454.882	46053.36
455.088	42278.95
455.294	42950.68
455.5	43300.89
455.705	43481.11
455.911	41893.93
456.117	41451.57
456.323	41175.09
456.529	38674.52
456.735	40810.56
456.941	39098.45
457.147	38486.11
457.352	37544.05
457.558	36806.78
457.764	37419.12
457.97	36190.34
458.176	35645.58
458.381	35393.68
458.587	34168.99
458.793	33996.96
458.999	32409.79
459.204	34306.21
459.41	33312.94
459.616	31193.29
459.821	31080.66
460.027	30974.16
460.233	30355.68
460.438	29118.7
460.644	29522.15
460.85	28125.44
461.055	27425.03
461.261	27529.48
461.466	25446.69
461.672	24543.54
461.878	26327.32
462.083	24893.74
462.289	24316.22
462.494	23939.39
462.7	22759.76
462.905	22563.15
463.111	23077.19
463.316	22921.55
463.522	22669.65
463.727	22792.53
463.932	22829.39
464.138	22458.71
464.343	22597.97
464.549	22098.27
464.754	22501.72
464.959	22446.42
465.165	22516.05
465.37	20965.74
465.575	20568.43
465.781	21547.36
465.986	21547.36
466.191	20924.78
466.397	20595.06
466.602	19534.21
466.807	20185.46
467.012	19999.1
467.218	20087.16
467.423	19710.33
467.628	19908.99
467.833	20861.29
468.038	19534.21
468.244	19364.23
468.449	20019.58
468.654	19675.52
468.859	19171.72
469.064	19206.53
469.269	18487.7
469.474	18405.78
469.679	19159.43
469.885	18207.12
470.09	18702.73
470.295	18471.31
470.5	18198.93
470.705	18346.39
470.91	17949.08
471.115	17510.82
471.32	17924.51
471.525	17873.31
471.73	17455.52
471.935	17402.27
472.139	16615.85
472.344	16908.71
472.549	16740.78
472.754	16452.02
472.959	16026.04
473.164	15813.05
473.369	15796.67
473.574	16495.02
473.778	16130.48
473.983	15903.16
474.188	16124.34
474.393	15129.03
474.598	15393.22
474.802	15385.02
475.007	14954.95
475.212	15026.63
475.417	14285.26
475.621	14395.85
475.826	14301.65
476.031	14121.43
476.235	14059.99
476.44	14182.87
476.645	13785.56
476.849	13984.21
477.054	13537.76
477.259	13605.34
477.463	13687.26
477.668	13089.25
477.872	13169.12
478.077	13109.73
478.282	12831.21
478.486	12933.61
478.691	12708.33
478.895	12757.48
479.1	12552.68
479.304	12478.96
479.509	12177.9
479.713	12423.66
479.918	12188.14
480.122	11979.25
480.326	12184.05
480.531	11993.59
480.735	11989.49
480.94	11889.14
481.144	12190.19
481.348	11508.22
481.553	11866.61
481.757	11678.2
481.961	11813.37
482.166	11827.7
482.37	11735.54
482.574	11571.71
482.778	11510.27
482.983	11747.83
483.187	11741.69
483.391	11549.18
483.595	11670.01
483.8	11674.1
484.004	11665.91
484.208	11768.31
484.412	11708.92
484.616	11569.66
484.821	11610.62
485.025	11627
485.229	11837.94
485.433	11405.82
485.637	11561.47
485.841	11438.59
486.045	11373.05
486.249	11596.28
486.453	11393.53
486.657	11610.62
486.861	11799.03
487.065	11387.39
487.269	11670.01
487.473	11520.51
487.677	11764.22
487.881	11549.18
488.085	11514.36
488.289	11590.14
488.493	11571.71
488.697	11553.27
488.901	11622.91
489.105	11555.32
489.309	11586.04
489.512	11637.24
489.716	11563.51
489.92	11739.64
490.124	11618.81
490.328	12028.4
490.531	11635.19
490.735	11753.98
490.939	11878.9
491.143	11954.68
491.346	11862.52
491.55	11934.2
491.754	11942.39
491.958	11835.89
492.161	11919.86
492.365	12007.92
492.569	11921.91
492.772	11942.39
492.976	12265.97
493.18	12225.01
493.383	12300.78
493.587	12335.6
493.79	12513.77
493.994	12233.2
494.197	12630.51
494.401	12470.76
494.605	12685.8
494.808	12759.53
495.012	12667.37
495.215	12665.32
495.419	13021.67
495.622	13003.24
495.825	13062.63
496.029	13042.15
496.232	13433.31
496.436	13281.76
496.639	13584.86
496.843	13431.26
497.046	13961.69
497.249	14100.95
497.453	14117.33
497.656	14307.79
497.859	14105.04
498.063	14461.39
498.266	14547.4
498.469	14508.49
498.673	14614.99
498.876	14715.34
499.079	14957
499.282	14944.71
499.485	15337.92
499.689	15452.61
499.892	15587.77
500.095	15540.67
500.298	15784.38
500.501	15960.5
500.705	16423.34
500.908	16282.03
501.111	16578.99
501.314	16804.27
501.517	16939.43
501.72	17004.97
501.923	17088.93
502.126	17447.33
502.329	17635.74
502.532	17721.76
502.735	17602.97
502.938	18022.81
503.141	18385.3
503.344	18520.46
503.547	18483.6
503.75	18907.53
503.953	19171.72
504.156	19468.67
504.359	19431.81
504.562	19710.33
504.765	19777.92
504.968	20044.15
505.17	20443.51
505.373	20302.2
505.576	20676.98
505.779	20826.48
505.982	20752.75
506.185	21317.99
506.387	21428.58
506.59	21762.4
506.793	22018.39
506.996	21856.61
507.198	22466.9
507.401	22514
507.604	22774.1
507.807	23198.02
508.009	23087.43
508.212	23281.99
508.415	23669.06
508.617	23734.59
508.82	23886.14
509.022	23980.35
509.225	24570.16
509.428	24828.21
509.63	24805.68
509.833	24924.46
510.035	25674.02
510.238	25469.22
510.44	25852.19
510.643	26143
510.845	26462.49
511.048	26138.91
511.25	26790.16
511.453	26730.77
511.655	27404.55
511.858	27463.94
512.06	27574.53
512.262	27990.27
512.465	28027.13
512.667	28408.06
512.87	28631.29
513.072	28631.29
513.274	29128.94
513.477	29638.89
513.679	29823.2
513.881	29835.49
514.084	30202.08
514.286	30509.27
514.488	30300.38
514.69	31510.73
514.893	31340.75
515.095	31103.18
515.297	31760.58
515.499	31996.1
515.701	32508.09
515.904	32577.72
516.106	32708.79
516.308	33306.8
516.51	33530.03
516.712	33603.75
516.914	33769.64
517.116	34338.97
517.318	34269.34
517.52	34422.94
517.722	34394.27
517.925	35029.14
518.127	35270.8
518.329	35475.6
518.531	35635.34
518.733	35897.48
518.935	36345.98
519.136	36294.78
519.338	36864.12
519.54	36933.75
519.742	37374.06
519.944	37191.8
520.146	37845.1
520.348	38336.61
520.55	38346.85
520.752	38197.35
520.954	38963.29
521.155	38588.51
521.357	38985.82
521.559	39524.43
521.761	39946.31
521.963	39393.36
522.164	40038.47
522.366	40183.88
522.568	40484.93
522.77	40564.8
522.971	41263.16
523.173	40648.77
523.375	41060.41
523.576	41242.68
523.778	40943.67
523.98	41580.59
524.181	41861.16
524.383	41541.68
524.584	41938.99
524.786	41936.94
524.988	41701.42
525.189	42309.67
525.391	42635.3
525.592	42481.7
525.794	42760.22
525.995	42571.81
526.197	42993.69
526.398	42784.8
526.6	43143.19
526.801	43335.7
527.003	43229.21
527.204	42911.77
527.406	43538.45
527.607	43526.16
527.808	43288.6
528.01	43010.07
528.211	43323.41
528.412	44077.07
528.614	43425.81
528.815	43589.65
529.016	44023.82
529.218	43421.72
529.419	43800.59
529.62	44042.25
529.822	43474.96
530.023	43702.29
530.224	43460.63
530.425	44023.82
530.626	43311.13
530.828	43235.35
531.029	44183.56
531.23	43571.22
531.431	43796.49
531.632	43937.8
531.833	43620.37
532.035	43669.52
532.236	43599.89
532.437	44206.09
532.638	43655.18
532.839	44013.58
533.04	43872.27
533.241	43517.97
533.442	43687.95
533.643	43493.39
533.844	43257.88
534.045	43331.61
534.246	42983.45
534.447	43814.93
534.648	43059.23
534.849	43622.42
535.05	43161.62
535.251	43706.38
535.451	43294.74
535.652	42860.57
535.853	43321.37
536.054	43434
536.255	43116.57
536.456	42610.72
536.657	43276.31
536.857	42872.86
537.058	42803.23
537.259	43259.93
537.46	43300.89
537.66	42680.35
537.861	43114.52
538.062	42829.85
538.263	42938.4
538.463	42577.95
538.664	42612.77
538.865	42450.98
539.065	42932.25
539.266	42211.37
539.466	42999.83
539.667	42143.78
539.868	42780.7
540.068	42801.18
540.269	42283.05
540.469	42735.65
540.67	42319.91
540.87	42508.32
541.071	42389.54
541.271	42582.05
541.472	42684.45
541.672	42151.98
541.873	42536.99
542.073	41865.26
542.274	42352.68
542.474	42113.06
542.675	41902.12
542.875	42709.02
543.075	42115.11
543.276	41457.71
543.476	42287.14
543.676	41781.29
543.877	42303.53
544.077	41779.25
544.277	42088.49
544.478	42188.84
544.678	42039.34
544.878	42231.85
545.078	42068.01
545.279	41508.91
545.479	41941.03
545.679	41809.96
545.879	41748.53
546.079	41664.56
546.28	41730.09
546.48	41451.57
546.68	41500.72
546.88	42229.8
547.08	41883.69
547.28	41762.86
547.48	41558.06
547.68	42199.08
547.88	41553.97
548.081	41975.85
548.281	41781.29
548.481	41793.58
548.681	41758.77
548.881	42078.25
549.081	41738.29
549.28	41656.37
549.48	42035.24
549.68	41566.26
549.88	42620.96
550.08	41809.96
550.28	41973.8
550.48	41920.56
550.68	42313.76
550.88	41426.99
551.08	41744.43
551.279	42102.82
551.479	41410.61
551.679	41910.32
551.879	41492.53
552.079	41949.23
552.278	42106.92
552.478	41957.42
552.678	41719.85
552.878	42100.78
553.077	41721.9
553.277	41855.02
553.477	42590.24
553.676	41830.44
553.876	41619.5
554.076	41676.85
554.275	41670.7
554.475	41642.03
554.674	42227.75
554.874	41955.37
555.074	42127.4
555.273	41867.31
555.473	42272.81
555.672	41666.61
555.872	42082.34
556.071	41957.42
556.271	42401.83
556.47	41750.57
556.67	41926.7
556.869	42131.5
557.068	42448.93
557.268	42088.49
557.467	41900.08
557.667	42258.47
557.866	42186.79
558.065	41971.75
558.265	41537.58
558.464	41857.07
558.663	41922.6
558.863	41881.64
559.062	42180.65
559.261	41668.65
559.461	42250.28
559.66	41695.28
559.859	41861.16
560.058	41711.66
560.258	42285.09
560.457	42094.63
560.656	42088.49
560.855	41871.4
561.054	42086.44
561.253	41789.49
561.453	41955.37
561.652	42231.85
561.851	42004.52
562.05	42151.98
562.249	41885.74
562.448	41992.23
562.647	41850.92
562.846	41957.42
563.045	41713.71
563.244	41521.2
563.443	41984.04
563.642	41080.89
563.841	41099.32
564.04	41318.45
564.239	41678.89
564.438	41132.09
564.637	41603.12
564.836	41918.51
565.035	42004.52
565.234	41566.26
565.432	41601.07
565.631	41220.15
565.83	41523.25
566.029	41166.9
566.228	41144.37
566.427	40998.97
566.625	41076.79
566.824	40788.03
567.023	41277.49
567.222	40247.36
567.42	41162.81
567.619	40917.05
567.818	40413.25
568.016	40695.87
568.215	41099.32
568.414	40880.19
568.612	40962.11
568.811	40220.74
569.01	40087.62
569.208	40282.18
569.407	40484.93
569.605	39913.55
569.804	40878.14
570.002	39952.46
570.201	40392.77
570.4	40009.8
570.598	40020.04
570.797	39866.44
570.995	39678.03
571.193	39370.83
571.392	39706.7
571.59	39512.14
571.789	39460.94
571.987	39202.9
572.186	39155.8
572.384	39055.45
572.582	39399.51
572.781	39469.14
572.979	38783.07
573.177	39063.64
573.376	39168.08
573.574	38494.3
573.772	38783.07
573.971	38551.65
574.169	38608.99
574.367	38279.27
574.565	38492.26
574.763	38086.76
574.962	38051.94
575.16	37785.71
575.358	38121.57
575.556	37505.13
575.754	38277.22
575.952	37421.17
576.151	37724.27
576.349	37462.13
576.547	37208.18
576.745	37396.59
576.943	37312.63
577.141	37079.16
577.339	37460.08
577.537	37460.08
577.735	37281.91
577.933	36984.95
578.131	36980.85
578.329	36839.54
578.527	36526.21
578.725	36413.57
578.923	37300.34
579.121	36452.48
579.319	36348.03
579.516	36634.75
579.714	36294.78
579.912	36216.96
580.11	36153.47
580.308	35799.18
580.506	35698.83
580.704	35627.15
580.901	35985.54
581.099	35856.52
581.297	35680.39
581.495	35410.06
581.692	35526.8
581.89	35096.72
582.088	35491.98
582.285	34861.21
582.483	35621
582.681	34877.59
582.878	34709.66
583.076	34697.37
583.274	35129.49
583.471	34402.46
583.669	34685.08
583.866	34226.34
584.064	34527.39
584.262	34212
584.459	34468
584.657	34156.71
584.854	34248.86
585.052	33734.82
585.249	34281.63
585.447	33845.41
585.644	33745.06
585.841	33472.68
586.039	34115.75
586.236	33226.93
586.434	33421.48
586.631	33282.22
586.828	33562.79
587.026	33216.69
587.223	33435.82
587.42	33372.33
587.618	33482.92
587.815	32864.44
588.012	33079.47
588.21	32911.54
588.407	33222.83
588.604	32981.17
588.801	32661.69
588.999	32510.14
589.196	32469.18
589.393	32399.55
589.59	32571.58
589.787	32276.67
589.984	32391.36
590.182	31858.88
590.379	32108.74
590.576	32207.04
590.773	31893.7
590.97	31590.6
591.167	31856.84
591.364	31740.1
591.561	31563.98
591.758	31570.12
591.955	31537.35
592.152	31426.76
592.349	31520.97
592.546	31297.74
592.743	31301.84
592.94	31166.67
593.137	31359.18
593.334	31328.46
593.531	30613.72
593.727	31144.14
593.924	31234.25
594.121	30892.24
594.318	31242.45
594.515	30382.3
594.712	30859.48
594.908	30576.86
595.105	30712.02
595.302	30961.87
595.499	30953.68
595.696	30857.43
595.892	30320.86
596.089	30634.2
596.286	30742.74
596.482	30306.52
596.679	30386.4
596.876	30355.68
597.072	30267.61
597.269	30374.11
597.466	29939.94
597.662	29941.99
597.859	29925.6
598.055	30097.63
598.252	29767.91
598.448	29843.68
598.645	29817.06
598.841	29712.61
599.038	29835.49
599.234	29952.23
599.431	29618.41
599.627	29831.4
599.824	29882.59
600.02	29640.93
600.217	29731.04
600.413	29655.27
600.609	28973.3
600.806	29645.03
601.002	29675.75
601.198	29544.68
601.395	29470.95
601.591	29602.02
601.787	29587.69
601.984	29401.32
602.18	29483.24
602.376	29186.29
602.572	29100.27
602.769	29442.28
602.965	29100.27
603.161	29452.52
603.357	29288.68
603.553	29247.72
603.75	29583.59
603.946	29083.89
604.142	29571.3
604.338	29354.22
604.534	29360.36
604.73	28918
604.926	28946.67
605.122	29087.98
605.318	28811.51
605.514	28893.43
605.71	28979.44
605.906	29108.46
606.102	29204.72
606.298	29440.23
606.494	29159.66
606.69	29565.16
606.886	29323.5
607.082	29096.17
607.278	29452.52
607.474	29030.64
607.67	29284.59
607.866	28745.97
608.062	29296.88
608.257	28999.92
608.453	29024.5
608.649	29425.9
608.845	29087.98
609.041	29178.09
609.236	29055.22
609.432	29305.07
609.628	29518.06
609.824	29155.57
610.019	29200.62
610.215	29006.06
610.411	29548.78
610.606	29399.27
610.802	29182.19
610.998	29303.02
611.193	29124.85
611.389	29544.68
611.584	29122.8
611.78	28973.3
611.976	29653.22
612.171	29413.61
612.367	29217
612.562	29307.12
612.758	28963.06
612.953	28860.66
613.149	29329.64
613.344	29237.48
613.539	29626.6
613.735	29245.68
613.93	29286.64
614.126	29157.61
614.321	29059.31
614.517	29380.84
614.712	28971.25
614.907	28961.01
615.103	29454.57
615.298	29122.8
615.493	29335.79
615.688	28928.24
615.884	29509.86
616.079	29087.98
616.274	29323.5
616.47	29110.51
616.665	29110.51
616.86	28815.6
617.055	28909.81
617.25	28809.46
617.445	29188.33
617.641	28565.75
617.836	28975.34
618.031	28791.03
618.226	28616.95
618.421	28729.59
618.616	28881.14
618.811	28205.31
619.006	29081.84
619.201	28211.45
619.396	28459.26
619.591	27902.21
619.786	28465.4
619.981	28115.2
620.176	27965.7
620.371	27810.05
620.566	27697.41
620.761	27646.21
620.956	27877.63
621.151	27519.24
621.346	27451.66
621.541	27304.2
621.735	27402.5
621.93	26851.6
622.125	27224.33
622.32	26669.33
622.515	26816.79
622.709	26865.94
622.904	26718.48
623.099	26480.92
623.294	26487.06
623.488	26355.99
623.683	26247.45
623.878	25997.6
624.072	26143
624.267	26013.98
624.462	26022.17
624.656	25714.98
624.851	25624.87
625.046	25610.53
625.24	25321.77
625.435	25188.65
625.629	25286.95
625.824	24750.38
626.018	24715.57
626.213	24135.99
626.407	24867.12
626.602	24416.57
626.796	24518.96
626.991	24435
627.185	24209.72
627.38	23658.82
627.574	23937.34
627.768	23769.41
627.963	23630.15
628.157	23540.04
628.352	23304.52
628.546	23232.84
628.74	23636.29
628.935	22993.23
629.129	23013.71
629.323	23060.81
629.517	22813.01
629.712	22595.92
629.906	22405.46
630.1	22186.33
630.294	22511.96
630.489	22362.45
630.683	22260.06
630.877	22085.98
631.071	22036.83
631.265	22002.01
631.459	21627.23
631.653	21469.54
631.848	21549.41
632.042	21606.75
632.236	21440.87
632.43	20986.22
632.624	21197.16
632.818	21182.82
633.012	20973.93
633.206	21002.6
633.4	20910.44
633.594	20562.29
633.788	20584.82
633.982	20601.2
634.176	20447.6
634.369	20169.08
634.563	20105.59
634.757	20230.52
634.951	19868.03
635.145	20093.3
635.339	19951.99
635.533	19833.21
635.726	19413.38
635.92	19261.83
636.114	19313.03
636.308	19300.74
636.501	19229.06
636.695	19265.92
636.889	18878.86
637.083	18786.7
637.276	18819.47
637.47	18637.2
637.664	18456.98
637.857	18323.86
638.051	18532.75
638.244	18450.83
638.438	18133.4
638.632	18123.16
638.825	17799.58
639.019	17770.91
639.212	17828.25
639.406	17820.06
639.599	17715.61
639.793	17574.3
639.986	17430.94
640.18	17172.9
640.373	17265.06
640.567	17125.8
640.76	16914.86
640.954	16884.14
641.147	16923.05
641.34	16652.72
641.534	16648.62
641.727	16650.67
641.92	16476.59
642.114	16327.09
642.307	16578.99
642.5	16144.82
642.694	15784.38
642.887	15872.44
643.08	15948.22
643.273	16075.19
643.467	15724.99
643.66	15669.69
643.853	15487.42
644.046	15290.82
644.239	15333.82
644.432	15423.94
644.626	15231.43
644.819	15206.85
645.012	15010.25
645.205	14963.14
645.398	15030.73
645.591	14766.54
645.784	14549.45
645.977	14494.16
646.17	14778.83
646.363	14391.76
646.556	14315.98
646.749	14488.01
646.942	14453.2
647.135	14121.43
647.328	14272.98
647.521	14064.08
647.714	13824.47
647.907	13908.44
648.099	13781.46
648.292	13756.89
648.485	13711.83
648.678	13648.35
648.871	13394.4
649.064	13431.26
649.256	13300.19
649.449	13216.22
649.642	13148.64
649.835	13019.62
650.027	13173.22
650.22	12962.28
650.413	12968.42
650.605	12945.89
650.798	12630.51
650.991	12530.16
651.183	12724.71
651.376	12728.81
651.568	12431.85
651.761	12364.27
651.954	12446.19
652.146	12431.85
652.339	12171.76
652.531	12347.89
652.724	12298.74
652.916	11932.15
653.109	11897.33
653.301	11964.92
653.494	11946.48
653.686	11796.98
653.879	11895.29
654.071	11817.46
654.263	11536.89
654.456	11508.22
654.648	11483.64
654.84	11407.87
655.033	11407.87
655.225	11262.46
655.417	11229.7
655.61	11383.29
655.802	11016.71
655.994	11004.42
656.186	11037.19
656.379	10885.64
656.571	10932.74
656.763	10809.86
656.955	10619.4
657.148	10807.81
657.34	10840.58
657.532	10668.55
657.724	10590.73
657.916	10705.42
658.108	10506.76
658.3	10428.94
658.492	10445.32
658.684	10205.71
658.876	10201.61
659.068	10099.22
659.26	10103.31
659.452	9939.47
659.644	9896.47
659.836	9976.34
660.028	9832.98
660.22	9779.73
660.412	9867.8
660.604	9564.7
660.796	9751.06
660.988	9640.47
661.18	9558.55
661.372	9376.28
661.563	9529.88
661.755	9386.52
661.947	9275.93
662.139	9275.93
662.331	9366.04
662.522	9017.89
662.714	9142.82
662.906	9161.25
663.097	9120.29
663.289	9056.8
663.481	9071.14
663.673	9030.18
663.864	8800.8
664.056	8778.28
664.247	8882.72
664.439	8663.59
664.631	8669.73
664.822	8491.56
665.014	8682.02
665.205	8423.98
665.397	8512.04
665.588	8464.94
665.78	8440.36
665.971	8219.18
666.163	8254
666.354	8297
666.546	8034.86
666.737	8059.44
666.929	7981.62
667.12	8002.1
667.311	8081.97
667.503	7940.66
667.694	8071.73
667.885	7852.59
668.077	8053.3
668.268	7631.41
668.459	7877.17
668.651	7588.41
668.842	7746.1
669.033	7733.81
669.224	7555.64
669.416	7719.48
669.607	7770.68
669.798	7430.71
669.989	7533.11
670.18	7524.92
670.371	7416.38
670.563	7318.07
670.754	7402.04
670.945	7219.77
671.136	7518.78
671.327	7281.21
671.518	7250.49
671.709	7449.14
671.9	7311.93
672.091	7135.81
672.282	7082.56
672.473	6898.24
672.664	7150.14
672.855	7047.74
673.046	7002.69
673.237	6844.99
673.428	7064.13
673.619	6945.34
673.809	6859.33
674	6713.92
674.191	6892.1
674.382	6797.89
674.573	6830.66
674.764	6687.3
674.954	6885.95
675.145	6566.47
675.336	6701.64
675.527	6535.75
675.717	6580.81
675.908	6531.65
676.099	6384.2
676.289	6607.43
676.48	6412.87
676.671	6494.79
676.861	6337.1
677.052	6468.17
677.243	6277.71
677.433	6316.62
677.624	6543.94
677.814	6392.39
678.005	6404.68
678.195	6214.22
678.386	6302.28
678.576	6183.5
678.767	6230.6
678.957	6175.31
679.148	6287.95
679.338	6353.48
679.529	6148.68
679.719	6072.91
679.909	6300.23
680.1	6027.85
680.29	6156.88
680.481	6163.02
680.671	5956.18
680.861	6099.53
681.052	5794.39
681.242	5974.61
681.432	6005.33
681.622	5986.9
681.813	5816.91
682.003	5917.26
682.193	5958.22
682.383	5857.87
682.573	5845.59
682.764	5937.74
682.954	5896.78
683.144	5792.34
683.334	5954.13
683.524	5775.95
683.714	5911.12
683.904	5866.07
684.094	5925.46
684.284	5917.26
684.474	5798.48
684.664	5794.39
684.854	5739.09
685.044	5788.24
685.234	5585.49
685.424	5556.82
685.614	5665.36
685.804	5706.32
685.994	5597.78
686.184	5630.55
686.374	5575.25
686.564	5640.79
686.753	5532.25
686.943	5589.59
687.133	5552.73
687.323	5493.33
687.513	5460.57
687.702	5415.51
687.892	5431.9
688.082	5425.75
688.272	5503.57
688.461	5372.5
688.651	5315.16
688.841	5417.56
689.03	5288.54
689.22	5321.31
689.41	5311.07
689.599	5249.63
689.789	5210.72
689.979	5212.76
690.168	5270.11
690.358	5042.78
690.547	5126.75
690.737	5229.15
690.926	5159.52
691.116	5063.26
691.305	5057.12
691.495	4985.44
691.684	5042.78
691.874	5020.25
692.063	4989.53
692.252	5096.03
692.442	4915.81
692.631	4854.37
692.82	5048.93
693.01	4815.46
693.199	4723.3
693.388	4788.83
693.578	4911.71
693.767	4870.75
693.956	4846.18
694.146	4647.52
694.335	4711.01
694.524	4811.36
694.713	4880.99
694.902	4786.79
695.092	4590.18
695.281	4659.81
695.47	4725.35
695.659	4530.79
695.848	4590.18
696.037	4534.89
696.226	4641.38
696.415	4581.99
696.604	4647.52
696.793	4672.1
696.982	4661.86
697.171	4524.65
697.36	4442.73
697.549	4506.21
697.738	4473.45
697.927	4469.35
698.116	4483.69
698.305	4352.62
698.494	4442.73
698.683	4610.66
698.872	4328.04
699.061	4332.14
699.25	4428.39
699.438	4455.01
699.627	4358.76
699.816	4446.82
700.005	4356.71
700.193	4209.26
700.382	4274.79
700.571	4321.9
700.76	4147.82
700.948	4418.15
701.137	4231.79
701.326	4262.51
701.514	4309.61
701.703	4229.74
701.892	4104.81
702.08	4231.79
702.269	4182.63
702.457	4082.28
702.646	4164.2
702.834	4090.48
703.023	4133.48
703.212	4059.76
703.4	4106.86
703.589	3918.45
703.777	4067.95
703.965	4108.91
704.154	4033.13
704.342	4033.13
704.531	3998.32
704.719	3918.45
704.907	3953.26
705.096	3920.49
705.284	3822.19
705.472	3893.87
705.661	4022.89
705.849	3869.3
706.037	4078.19
706.226	3859.06
706.414	3777.14
706.602	3758.71
706.79	3826.29
706.979	3779.18
707.167	3865.2
707.355	3682.93
707.543	3713.65
707.731	3740.27
707.919	3750.51
708.107	3674.74
708.296	3644.02
708.484	3672.69
708.672	3603.06
708.86	3707.51
709.048	3631.73
709.236	3582.58
709.424	3539.57
709.612	3564.15
709.8	3484.28
709.988	3451.51
710.176	3598.96
710.364	3461.75
710.551	3615.35
710.739	3515
710.927	3508.85
711.115	3377.78
711.303	3377.78
711.491	3435.13
711.679	3355.26
711.866	3543.67
712.054	3469.94
712.242	3336.82
712.43	3469.94
712.617	3451.51
712.805	3420.79
712.993	3347.06
713.181	3316.34
713.368	3431.03
713.556	3369.59
713.744	3134.07
713.931	3365.5
714.119	3291.77
714.306	3306.1
714.494	3246.71
714.682	3097.21
714.869	3058.3
715.057	3281.53
715.244	3119.74
715.432	3074.68
715.619	3103.36
715.807	3191.42
715.994	3127.93
716.182	3123.83
716.369	3117.69
716.556	3091.07
716.744	3097.21
716.931	3058.3
717.119	3123.83
717.306	3072.64
717.493	3052.16
717.681	3170.94
717.868	2978.43
718.055	3082.88
718.242	2919.04
718.43	3005.05
718.617	2921.09
718.804	2992.76
718.991	3000.96
719.179	3158.65
719.366	2914.94
719.553	2871.93
719.74	2972.29
719.927	2867.84
720.114	2855.55
720.301	2933.37
720.488	2935.42
720.676	2828.93
720.863	2900.61
721.05	2919.04
721.237	2878.08
721.424	2806.4
721.611	2861.69
721.798	2812.54
721.985	2738.82
722.172	2669.19
722.358	2767.49
722.545	2669.19
722.732	2642.56
722.919	2740.86
723.106	2634.37
723.293	2738.82
723.48	2824.83
723.667	2658.95
723.853	2697.86
724.04	2697.86
724.227	2632.32
724.414	2615.94
724.6	2759.3
724.787	2620.03
724.974	2656.9
725.161	2755.2
725.347	2640.51
725.534	2527.88
725.72	2626.18
725.907	2568.84
726.094	2570.88
726.28	2607.75
726.467	2591.36
726.653	2536.07
726.84	2546.31
727.027	2558.6
727.213	2445.96
727.4	2484.87
727.586	2476.68
727.773	2521.73
727.959	2468.48
728.145	2435.72
728.332	2288.26
728.518	2400.9
728.705	2501.25
728.891	2605.7
729.077	2568.84
729.264	2386.57
729.45	2396.81
729.636	2525.83
729.823	2345.61
730.009	2333.32
730.195	2454.15
730.382	2491.01
730.568	2329.22
730.754	2353.8
730.94	2429.57
731.126	2357.89
731.313	2361.99
731.499	2337.41
731.685	2394.76
731.871	2265.74
732.057	2355.85
732.243	2302.6
732.429	2298.5
732.615	2275.98
732.801	2329.22
732.987	2337.41
733.173	2230.92
733.359	2187.91
733.545	2247.3
733.731	2230.92
733.917	2224.78
734.103	2198.15
734.289	2198.15
734.475	2257.54
734.661	2214.54
734.847	2161.29
735.033	2265.74
735.219	2265.74
735.404	2181.77
735.59	2206.34
735.776	2161.29
735.962	2142.86
736.148	2204.3
736.333	2392.71
736.519	2112.14
736.705	2167.43
736.89	2124.43
737.076	2069.13
737.262	1970.83
737.447	2058.89
737.633	2050.7
737.819	2081.42
738.004	2042.51
738.19	2058.89
738.375	2011.79
738.561	2091.66
738.747	2077.32
738.932	2087.56
739.118	2052.75
739.303	2085.51
739.489	1913.49
739.674	1850
739.859	2009.74
740.045	1964.68
740.23	1911.44
740.416	1917.58
740.601	2036.36
740.786	1997.45
740.972	1864.33
741.157	1927.82
741.342	1897.1
741.528	1888.91
741.713	1804.94
741.898	1921.68
742.084	1915.53
742.269	1913.49
742.454	1893.01
742.639	1847.95
742.824	1804.94
743.01	1911.44
743.195	1790.61
743.38	1858.19
743.565	1757.84
743.75	1804.94
743.935	1821.33
744.12	1710.74
744.305	1714.83
744.49	1657.49
744.675	1757.84
744.86	1667.73
745.045	1686.16
745.23	1714.83
745.415	1684.11
745.6	1739.41
745.785	1686.16
745.97	1677.97
746.155	1645.2
746.34	1550.99
746.525	1632.91
746.71	1694.35
746.895	1610.39
747.079	1616.53
747.264	1600.15
747.449	1747.6
747.634	1647.25
747.819	1626.77
748.003	1608.34
748.188	1557.14
748.373	1680.02
748.557	1528.47
748.742	1651.35
748.927	1487.51
749.111	1526.42
749.296	1526.42
749.481	1546.9
749.665	1505.94
749.85	1516.18
750.034	1510.04
750.219	1587.86
750.404	1448.6
750.588	1348.25
750.773	1421.97
750.957	1389.21
751.141	1450.64
751.326	1444.5
751.51	1325.72
751.695	1301.14
751.879	1360.53
752.064	1440.4
752.248	1350.29
752.432	1370.77
752.617	1282.71
752.801	1387.16
752.985	1364.63
753.17	1321.62
753.354	1356.44
753.538	1280.66
753.722	1225.37
753.907	1206.94
754.091	1194.65
754.275	1315.48
754.459	1305.24
754.643	1178.26
754.828	1211.03
755.012	1206.94
755.196	1243.8
755.38	1280.66
755.564	1165.98
755.748	1182.36
755.932	1100.44
756.116	1118.87
756.3	1194.65
756.484	1127.07
756.668	1186.46
756.852	1092.25
757.036	1004.19
757.22	1096.35
757.404	1122.97
757.588	1133.21
757.772	1075.87
757.956	1086.11
758.14	1026.71
758.323	1018.52
758.507	1090.2
758.691	1084.06
758.875	977.56
759.059	1059.48
759.242	1006.24
759.426	975.52
759.61	932.51
759.794	977.56
759.977	1002.14
760.161	1098.39
760.345	1077.91
760.528	979.61
760.712	971.42
760.895	920.22
761.079	989.85
761.263	969.37
761.446	952.99
761.63	977.56
761.813	1022.62
761.997	928.41
762.18	934.56
762.364	944.8
762.547	944.8
762.731	936.6
762.914	922.27
763.098	924.32
763.281	955.04
763.464	918.17
763.648	916.12
763.831	932.51
764.015	918.17
764.198	961.18
764.381	952.99
764.564	895.64
764.748	871.07
764.931	893.6
765.114	897.69
765.297	905.88
765.481	830.11
765.664	844.45
765.847	819.87
766.03	864.93
766.213	756.38
766.397	858.78
766.58	901.79
766.763	858.78
766.946	815.77
767.129	838.3
767.312	772.77
767.495	805.53
767.678	846.49
767.861	830.11
768.044	756.38
768.227	850.59
768.41	801.44
768.593	860.83
768.776	823.97
768.959	805.53
769.142	866.97
769.324	850.59
769.507	834.21
769.69	748.19
769.873	799.39
770.056	897.69
770.239	764.57
770.421	858.78
770.604	776.86
770.787	783.01
770.97	789.15
771.152	758.43
771.335	789.15
771.518	789.15
771.7	768.67
771.883	805.53
772.066	780.96
772.248	731.81
772.431	774.81
772.613	787.1
772.796	766.62
772.978	725.66
773.161	871.07
773.343	651.94
773.526	766.62
773.708	760.48
773.891	690.85
774.073	678.56
774.256	633.5
774.438	731.81
774.621	744.1
774.803	692.9
774.985	639.65
775.168	690.85
775.35	653.98
775.532	635.55
775.715	692.9
775.897	649.89
776.079	744.1
776.261	715.42
776.444	641.7
776.626	731.81
776.808	674.46
776.99	664.22
777.173	701.09
777.355	658.08
777.537	580.26
777.719	596.64
777.901	561.83
778.083	549.54
778.265	610.98
778.447	510.63
778.629	551.59
778.811	649.89
778.993	576.16
779.175	662.18
779.357	606.88
779.539	545.44
779.721	490.15
779.903	635.55
780.085	559.78
780.267	543.39
780.449	510.63
780.631	510.63
780.812	553.63
780.994	494.24
781.176	541.35
781.358	594.59
781.54	490.15
781.721	565.92
781.903	524.96
782.085	467.62
782.267	488.1
782.448	555.68
782.63	570.02
782.812	459.43
782.993	535.2
783.175	551.59
783.357	428.71
783.538	391.84
783.72	395.94
783.901	514.72
784.083	428.71
784.264	445.09
784.446	424.61
784.627	469.67
784.809	473.76
784.99	397.99
785.172	502.43
785.353	445.09
785.535	406.18
785.716	418.47
785.897	367.27
786.079	424.61
786.26	361.13
786.441	387.75
786.623	371.36
786.804	457.38
786.985	406.18
787.167	357.03
787.348	273.06
787.529	422.56
787.71	402.08
787.891	354.98
788.073	387.75
788.254	359.08
788.435	428.71
788.616	424.61
788.797	395.94
788.978	316.07
789.159	322.21
789.34	340.65
789.522	322.21
789.703	406.18
789.884	359.08
790.065	410.28
790.246	400.04
790.427	326.31
790.607	365.22
790.788	420.52
790.969	430.76
791.15	297.64
791.331	350.89
791.512	305.83
791.693	357.03
791.874	350.89
792.054	365.22
792.235	322.21
792.416	344.74
792.597	268.97
792.778	416.42
792.958	342.69
793.139	307.88
793.32	291.49
793.5	264.87
793.681	252.58
793.862	199.34
794.042	232.1
794.223	291.49
794.404	258.73
794.584	266.92
794.765	330.41
794.945	326.31
795.126	316.07
795.306	281.25
795.487	254.63
795.667	299.69
795.848	271.01
796.028	246.44
796.209	223.91
796.389	326.31
796.57	318.12
796.75	305.83
796.93	256.68
797.111	234.15
797.291	309.93
797.471	250.53
797.652	232.1
797.832	287.4
798.012	283.3
798.192	268.97
798.373	242.34
798.553	223.91
798.733	322.21
798.913	199.34
799.093	256.68
799.274	256.68
799.454	223.91
799.634	250.53
799.814	287.4
799.994	223.91
800.174	316.07
800.354	211.62
800.534	219.82
800.714	215.72
800.894	248.49
801.074	219.82
801.254	207.53
801.434	285.35
801.614	228.01
801.794	215.72
801.974	940.7
802.154	193.19
802.334	168.62
802.514	133.8
802.693	242.34
802.873	223.91
803.053	207.53
803.233	258.73
803.413	238.25
803.592	223.91
803.772	201.38
803.952	205.48
804.131	207.53
804.311	281.25
804.491	152.23
804.67	160.42
804.85	176.81
805.03	242.34
805.209	244.39
805.389	221.86
805.568	199.34
805.748	152.23
805.928	266.92
806.107	246.44
806.287	217.77
806.466	185
806.646	254.63
806.825	195.24
807.004	168.62
807.184	234.15
807.363	191.14
807.543	180.9
807.722	191.14
807.901	170.66
808.081	256.68
808.26	117.42
808.439	228.01
808.619	219.82
808.798	176.81
808.977	223.91
809.156	236.2
809.336	146.09
809.515	203.43
809.694	215.72
809.873	166.57
810.052	113.32
810.231	170.66
810.411	170.66
810.59	189.1
810.769	146.09
810.948	228.01
811.127	135.85
811.306	193.19
811.485	232.1
811.664	174.76
811.843	141.99
812.022	162.47
812.201	207.53
812.38	174.76
812.559	107.18
812.737	162.47
812.916	166.57
813.095	117.42
813.274	111.27
813.453	150.18
813.632	129.7
813.811	193.19
813.989	96.94
814.168	150.18
814.347	141.99
814.526	217.77
814.704	180.9
814.883	232.1
815.062	141.99
815.24	178.86
815.419	96.94
815.598	150.18
815.776	174.76
815.955	166.57
816.133	64.17
816.312	228.01
816.49	125.61
816.669	176.81
816.847	133.8
817.026	135.85
817.204	109.22
817.383	119.46
817.561	191.14
817.74	101.03
817.918	133.8
818.097	150.18
818.275	111.27
818.453	49.83
818.632	117.42
818.81	117.42
818.988	107.18
819.167	72.36
819.345	133.8
819.523	234.15
819.701	166.57
819.879	111.27
820.058	154.28
820.236	94.89
820.414	125.61
820.592	121.51
820.77	133.8
820.948	133.8
821.127	101.03
821.305	154.28
821.483	55.98
821.661	146.09
821.839	117.42
822.017	86.7
822.195	80.55
822.373	182.95
822.551	135.85
822.729	137.9
822.907	101.03
823.085	174.76
823.262	96.94
823.44	178.86
823.618	43.69
823.796	76.46
823.974	19.11
824.152	139.94
824.329	62.12
824.507	195.24
824.685	117.42
824.863	92.84
825.04	119.46
825.218	125.61
825.396	62.12
825.574	125.61
825.751	76.46
825.929	141.99
826.107	72.36
826.284	125.61
826.462	133.8
826.639	92.84
826.817	45.74
826.994	125.61
827.172	94.89
827.349	86.7
827.527	86.7
827.704	154.28
827.882	137.9
828.059	94.89
828.237	60.07
828.414	86.7
828.591	105.13
828.769	133.8
828.946	109.22
829.124	111.27
829.301	150.18
829.478	68.27
829.655	94.89
829.833	96.94
830.01	-21.85
830.187	92.84
830.364	76.46
830.542	141.99
830.719	29.35
830.896	168.62
831.073	113.32
831.25	113.32
831.427	101.03
831.604	131.75
831.782	111.27
831.959	101.03
832.136	101.03
832.313	127.66
832.49	109.22
832.667	62.12
832.844	43.69
833.021	154.28
833.198	62.12
833.374	70.31
833.551	10.92
833.728	12.97
833.905	15.02
834.082	27.31
834.259	101.03
834.436	152.23
834.612	4.78
834.789	103.08
834.966	111.27
835.143	84.65
835.319	-30.04
835.496	146.09
835.673	64.17
835.85	55.98
836.026	84.65
836.203	43.69
836.38	51.88
836.556	64.17
836.733	68.27
836.909	86.7
837.086	27.31
837.262	68.27
837.439	35.5
837.616	166.57
837.792	-3.41
837.968	96.94
838.145	68.27
838.321	107.18
838.498	43.69
838.674	117.42
838.851	39.59
839.027	94.89
839.203	12.97
839.38	103.08
839.556	17.07
839.732	70.31
839.909	49.83
840.085	70.31
840.261	60.07
840.437	109.22
840.614	72.36
840.79	19.11
840.966	109.22
841.142	8.87
841.318	164.52
841.494	27.31
841.671	101.03
841.847	101.03
842.023	94.89
842.199	55.98
842.375	199.34
842.551	27.31
842.727	-23.89
842.903	141.99
843.079	37.55
843.255	60.07
843.431	70.31
843.607	96.94
843.783	-30.04
843.959	98.99
844.134	55.98
844.31	31.4
844.486	-27.99
844.662	82.6
844.838	72.36
845.013	80.55
845.189	74.41
845.365	72.36
845.541	35.5
845.716	84.65
845.892	105.13
846.068	70.31
846.244	-7.51
846.419	60.07
846.595	21.16
846.77	60.07
846.946	96.94
847.122	-5.46
847.297	10.92
847.473	191.14
847.648	84.65
847.824	72.36
847.999	-13.65
848.175	29.35
848.35	19.11
848.526	68.27
848.701	117.42
848.876	31.4
849.052	68.27
849.227	76.46
849.403	21.16
849.578	27.31
849.753	51.88
849.929	70.31
850.104	-19.8
850.279	60.07
850.454	41.64
850.63	129.7
850.805	-46.42
850.98	39.59
851.155	15.02
851.33	19.11
851.505	35.5
851.681	133.8
851.856	-21.85
852.031	31.4
852.206	43.69
852.381	49.83
852.556	43.69
852.731	43.69
852.906	109.22
853.081	72.36
853.256	43.69
853.431	41.64
853.606	60.07
853.781	-11.61
853.956	-1.37
854.131	62.12
854.305	62.12
854.48	12.97
854.655	-3.41
854.83	45.74
855.005	31.4
855.18	53.93
855.354	-66.9
855.529	43.69
855.704	19.11
855.879	47.79
856.053	-13.65
856.228	84.65
856.403	51.88
856.577	35.5
856.752	49.83
856.926	-42.32
857.101	25.26
857.276	4.78
857.45	12.97
857.625	45.74
857.799	88.75
857.974	58.03
858.148	68.27
858.323	27.31
858.497	31.4
858.672	-25.94
858.846	-27.99
859.02	58.03
859.195	31.4
859.369	2.73
859.543	10.92
859.718	35.5
859.892	37.55
860.066	49.83
860.241	76.46
860.415	-1.37
860.589	-36.18
860.763	60.07
860.938	35.5
861.112	19.11
861.286	47.79
861.46	103.08
861.634	21.16
861.808	64.17
861.982	51.88
862.157	19.11
862.331	-13.65
862.505	-13.65
862.679	19.11
862.853	35.5
863.027	-19.8
863.201	62.12
863.375	23.21
863.549	178.86
863.722	62.12
863.896	35.5
864.07	15.02
864.244	-5.46
864.418	19.11
864.592	21.16
864.766	58.03
864.939	19.11
865.113	-13.65
865.287	76.46
865.461	35.5
865.634	47.79
865.808	96.94
865.982	21.16
866.156	-52.56
866.329	2.73
866.503	35.5
866.676	68.27
866.85	43.69
867.024	19.11
867.197	64.17
867.371	23.21
867.544	23.21
867.718	-36.18
867.891	35.5
868.065	-36.18
868.238	23.21
868.412	82.6
868.585	55.98
868.759	35.5
868.932	-25.94
869.105	45.74
869.279	113.32
869.452	-27.99
869.625	60.07
869.799	27.31
869.972	-27.99
870.145	45.74
870.319	19.11
870.492	60.07
870.665	-36.18
870.838	27.31
871.011	-66.9
871.185	8.87
871.358	68.27
871.531	-1.37
871.704	17.07
871.877	4.78
872.05	-3.41
872.223	-1.37
872.396	51.88
872.569	109.22
872.742	2.73
872.915	-13.65
873.088	-62.8
873.261	43.69
873.434	-23.89
873.607	41.64
873.78	-21.85
873.953	-50.52
874.126	10.92
874.299	68.27
874.471	-79.19
874.644	51.88
874.817	92.84
874.99	58.03
875.163	-62.8
875.335	-27.99
875.508	33.45
875.681	92.84
875.853	-68.95
876.026	-3.41
876.199	21.16
876.371	60.07
876.544	31.4
876.717	60.07
876.889	19.11
877.062	84.65
877.234	-36.18
877.407	15.02
877.579	78.51
877.752	21.16
877.924	101.03
878.097	27.31
878.269	84.65
878.442	-19.8
878.614	2.73
878.786	2.73
878.959	2.73
879.131	125.61
879.303	35.5
879.476	84.65
879.648	113.32
879.82	2.73
879.993	23.21
880.165	-21.85
880.337	12.97
880.509	29.35
880.681	10.92
880.854	-13.65
881.026	29.35
881.198	23.21
881.37	25.26
881.542	15.02
881.714	17.07
881.886	-13.65
882.058	17.07
882.23	62.12
882.402	49.83
882.574	25.26
882.746	31.4
882.918	47.79
883.09	-13.65
883.262	-21.85
883.434	51.88
883.606	-5.46
883.778	27.31
883.95	6.83
884.122	-54.61
884.293	51.88
884.465	4.78
884.637	84.65
884.809	-83.28
884.98	2.73
885.152	10.92
885.324	23.21
885.496	37.55
885.667	-48.47
885.839	-46.42
886.011	80.55
886.182	53.93
886.354	55.98
886.525	10.92
886.697	23.21
886.869	-5.46
887.04	68.27
887.212	25.26
887.383	228.01
887.555	15.02
887.726	-36.18
887.897	-68.95
888.069	-5.46
888.24	94.89
888.412	60.07
888.583	23.21
888.754	-19.8
888.926	35.5
889.097	60.07
889.268	0.68
889.44	45.74
889.611	60.07
889.782	2.73
889.953	-17.75
890.125	10.92
890.296	-46.42
890.467	23.21
890.638	2.73
890.809	31.4
890.98	10.92
891.151	27.31
891.323	39.59
891.494	19.11
891.665	-13.65
891.836	37.55
892.007	72.36
892.178	68.27
892.349	29.35
892.52	-3.41
892.691	27.31
892.862	53.93
893.032	-36.18
893.203	45.74
893.374	2.73
893.545	113.32
893.716	12.97
893.887	109.22
894.057	8.87
894.228	31.4
894.399	-11.61
894.57	60.07
894.74	10.92
894.911	74.41
895.082	92.84
895.253	-25.94
895.423	10.92
895.594	-19.8
895.764	29.35
895.935	-13.65
896.106	-36.18
896.276	43.69
896.447	23.21
896.617	60.07
896.788	2.73
896.958	8.87
897.129	-27.99
897.299	-27.99
897.47	31.4
897.64	19.11
897.81	-13.65
897.981	-5.46
898.151	-32.08
898.322	-17.75
898.492	-30.04
898.662	-1.37
898.832	4.78
899.003	39.59
899.173	27.31
899.343	-13.65
899.513	-77.14
