Data from USB4F104151__34__14-29-41-413.txt Node

Date: Thu Mar 13 14:29:41 EDT 2025
User: louis
Spectrometer: USB4F10415
Trigger mode: 4
Integration Time (sec): 2.500000E-2
Scans to average: 1
Electric dark correction enabled: true
Nonlinearity correction enabled: false
Boxcar width: 0
XAxis mode: Wavelengths
Number of Pixels in Spectrum: 3648
>>>>>Begin Spectral Data<<<<<
178.204	-173.22
178.424	-173.22
178.644	-173.22
178.864	-62.63
179.084	-130.22
179.304	52.05
179.524	-40.11
179.744	17.24
179.964	21.33
180.184	39.76
180.404	-5.29
180.624	-9.39
180.844	-7.34
181.064	-38.06
181.283	9.05
181.503	-66.73
181.723	27.48
181.943	-42.15
182.163	60.24
182.383	25.43
182.602	62.29
182.822	39.76
183.042	9.05
183.262	-36.01
183.482	33.62
183.701	11.09
183.921	90.96
184.141	-70.83
184.361	29.52
184.58	43.86
184.8	-25.77
185.02	-7.34
185.239	56.15
185.459	56.15
185.679	-3.24
185.898	-76.97
186.118	23.38
186.338	27.48
186.557	68.44
186.777	-31.91
186.997	-5.29
187.216	-11.43
187.436	90.96
187.655	7
187.875	15.19
188.095	58.2
188.314	58.2
188.534	35.67
188.753	19.29
188.973	23.38
189.192	90.96
189.412	88.92
189.631	-62.63
189.851	-46.25
190.07	62.29
190.29	-29.87
190.509	56.15
190.729	56.15
190.948	21.33
191.168	136.02
191.387	109.4
191.607	7
191.826	117.59
192.045	-50.35
192.265	80.72
192.484	21.33
192.704	70.48
192.923	15.19
193.142	105.3
193.362	-5.29
193.581	43.86
193.8	84.82
194.02	25.43
194.239	17.24
194.458	47.96
194.678	47.96
194.897	29.52
195.116	4.95
195.335	25.43
195.555	31.57
195.774	-31.91
195.993	23.38
196.212	72.53
196.432	80.72
196.651	-5.29
196.87	37.72
197.089	97.11
197.308	15.19
197.528	121.68
197.747	31.57
197.966	37.72
198.185	90.96
198.404	33.62
198.623	41.81
198.842	27.48
199.062	11.09
199.281	99.16
199.5	4.95
199.719	39.76
199.938	9.05
200.157	19.29
200.376	47.96
200.595	76.63
200.814	84.82
201.033	9.05
201.252	52.05
201.471	33.62
201.69	35.67
201.909	50
202.128	131.92
202.347	31.57
202.566	15.19
202.785	17.24
203.004	-56.49
203.223	88.92
203.442	9.05
203.661	-74.92
203.879	-70.83
204.098	90.96
204.317	15.19
204.536	64.34
204.755	-54.44
204.974	56.15
205.193	-1.19
205.411	93.01
205.63	27.48
205.849	15.19
206.068	23.38
206.287	7
206.505	-1.19
206.724	-31.91
206.943	93.01
207.162	41.81
207.381	17.24
207.599	7
207.818	25.43
208.037	7
208.255	-25.77
208.474	31.57
208.693	15.19
208.911	-17.58
209.13	39.76
209.349	64.34
209.567	64.34
209.786	-5.29
210.005	23.38
210.223	11.09
210.442	-7.34
210.661	11.09
210.879	27.48
211.098	-15.53
211.316	15.19
211.535	43.86
211.753	47.96
211.972	-7.34
212.191	25.43
212.409	-5.29
212.628	52.05
212.846	15.19
213.065	39.76
213.283	56.15
213.502	-7.34
213.72	60.24
213.938	-15.53
214.157	15.19
214.375	37.72
214.594	-1.19
214.812	33.62
215.031	35.67
215.249	-38.06
215.467	41.81
215.686	58.2
215.904	107.35
216.122	-19.63
216.341	60.24
216.559	39.76
216.778	191.31
216.996	45.91
217.214	23.38
217.432	9.05
217.651	4.95
217.869	-9.39
218.087	74.58
218.306	64.34
218.524	11.09
218.742	23.38
218.96	-23.72
219.179	54.1
219.397	84.82
219.615	68.44
219.833	-1.19
220.051	-17.58
220.27	47.96
220.488	58.2
220.706	50
220.924	56.15
221.142	-27.82
221.36	99.16
221.578	7
221.796	31.57
222.015	23.38
222.233	52.05
222.451	72.53
222.669	11.09
222.887	70.48
223.105	-52.39
223.323	93.01
223.541	39.76
223.759	31.57
223.977	19.29
224.195	64.34
224.413	21.33
224.631	66.39
224.849	31.57
225.067	39.76
225.285	27.48
225.503	31.57
225.721	-17.58
225.939	-21.67
226.157	64.34
226.375	113.49
226.592	50
226.81	-38.06
227.028	60.24
227.246	113.49
227.464	39.76
227.682	84.82
227.9	66.39
228.117	23.38
228.335	97.11
228.553	52.05
228.771	39.76
228.989	84.82
229.206	45.91
229.424	88.92
229.642	80.72
229.86	70.48
230.077	117.59
230.295	-27.82
230.513	56.15
230.731	25.43
230.948	109.4
231.166	97.11
231.384	29.52
231.601	43.86
231.819	101.2
232.037	13.14
232.254	54.1
232.472	33.62
232.689	17.24
232.907	31.57
233.125	125.78
233.342	23.38
233.56	23.38
233.777	25.43
233.995	76.63
234.213	41.81
234.43	15.19
234.648	-1.19
234.865	45.91
235.083	115.54
235.3	52.05
235.518	64.34
235.735	97.11
235.953	56.15
236.17	-46.25
236.388	25.43
236.605	56.15
236.822	43.86
237.04	107.35
237.257	-1.19
237.475	-7.34
237.692	64.34
237.909	103.25
238.127	17.24
238.344	58.2
238.562	33.62
238.779	-9.39
238.996	31.57
239.214	47.96
239.431	80.72
239.648	25.43
239.865	105.3
240.083	56.15
240.3	35.67
240.517	27.48
240.735	31.57
240.952	74.58
241.169	97.11
241.386	27.48
241.603	-13.48
241.821	25.43
242.038	-48.3
242.255	47.96
242.472	-17.58
242.689	62.29
242.907	64.34
243.124	-33.96
243.341	68.44
243.558	64.34
243.775	109.4
243.992	11.09
244.209	97.11
244.426	97.11
244.643	15.19
244.86	0.85
245.078	52.05
245.295	101.2
245.512	0.85
245.729	80.72
245.946	17.24
246.163	-50.35
246.38	72.53
246.597	95.06
246.814	56.15
247.031	29.52
247.248	39.76
247.464	47.96
247.681	15.19
247.898	68.44
248.115	66.39
248.332	-17.58
248.549	50
248.766	43.86
248.983	0.85
249.2	-13.48
249.417	47.96
249.633	21.33
249.85	23.38
250.067	-11.43
250.284	33.62
250.501	107.35
250.717	80.72
250.934	-48.3
251.151	17.24
251.368	-1.19
251.585	82.77
251.801	72.53
252.018	47.96
252.235	64.34
252.451	-56.49
252.668	39.76
252.885	72.53
253.102	-50.35
253.318	72.53
253.535	43.86
253.752	101.2
253.968	37.72
254.185	-29.87
254.401	-66.73
254.618	68.44
254.835	2.9
255.051	27.48
255.268	39.76
255.484	7
255.701	17.24
255.917	27.48
256.134	-19.63
256.351	72.53
256.567	-1.19
256.784	56.15
257	25.43
257.217	11.09
257.433	58.2
257.65	56.15
257.866	80.72
258.082	45.91
258.299	66.39
258.515	29.52
258.732	-25.77
258.948	29.52
259.165	27.48
259.381	21.33
259.597	15.19
259.814	23.38
260.03	56.15
260.246	31.57
260.463	25.43
260.679	101.2
260.895	47.96
261.112	45.91
261.328	97.11
261.544	17.24
261.761	76.63
261.977	2.9
262.193	-29.87
262.409	9.05
262.626	90.96
262.842	11.09
263.058	-23.72
263.274	68.44
263.49	72.53
263.707	-7.34
263.923	60.24
264.139	37.72
264.355	39.76
264.571	33.62
264.787	15.19
265.004	60.24
265.22	-31.91
265.436	-42.15
265.652	29.52
265.868	88.92
266.084	17.24
266.3	17.24
266.516	19.29
266.732	99.16
266.948	25.43
267.164	15.19
267.38	-9.39
267.596	72.53
267.812	66.39
268.028	72.53
268.244	4.95
268.46	54.1
268.676	-9.39
268.892	56.15
269.108	-15.53
269.324	-15.53
269.54	9.05
269.756	31.57
269.972	35.67
270.188	-7.34
270.403	64.34
270.619	43.86
270.835	43.86
271.051	56.15
271.267	66.39
271.483	115.54
271.698	39.76
271.914	39.76
272.13	43.86
272.346	56.15
272.562	-25.77
272.777	99.16
272.993	-29.87
273.209	-7.34
273.425	-9.39
273.64	17.24
273.856	64.34
274.072	25.43
274.287	15.19
274.503	-5.29
274.719	90.96
274.934	-1.19
275.15	-25.77
275.366	25.43
275.581	-15.53
275.797	35.67
276.012	-13.48
276.228	47.96
276.444	62.29
276.659	66.39
276.875	-13.48
277.09	50
277.306	70.48
277.521	41.81
277.737	39.76
277.952	31.57
278.168	11.09
278.383	31.57
278.599	90.96
278.814	45.91
279.03	41.81
279.245	17.24
279.461	19.29
279.676	93.01
279.892	11.09
280.107	56.15
280.322	31.57
280.538	72.53
280.753	-7.34
280.969	25.43
281.184	41.81
281.399	60.24
281.615	58.2
281.83	43.86
282.045	13.14
282.26	56.15
282.476	27.48
282.691	58.2
282.906	39.76
283.122	37.72
283.337	72.53
283.552	109.4
283.767	-5.29
283.983	113.49
284.198	66.39
284.413	47.96
284.628	-25.77
284.843	25.43
285.058	72.53
285.274	-29.87
285.489	-38.06
285.704	88.92
285.919	11.09
286.134	54.1
286.349	80.72
286.564	64.34
286.779	99.16
286.995	80.72
287.21	17.24
287.425	119.64
287.64	-21.67
287.855	-11.43
288.07	-7.34
288.285	62.29
288.5	39.76
288.715	117.59
288.93	7
289.145	-33.96
289.36	115.54
289.575	4.95
289.79	80.72
290.004	17.24
290.219	97.11
290.434	0.85
290.649	25.43
290.864	56.15
291.079	-50.35
291.294	138.07
291.509	45.91
291.724	-13.48
291.938	17.24
292.153	9.05
292.368	31.57
292.583	27.48
292.798	64.34
293.012	64.34
293.227	39.76
293.442	84.82
293.657	58.2
293.871	17.24
294.086	115.54
294.301	99.16
294.516	101.2
294.73	23.38
294.945	84.82
295.16	52.05
295.374	133.97
295.589	2.9
295.804	-9.39
296.018	31.57
296.233	19.29
296.447	19.29
296.662	60.24
296.877	54.1
297.091	56.15
297.306	-7.34
297.52	-64.68
297.735	88.92
297.949	-17.58
298.164	99.16
298.378	52.05
298.593	41.81
298.807	76.63
299.022	47.96
299.236	105.3
299.451	39.76
299.665	72.53
299.88	23.38
300.094	-13.48
300.309	39.76
300.523	47.96
300.737	31.57
300.952	64.34
301.166	50
301.381	50
301.595	39.76
301.809	37.72
302.024	101.2
302.238	-54.44
302.452	56.15
302.667	33.62
302.881	72.53
303.095	88.92
303.309	62.29
303.524	50
303.738	-17.58
303.952	17.24
304.166	31.57
304.381	-27.82
304.595	23.38
304.809	37.72
305.023	84.82
305.237	-1.19
305.452	68.44
305.666	27.48
305.88	68.44
306.094	47.96
306.308	95.06
306.522	166.74
306.736	33.62
306.95	64.34
307.164	33.62
307.379	31.57
307.593	80.72
307.807	25.43
308.021	97.11
308.235	2.9
308.449	-25.77
308.663	7
308.877	121.68
309.091	45.91
309.305	31.57
309.519	-15.53
309.733	31.57
309.947	0.85
310.161	72.53
310.374	23.38
310.588	43.86
310.802	52.05
311.016	35.67
311.23	33.62
311.444	64.34
311.658	23.38
311.872	15.19
312.085	7
312.299	88.92
312.513	66.39
312.727	19.29
312.941	39.76
313.154	43.86
313.368	99.16
313.582	64.34
313.796	60.24
314.009	2.9
314.223	47.96
314.437	43.86
314.651	119.64
314.864	11.09
315.078	29.52
315.292	47.96
315.505	-31.91
315.719	7
315.933	39.76
316.146	23.38
316.36	-64.68
316.573	95.06
316.787	-9.39
317.001	60.24
317.214	-1.19
317.428	7
317.641	15.19
317.855	74.58
318.068	66.39
318.282	31.57
318.495	19.29
318.709	119.64
318.922	15.19
319.136	93.01
319.349	58.2
319.563	9.05
319.776	111.44
319.99	21.33
320.203	47.96
320.417	50
320.63	23.38
320.843	47.96
321.057	-27.82
321.27	99.16
321.483	80.72
321.697	35.67
321.91	-52.39
322.124	60.24
322.337	7
322.55	-11.43
322.763	-15.53
322.977	-38.06
323.19	15.19
323.403	60.24
323.617	70.48
323.83	56.15
324.043	66.39
324.256	74.58
324.469	-21.67
324.683	78.68
324.896	11.09
325.109	-1.19
325.322	64.34
325.535	93.01
325.748	-5.29
325.962	19.29
326.175	43.86
326.388	76.63
326.601	72.53
326.814	-7.34
327.027	50
327.24	66.39
327.453	-21.67
327.666	50
327.879	-9.39
328.092	80.72
328.305	15.19
328.518	47.96
328.731	19.29
328.944	25.43
329.157	9.05
329.37	90.96
329.583	68.44
329.796	90.96
330.009	7
330.222	88.92
330.435	129.88
330.648	68.44
330.861	50
331.073	47.96
331.286	72.53
331.499	11.09
331.712	4.95
331.925	72.53
332.138	7
332.35	170.83
332.563	33.62
332.776	50
332.989	2.9
333.202	15.19
333.414	2.9
333.627	54.1
333.84	-23.72
334.053	97.11
334.265	33.62
334.478	58.2
334.691	21.33
334.903	33.62
335.116	88.92
335.329	64.34
335.541	103.25
335.754	47.96
335.966	7
336.179	15.19
336.392	17.24
336.604	84.82
336.817	9.05
337.029	9.05
337.242	52.05
337.454	47.96
337.667	31.57
337.88	121.68
338.092	84.82
338.305	68.44
338.517	50
338.729	103.25
338.942	107.35
339.154	-54.44
339.367	23.38
339.579	56.15
339.792	17.24
340.004	64.34
340.217	50
340.429	47.96
340.641	-3.24
340.854	76.63
341.066	88.92
341.278	72.53
341.491	45.91
341.703	41.81
341.915	113.49
342.128	39.76
342.34	56.15
342.552	127.83
342.764	64.34
342.977	-42.15
343.189	29.52
343.401	-17.58
343.613	-7.34
343.826	72.53
344.038	-25.77
344.25	43.86
344.462	0.85
344.674	95.06
344.886	72.53
345.099	74.58
345.311	56.15
345.523	35.67
345.735	4.95
345.947	19.29
346.159	-3.24
346.371	-9.39
346.583	-33.96
346.795	105.3
347.007	-15.53
347.219	19.29
347.431	56.15
347.643	99.16
347.855	78.68
348.067	29.52
348.279	-36.01
348.491	4.95
348.703	13.14
348.915	76.63
349.127	58.2
349.339	74.58
349.551	-25.77
349.763	17.24
349.975	60.24
350.187	97.11
350.399	117.59
350.61	13.14
350.822	131.92
351.034	93.01
351.246	23.38
351.458	15.19
351.669	56.15
351.881	90.96
352.093	66.39
352.305	121.68
352.517	39.76
352.728	25.43
352.94	2.9
353.152	84.82
353.363	19.29
353.575	84.82
353.787	90.96
353.999	52.05
354.21	90.96
354.422	129.88
354.633	45.91
354.845	33.62
355.057	47.96
355.268	82.77
355.48	-29.87
355.692	-5.29
355.903	90.96
356.115	76.63
356.326	4.95
356.538	47.96
356.749	115.54
356.961	138.07
357.172	-38.06
357.384	74.58
357.595	131.92
357.807	72.53
358.018	50
358.23	-17.58
358.441	121.68
358.653	88.92
358.864	15.19
359.075	35.67
359.287	99.16
359.498	117.59
359.709	90.96
359.921	0.85
360.132	-5.29
360.344	47.96
360.555	47.96
360.766	41.81
360.977	-1.19
361.189	125.78
361.4	11.09
361.611	113.49
361.823	84.82
362.034	80.72
362.245	2.9
362.456	88.92
362.667	113.49
362.879	43.86
363.09	39.76
363.301	82.77
363.512	-3.24
363.723	29.52
363.935	23.38
364.146	97.11
364.357	82.77
364.568	58.2
364.779	33.62
364.99	82.77
365.201	4.95
365.412	41.81
365.623	17.24
365.834	129.88
366.045	88.92
366.256	66.39
366.467	84.82
366.678	64.34
366.889	101.2
367.1	47.96
367.311	80.72
367.522	58.2
367.733	31.57
367.944	80.72
368.155	52.05
368.366	133.97
368.577	97.11
368.788	127.83
368.999	47.96
369.209	97.11
369.42	84.82
369.631	95.06
369.842	37.72
370.053	70.48
370.264	33.62
370.474	56.15
370.685	35.67
370.896	31.57
371.107	72.53
371.317	78.68
371.528	60.24
371.739	72.53
371.95	97.11
372.16	101.2
372.371	41.81
372.582	31.57
372.792	17.24
373.003	107.35
373.214	27.48
373.424	117.59
373.635	21.33
373.846	129.88
374.056	66.39
374.267	52.05
374.477	35.67
374.688	39.76
374.898	25.43
375.109	58.2
375.319	105.3
375.53	50
375.74	39.76
375.951	107.35
376.161	82.77
376.372	119.64
376.582	-17.58
376.793	25.43
377.003	41.81
377.214	7
377.424	68.44
377.635	17.24
377.845	-7.34
378.055	131.92
378.266	39.76
378.476	21.33
378.686	-9.39
378.897	25.43
379.107	64.34
379.317	-38.06
379.528	74.58
379.738	50
379.948	111.44
380.158	107.35
380.369	19.29
380.579	107.35
380.789	90.96
380.999	99.16
381.21	29.52
381.42	129.88
381.63	90.96
381.84	23.38
382.05	74.58
382.261	35.67
382.471	64.34
382.681	138.07
382.891	158.55
383.101	29.52
383.311	7
383.521	25.43
383.731	111.44
383.941	88.92
384.151	99.16
384.361	129.88
384.571	68.44
384.781	95.06
384.991	72.53
385.201	109.4
385.411	9.05
385.621	140.12
385.831	7
386.041	50
386.251	56.15
386.461	47.96
386.671	-15.53
386.881	60.24
387.091	50
387.301	84.82
387.511	76.63
387.72	21.33
387.93	113.49
388.14	68.44
388.35	80.72
388.56	129.88
388.769	90.96
388.979	68.44
389.189	0.85
389.399	66.39
389.609	31.57
389.818	82.77
390.028	131.92
390.238	64.34
390.447	39.76
390.657	66.39
390.867	43.86
391.076	56.15
391.286	125.78
391.496	74.58
391.705	19.29
391.915	41.81
392.125	105.3
392.334	93.01
392.544	47.96
392.753	33.62
392.963	58.2
393.172	121.68
393.382	99.16
393.591	121.68
393.801	52.05
394.01	185.17
394.22	68.44
394.429	76.63
394.639	154.45
394.848	82.77
395.058	31.57
395.267	17.24
395.477	168.79
395.686	97.11
395.895	222.03
396.105	215.89
396.314	88.92
396.524	140.12
396.733	105.3
396.942	170.83
397.152	121.68
397.361	107.35
397.57	50
397.78	84.82
397.989	121.68
398.198	80.72
398.407	121.68
398.617	72.53
398.826	109.4
399.035	97.11
399.244	117.59
399.453	58.2
399.663	99.16
399.872	123.73
400.081	90.96
400.29	131.92
400.499	58.2
400.708	113.49
400.917	148.31
401.127	105.3
401.336	74.58
401.545	154.45
401.754	121.68
401.963	119.64
402.172	88.92
402.381	166.74
402.59	113.49
402.799	162.64
403.008	158.55
403.217	90.96
403.426	129.88
403.635	117.59
403.844	195.41
404.053	164.69
404.262	15.19
404.471	121.68
404.68	162.64
404.888	158.55
405.097	113.49
405.306	181.07
405.515	224.08
405.724	181.07
405.933	181.07
406.142	105.3
406.35	246.61
406.559	187.22
406.768	179.03
406.977	242.51
407.185	148.31
407.394	213.84
407.603	195.41
407.812	260.95
408.02	287.57
408.229	277.33
408.438	213.84
408.646	197.46
408.855	310.1
409.064	283.47
409.272	293.71
409.481	310.1
409.69	328.53
409.898	365.39
410.107	367.44
410.315	381.78
410.524	371.54
410.733	359.25
410.941	379.73
411.15	385.87
411.358	428.88
411.567	449.36
411.775	406.35
411.984	447.31
412.192	531.28
412.401	416.59
412.609	521.04
412.818	541.52
413.026	510.8
413.234	416.59
413.443	539.47
413.651	621.39
413.86	662.35
414.068	639.82
414.276	686.92
414.485	633.68
414.693	713.55
414.901	779.08
415.11	756.55
415.318	785.23
415.526	729.93
415.734	869.19
415.943	877.38
416.151	842.57
416.359	883.53
416.567	926.54
416.776	942.92
416.984	1006.41
417.192	1051.46
417.4	1035.08
417.608	1082.18
417.817	1117
418.025	1096.52
418.233	1282.88
418.441	1178.44
418.649	1356.61
418.857	1315.65
419.065	1391.42
419.273	1325.89
419.481	1407.81
419.689	1608.51
419.897	1737.53
420.105	1684.28
420.313	1690.43
420.521	1760.06
420.729	1825.59
420.937	1776.44
421.145	1887.03
421.353	1948.47
421.561	2120.5
421.769	2140.98
421.977	2343.73
422.185	2239.28
422.393	2423.6
422.601	2562.86
422.809	2480.94
423.017	2513.71
423.224	2579.25
423.432	2835.24
423.64	2825
423.848	2917.16
424.056	2857.77
424.263	2964.26
424.471	3083.05
424.679	3164.97
424.887	3296.04
425.094	3531.55
425.302	3472.16
425.51	3556.13
425.718	3662.62
425.925	3660.57
426.133	3775.26
426.341	4088.6
426.548	4150.04
426.756	4303.64
426.964	4256.53
427.171	4543.25
427.379	4582.16
427.586	4692.75
427.794	4834.06
428.001	5147.4
428.209	5286.66
428.417	5251.85
428.624	5671.68
428.832	5624.58
429.039	5475.07
429.247	5626.62
429.454	6134.52
429.662	6376.18
429.869	6136.57
430.076	6644.46
430.284	6165.24
430.491	6597.36
430.699	7099.11
430.906	6867.69
431.114	7004.91
431.321	7142.12
431.528	7297.77
431.736	7903.96
431.943	8211.16
432.15	7971.55
432.358	8030.94
432.565	8366.81
432.772	8538.84
432.979	8815.31
433.187	9018.06
433.394	8973
433.601	9544.39
433.808	9685.7
434.016	9704.13
434.223	10152.63
434.43	10838.7
434.637	10410.68
434.844	11207.34
435.052	11272.87
435.259	11393.7
435.466	11283.11
435.673	11266.73
435.88	12020.38
436.087	12462.74
436.294	12608.15
436.501	12366.49
436.708	12452.5
436.915	12909.2
437.122	13601.41
437.329	13630.09
437.537	13933.18
437.743	14187.13
437.95	14035.58
438.157	14895.73
438.364	15190.64
438.571	15137.39
438.778	15237.74
438.985	16851.54
439.192	16128.61
439.399	16398.94
439.606	15809.12
439.813	17119.82
440.02	18096.71
440.227	17635.91
440.433	17603.14
440.64	17984.07
440.847	17783.37
441.054	18416.19
441.261	19673.64
441.467	19118.64
441.674	19753.51
441.881	20562.46
442.088	20490.78
442.294	20245.02
442.501	20806.17
442.708	21322.26
442.914	22051.33
443.121	22897.14
443.328	22319.62
443.534	23943.66
443.741	23278.07
443.948	22718.97
444.154	24562.14
444.361	24560.09
444.568	24416.74
444.774	24801.75
444.981	25012.7
445.187	25688.53
445.394	26511.81
445.6	26239.43
445.807	28907.93
446.013	27406.77
446.22	27826.6
446.426	28705.18
446.633	29403.54
446.839	30009.74
447.046	29084.06
447.252	30706.05
447.459	30755.2
447.665	30853.5
447.871	31914.35
448.078	32903.52
448.284	31693.17
448.491	32409.96
448.697	33700.18
448.903	34341.19
449.11	34414.92
449.316	33790.29
449.522	34636.1
449.728	35549.49
449.935	35701.04
450.141	35443
450.347	36475.18
450.553	35309.88
450.76	35754.29
450.966	36921.63
451.172	36491.56
451.378	37490.97
451.584	36327.72
451.791	37417.24
451.997	37742.87
452.203	37910.8
452.409	38220.05
452.615	37968.15
452.821	36356.39
453.027	36045.1
453.233	37988.63
453.44	36323.63
453.646	36659.49
453.852	36796.71
454.058	37810.45
454.264	36245.8
454.47	36991.26
454.676	36213.04
454.882	37652.76
455.088	34449.74
455.294	34668.87
455.5	34957.63
455.705	35533.11
455.911	34148.68
456.117	33532.25
456.323	32858.46
456.529	30998.91
456.735	32571.75
456.941	31805.81
457.147	30941.57
457.352	30062.99
457.558	29858.19
457.764	30159.24
457.97	29096.35
458.176	28774.81
458.381	28875.16
458.587	27486.64
458.793	27496.88
458.999	25723.34
459.204	27429.3
459.41	26718.65
459.616	25082.33
459.821	25231.83
460.027	24936.92
460.233	24463.84
460.438	23095.8
460.644	23435.76
460.85	22362.62
461.055	22323.71
461.261	22342.14
461.466	20279.84
461.672	19724.84
461.878	21002.77
462.083	19757.61
462.289	19407.41
462.494	19413.55
462.7	18205.25
462.905	18076.23
463.111	18221.63
463.316	18545.21
463.522	18104.9
463.727	18217.54
463.932	18061.89
464.138	17597
464.343	17611.34
464.549	17291.85
464.754	18018.88
464.959	17750.6
465.165	17361.48
465.37	17042
465.575	16280.16
465.781	17265.23
465.986	17228.37
466.191	16366.17
466.397	16335.45
466.602	15370.86
466.807	15850.08
467.012	15772.26
467.218	15841.89
467.423	15563.37
467.628	15700.58
467.833	16521.82
468.038	15673.96
468.244	15180.4
468.449	15753.83
468.654	15170.16
468.859	15276.65
469.064	15080.05
469.269	14621.3
469.474	14748.28
469.679	15010.42
469.885	14451.32
470.09	14668.41
470.295	14490.23
470.5	13998.72
470.705	14535.29
470.91	13666.95
471.115	13927.04
471.32	14049.92
471.525	13818.5
471.73	13757.06
471.935	13181.58
472.139	12966.54
472.344	13103.76
472.549	13173.39
472.754	12802.71
472.959	12528.28
473.164	12417.69
473.369	12362.39
473.574	12581.53
473.778	12372.63
473.983	12483.22
474.188	12335.77
474.393	11836.06
474.598	11768.48
474.802	11690.66
475.007	11713.19
475.212	11651.75
475.417	11373.22
475.621	11217.58
475.826	11248.3
476.031	10963.63
476.235	10789.55
476.44	10928.81
476.645	10783.41
476.849	10771.12
477.054	10576.56
477.259	10572.47
477.463	10447.54
477.668	10173.11
477.872	10265.27
478.077	10218.17
478.282	9964.22
478.486	9810.62
478.691	9640.64
478.895	9648.83
479.1	9632.45
479.304	9624.26
479.509	9482.95
479.713	9740.99
479.918	9378.5
480.122	9214.66
480.326	9317.06
480.531	9366.21
480.735	9237.19
480.94	9173.71
481.144	9577.16
481.348	9026.25
481.553	9163.47
481.757	8981.2
481.961	9280.2
482.166	9294.54
482.37	9034.44
482.574	8915.66
482.778	8809.17
482.983	8997.58
483.187	8895.18
483.391	8911.57
483.595	8942.28
483.8	9009.87
484.004	9102.03
484.208	9165.51
484.412	8956.62
484.616	9175.75
484.821	8901.33
485.025	8762.06
485.229	8684.24
485.433	8811.21
485.637	8936.14
485.841	8780.5
486.045	8762.06
486.249	8854.22
486.453	8659.67
486.657	8938.19
486.861	8913.61
487.065	8542.93
487.269	8723.15
487.473	8682.19
487.677	8864.46
487.881	9048.78
488.085	8778.45
488.289	8848.08
488.493	8932.05
488.697	8821.45
488.901	8829.65
489.105	8846.03
489.309	8864.46
489.512	8977.1
489.716	8891.09
489.92	8780.5
490.124	8850.13
490.328	8938.19
490.531	8975.05
490.735	8944.33
490.939	8821.45
491.143	8993.48
491.346	8649.43
491.55	9134.79
491.754	8983.24
491.958	9188.04
492.161	9020.11
492.365	9165.51
492.569	9145.03
492.772	9192.14
492.976	9104.07
493.18	9241.29
493.383	9298.63
493.587	9376.45
493.79	9595.59
493.994	9372.36
494.197	9325.26
494.401	9642.69
494.605	9405.13
494.808	9605.83
495.012	9730.75
495.215	9757.38
495.419	9874.11
495.622	9747.14
495.825	9798.34
496.029	9800.38
496.232	9953.98
496.436	9929.41
496.639	10267.32
496.843	10209.98
497.046	10377.91
497.249	10353.34
497.453	10666.67
497.656	10484.41
497.859	10578.61
498.063	10707.63
498.266	11092.65
498.469	10844.85
498.673	10785.46
498.876	11178.67
499.079	11184.81
499.282	11311.78
499.485	11477.67
499.689	11418.28
499.892	11784.87
500.095	11508.39
500.298	11881.12
500.501	11823.78
500.705	12237.47
500.908	12255.9
501.111	12274.33
501.314	12515.99
501.517	12503.7
501.72	12602.01
501.923	12610.2
502.126	13083.28
502.329	13288.07
502.532	13134.48
502.735	13322.89
502.938	13662.85
503.141	13607.56
503.344	13673.09
503.547	13744.77
503.75	14013.06
503.953	14299.77
504.156	14258.81
504.359	14213.76
504.562	14385.79
504.765	14776.95
504.968	14957.17
505.17	15000.18
505.373	14885.49
505.576	15252.08
505.779	15563.37
505.982	15422.06
506.185	15899.23
506.387	15764.07
506.59	15985.25
506.793	16235.1
506.996	16212.57
507.198	16620.12
507.401	16495.19
507.604	16888.4
507.807	17082.96
508.009	17326.67
508.212	17160.78
508.415	17611.34
508.617	17654.34
508.82	17586.76
509.022	17670.73
509.225	18385.47
509.428	18063.94
509.63	18260.54
509.833	18418.24
510.035	19001.91
510.238	18784.82
510.44	19094.07
510.643	19241.52
510.845	19407.41
511.048	19348.01
511.25	19614.25
511.453	19876.39
511.655	20396.57
511.858	20341.28
512.06	20591.13
512.262	20982.29
512.465	20587.04
512.667	20961.81
512.87	21187.09
513.072	21168.66
513.274	21813.77
513.477	21918.21
513.679	21983.75
513.881	22151.68
514.084	22352.38
514.286	22485.5
514.488	22678.01
514.69	23288.31
514.893	22827.51
515.095	23345.65
515.297	23888.36
515.499	23824.87
515.701	23757.29
515.904	24062.44
516.106	24257
516.308	24670.68
516.51	24562.14
516.712	25039.32
516.914	25143.77
517.116	25446.87
517.318	25870.79
517.52	25678.29
517.722	25706.96
517.925	25858.51
518.127	26411.46
518.329	26745.28
518.531	26096.07
518.733	26470.85
518.935	27404.72
519.136	26978.75
519.338	27277.75
519.54	27593.14
519.742	27691.44
519.944	27701.68
520.146	28017.07
520.348	28131.75
520.55	28078.5
520.752	28395.94
520.954	28813.73
521.155	28613.02
521.357	29184.41
521.559	29481.36
521.761	29739.41
521.963	29559.19
522.164	29325.72
522.366	29374.87
522.568	29929.87
522.77	30228.87
522.971	30398.85
523.173	30001.55
523.375	30054.79
523.576	30228.87
523.778	30353.8
523.98	30581.12
524.181	30523.78
524.383	30792.06
524.584	31054.2
524.786	30738.82
524.988	30976.38
525.189	31478.13
525.391	31576.44
525.592	31402.36
525.794	31445.37
525.995	31803.76
526.197	31211.9
526.398	31164.79
526.6	31936.88
526.801	31697.27
527.003	31611.25
527.204	31861.1
527.406	31854.96
527.607	31625.59
527.808	31848.82
528.01	31449.46
528.211	32086.38
528.412	32553.32
528.614	32143.72
528.815	32000.37
529.016	32129.39
529.218	31838.58
529.419	31957.36
529.62	32162.15
529.822	31977.84
530.023	31605.11
530.224	31994.22
530.425	31854.96
530.626	31519.09
530.828	31373.69
531.029	32293.22
531.23	31588.72
531.431	31433.08
531.632	31646.07
531.833	31955.31
532.035	31379.83
532.236	31492.47
532.437	31629.68
532.638	31289.72
532.839	31664.5
533.04	31644.02
533.241	31064.44
533.442	31723.89
533.643	31359.35
533.844	31455.61
534.045	31693.17
534.246	30937.47
534.447	31486.32
534.648	31007.1
534.849	31273.34
535.05	31132.03
535.251	31125.88
535.451	30912.89
535.652	30886.27
535.853	30714.24
536.054	30988.67
536.255	31175.03
536.456	30626.18
536.657	31318.39
536.857	30765.44
537.058	30738.82
537.259	30853.5
537.46	30847.36
537.66	30607.75
537.861	30779.78
538.062	30245.26
538.263	30523.78
538.463	30534.02
538.664	30701.95
538.865	30470.53
539.065	30601.6
539.266	30179.72
539.466	30579.07
539.667	30171.53
539.868	30972.28
540.068	30372.23
540.269	30181.77
540.469	30730.62
540.67	30073.23
540.87	30187.91
541.071	30019.98
541.271	30310.79
541.472	30200.2
541.672	29911.44
541.873	30011.79
542.073	29637.01
542.274	30017.93
542.474	30105.99
542.675	29798.8
542.875	30044.55
543.075	29917.58
543.276	29870.48
543.476	30192.01
543.676	30249.35
543.877	30308.74
544.077	29798.8
544.277	29927.82
544.478	29991.31
544.678	30001.55
544.878	30013.84
545.078	30007.69
545.279	29598.1
545.479	29776.27
545.679	29888.91
545.879	29792.65
546.079	29759.89
546.28	29565.33
546.48	29305.24
546.68	29882.77
546.88	29673.87
547.08	29864.33
547.28	29925.77
547.48	29501.84
547.68	29661.58
547.88	29544.85
548.081	29895.05
548.281	29696.4
548.481	29643.15
548.681	29786.51
548.881	29786.51
549.081	29604.24
549.28	29583.76
549.48	29847.95
549.68	29594
549.88	30024.08
550.08	29573.52
550.28	29747.6
550.48	29895.05
550.68	29802.89
550.88	29665.68
551.08	29694.35
551.279	30194.06
551.479	29700.5
551.679	30034.32
551.879	29643.15
552.079	29944.2
552.278	29979.02
552.478	29528.47
552.678	29680.02
552.878	30003.6
553.077	29966.73
553.277	29671.82
553.477	30149
553.676	29591.95
553.876	30069.13
554.076	29966.73
554.275	30103.95
554.475	29716.88
554.674	30044.55
554.874	29733.26
555.074	30054.79
555.273	30099.85
555.473	30257.54
555.672	29858.19
555.872	30189.96
556.071	30030.22
556.271	30130.57
556.47	29790.61
556.67	29725.07
556.869	30048.65
557.068	30165.39
557.268	30050.7
557.467	29948.3
557.667	30300.55
557.866	30179.72
558.065	30071.18
558.265	29940.11
558.464	29669.78
558.663	30155.15
558.863	29964.68
559.062	30552.45
559.261	29815.18
559.461	30507.4
559.66	29706.64
559.859	30142.86
560.058	29946.25
560.258	30171.53
560.457	29974.92
560.656	30294.41
560.855	30138.76
561.054	29987.21
561.253	30028.17
561.453	30218.63
561.652	30040.46
561.851	30189.96
562.05	29667.73
562.249	29888.91
562.448	30273.93
562.647	30536.07
562.846	30140.81
563.045	30108.04
563.244	29985.16
563.443	30124.43
563.642	29763.98
563.841	29831.57
564.04	30054.79
564.239	30325.13
564.438	29661.58
564.637	29837.71
564.836	29811.09
565.035	29749.65
565.234	29634.96
565.432	29335.96
565.631	29528.47
565.83	29806.99
566.029	29405.59
566.228	29223.32
566.427	29524.37
566.625	29565.33
566.824	29065.63
567.023	29381.01
567.222	29043.1
567.42	29327.77
567.619	29198.74
567.818	29200.79
568.016	29366.68
568.215	29565.33
568.414	29245.85
568.612	29395.35
568.811	28823.97
569.01	28914.08
569.208	28731.81
569.407	29045.15
569.605	28627.36
569.804	29135.26
570.002	28811.68
570.201	28733.85
570.4	28408.23
570.598	28219.81
570.797	28484
570.995	28131.75
571.193	27912.62
571.392	28203.43
571.59	28529.06
571.789	28072.36
571.987	27847.08
572.186	27912.62
572.384	27943.34
572.582	27799.98
572.781	28252.58
572.979	27589.04
573.177	27607.47
573.376	27640.24
573.574	27531.7
573.772	27662.77
573.971	27484.59
574.169	27115.96
574.367	27220.41
574.565	26849.72
574.763	26835.39
574.962	26763.71
575.16	26952.12
575.358	26986.94
575.556	26595.78
575.754	26851.77
575.952	26376.64
576.151	26935.74
576.349	26548.67
576.547	26386.88
576.745	26530.24
576.943	26468.8
577.141	26204.61
577.339	26208.71
577.537	25985.48
577.735	26321.35
577.933	26055.11
578.131	26112.45
578.329	25897.42
578.527	25545.17
578.725	25874.89
578.923	25737.68
579.121	25405.91
579.319	25426.39
579.516	25530.83
579.714	25598.41
579.912	25389.52
580.11	25217.49
580.308	25375.19
580.506	24994.26
580.704	24650.21
580.901	24992.22
581.099	25201.11
581.297	24898.01
581.495	24613.34
581.692	24635.87
581.89	24642.01
582.088	24863.19
582.285	24685.02
582.483	24562.14
582.681	24803.8
582.878	24469.98
583.076	23779.82
583.274	24648.16
583.471	24046.05
583.669	24052.2
583.866	24025.57
584.064	24195.56
584.262	23871.98
584.459	24009.19
584.657	23785.96
584.854	23964.14
585.052	23400.94
585.249	23740.91
585.447	23538.16
585.644	23452.14
585.841	23792.11
586.039	23699.95
586.236	23493.1
586.434	23200.24
586.631	23536.11
586.828	23419.38
587.026	23648.75
587.223	22954.49
587.42	22981.11
587.618	23106.04
587.815	22825.47
588.012	22958.58
588.21	22864.38
588.407	22950.39
588.604	22776.31
588.801	22686.2
588.999	22456.83
589.196	22721.02
589.393	22741.5
589.59	22663.68
589.787	22505.98
589.984	22606.33
590.182	22249.99
590.379	22972.92
590.576	22413.82
590.773	22239.75
590.97	22333.95
591.167	22202.88
591.364	21934.6
591.561	22028.81
591.758	22053.38
591.955	21942.79
592.152	22088.2
592.349	22104.58
592.546	22024.71
592.743	21905.93
592.94	21492.24
593.137	21944.84
593.334	21832.2
593.531	21799.43
593.727	21914.12
593.924	21778.95
594.121	21717.51
594.318	21740.04
594.515	21584.4
594.712	21781
594.908	21367.31
595.105	21486.09
595.302	21240.34
595.499	21412.37
595.696	21418.51
595.892	21287.44
596.089	21533.2
596.286	21455.37
596.482	21432.85
596.679	21090.84
596.876	21463.57
597.072	21281.3
597.269	21637.64
597.466	21314.06
597.662	21015.06
597.859	21418.51
598.055	21422.61
598.252	21469.71
598.448	21248.53
598.645	21250.58
598.841	21359.12
599.038	21324.3
599.234	21121.56
599.431	21099.03
599.627	21244.43
599.824	21436.94
600.02	21512.72
600.217	21142.03
600.413	21301.78
600.609	21215.76
600.806	21207.57
601.002	21834.25
601.198	21305.87
601.395	21176.85
601.591	21408.27
601.787	21250.58
601.984	21297.68
602.18	21334.54
602.376	21352.98
602.572	21535.24
602.769	21740.04
602.965	21426.7
603.161	21543.44
603.357	21516.81
603.553	21703.18
603.75	21705.23
603.946	21723.66
604.142	21938.69
604.338	21418.51
604.534	21987.85
604.73	21838.34
604.926	21674.51
605.122	22014.47
605.318	22057.48
605.514	21637.64
605.71	21543.44
605.906	22057.48
606.102	21907.98
606.298	22002.18
606.494	22077.96
606.69	21920.26
606.886	22090.24
607.082	21813.77
607.278	22270.47
607.474	21850.63
607.67	22288.9
607.866	21881.35
608.062	22374.91
608.257	22037
608.453	22596.09
608.649	22405.63
608.845	22206.98
609.041	22254.08
609.236	22575.61
609.432	22491.65
609.628	22684.16
609.824	22661.63
610.019	22532.61
610.215	22596.09
610.411	22946.3
610.606	22565.37
610.802	22821.37
610.998	22600.19
611.193	23058.93
611.389	22690.3
611.584	22800.89
611.78	22966.77
611.976	23190
612.171	22641.15
612.367	23263.73
612.562	22811.13
612.758	22768.12
612.953	23067.13
613.149	22974.97
613.344	22979.06
613.539	23415.28
613.735	23261.68
613.93	23288.31
614.126	23245.3
614.321	23380.46
614.517	23101.94
614.712	23366.13
614.907	23380.46
615.103	23413.23
615.298	23286.26
615.493	23665.13
615.688	23050.74
615.884	23816.68
616.079	23112.18
616.274	23534.06
616.47	23509.49
616.665	23564.78
616.86	23337.46
617.055	23417.33
617.25	23556.59
617.445	23396.85
617.641	22716.92
617.836	23400.94
618.031	23060.98
618.226	23187.96
618.421	23194.1
618.616	23552.49
618.811	22880.76
619.006	23478.77
619.201	22891
619.396	23032.31
619.591	23060.98
619.786	23228.91
619.981	22675.96
620.176	22757.88
620.371	22532.61
620.566	22909.43
620.761	22759.93
620.956	22878.71
621.151	22438.4
621.346	22796.79
621.541	22135.3
621.735	22321.66
621.93	22104.58
622.125	22024.71
622.32	22030.85
622.515	22034.95
622.709	21875.21
622.904	21867.02
623.099	21699.08
623.294	21799.43
623.488	21496.33
623.683	21586.44
623.878	21084.69
624.072	21271.06
624.267	21369.36
624.462	21174.8
624.656	20967.96
624.851	21113.36
625.046	20945.43
625.24	20871.7
625.435	20603.42
625.629	20845.08
625.824	20384.29
626.018	20623.9
626.213	19946.02
626.407	20433.44
626.602	20068.9
626.796	20109.86
626.991	20038.18
627.185	19806.76
627.38	19814.95
627.574	19663.4
627.768	19677.74
627.963	19702.31
628.157	19124.79
628.352	19071.54
628.546	19194.42
628.74	19382.83
628.935	18917.94
629.129	18778.68
629.323	18833.97
629.517	18750.01
629.712	18778.68
629.906	18577.98
630.1	18405.95
630.294	18303.55
630.489	18152
630.683	18631.23
630.877	17838.66
631.071	18133.57
631.265	17930.82
631.459	18340.41
631.653	17799.75
631.848	17703.5
632.042	17859.14
632.236	17773.13
632.43	17482.31
632.624	17502.79
632.818	17414.73
633.012	17173.07
633.206	17021.52
633.4	17314.38
633.594	16867.92
633.788	16929.36
633.982	16955.99
634.176	17189.46
634.369	16792.15
634.563	16673.37
634.757	16636.5
634.951	16544.34
635.145	16448.09
635.339	16409.18
635.533	16269.92
635.726	16169.57
635.92	15981.15
636.114	15936.1
636.308	15932
636.501	15798.88
636.695	15397.48
636.889	15587.94
637.083	15647.33
637.276	15393.39
637.47	15209.07
637.664	15207.02
637.857	15168.11
638.051	15272.56
638.244	14924.4
638.438	14887.54
638.632	14793.33
638.825	14639.73
639.019	14735.99
639.212	14418.55
639.406	14477.94
639.599	14443.13
639.793	14371.45
639.986	14113.41
640.18	14178.94
640.373	14084.73
640.567	13920.9
640.76	13869.7
640.954	13589.13
641.147	13908.61
641.34	13732.48
641.534	13748.87
641.727	13677.19
641.92	13531.78
642.114	13355.66
642.307	13136.52
642.5	13126.29
642.694	12946.06
642.887	12724.88
643.08	12970.64
643.273	12966.54
643.467	12835.47
643.66	12599.96
643.853	12642.96
644.046	12589.72
644.239	12608.15
644.432	12544.66
644.626	12380.82
644.819	12350.1
645.012	12364.44
645.205	12057.25
645.398	12116.64
645.591	11965.09
645.784	11909.79
645.977	11842.21
646.17	11858.59
646.363	11750.05
646.556	11604.64
646.749	11426.47
646.942	11600.55
647.135	11463.33
647.328	11295.4
647.521	11172.52
647.714	10975.92
647.907	11166.38
648.099	11174.57
648.292	11053.74
648.485	10922.67
648.678	10730.16
648.871	10846.9
649.064	10650.29
649.256	10713.78
649.449	10592.95
649.642	10631.86
649.835	10345.14
650.027	10611.38
650.22	10365.62
650.413	10472.12
650.605	10291.9
650.798	10164.92
650.991	10050.24
651.183	10093.24
651.376	9935.55
651.568	9929.41
651.761	9779.9
651.954	9960.13
652.146	9919.17
652.339	9667.27
652.531	9538.24
652.724	9568.96
652.916	9388.74
653.109	9679.55
653.301	9646.79
653.494	9441.99
653.686	9214.66
653.879	9263.82
654.071	9269.96
654.263	9077.45
654.456	9337.54
654.648	8979.15
654.84	9231.05
655.033	9255.62
655.225	9102.03
655.417	9079.5
655.61	8993.48
655.802	8938.19
655.994	8704.72
656.186	8737.49
656.379	8700.62
656.571	8852.17
656.763	8600.27
656.955	8477.4
657.148	8690.38
657.34	8563.41
657.532	8495.83
657.724	8434.39
657.916	8442.58
658.108	8395.48
658.3	8198.87
658.492	8260.31
658.684	8182.49
658.876	8184.54
659.068	8155.86
659.26	8032.99
659.452	7940.83
659.644	7989.98
659.836	7865.05
660.028	7979.74
660.22	7783.13
660.412	7740.13
660.604	7570.15
660.796	7594.72
660.988	7504.61
661.18	7762.65
661.372	7561.95
661.563	7469.8
661.755	7394.02
661.947	7518.95
662.139	7447.27
662.331	7277.29
662.522	7170.79
662.714	7207.66
662.906	7166.7
663.097	7070.44
663.289	7084.78
663.481	7029.48
663.673	7033.58
663.864	7039.72
664.056	6908.65
664.247	7037.67
664.439	6851.31
664.631	6974.19
664.822	6865.64
665.014	6773.49
665.205	6755.05
665.397	6644.46
665.588	6583.02
665.78	6497.01
665.971	6556.4
666.163	6669.04
666.354	6494.96
666.546	6566.64
666.737	6527.73
666.929	6503.15
667.12	6431.48
667.311	6349.56
667.503	6324.98
667.694	6304.5
667.885	6220.53
668.077	6208.25
668.268	6216.44
668.459	6271.73
668.651	6243.06
668.842	6068.98
669.033	6138.62
669.224	6159.1
669.416	6134.52
669.607	6118.14
669.798	6028.03
669.989	6187.77
670.18	5909.24
670.371	5970.68
670.563	5835.52
670.754	6005.5
670.945	5892.86
671.136	5872.38
671.327	5802.75
671.518	5702.4
671.709	5657.34
671.9	5800.7
672.091	5694.21
672.282	5686.01
672.473	5610.24
672.664	5647.1
672.855	5647.1
673.046	5589.76
673.237	5473.03
673.428	5481.22
673.619	5640.96
673.809	5688.06
674	5638.91
674.191	5470.98
674.382	5462.79
674.573	5511.94
674.764	5569.28
674.954	5511.94
675.145	5309.19
675.336	5290.76
675.527	5479.17
675.717	5301
675.908	5341.96
676.099	5352.2
676.289	5597.95
676.48	5243.65
676.671	5364.48
676.861	5325.57
677.052	5255.94
677.243	5245.7
677.433	5319.43
677.624	5239.56
677.814	5276.42
678.005	5141.25
678.195	5286.66
678.386	5214.98
678.576	5124.87
678.767	5184.26
678.957	5124.87
679.148	5114.63
679.338	5212.93
679.529	5188.36
679.719	5008.14
679.909	5161.73
680.1	5090.06
680.29	5110.54
680.481	5045
680.671	5163.78
680.861	5090.06
681.052	5171.97
681.242	5114.63
681.432	5016.33
681.622	5200.65
681.813	5069.58
682.003	5069.58
682.193	5139.21
682.383	5094.15
682.573	5014.28
682.764	4981.51
682.954	5024.52
683.144	5077.77
683.334	4913.93
683.524	5061.38
683.714	5077.77
683.904	5042.95
684.094	5143.3
684.284	5071.62
684.474	5018.38
684.664	4946.7
684.854	4930.31
685.044	4963.08
685.234	4875.02
685.424	5065.48
685.614	4881.16
685.804	4881.16
685.994	5006.09
686.184	5088.01
686.374	4918.03
686.564	4975.37
686.753	4975.37
686.943	4815.63
687.133	4893.45
687.323	4846.35
687.513	4864.78
687.702	4688.65
687.892	4848.4
688.082	4729.61
688.272	4997.9
688.461	4637.45
688.651	4840.2
688.841	4737.81
689.03	4662.03
689.22	4645.65
689.41	4727.57
689.599	4733.71
689.789	4715.28
689.979	4817.68
690.168	4778.76
690.358	4786.96
690.547	4692.75
690.737	4733.71
690.926	4631.31
691.116	4475.67
691.305	4651.79
691.495	4784.91
691.684	4578.06
691.874	4596.5
692.063	4565.78
692.252	4651.79
692.442	4526.86
692.631	4594.45
692.82	4455.19
693.01	4586.26
693.199	4446.99
693.388	4438.8
693.578	4502.29
693.767	4434.71
693.956	4416.27
694.146	4518.67
694.335	4356.88
694.524	4262.68
694.713	4457.23
694.902	4326.16
695.092	4260.63
695.281	4242.2
695.47	4401.94
695.659	4299.54
695.848	4352.79
696.037	4354.83
696.226	4246.29
696.415	4358.93
696.604	4299.54
696.793	4332.31
696.982	4377.36
697.171	4178.71
697.36	4395.79
697.549	4211.48
697.738	4211.48
697.927	4070.17
698.116	4315.92
698.305	4156.18
698.494	4201.24
698.683	4193.05
698.872	4266.77
699.061	4274.96
699.25	4006.68
699.438	4277.01
699.627	3955.48
699.816	4076.31
700.005	4113.17
700.193	4225.81
700.382	4127.51
700.571	4041.5
700.76	4057.88
700.948	4221.72
701.137	4021.02
701.326	4066.07
701.514	4066.07
701.703	4078.36
701.892	4090.65
702.08	4238.1
702.269	4010.78
702.457	4006.68
702.646	3885.85
702.834	3894.04
703.023	3910.43
703.212	3982.1
703.4	3906.33
703.589	3820.32
703.777	4002.58
703.965	3844.89
704.154	3765.02
704.342	3887.9
704.531	3818.27
704.719	3881.75
704.907	3877.66
705.096	3808.03
705.284	3808.03
705.472	3808.03
705.661	3726.11
705.849	3799.84
706.037	3754.78
706.226	3648.29
706.414	3715.87
706.602	3691.29
706.79	3785.5
706.979	3650.33
707.167	3681.05
707.355	3605.28
707.543	3640.09
707.731	3795.74
707.919	3566.37
708.107	3558.18
708.296	3619.61
708.484	3638.05
708.672	3423.01
708.86	3537.7
709.048	3621.66
709.236	3556.13
709.424	3529.5
709.612	3554.08
709.8	3525.41
709.988	3470.11
710.176	3492.64
710.364	3578.65
710.551	3533.6
710.739	3595.04
710.927	3482.4
711.115	3349.28
711.303	3418.91
711.491	3377.95
711.679	3423.01
711.866	3425.06
712.054	3390.24
712.242	3320.61
712.43	3484.45
712.617	3414.82
712.805	3310.37
712.993	3349.28
713.181	3304.23
713.368	3277.6
713.556	3169.06
713.744	3148.58
713.931	3316.51
714.119	3132.2
714.306	3205.92
714.494	3228.45
714.682	3250.98
714.869	3140.39
715.057	3248.93
715.244	3195.68
715.432	3205.92
715.619	3146.53
715.807	3218.21
715.994	3181.35
716.182	3113.77
716.369	3037.99
716.556	3107.62
716.744	3009.32
716.931	3013.42
717.119	3124.01
717.306	3140.39
717.493	2988.84
717.681	3023.66
717.868	2964.26
718.055	2980.65
718.242	3050.28
718.43	3035.94
718.617	2956.07
718.804	2964.26
718.991	3033.9
719.179	2792.23
719.366	2814.76
719.553	2999.08
719.74	2919.21
719.927	2951.98
720.114	2982.7
720.301	2853.67
720.488	2876.2
720.676	2829.1
720.863	3005.22
721.05	2915.11
721.237	2833.19
721.424	2788.14
721.611	2769.71
721.798	2825
721.985	2779.95
722.172	2837.29
722.358	2779.95
722.545	2761.52
722.732	2745.13
722.919	2888.49
723.106	2822.95
723.293	2802.47
723.48	2777.9
723.667	2726.7
723.853	2583.34
724.04	2671.4
724.227	2669.36
724.414	2573.1
724.6	2595.63
724.787	2718.51
724.974	2675.5
725.161	2702.12
725.347	2698.03
725.534	2579.25
725.72	2599.73
725.907	2564.91
726.094	2597.68
726.28	2685.74
726.467	2458.42
726.653	2538.29
726.84	2534.19
727.027	2534.19
727.213	2581.29
727.4	2526
727.586	2646.83
727.773	2530.09
727.959	2550.57
728.145	2579.25
728.332	2458.42
728.518	2546.48
728.705	2546.48
728.891	2468.66
729.077	2433.84
729.264	2399.02
729.45	2394.93
729.636	2386.74
729.823	2390.83
730.009	2487.09
730.195	2462.51
730.382	2478.9
730.568	2423.6
730.754	2419.5
730.94	2374.45
731.126	2476.85
731.313	2431.79
731.499	2382.64
731.685	2460.46
731.871	2382.64
732.057	2308.91
732.243	2485.04
732.429	2489.14
732.615	2337.59
732.801	2399.02
732.987	2374.45
733.173	2353.97
733.359	2380.59
733.545	2218.8
733.731	2335.54
733.917	2267.95
734.103	2329.39
734.289	2263.86
734.475	2356.02
734.661	2460.46
734.847	2327.35
735.033	2313.01
735.219	2186.04
735.404	2276.15
735.59	2247.48
735.776	2196.28
735.962	2198.32
736.148	2274.1
736.333	2280.24
736.519	2153.27
736.705	2167.6
736.89	2198.32
737.076	2218.8
737.262	2165.56
737.447	2097.97
737.633	2122.55
737.819	2167.6
738.004	2079.54
738.19	2212.66
738.375	2071.35
738.561	2247.48
738.747	2005.81
738.932	2018.1
739.118	2095.93
739.303	2126.64
739.489	2005.81
739.674	2003.77
739.859	1923.9
740.045	1981.24
740.23	1952.57
740.416	1946.42
740.601	1940.28
740.786	1993.53
740.972	2079.54
741.157	2005.81
741.342	1911.61
741.528	1899.32
741.713	2059.06
741.898	1995.57
742.084	1985.34
742.269	1915.7
742.454	1940.28
742.639	1887.03
742.824	1772.35
743.01	1895.22
743.195	1952.57
743.38	1944.38
743.565	1870.65
743.75	1962.81
743.935	1817.4
744.12	1891.13
744.305	1784.63
744.49	1792.83
744.675	1772.35
744.86	1698.62
745.045	1862.46
745.23	1825.59
745.415	1706.81
745.6	1686.33
745.785	1723.2
745.97	1655.61
746.155	1753.91
746.34	1747.77
746.525	1696.57
746.71	1661.76
746.895	1649.47
747.079	1694.52
747.264	1592.13
747.449	1612.6
747.634	1649.47
747.819	1604.41
748.003	1612.6
748.188	1585.98
748.373	1610.56
748.557	1530.69
748.742	1628.99
748.927	1547.07
749.111	1567.55
749.296	1575.74
749.481	1647.42
749.665	1575.74
749.85	1567.55
750.034	1530.69
750.219	1506.11
750.404	1530.69
750.588	1499.97
750.773	1391.42
750.957	1536.83
751.141	1387.33
751.326	1411.9
751.51	1399.62
751.695	1424.19
751.879	1383.23
752.064	1475.39
752.248	1364.8
752.432	1383.23
752.617	1350.46
752.801	1424.19
752.985	1360.7
753.17	1319.75
753.354	1370.94
753.538	1383.23
753.722	1276.74
753.907	1293.12
754.091	1342.27
754.275	1301.31
754.459	1205.06
754.643	1276.74
754.828	1317.7
755.012	1147.72
755.196	1164.1
755.38	1225.54
755.564	1157.96
755.748	1205.06
755.932	1235.78
756.116	1188.68
756.3	1088.32
756.484	1219.39
756.668	1133.38
756.852	1147.72
757.036	1129.28
757.22	1155.91
757.404	1100.61
757.588	1174.34
757.772	1182.53
757.956	1164.1
758.14	1151.81
758.323	1123.14
758.507	1162.05
758.691	983.88
758.875	1137.48
759.059	1119.04
759.242	1022.79
759.426	1119.04
759.61	1096.52
759.794	1061.7
759.977	977.73
760.161	1112.9
760.345	983.88
760.528	959.3
760.712	1039.17
760.895	1114.95
761.079	1047.37
761.263	920.39
761.446	1024.84
761.63	1024.84
761.813	1016.65
761.997	942.92
762.18	899.91
762.364	1018.69
762.547	971.59
762.731	949.06
762.914	883.53
763.098	942.92
763.281	957.25
763.464	891.72
763.648	899.91
763.831	979.78
764.015	971.59
764.198	934.73
764.381	865.1
764.564	844.62
764.748	842.57
764.931	852.81
765.114	879.43
765.297	906.06
765.481	842.57
765.664	893.77
765.847	904.01
766.03	871.24
766.213	817.99
766.397	908.1
766.58	795.47
766.763	944.97
766.946	924.49
767.129	736.07
767.312	877.38
767.495	822.09
767.678	879.43
767.861	861
768.044	801.61
768.227	854.86
768.41	867.14
768.593	846.66
768.776	809.8
768.959	858.95
769.142	834.38
769.324	750.41
769.507	869.19
769.69	793.42
769.873	774.99
770.056	867.14
770.239	826.18
770.421	813.9
770.604	807.75
770.787	817.99
770.97	744.27
771.152	811.85
771.335	785.23
771.518	680.78
771.7	834.38
771.883	852.81
772.066	746.31
772.248	777.03
772.431	793.42
772.613	770.89
772.796	670.54
772.978	852.81
773.161	742.22
773.343	766.79
773.526	736.07
773.708	605
773.891	582.48
774.073	758.6
774.256	736.07
774.438	762.7
774.621	656.2
774.803	744.27
774.985	623.44
775.168	725.83
775.35	727.88
775.532	633.68
775.715	699.21
775.897	682.83
776.079	648.01
776.261	641.87
776.444	631.63
776.626	631.63
776.808	654.16
776.99	613.2
777.173	695.11
777.355	654.16
777.537	643.92
777.719	688.97
777.901	613.2
778.083	508.75
778.265	576.33
778.447	678.73
778.629	590.67
778.811	590.67
778.993	555.85
779.175	631.63
779.357	539.47
779.539	609.1
779.721	551.76
779.903	564.04
780.085	537.42
780.267	502.61
780.449	523.09
780.631	566.09
780.812	564.04
780.994	598.86
781.176	467.79
781.358	498.51
781.54	521.04
781.721	484.17
781.903	580.43
782.085	500.56
782.267	580.43
782.448	498.51
782.63	453.45
782.812	453.45
782.993	547.66
783.175	531.28
783.357	422.73
783.538	455.5
783.72	410.45
783.901	486.22
784.083	590.67
784.264	553.8
784.446	443.21
784.627	334.67
784.809	465.74
784.99	449.36
785.172	457.55
785.353	426.83
785.535	453.45
785.716	426.83
785.897	383.82
786.079	492.37
786.26	451.41
786.441	449.36
786.623	373.58
786.804	338.77
786.985	428.88
787.167	498.51
787.348	404.3
787.529	383.82
787.71	461.65
787.891	435.02
788.073	351.06
788.254	306
788.435	359.25
788.616	346.96
788.797	400.21
788.978	318.29
789.159	283.47
789.34	392.02
789.522	392.02
789.703	392.02
789.884	392.02
790.065	381.78
790.246	400.21
790.427	392.02
790.607	404.3
790.788	334.67
790.969	326.48
791.15	301.9
791.331	342.86
791.512	260.95
791.693	289.62
791.874	367.44
792.054	449.36
792.235	385.87
792.416	334.67
792.597	301.9
792.778	322.38
792.958	367.44
793.139	244.56
793.32	324.43
793.5	318.29
793.681	320.34
793.862	316.24
794.042	269.14
794.223	179.03
794.404	303.95
794.584	189.27
794.765	285.52
794.945	246.61
795.126	342.86
795.306	236.37
795.487	260.95
795.667	234.32
795.848	279.38
796.028	254.8
796.209	244.56
796.389	238.42
796.57	219.99
796.75	287.57
796.93	248.66
797.111	191.31
797.291	273.23
797.471	215.89
797.652	252.75
797.832	195.41
798.012	269.14
798.192	283.47
798.373	228.18
798.553	222.03
798.733	301.9
798.913	228.18
799.093	279.38
799.274	238.42
799.454	187.22
799.634	217.94
799.814	326.48
799.994	181.07
800.174	246.61
800.354	252.75
800.534	289.62
800.714	217.94
800.894	197.46
801.074	156.5
801.254	248.66
801.434	252.75
801.614	156.5
801.794	197.46
801.974	852.81
802.154	250.71
802.334	203.6
802.514	244.56
802.693	228.18
802.873	154.45
803.053	306
803.233	244.56
803.413	187.22
803.592	181.07
803.772	211.79
803.952	162.64
804.131	90.96
804.311	228.18
804.491	279.38
804.67	179.03
804.85	187.22
805.03	162.64
805.209	191.31
805.389	207.7
805.568	166.74
805.748	201.55
805.928	211.79
806.107	234.32
806.287	199.51
806.466	154.45
806.646	148.31
806.825	203.6
807.004	154.45
807.184	203.6
807.363	207.7
807.543	219.99
807.722	158.55
807.901	222.03
808.081	187.22
808.26	99.16
808.439	228.18
808.619	187.22
808.798	123.73
808.977	158.55
809.156	179.03
809.336	148.31
809.515	228.18
809.694	125.78
809.873	150.36
810.052	168.79
810.231	271.19
810.411	219.99
810.59	211.79
810.769	187.22
810.948	215.89
811.127	154.45
811.306	170.83
811.485	164.69
811.664	160.59
811.843	158.55
812.022	117.59
812.201	211.79
812.38	148.31
812.559	150.36
812.737	164.69
812.916	105.3
813.095	121.68
813.274	170.83
813.453	142.16
813.632	101.2
813.811	195.41
813.989	95.06
814.168	133.97
814.347	138.07
814.526	160.59
814.704	88.92
814.883	154.45
815.062	56.15
815.24	228.18
815.419	101.2
815.598	154.45
815.776	113.49
815.955	211.79
816.133	78.68
816.312	156.5
816.49	211.79
816.669	131.92
816.847	101.2
817.026	262.99
817.204	90.96
817.383	84.82
817.561	125.78
817.74	170.83
817.918	142.16
818.097	123.73
818.275	156.5
818.453	115.54
818.632	109.4
818.81	90.96
818.988	72.53
819.167	121.68
819.345	95.06
819.523	72.53
819.701	125.78
819.879	148.31
820.058	142.16
820.236	148.31
820.414	150.36
820.592	103.25
820.77	97.11
820.948	115.54
821.127	109.4
821.305	105.3
821.483	72.53
821.661	105.3
821.839	138.07
822.017	97.11
822.195	150.36
822.373	113.49
822.551	97.11
822.729	129.88
822.907	166.74
823.085	113.49
823.262	164.69
823.44	39.76
823.618	117.59
823.796	107.35
823.974	70.48
824.152	7
824.329	117.59
824.507	107.35
824.685	80.72
824.863	64.34
825.04	105.3
825.218	88.92
825.396	84.82
825.574	142.16
825.751	113.49
825.929	150.36
826.107	76.63
826.284	107.35
826.462	84.82
826.639	97.11
826.817	70.48
826.994	111.44
827.172	52.05
827.349	164.69
827.527	101.2
827.704	125.78
827.882	125.78
828.059	111.44
828.237	60.24
828.414	150.36
828.591	9.05
828.769	99.16
828.946	105.3
829.124	111.44
829.301	123.73
829.478	68.44
829.655	15.19
829.833	228.18
830.01	2.9
830.187	117.59
830.364	66.39
830.542	219.99
830.719	105.3
830.896	84.82
831.073	88.92
831.25	119.64
831.427	99.16
831.604	107.35
831.782	76.63
831.959	127.83
832.136	66.39
832.313	133.97
832.49	66.39
832.667	66.39
832.844	19.29
833.021	88.92
833.198	80.72
833.374	105.3
833.551	80.72
833.728	80.72
833.905	156.5
834.082	27.48
834.259	60.24
834.436	88.92
834.612	56.15
834.789	121.68
834.966	-5.29
835.143	99.16
835.319	47.96
835.496	109.4
835.673	82.77
835.85	99.16
836.026	66.39
836.203	176.98
836.38	88.92
836.556	105.3
836.733	7
836.909	76.63
837.086	101.2
837.262	11.09
837.439	66.39
837.616	-1.19
837.792	84.82
837.968	31.57
838.145	-1.19
838.321	107.35
838.498	121.68
838.674	66.39
838.851	88.92
839.027	66.39
839.203	54.1
839.38	9.05
839.556	0.85
839.732	123.73
839.909	62.29
840.085	121.68
840.261	33.62
840.437	82.77
840.614	29.52
840.79	41.81
840.966	99.16
841.142	60.24
841.318	72.53
841.494	88.92
841.671	103.25
841.847	35.67
842.023	23.38
842.199	54.1
842.375	33.62
842.551	68.44
842.727	15.19
842.903	93.01
843.079	90.96
843.255	0.85
843.431	37.72
843.607	54.1
843.783	-17.58
843.959	-1.19
844.134	39.76
844.31	125.78
844.486	80.72
844.662	-13.48
844.838	23.38
845.013	90.96
845.189	82.77
845.365	47.96
845.541	162.64
845.716	95.06
845.892	31.57
846.068	-1.19
846.244	-25.77
846.419	39.76
846.595	72.53
846.77	33.62
846.946	84.82
847.122	-27.82
847.297	39.76
847.473	62.29
847.648	-17.58
847.824	76.63
847.999	41.81
848.175	33.62
848.35	9.05
848.526	64.34
848.701	101.2
848.876	119.64
849.052	27.48
849.227	-5.29
849.403	95.06
849.578	41.81
849.753	39.76
849.929	47.96
850.104	80.72
850.279	27.48
850.454	41.81
850.63	66.39
850.805	74.58
850.98	56.15
851.155	23.38
851.33	23.38
851.505	-38.06
851.681	109.4
851.856	25.43
852.031	52.05
852.206	39.76
852.381	0.85
852.556	11.09
852.731	11.09
852.906	50
853.081	54.1
853.256	43.86
853.431	72.53
853.606	39.76
853.781	0.85
853.956	-44.2
854.131	95.06
854.305	-31.91
854.48	-70.83
854.655	-15.53
854.83	23.38
855.005	-33.96
855.18	43.86
855.354	19.29
855.529	68.44
855.704	35.67
855.879	31.57
856.053	9.05
856.228	88.92
856.403	-25.77
856.577	105.3
856.752	0.85
856.926	50
857.101	2.9
857.276	7
857.45	-13.48
857.625	88.92
857.799	60.24
857.974	11.09
858.148	7
858.323	23.38
858.497	27.48
858.672	-25.77
858.846	-27.82
859.02	64.34
859.195	-7.34
859.369	47.96
859.543	-1.19
859.718	80.72
859.892	47.96
860.066	31.57
860.241	-1.19
860.415	33.62
860.589	33.62
860.763	7
860.938	-42.15
861.112	35.67
861.286	-1.19
861.46	-13.48
861.634	27.48
861.808	47.96
861.982	2.9
862.157	-70.83
862.331	23.38
862.505	35.67
862.679	25.43
862.853	7
863.027	25.43
863.201	99.16
863.375	2.9
863.549	-29.87
863.722	66.39
863.896	35.67
864.07	-7.34
864.244	56.15
864.418	60.24
864.592	103.25
864.766	15.19
864.939	52.05
865.113	62.29
865.287	47.96
865.461	-1.19
865.634	86.87
865.808	60.24
865.982	56.15
866.156	15.19
866.329	-48.3
866.503	62.29
866.676	25.43
866.85	-17.58
867.024	27.48
867.197	54.1
867.371	37.72
867.544	47.96
867.718	-64.68
867.891	88.92
868.065	-21.67
868.238	9.05
868.412	27.48
868.585	50
868.759	-33.96
868.932	33.62
869.105	7
869.279	-56.49
869.452	-7.34
869.625	23.38
869.799	17.24
869.972	-50.35
870.145	-79.02
870.319	64.34
870.492	-23.72
870.665	19.29
870.838	39.76
871.011	-54.44
871.185	-48.3
871.358	23.38
871.531	23.38
871.704	-13.48
871.877	115.54
872.05	-58.54
872.223	25.43
872.396	43.86
872.569	-40.11
872.742	-15.53
872.915	-62.63
873.088	4.95
873.261	39.76
873.434	27.48
873.607	39.76
873.78	66.39
873.953	-3.24
874.126	64.34
874.299	-5.29
874.471	17.24
874.644	-115.88
874.817	35.67
874.99	97.11
875.163	-3.24
875.335	15.19
875.508	-23.72
875.681	99.16
875.853	-9.39
876.026	-83.11
876.199	-7.34
876.371	31.57
876.544	-17.58
876.717	-17.58
876.889	-48.3
877.062	17.24
877.234	-29.87
877.407	9.05
877.579	-15.53
877.752	58.2
877.924	-29.87
878.097	31.57
878.269	19.29
878.442	54.1
878.614	76.63
878.786	23.38
878.959	-15.53
879.131	66.39
879.303	-5.29
879.476	-1.19
879.648	47.96
879.82	82.77
879.993	47.96
880.165	21.33
880.337	0.85
880.509	60.24
880.681	-29.87
880.854	43.86
881.026	68.44
881.198	31.57
881.37	21.33
881.542	47.96
881.714	-38.06
881.886	-42.15
882.058	74.58
882.23	19.29
882.402	2.9
882.574	-60.59
882.746	15.19
882.918	13.14
883.09	23.38
883.262	-58.54
883.434	7
883.606	7
883.778	45.91
883.95	-9.39
884.122	-25.77
884.293	0.85
884.465	-62.63
884.637	45.91
884.809	-9.39
884.98	33.62
885.152	15.19
885.324	60.24
885.496	0.85
885.667	19.29
885.839	-56.49
886.011	82.77
886.182	35.67
886.354	56.15
886.525	11.09
886.697	25.43
886.869	-42.15
887.04	-33.96
887.212	56.15
887.383	39.76
887.555	19.29
887.726	-9.39
887.897	7
888.069	-1.19
888.24	62.29
888.412	-17.58
888.583	43.86
888.754	15.19
888.926	-42.15
889.097	29.52
889.268	-27.82
889.44	-15.53
889.611	21.33
889.782	7
889.953	-46.25
890.125	39.76
890.296	9.05
890.467	15.19
890.638	13.14
890.809	21.33
890.98	-70.83
891.151	-74.92
891.323	-7.34
891.494	50
891.665	-9.39
891.836	19.29
892.007	-7.34
892.178	37.72
892.349	7
892.52	-50.35
892.691	35.67
892.862	-9.39
893.032	7
893.203	-46.25
893.374	11.09
893.545	-7.34
893.716	-21.67
893.887	39.76
894.057	-42.15
894.228	-7.34
894.399	0.85
894.57	105.3
894.74	23.38
894.911	64.34
895.082	0.85
895.253	-83.11
895.423	-9.39
895.594	101.2
895.764	68.44
895.935	-25.77
896.106	60.24
896.276	13.14
896.447	-15.53
896.617	-19.63
896.788	-17.58
896.958	-15.53
897.129	-13.48
897.299	31.57
897.47	-9.39
897.64	15.19
897.81	17.24
897.981	-42.15
898.151	2.9
898.322	15.19
898.492	23.38
898.662	-31.91
898.832	-3.24
899.003	7
899.173	76.63
899.343	82.77
899.513	56.15
