Data from USB4F104151__216__14-33-48-914.txt Node

Date: Thu Mar 13 14:33:48 EDT 2025
User: louis
Spectrometer: USB4F10415
Trigger mode: 4
Integration Time (sec): 2.500000E-2
Scans to average: 1
Electric dark correction enabled: true
Nonlinearity correction enabled: false
Boxcar width: 0
XAxis mode: Wavelengths
Number of Pixels in Spectrum: 3648
>>>>>Begin Spectral Data<<<<<
178.204	-110.59
178.424	-110.59
178.644	-110.59
178.864	-126.97
179.084	-151.55
179.304	-6.14
179.524	-14.34
179.744	-18.43
179.964	59.39
180.184	-18.43
180.404	6.14
180.624	18.43
180.844	-14.34
181.064	-20.48
181.283	49.15
181.503	-18.43
181.723	-22.53
181.943	-63.49
182.163	157.69
182.383	20.48
182.602	104.45
182.822	26.62
183.042	83.97
183.262	-30.72
183.482	36.86
183.701	61.44
183.921	30.72
184.141	26.62
184.361	55.3
184.58	51.2
184.8	18.43
185.02	47.1
185.239	110.59
185.459	81.92
185.679	124.93
185.898	-14.34
186.118	86.01
186.338	43.01
186.557	77.82
186.777	-22.53
186.997	65.54
187.216	18.43
187.436	116.73
187.655	12.29
187.875	20.48
188.095	122.88
188.314	100.35
188.534	67.58
188.753	43.01
188.973	102.4
189.192	90.11
189.412	75.77
189.631	73.73
189.851	45.06
190.07	116.73
190.29	-8.19
190.509	110.59
190.729	92.16
190.948	94.21
191.168	153.6
191.387	77.82
191.607	53.25
191.826	114.69
192.045	53.25
192.265	75.77
192.484	92.16
192.704	55.3
192.923	6.14
193.142	188.41
193.362	126.97
193.581	104.45
193.8	38.91
194.02	114.69
194.239	49.15
194.458	83.97
194.678	18.43
194.897	61.44
195.116	-24.58
195.335	40.96
195.555	38.91
195.774	-20.48
195.993	118.78
196.212	49.15
196.432	51.2
196.651	83.97
196.87	57.34
197.089	157.69
197.308	106.49
197.528	129.02
197.747	57.34
197.966	116.73
198.185	139.26
198.404	22.53
198.623	120.83
198.842	102.4
199.062	71.68
199.281	67.58
199.5	51.2
199.719	14.34
199.938	135.17
200.157	90.11
200.376	88.06
200.595	51.2
200.814	71.68
201.033	-28.67
201.252	69.63
201.471	2.05
201.69	88.06
201.909	67.58
202.128	108.54
202.347	55.3
202.566	61.44
202.785	100.35
203.004	67.58
203.223	157.69
203.442	96.25
203.661	4.1
203.879	2.05
204.098	141.31
204.317	59.39
204.536	38.91
204.755	116.73
204.974	124.93
205.193	102.4
205.411	221.18
205.63	65.54
205.849	79.87
206.068	69.63
206.287	61.44
206.505	86.01
206.724	28.67
206.943	-18.43
207.162	120.83
207.381	69.63
207.599	24.58
207.818	88.06
208.037	28.67
208.255	22.53
208.474	28.67
208.693	135.17
208.911	108.54
209.13	69.63
209.349	116.73
209.567	104.45
209.786	133.12
210.005	96.25
210.223	94.21
210.442	83.97
210.661	43.01
210.879	-10.24
211.098	94.21
211.316	88.06
211.535	75.77
211.753	135.17
211.972	30.72
212.191	30.72
212.409	79.87
212.628	63.49
212.846	10.24
213.065	59.39
213.283	126.97
213.502	86.01
213.72	120.83
213.938	24.58
214.157	102.4
214.375	163.84
214.594	36.86
214.812	100.35
215.031	116.73
215.249	-26.62
215.467	59.39
215.686	57.34
215.904	102.4
216.122	83.97
216.341	2.05
216.559	79.87
216.778	126.97
216.996	73.73
217.214	65.54
217.432	36.86
217.651	100.35
217.869	86.01
218.087	108.54
218.306	28.67
218.524	43.01
218.742	71.68
218.96	47.1
219.179	75.77
219.397	79.87
219.615	149.5
219.833	59.39
220.051	-4.1
220.27	116.73
220.488	75.77
220.706	94.21
220.924	83.97
221.142	96.25
221.36	32.77
221.578	14.34
221.796	83.97
222.015	129.02
222.233	71.68
222.451	100.35
222.669	-40.96
222.887	92.16
223.105	51.2
223.323	108.54
223.541	63.49
223.759	131.07
223.977	110.59
224.195	114.69
224.413	53.25
224.631	32.77
224.849	77.82
225.067	88.06
225.285	14.34
225.503	67.58
225.721	6.14
225.939	28.67
226.157	71.68
226.375	102.4
226.592	10.24
226.81	67.58
227.028	88.06
227.246	129.02
227.464	149.5
227.682	45.06
227.9	65.54
228.117	36.86
228.335	51.2
228.553	69.63
228.771	59.39
228.989	100.35
229.206	53.25
229.424	18.43
229.642	18.43
229.86	47.1
230.077	67.58
230.295	57.34
230.513	102.4
230.731	96.25
230.948	26.62
231.166	112.64
231.384	120.83
231.601	126.97
231.819	30.72
232.037	-6.14
232.254	28.67
232.472	-45.06
232.689	49.15
232.907	141.31
233.125	124.93
233.342	69.63
233.56	59.39
233.777	110.59
233.995	18.43
234.213	30.72
234.43	92.16
234.648	22.53
234.865	-6.14
235.083	45.06
235.3	63.49
235.518	43.01
235.735	43.01
235.953	83.97
236.17	96.25
236.388	120.83
236.605	98.3
236.822	75.77
237.04	75.77
237.257	22.53
237.475	96.25
237.692	43.01
237.909	24.58
238.127	83.97
238.344	108.54
238.562	67.58
238.779	10.24
238.996	55.3
239.214	28.67
239.431	206.84
239.648	-45.06
239.865	149.5
240.083	88.06
240.3	51.2
240.517	116.73
240.735	88.06
240.952	112.64
241.169	126.97
241.386	53.25
241.603	43.01
241.821	30.72
242.038	51.2
242.255	53.25
242.472	2.05
242.689	47.1
242.907	102.4
243.124	139.26
243.341	61.44
243.558	28.67
243.775	86.01
243.992	63.49
244.209	53.25
244.426	149.5
244.643	36.86
244.86	22.53
245.078	159.74
245.295	120.83
245.512	75.77
245.729	100.35
245.946	155.65
246.163	59.39
246.38	61.44
246.597	67.58
246.814	153.6
247.031	38.91
247.248	120.83
247.464	43.01
247.681	86.01
247.898	65.54
248.115	16.38
248.332	90.11
248.549	137.21
248.766	174.08
248.983	102.4
249.2	61.44
249.417	71.68
249.633	28.67
249.85	110.59
250.067	100.35
250.284	2.05
250.501	96.25
250.717	71.68
250.934	-14.34
251.151	77.82
251.368	167.93
251.585	59.39
251.801	51.2
252.018	69.63
252.235	59.39
252.451	86.01
252.668	6.14
252.885	75.77
253.102	86.01
253.318	100.35
253.535	-26.62
253.752	51.2
253.968	67.58
254.185	59.39
254.401	122.88
254.618	28.67
254.835	133.12
255.051	137.21
255.268	100.35
255.484	83.97
255.701	90.11
255.917	61.44
256.134	67.58
256.351	77.82
256.567	67.58
256.784	98.3
257	-22.53
257.217	53.25
257.433	129.02
257.65	75.77
257.866	106.49
258.082	38.91
258.299	16.38
258.515	51.2
258.732	135.17
258.948	49.15
259.165	126.97
259.381	100.35
259.597	24.58
259.814	16.38
260.03	26.62
260.246	59.39
260.463	77.82
260.679	133.12
260.895	100.35
261.112	102.4
261.328	43.01
261.544	45.06
261.761	104.45
261.977	10.24
262.193	22.53
262.409	182.27
262.626	100.35
262.842	133.12
263.058	110.59
263.274	104.45
263.49	-14.34
263.707	133.12
263.923	59.39
264.139	145.41
264.355	59.39
264.571	106.49
264.787	34.82
265.004	110.59
265.22	34.82
265.436	32.77
265.652	51.2
265.868	94.21
266.084	59.39
266.3	51.2
266.516	43.01
266.732	108.54
266.948	75.77
267.164	106.49
267.38	135.17
267.596	94.21
267.812	137.21
268.028	83.97
268.244	-14.34
268.46	106.49
268.676	126.97
268.892	94.21
269.108	59.39
269.324	-14.34
269.54	14.34
269.756	120.83
269.972	40.96
270.188	43.01
270.403	67.58
270.619	51.2
270.835	133.12
271.051	92.16
271.267	63.49
271.483	112.64
271.698	124.93
271.914	81.92
272.13	16.38
272.346	75.77
272.562	92.16
272.777	149.5
272.993	-6.14
273.209	38.91
273.425	88.06
273.64	124.93
273.856	51.2
274.072	86.01
274.287	16.38
274.503	116.73
274.719	38.91
274.934	129.02
275.15	51.2
275.366	49.15
275.581	-12.29
275.797	77.82
276.012	135.17
276.228	-2.05
276.444	43.01
276.659	124.93
276.875	18.43
277.09	6.14
277.306	59.39
277.521	40.96
277.737	16.38
277.952	129.02
278.168	83.97
278.383	118.78
278.599	69.63
278.814	120.83
279.03	126.97
279.245	172.03
279.461	92.16
279.676	161.79
279.892	-47.1
280.107	86.01
280.322	116.73
280.538	45.06
280.753	75.77
280.969	100.35
281.184	71.68
281.399	83.97
281.615	63.49
281.83	143.36
282.045	55.3
282.26	51.2
282.476	88.06
282.691	108.54
282.906	83.97
283.122	126.97
283.337	20.48
283.552	165.89
283.767	18.43
283.983	141.31
284.198	69.63
284.413	86.01
284.628	59.39
284.843	110.59
285.058	110.59
285.274	59.39
285.489	47.1
285.704	149.5
285.919	75.77
286.134	169.98
286.349	18.43
286.564	43.01
286.779	135.17
286.995	28.67
287.21	38.91
287.425	145.41
287.64	43.01
287.855	102.4
288.07	-18.43
288.285	34.82
288.5	75.77
288.715	94.21
288.93	63.49
289.145	59.39
289.36	157.69
289.575	94.21
289.79	145.41
290.004	53.25
290.219	169.98
290.434	83.97
290.649	-2.05
290.864	18.43
291.079	28.67
291.294	75.77
291.509	90.11
291.724	26.62
291.938	49.15
292.153	67.58
292.368	108.54
292.583	83.97
292.798	100.35
293.012	73.73
293.227	219.13
293.442	55.3
293.657	-12.29
293.871	71.68
294.086	167.93
294.301	167.93
294.516	86.01
294.73	71.68
294.945	30.72
295.16	100.35
295.374	106.49
295.589	86.01
295.804	102.4
296.018	10.24
296.233	100.35
296.447	88.06
296.662	102.4
296.877	86.01
297.091	108.54
297.306	53.25
297.52	108.54
297.735	96.25
297.949	53.25
298.164	69.63
298.378	28.67
298.593	63.49
298.807	100.35
299.022	77.82
299.236	104.45
299.451	83.97
299.665	133.12
299.88	59.39
300.094	59.39
300.309	75.77
300.523	94.21
300.737	59.39
300.952	104.45
301.166	176.13
301.381	18.43
301.595	129.02
301.809	57.34
302.024	34.82
302.238	92.16
302.452	108.54
302.667	40.96
302.881	116.73
303.095	143.36
303.309	69.63
303.524	57.34
303.738	81.92
303.952	43.01
304.166	75.77
304.381	-22.53
304.595	118.78
304.809	118.78
305.023	133.12
305.237	55.3
305.452	86.01
305.666	133.12
305.88	63.49
306.094	133.12
306.308	100.35
306.522	63.49
306.736	71.68
306.95	77.82
307.164	116.73
307.379	36.86
307.593	45.06
307.807	126.97
308.021	153.6
308.235	30.72
308.449	47.1
308.663	32.77
308.877	108.54
309.091	92.16
309.305	137.21
309.519	-71.68
309.733	75.77
309.947	12.29
310.161	114.69
310.374	94.21
310.588	73.73
310.802	63.49
311.016	96.25
311.23	124.93
311.444	28.67
311.658	36.86
311.872	83.97
312.085	43.01
312.299	75.77
312.513	88.06
312.727	55.3
312.941	45.06
313.154	51.2
313.368	104.45
313.582	30.72
313.796	92.16
314.009	83.97
314.223	32.77
314.437	61.44
314.651	124.93
314.864	124.93
315.078	-16.38
315.292	65.54
315.505	124.93
315.719	108.54
315.933	94.21
316.146	90.11
316.36	96.25
316.573	112.64
316.787	143.36
317.001	102.4
317.214	88.06
317.428	92.16
317.641	75.77
317.855	90.11
318.068	30.72
318.282	83.97
318.495	133.12
318.709	61.44
318.922	79.87
319.136	186.37
319.349	100.35
319.563	43.01
319.776	163.84
319.99	57.34
320.203	86.01
320.417	145.41
320.63	30.72
320.843	147.45
321.057	71.68
321.27	71.68
321.483	126.97
321.697	77.82
321.91	124.93
322.124	57.34
322.337	30.72
322.55	67.58
322.763	116.73
322.977	47.1
323.19	14.34
323.403	92.16
323.617	135.17
323.83	188.41
324.043	94.21
324.256	71.68
324.469	75.77
324.683	110.59
324.896	63.49
325.109	90.11
325.322	20.48
325.535	116.73
325.748	100.35
325.962	96.25
326.175	116.73
326.388	98.3
326.601	100.35
326.814	75.77
327.027	83.97
327.24	100.35
327.453	40.96
327.666	131.07
327.879	124.93
328.092	116.73
328.305	67.58
328.518	94.21
328.731	110.59
328.944	83.97
329.157	155.65
329.37	90.11
329.583	169.98
329.796	129.02
330.009	-38.91
330.222	110.59
330.435	92.16
330.648	96.25
330.861	116.73
331.073	67.58
331.286	116.73
331.499	59.39
331.712	12.29
331.925	81.92
332.138	98.3
332.35	124.93
332.563	34.82
332.776	176.13
332.989	-18.43
333.202	71.68
333.414	118.78
333.627	96.25
333.84	71.68
334.053	71.68
334.265	67.58
334.478	108.54
334.691	124.93
334.903	79.87
335.116	145.41
335.329	96.25
335.541	124.93
335.754	174.08
335.966	2.05
336.179	55.3
336.392	12.29
336.604	24.58
336.817	147.45
337.029	94.21
337.242	22.53
337.454	112.64
337.667	135.17
337.88	147.45
338.092	51.2
338.305	141.31
338.517	110.59
338.729	133.12
338.942	86.01
339.154	47.1
339.367	24.58
339.579	69.63
339.792	69.63
340.004	86.01
340.217	110.59
340.429	116.73
340.641	53.25
340.854	118.78
341.066	59.39
341.278	116.73
341.491	86.01
341.703	73.73
341.915	30.72
342.128	69.63
342.34	86.01
342.552	0
342.764	34.82
342.977	92.16
343.189	169.98
343.401	124.93
343.613	67.58
343.826	155.65
344.038	22.53
344.25	83.97
344.462	75.77
344.674	139.26
344.886	81.92
345.099	110.59
345.311	108.54
345.523	61.44
345.735	53.25
345.947	55.3
346.159	36.86
346.371	100.35
346.583	36.86
346.795	149.5
347.007	100.35
347.219	110.59
347.431	149.5
347.643	112.64
347.855	94.21
348.067	118.78
348.279	59.39
348.491	75.77
348.703	26.62
348.915	18.43
349.127	40.96
349.339	83.97
349.551	34.82
349.763	122.88
349.975	86.01
350.187	141.31
350.399	133.12
350.61	139.26
350.822	12.29
351.034	133.12
351.246	161.79
351.458	118.78
351.669	118.78
351.881	83.97
352.093	92.16
352.305	149.5
352.517	149.5
352.728	165.89
352.94	120.83
353.152	143.36
353.363	75.77
353.575	59.39
353.787	116.73
353.999	143.36
354.21	167.93
354.422	67.58
354.633	26.62
354.845	71.68
355.057	59.39
355.268	124.93
355.48	92.16
355.692	43.01
355.903	61.44
356.115	67.58
356.326	65.54
356.538	88.06
356.749	159.74
356.961	51.2
357.172	71.68
357.384	149.5
357.595	159.74
357.807	79.87
358.018	161.79
358.23	116.73
358.441	141.31
358.653	114.69
358.864	139.26
359.075	30.72
359.287	145.41
359.498	124.93
359.709	69.63
359.921	133.12
360.132	100.35
360.344	100.35
360.555	83.97
360.766	167.93
360.977	106.49
361.189	149.5
361.4	92.16
361.611	124.93
361.823	141.31
362.034	143.36
362.245	71.68
362.456	57.34
362.667	110.59
362.879	20.48
363.09	94.21
363.301	79.87
363.512	178.17
363.723	94.21
363.935	61.44
364.146	151.55
364.357	131.07
364.568	92.16
364.779	40.96
364.99	92.16
365.201	69.63
365.412	110.59
365.623	22.53
365.834	69.63
366.045	104.45
366.256	86.01
366.467	104.45
366.678	126.97
366.889	81.92
367.1	124.93
367.311	110.59
367.522	36.86
367.733	67.58
367.944	100.35
368.155	79.87
368.366	192.51
368.577	110.59
368.788	118.78
368.999	22.53
369.209	108.54
369.42	135.17
369.631	256
369.842	118.78
370.053	69.63
370.264	200.7
370.474	67.58
370.685	143.36
370.896	71.68
371.107	139.26
371.317	83.97
371.528	96.25
371.739	124.93
371.95	116.73
372.16	94.21
372.371	10.24
372.582	92.16
372.792	129.02
373.003	61.44
373.214	83.97
373.424	88.06
373.635	75.77
373.846	149.5
374.056	126.97
374.267	69.63
374.477	98.3
374.688	22.53
374.898	204.8
375.109	126.97
375.319	65.54
375.53	161.79
375.74	79.87
375.951	161.79
376.161	102.4
376.372	124.93
376.582	22.53
376.793	165.89
377.003	133.12
377.214	104.45
377.424	169.98
377.635	126.97
377.845	88.06
378.055	182.27
378.266	92.16
378.476	53.25
378.686	126.97
378.897	92.16
379.107	120.83
379.317	71.68
379.528	110.59
379.738	79.87
379.948	71.68
380.158	75.77
380.369	73.73
380.579	92.16
380.789	59.39
380.999	98.3
381.21	225.28
381.42	165.89
381.63	53.25
381.84	137.21
382.05	118.78
382.261	176.13
382.471	159.74
382.681	20.48
382.891	131.07
383.101	190.46
383.311	79.87
383.521	12.29
383.731	94.21
383.941	159.74
384.151	176.13
384.361	92.16
384.571	86.01
384.781	108.54
384.991	139.26
385.201	200.7
385.411	141.31
385.621	-14.34
385.831	188.41
386.041	161.79
386.251	104.45
386.461	141.31
386.671	92.16
386.881	198.65
387.091	86.01
387.301	143.36
387.511	88.06
387.72	151.55
387.93	178.17
388.14	126.97
388.35	88.06
388.56	112.64
388.769	94.21
388.979	102.4
389.189	114.69
389.399	108.54
389.609	120.83
389.818	88.06
390.028	165.89
390.238	79.87
390.447	139.26
390.657	163.84
390.867	120.83
391.076	53.25
391.286	104.45
391.496	172.03
391.705	108.54
391.915	192.51
392.125	153.6
392.334	102.4
392.544	161.79
392.753	120.83
392.963	157.69
393.172	102.4
393.382	92.16
393.591	190.46
393.801	124.93
394.01	174.08
394.22	83.97
394.429	141.31
394.639	145.41
394.848	169.98
395.058	206.84
395.267	126.97
395.477	153.6
395.686	149.5
395.895	202.75
396.105	176.13
396.314	94.21
396.524	116.73
396.733	112.64
396.942	151.55
397.152	196.61
397.361	192.51
397.57	118.78
397.78	145.41
397.989	157.69
398.198	159.74
398.407	112.64
398.617	184.32
398.826	182.27
399.035	118.78
399.244	202.75
399.453	233.47
399.663	192.51
399.872	176.13
400.081	159.74
400.29	118.78
400.499	169.98
400.708	260.09
400.917	247.8
401.127	223.23
401.336	208.89
401.545	286.72
401.754	241.66
401.963	241.66
402.172	241.66
402.381	184.32
402.59	241.66
402.799	165.89
403.008	235.52
403.217	206.84
403.426	258.04
403.635	249.85
403.844	337.91
404.053	208.89
404.262	169.98
404.471	337.91
404.68	221.18
404.888	323.58
405.097	184.32
405.306	235.52
405.515	321.53
405.724	268.28
405.933	276.48
406.142	288.76
406.35	339.96
406.559	352.25
406.768	290.81
406.977	337.91
407.185	346.11
407.394	370.68
407.603	335.87
407.812	405.5
408.02	337.91
408.229	460.79
408.438	401.4
408.646	460.79
408.855	387.07
409.064	395.26
409.272	446.46
409.481	501.75
409.69	405.5
409.898	518.14
410.107	534.52
410.315	518.14
410.524	466.94
410.733	550.9
410.941	448.51
411.15	632.82
411.358	511.99
411.567	694.26
411.775	645.11
411.984	657.4
412.192	706.55
412.401	708.6
412.609	747.51
412.818	792.56
413.026	854
413.234	837.62
413.443	782.32
413.651	888.82
413.86	923.63
414.068	913.39
414.276	1030.13
414.485	985.07
414.693	903.15
414.901	1103.86
415.11	1101.81
415.318	1069.04
415.526	1093.62
415.734	1243.12
415.943	1222.64
416.151	1308.65
416.359	1310.7
416.567	1288.17
416.776	1390.57
416.984	1505.26
417.192	1529.83
417.4	1615.85
417.608	1562.6
417.817	1597.42
418.025	1708.01
418.233	1859.56
418.441	1824.74
418.649	1888.23
418.857	2101.22
419.065	1968.1
419.273	1931.23
419.481	2136.03
419.689	2260.96
419.897	2232.29
420.105	2371.55
420.313	2363.36
420.521	2453.47
420.729	2625.5
420.937	2707.41
421.145	2721.75
421.353	2770.9
421.561	2977.75
421.769	3033.04
421.977	3135.44
422.185	3180.5
422.393	3272.65
422.601	3520.46
422.809	3428.3
423.017	3493.83
423.224	3704.78
423.432	3928
423.64	3868.61
423.848	4140.99
424.056	4247.49
424.263	4351.93
424.471	4556.73
424.679	4569.02
424.887	4765.62
425.094	4927.41
425.302	4927.41
425.51	5097.39
425.718	5334.96
425.925	5271.47
426.133	5535.66
426.341	5826.47
426.548	6000.55
426.756	6080.42
426.964	6160.29
427.171	6467.49
427.379	6629.27
427.586	6735.77
427.794	7081.88
428.001	7407.5
428.209	7716.75
428.417	7530.38
428.624	7995.27
428.832	8114.05
429.039	7976.84
429.247	8044.42
429.454	8746.87
429.662	9408.37
429.869	8591.23
430.076	9377.65
430.284	9099.13
430.491	9385.84
430.699	9885.55
430.906	9926.5
431.114	10186.6
431.321	10514.27
431.528	10817.37
431.736	11347.79
431.943	11794.25
432.15	11646.8
432.358	11601.74
432.565	12289.86
432.772	12422.98
432.979	12896.06
433.187	13004.6
433.394	13207.35
433.601	13678.38
433.808	14227.24
434.016	13922.09
434.223	14620.45
434.43	15232.79
434.637	15423.25
434.844	16164.62
435.052	16420.61
435.259	16338.69
435.466	16418.57
435.673	16389.89
435.88	17374.97
436.087	18304.74
436.294	18337.51
436.501	17968.88
436.708	17981.17
436.915	18599.65
437.122	19773.14
437.329	19695.32
437.537	20307.66
437.743	20651.72
437.95	20182.73
438.157	21464.76
438.364	22095.53
438.571	21997.23
438.778	21962.42
438.985	23996.05
439.192	23158.43
439.399	24166.03
439.606	23209.63
439.813	24845.96
440.02	26183.28
440.227	25568.89
440.433	25529.98
440.64	26269.3
440.847	25947.76
441.054	26521.2
441.261	28614.22
441.467	28321.36
441.674	28851.78
441.881	30002.74
442.088	29836.86
442.294	29343.3
442.501	29853.24
442.708	30766.63
442.914	32173.59
443.121	33068.55
443.328	32212.5
443.534	34602.48
443.741	33797.63
443.948	33107.46
444.154	35786.21
444.361	35542.5
444.568	35415.52
444.774	35880.41
444.981	36169.18
445.187	36933.07
445.394	38591.92
445.6	38526.39
445.807	41639.3
446.013	39898.53
446.22	40699.28
446.426	42265.98
446.633	42368.38
446.839	43289.96
447.046	42067.33
447.252	44072.29
447.459	44281.18
447.665	44332.38
447.871	46265.66
448.078	47887.65
448.284	45960.51
448.491	47090.99
448.697	48588.06
448.903	49607.95
449.11	49493.26
449.316	49263.89
449.522	49831.18
449.728	51143.92
449.935	51291.38
450.141	51156.21
450.347	52075.75
450.553	50386.18
450.76	51547.37
450.966	52579.55
451.172	52288.74
451.378	53873.87
451.584	52819.16
451.791	54111.43
451.997	53750.99
452.203	54557.89
452.409	54582.46
452.615	54373.57
452.821	52428
453.027	51975.4
453.233	54381.76
453.44	52165.86
453.646	53005.53
453.852	52935.9
454.058	53599.44
454.264	52722.91
454.47	53425.36
454.676	52131.04
454.882	53972.17
455.088	49249.55
455.294	49870.09
455.5	50742.52
455.705	50740.47
455.911	49110.29
456.117	48278.82
456.323	47815.97
456.529	45495.63
456.735	47275.31
456.941	45669.7
457.147	45227.34
457.352	43441.51
457.558	43261.29
457.764	43371.88
457.97	42651
458.176	41905.54
458.381	41590.15
458.587	39589.28
458.793	39507.37
458.999	37592.51
459.204	40220.06
459.41	39249.32
459.616	36814.29
459.821	36603.35
460.027	36498.9
460.233	35524.07
460.438	34106.87
460.644	34211.32
460.85	32824.84
461.055	32581.13
461.261	32269.84
461.466	29922.87
461.672	28970.57
461.878	31186.47
462.083	29146.69
462.289	28522.06
462.494	28051.03
462.7	26850.92
462.905	26349.17
463.111	27178.59
463.316	27063.91
463.522	26687.08
463.727	26719.85
463.932	27217.5
464.138	26130.03
464.343	26474.09
464.549	26044.02
464.754	26488.43
464.959	26320.49
465.165	26107.51
465.37	24827.53
465.575	24471.18
465.781	25126.53
465.986	25732.73
466.191	24540.81
466.397	24073.87
466.602	23037.6
466.807	23725.72
467.012	23862.93
467.218	23795.35
467.423	23166.62
467.628	23400.09
467.833	24639.11
468.038	23768.73
468.244	22900.39
468.449	23885.46
468.654	23023.26
468.859	22779.56
469.064	22781.6
469.269	22046.38
469.474	22025.9
469.679	22640.29
469.885	21878.45
470.09	22064.82
470.295	21970.61
470.5	21499.58
470.705	21591.73
470.91	21270.2
471.115	20874.95
471.32	21284.54
471.525	21057.21
471.73	20412.1
471.935	20625.09
472.139	19754.71
472.344	19992.27
472.549	19787.47
472.754	19764.95
472.959	19207.9
473.164	18865.89
473.369	18640.61
473.574	19183.32
473.778	19078.88
473.983	18712.29
474.188	18886.37
474.393	18157.29
474.598	18011.89
474.802	17936.11
475.007	17858.29
475.212	17747.7
475.417	17121.02
475.621	17221.37
475.826	17180.41
476.031	16903.93
476.235	16467.72
476.44	16695.04
476.645	16537.35
476.849	16400.13
477.054	16486.15
477.259	16131.85
477.463	16076.55
477.668	15716.11
477.872	15673.1
478.077	15576.85
478.282	15306.52
478.486	15249.18
478.691	15185.69
478.895	15052.57
479.1	14927.64
479.304	14776.09
479.509	14554.91
479.713	14616.35
479.918	14427.94
480.122	14241.57
480.326	14614.31
480.531	14372.64
480.735	14255.91
480.94	14473
481.144	14563.11
481.348	13928.24
481.553	14206.76
481.757	13655.86
481.961	13842.22
482.166	14337.83
482.37	13997.87
482.574	13780.78
482.778	13848.36
482.983	14145.32
483.187	13846.32
483.391	14149.42
483.595	13453.11
483.8	13567.79
484.004	13868.84
484.208	14108.46
484.412	13838.12
484.616	13977.39
484.821	13887.28
485.025	13807.41
485.229	13930.28
485.433	13776.69
485.637	13692.72
485.841	13653.81
486.045	13844.27
486.249	13821.74
486.453	13575.98
486.657	13690.67
486.861	13571.89
487.065	13494.07
487.269	13666.1
487.473	13483.83
487.677	13829.93
487.881	13862.7
488.085	13430.58
488.289	13946.67
488.493	13905.71
488.697	13872.94
488.901	13924.14
489.105	13750.06
489.309	14049.07
489.512	13995.82
489.716	13858.6
489.92	13817.65
490.124	13961
490.328	14108.46
490.531	13834.03
490.735	14284.58
490.939	14362.4
491.143	14065.45
491.346	14112.55
491.55	14391.08
491.754	14325.54
491.958	14149.42
492.161	14411.56
492.365	14583.59
492.569	14346.02
492.772	14386.98
492.976	14522.15
493.18	14798.62
493.383	14677.79
493.587	14812.96
493.79	14946.08
493.994	14683.94
494.197	15298.33
494.401	15009.56
494.605	15097.63
494.808	15339.29
495.012	15310.61
495.215	15558.42
495.419	15507.22
495.622	15570.71
495.825	16111.37
496.029	15722.26
496.232	16232.2
496.436	15957.77
496.639	16447.24
496.843	16150.28
497.046	16598.79
497.249	16746.24
497.453	16877.31
497.656	17526.52
497.859	17059.58
498.063	17247.99
498.266	17569.52
498.469	17413.88
498.673	17563.38
498.876	17921.77
499.079	18155.24
499.282	18228.97
499.485	18349.8
499.689	18841.31
499.892	19015.39
500.095	18861.79
500.298	19222.23
500.501	19160.8
500.705	19764.95
500.908	19637.97
501.111	19990.22
501.314	20113.1
501.517	20291.27
501.72	20932.29
501.923	20715.2
502.126	21108.41
502.329	21108.41
502.532	21661.37
502.735	21788.34
502.938	22202.03
503.141	21991.09
503.344	22384.3
503.547	22341.29
503.75	22736.55
503.953	22849.19
504.156	23510.68
504.359	23500.44
504.562	23531.16
504.765	24127.12
504.968	24196.75
505.17	24350.35
505.373	24274.57
505.576	25130.62
505.779	25190.02
505.982	25450.11
506.185	25556.6
506.387	25663.1
506.59	26203.76
506.793	26744.42
506.996	26453.61
507.198	27422.3
507.401	27188.83
507.604	27459.16
507.807	27711.07
508.009	27868.76
508.212	28055.12
508.415	28751.43
508.617	28956.23
508.82	28937.8
509.022	28593.74
509.225	29750.84
509.428	29998.65
509.63	30176.82
509.833	30336.56
510.035	30909.99
510.238	31045.16
510.44	31249.96
510.643	31413.79
510.845	31628.83
511.048	31774.24
511.25	32044.57
511.453	32716.3
511.655	33682.94
511.858	33152.52
512.06	33166.85
512.262	33988.09
512.465	33588.74
512.667	34465.27
512.87	34635.25
513.072	34299.38
513.274	35204.58
513.477	35214.82
513.679	35972.57
513.881	36220.38
514.084	36281.81
514.286	36199.9
514.488	36476.37
514.69	37676.48
514.893	37461.44
515.095	37699.01
515.297	38319.54
515.499	38100.41
515.701	38649.27
515.904	39220.65
516.106	39493.03
516.308	39538.08
516.51	40437.14
516.712	40254.87
516.914	40615.32
517.116	41528.71
517.318	41002.38
517.52	41444.74
517.722	41491.85
517.925	42145.15
518.127	42501.5
518.329	42798.45
518.531	42655.09
518.733	43285.87
518.935	43310.44
519.136	43480.42
519.338	44160.35
519.54	44490.07
519.742	44772.69
519.944	44477.79
520.146	45266.25
520.348	45462.86
520.55	45849.92
520.752	45798.73
520.954	46593.34
521.155	46085.44
521.357	46800.18
521.559	47240.5
521.761	47713.58
521.963	47222.06
522.164	47664.42
522.366	47854.89
522.568	48190.75
522.77	48024.87
522.971	49087.76
523.173	48399.65
523.375	48622.87
523.576	48979.22
523.778	48954.64
523.98	49306.9
524.181	49665.29
524.383	49462.54
524.584	50175.23
524.786	50134.27
524.988	49812.74
525.189	50599.16
525.391	50642.17
525.592	50791.67
525.794	50826.49
525.995	51012.85
526.197	51229.94
526.398	50986.23
526.6	51250.42
526.801	51387.63
527.003	51678.44
527.204	51606.76
527.406	51780.84
527.607	51719.4
527.808	52124.9
528.01	51150.07
528.211	51168.5
528.412	52729.05
528.614	52022.5
528.815	51887.34
529.016	52538.59
529.218	52008.17
529.419	52425.95
529.62	52612.32
529.822	52247.78
530.023	52329.7
530.224	52346.08
530.425	51713.26
530.626	51918.06
530.828	51770.6
531.029	52921.56
531.23	52292.83
531.431	52274.4
531.632	52634.84
531.833	52567.26
532.035	52640.99
532.236	52704.48
532.437	52182.24
532.638	52040.93
532.839	52456.67
533.04	52692.19
533.241	51565.81
533.442	52796.63
533.643	52370.66
533.844	51950.82
534.045	52251.87
534.246	51789.03
534.447	52387.04
534.648	51977.45
534.849	52204.77
535.05	51606.76
535.251	52225.25
535.451	51543.28
535.652	52045.03
535.853	51711.21
536.054	51977.45
536.255	51838.18
536.456	51524.85
536.657	52462.82
536.857	52079.85
537.058	51524.85
537.259	51928.3
537.46	52016.36
537.66	51412.21
537.861	51604.72
538.062	51440.88
538.263	51545.33
538.463	51418.35
538.664	51707.11
538.865	51819.75
539.065	52092.13
539.266	51041.53
539.466	52268.26
539.667	51293.43
539.868	51719.4
540.068	51401.97
540.269	51412.21
540.469	51543.28
540.67	51143.92
540.87	51150.07
541.071	51160.31
541.271	51549.42
541.472	51363.06
541.672	50771.19
541.873	50834.68
542.073	50527.48
542.274	51137.78
542.474	51305.71
542.675	50636.03
542.875	51375.34
543.075	51291.38
543.276	50220.29
543.476	51139.83
543.676	50935.03
543.877	51031.29
544.077	50930.93
544.277	50894.07
544.478	50769.15
544.678	51201.27
544.878	51320.05
545.078	51361.01
545.279	50861.3
545.479	50773.24
545.679	51262.71
545.879	51166.45
546.079	50547.96
546.28	50420.99
546.48	50261.25
546.68	50900.22
546.88	50814.2
547.08	50627.84
547.28	50691.32
547.48	50035.97
547.68	50930.93
547.88	50429.18
548.081	50681.08
548.281	50814.2
548.481	50396.41
548.681	51096.82
548.881	50699.51
549.081	50541.82
549.28	50650.36
549.48	50758.91
549.68	50517.25
549.88	50812.15
550.08	50654.46
550.28	50840.82
550.48	50416.89
550.68	51109.11
550.88	50576.64
551.08	50738.43
551.279	50953.46
551.479	50509.05
551.679	50310.4
551.879	50470.14
552.079	50820.34
552.278	50705.66
552.478	50410.75
552.678	50885.88
552.878	50607.36
553.077	50593.02
553.277	50246.91
553.477	51215.6
553.676	50662.65
553.876	50973.94
554.076	50709.75
554.275	50822.39
554.475	49921.29
554.674	50683.13
554.874	50711.8
555.074	50449.66
555.273	50679.03
555.473	51313.9
555.672	50220.29
555.872	50752.76
556.071	50613.5
556.271	51031.29
556.47	50838.78
556.67	50355.46
556.869	50486.53
557.068	50433.28
557.268	50484.48
557.467	50879.74
557.667	50656.51
557.866	50031.88
558.065	50314.5
558.265	50482.43
558.464	50289.92
558.663	50918.65
558.863	50027.78
559.062	50758.91
559.261	50345.22
559.461	50681.08
559.66	50132.23
559.859	50427.13
560.058	50076.93
560.258	50806.01
560.457	49896.71
560.656	50513.15
560.855	50298.11
561.054	50683.13
561.253	50050.31
561.453	50124.04
561.652	50289.92
561.851	50533.63
562.05	50015.49
562.249	50384.13
562.448	50451.71
562.647	50105.6
562.846	50312.45
563.045	50304.26
563.244	49478.92
563.443	50539.77
563.642	49601.8
563.841	50205.95
564.04	49626.38
564.239	50306.3
564.438	49427.73
564.637	49851.66
564.836	49986.82
565.035	49431.82
565.234	49724.68
565.432	49282.32
565.631	49378.57
565.83	49919.24
566.029	49657.1
566.228	49505.55
566.427	49462.54
566.625	49052.95
566.824	48852.25
567.023	49349.9
567.222	48280.86
567.42	49239.31
567.619	49001.75
567.818	49278.22
568.016	48995.6
568.215	49126.67
568.414	48563.48
568.612	48993.56
568.811	48715.03
569.01	48686.36
569.208	48307.49
569.407	48526.62
569.605	48373.02
569.804	49005.84
570.002	48264.48
570.201	48536.86
570.4	47754.54
570.598	47990.05
570.797	47717.67
570.995	48012.58
571.193	47738.15
571.392	48069.92
571.59	47447.34
571.789	47576.36
571.987	47424.81
572.186	47486.25
572.384	47510.83
572.582	47740.2
572.781	47445.29
572.979	47011.12
573.177	47086.9
573.376	47222.06
573.574	46742.84
573.772	46759.22
573.971	46724.41
574.169	46538.04
574.367	46011.71
574.565	46695.74
574.763	46331.2
574.962	46005.57
575.16	45819.2
575.358	46202.17
575.556	45612.36
575.754	46110.02
575.952	45370.7
576.151	46175.55
576.349	45161.81
576.547	45260.11
576.745	45221.2
576.943	45309.26
577.141	45051.22
577.339	45415.75
577.537	45450.57
577.735	44670.29
577.933	44316
578.131	44875.09
578.329	44508.5
578.527	44000.61
578.725	44434.78
578.923	44270.94
579.121	44078.43
579.319	44266.84
579.516	44504.41
579.714	43867.49
579.912	44174.69
580.11	43949.41
580.308	43826.53
580.506	43871.59
580.704	43203.95
580.901	43566.44
581.099	43818.34
581.297	42558.84
581.495	43148.65
581.692	43029.87
581.89	42521.98
582.088	42997.1
582.285	42741.11
582.483	43023.73
582.681	42780.02
582.878	42675.57
583.076	42194.3
583.274	42753.4
583.471	41917.82
583.669	42263.93
583.866	41848.19
584.064	42620.28
584.262	41586.05
584.459	42108.29
584.657	41874.82
584.854	41930.11
585.052	41377.16
585.249	41721.22
585.447	41637.25
585.644	40791.44
585.841	41291.15
586.039	41622.92
586.236	41274.76
586.434	40949.14
586.631	40539.54
586.828	40834.45
587.026	40709.52
587.223	40463.77
587.42	40504.73
587.618	40824.21
587.815	40273.31
588.012	40099.23
588.21	40152.48
588.407	40287.64
588.604	39941.53
588.801	39656.87
588.999	40334.74
589.196	39513.51
589.393	39679.39
589.59	39447.97
589.787	39542.18
589.984	39439.78
590.182	39579.04
590.379	39214.51
590.576	38911.41
590.773	39306.66
590.97	38755.76
591.167	39191.98
591.364	38573.49
591.561	38868.4
591.758	38030.78
591.955	38655.41
592.152	38665.65
592.349	38331.83
592.546	38491.57
592.743	38258.1
592.94	37522.88
593.137	38174.14
593.334	38141.37
593.531	37246.41
593.727	37969.34
593.924	37768.64
594.121	37324.23
594.318	37909.95
594.515	37430.72
594.712	37694.91
594.908	37404.1
595.105	37742.02
595.302	36963.79
595.499	37260.74
595.696	36793.81
595.892	36914.64
596.089	37178.82
596.286	37184.97
596.482	36861.39
596.679	36525.52
596.876	36797.9
597.072	36701.65
597.269	36847.05
597.466	36206.04
597.662	36406.74
597.859	36500.95
598.055	36791.76
598.252	36156.89
598.448	36351.45
598.645	35993.05
598.841	35827.17
599.038	36093.4
599.234	36056.54
599.431	35677.66
599.627	35636.7
599.824	35808.73
600.02	35745.25
600.217	35845.6
600.413	35890.65
600.609	35397.09
600.806	35485.15
601.002	35960.28
601.198	35411.43
601.395	35276.26
601.591	35634.66
601.787	35382.76
601.984	35501.54
602.18	35669.47
602.376	35370.47
602.572	35259.88
602.769	35081.7
602.965	35087.85
603.161	35464.67
603.357	34754.03
603.553	35093.99
603.75	34862.57
603.946	34590.19
604.142	35071.46
604.338	34455.03
604.534	35415.52
604.73	34438.64
604.926	34938.35
605.122	35087.85
605.318	34614.77
605.514	34346.48
605.71	34455.03
605.906	34321.91
606.102	34186.74
606.298	34809.32
606.494	34403.83
606.69	34711.02
606.886	34465.27
607.082	34090.49
607.278	34700.78
607.474	33789.44
607.67	34328.05
607.866	33867.26
608.062	34659.82
608.257	34326
608.453	34625.01
608.649	34481.65
608.845	34170.36
609.041	34305.52
609.236	34426.35
609.432	34227.7
609.628	34303.48
609.824	34196.98
610.019	34074.1
610.215	34401.78
610.411	34317.81
610.606	34029.05
610.802	34495.99
610.998	34067.96
611.193	34344.44
611.389	33975.8
611.584	33977.85
611.78	34332.15
611.976	34479.6
612.171	34162.17
612.367	34156.02
612.562	33791.48
612.758	33377.79
612.953	34088.44
613.149	34119.16
613.344	33750.52
613.539	34381.3
613.735	33967.61
613.93	34133.5
614.126	33934.84
614.321	34141.69
614.517	33977.85
614.712	34252.28
614.907	33975.8
615.103	33943.03
615.298	33746.43
615.493	34004.47
615.688	33254.92
615.884	34207.22
616.079	33412.61
616.274	33897.98
616.47	33680.89
616.665	33660.41
616.86	33596.93
617.055	33684.99
617.25	33388.03
617.445	33805.82
617.641	32763.4
617.836	33719.81
618.031	33105.41
618.226	33334.79
618.421	33457.67
618.616	33361.41
618.811	32644.62
619.006	33349.12
619.201	32577.04
619.396	32744.97
619.591	32138.77
619.786	33121.8
619.981	32466.45
620.176	32515.6
620.371	31882.78
620.566	32185.88
620.761	31673.88
620.956	32149.01
621.151	32007.7
621.346	32181.78
621.541	31583.77
621.735	31866.39
621.93	31252
622.125	31600.16
622.32	31131.17
622.515	31145.51
622.709	30717.48
622.904	30793.26
623.099	30610.99
623.294	30391.86
623.488	30311.99
623.683	30453.3
623.878	30203.44
624.072	30264.88
624.267	29902.39
624.462	29544
624.656	29507.13
624.851	29376.06
625.046	29154.88
625.24	28720.71
625.435	28939.85
625.629	29077.06
625.824	28821.06
626.018	28790.34
626.213	28051.03
626.407	28171.86
626.602	27907.67
626.796	28100.18
626.991	28100.18
627.185	27901.53
627.38	27790.94
627.574	27524.7
627.768	27594.33
627.963	27326.05
628.157	27123.3
628.352	27285.09
628.546	26560.11
628.74	27283.04
628.935	26488.43
629.129	26746.47
629.323	26144.37
629.517	26054.26
629.712	26142.32
629.906	26058.35
630.1	25327.23
630.294	26099.31
630.489	25362.04
630.683	26005.11
630.877	24911.49
631.071	25185.92
631.265	25151.1
631.459	24747.65
631.653	24931.97
631.848	24811.14
632.042	24753.8
632.236	24594.06
632.43	24030.87
632.624	24346.25
632.818	24297.1
633.012	23813.78
633.206	23717.53
633.4	24032.91
633.594	23412.38
633.788	23774.87
633.982	23402.14
634.176	23172.77
634.369	23140
634.563	23338.65
634.757	22904.48
634.951	22750.88
635.145	22847.14
635.339	22908.58
635.533	22818.47
635.726	22498.98
635.92	22144.69
636.114	22394.54
636.308	21841.59
636.501	22021.81
636.695	21896.88
636.889	21765.81
637.083	21540.54
637.276	21601.97
637.47	21309.11
637.664	21128.89
637.857	20903.62
638.051	21276.35
638.244	20795.07
638.438	20831.94
638.632	20766.4
638.825	20680.39
639.019	20502.22
639.212	20342.47
639.406	20369.1
639.599	20389.58
639.793	20258.51
639.986	19650.26
640.18	19834.58
640.373	19764.95
640.567	19193.56
640.76	19738.32
640.954	19467.99
641.147	19097.31
641.34	19166.94
641.534	19310.3
641.727	19101.4
641.92	19132.12
642.114	19009.25
642.307	18902.75
642.5	18462.44
642.694	18452.2
642.887	18573.03
643.08	18454.25
643.273	18458.34
643.467	18136.81
643.66	18282.22
643.853	17809.14
644.046	17612.53
644.239	18011.89
644.432	17782.51
644.626	17385.21
644.819	17409.78
645.012	17309.43
645.205	17266.42
645.398	17293.05
645.591	17080.06
645.784	17024.76
645.977	16871.17
646.17	16795.39
646.363	16740.1
646.556	16609.03
646.749	16531.2
646.942	16604.93
647.135	16117.51
647.328	16156.43
647.521	16078.6
647.714	15748.88
647.907	16101.13
648.099	15871.76
648.292	15976.2
648.485	15611.67
648.678	15499.03
648.871	15556.37
649.064	15484.69
649.256	15619.86
649.449	15460.12
649.642	15183.64
649.835	15075.1
650.027	14831.39
650.22	15146.78
650.413	14880.54
650.605	14911.26
650.798	14923.55
650.991	14569.25
651.183	14804.77
651.376	14593.83
651.568	14454.56
651.761	14024.49
651.954	14102.31
652.146	14206.76
652.339	14249.77
652.531	14243.62
652.724	13965.1
652.916	13905.71
653.109	13682.48
653.301	13690.67
653.494	13680.43
653.686	13489.97
653.879	13649.71
654.071	13401.91
654.263	13403.96
654.456	13436.72
654.648	13344.56
654.84	13217.59
655.033	13068.09
655.225	12914.49
655.417	12707.65
655.61	12967.74
655.802	12887.87
655.994	12537.66
656.186	12912.44
656.379	12633.92
656.571	12834.62
656.763	12646.21
656.955	12617.54
657.148	12539.71
657.34	12263.24
657.532	12435.27
657.724	12054.34
657.916	12343.11
658.108	12267.33
658.3	11708.24
658.492	12011.34
658.684	11906.89
658.876	11923.27
659.068	11630.41
659.26	11654.99
659.452	11771.72
659.644	11673.42
659.836	11411.28
660.028	11444.05
660.22	11056.98
660.412	11579.22
660.604	11196.25
660.796	11378.51
660.988	11216.72
661.18	11018.07
661.372	11063.13
661.563	10905.43
661.755	10864.47
661.947	10841.95
662.139	10807.13
662.331	10700.64
662.522	10622.81
662.714	10534.75
662.906	10442.59
663.097	10375.01
663.289	10426.21
663.481	10325.86
663.673	10422.11
663.864	10209.12
664.056	10151.78
664.247	10151.78
664.439	9973.61
664.631	10024.81
664.822	9885.55
665.014	9746.28
665.205	10028.9
665.397	9695.08
665.588	9729.9
665.78	9693.04
665.971	9611.12
666.163	9625.45
666.354	9373.55
666.546	9596.78
666.737	9312.11
666.929	9361.27
667.12	9373.55
667.311	9144.18
667.503	9140.08
667.694	9244.53
667.885	9156.47
668.077	9250.67
668.268	9066.36
668.459	8998.77
668.651	8808.31
668.842	8968.06
669.033	8904.57
669.224	8722.3
669.416	8836.99
669.607	8836.99
669.798	8775.55
669.989	8783.74
670.18	8636.28
670.371	8562.56
670.563	8515.45
670.754	8478.59
670.945	8400.77
671.136	8497.02
671.327	8445.82
671.518	8343.42
671.709	8333.18
671.9	8251.27
672.091	8040.33
672.282	8185.73
672.473	8030.09
672.664	8263.55
672.855	7939.97
673.046	8011.65
673.237	8130.44
673.428	8173.44
673.619	8007.56
673.809	7927.69
674	7841.67
674.191	7923.59
674.382	7784.33
674.573	7915.4
674.764	7845.77
674.954	7784.33
675.145	7669.64
675.336	7706.51
675.527	7722.89
675.717	7661.45
675.908	7518.09
676.099	7638.92
676.289	7499.66
676.48	7427.98
676.671	7325.58
676.861	7612.3
677.052	7448.46
677.243	7288.72
677.433	7194.51
677.624	7579.53
677.814	7262.1
678.005	7403.41
678.195	7188.37
678.386	7389.07
678.576	7174.03
678.767	7202.71
678.957	7219.09
679.148	7227.28
679.338	7229.33
679.529	6956.95
679.719	7131.03
679.909	7049.11
680.1	6932.37
680.29	6967.19
680.481	7102.36
680.671	6883.22
680.861	6817.69
681.052	6737.82
681.242	6780.82
681.432	6754.2
681.622	6889.37
681.813	6768.54
682.003	6711.19
682.193	6764.44
682.383	6834.07
682.573	6729.63
682.764	6662.04
682.954	6623.13
683.144	6776.73
683.334	6688.67
683.524	6680.47
683.714	6711.19
683.904	6647.71
684.094	6522.78
684.284	6633.37
684.474	6530.97
684.664	6408.09
684.854	6461.34
685.044	6524.83
685.234	6485.92
685.424	6410.14
685.614	6393.76
685.804	6283.17
685.994	6301.6
686.184	6313.89
686.374	6268.83
686.564	6244.26
686.753	6117.28
686.943	6145.95
687.133	6197.15
687.323	6055.84
687.513	6268.83
687.702	5883.81
687.892	6227.87
688.082	6137.76
688.272	6080.42
688.461	6047.65
688.651	5982.12
688.841	5937.06
689.03	6129.57
689.22	5965.73
689.41	5814.18
689.599	5922.73
689.789	5822.38
689.979	5828.52
690.168	5799.85
690.358	5812.14
690.547	5736.36
690.737	5679.02
690.926	5844.9
691.116	5754.79
691.305	5709.74
691.495	5638.06
691.684	5719.98
691.874	5672.87
692.063	5695.4
692.252	5500.84
692.442	5697.45
692.631	5533.61
692.82	5683.11
693.01	5605.29
693.199	5490.6
693.388	5478.32
693.578	5384.11
693.767	5304.24
693.956	5490.6
694.146	5345.2
694.335	5296.05
694.524	5289.9
694.713	5373.87
694.902	5343.15
695.092	5326.77
695.281	5091.25
695.47	5119.92
695.659	5296.05
695.848	5070.77
696.037	5277.62
696.226	5203.89
696.415	5126.07
696.604	5212.08
696.793	5033.91
696.982	4949.94
697.171	5001.14
697.36	5089.2
697.549	5121.97
697.738	5052.34
697.927	5058.48
698.116	5019.57
698.305	5033.91
698.494	4976.56
698.683	4999.09
698.872	4900.79
699.061	4884.41
699.25	4919.22
699.438	4837.3
699.627	4820.92
699.816	4911.03
700.005	4806.58
700.193	4992.95
700.382	4638.65
700.571	4708.28
700.76	4716.47
700.948	4853.69
701.137	4798.39
701.326	4671.42
701.514	4571.07
701.703	4683.7
701.892	4536.25
702.08	4777.91
702.269	4573.11
702.457	4560.83
702.646	4630.46
702.834	4558.78
703.023	4511.68
703.212	4552.63
703.4	4528.06
703.589	4466.62
703.777	4560.83
703.965	4315.07
704.154	4483
704.342	4442.04
704.531	4310.97
704.719	4429.76
704.907	4401.08
705.096	4325.31
705.284	4251.58
705.472	4388.8
705.661	4237.25
705.849	4327.36
706.037	4358.08
706.226	4317.12
706.414	4294.59
706.602	4310.97
706.79	4276.16
706.979	4206.53
707.167	4227.01
707.355	4163.52
707.543	4122.56
707.731	4077.51
707.919	4089.79
708.107	4083.65
708.296	3944.39
708.484	4040.64
708.672	4059.07
708.86	4024.26
709.048	4030.4
709.236	3985.35
709.424	4001.73
709.612	3932.1
709.8	3792.84
709.988	3942.34
710.176	3846.09
710.364	3954.63
710.551	3997.63
710.739	3751.88
710.927	3909.57
711.115	3885
711.303	3790.79
711.491	3764.17
711.679	3796.93
711.866	3872.71
712.054	3684.3
712.242	3762.12
712.43	3741.64
712.617	3706.82
712.805	3833.8
712.993	3704.78
713.181	3561.42
713.368	3770.31
713.556	3512.27
713.744	3588.04
713.931	3710.92
714.119	3758.02
714.306	3667.91
714.494	3610.57
714.682	3547.08
714.869	3426.25
715.057	3516.36
715.244	3499.98
715.432	3418.06
715.619	3428.3
715.807	3319.76
715.994	3502.03
716.182	3418.06
716.369	3356.62
716.556	3393.48
716.744	3416.01
716.931	3352.52
717.119	3401.68
717.306	3454.92
717.493	3413.96
717.681	3262.41
717.868	3330
718.055	3323.85
718.242	3319.76
718.43	3338.19
718.617	3338.19
718.804	3301.33
718.991	3344.33
719.179	3254.22
719.366	3229.65
719.553	3239.89
719.74	3213.26
719.927	3127.25
720.114	3020.75
720.301	3135.44
720.488	3082.19
720.676	3104.72
720.863	3119.06
721.05	3106.77
721.237	3033.04
721.424	3102.67
721.611	3106.77
721.798	3041.23
721.985	3086.29
722.172	3045.33
722.358	3024.85
722.545	2967.51
722.732	2889.68
722.919	3061.71
723.106	2901.97
723.293	2947.03
723.48	2959.31
723.667	2852.82
723.853	2748.37
724.04	2957.27
724.227	3045.33
724.414	2959.31
724.6	2762.71
724.787	2987.99
724.974	2836.44
725.161	2899.92
725.347	2770.9
725.534	2766.81
725.72	2914.26
725.907	2783.19
726.094	2760.66
726.28	2723.8
726.467	2703.32
726.653	2713.56
726.84	2760.66
727.027	2697.17
727.213	2707.41
727.4	2742.23
727.586	2617.3
727.773	2676.7
727.959	2779.09
728.145	2652.12
728.332	2607.06
728.518	2639.83
728.705	2617.3
728.891	2662.36
729.077	2602.97
729.264	2621.4
729.45	2678.74
729.636	2623.45
729.823	2512.86
730.009	2688.98
730.195	2594.78
730.382	2504.67
730.568	2506.71
730.754	2533.34
730.94	2543.58
731.126	2512.86
731.313	2623.45
731.499	2498.52
731.685	2691.03
731.871	2430.94
732.057	2553.82
732.243	2480.09
732.429	2516.95
732.615	2443.23
732.801	2389.98
732.987	2543.58
733.173	2467.8
733.359	2336.73
733.545	2398.17
733.731	2295.77
733.917	2394.08
734.103	2344.92
734.289	2385.88
734.475	2484.19
734.661	2365.4
734.847	2322.4
735.033	2426.84
735.219	2269.15
735.404	2310.11
735.59	2222.05
735.776	2258.91
735.962	2314.2
736.148	2197.47
736.333	2379.74
736.519	2258.91
736.705	2226.14
736.89	2297.82
737.076	2330.59
737.262	2168.8
737.447	2240.48
737.633	2133.98
737.819	2250.72
738.004	2123.74
738.19	2187.23
738.375	2123.74
738.561	2236.38
738.747	2226.14
738.932	2115.55
739.118	2201.57
739.303	2215.9
739.489	2115.55
739.674	2058.21
739.859	2101.22
740.045	2181.09
740.23	2140.13
740.416	2068.45
740.601	2191.33
740.786	1935.33
740.972	2037.73
741.157	2062.3
741.342	1976.29
741.528	2041.82
741.713	2017.25
741.898	1937.38
742.084	2017.25
742.269	2031.59
742.454	2009.06
742.639	2021.35
742.824	1992.67
743.01	1972.19
743.195	1976.29
743.38	1884.13
743.565	1822.69
743.75	2050.02
743.935	1818.6
744.12	1925.09
744.305	1906.66
744.49	1927.14
744.675	1822.69
744.86	1849.32
745.045	1806.31
745.23	1806.31
745.415	1771.49
745.6	1804.26
745.785	1837.03
745.97	1900.52
746.155	1773.54
746.34	1816.55
746.525	1736.68
746.71	1869.8
746.895	1695.72
747.079	1650.66
747.264	1697.77
747.449	1771.49
747.634	1740.77
747.819	1662.95
748.003	1738.73
748.188	1640.42
748.373	1595.37
748.557	1632.23
748.742	1630.18
748.927	1687.53
749.111	1638.38
749.296	1583.08
749.481	1640.42
749.665	1652.71
749.85	1607.66
750.034	1601.51
750.219	1591.27
750.404	1484.78
750.588	1413.1
750.773	1492.97
750.957	1488.87
751.141	1513.45
751.326	1411.05
751.51	1578.98
751.695	1402.86
751.879	1533.93
752.064	1492.97
752.248	1417.19
752.432	1466.35
752.617	1476.59
752.801	1439.72
752.985	1488.87
753.17	1415.15
753.354	1439.72
753.538	1542.12
753.722	1341.42
753.907	1402.86
754.091	1308.65
754.275	1308.65
754.459	1370.09
754.643	1228.78
754.828	1341.42
755.012	1279.98
755.196	1181.68
755.38	1341.42
755.564	1226.73
755.748	1312.75
755.932	1265.64
756.116	1421.29
756.3	1306.6
756.484	1241.07
756.668	1191.92
756.852	1169.39
757.036	1263.6
757.22	1206.25
757.404	1150.96
757.588	1144.81
757.772	1247.21
757.956	1241.07
758.14	1165.29
758.323	1066.99
758.507	1058.8
758.691	1130.48
758.875	1140.72
759.059	1126.38
759.242	1169.39
759.426	1134.57
759.61	1165.29
759.794	1071.09
759.977	1130.48
760.161	1116.14
760.345	1099.76
760.528	1099.76
760.712	1122.29
760.895	1060.85
761.079	1101.81
761.263	960.5
761.446	1034.22
761.63	1026.03
761.813	1091.57
761.997	894.96
762.18	1017.84
762.364	1120.24
762.547	1015.79
762.731	978.93
762.914	960.5
763.098	1009.65
763.281	1001.46
763.464	944.11
763.648	948.21
763.831	921.59
764.015	999.41
764.198	905.2
764.381	964.59
764.564	960.5
764.748	1009.65
764.931	940.02
765.114	966.64
765.297	1044.46
765.481	944.11
765.664	897.01
765.847	960.5
766.03	862.19
766.213	923.63
766.397	905.2
766.58	952.31
766.763	993.26
766.946	876.53
767.129	1040.37
767.312	919.54
767.495	890.87
767.678	903.15
767.861	888.82
768.044	874.48
768.227	964.59
768.41	897.01
768.593	894.96
768.776	989.17
768.959	899.06
769.142	919.54
769.324	907.25
769.507	907.25
769.69	849.91
769.873	868.34
770.056	935.92
770.239	872.43
770.421	890.87
770.604	798.71
770.787	847.86
770.97	780.28
771.152	798.71
771.335	794.61
771.518	845.81
771.7	899.06
771.883	878.58
772.066	868.34
772.248	927.73
772.431	899.06
772.613	880.63
772.796	735.22
772.978	804.85
773.161	874.48
773.343	735.22
773.526	770.04
773.708	804.85
773.891	739.32
774.073	684.02
774.256	753.65
774.438	909.3
774.621	784.37
774.803	690.17
774.985	817.14
775.168	739.32
775.35	720.88
775.532	745.46
775.715	745.46
775.897	747.51
776.079	741.36
776.261	706.55
776.444	698.36
776.626	681.97
776.808	735.22
776.99	749.56
777.173	665.59
777.355	641.01
777.537	692.21
777.719	649.21
777.901	692.21
778.083	702.45
778.265	659.45
778.447	729.08
778.629	718.84
778.811	763.89
778.993	632.82
779.175	706.55
779.357	579.58
779.539	557.05
779.721	626.68
779.903	681.97
780.085	641.01
780.267	620.53
780.449	600.05
780.631	649.21
780.812	522.23
780.994	563.19
781.176	583.67
781.358	577.53
781.54	530.42
781.721	620.53
781.903	712.69
782.085	602.1
782.267	575.48
782.448	569.34
782.63	555
782.812	555
782.993	563.19
783.175	520.18
783.357	475.13
783.538	509.94
783.72	507.9
783.901	518.14
784.083	509.94
784.264	530.42
784.446	520.18
784.627	446.46
784.809	593.91
784.99	509.94
785.172	518.14
785.353	511.99
785.535	440.31
785.716	493.56
785.897	464.89
786.079	432.12
786.26	528.38
786.441	559.1
786.623	397.31
786.804	487.42
786.985	452.6
787.167	454.65
787.348	444.41
787.529	436.22
787.71	505.85
787.891	505.85
788.073	462.84
788.254	421.88
788.435	452.6
788.616	503.8
788.797	501.75
788.978	425.98
789.159	466.94
789.34	380.92
789.522	464.89
789.703	421.88
789.884	458.75
790.065	501.75
790.246	452.6
790.427	397.31
790.607	452.6
790.788	456.7
790.969	346.11
791.15	454.65
791.331	399.35
791.512	382.97
791.693	454.65
791.874	428.03
792.054	524.28
792.235	389.11
792.416	428.03
792.597	354.3
792.778	434.17
792.958	411.64
793.139	385.02
793.32	372.73
793.5	372.73
793.681	395.26
793.862	337.91
794.042	321.53
794.223	249.85
794.404	321.53
794.584	362.49
794.765	339.96
794.945	309.24
795.126	356.35
795.306	313.34
795.487	315.39
795.667	299
795.848	415.74
796.028	360.44
796.209	358.39
796.389	356.35
796.57	272.38
796.75	241.66
796.93	247.8
797.111	272.38
797.291	354.3
797.471	317.44
797.652	282.62
797.832	331.77
798.012	387.07
798.192	292.86
798.373	266.24
798.553	299
798.733	342.01
798.913	282.62
799.093	260.09
799.274	301.05
799.454	311.29
799.634	274.43
799.814	360.44
799.994	331.77
800.174	305.15
800.354	253.95
800.534	282.62
800.714	305.15
800.894	294.91
801.074	286.72
801.254	329.72
801.434	288.76
801.614	253.95
801.794	247.8
801.974	1105.9
802.154	247.8
802.334	268.28
802.514	245.76
802.693	276.48
802.873	227.32
803.053	241.66
803.233	309.24
803.413	239.61
803.592	215.04
803.772	253.95
803.952	258.04
804.131	264.19
804.311	264.19
804.491	301.05
804.67	239.61
804.85	223.23
805.03	307.2
805.209	301.05
805.389	311.29
805.568	258.04
805.748	155.65
805.928	215.04
806.107	323.58
806.287	256
806.466	272.38
806.646	260.09
806.825	186.37
807.004	165.89
807.184	272.38
807.363	313.34
807.543	249.85
807.722	266.24
807.901	249.85
808.081	256
808.26	165.89
808.439	288.76
808.619	190.46
808.798	167.93
808.977	169.98
809.156	262.14
809.336	176.13
809.515	247.8
809.694	167.93
809.873	303.1
810.052	243.71
810.231	276.48
810.411	186.37
810.59	206.84
810.769	184.32
810.948	184.32
811.127	192.51
811.306	137.21
811.485	180.22
811.664	260.09
811.843	151.55
812.022	153.6
812.201	190.46
812.38	192.51
812.559	182.27
812.737	165.89
812.916	137.21
813.095	256
813.274	174.08
813.453	223.23
813.632	180.22
813.811	104.45
813.989	143.36
814.168	217.08
814.347	139.26
814.526	217.08
814.704	305.15
814.883	251.9
815.062	165.89
815.24	215.04
815.419	43.01
815.598	143.36
815.776	161.79
815.955	256
816.133	104.45
816.312	202.75
816.49	157.69
816.669	169.98
816.847	145.41
817.026	198.65
817.204	163.84
817.383	215.04
817.561	100.35
817.74	219.13
817.918	165.89
818.097	149.5
818.275	176.13
818.453	174.08
818.632	174.08
818.81	120.83
818.988	149.5
819.167	133.12
819.345	194.56
819.523	184.32
819.701	190.46
819.879	233.47
820.058	120.83
820.236	88.06
820.414	86.01
820.592	192.51
820.77	75.77
820.948	225.28
821.127	145.41
821.305	174.08
821.483	231.42
821.661	247.8
821.839	149.5
822.017	137.21
822.195	129.02
822.373	223.23
822.551	196.61
822.729	151.55
822.907	169.98
823.085	135.17
823.262	133.12
823.44	104.45
823.618	153.6
823.796	161.79
823.974	83.97
824.152	133.12
824.329	159.74
824.507	110.59
824.685	157.69
824.863	116.73
825.04	143.36
825.218	141.31
825.396	204.8
825.574	143.36
825.751	104.45
825.929	159.74
826.107	172.03
826.284	186.37
826.462	157.69
826.639	129.02
826.817	83.97
826.994	165.89
827.172	100.35
827.349	200.7
827.527	133.12
827.704	47.1
827.882	137.21
828.059	141.31
828.237	88.06
828.414	200.7
828.591	43.01
828.769	159.74
828.946	75.77
829.124	202.75
829.301	133.12
829.478	143.36
829.655	114.69
829.833	141.31
830.01	67.58
830.187	153.6
830.364	102.4
830.542	149.5
830.719	178.17
830.896	61.44
831.073	59.39
831.25	149.5
831.427	112.64
831.604	141.31
831.782	57.34
831.959	108.54
832.136	120.83
832.313	75.77
832.49	83.97
832.667	92.16
832.844	61.44
833.021	135.17
833.198	110.59
833.374	133.12
833.551	116.73
833.728	116.73
833.905	104.45
834.082	55.3
834.259	120.83
834.436	184.32
834.612	83.97
834.789	86.01
834.966	131.07
835.143	155.65
835.319	69.63
835.496	86.01
835.673	53.25
835.85	143.36
836.026	157.69
836.203	184.32
836.38	104.45
836.556	73.73
836.733	141.31
836.909	133.12
837.086	110.59
837.262	69.63
837.439	63.49
837.616	104.45
837.792	92.16
837.968	114.69
838.145	110.59
838.321	104.45
838.498	124.93
838.674	108.54
838.851	176.13
839.027	10.24
839.203	151.55
839.38	71.68
839.556	75.77
839.732	129.02
839.909	28.67
840.085	92.16
840.261	45.06
840.437	86.01
840.614	92.16
840.79	133.12
840.966	124.93
841.142	32.77
841.318	75.77
841.494	92.16
841.671	118.78
841.847	108.54
842.023	104.45
842.199	100.35
842.375	75.77
842.551	61.44
842.727	79.87
842.903	122.88
843.079	51.2
843.255	165.89
843.431	139.26
843.607	92.16
843.783	55.3
843.959	110.59
844.134	10.24
844.31	108.54
844.486	34.82
844.662	104.45
844.838	141.31
845.013	71.68
845.189	83.97
845.365	129.02
845.541	43.01
845.716	83.97
845.892	104.45
846.068	51.2
846.244	59.39
846.419	102.4
846.595	30.72
846.77	43.01
846.946	65.54
847.122	51.2
847.297	69.63
847.473	157.69
847.648	75.77
847.824	104.45
847.999	18.43
848.175	59.39
848.35	100.35
848.526	88.06
848.701	100.35
848.876	88.06
849.052	86.01
849.227	96.25
849.403	38.91
849.578	45.06
849.753	133.12
849.929	81.92
850.104	34.82
850.279	118.78
850.454	34.82
850.63	118.78
850.805	71.68
850.98	22.53
851.155	65.54
851.33	133.12
851.505	100.35
851.681	124.93
851.856	51.2
852.031	110.59
852.206	92.16
852.381	120.83
852.556	59.39
852.731	22.53
852.906	83.97
853.081	75.77
853.256	157.69
853.431	-28.67
853.606	75.77
853.781	61.44
853.956	79.87
854.131	77.82
854.305	-10.24
854.48	108.54
854.655	40.96
854.83	-24.58
855.005	100.35
855.18	-30.72
855.354	59.39
855.529	47.1
855.704	88.06
855.879	129.02
856.053	-14.34
856.228	75.77
856.403	30.72
856.577	57.34
856.752	53.25
856.926	34.82
857.101	63.49
857.276	43.01
857.45	20.48
857.625	92.16
857.799	92.16
857.974	34.82
858.148	67.58
858.323	118.78
858.497	77.82
858.672	6.14
858.846	10.24
859.02	104.45
859.195	4.1
859.369	67.58
859.543	2.05
859.718	116.73
859.892	14.34
860.066	112.64
860.241	43.01
860.415	18.43
860.589	86.01
860.763	55.3
860.938	86.01
861.112	45.06
861.286	30.72
861.46	88.06
861.634	22.53
861.808	167.93
861.982	49.15
862.157	67.58
862.331	-14.34
862.505	61.44
862.679	83.97
862.853	36.86
863.027	34.82
863.201	118.78
863.375	18.43
863.549	77.82
863.722	88.06
863.896	53.25
864.07	40.96
864.244	88.06
864.418	20.48
864.592	116.73
864.766	67.58
864.939	86.01
865.113	-14.34
865.287	108.54
865.461	-6.14
865.634	20.48
865.808	4.1
865.982	40.96
866.156	81.92
866.329	100.35
866.503	92.16
866.676	10.24
866.85	55.3
867.024	-4.1
867.197	51.2
867.371	45.06
867.544	63.49
867.718	10.24
867.891	88.06
868.065	79.87
868.238	55.3
868.412	86.01
868.585	94.21
868.759	55.3
868.932	59.39
869.105	69.63
869.279	43.01
869.452	34.82
869.625	32.77
869.799	51.2
869.972	92.16
870.145	34.82
870.319	59.39
870.492	-2.05
870.665	67.58
870.838	34.82
871.011	20.48
871.185	71.68
871.358	67.58
871.531	55.3
871.704	-26.62
871.877	92.16
872.05	65.54
872.223	53.25
872.396	18.43
872.569	79.87
872.742	53.25
872.915	67.58
873.088	36.86
873.261	-61.44
873.434	79.87
873.607	69.63
873.78	129.02
873.953	22.53
874.126	47.1
874.299	112.64
874.471	-30.72
874.644	51.2
874.817	59.39
874.99	51.2
875.163	59.39
875.335	69.63
875.508	32.77
875.681	22.53
875.853	-22.53
876.026	34.82
876.199	90.11
876.371	12.29
876.544	104.45
876.717	45.06
876.889	-36.86
877.062	126.97
877.234	-83.97
877.407	102.4
877.579	61.44
877.752	86.01
877.924	18.43
878.097	98.3
878.269	-45.06
878.442	30.72
878.614	92.16
878.786	75.77
878.959	-12.29
879.131	49.15
879.303	-4.1
879.476	34.82
879.648	151.55
879.82	67.58
879.993	51.2
880.165	55.3
880.337	14.34
880.509	83.97
880.681	-18.43
880.854	28.67
881.026	96.25
881.198	75.77
881.37	49.15
881.542	59.39
881.714	71.68
881.886	51.2
882.058	102.4
882.23	71.68
882.402	2.05
882.574	108.54
882.746	51.2
882.918	94.21
883.09	86.01
883.262	-47.1
883.434	75.77
883.606	4.1
883.778	83.97
883.95	94.21
884.122	10.24
884.293	34.82
884.465	59.39
884.637	174.08
884.809	43.01
884.98	59.39
885.152	55.3
885.324	100.35
885.496	20.48
885.667	-4.1
885.839	6.14
886.011	86.01
886.182	51.2
886.354	92.16
886.525	22.53
886.697	90.11
886.869	26.62
887.04	22.53
887.212	26.62
887.383	38.91
887.555	34.82
887.726	51.2
887.897	-26.62
888.069	43.01
888.24	90.11
888.412	45.06
888.583	45.06
888.754	34.82
888.926	18.43
889.097	20.48
889.268	-18.43
889.44	2.05
889.611	-14.34
889.782	18.43
889.953	-24.58
890.125	75.77
890.296	-38.91
890.467	-14.34
890.638	-2.05
890.809	12.29
890.98	77.82
891.151	102.4
891.323	28.67
891.494	-47.1
891.665	43.01
891.836	47.1
892.007	30.72
892.178	43.01
892.349	20.48
892.52	-36.86
892.691	0
892.862	43.01
893.032	-6.14
893.203	92.16
893.374	43.01
893.545	77.82
893.716	63.49
893.887	55.3
894.057	67.58
894.228	18.43
894.399	51.2
894.57	12.29
894.74	94.21
894.911	-4.1
895.082	-12.29
895.253	20.48
895.423	14.34
895.594	51.2
895.764	120.83
895.935	18.43
896.106	67.58
896.276	20.48
896.447	94.21
896.617	14.34
896.788	43.01
896.958	79.87
897.129	-38.91
897.299	59.39
897.47	43.01
897.64	57.34
897.81	28.67
897.981	63.49
898.151	-22.53
898.322	-30.72
898.492	49.15
898.662	-14.34
898.832	28.67
899.003	12.29
899.173	79.87
899.343	-34.82
899.513	30.72
