Data from USB4F104151__279__14-34-43-026.txt Node

Date: Thu Mar 13 14:34:43 EDT 2025
User: louis
Spectrometer: USB4F10415
Trigger mode: 4
Integration Time (sec): 2.500000E-2
Scans to average: 1
Electric dark correction enabled: true
Nonlinearity correction enabled: false
Boxcar width: 0
XAxis mode: Wavelengths
Number of Pixels in Spectrum: 3648
>>>>>Begin Spectral Data<<<<<
178.204	-160.94
178.424	-160.94
178.644	-160.94
178.864	-156.84
179.084	-203.94
179.304	9.05
179.524	-50.35
179.744	33.62
179.964	17.24
180.184	27.48
180.404	-50.35
180.624	23.38
180.844	7
181.064	-33.96
181.283	25.43
181.503	-40.11
181.723	31.57
181.943	-31.91
182.163	56.15
182.383	29.52
182.602	78.68
182.822	52.05
183.042	62.29
183.262	9.05
183.482	19.29
183.701	50
183.921	70.48
184.141	-31.91
184.361	72.53
184.58	-1.19
184.8	82.77
185.02	-27.82
185.239	56.15
185.459	47.96
185.679	43.86
185.898	2.9
186.118	31.57
186.338	43.86
186.557	97.11
186.777	-64.68
186.997	-21.67
187.216	-5.29
187.436	97.11
187.655	39.76
187.875	56.15
188.095	15.19
188.314	58.2
188.534	66.39
188.753	23.38
188.973	33.62
189.192	109.4
189.412	-19.63
189.631	-29.87
189.851	2.9
190.07	45.91
190.29	56.15
190.509	21.33
190.729	-13.48
190.948	31.57
191.168	170.83
191.387	72.53
191.607	31.57
191.826	19.29
192.045	7
192.265	17.24
192.484	31.57
192.704	-9.39
192.923	-15.53
193.142	142.16
193.362	19.29
193.581	88.92
193.8	64.34
194.02	64.34
194.239	4.95
194.458	62.29
194.678	27.48
194.897	58.2
195.116	-46.25
195.335	-31.91
195.555	74.58
195.774	15.19
195.993	-25.77
196.212	15.19
196.432	39.76
196.651	45.91
196.87	58.2
197.089	121.68
197.308	17.24
197.528	11.09
197.747	9.05
197.966	56.15
198.185	50
198.404	56.15
198.623	117.59
198.842	50
199.062	76.63
199.281	62.29
199.5	33.62
199.719	23.38
199.938	56.15
200.157	68.44
200.376	23.38
200.595	56.15
200.814	43.86
201.033	68.44
201.252	76.63
201.471	11.09
201.69	29.52
201.909	129.88
202.128	2.9
202.347	56.15
202.566	39.76
202.785	58.2
203.004	19.29
203.223	113.49
203.442	-21.67
203.661	-27.82
203.879	60.24
204.098	78.68
204.317	-68.78
204.536	54.1
204.755	4.95
204.974	23.38
205.193	4.95
205.411	121.68
205.63	27.48
205.849	39.76
206.068	47.96
206.287	-33.96
206.505	62.29
206.724	31.57
206.943	-13.48
207.162	52.05
207.381	31.57
207.599	39.76
207.818	99.16
208.037	80.72
208.255	11.09
208.474	13.14
208.693	41.81
208.911	-13.48
209.13	19.29
209.349	35.67
209.567	31.57
209.786	99.16
210.005	39.76
210.223	105.3
210.442	82.77
210.661	80.72
210.879	23.38
211.098	31.57
211.316	-72.87
211.535	17.24
211.753	-50.35
211.972	47.96
212.191	-7.34
212.409	31.57
212.628	129.88
212.846	-15.53
213.065	93.01
213.283	66.39
213.502	80.72
213.72	41.81
213.938	52.05
214.157	0.85
214.375	23.38
214.594	39.76
214.812	74.58
215.031	15.19
215.249	47.96
215.467	47.96
215.686	82.77
215.904	50
216.122	23.38
216.341	56.15
216.559	64.34
216.778	-31.91
216.996	105.3
217.214	-19.63
217.432	-23.72
217.651	-21.67
217.869	66.39
218.087	52.05
218.306	54.1
218.524	47.96
218.742	-21.67
218.96	58.2
219.179	52.05
219.397	97.11
219.615	123.73
219.833	19.29
220.051	-21.67
220.27	66.39
220.488	121.68
220.706	17.24
220.924	27.48
221.142	31.57
221.36	17.24
221.578	15.19
221.796	56.15
222.015	25.43
222.233	109.4
222.451	41.81
222.669	7
222.887	21.33
223.105	19.29
223.323	-23.72
223.541	0.85
223.759	58.2
223.977	19.29
224.195	60.24
224.413	74.58
224.631	58.2
224.849	31.57
225.067	162.64
225.285	-11.43
225.503	13.14
225.721	-46.25
225.939	47.96
226.157	50
226.375	179.03
226.592	23.38
226.81	45.91
227.028	82.77
227.246	97.11
227.464	29.52
227.682	4.95
227.9	64.34
228.117	7
228.335	17.24
228.553	-11.43
228.771	31.57
228.989	66.39
229.206	39.76
229.424	-1.19
229.642	31.57
229.86	-7.34
230.077	31.57
230.295	39.76
230.513	123.73
230.731	43.86
230.948	56.15
231.166	29.52
231.384	-79.02
231.601	21.33
231.819	31.57
232.037	41.81
232.254	-46.25
232.472	39.76
232.689	-17.58
232.907	-17.58
233.125	31.57
233.342	-25.77
233.56	-5.29
233.777	86.87
233.995	-23.72
234.213	113.49
234.43	39.76
234.648	-50.35
234.865	33.62
235.083	43.86
235.3	21.33
235.518	62.29
235.735	31.57
235.953	105.3
236.17	95.06
236.388	50
236.605	2.9
236.822	-7.34
237.04	82.77
237.257	7
237.475	-29.87
237.692	47.96
237.909	41.81
238.127	7
238.344	-42.15
238.562	174.93
238.779	-7.34
238.996	7
239.214	41.81
239.431	33.62
239.648	2.9
239.865	15.19
240.083	7
240.3	-31.91
240.517	33.62
240.735	99.16
240.952	52.05
241.169	39.76
241.386	35.67
241.603	78.68
241.821	-46.25
242.038	31.57
242.255	103.25
242.472	19.29
242.689	11.09
242.907	52.05
243.124	25.43
243.341	58.2
243.558	-23.72
243.775	11.09
243.992	-36.01
244.209	-38.06
244.426	52.05
244.643	82.77
244.86	-7.34
245.078	-5.29
245.295	25.43
245.512	-15.53
245.729	-15.53
245.946	121.68
246.163	31.57
246.38	39.76
246.597	-33.96
246.814	23.38
247.031	43.86
247.248	39.76
247.464	-13.48
247.681	27.48
247.898	95.06
248.115	-1.19
248.332	-11.43
248.549	-38.06
248.766	86.87
248.983	9.05
249.2	-46.25
249.417	25.43
249.633	58.2
249.85	80.72
250.067	0.85
250.284	58.2
250.501	101.2
250.717	50
250.934	27.48
251.151	52.05
251.368	-15.53
251.585	23.38
251.801	47.96
252.018	-5.29
252.235	60.24
252.451	-21.67
252.668	9.05
252.885	93.01
253.102	105.3
253.318	-25.77
253.535	39.76
253.752	47.96
253.968	-42.15
254.185	-13.48
254.401	-48.3
254.618	19.29
254.835	25.43
255.051	107.35
255.268	76.63
255.484	58.2
255.701	17.24
255.917	78.68
256.134	-9.39
256.351	23.38
256.567	11.09
256.784	7
257	13.14
257.217	31.57
257.433	2.9
257.65	97.11
257.866	76.63
258.082	29.52
258.299	-81.07
258.515	19.29
258.732	35.67
258.948	60.24
259.165	7
259.381	-21.67
259.597	58.2
259.814	11.09
260.03	39.76
260.246	52.05
260.463	7
260.679	88.92
260.895	80.72
261.112	105.3
261.328	-5.29
261.544	-87.21
261.761	181.07
261.977	-9.39
262.193	15.19
262.409	76.63
262.626	129.88
262.842	97.11
263.058	-9.39
263.274	107.35
263.49	-1.19
263.707	31.57
263.923	60.24
264.139	15.19
264.355	52.05
264.571	60.24
264.787	54.1
265.004	97.11
265.22	56.15
265.436	-13.48
265.652	-1.19
265.868	56.15
266.084	-25.77
266.3	-9.39
266.516	-33.96
266.732	21.33
266.948	15.19
267.164	129.88
267.38	52.05
267.596	27.48
267.812	74.58
268.028	97.11
268.244	142.16
268.46	2.9
268.676	13.14
268.892	-5.29
269.108	-11.43
269.324	43.86
269.54	-1.19
269.756	25.43
269.972	7
270.188	41.81
270.403	-15.53
270.619	15.19
270.835	-33.96
271.051	70.48
271.267	64.34
271.483	31.57
271.698	111.44
271.914	25.43
272.13	19.29
272.346	58.2
272.562	47.96
272.777	93.01
272.993	68.44
273.209	7
273.425	2.9
273.64	-1.19
273.856	56.15
274.072	-38.06
274.287	31.57
274.503	39.76
274.719	-23.72
274.934	41.81
275.15	-21.67
275.366	7
275.581	-54.44
275.797	66.39
276.012	97.11
276.228	9.05
276.444	-9.39
276.659	47.96
276.875	58.2
277.09	-42.15
277.306	-7.34
277.521	60.24
277.737	84.82
277.952	115.54
278.168	113.49
278.383	64.34
278.599	-13.48
278.814	39.76
279.03	-7.34
279.245	127.83
279.461	-5.29
279.676	109.4
279.892	-29.87
280.107	17.24
280.322	39.76
280.538	23.38
280.753	-25.77
280.969	47.96
281.184	0.85
281.399	217.94
281.615	70.48
281.83	82.77
282.045	52.05
282.26	39.76
282.476	-3.24
282.691	60.24
282.906	23.38
283.122	35.67
283.337	-1.19
283.552	19.29
283.767	11.09
283.983	82.77
284.198	47.96
284.413	84.82
284.628	-13.48
284.843	115.54
285.058	-38.06
285.274	-17.58
285.489	-17.58
285.704	86.87
285.919	72.53
286.134	-1.19
286.349	15.19
286.564	4.95
286.779	88.92
286.995	0.85
287.21	27.48
287.425	60.24
287.64	56.15
287.855	72.53
288.07	17.24
288.285	82.77
288.5	123.73
288.715	50
288.93	47.96
289.145	41.81
289.36	23.38
289.575	82.77
289.79	47.96
290.004	19.29
290.219	99.16
290.434	-21.67
290.649	-9.39
290.864	21.33
291.079	31.57
291.294	39.76
291.509	140.12
291.724	45.91
291.938	88.92
292.153	15.19
292.368	2.9
292.583	-40.11
292.798	27.48
293.012	84.82
293.227	33.62
293.442	41.81
293.657	107.35
293.871	187.22
294.086	-1.19
294.301	56.15
294.516	52.05
294.73	31.57
294.945	15.19
295.16	56.15
295.374	19.29
295.589	-33.96
295.804	80.72
296.018	45.91
296.233	146.26
296.447	58.2
296.662	-23.72
296.877	162.64
297.091	43.86
297.306	-1.19
297.52	82.77
297.735	47.96
297.949	80.72
298.164	52.05
298.378	27.48
298.593	-21.67
298.807	54.1
299.022	88.92
299.236	82.77
299.451	35.67
299.665	-7.34
299.88	31.57
300.094	31.57
300.309	97.11
300.523	107.35
300.737	72.53
300.952	129.88
301.166	66.39
301.381	-9.39
301.595	-25.77
301.809	54.1
302.024	64.34
302.238	25.43
302.452	150.36
302.667	56.15
302.881	43.86
303.095	80.72
303.309	33.62
303.524	39.76
303.738	39.76
303.952	-33.96
304.166	90.96
304.381	-17.58
304.595	80.72
304.809	52.05
305.023	27.48
305.237	68.44
305.452	97.11
305.666	99.16
305.88	68.44
306.094	27.48
306.308	88.92
306.522	78.68
306.736	-17.58
306.95	99.16
307.164	-23.72
307.379	27.48
307.593	115.54
307.807	9.05
308.021	76.63
308.235	39.76
308.449	-48.3
308.663	-15.53
308.877	99.16
309.091	33.62
309.305	33.62
309.519	-11.43
309.733	127.83
309.947	4.95
310.161	47.96
310.374	88.92
310.588	88.92
310.802	0.85
311.016	-13.48
311.23	33.62
311.444	33.62
311.658	50
311.872	88.92
312.085	107.35
312.299	117.59
312.513	80.72
312.727	15.19
312.941	64.34
313.154	41.81
313.368	33.62
313.582	23.38
313.796	4.95
314.009	37.72
314.223	33.62
314.437	58.2
314.651	15.19
314.864	7
315.078	31.57
315.292	-5.29
315.505	29.52
315.719	50
315.933	88.92
316.146	17.24
316.36	-15.53
316.573	76.63
316.787	82.77
317.001	23.38
317.214	15.19
317.428	72.53
317.641	-62.63
317.855	74.58
318.068	-48.3
318.282	2.9
318.495	107.35
318.709	109.4
318.922	52.05
319.136	43.86
319.349	58.2
319.563	72.53
319.776	84.82
319.99	0.85
320.203	58.2
320.417	58.2
320.63	74.58
320.843	86.87
321.057	-5.29
321.27	41.81
321.483	-21.67
321.697	90.96
321.91	33.62
322.124	64.34
322.337	58.2
322.55	-40.11
322.763	47.96
322.977	39.76
323.19	23.38
323.403	31.57
323.617	88.92
323.83	113.49
324.043	11.09
324.256	11.09
324.469	-9.39
324.683	64.34
324.896	52.05
325.109	-25.77
325.322	66.39
325.535	72.53
325.748	19.29
325.962	0.85
326.175	43.86
326.388	62.29
326.601	47.96
326.814	21.33
327.027	9.05
327.24	56.15
327.453	-13.48
327.666	-17.58
327.879	64.34
328.092	90.96
328.305	56.15
328.518	58.2
328.731	31.57
328.944	41.81
329.157	56.15
329.37	45.91
329.583	133.97
329.796	99.16
330.009	31.57
330.222	31.57
330.435	68.44
330.648	54.1
330.861	58.2
331.073	35.67
331.286	52.05
331.499	64.34
331.712	39.76
331.925	9.05
332.138	0.85
332.35	58.2
332.563	-21.67
332.776	56.15
332.989	-33.96
333.202	-54.44
333.414	56.15
333.627	41.81
333.84	0.85
334.053	19.29
334.265	52.05
334.478	39.76
334.691	76.63
334.903	72.53
335.116	-7.34
335.329	58.2
335.541	136.02
335.754	113.49
335.966	21.33
336.179	-1.19
336.392	58.2
336.604	-3.24
336.817	60.24
337.029	45.91
337.242	58.2
337.454	56.15
337.667	17.24
337.88	107.35
338.092	47.96
338.305	23.38
338.517	43.86
338.729	0.85
338.942	109.4
339.154	35.67
339.367	2.9
339.579	64.34
339.792	-1.19
340.004	70.48
340.217	54.1
340.429	82.77
340.641	43.86
340.854	-13.48
341.066	15.19
341.278	47.96
341.491	84.82
341.703	72.53
341.915	47.96
342.128	88.92
342.34	7
342.552	9.05
342.764	4.95
342.977	-42.15
343.189	72.53
343.401	9.05
343.613	11.09
343.826	35.67
344.038	66.39
344.25	58.2
344.462	82.77
344.674	9.05
344.886	93.01
345.099	39.76
345.311	107.35
345.523	56.15
345.735	-74.92
345.947	78.68
346.159	-5.29
346.371	11.09
346.583	84.82
346.795	129.88
347.007	56.15
347.219	127.83
347.431	23.38
347.643	78.68
347.855	-21.67
348.067	68.44
348.279	-27.82
348.491	80.72
348.703	84.82
348.915	31.57
349.127	97.11
349.339	43.86
349.551	47.96
349.763	80.72
349.975	62.29
350.187	90.96
350.399	33.62
350.61	88.92
350.822	-9.39
351.034	13.14
351.246	39.76
351.458	148.31
351.669	31.57
351.881	29.52
352.093	160.59
352.305	105.3
352.517	99.16
352.728	142.16
352.94	35.67
353.152	-40.11
353.363	19.29
353.575	84.82
353.787	47.96
353.999	129.88
354.21	68.44
354.422	80.72
354.633	105.3
354.845	-7.34
355.057	88.92
355.268	88.92
355.48	80.72
355.692	37.72
355.903	43.86
356.115	9.05
356.326	-3.24
356.538	47.96
356.749	113.49
356.961	123.73
357.172	88.92
357.384	60.24
357.595	131.92
357.807	15.19
358.018	-42.15
358.23	56.15
358.441	162.64
358.653	52.05
358.864	117.59
359.075	-1.19
359.287	72.53
359.498	97.11
359.709	31.57
359.921	25.43
360.132	41.81
360.344	97.11
360.555	31.57
360.766	113.49
360.977	62.29
361.189	27.48
361.4	35.67
361.611	0.85
361.823	162.64
362.034	93.01
362.245	-7.34
362.456	-1.19
362.667	66.39
362.879	52.05
363.09	66.39
363.301	33.62
363.512	35.67
363.723	88.92
363.935	35.67
364.146	56.15
364.357	68.44
364.568	80.72
364.779	-9.39
364.99	105.3
365.201	113.49
365.412	113.49
365.623	-9.39
365.834	52.05
366.045	66.39
366.256	60.24
366.467	31.57
366.678	35.67
366.889	107.35
367.1	52.05
367.311	84.82
367.522	17.24
367.733	58.2
367.944	62.29
368.155	37.72
368.366	90.96
368.577	97.11
368.788	43.86
368.999	7
369.209	76.63
369.42	88.92
369.631	97.11
369.842	39.76
370.053	50
370.264	17.24
370.474	17.24
370.685	7
370.896	72.53
371.107	105.3
371.317	97.11
371.528	72.53
371.739	90.96
371.95	31.57
372.16	31.57
372.371	0.85
372.582	62.29
372.792	64.34
373.003	15.19
373.214	72.53
373.424	31.57
373.635	60.24
373.846	72.53
374.056	80.72
374.267	62.29
374.477	7
374.688	88.92
374.898	95.06
375.109	17.24
375.319	66.39
375.53	41.81
375.74	60.24
375.951	72.53
376.161	109.4
376.372	131.92
376.582	70.48
376.793	68.44
377.003	58.2
377.214	56.15
377.424	88.92
377.635	-9.39
377.845	64.34
378.055	90.96
378.266	-40.11
378.476	58.2
378.686	162.64
378.897	11.09
379.107	17.24
379.317	119.64
379.528	29.52
379.738	76.63
379.948	76.63
380.158	74.58
380.369	64.34
380.579	99.16
380.789	45.91
380.999	68.44
381.21	56.15
381.42	62.29
381.63	23.38
381.84	39.76
382.05	88.92
382.261	146.26
382.471	88.92
382.681	60.24
382.891	72.53
383.101	60.24
383.311	-31.91
383.521	66.39
383.731	47.96
383.941	41.81
384.151	60.24
384.361	39.76
384.571	99.16
384.781	39.76
384.991	72.53
385.201	90.96
385.411	101.2
385.621	52.05
385.831	107.35
386.041	109.4
386.251	-5.29
386.461	123.73
386.671	17.24
386.881	105.3
387.091	56.15
387.301	9.05
387.511	2.9
387.72	74.58
387.93	136.02
388.14	52.05
388.35	50
388.56	43.86
388.769	37.72
388.979	88.92
389.189	11.09
389.399	31.57
389.609	27.48
389.818	84.82
390.028	50
390.238	119.64
390.447	0.85
390.657	64.34
390.867	23.38
391.076	-7.34
391.286	47.96
391.496	88.92
391.705	82.77
391.915	172.88
392.125	64.34
392.334	60.24
392.544	72.53
392.753	27.48
392.963	15.19
393.172	23.38
393.382	7
393.591	88.92
393.801	64.34
394.01	111.44
394.22	-50.35
394.429	60.24
394.639	97.11
394.848	148.31
395.058	50
395.267	13.14
395.477	74.58
395.686	133.97
395.895	199.51
396.105	113.49
396.314	133.97
396.524	129.88
396.733	129.88
396.942	138.07
397.152	105.3
397.361	119.64
397.57	29.52
397.78	138.07
397.989	-1.19
398.198	138.07
398.407	123.73
398.617	170.83
398.826	103.25
399.035	97.11
399.244	136.02
399.453	95.06
399.663	70.48
399.872	150.36
400.081	68.44
400.29	121.68
400.499	88.92
400.708	88.92
400.917	31.57
401.127	133.97
401.336	111.44
401.545	172.88
401.754	80.72
401.963	90.96
402.172	84.82
402.381	113.49
402.59	64.34
402.799	113.49
403.008	158.55
403.217	174.93
403.426	97.11
403.635	105.3
403.844	146.26
404.053	138.07
404.262	123.73
404.471	140.12
404.68	119.64
404.888	117.59
405.097	68.44
405.306	179.03
405.515	179.03
405.724	138.07
405.933	195.41
406.142	195.41
406.35	129.88
406.559	162.64
406.768	183.12
406.977	164.69
407.185	164.69
407.394	219.99
407.603	150.36
407.812	189.27
408.02	205.65
408.229	172.88
408.438	195.41
408.646	187.22
408.855	199.51
409.064	285.52
409.272	277.33
409.481	269.14
409.69	322.38
409.898	211.79
410.107	359.25
410.315	328.53
410.524	265.04
410.733	336.72
410.941	363.34
411.15	416.59
411.358	351.06
411.567	435.02
411.775	449.36
411.984	441.17
412.192	410.45
412.401	473.93
412.609	531.28
412.818	506.7
413.026	605
413.234	486.22
413.443	559.95
413.651	566.09
413.86	633.68
414.068	596.81
414.276	686.92
414.485	580.43
414.693	672.59
414.901	746.31
415.11	684.87
415.318	785.23
415.526	680.78
415.734	721.74
415.943	742.22
416.151	957.25
416.359	752.46
416.567	828.23
416.776	953.16
416.984	987.97
417.192	983.88
417.4	1030.98
417.608	977.73
417.817	1055.56
418.025	1100.61
418.233	1219.39
418.441	1225.54
418.649	1203.01
418.857	1325.89
419.065	1362.75
419.273	1309.51
419.481	1354.56
419.689	1452.86
419.897	1459.01
420.105	1424.19
420.313	1489.73
420.521	1628.99
420.729	1624.89
420.937	1727.29
421.145	1663.8
421.353	1905.46
421.561	1878.84
421.769	1891.13
421.977	2009.91
422.185	2173.75
422.393	2186.04
422.601	2356.02
422.809	2284.34
423.017	2296.63
423.224	2315.06
423.432	2423.6
423.64	2558.77
423.848	2759.47
424.056	2599.73
424.263	2763.56
424.471	2915.11
424.679	2843.43
424.887	3033.9
425.094	3136.29
425.302	3226.4
425.51	3439.39
425.718	3349.28
425.925	3562.27
426.133	3402.53
426.341	3717.92
426.548	3908.38
426.756	3900.19
426.964	3842.84
427.171	3980.06
427.379	4268.82
427.586	4217.62
427.794	4381.46
428.001	4619.02
428.209	4844.3
428.417	4948.75
428.624	5079.82
428.832	5276.42
429.039	4954.89
429.247	5163.78
429.454	5610.24
429.662	5972.73
429.869	5511.94
430.076	5874.43
430.284	5870.33
430.491	6013.69
430.699	6367.99
430.906	6613.74
431.114	6505.2
431.321	6648.56
431.528	6843.12
431.736	7117.54
431.943	7557.86
432.15	7361.25
432.358	7414.5
432.565	8063.71
432.772	7740.13
432.979	8260.31
433.187	8211.16
433.394	8198.87
433.601	8973
433.808	8913.61
434.016	8897.23
434.223	8985.29
434.43	9790.14
434.637	9589.44
434.844	10306.23
435.052	10607.28
435.259	10164.92
435.466	10435.25
435.673	10369.72
435.88	10994.35
436.087	11467.43
436.294	11559.59
436.501	11244.2
436.708	11362.98
436.915	12190.36
437.122	12425.88
437.329	12397.21
437.537	12649.11
437.743	12849.81
437.95	12880.53
438.157	13531.78
438.364	14002.82
438.571	13826.69
438.778	13965.95
438.985	15288.94
439.192	14547.58
439.399	15260.27
439.606	14830.2
439.813	15686.25
440.02	16573.02
440.227	16009.83
440.433	16251.49
440.64	16763.48
440.847	16448.09
441.054	16958.03
441.261	18164.29
441.467	18086.47
441.674	18258.49
441.881	18909.75
442.088	18883.13
442.294	18514.49
442.501	18938.42
442.708	19272.24
442.914	20298.27
443.121	21053.97
443.328	20453.92
443.534	22061.57
443.741	21238.29
443.948	20912.66
444.154	22716.92
444.361	22608.38
444.568	22579.71
444.774	22755.83
444.981	23007.73
445.187	23431.66
445.394	24459.74
445.6	23984.62
445.807	26544.58
446.013	25387.47
446.22	25690.57
446.426	27023.8
446.633	26790.33
446.839	27877.8
447.046	26657.21
447.252	28633.5
447.459	28193.19
447.665	28109.22
447.871	29307.29
448.078	30615.94
448.284	29325.72
448.491	29837.71
448.697	30951.81
448.903	31684.98
449.11	31775.09
449.316	31207.8
449.522	31607.16
449.728	32715.11
449.935	33112.41
450.141	32956.77
450.347	34031.95
450.553	32229.74
450.76	32874.85
450.966	34009.42
451.172	33341.78
451.378	34681.16
451.584	33845.58
451.791	34564.42
451.997	34775.36
452.203	35105.09
452.409	35164.48
452.615	34855.23
452.821	33552.73
453.027	33122.65
453.233	34748.74
453.44	33429.85
453.646	34056.53
453.852	33993.04
454.058	34773.31
454.264	33476.95
454.47	34242.89
454.676	33755.47
454.882	34662.72
455.088	31758.7
455.294	32020.84
455.5	32354.66
455.705	32844.13
455.911	31558
456.117	30660.99
456.323	30380.42
456.529	29235.61
456.735	30353.8
456.941	29542.8
457.147	28651.94
457.352	27691.44
457.558	27533.75
457.764	27767.21
457.97	26988.99
458.176	26409.41
458.381	26141.13
458.587	25391.57
458.793	25020.89
458.999	23720.43
459.204	25676.24
459.41	25182.68
459.616	23165.43
459.821	23161.33
460.027	23157.24
460.233	22391.3
460.438	21539.34
460.644	21430.8
460.85	20836.89
461.055	20455.97
461.261	20259.36
461.466	18801.21
461.672	18068.03
461.878	19305.01
462.083	18180.67
462.289	17977.92
462.494	17619.53
462.7	16833.11
462.905	16271.97
463.111	17171.02
463.316	17070.67
463.522	16640.6
463.727	16562.78
463.932	16423.51
464.138	16294.49
464.343	16271.97
464.549	15864.42
464.754	16271.97
464.959	16509.53
465.165	16065.12
465.37	15309.42
465.575	15166.06
465.781	15594.09
465.986	15620.71
466.191	15057.52
466.397	14844.53
466.602	14213.76
466.807	14430.84
467.012	14637.69
467.218	14641.78
467.423	14334.59
467.628	14400.12
467.833	15114.86
468.038	14342.78
468.244	13900.42
468.449	14289.53
468.654	13781.64
468.859	13982.34
469.064	13900.42
469.269	13382.28
469.474	13181.58
469.679	13548.17
469.885	13159.05
470.09	13439.62
470.295	13441.67
470.5	12907.15
470.705	13236.88
470.91	12776.08
471.115	12569.24
471.32	13068.94
471.525	12645.01
471.73	12341.91
471.935	12294.81
472.139	11860.64
472.344	12038.81
472.549	11868.83
472.754	11756.19
472.959	11541.16
473.164	11262.63
473.369	11279.02
473.574	11549.35
473.778	11547.3
473.983	11344.55
474.188	11434.66
474.393	10861.23
474.598	10783.41
474.802	10691.25
475.007	10549.94
475.212	10898.1
475.417	10117.82
475.621	10185.4
475.826	10384.05
476.031	10175.16
476.235	9980.61
476.44	10027.71
476.645	9970.37
476.849	9904.83
477.054	9855.68
477.259	9704.13
477.463	9624.26
477.668	9439.94
477.872	9499.33
478.077	9171.66
478.282	9177.8
478.486	9108.17
478.691	9059.02
478.895	9042.64
479.1	8772.3
479.304	8977.1
479.509	8618.71
479.713	8805.07
479.918	8671.95
480.122	8569.55
480.326	8653.52
480.531	8512.21
480.735	8534.74
480.94	8340.18
481.144	8674
481.348	8252.12
481.553	8487.64
481.757	8131.29
481.961	8321.75
482.166	8567.51
482.37	8241.88
482.574	8157.91
482.778	8303.32
482.983	8268.5
483.187	8280.79
483.391	8321.75
483.595	8334.04
483.8	8047.32
484.004	8301.27
484.208	8164.06
484.412	8352.47
484.616	8170.2
484.821	8135.39
485.025	7998.17
485.229	8323.8
485.433	8108.76
485.637	8028.89
485.841	7906.01
486.045	7951.07
486.249	8024.79
486.453	8229.59
486.657	7989.98
486.861	8108.76
487.065	7953.12
487.269	8082.14
487.473	7871.2
487.677	8258.26
487.881	8172.25
488.085	8104.67
488.289	8291.03
488.493	8198.87
488.697	8100.57
488.901	8200.92
489.105	8002.27
489.309	8223.45
489.512	8018.65
489.716	8213.21
489.92	8073.95
490.124	8170.2
490.328	8184.54
490.531	8080.09
490.735	8268.5
490.939	8075.99
491.143	8264.41
491.346	8178.39
491.55	8438.48
491.754	8272.6
491.958	8403.67
492.161	8334.04
492.365	8278.74
492.569	8397.53
492.772	8338.13
492.976	8278.74
493.18	8497.88
493.383	8454.87
493.587	8551.12
493.79	8641.23
493.994	8461.01
494.197	8766.16
494.401	8551.12
494.605	8731.34
494.808	8944.33
495.012	8930
495.215	9030.35
495.419	8983.24
495.622	9061.07
495.825	8995.53
496.029	9116.36
496.232	9302.73
496.436	9118.41
496.639	9454.28
496.843	9315.02
497.046	9544.39
497.249	9544.39
497.453	9546.44
497.656	9870.01
497.859	9759.42
498.063	9984.7
498.266	10216.12
498.469	9788.1
498.673	10199.74
498.876	10142.39
499.079	10066.62
499.282	10126.01
499.485	10812.08
499.689	10392.25
499.892	10699.44
500.095	10717.87
500.298	11018.93
500.501	10775.22
500.705	11076.27
500.908	11049.64
501.111	11449
501.314	11311.78
501.517	11219.63
501.72	11621.03
501.923	11811.49
502.126	11803.3
502.329	12032.67
502.532	12149.4
502.735	12079.77
502.938	12319.39
503.141	12356.25
503.344	12524.18
503.547	12401.3
503.75	12749.46
503.953	12704.4
504.156	12835.47
504.359	13159.05
504.562	13179.53
504.765	13402.76
504.968	13609.61
505.17	13924.99
505.373	13613.7
505.576	14144.13
505.779	14000.77
505.982	14078.59
506.185	14426.75
506.387	14486.14
506.59	14416.51
506.793	14754.42
506.996	14574.2
507.198	15110.77
507.401	15100.53
507.604	15227.5
507.807	15532.65
508.009	15600.23
508.212	15667.81
508.415	15706.73
508.617	16163.42
508.82	16226.91
509.022	16079.46
509.225	16607.83
509.428	16589.4
509.63	16695.89
509.833	16695.89
510.035	16974.42
510.238	17240.65
510.44	17308.24
510.643	17969.73
510.845	17775.17
511.048	17834.57
511.25	18016.83
511.453	18076.23
511.655	18919.99
511.858	18692.66
512.06	18717.24
512.262	18815.54
512.465	18737.72
512.667	19446.32
512.87	19399.21
513.072	19339.82
513.274	19925.54
513.477	19780.14
513.679	20175.39
513.881	20623.9
514.084	20417.05
514.286	20423.2
514.488	20638.23
514.69	21273.1
514.893	21312.02
515.095	21365.26
515.297	21604.88
515.499	21615.12
515.701	22096.39
515.904	22147.59
516.106	22387.2
516.308	22258.18
516.51	22876.66
516.712	22792.7
516.914	22778.36
517.116	23171.57
517.318	23368.18
517.52	23671.28
517.722	23587.31
517.925	24068.58
518.127	23966.18
518.329	24510.94
518.531	24017.38
518.733	24345.06
518.935	24934.87
519.136	25010.65
519.338	25180.63
519.54	25348.56
519.742	25233.88
519.944	25706.96
520.146	25823.69
520.348	26118.6
520.55	25954.76
520.752	25803.21
520.954	26517.95
521.155	26571.2
521.357	26481.09
521.559	26870.2
521.761	27019.71
521.963	27146.68
522.164	27318.71
522.366	27449.78
522.568	27541.94
522.77	27595.18
522.971	27916.72
523.173	27517.36
523.375	27810.22
523.576	28033.45
523.778	28295.59
523.98	28289.45
524.181	28309.93
524.383	28264.87
524.584	28449.19
524.786	28561.83
524.988	28600.74
525.189	28610.98
525.391	28909.98
525.592	28981.66
525.794	29065.63
525.995	28709.28
526.197	29241.75
526.398	29133.21
526.6	29200.79
526.801	29335.96
527.003	29329.81
527.204	29178.26
527.406	29512.08
527.607	29364.63
527.808	29800.85
528.01	28971.42
528.211	29161.88
528.412	29905.29
528.614	29831.57
528.815	29245.85
529.016	29729.17
529.218	29278.61
529.419	29411.73
529.62	29405.59
529.822	29100.44
530.023	29448.6
530.224	29378.97
530.425	29598.1
530.626	29231.51
530.828	29153.69
531.029	29751.7
531.23	29102.49
531.431	29141.4
531.632	29649.3
531.833	29419.92
532.035	29022.62
532.236	29469.08
532.437	29577.62
532.638	29180.31
532.839	29211.03
533.04	29325.72
533.241	28889.5
533.442	29120.92
533.643	29092.25
533.844	28940.7
534.045	29204.89
534.246	28899.74
534.447	29165.98
534.648	29262.23
534.849	28762.53
535.05	28592.55
535.251	28744.09
535.451	28672.42
535.652	28709.28
535.853	28555.68
536.054	28668.32
536.255	28805.53
536.456	28475.81
536.657	28881.31
536.857	28481.95
537.058	28434.85
537.259	28543.39
537.46	28252.58
537.66	28432.8
537.861	28774.81
538.062	28293.54
538.263	28199.34
538.463	28133.8
538.664	28232.1
538.865	28125.61
539.065	28350.88
539.266	28195.24
539.466	28549.54
539.667	27724.21
539.868	28408.23
540.068	28178.86
540.269	28236.2
540.469	28445.09
540.67	28017.07
540.87	28006.83
541.071	27984.3
541.271	28248.49
541.472	28168.62
541.672	28002.73
541.873	27787.69
542.073	27564.46
542.274	27980.2
542.474	27707.82
542.675	27773.36
542.875	28023.21
543.075	27898.28
543.276	27584.94
543.476	28334.5
543.676	27470.26
543.877	27892.14
544.077	27711.92
544.277	27726.25
544.478	27679.15
544.678	27759.02
544.878	27802.03
545.078	27824.56
545.279	27556.27
545.479	27535.79
545.679	27793.84
545.879	27677.1
546.079	27617.71
546.28	27570.61
546.48	27097.53
546.68	27683.25
546.88	27718.06
547.08	27492.79
547.28	27369.91
547.48	27290.04
547.68	27883.95
547.88	27312.56
548.081	27462.07
548.281	27818.41
548.481	27515.31
548.681	27834.8
548.881	27548.08
549.081	27517.36
549.28	27625.9
549.48	27597.23
549.68	27662.77
549.88	27920.81
550.08	27394.48
550.28	27627.95
550.48	27322.8
550.68	27935.15
550.88	27521.46
551.08	27396.53
551.279	27916.72
551.479	27244.98
551.679	28092.84
551.879	27316.66
552.079	27701.68
552.278	27625.9
552.478	27892.14
552.678	27695.53
552.878	27986.35
553.077	27810.22
553.277	27361.72
553.477	27972.01
553.676	27933.1
553.876	27847.08
554.076	27509.17
554.275	28023.21
554.475	27556.27
554.674	27779.5
554.874	28066.22
555.074	27922.86
555.273	27707.82
555.473	28082.6
555.672	27849.13
555.872	27683.25
556.071	27998.63
556.271	28127.66
556.47	28129.7
556.67	27730.35
556.869	27943.34
557.068	28078.5
557.268	27775.41
557.467	28107.18
557.667	27969.96
557.866	27920.81
558.065	28160.42
558.265	27996.59
558.464	27939.24
558.663	28545.44
558.863	27959.72
559.062	28467.62
559.261	27830.7
559.461	28408.23
559.66	27687.34
559.859	28055.98
560.058	27947.43
560.258	28522.91
560.457	27879.85
560.656	28252.58
560.855	28002.73
561.054	28426.66
561.253	28055.98
561.453	27998.63
561.652	28162.47
561.851	28021.16
562.05	28291.49
562.249	27855.28
562.448	28049.83
562.647	27920.81
562.846	27709.87
563.045	28021.16
563.244	27640.24
563.443	28139.94
563.642	27646.38
563.841	27941.29
564.04	27548.08
564.239	28236.2
564.438	27791.79
564.637	28361.12
564.836	27775.41
565.035	27724.21
565.234	27990.44
565.432	27939.24
565.631	27548.08
565.83	27754.93
566.029	27451.83
566.228	27652.53
566.427	27660.72
566.625	27679.15
566.824	27091.38
567.023	27310.52
567.222	27034.04
567.42	27652.53
567.619	27447.73
567.818	27152.82
568.016	27386.29
568.215	27535.79
568.414	27138.49
568.612	27134.39
568.811	26986.94
569.01	26720.7
569.208	26710.46
569.407	27003.32
569.605	26827.2
569.804	26788.28
570.002	26370.5
570.201	26907.07
570.4	27013.56
570.598	26558.91
570.797	26354.12
570.995	26401.22
571.193	26329.54
571.392	26468.8
571.59	26149.32
571.789	26167.75
571.987	26012.1
572.186	26038.73
572.384	25969.1
572.582	26167.75
572.781	25913.8
572.979	25498.06
573.177	25526.74
573.376	26005.96
573.574	25483.73
573.772	25248.21
573.971	25295.32
574.169	25399.76
574.367	25180.63
574.565	25833.93
574.763	24859.1
574.962	25018.84
575.16	24924.63
575.358	25229.78
575.556	24799.71
575.754	24932.82
575.952	24668.64
576.151	24773.08
576.349	24771.04
576.547	24791.52
576.745	24627.68
576.943	24443.36
577.141	24105.45
577.339	24168.93
577.537	24392.16
577.735	24201.7
577.933	24009.19
578.131	24003.05
578.329	23976.42
578.527	23890.41
578.725	23839.21
578.923	23990.76
579.121	23685.61
579.319	23556.59
579.516	23583.21
579.714	23546.35
579.912	23597.55
580.11	23103.99
580.308	23581.17
580.506	23099.89
580.704	23058.93
580.901	23212.53
581.099	23247.35
581.297	22852.09
581.495	23032.31
581.692	23134.71
581.89	22759.93
582.088	22866.42
582.285	22934.01
582.483	23140.85
582.681	22837.75
582.878	22829.56
583.076	22303.23
583.274	22422.02
583.471	22624.76
583.669	22794.75
583.866	22569.47
584.064	22419.97
584.262	22016.52
584.459	22252.03
584.657	22127.11
584.854	22366.72
585.052	22053.38
585.249	22002.18
585.447	22090.24
585.644	21846.54
585.841	22219.27
586.039	22067.72
586.236	21557.77
586.434	21580.3
586.631	21381.65
586.828	21647.88
587.026	21666.31
587.223	21651.98
587.42	21430.8
587.618	21656.07
587.815	21434.89
588.012	21531.15
588.21	21043.73
588.407	21342.74
588.604	21357.07
588.801	20945.43
588.999	20890.13
589.196	21172.75
589.393	21019.16
589.59	20875.8
589.787	21107.22
589.984	20726.3
590.182	20967.96
590.379	21002.77
590.576	20597.28
590.773	20560.41
590.97	20361.76
591.167	20400.67
591.364	20597.28
591.561	20666.91
591.758	20415.01
591.955	20302.37
592.152	20355.61
592.349	20335.14
592.546	20566.56
592.743	20679.19
592.94	20150.82
593.137	20445.73
593.334	20404.77
593.531	20011.56
593.727	20097.57
593.924	20306.46
594.121	20199.97
594.318	20267.55
594.515	20044.32
594.712	20359.71
594.908	20372
595.105	20116
595.302	19946.02
595.499	20134.43
595.696	20023.84
595.892	20068.9
596.089	19937.83
596.286	20277.79
596.482	20269.6
596.679	20034.08
596.876	19933.73
597.072	19892.77
597.269	20001.32
597.466	19792.42
597.662	19757.61
597.859	19857.96
598.055	20107.81
598.252	19841.57
598.448	19804.71
598.645	19608.11
598.841	19780.14
599.038	19837.48
599.234	20032.04
599.431	20029.99
599.627	19745.32
599.824	19911.21
600.02	19769.9
600.217	19665.45
600.413	20021.8
600.609	20208.16
600.806	19757.61
601.002	20169.25
601.198	20038.18
601.395	19827.24
601.591	19864.1
601.787	19921.45
601.984	20101.67
602.18	20470.3
602.376	20230.69
602.572	20355.61
602.769	20154.91
602.965	20126.24
603.161	20095.52
603.357	20128.29
603.553	20056.61
603.75	20453.92
603.946	20167.2
604.142	20372
604.338	20316.7
604.534	20617.75
604.73	20558.36
604.926	20486.68
605.122	20693.53
605.318	20365.85
605.514	20441.63
605.71	20193.83
605.906	20408.86
606.102	20646.43
606.298	20605.47
606.494	20578.84
606.69	20744.73
606.886	20951.57
607.082	20783.64
607.278	20769.3
607.474	20802.07
607.67	20963.86
607.866	20740.63
608.062	20998.68
608.257	21301.78
608.453	21182.99
608.649	21332.5
608.845	21121.56
609.041	21215.76
609.236	21230.1
609.432	21502.48
609.628	21365.26
609.824	21602.83
610.019	21316.11
610.215	21223.95
610.411	21529.1
610.606	21746.19
610.802	21482
610.998	21750.28
611.193	21785.1
611.389	21588.49
611.584	21801.48
611.78	21725.71
611.976	21516.81
612.171	21774.86
612.367	21850.63
612.562	21848.58
612.758	21656.07
612.953	21725.71
613.149	22217.22
613.344	22217.22
613.539	22274.56
613.735	22123.01
613.93	22247.94
614.126	22002.18
614.321	22389.25
614.517	22180.35
614.712	22198.79
614.907	22219.27
615.103	22315.52
615.298	21905.93
615.493	22497.79
615.688	22024.71
615.884	22612.48
616.079	22190.59
616.274	22299.14
616.47	22338.05
616.665	22278.66
616.86	22477.31
617.055	22137.35
617.25	22123.01
617.445	22391.3
617.641	22188.55
617.836	22170.12
618.031	22100.48
618.226	22428.16
618.421	22059.52
618.616	22227.46
618.811	21981.7
619.006	22397.44
619.201	21795.34
619.396	22043.14
619.591	21570.06
619.786	22065.67
619.981	21862.92
620.176	22063.62
620.371	21654.03
620.566	21756.43
620.761	21639.69
620.956	21944.84
621.151	21484.05
621.346	21668.36
621.541	21209.62
621.735	21242.39
621.93	21404.17
622.125	21332.5
622.32	20902.42
622.515	21146.13
622.709	20847.13
622.904	20953.62
623.099	20937.24
623.294	21023.25
623.488	20595.23
623.683	20734.49
623.878	20437.53
624.072	20333.09
624.267	20625.95
624.462	20251.17
624.656	20359.71
624.851	19974.69
625.046	20161.06
625.24	20070.95
625.435	19817
625.629	20048.42
625.824	19958.31
626.018	19782.18
626.213	19563.05
626.407	19364.4
626.602	19229.23
626.796	19491.37
626.991	19249.71
627.185	19155.51
627.38	19098.16
627.574	18643.51
627.768	18844.21
627.963	18793.01
628.157	18602.55
628.352	18500.16
628.546	18324.03
628.74	18346.56
628.935	18451
629.129	18436.67
629.323	18373.18
629.517	18047.55
629.712	18115.14
629.906	18014.79
630.1	17793.61
630.294	17949.25
630.489	17934.92
630.683	17709.64
630.877	17553.99
631.071	17652.3
631.265	17494.6
631.459	17470.03
631.653	17117.78
631.848	17218.13
632.042	16853.59
632.236	17082.96
632.43	16988.75
632.624	16980.56
632.818	16638.55
633.012	16501.34
633.206	16403.04
633.4	16497.24
633.594	16239.2
633.788	16169.57
633.982	16097.89
634.176	16337.5
634.369	16001.63
634.563	15862.37
634.757	15735.4
634.951	15989.35
635.145	15673.96
635.339	15989.35
635.533	15506.02
635.726	15600.23
635.92	15315.56
636.114	15417.96
636.308	15239.79
636.501	15336.04
636.695	15145.58
636.889	15006.32
637.083	15034.99
637.276	14590.58
637.47	14670.45
637.664	14697.08
637.857	14697.08
638.051	14752.37
638.244	14492.28
638.438	14482.04
638.632	14406.27
638.825	14242.43
639.019	14164.61
639.212	13773.44
639.406	13912.71
639.599	13828.74
639.793	13843.07
639.986	13697.67
640.18	13820.55
640.373	13685.38
640.567	13388.43
640.76	13281.93
640.954	13296.27
641.147	13238.92
641.34	13030.03
641.534	13118.09
641.727	12991.12
641.92	12894.86
642.114	12853.91
642.307	12911.25
642.5	12667.54
642.694	12475.03
642.887	12337.82
643.08	12503.7
643.273	12499.61
643.467	12311.19
643.66	12184.22
643.853	12051.1
644.046	12024.48
644.239	11952.8
644.432	11874.98
644.626	11942.56
644.819	11637.41
645.012	11723.43
645.205	11797.15
645.398	11621.03
645.591	11704.99
645.784	11614.88
645.977	11229.87
646.17	11455.14
646.363	11279.02
646.556	11190.95
646.749	11137.71
646.942	11098.8
647.135	11053.74
647.328	10832.56
647.521	10746.55
647.714	10672.82
647.907	10832.56
648.099	10617.52
648.292	10633.91
648.485	10611.38
648.678	10336.95
648.871	10240.7
649.064	10343.1
649.256	10277.56
649.449	10224.31
649.642	10187.45
649.835	10181.31
650.027	9951.93
650.22	10031.8
650.413	9738.94
650.605	9808.58
650.798	9755.33
650.991	9708.23
651.183	9677.51
651.376	9468.61
651.568	9630.4
651.761	9652.93
651.954	9616.07
652.146	9458.37
652.339	9642.69
652.531	9208.52
652.724	9173.71
652.916	8921.81
653.109	9175.75
653.301	9083.59
653.494	9190.09
653.686	8864.46
653.879	9108.17
654.071	8923.85
654.263	8837.84
654.456	8932.05
654.648	8866.51
654.84	8356.57
655.033	8616.66
655.225	8633.04
655.417	8643.28
655.61	8614.61
655.802	8463.06
655.994	8454.87
656.186	8469.2
656.379	8344.28
656.571	8336.09
656.763	8174.3
656.955	8157.91
657.148	8231.64
657.34	8266.46
657.532	8043.23
657.724	8088.28
657.916	8084.19
658.108	8051.42
658.3	7922.4
658.492	7852.77
658.684	7867.1
658.876	7893.72
659.068	7695.07
659.26	7809.76
659.452	7799.52
659.644	7715.55
659.836	7617.25
660.028	7408.36
660.22	7387.88
660.412	7400.16
660.604	7531.23
660.796	7445.22
660.988	7471.84
661.18	7172.84
661.372	7275.24
661.563	7084.78
661.755	7146.22
661.947	7160.55
662.139	6906.6
662.331	6984.43
662.522	6879.98
662.714	7113.45
662.906	6796.01
663.097	6834.93
663.289	6898.41
663.481	6769.39
663.673	6738.67
663.864	6720.24
664.056	6693.62
664.247	6710
664.439	6511.35
664.631	6626.03
664.822	6546.16
665.014	6470.39
665.205	6437.62
665.397	6279.93
665.588	6478.58
665.78	6388.47
665.971	6259.45
666.163	6396.66
666.354	6286.07
666.546	6249.21
666.737	6101.75
666.929	6208.25
667.12	6138.62
667.311	6200.05
667.503	5821.18
667.694	6054.65
667.885	6028.03
668.077	5915.39
668.268	5749.5
668.459	5901.05
668.651	5972.73
668.842	5767.93
669.033	5856
669.224	5653.25
669.416	5761.79
669.607	5757.69
669.798	5731.07
669.989	5819.13
670.18	5636.86
670.371	5483.27
670.563	5464.83
670.754	5731.07
670.945	5520.13
671.136	5487.36
671.327	5528.32
671.518	5489.41
671.709	5540.61
671.9	5567.23
672.091	5479.17
672.282	5518.08
672.473	5298.95
672.664	5290.76
672.855	5413.63
673.046	5446.4
673.237	5458.69
673.428	5286.66
673.619	5378.82
673.809	5180.17
674	5192.45
674.191	5135.11
674.382	5292.8
674.573	5239.56
674.764	5139.21
674.954	5257.99
675.145	5128.97
675.336	5110.54
675.527	5143.3
675.717	5018.38
675.908	5094.15
676.099	5085.96
676.289	5061.38
676.48	4979.47
676.671	5106.44
676.861	5210.89
677.052	5112.58
677.243	4780.81
677.433	5004.04
677.624	5118.73
677.814	4860.68
678.005	4930.31
678.195	4956.94
678.386	4938.51
678.576	4864.78
678.767	4901.64
678.957	4963.08
679.148	4905.74
679.338	5006.09
679.529	4629.26
679.719	4858.64
679.909	4899.59
680.1	4889.35
680.29	4930.31
680.481	4866.83
680.671	4823.82
680.861	4791.05
681.052	5040.9
681.242	4909.83
681.432	4725.52
681.622	4872.97
681.813	4690.7
682.003	4881.16
682.193	4717.33
682.383	4936.46
682.573	4786.96
682.764	4762.38
682.954	4801.29
683.144	4834.06
683.334	4827.92
683.524	4819.72
683.714	4760.33
683.904	4799.24
684.094	4932.36
684.284	4770.57
684.474	4881.16
684.664	4700.94
684.854	4616.97
685.044	4655.89
685.234	4635.41
685.424	4801.29
685.614	4803.34
685.804	4686.61
685.994	4664.08
686.184	4707.09
686.374	4569.87
686.564	4635.41
686.753	4670.22
686.943	4604.69
687.133	4741.9
687.323	4492.05
687.513	4676.37
687.702	4688.65
687.892	4578.06
688.082	4487.95
688.272	4715.28
688.461	4541.2
688.651	4676.37
688.841	4555.54
689.03	4580.11
689.22	4659.98
689.41	4514.58
689.599	4410.13
689.789	4410.13
689.979	4520.72
690.168	4385.55
690.358	4287.25
690.547	4410.13
690.737	4543.25
690.926	4512.53
691.116	4422.42
691.305	4518.67
691.495	4446.99
691.684	4422.42
691.874	4236.05
692.063	4195.09
692.252	4147.99
692.442	4297.49
692.631	4260.63
692.82	4268.82
693.01	4352.79
693.199	4170.52
693.388	4152.09
693.578	4279.06
693.767	4143.89
693.956	4266.77
694.146	4219.67
694.335	4184.85
694.524	4227.86
694.713	4285.2
694.902	4217.62
695.092	4084.5
695.281	4234
695.47	4113.17
695.659	4113.17
695.848	4131.61
696.037	3881.75
696.226	4090.65
696.415	4143.89
696.604	4205.33
696.793	4168.47
696.982	3980.06
697.171	4094.74
697.36	4184.85
697.549	4168.47
697.738	3955.48
697.927	3953.43
698.116	4102.93
698.305	4002.58
698.494	3955.48
698.683	3973.91
698.872	4045.59
699.061	4066.07
699.25	3924.76
699.438	4012.82
699.627	3980.06
699.816	3980.06
700.005	3840.79
700.193	3945.24
700.382	4088.6
700.571	3832.6
700.76	3922.71
700.948	3935
701.137	3898.14
701.326	3865.37
701.514	3816.22
701.703	4025.11
701.892	3922.71
702.08	3963.67
702.269	4016.92
702.457	3912.47
702.646	3857.18
702.834	3711.77
703.023	3689.25
703.212	3859.23
703.4	3871.51
703.589	3830.55
703.777	3676.96
703.965	3672.86
704.154	3812.12
704.342	3681.05
704.531	3738.4
704.719	3658.53
704.907	3660.57
705.096	3662.62
705.284	3760.92
705.472	3728.16
705.661	3582.75
705.849	3771.16
706.037	3638.05
706.226	3691.29
706.414	3646.24
706.602	3527.46
706.79	3420.96
706.979	3681.05
707.167	3636
707.355	3472.16
707.543	3455.78
707.731	3582.75
707.919	3441.44
708.107	3431.2
708.296	3443.49
708.484	3570.46
708.672	3595.04
708.86	3554.08
709.048	3549.98
709.236	3447.58
709.424	3437.34
709.612	3529.5
709.8	3539.74
709.988	3451.68
710.176	3527.46
710.364	3343.14
710.551	3498.78
710.739	3388.19
710.927	3562.27
711.115	3240.74
711.303	3345.19
711.491	3361.57
711.679	3324.71
711.866	3312.42
712.054	3267.36
712.242	3173.16
712.43	3275.56
712.617	3242.79
712.805	3310.37
712.993	3265.32
713.181	3246.88
713.368	3277.6
713.556	3265.32
713.744	3259.17
713.931	3267.36
714.119	3259.17
714.306	3083.05
714.494	3179.3
714.682	3136.29
714.869	3070.76
715.057	3201.83
715.244	3124.01
715.432	3185.44
715.619	3070.76
715.807	3138.34
715.994	3119.91
716.182	3185.44
716.369	3132.2
716.556	3160.87
716.744	3005.22
716.931	3070.76
717.119	3244.84
717.306	3017.51
717.493	3054.37
717.681	3144.49
717.868	2999.08
718.055	3134.25
718.242	3003.18
718.43	3074.85
718.617	2917.16
718.804	3048.23
718.991	3089.19
719.179	3091.24
719.366	2954.02
719.553	2976.55
719.74	2865.96
719.927	2872.11
720.114	2857.77
720.301	2906.92
720.488	2835.24
720.676	2831.15
720.863	2794.28
721.05	2853.67
721.237	2937.64
721.424	2773.8
721.611	2845.48
721.798	2734.89
721.985	2747.18
722.172	2804.52
722.358	2763.56
722.545	2818.86
722.732	2767.66
722.919	2841.39
723.106	2755.37
723.293	2761.52
723.48	2784.04
723.667	2718.51
723.853	2700.08
724.04	2681.64
724.227	2734.89
724.414	2609.97
724.6	2671.4
724.787	2702.12
724.974	2671.4
725.161	2681.64
725.347	2530.09
725.534	2730.8
725.72	2734.89
725.907	2689.84
726.094	2636.59
726.28	2663.21
726.467	2540.33
726.653	2695.98
726.84	2550.57
727.027	2560.81
727.213	2663.21
727.4	2591.53
727.586	2638.64
727.773	2669.36
727.959	2636.59
728.145	2663.21
728.332	2515.76
728.518	2499.38
728.705	2534.19
728.891	2442.03
729.077	2399.02
729.264	2538.29
729.45	2499.38
729.636	2626.35
729.823	2450.22
730.009	2454.32
730.195	2450.22
730.382	2542.38
730.568	2464.56
730.754	2382.64
730.94	2480.94
731.126	2626.35
731.313	2464.56
731.499	2491.18
731.685	2464.56
731.871	2392.88
732.057	2505.52
732.243	2435.89
732.429	2390.83
732.615	2456.37
732.801	2468.66
732.987	2417.46
733.173	2374.45
733.359	2401.07
733.545	2278.19
733.731	2448.18
733.917	2270
734.103	2448.18
734.289	2251.57
734.475	2302.77
734.661	2329.39
734.847	2370.35
735.033	2306.87
735.219	2368.31
735.404	2349.87
735.59	2392.88
735.776	2272.05
735.962	2206.52
736.148	2259.76
736.333	2325.3
736.519	2382.64
736.705	2229.04
736.89	2358.07
737.076	2296.63
737.262	2085.69
737.447	2173.75
737.633	2179.89
737.819	2114.36
738.004	2214.71
738.19	2216.76
738.375	2202.42
738.561	2181.94
738.747	2124.6
738.932	2145.08
739.118	2194.23
739.303	2161.46
739.489	2177.84
739.674	2204.47
739.859	2134.84
740.045	2147.12
740.23	2145.08
740.416	2112.31
740.601	2169.65
740.786	2016.05
740.972	2005.81
741.157	1997.62
741.342	2024.25
741.528	2081.59
741.713	2014.01
741.898	1887.03
742.084	2108.21
742.269	1936.18
742.454	2007.86
742.639	1973.05
742.824	1942.33
743.01	1952.57
743.195	2024.25
743.38	1925.94
743.565	1981.24
743.75	1948.47
743.935	1936.18
744.12	1940.28
744.305	1848.12
744.49	1872.7
744.675	1905.46
744.86	1848.12
745.045	1882.94
745.23	1884.98
745.415	1829.69
745.6	1878.84
745.785	1841.98
745.97	1979.19
746.155	1850.17
746.34	1911.61
746.525	1792.83
746.71	1803.07
746.895	1592.13
747.079	1637.18
747.264	1768.25
747.449	1827.64
747.634	1710.91
747.819	1676.09
748.003	1727.29
748.188	1585.98
748.373	1641.28
748.557	1639.23
748.742	1524.54
748.927	1643.32
749.111	1694.52
749.296	1563.45
749.481	1637.18
749.665	1571.65
749.85	1579.84
750.034	1637.18
750.219	1663.8
750.404	1551.17
750.588	1444.67
750.773	1514.3
750.957	1581.89
751.141	1499.97
751.326	1428.29
751.51	1504.06
751.695	1362.75
751.879	1518.4
752.064	1563.45
752.248	1428.29
752.432	1475.39
752.617	1456.96
752.801	1448.77
752.985	1506.11
753.17	1481.53
753.354	1430.34
753.538	1473.34
753.722	1426.24
753.907	1268.55
754.091	1348.42
754.275	1366.85
754.459	1354.56
754.643	1254.21
754.828	1237.83
755.012	1358.66
755.196	1248.07
755.38	1237.83
755.564	1231.68
755.748	1229.63
755.932	1137.48
756.116	1309.51
756.3	1301.31
756.484	1229.63
756.668	1229.63
756.852	1211.2
757.036	1129.28
757.22	1176.39
757.404	1237.83
757.588	1186.63
757.772	1282.88
757.956	1145.67
758.14	1157.96
758.323	1119.04
758.507	1147.72
758.691	1145.67
758.875	1196.87
759.059	1147.72
759.242	1145.67
759.426	1108.8
759.61	1170.24
759.794	1067.85
759.977	1057.61
760.161	1174.34
760.345	1110.85
760.528	1067.85
760.712	1055.56
760.895	1047.37
761.079	1051.46
761.263	1078.08
761.446	932.68
761.63	1051.46
761.813	1051.46
761.997	983.88
762.18	936.78
762.364	1039.17
762.547	932.68
762.731	994.12
762.914	1022.79
763.098	934.73
763.281	1073.99
763.464	1039.17
763.648	1022.79
763.831	940.87
764.015	834.38
764.198	1004.36
764.381	1030.98
764.564	957.25
764.748	1039.17
764.931	926.54
765.114	965.45
765.297	875.34
765.481	912.2
765.664	967.49
765.847	912.2
766.03	930.63
766.213	871.24
766.397	879.43
766.58	947.01
766.763	879.43
766.946	867.14
767.129	965.45
767.312	854.86
767.495	805.71
767.678	885.58
767.861	850.76
768.044	918.34
768.227	815.94
768.41	920.39
768.593	1014.6
768.776	830.28
768.959	815.94
769.142	895.82
769.324	805.71
769.507	858.95
769.69	867.14
769.873	828.23
770.056	875.34
770.239	844.62
770.421	826.18
770.604	795.47
770.787	869.19
770.97	654.16
771.152	736.07
771.335	863.05
771.518	721.74
771.7	822.09
771.883	764.75
772.066	781.13
772.248	754.51
772.431	852.81
772.613	740.17
772.796	817.99
772.978	750.41
773.161	838.47
773.343	760.65
773.526	662.35
773.708	795.47
773.891	746.31
774.073	760.65
774.256	678.73
774.438	779.08
774.621	625.48
774.803	756.55
774.985	734.03
775.168	676.68
775.35	795.47
775.532	705.35
775.715	688.97
775.897	625.48
776.079	648.01
776.261	688.97
776.444	588.62
776.626	736.07
776.808	699.21
776.99	711.5
777.173	672.59
777.355	654.16
777.537	623.44
777.719	746.31
777.901	629.58
778.083	594.76
778.265	645.96
778.447	680.78
778.629	682.83
778.811	588.62
778.993	623.44
779.175	678.73
779.357	643.92
779.539	596.81
779.721	570.19
779.903	637.77
780.085	510.8
780.267	617.29
780.449	582.48
780.631	623.44
780.812	654.16
780.994	582.48
781.176	576.33
781.358	500.56
781.54	490.32
781.721	498.51
781.903	535.37
782.085	523.09
782.267	566.09
782.448	506.7
782.63	457.55
782.812	445.26
782.993	488.27
783.175	475.98
783.357	490.32
783.538	449.36
783.72	490.32
783.901	490.32
784.083	564.04
784.264	508.75
784.446	392.02
784.627	416.59
784.809	449.36
784.99	457.55
785.172	500.56
785.353	461.65
785.535	437.07
785.716	385.87
785.897	457.55
786.079	367.44
786.26	416.59
786.441	514.89
786.623	437.07
786.804	410.45
786.985	404.3
787.167	355.15
787.348	408.4
787.529	383.82
787.71	475.98
787.891	394.06
788.073	392.02
788.254	383.82
788.435	346.96
788.616	441.17
788.797	416.59
788.978	437.07
789.159	412.5
789.34	453.45
789.522	396.11
789.703	432.97
789.884	299.86
790.065	398.16
790.246	467.79
790.427	392.02
790.607	469.84
790.788	369.49
790.969	260.95
791.15	355.15
791.331	277.33
791.512	369.49
791.693	281.43
791.874	349.01
792.054	383.82
792.235	334.67
792.416	228.18
792.597	269.14
792.778	346.96
792.958	346.96
793.139	297.81
793.32	277.33
793.5	291.66
793.681	404.3
793.862	330.58
794.042	256.85
794.223	195.41
794.404	265.04
794.584	289.62
794.765	306
794.945	306
795.126	275.28
795.306	371.54
795.487	306
795.667	312.14
795.848	265.04
796.028	297.81
796.209	189.27
796.389	232.27
796.57	273.23
796.75	254.8
796.93	306
797.111	262.99
797.291	174.93
797.471	301.9
797.652	252.75
797.832	269.14
798.012	246.61
798.192	269.14
798.373	224.08
798.553	172.88
798.733	246.61
798.913	256.85
799.093	326.48
799.274	265.04
799.454	275.28
799.634	219.99
799.814	271.19
799.994	285.52
800.174	279.38
800.354	154.45
800.534	252.75
800.714	242.51
800.894	209.75
801.074	275.28
801.254	215.89
801.434	285.52
801.614	269.14
801.794	209.75
801.974	994.12
802.154	318.29
802.334	306
802.514	154.45
802.693	213.84
802.873	164.69
803.053	232.27
803.233	293.71
803.413	211.79
803.592	248.66
803.772	269.14
803.952	271.19
804.131	193.36
804.311	310.1
804.491	246.61
804.67	99.16
804.85	152.4
805.03	193.36
805.209	170.83
805.389	172.88
805.568	199.51
805.748	166.74
805.928	199.51
806.107	193.36
806.287	334.67
806.466	150.36
806.646	197.46
806.825	217.94
807.004	252.75
807.184	162.64
807.363	199.51
807.543	164.69
807.722	170.83
807.901	166.74
808.081	293.71
808.26	160.59
808.439	172.88
808.619	172.88
808.798	228.18
808.977	260.95
809.156	269.14
809.336	232.27
809.515	228.18
809.694	158.55
809.873	129.88
810.052	213.84
810.231	199.51
810.411	131.92
810.59	215.89
810.769	148.31
810.948	179.03
811.127	154.45
811.306	113.49
811.485	154.45
811.664	187.22
811.843	199.51
812.022	170.83
812.201	156.5
812.38	166.74
812.559	150.36
812.737	84.82
812.916	113.49
813.095	131.92
813.274	189.27
813.453	107.35
813.632	119.64
813.811	156.5
813.989	189.27
814.168	183.12
814.347	156.5
814.526	72.53
814.704	164.69
814.883	162.64
815.062	80.72
815.24	31.57
815.419	154.45
815.598	219.99
815.776	185.17
815.955	125.78
816.133	138.07
816.312	131.92
816.49	93.01
816.669	117.59
816.847	37.72
817.026	164.69
817.204	148.31
817.383	105.3
817.561	117.59
817.74	222.03
817.918	129.88
818.097	80.72
818.275	105.3
818.453	154.45
818.632	162.64
818.81	56.15
818.988	123.73
819.167	111.44
819.345	47.96
819.523	111.44
819.701	121.68
819.879	133.97
820.058	131.92
820.236	140.12
820.414	148.31
820.592	129.88
820.77	166.74
820.948	115.54
821.127	109.4
821.305	105.3
821.483	97.11
821.661	66.39
821.839	86.87
822.017	82.77
822.195	80.72
822.373	115.54
822.551	113.49
822.729	154.45
822.907	72.53
823.085	93.01
823.262	64.34
823.44	80.72
823.618	109.4
823.796	58.2
823.974	90.96
824.152	76.63
824.329	101.2
824.507	64.34
824.685	82.77
824.863	56.15
825.04	56.15
825.218	140.12
825.396	58.2
825.574	187.22
825.751	142.16
825.929	101.2
826.107	62.29
826.284	80.72
826.462	115.54
826.639	74.58
826.817	25.43
826.994	129.88
827.172	66.39
827.349	154.45
827.527	101.2
827.704	123.73
827.882	97.11
828.059	105.3
828.237	66.39
828.414	138.07
828.591	2.9
828.769	115.54
828.946	70.48
829.124	107.35
829.301	146.26
829.478	62.29
829.655	127.83
829.833	76.63
830.01	88.92
830.187	90.96
830.364	23.38
830.542	113.49
830.719	111.44
830.896	80.72
831.073	166.74
831.25	72.53
831.427	144.21
831.604	117.59
831.782	76.63
831.959	97.11
832.136	97.11
832.313	166.74
832.49	101.2
832.667	82.77
832.844	72.53
833.021	97.11
833.198	39.76
833.374	158.55
833.551	105.3
833.728	170.83
833.905	117.59
834.082	37.72
834.259	101.2
834.436	41.81
834.612	-40.11
834.789	97.11
834.966	58.2
835.143	39.76
835.319	23.38
835.496	74.58
835.673	101.2
835.85	58.2
836.026	82.77
836.203	64.34
836.38	131.92
836.556	82.77
836.733	31.57
836.909	72.53
837.086	31.57
837.262	27.48
837.439	54.1
837.616	4.95
837.792	88.92
837.968	72.53
838.145	23.38
838.321	72.53
838.498	47.96
838.674	72.53
838.851	70.48
839.027	90.96
839.203	68.44
839.38	45.91
839.556	-58.54
839.732	121.68
839.909	35.67
840.085	76.63
840.261	31.57
840.437	52.05
840.614	56.15
840.79	84.82
840.966	15.19
841.142	47.96
841.318	15.19
841.494	72.53
841.671	45.91
841.847	27.48
842.023	-7.34
842.199	97.11
842.375	142.16
842.551	64.34
842.727	-48.3
842.903	168.79
843.079	9.05
843.255	25.43
843.431	82.77
843.607	105.3
843.783	-50.35
843.959	84.82
844.134	-38.06
844.31	140.12
844.486	43.86
844.662	31.57
844.838	138.07
845.013	33.62
845.189	33.62
845.365	72.53
845.541	66.39
845.716	52.05
845.892	90.96
846.068	19.29
846.244	23.38
846.419	70.48
846.595	-58.54
846.77	27.48
846.946	103.25
847.122	13.14
847.297	56.15
847.473	72.53
847.648	15.19
847.824	56.15
847.999	39.76
848.175	43.86
848.35	121.68
848.526	43.86
848.701	39.76
848.876	107.35
849.052	115.54
849.227	33.62
849.403	47.96
849.578	60.24
849.753	37.72
849.929	70.48
850.104	-15.53
850.279	43.86
850.454	64.34
850.63	64.34
850.805	31.57
850.98	47.96
851.155	15.19
851.33	31.57
851.505	-11.43
851.681	29.52
851.856	105.3
852.031	80.72
852.206	19.29
852.381	50
852.556	-42.15
852.731	90.96
852.906	76.63
853.081	80.72
853.256	47.96
853.431	35.67
853.606	-9.39
853.781	45.91
853.956	-7.34
854.131	74.58
854.305	33.62
854.48	25.43
854.655	13.14
854.83	15.19
855.005	41.81
855.18	56.15
855.354	43.86
855.529	60.24
855.704	35.67
855.879	142.16
856.053	82.77
856.228	56.15
856.403	-1.19
856.577	58.2
856.752	7
856.926	17.24
857.101	11.09
857.276	23.38
857.45	15.19
857.625	39.76
857.799	103.25
857.974	-23.72
858.148	-29.87
858.323	39.76
858.497	56.15
858.672	56.15
858.846	11.09
859.02	39.76
859.195	-13.48
859.369	72.53
859.543	25.43
859.718	39.76
859.892	45.91
860.066	17.24
860.241	101.2
860.415	-9.39
860.589	-74.92
860.763	17.24
860.938	9.05
861.112	88.92
861.286	15.19
861.46	45.91
861.634	15.19
861.808	23.38
861.982	-76.97
862.157	15.19
862.331	27.48
862.505	-5.29
862.679	-23.72
862.853	45.91
863.027	39.76
863.201	64.34
863.375	-3.24
863.549	50
863.722	60.24
863.896	-19.63
864.07	58.2
864.244	43.86
864.418	64.34
864.592	-11.43
864.766	17.24
864.939	45.91
865.113	47.96
865.287	76.63
865.461	-46.25
865.634	11.09
865.808	-31.91
865.982	-54.44
866.156	-7.34
866.329	-58.54
866.503	2.9
866.676	78.68
866.85	50
867.024	47.96
867.197	23.38
867.371	76.63
867.544	-21.67
867.718	-9.39
867.891	74.58
868.065	88.92
868.238	9.05
868.412	23.38
868.585	-5.29
868.759	-25.77
868.932	45.91
869.105	60.24
869.279	72.53
869.452	2.9
869.625	54.1
869.799	99.16
869.972	-17.58
870.145	-5.29
870.319	-9.39
870.492	23.38
870.665	-19.63
870.838	27.48
871.011	2.9
871.185	27.48
871.358	25.43
871.531	97.11
871.704	23.38
871.877	31.57
872.05	-58.54
872.223	-5.29
872.396	101.2
872.569	13.14
872.742	31.57
872.915	43.86
873.088	15.19
873.261	25.43
873.434	97.11
873.607	43.86
873.78	39.76
873.953	19.29
874.126	-9.39
874.299	66.39
874.471	-7.34
874.644	-23.72
874.817	-25.77
874.99	19.29
875.163	-70.83
875.335	52.05
875.508	109.4
875.681	72.53
875.853	27.48
876.026	78.68
876.199	43.86
876.371	2.9
876.544	29.52
876.717	-11.43
876.889	-11.43
877.062	19.29
877.234	17.24
877.407	31.57
877.579	-5.29
877.752	50
877.924	72.53
878.097	62.29
878.269	43.86
878.442	-31.91
878.614	74.58
878.786	99.16
878.959	29.52
879.131	9.05
879.303	-17.58
879.476	72.53
879.648	15.19
879.82	50
879.993	-29.87
880.165	25.43
880.337	9.05
880.509	-3.24
880.681	-52.39
880.854	-19.63
881.026	47.96
881.198	-56.49
881.37	7
881.542	84.82
881.714	-54.44
881.886	19.29
882.058	-21.67
882.23	-15.53
882.402	7
882.574	74.58
882.746	-7.34
882.918	25.43
883.09	113.49
883.262	23.38
883.434	-5.29
883.606	-42.15
883.778	54.1
883.95	62.29
884.122	-31.91
884.293	-9.39
884.465	23.38
884.637	90.96
884.809	15.19
884.98	-7.34
885.152	80.72
885.324	82.77
885.496	-23.72
885.667	-48.3
885.839	9.05
886.011	72.53
886.182	-54.44
886.354	-5.29
886.525	39.76
886.697	80.72
886.869	31.57
887.04	41.81
887.212	2.9
887.383	35.67
887.555	15.19
887.726	9.05
887.897	15.19
888.069	-1.19
888.24	-29.87
888.412	33.62
888.583	50
888.754	-15.53
888.926	-40.11
889.097	0.85
889.268	-62.63
889.44	-5.29
889.611	19.29
889.782	-7.34
889.953	-60.59
890.125	21.33
890.296	-7.34
890.467	7
890.638	13.14
890.809	2.9
890.98	-27.82
891.151	50
891.323	64.34
891.494	23.38
891.665	7
891.836	27.48
892.007	-1.19
892.178	47.96
892.349	66.39
892.52	-50.35
892.691	-48.3
892.862	72.53
893.032	-11.43
893.203	-13.48
893.374	-21.67
893.545	29.52
893.716	17.24
893.887	4.95
894.057	15.19
894.228	-46.25
894.399	-72.87
894.57	-7.34
894.74	29.52
894.911	21.33
895.082	13.14
895.253	-15.53
895.423	56.15
895.594	41.81
895.764	2.9
895.935	-33.96
896.106	19.29
896.276	-17.58
896.447	-42.15
896.617	-42.15
896.788	-33.96
896.958	-1.19
897.129	19.29
897.299	-42.15
897.47	52.05
897.64	15.19
897.81	-5.29
897.981	50
898.151	4.95
898.322	23.38
898.492	90.96
898.662	-42.15
898.832	-5.29
899.003	39.76
899.173	-15.53
899.343	-52.39
899.513	62.29
