Data from USB4F104151__290__14-34-52-648.txt Node

Date: Thu Mar 13 14:34:52 EDT 2025
User: louis
Spectrometer: USB4F10415
Trigger mode: 4
Integration Time (sec): 2.500000E-2
Scans to average: 1
Electric dark correction enabled: true
Nonlinearity correction enabled: false
Boxcar width: 0
XAxis mode: Wavelengths
Number of Pixels in Spectrum: 3648
>>>>>Begin Spectral Data<<<<<
178.204	-158.21
178.424	-158.21
178.644	-158.21
178.864	-184.83
179.084	-139.77
179.304	3.58
179.524	-14.85
179.744	11.78
179.964	30.21
180.184	-4.61
180.404	-2.56
180.624	-0.51
180.844	-14.85
181.064	-20.99
181.283	15.87
181.503	3.58
181.723	-6.66
181.943	-31.23
182.163	89.6
182.383	-20.99
182.602	69.12
182.822	28.16
183.042	79.36
183.262	24.06
183.482	22.02
183.701	-16.9
183.921	75.26
184.141	-35.33
184.361	36.35
184.58	-78.33
184.8	36.35
185.02	44.54
185.239	-10.75
185.459	97.79
185.679	54.78
185.898	-88.57
186.118	48.64
186.338	-0.51
186.557	112.13
186.777	-100.86
186.997	-27.14
187.216	-49.66
187.436	79.36
187.655	54.78
187.875	3.58
188.095	44.54
188.314	7.68
188.534	128.51
188.753	-37.38
188.973	3.58
189.192	36.35
189.412	-18.94
189.631	3.58
189.851	36.35
190.07	46.59
190.29	3.58
190.509	-0.51
190.729	-35.33
190.948	54.78
191.168	108.03
191.387	85.5
191.607	-8.7
191.826	54.78
192.045	-20.99
192.265	-12.8
192.484	91.65
192.704	-6.66
192.923	73.21
193.142	138.75
193.362	15.87
193.581	89.6
193.8	11.78
194.02	1.54
194.239	-0.51
194.458	-18.94
194.678	17.92
194.897	38.4
195.116	28.16
195.335	79.36
195.555	95.74
195.774	44.54
195.993	56.83
196.212	40.45
196.432	-10.75
196.651	28.16
196.87	-41.47
197.089	122.37
197.308	13.82
197.528	42.5
197.747	-29.18
197.966	60.93
198.185	28.16
198.404	-14.85
198.623	22.02
198.842	69.12
199.062	122.37
199.281	60.93
199.5	11.78
199.719	28.16
199.938	69.12
200.157	46.59
200.376	44.54
200.595	-45.57
200.814	5.63
201.033	-27.14
201.252	65.02
201.471	15.87
201.69	44.54
201.909	52.74
202.128	38.4
202.347	79.36
202.566	67.07
202.785	-25.09
203.004	-76.29
203.223	120.32
203.442	32.26
203.661	36.35
203.879	54.78
204.098	-8.7
204.317	-8.7
204.536	11.78
204.755	28.16
204.974	-8.7
205.193	32.26
205.411	67.07
205.63	3.58
205.849	-10.75
206.068	22.02
206.287	13.82
206.505	50.69
206.724	36.35
206.943	79.36
207.162	11.78
207.381	28.16
207.599	48.64
207.818	-12.8
208.037	44.54
208.255	-6.66
208.474	40.45
208.693	15.87
208.911	-4.61
209.13	3.58
209.349	-8.7
209.567	42.5
209.786	13.82
210.005	5.63
210.223	11.78
210.442	-4.61
210.661	-29.18
210.879	9.73
211.098	-25.09
211.316	5.63
211.535	65.02
211.753	-4.61
211.972	87.55
212.191	-37.38
212.409	79.36
212.628	58.88
212.846	15.87
213.065	54.78
213.283	52.74
213.502	46.59
213.72	54.78
213.938	-41.47
214.157	40.45
214.375	-4.61
214.594	-27.14
214.812	-35.33
215.031	44.54
215.249	28.16
215.467	44.54
215.686	-43.52
215.904	87.55
216.122	-27.14
216.341	36.35
216.559	58.88
216.778	40.45
216.996	-29.18
217.214	-12.8
217.432	-78.33
217.651	54.78
217.869	19.97
218.087	-14.85
218.306	19.97
218.524	71.17
218.742	7.68
218.96	13.82
219.179	-4.61
219.397	-18.94
219.615	46.59
219.833	62.98
220.051	-20.99
220.27	54.78
220.488	24.06
220.706	-6.66
220.924	-37.38
221.142	-20.99
221.36	81.41
221.578	17.92
221.796	13.82
222.015	22.02
222.233	22.02
222.451	54.78
222.669	-41.47
222.887	62.98
223.105	13.82
223.323	-0.51
223.541	11.78
223.759	40.45
223.977	24.06
224.195	79.36
224.413	112.13
224.631	13.82
224.849	52.74
225.067	71.17
225.285	-14.85
225.503	-76.29
225.721	-27.14
225.939	-0.51
226.157	-4.61
226.375	140.8
226.592	46.59
226.81	75.26
227.028	-2.56
227.246	46.59
227.464	11.78
227.682	3.58
227.9	36.35
228.117	-4.61
228.335	-35.33
228.553	30.21
228.771	-8.7
228.989	24.06
229.206	62.98
229.424	62.98
229.642	-2.56
229.86	-29.18
230.077	-8.7
230.295	87.55
230.513	36.35
230.731	69.12
230.948	11.78
231.166	-59.9
231.384	-4.61
231.601	-27.14
231.819	28.16
232.037	-20.99
232.254	-39.42
232.472	38.4
232.689	52.74
232.907	60.93
233.125	-4.61
233.342	3.58
233.56	19.97
233.777	52.74
233.995	-25.09
234.213	69.12
234.43	44.54
234.648	28.16
234.865	60.93
235.083	46.59
235.3	69.12
235.518	42.5
235.735	93.69
235.953	46.59
236.17	62.98
236.388	65.02
236.605	-27.14
236.822	28.16
237.04	134.65
237.257	-61.95
237.475	13.82
237.692	19.97
237.909	19.97
238.127	5.63
238.344	65.02
238.562	-8.7
238.779	-2.56
238.996	-8.7
239.214	67.07
239.431	34.3
239.648	5.63
239.865	93.69
240.083	15.87
240.3	-27.14
240.517	24.06
240.735	-8.7
240.952	62.98
241.169	130.56
241.386	110.08
241.603	-23.04
241.821	-2.56
242.038	69.12
242.255	-12.8
242.472	34.3
242.689	11.78
242.907	-4.61
243.124	24.06
243.341	-57.86
243.558	-86.53
243.775	30.21
243.992	17.92
244.209	73.21
244.426	93.69
244.643	60.93
244.86	-27.14
245.078	7.68
245.295	89.6
245.512	73.21
245.729	19.97
245.946	9.73
246.163	32.26
246.38	44.54
246.597	17.92
246.814	30.21
247.031	42.5
247.248	48.64
247.464	11.78
247.681	3.58
247.898	32.26
248.115	13.82
248.332	-16.9
248.549	-4.61
248.766	112.13
248.983	38.4
249.2	-47.62
249.417	13.82
249.633	1.54
249.85	32.26
250.067	50.69
250.284	-4.61
250.501	-16.9
250.717	5.63
250.934	-37.38
251.151	22.02
251.368	38.4
251.585	-10.75
251.801	73.21
252.018	-53.76
252.235	46.59
252.451	-16.9
252.668	9.73
252.885	36.35
253.102	-25.09
253.318	13.82
253.535	-29.18
253.752	19.97
253.968	-27.14
254.185	5.63
254.401	67.07
254.618	-47.62
254.835	-78.33
255.051	-12.8
255.268	-0.51
255.484	46.59
255.701	50.69
255.917	9.73
256.134	60.93
256.351	3.58
256.567	-53.76
256.784	40.45
257	-43.52
257.217	89.6
257.433	36.35
257.65	5.63
257.866	52.74
258.082	-59.9
258.299	-16.9
258.515	42.5
258.732	-6.66
258.948	30.21
259.165	24.06
259.381	93.69
259.597	-0.51
259.814	28.16
260.03	77.31
260.246	-37.38
260.463	26.11
260.679	62.98
260.895	-61.95
261.112	54.78
261.328	19.97
261.544	36.35
261.761	79.36
261.977	5.63
262.193	-66.05
262.409	36.35
262.626	42.5
262.842	11.78
263.058	3.58
263.274	69.12
263.49	24.06
263.707	36.35
263.923	36.35
264.139	-68.09
264.355	52.74
264.571	19.97
264.787	42.5
265.004	118.27
265.22	148.99
265.436	11.78
265.652	-20.99
265.868	19.97
266.084	-29.18
266.3	-33.28
266.516	19.97
266.732	-53.76
266.948	36.35
267.164	-25.09
267.38	36.35
267.596	97.79
267.812	101.89
268.028	11.78
268.244	19.97
268.46	-8.7
268.676	44.54
268.892	-12.8
269.108	24.06
269.324	-31.23
269.54	-57.86
269.756	-12.8
269.972	-16.9
270.188	48.64
270.403	-35.33
270.619	-37.38
270.835	48.64
271.051	-8.7
271.267	-18.94
271.483	-37.38
271.698	54.78
271.914	28.16
272.13	36.35
272.346	42.5
272.562	-10.75
272.777	69.12
272.993	85.5
273.209	52.74
273.425	15.87
273.64	24.06
273.856	144.89
274.072	13.82
274.287	-29.18
274.503	85.5
274.719	-16.9
274.934	-27.14
275.15	-12.8
275.366	50.69
275.581	-33.28
275.797	52.74
276.012	-8.7
276.228	19.97
276.444	58.88
276.659	62.98
276.875	5.63
277.09	28.16
277.306	-39.42
277.521	97.79
277.737	11.78
277.952	-8.7
278.168	62.98
278.383	28.16
278.599	36.35
278.814	19.97
279.03	13.82
279.245	19.97
279.461	17.92
279.676	89.6
279.892	-16.9
280.107	44.54
280.322	-68.09
280.538	28.16
280.753	-41.47
280.969	46.59
281.184	54.78
281.399	122.37
281.615	-16.9
281.83	79.36
282.045	71.17
282.26	81.41
282.476	11.78
282.691	71.17
282.906	5.63
283.122	11.78
283.337	-35.33
283.552	36.35
283.767	-61.95
283.983	-43.52
284.198	-33.28
284.413	-29.18
284.628	-29.18
284.843	-4.61
285.058	60.93
285.274	36.35
285.489	30.21
285.704	95.74
285.919	62.98
286.134	-18.94
286.349	60.93
286.564	101.89
286.779	89.6
286.995	-18.94
287.21	-2.56
287.425	81.41
287.64	-29.18
287.855	-4.61
288.07	-25.09
288.285	60.93
288.5	38.4
288.715	44.54
288.93	32.26
289.145	-20.99
289.36	-29.18
289.575	15.87
289.79	60.93
290.004	-35.33
290.219	46.59
290.434	44.54
290.649	32.26
290.864	17.92
291.079	30.21
291.294	-43.52
291.509	28.16
291.724	-20.99
291.938	19.97
292.153	56.83
292.368	24.06
292.583	30.21
292.798	93.69
293.012	-68.09
293.227	28.16
293.442	-45.57
293.657	28.16
293.871	22.02
294.086	11.78
294.301	60.93
294.516	44.54
294.73	-12.8
294.945	-14.85
295.16	52.74
295.374	-6.66
295.589	-16.9
295.804	122.37
296.018	32.26
296.233	73.21
296.447	38.4
296.662	-16.9
296.877	54.78
297.091	65.02
297.306	22.02
297.52	52.74
297.735	-12.8
297.949	-20.99
298.164	60.93
298.378	62.98
298.593	-43.52
298.807	11.78
299.022	69.12
299.236	46.59
299.451	15.87
299.665	22.02
299.88	19.97
300.094	-14.85
300.309	69.12
300.523	136.7
300.737	3.58
300.952	7.68
301.166	3.58
301.381	48.64
301.595	28.16
301.809	36.35
302.024	-4.61
302.238	11.78
302.452	28.16
302.667	32.26
302.881	52.74
303.095	142.85
303.309	-4.61
303.524	-25.09
303.738	3.58
303.952	3.58
304.166	71.17
304.381	-53.76
304.595	44.54
304.809	-16.9
305.023	-18.94
305.237	52.74
305.452	36.35
305.666	48.64
305.88	-20.99
306.094	52.74
306.308	28.16
306.522	28.16
306.736	52.74
306.95	5.63
307.164	11.78
307.379	13.82
307.593	132.61
307.807	24.06
308.021	34.3
308.235	1.54
308.449	11.78
308.663	-45.57
308.877	134.65
309.091	56.83
309.305	97.79
309.519	15.87
309.733	54.78
309.947	13.82
310.161	19.97
310.374	50.69
310.588	81.41
310.802	-31.23
311.016	7.68
311.23	5.63
311.444	46.59
311.658	69.12
311.872	28.16
312.085	97.79
312.299	101.89
312.513	44.54
312.727	22.02
312.941	-20.99
313.154	97.79
313.368	13.82
313.582	-0.51
313.796	-0.51
314.009	52.74
314.223	32.26
314.437	3.58
314.651	13.82
314.864	38.4
315.078	105.98
315.292	-57.86
315.505	7.68
315.719	36.35
315.933	69.12
316.146	30.21
316.36	-29.18
316.573	54.78
316.787	-12.8
317.001	28.16
317.214	73.21
317.428	-12.8
317.641	17.92
317.855	-10.75
318.068	13.82
318.282	13.82
318.495	97.79
318.709	120.32
318.922	-2.56
319.136	134.65
319.349	-2.56
319.563	-12.8
319.776	77.31
319.99	-61.95
320.203	28.16
320.417	46.59
320.63	13.82
320.843	105.98
321.057	60.93
321.27	-51.71
321.483	85.5
321.697	69.12
321.91	7.68
322.124	-4.61
322.337	101.89
322.55	22.02
322.763	69.12
322.977	-16.9
323.19	13.82
323.403	44.54
323.617	-4.61
323.83	93.69
324.043	28.16
324.256	9.73
324.469	28.16
324.683	7.68
324.896	73.21
325.109	30.21
325.322	36.35
325.535	89.6
325.748	15.87
325.962	19.97
326.175	73.21
326.388	142.85
326.601	11.78
326.814	30.21
327.027	50.69
327.24	134.65
327.453	44.54
327.666	52.74
327.879	38.4
328.092	28.16
328.305	73.21
328.518	-10.75
328.731	13.82
328.944	42.5
329.157	28.16
329.37	38.4
329.583	56.83
329.796	48.64
330.009	-35.33
330.222	56.83
330.435	7.68
330.648	67.07
330.861	28.16
331.073	-45.57
331.286	52.74
331.499	77.31
331.712	15.87
331.925	42.5
332.138	11.78
332.35	50.69
332.563	-4.61
332.776	36.35
332.989	32.26
333.202	3.58
333.414	28.16
333.627	93.69
333.84	69.12
334.053	3.58
334.265	-12.8
334.478	3.58
334.691	-25.09
334.903	40.45
335.116	-31.23
335.329	73.21
335.541	73.21
335.754	87.55
335.966	-18.94
336.179	89.6
336.392	46.59
336.604	-2.56
336.817	42.5
337.029	19.97
337.242	-4.61
337.454	5.63
337.667	60.93
337.88	56.83
338.092	15.87
338.305	-8.7
338.517	95.74
338.729	-2.56
338.942	48.64
339.154	44.54
339.367	54.78
339.579	26.11
339.792	-8.7
340.004	50.69
340.217	46.59
340.429	44.54
340.641	-29.18
340.854	62.98
341.066	58.88
341.278	-12.8
341.491	89.6
341.703	48.64
341.915	15.87
342.128	3.58
342.34	-12.8
342.552	38.4
342.764	54.78
342.977	65.02
343.189	65.02
343.401	77.31
343.613	-70.14
343.826	56.83
344.038	42.5
344.25	54.78
344.462	-4.61
344.674	-12.8
344.886	-45.57
345.099	11.78
345.311	58.88
345.523	13.82
345.735	42.5
345.947	69.12
346.159	19.97
346.371	48.64
346.583	-18.94
346.795	171.52
347.007	65.02
347.219	93.69
347.431	19.97
347.643	77.31
347.855	-16.9
348.067	52.74
348.279	-12.8
348.491	-37.38
348.703	3.58
348.915	9.73
349.127	-84.48
349.339	69.12
349.551	-4.61
349.763	48.64
349.975	-35.33
350.187	97.79
350.399	110.08
350.61	118.27
350.822	38.4
351.034	36.35
351.246	69.12
351.458	87.55
351.669	13.82
351.881	54.78
352.093	95.74
352.305	79.36
352.517	46.59
352.728	54.78
352.94	24.06
353.152	38.4
353.363	3.58
353.575	-20.99
353.787	60.93
353.999	50.69
354.21	128.51
354.422	3.58
354.633	97.79
354.845	24.06
355.057	62.98
355.268	87.55
355.48	81.41
355.692	-55.81
355.903	69.12
356.115	60.93
356.326	-41.47
356.538	97.79
356.749	62.98
356.961	93.69
357.172	11.78
357.384	24.06
357.595	155.13
357.807	42.5
358.018	65.02
358.23	60.93
358.441	56.83
358.653	62.98
358.864	-29.18
359.075	48.64
359.287	38.4
359.498	114.17
359.709	3.58
359.921	110.08
360.132	9.73
360.344	85.5
360.555	46.59
360.766	101.89
360.977	105.98
361.189	44.54
361.4	-4.61
361.611	112.13
361.823	112.13
362.034	54.78
362.245	46.59
362.456	77.31
362.667	36.35
362.879	103.93
363.09	69.12
363.301	52.74
363.512	71.17
363.723	26.11
363.935	36.35
364.146	81.41
364.357	42.5
364.568	46.59
364.779	26.11
364.99	69.12
365.201	3.58
365.412	138.75
365.623	-0.51
365.834	38.4
366.045	62.98
366.256	71.17
366.467	71.17
366.678	26.11
366.889	52.74
367.1	58.88
367.311	134.65
367.522	-51.71
367.733	19.97
367.944	15.87
368.155	60.93
368.366	36.35
368.577	44.54
368.788	15.87
368.999	-29.18
369.209	83.45
369.42	52.74
369.631	81.41
369.842	-29.18
370.053	48.64
370.264	114.17
370.474	28.16
370.685	54.78
370.896	60.93
371.107	87.55
371.317	28.16
371.528	93.69
371.739	60.93
371.95	120.32
372.16	-35.33
372.371	3.58
372.582	15.87
372.792	62.98
373.003	62.98
373.214	60.93
373.424	13.82
373.635	77.31
373.846	54.78
374.056	-29.18
374.267	60.93
374.477	60.93
374.688	36.35
374.898	28.16
375.109	167.42
375.319	73.21
375.53	56.83
375.74	112.13
375.951	52.74
376.161	40.45
376.372	81.41
376.582	-51.71
376.793	-14.85
377.003	67.07
377.214	-14.85
377.424	38.4
377.635	105.98
377.845	3.58
378.055	144.89
378.266	-64
378.476	17.92
378.686	44.54
378.897	77.31
379.107	-31.23
379.317	-2.56
379.528	103.93
379.738	-2.56
379.948	11.78
380.158	52.74
380.369	13.82
380.579	95.74
380.789	38.4
380.999	89.6
381.21	-29.18
381.42	85.5
381.63	38.4
381.84	36.35
382.05	54.78
382.261	40.45
382.471	69.12
382.681	-29.18
382.891	85.5
383.101	146.94
383.311	11.78
383.521	112.13
383.731	77.31
383.941	95.74
384.151	44.54
384.361	52.74
384.571	58.88
384.781	75.26
384.991	114.17
385.201	81.41
385.411	77.31
385.621	52.74
385.831	40.45
386.041	26.11
386.251	85.5
386.461	-18.94
386.671	87.55
386.881	28.16
387.091	50.69
387.301	77.31
387.511	34.3
387.72	62.98
387.93	103.93
388.14	5.63
388.35	124.41
388.56	79.36
388.769	58.88
388.979	110.08
389.189	32.26
389.399	-20.99
389.609	93.69
389.818	101.89
390.028	118.27
390.238	69.12
390.447	93.69
390.657	7.68
390.867	28.16
391.076	-4.61
391.286	50.69
391.496	69.12
391.705	7.68
391.915	110.08
392.125	126.46
392.334	69.12
392.544	134.65
392.753	52.74
392.963	46.59
393.172	95.74
393.382	44.54
393.591	116.22
393.801	38.4
394.01	93.69
394.22	120.32
394.429	44.54
394.639	69.12
394.848	218.62
395.058	52.74
395.267	112.13
395.477	108.03
395.686	13.82
395.895	142.85
396.105	224.76
396.314	85.5
396.524	110.08
396.733	50.69
396.942	118.27
397.152	118.27
397.361	103.93
397.57	56.83
397.78	165.37
397.989	105.98
398.198	157.18
398.407	183.81
398.617	128.51
398.826	97.79
399.035	118.27
399.244	110.08
399.453	118.27
399.663	101.89
399.872	118.27
400.081	62.98
400.29	144.89
400.499	40.45
400.708	214.52
400.917	71.17
401.127	151.04
401.336	95.74
401.545	167.42
401.754	243.2
401.963	116.22
402.172	151.04
402.381	87.55
402.59	140.8
402.799	148.99
403.008	155.13
403.217	52.74
403.426	169.47
403.635	142.85
403.844	95.74
404.053	200.19
404.262	101.89
404.471	155.13
404.68	116.22
404.888	155.13
405.097	204.28
405.306	194.05
405.515	200.19
405.724	142.85
405.933	216.57
406.142	171.52
406.35	216.57
406.559	282.11
406.768	257.53
406.977	312.83
407.185	228.86
407.394	185.85
407.603	224.76
407.812	249.34
408.02	243.2
408.229	226.81
408.438	310.78
408.646	210.43
408.855	335.35
409.064	318.97
409.272	282.11
409.481	282.11
409.69	378.36
409.898	314.88
410.107	404.99
410.315	384.51
410.524	329.21
410.733	429.56
410.941	359.93
411.15	466.42
411.358	493.05
411.567	509.43
411.775	495.1
411.984	486.9
412.192	548.34
412.401	515.58
412.609	603.64
412.818	685.56
413.026	556.54
413.234	615.93
413.443	634.36
413.651	658.93
413.86	683.51
414.068	642.55
414.276	820.72
414.485	642.55
414.693	777.72
414.901	857.59
415.11	810.48
415.318	785.91
415.526	904.69
415.734	947.7
415.943	949.75
416.151	1013.23
416.359	992.75
416.567	988.66
416.776	1140.21
416.984	1150.45
417.192	1183.21
417.4	1220.08
417.608	1170.93
417.817	1224.17
418.025	1355.24
418.233	1541.61
418.441	1447.4
418.649	1461.74
418.857	1654.25
419.065	1656.29
419.273	1555.94
419.481	1658.34
419.689	1748.45
419.897	1756.65
420.105	1807.84
420.313	2010.59
420.521	1961.44
420.729	1936.87
420.937	2178.53
421.145	2145.76
421.353	2264.54
421.561	2422.24
421.769	2493.91
421.977	2530.78
422.185	2461.15
422.393	2579.93
422.601	2797.01
422.809	2868.69
423.017	2803.16
423.224	3018.19
423.432	3046.87
423.64	3102.16
423.848	3470.8
424.056	3266
424.263	3546.57
424.471	3565
424.679	3562.95
424.887	3749.32
425.094	3855.81
425.302	3952.07
425.51	4148.67
425.718	4177.34
425.925	4175.3
426.133	4425.15
426.341	4885.94
426.548	4787.64
426.756	4672.95
426.964	4902.33
427.171	5174.71
427.379	5416.37
427.586	5502.38
427.794	5635.5
428.001	5776.81
428.209	6092.2
428.417	5868.97
428.624	6245.79
428.832	6356.38
429.039	6372.77
429.247	6350.24
429.454	6991.25
429.662	7372.18
429.869	6962.58
430.076	7458.19
430.284	7292.3
430.491	7409.04
430.699	7976.33
430.906	8041.86
431.114	7886.22
431.321	8277.38
431.528	8519.04
431.736	9004.41
431.943	9565.55
432.15	9270.64
432.358	9125.24
432.565	9923.94
432.772	9723.24
432.979	10227.04
433.187	10607.97
433.394	10427.74
433.601	11115.86
433.808	11144.53
434.016	11185.49
434.223	11373.91
434.43	12553.54
434.637	12084.55
434.844	12963.13
435.052	12803.39
435.259	13112.63
435.466	12989.75
435.673	12891.45
435.88	13784.37
436.087	14519.59
436.294	14681.38
436.501	14202.15
436.708	14404.9
436.915	15088.92
437.122	15502.61
437.329	15392.02
437.537	16227.59
437.743	16076.04
437.95	16030.99
438.157	16911.61
438.364	17439.99
438.571	17396.98
438.778	17483
438.985	19184.86
439.192	18312.42
439.399	18949.34
439.606	18578.66
439.813	19784.91
440.02	20780.23
440.227	20479.18
440.433	20008.14
440.64	20753.6
440.847	20862.15
441.054	21245.12
441.261	22641.83
441.467	22332.59
441.674	22846.63
441.881	23887
442.088	23700.63
442.294	23157.92
442.501	23919.76
442.708	24468.62
442.914	25287.81
443.121	26442.86
443.328	25676.92
443.534	27546.72
443.741	26942.56
443.948	26367.09
444.154	28259.41
444.361	28216.4
444.568	28400.72
444.774	28419.15
444.981	28693.58
445.187	29119.56
445.394	30729.26
445.6	30280.75
445.807	33291.27
446.013	31591.45
446.22	32234.52
446.426	33872.89
446.633	33909.75
446.839	35116.01
447.046	33827.84
447.252	35544.03
447.459	35490.79
447.665	35476.45
447.871	36903.88
448.078	38085.56
448.284	36926.41
448.491	37741.5
448.697	38638.51
448.903	39652.26
449.11	39560.1
449.316	39211.95
449.522	39586.72
449.728	40729.49
449.935	40954.77
450.141	41255.82
450.347	41980.8
450.553	40926.1
450.76	41221
450.966	42335.1
451.172	42113.92
451.378	43613.03
451.584	42492.79
451.791	43187.05
451.997	42779.51
452.203	44196.7
452.409	43737.96
452.615	44131.17
452.821	42023.81
453.027	41610.12
453.233	44137.31
453.44	42244.99
453.646	42687.35
453.852	43033.46
454.058	43123.57
454.264	42036.09
454.47	42918.77
454.676	42105.73
454.882	43342.7
455.088	40068
455.294	40545.17
455.5	41284.49
455.705	41173.9
455.911	39994.27
456.117	39007.15
456.323	38323.13
456.529	36619.22
456.735	38226.87
456.941	36785.1
457.147	36563.92
457.352	35507.17
457.558	35152.87
457.764	35159.02
457.97	34309.11
458.176	33520.64
458.381	33532.93
458.587	32234.52
458.793	32162.84
458.999	30665.77
459.204	32531.47
459.41	31769.63
459.616	29224
459.821	29342.78
460.027	29279.3
460.233	28550.22
460.438	27303.01
460.644	27784.28
460.85	26584.17
461.055	25896.05
461.261	25576.57
461.466	24095.89
461.672	23301.28
461.878	25048.19
462.083	23248.03
462.289	22674.6
462.494	22387.88
462.7	21562.55
462.905	21048.51
463.111	21701.81
463.316	21781.68
463.522	21277.88
463.727	21570.74
463.932	21122.24
464.138	20794.56
464.343	21306.55
464.549	20194.51
464.754	21060.8
464.959	20821.19
465.165	20481.22
465.37	19508.44
465.575	19389.66
465.781	20143.31
465.986	20229.32
466.191	19205.34
466.397	18965.73
466.602	18009.33
466.807	18644.2
467.012	18943.2
467.218	18547.94
467.423	18099.44
467.628	18517.22
467.833	18961.63
468.038	18355.43
468.244	18005.23
468.449	18793.7
468.654	17966.32
468.859	17786.1
469.064	17997.04
469.269	17216.76
469.474	17020.16
469.679	17489.14
469.885	16979.2
470.09	16936.19
470.295	17192.19
470.5	16698.63
470.705	16653.57
470.91	16487.68
471.115	16551.17
471.32	16422.15
471.525	16336.13
471.73	15715.6
471.935	15848.72
472.139	15449.36
472.344	15889.68
472.549	15340.82
472.754	15119.64
472.959	15142.17
473.164	14497.06
473.369	14544.16
473.574	15052.06
473.778	14929.18
473.983	14570.79
474.188	14585.12
474.393	14189.86
474.598	14273.83
474.802	14015.79
475.007	13843.76
475.212	13753.65
475.417	13362.48
475.621	13458.74
475.826	13307.19
476.031	13169.98
476.235	12827.96
476.44	13294.9
476.645	12668.22
476.849	12948.79
477.054	12764.48
477.259	12520.77
477.463	12414.27
477.668	12131.65
477.872	12420.42
478.077	12115.27
478.282	12047.69
478.486	11775.31
478.691	11627.85
478.895	11808.08
479.1	11599.18
479.304	11418.96
479.509	11296.08
479.713	11459.92
479.918	11085.14
480.122	10935.64
480.326	11038.04
480.531	11029.85
480.735	10968.41
480.94	11103.57
481.144	11291.99
481.348	10761.56
481.553	10866.01
481.757	10747.23
481.961	10818.91
482.166	11046.23
482.37	10872.15
482.574	10558.81
482.778	10743.13
482.983	10943.83
483.187	10603.87
483.391	10653.02
483.595	10841.43
483.8	10505.57
484.004	10755.42
484.208	10632.54
484.412	10698.08
484.616	10808.67
484.821	10741.08
485.025	10474.85
485.229	10755.42
485.433	10321.25
485.637	10562.91
485.841	10638.69
486.045	10595.68
486.249	10712.41
486.453	10642.78
486.657	10587.49
486.861	10536.29
487.065	10345.83
487.269	10571.1
487.473	10444.13
487.677	10683.74
487.881	10863.96
488.085	10517.86
488.289	10595.68
488.493	10480.99
488.697	10669.41
488.901	10677.6
489.105	10458.46
489.309	10653.02
489.512	10493.28
489.716	10575.2
489.92	10601.82
490.124	10458.46
490.328	10655.07
490.531	10730.84
490.735	10603.87
490.939	10902.87
491.143	10573.15
491.346	10831.19
491.55	11079
491.754	10743.13
491.958	10909.02
492.161	11029.85
492.365	10999.13
492.569	11013.46
492.772	11066.71
492.976	10982.74
493.18	11091.29
493.383	11228.5
493.587	11111.77
493.79	11339.09
493.994	11236.69
494.197	11361.62
494.401	11470.16
494.605	11359.57
494.808	11709.77
495.012	11846.99
495.215	11769.16
495.419	11939.15
495.622	11818.32
495.825	11916.62
496.029	12039.5
496.232	12260.68
496.436	11959.63
496.639	12414.27
496.843	12184.9
497.046	12651.84
497.249	12762.43
497.453	12645.7
497.656	12946.75
497.859	12731.71
498.063	13096.25
498.266	13219.13
498.469	13235.51
498.673	13399.35
498.876	13260.09
499.079	13737.26
499.282	13440.31
499.485	13876.52
499.689	13749.55
499.892	14114.09
500.095	14173.48
500.298	14519.59
500.501	14554.4
500.705	14765.34
500.908	14742.82
501.111	15070.49
501.314	15217.94
501.517	15275.29
501.72	15465.75
501.923	15219.99
502.126	15813.9
502.329	16090.38
502.532	16020.75
502.735	16149.77
502.938	16321.8
503.141	16469.25
503.344	16942.33
503.547	16960.77
503.75	16973.05
503.953	17147.13
504.156	17022.2
504.359	17702.13
504.562	17523.96
504.765	18103.53
504.968	18060.52
505.17	18566.37
505.373	18138.35
505.576	18679.01
505.779	18969.82
505.982	19033.31
506.185	19129.56
506.387	19000.54
506.59	19514.58
506.793	19815.63
506.996	19688.66
507.198	20264.14
507.401	20198.6
507.604	20462.79
507.807	20702.4
508.009	20944.06
508.212	21163.2
508.415	21638.33
508.617	21763.25
508.82	21722.29
509.022	21517.5
509.225	22070.45
509.428	22420.65
509.63	22396.07
509.833	22625.45
510.035	23145.63
510.238	23159.97
510.44	23035.04
510.643	24028.31
510.845	23745.69
511.048	23594.14
511.25	24159.38
511.453	24503.43
511.655	25201.79
511.858	24784.01
512.06	25087.11
512.262	25345.15
512.465	25281.66
512.667	25967.73
512.87	25783.41
513.072	26043.51
513.274	26481.77
513.477	26793.06
513.679	27098.21
513.881	27671.64
514.084	27485.28
514.286	27413.6
514.488	27786.33
514.69	28314.7
514.893	28339.28
515.095	28435.53
515.297	29086.79
515.499	28945.48
515.701	29336.64
515.904	29424.7
516.106	29756.47
516.308	29869.11
516.51	30319.67
516.712	30192.69
516.914	30405.68
517.116	31030.31
517.318	31382.56
517.52	31378.47
517.722	31435.81
517.925	32091.16
518.127	32138.26
518.329	32087.06
518.531	31857.69
518.733	32834.57
518.935	33182.73
519.136	33111.05
519.338	33356.8
519.54	33285.12
519.742	33735.68
519.944	34302.96
520.146	34165.75
520.348	34589.68
520.55	34622.45
520.752	35122.15
520.954	35634.14
521.155	34857.96
521.357	35535.84
521.559	35453.92
521.761	36137.94
521.963	36449.24
522.164	36373.46
522.366	36150.23
522.568	36711.38
522.77	36572.11
522.971	37120.97
523.173	36965.32
523.375	37628.87
523.576	37014.48
523.778	37266.38
523.98	37532.61
524.181	37669.83
524.383	37886.91
524.584	38276.02
524.786	38185.91
524.988	38273.98
525.189	38331.32
525.391	38683.57
525.592	38599.6
525.794	38853.55
525.995	38695.86
526.197	38333.37
526.398	38634.42
526.6	39119.79
526.801	39058.35
527.003	38904.75
527.204	39113.64
527.406	39330.73
527.607	39435.17
527.808	39396.26
528.01	38955.95
528.211	39213.99
528.412	39449.51
528.614	39658.4
528.815	39762.85
529.016	40068
529.218	39127.98
529.419	39625.64
529.62	39736.23
529.822	39609.25
530.023	39805.86
530.224	39537.57
530.425	39330.73
530.626	39224.23
530.828	39015.34
531.029	40248.22
531.23	39887.78
531.431	39453.61
531.632	39412.65
531.833	39531.43
532.035	39404.45
532.236	39336.87
532.437	39699.36
532.638	39267.24
532.839	39613.35
533.04	38966.19
533.241	38732.72
533.442	39803.81
533.643	39449.51
533.844	39134.12
534.045	39211.95
534.246	38804.4
534.447	39316.39
534.648	39347.11
534.849	39222.19
535.05	38857.65
535.251	38884.27
535.451	38890.41
535.652	38878.13
535.853	38855.6
536.054	39271.34
536.255	39232.43
536.456	38206.39
536.657	39179.18
536.857	38450.1
537.058	38452.15
537.259	38779.82
537.46	38519.73
537.66	38196.15
537.861	38411.19
538.062	38413.24
538.263	38615.99
538.463	38525.88
538.664	38255.54
538.865	38392.76
539.065	38374.33
539.266	38063.04
539.466	38601.65
539.667	38169.53
539.868	38446.01
540.068	37987.26
540.269	38060.99
540.469	38013.88
540.67	37813.18
540.87	37856.19
541.071	37393.35
541.271	37974.97
541.472	38009.79
541.672	37721.02
541.873	37841.85
542.073	37974.97
542.274	37706.69
542.474	37753.79
542.675	37639.11
542.875	37833.66
543.075	37815.23
543.276	37442.5
543.476	37880.77
543.676	37751.74
543.877	37553.09
544.077	37727.17
544.277	37469.12
544.478	37600.19
544.678	37712.83
544.878	37804.99
545.078	37659.59
545.279	37221.32
545.479	37206.98
545.679	37546.95
545.879	37637.06
546.079	37723.07
546.28	37561.28
546.48	36969.42
546.68	37690.3
546.88	37440.45
547.08	37542.85
547.28	37278.66
547.48	37305.29
547.68	37637.06
547.88	37082.06
548.081	37747.65
548.281	37723.07
548.481	37370.82
548.681	37290.95
548.881	37532.61
549.081	37514.18
549.28	37354.44
549.48	37567.43
549.68	37663.68
549.88	37774.27
550.08	37407.69
550.28	37612.48
550.48	37307.33
550.68	37766.08
550.88	37340.1
551.08	37516.23
551.279	37827.52
551.479	37395.4
551.679	37925.82
551.879	37336.01
552.079	37778.37
552.278	37370.82
552.478	37665.73
552.678	37569.47
552.878	37845.95
553.077	37737.41
553.277	37551.04
553.477	37968.83
553.676	37608.39
553.876	37721.02
554.076	37819.33
554.275	37432.26
554.475	37559.23
554.674	37684.16
554.874	37757.89
555.074	37585.86
555.273	38126.52
555.473	38130.62
555.672	37622.72
555.872	37643.2
556.071	37774.27
556.271	38091.71
556.47	37647.3
556.67	37563.33
556.869	37692.35
557.068	37987.26
557.268	37579.71
557.467	37968.83
557.667	37948.35
557.866	37688.26
558.065	37788.61
558.265	37796.8
558.464	37831.61
558.663	38169.53
558.863	37518.28
559.062	38292.41
559.261	38103.99
559.461	38380.47
559.66	37815.23
559.859	37817.28
560.058	37913.53
560.258	38157.24
560.457	37702.59
560.656	38308.79
560.855	37936.06
561.054	38138.81
561.253	37675.97
561.453	38132.67
561.652	37934.01
561.851	38421.43
562.05	37712.83
562.249	37893.05
562.448	37909.44
562.647	37657.54
562.846	38009.79
563.045	38138.81
563.244	37657.54
563.443	38292.41
563.642	37288.9
563.841	37995.45
564.04	37667.78
564.239	37995.45
564.438	37174.22
564.637	37630.91
564.836	37618.63
565.035	37321.67
565.234	37774.27
565.432	37206.98
565.631	37137.35
565.83	37516.23
566.029	37159.88
566.228	37182.41
566.427	37391.3
566.625	36766.67
566.824	37006.28
567.023	37235.66
567.222	36791.25
567.42	37157.83
567.619	37002.19
567.818	37190.6
568.016	36883.41
568.215	36867.02
568.414	36619.22
568.612	37217.22
568.811	36533.2
569.01	36471.76
569.208	36367.32
569.407	36627.41
569.605	35996.63
569.804	36406.23
570.002	35871.71
570.201	36135.9
570.4	35863.52
570.598	35757.02
570.797	35699.68
570.995	36180.95
571.193	35185.64
571.392	35693.54
571.59	35312.61
571.789	35576.8
571.987	35349.48
572.186	35687.39
572.384	35103.72
572.582	35175.4
572.781	35666.91
572.979	34831.34
573.177	35242.98
573.376	34911.21
573.574	34733.04
573.772	34837.48
573.971	34739.18
574.169	34661.36
574.367	33932.28
574.565	34761.71
574.763	34493.43
574.962	34071.54
575.16	33741.82
575.358	34212.85
575.556	33711.1
575.754	34272.25
575.952	33442.82
576.151	34130.94
576.349	33367.04
576.547	33625.09
576.745	33623.04
576.943	33336.32
577.141	33432.58
577.339	33604.61
577.537	33074.18
577.735	33311.75
577.933	32973.83
578.131	32963.59
578.329	32637.97
578.527	32752.65
578.725	32619.53
578.923	32664.59
579.121	32637.97
579.319	32369.68
579.516	32975.88
579.714	32394.26
579.912	32252.95
580.11	31693.85
580.308	32082.97
580.506	31951.9
580.704	31259.68
580.901	31853.59
581.099	31917.08
581.297	31525.92
581.495	31089.7
581.692	31458.34
581.89	30823.47
582.088	31519.78
582.285	30917.67
582.483	31407.14
582.681	31079.46
582.878	30843.95
583.076	30657.58
583.274	31292.45
583.471	30649.39
583.669	31030.31
583.866	30553.13
584.064	30901.29
584.262	30135.35
584.459	30628.91
584.657	30086.2
584.854	30616.62
585.052	29844.54
585.249	30252.08
585.447	30311.47
585.644	29748.28
585.841	30043.19
586.039	30336.05
586.236	29480
586.434	29488.19
586.631	29987.89
586.828	29350.98
587.026	29699.13
587.223	29484.09
587.42	29322.3
587.618	29508.67
587.815	29246.53
588.012	29088.84
588.21	29475.9
588.407	29365.31
588.604	29099.08
588.801	28609.61
588.999	28881.99
589.196	28910.66
589.393	28757.07
589.59	28441.68
589.787	28523.6
589.984	28273.74
590.182	28490.83
590.379	28421.2
590.576	28365.9
590.773	28642.38
590.97	28451.92
591.167	28232.79
591.364	27960.41
591.561	28040.28
591.758	27710.55
591.955	27765.85
592.152	28079.19
592.349	27647.07
592.546	27993.17
592.743	27872.34
592.94	27028.58
593.137	27837.53
593.334	27872.34
593.531	27423.84
593.727	27728.98
593.924	27556.96
594.121	27313.25
594.318	27460.7
594.515	27165.79
594.712	27397.21
594.908	27468.89
595.105	27120.74
595.302	27249.76
595.499	27305.06
595.696	27042.92
595.892	27294.82
596.089	27640.92
596.286	27432.03
596.482	27200.61
596.679	26944.61
596.876	26961
597.072	26858.6
597.269	27100.26
597.466	26975.33
597.662	26991.72
597.859	26952.8
598.055	27153.51
598.252	26709.1
598.448	26637.42
598.645	26446.96
598.841	26569.83
599.038	26575.98
599.234	26725.48
599.431	26207.34
599.627	26748.01
599.824	26760.3
600.02	26383.47
600.217	26801.26
600.413	26807.4
600.609	26670.19
600.806	26395.76
601.002	26872.93
601.198	26608.75
601.395	26518.64
601.591	26545.26
601.787	26725.48
601.984	26772.58
602.18	26885.22
602.376	27083.87
602.572	26686.57
602.769	26659.95
602.965	26481.77
603.161	27085.92
603.357	26365.04
603.553	26905.7
603.75	26870.89
603.946	26776.68
604.142	26879.08
604.338	26416.24
604.534	26702.95
604.73	26481.77
604.926	26612.84
605.122	26803.3
605.318	26672.23
605.514	27001.96
605.71	26463.34
605.906	26563.69
606.102	26635.37
606.298	26928.23
606.494	27036.77
606.69	26989.67
606.886	27264.1
607.082	26651.75
607.278	27083.87
607.474	26612.84
607.67	27425.89
607.866	26860.65
608.062	26926.18
608.257	26883.17
608.453	26895.46
608.649	27272.29
608.845	26754.15
609.041	27251.81
609.236	27014.24
609.432	27047.01
609.628	27360.35
609.824	27227.23
610.019	27294.82
610.215	26973.28
610.411	27487.32
610.606	27135.07
610.802	27425.89
610.998	27233.38
611.193	27378.78
611.389	27266.14
611.584	27606.11
611.78	27216.99
611.976	27458.65
612.171	27411.55
612.367	27540.57
612.562	27315.3
612.758	26973.28
612.953	27155.55
613.149	27784.28
613.344	27389.02
613.539	27802.71
613.735	27376.73
613.93	27679.83
614.126	27198.56
614.321	27706.46
614.517	27806.81
614.712	27575.39
614.907	27233.38
615.103	27704.41
615.298	27305.06
615.493	27579.48
615.688	27206.75
615.884	27835.48
616.079	27292.77
616.274	27528.28
616.47	27597.91
616.665	27495.52
616.86	27206.75
617.055	27448.41
617.25	27335.77
617.445	27804.76
617.641	26987.62
617.836	27622.49
618.031	27190.37
618.226	27315.3
618.421	27049.06
618.616	27479.13
618.811	26797.16
619.006	27391.07
619.201	26872.93
619.396	27049.06
619.591	26834.02
619.786	27047.01
619.981	26715.24
620.176	26887.27
620.371	26594.41
620.566	26473.58
620.761	26492.01
620.956	26889.32
621.151	26375.28
621.346	26666.09
621.541	25797.75
621.735	26309.74
621.93	25441.4
622.125	25965.68
622.32	25474.17
622.515	25590.91
622.709	25707.64
622.904	25580.67
623.099	25468.03
623.294	25293.95
623.488	25085.06
623.683	25216.13
623.878	24620.17
624.072	24833.16
624.267	24669.32
624.462	24517.77
624.656	24530.06
624.851	24538.25
625.046	24431.76
625.24	24192.14
625.435	24075.41
625.629	23999.63
625.824	23827.6
626.018	23887
626.213	23721.11
626.407	23938.19
626.602	23309.47
626.796	23598.23
626.991	23522.46
627.185	23350.43
627.38	22682.79
627.574	22912.16
627.768	23121.06
627.963	22641.83
628.157	22600.87
628.352	22609.06
628.546	22258.86
628.74	22627.49
628.935	22260.91
629.129	22240.43
629.323	22142.13
629.517	21816.5
629.712	22035.63
629.906	21791.92
630.1	21488.82
630.294	21613.75
630.489	21277.88
630.683	21333.18
630.877	20937.92
631.071	21136.57
631.265	21064.89
631.459	20808.9
631.653	20712.64
631.848	20911.3
632.042	20507.85
632.236	20649.16
632.43	20239.56
632.624	20370.63
632.818	19971.28
633.012	19997.9
633.206	20020.43
633.4	19760.34
633.594	20030.67
633.788	19784.91
633.982	19629.27
634.176	19725.52
634.369	19360.98
634.563	19459.29
634.757	19188.96
634.951	19209.43
635.145	19006.69
635.339	18912.48
635.533	19049.69
635.726	18814.18
635.92	18697.44
636.114	18517.22
636.308	18476.26
636.501	18556.13
636.695	18158.83
636.889	18226.41
637.083	18025.71
637.276	17923.31
637.47	17980.65
637.664	17915.12
637.857	17814.77
638.051	17681.65
638.244	17466.61
638.438	17286.39
638.632	17378.55
638.825	17261.82
639.019	17018.11
639.212	16991.48
639.406	17116.41
639.599	16772.35
639.793	16635.14
639.986	16530.69
640.18	16678.15
640.373	16399.62
640.567	16248.07
640.76	16344.33
640.954	15983.88
641.147	16184.59
641.34	15928.59
641.534	16205.06
641.727	15801.61
641.92	15813.9
642.114	15570.19
642.307	15613.2
642.5	15394.07
642.694	15260.95
642.887	15387.93
643.08	15478.04
643.273	14994.72
643.467	14984.48
643.66	14863.65
643.853	14976.28
644.046	14538.02
644.239	14558.5
644.432	14664.99
644.626	14388.52
644.819	14398.76
645.012	14396.71
645.205	14271.78
645.398	14232.87
645.591	13956.4
645.784	14060.84
645.977	13937.96
646.17	13804.85
646.363	13649.2
646.556	13651.25
646.749	13620.53
646.942	13557.04
647.135	13479.22
647.328	13358.39
647.521	13374.77
647.714	13131.06
647.907	13139.26
648.099	12991.8
648.292	13129.02
648.485	12696.89
648.678	12768.57
648.871	12848.44
649.064	12752.19
649.256	12782.91
649.449	12391.75
649.642	12674.37
649.835	12262.72
650.027	12281.16
650.22	12268.87
650.413	12125.51
650.605	12252.49
650.798	12064.07
650.991	12021.06
651.183	11935.05
651.376	11730.25
651.568	12002.63
651.761	11545.94
651.954	11679.05
652.146	11580.75
652.339	11353.43
652.531	11609.42
652.724	11351.38
652.916	11001.18
653.109	11324.76
653.301	11447.63
653.494	11302.23
653.686	11074.9
653.879	11205.97
654.071	11076.95
654.263	11009.37
654.456	11029.85
654.648	10952.02
654.84	10898.78
655.033	10736.99
655.225	10597.73
655.417	10521.95
655.61	10468.7
655.802	10595.68
655.994	10298.72
656.186	10327.39
656.379	10409.31
656.571	10044.77
656.763	10253.67
656.955	10274.15
657.148	10171.75
657.34	9975.14
657.532	9868.65
657.724	9899.37
657.916	9852.27
658.108	10042.73
658.3	9719.15
658.492	9786.73
658.684	9399.66
658.876	9764.2
659.068	9606.51
659.26	9506.16
659.452	9506.16
659.644	9454.96
659.836	9448.82
660.028	9444.72
660.22	9227.64
660.412	9203.06
660.604	9082.23
660.796	9270.64
660.988	9115
661.18	8756.6
661.372	8883.58
661.563	8969.59
661.755	8738.17
661.947	8713.6
662.139	8818.04
662.331	8531.33
662.522	8652.16
662.714	8590.72
662.906	8596.86
663.097	8547.71
663.289	8291.71
663.481	8326.53
663.673	8394.11
663.864	8256.9
664.056	8314.24
664.247	8238.47
664.439	8019.33
664.631	8131.97
664.822	8035.72
665.014	7998.85
665.205	8050.05
665.397	7933.32
665.588	7966.09
665.78	7978.37
665.971	7867.78
666.163	7753.1
666.354	7755.15
666.546	7658.89
666.737	7630.22
666.929	7568.78
667.12	7613.84
667.311	7705.99
667.503	7474.57
667.694	7493.01
667.885	7411.09
668.077	7540.11
668.268	7335.31
668.459	7316.88
668.651	7163.28
668.842	7234.96
669.033	7157.14
669.224	6983.06
669.416	7431.57
669.607	7112.08
669.798	7026.07
669.989	7189.91
670.18	7150.99
670.371	6974.87
670.563	6987.16
670.754	6978.97
670.945	6935.96
671.136	6847.9
671.327	6761.88
671.518	6935.96
671.709	6925.72
671.9	6960.53
672.091	6831.51
672.282	6772.12
672.473	6786.46
672.664	6536.6
672.855	6712.73
673.046	6569.37
673.237	6598.04
673.428	6593.95
673.619	6704.54
673.809	6475.17
674	6376.86
674.191	6548.89
674.382	6561.18
674.573	6602.14
674.764	6245.79
674.954	6518.17
675.145	6317.47
675.336	6456.73
675.527	6321.57
675.717	6327.71
675.908	6372.77
676.099	6452.64
676.289	6190.5
676.48	6206.88
676.671	6239.65
676.861	6313.38
677.052	6180.26
677.243	6100.39
677.433	6116.77
677.624	6280.61
677.814	6084
678.005	5965.22
678.195	6057.38
678.386	6002.08
678.576	6122.91
678.767	5936.55
678.957	6018.47
679.148	6112.67
679.338	6155.68
679.529	6110.63
679.719	6094.24
679.909	6024.61
680.1	6135.2
680.29	5807.53
680.481	5993.89
680.671	5981.6
680.861	5975.46
681.052	5936.55
681.242	5961.13
681.432	5963.17
681.622	5838.25
681.813	5791.14
682.003	5848.49
682.193	5690.79
682.383	5942.69
682.573	5766.57
682.764	5893.54
682.954	5725.61
683.144	5797.29
683.334	5885.35
683.524	5864.87
683.714	5787.05
683.904	5741.99
684.094	5813.67
684.284	5791.14
684.474	5848.49
684.664	5780.9
684.854	5653.93
685.044	5709.22
685.234	5602.73
685.424	5680.55
685.614	5795.24
685.804	5735.85
685.994	5713.32
686.184	5643.69
686.374	5655.98
686.564	5535.15
686.753	5629.35
686.943	5477.8
687.133	5565.87
687.323	5504.43
687.513	5496.24
687.702	5490.09
687.892	5606.83
688.082	5330.35
688.272	5356.97
688.461	5322.16
688.651	5565.87
688.841	5369.26
689.03	5291.44
689.22	5313.97
689.41	5361.07
689.599	5330.35
689.789	5279.15
689.979	5164.47
690.168	5283.25
690.358	5260.72
690.547	5174.71
690.737	5170.61
690.926	5193.14
691.116	5143.99
691.305	5156.27
691.495	5135.79
691.684	5172.66
691.874	5191.09
692.063	5344.69
692.252	5197.23
692.442	5010.87
692.631	4980.15
692.82	5090.74
693.01	5035.44
693.199	4926.9
693.388	4926.9
693.578	5100.98
693.767	4928.95
693.956	4943.28
694.146	5008.82
694.335	4994.48
694.524	4986.29
694.713	4892.09
694.902	4896.18
695.092	4928.95
695.281	4773.3
695.47	4900.28
695.659	4883.89
695.848	4812.21
696.037	4806.07
696.226	4842.93
696.415	4652.47
696.604	4869.56
696.793	4705.72
696.982	4769.21
697.171	4775.35
697.36	4754.87
697.549	4724.15
697.738	4709.82
697.927	4646.33
698.116	4611.51
698.305	4535.74
698.494	4636.09
698.683	4541.88
698.872	4720.06
699.061	4564.41
699.25	4478.4
699.438	4533.69
699.627	4492.73
699.816	4560.31
700.005	4527.55
700.193	4634.04
700.382	4556.22
700.571	4468.16
700.76	4533.69
700.948	4494.78
701.137	4435.39
701.326	4603.32
701.514	4380.09
701.703	4443.58
701.892	4369.85
702.08	4410.81
702.269	4396.48
702.457	4423.1
702.646	4484.54
702.834	4289.98
703.023	4257.22
703.212	4312.51
703.4	4363.71
703.589	4330.94
703.777	4414.91
703.965	4214.21
704.154	4148.67
704.342	4173.25
704.531	4224.45
704.719	4044.23
704.907	3984.84
705.096	4150.72
705.284	4322.75
705.472	4140.48
705.661	4070.85
705.849	4042.18
706.037	4156.86
706.226	4103.62
706.414	4062.66
706.602	4027.84
706.79	4076.99
706.979	3864.01
707.167	4091.33
707.355	4076.99
707.543	4091.33
707.731	4009.41
707.919	4033.99
708.107	3825.09
708.296	3896.77
708.484	3984.84
708.672	3892.68
708.86	3839.43
709.048	3872.2
709.236	3767.75
709.424	3950.02
709.612	3777.99
709.8	3847.62
709.988	3880.39
710.176	3859.91
710.364	3851.72
710.551	3962.31
710.739	3853.77
710.927	3821
711.115	3759.56
711.303	3763.65
711.491	3837.38
711.679	3747.27
711.866	3800.52
712.054	3694.02
712.242	3608.01
712.43	3784.13
712.617	3796.42
712.805	3749.32
712.993	3661.26
713.181	3569.1
713.368	3554.76
713.556	3698.12
713.744	3509.71
713.931	3732.94
714.119	3540.43
714.306	3608.01
714.494	3567.05
714.682	3577.29
714.869	3403.21
715.057	3460.56
715.244	3317.2
715.432	3595.72
715.619	3521.99
715.807	3597.77
715.994	3472.84
716.182	3532.23
716.369	3562.95
716.556	3501.51
716.744	3403.21
716.931	3435.98
717.119	3306.96
717.306	3352.01
717.493	3440.08
717.681	3378.64
717.868	3313.1
718.055	3407.31
718.242	3345.87
718.43	3368.4
718.617	3372.49
718.804	3321.29
718.991	3294.67
719.179	3354.06
719.366	3290.57
719.553	3321.29
719.74	3161.55
719.927	3274.19
720.114	3243.47
720.301	3259.85
720.488	3249.61
720.676	3222.99
720.863	3239.37
721.05	3329.49
721.237	3118.54
721.424	3075.54
721.611	3173.84
721.798	3136.98
721.985	3091.92
722.172	3104.21
722.358	3102.16
722.545	3085.78
722.732	3190.22
722.919	3124.69
723.106	3050.96
723.293	3102.16
723.48	2964.95
723.667	3034.58
723.853	3014.1
724.04	3014.1
724.227	3069.39
724.414	3007.95
724.6	3067.35
724.787	2960.85
724.974	3018.19
725.161	2940.37
725.347	2928.08
725.534	3057.11
725.72	2874.84
725.907	2915.8
726.094	2930.13
726.28	2897.36
726.467	2809.3
726.653	2837.97
726.84	3061.2
727.027	2864.6
727.213	2747.86
727.4	2766.29
727.586	2754.01
727.773	2944.47
727.959	2815.45
728.145	2860.5
728.332	2907.6
728.518	2782.68
728.705	2887.12
728.891	2928.08
729.077	2782.68
729.264	2833.88
729.45	2913.75
729.636	2805.21
729.823	2731.48
730.009	2895.32
730.195	2690.52
730.382	2756.05
730.568	2780.63
730.754	2764.25
730.94	2717.14
731.126	2754.01
731.313	2764.25
731.499	2643.42
731.685	2743.77
731.871	2764.25
732.057	2864.6
732.243	2809.3
732.429	2745.81
732.615	2672.09
732.801	2766.29
732.987	2852.31
733.173	2676.18
733.359	2614.74
733.545	2774.49
733.731	2657.75
733.917	2676.18
734.103	2600.41
734.289	2676.18
734.475	2643.42
734.661	2731.48
734.847	2604.5
735.033	2536.92
735.219	2528.73
735.404	2577.88
735.59	2532.83
735.776	2559.45
735.962	2530.78
736.148	2549.21
736.333	2543.07
736.519	2498.01
736.705	2502.11
736.89	2426.33
737.076	2538.97
737.262	2612.7
737.447	2471.39
737.633	2477.53
737.819	2524.63
738.004	2455
738.19	2393.56
738.375	2455
738.561	2416.09
738.747	2467.29
738.932	2383.32
739.118	2461.15
739.303	2301.4
739.489	2485.72
739.674	2313.69
739.859	2362.84
740.045	2397.66
740.23	2403.8
740.416	2274.78
740.601	2231.77
740.786	2291.17
740.972	2215.39
741.157	2395.61
741.342	2291.17
741.528	2321.88
741.713	2291.17
741.898	2293.21
742.084	2330.08
742.269	2282.97
742.454	2242.01
742.639	2199.01
742.824	2180.57
743.01	2272.73
743.195	2217.44
743.38	2166.24
743.565	2297.31
743.75	2164.19
743.935	2272.73
744.12	2092.51
744.305	2076.13
744.49	2129.38
744.675	2104.8
744.86	2110.94
745.045	2059.74
745.23	2096.61
745.415	2092.51
745.6	2100.7
745.785	2061.79
745.97	2033.12
746.155	1990.11
746.34	2043.36
746.525	1932.77
746.71	2043.36
746.895	2010.59
747.079	1947.11
747.264	1936.87
747.449	1922.53
747.634	2117.09
747.819	1975.78
748.003	1859.04
748.188	1953.25
748.373	1826.28
748.557	1912.29
748.742	1842.66
748.927	1854.95
749.111	1807.84
749.296	1781.22
749.481	1846.76
749.665	1770.98
749.85	1857
750.034	1795.56
750.219	1789.41
750.404	1691.11
750.588	1734.12
750.773	1609.19
750.957	1668.58
751.141	1613.29
751.326	1674.73
751.51	1644.01
751.695	1715.69
751.879	1666.53
752.064	1691.11
752.248	1576.42
752.432	1525.22
752.617	1621.48
752.801	1654.25
752.985	1545.7
753.17	1627.62
753.354	1572.33
753.538	1625.58
753.722	1488.36
753.907	1574.38
754.091	1525.22
754.275	1543.66
754.459	1521.13
754.643	1523.18
754.828	1445.35
755.012	1484.27
755.196	1568.23
755.38	1482.22
755.564	1455.59
755.748	1394.15
755.932	1355.24
756.116	1424.87
756.3	1351.15
756.484	1388.01
756.668	1349.1
756.852	1302
757.036	1242.61
757.22	1388.01
757.404	1267.18
757.588	1285.61
757.772	1349.1
757.956	1277.42
758.14	1431.02
758.323	1347.05
758.507	1261.04
758.691	1291.76
758.875	1357.29
759.059	1273.32
759.242	1273.32
759.426	1193.45
759.61	1205.74
759.794	1347.05
759.977	1215.98
760.161	1269.23
760.345	1091.06
760.528	1179.12
760.712	1183.21
760.895	1252.84
761.079	1207.79
761.263	1146.35
761.446	1154.54
761.63	1226.22
761.813	1207.79
761.997	1185.26
762.18	1117.68
762.364	1175.02
762.547	1129.97
762.731	1136.11
762.914	1158.64
763.098	1091.06
763.281	1101.3
763.464	1099.25
763.648	1072.62
763.831	1076.72
764.015	1105.39
764.198	1101.3
764.381	1019.38
764.564	1035.76
764.748	1015.28
764.931	1005.04
765.114	1015.28
765.297	1048.05
765.481	980.47
765.664	1056.24
765.847	1060.34
766.03	1056.24
766.213	1002.99
766.397	986.61
766.58	990.7
766.763	982.51
766.946	978.42
767.129	914.93
767.312	1050.1
767.495	923.12
767.678	933.36
767.861	970.23
768.044	931.31
768.227	871.92
768.41	947.7
768.593	1043.95
768.776	998.9
768.959	980.47
769.142	992.75
769.324	939.51
769.507	923.12
769.69	986.61
769.873	970.23
770.056	863.73
770.239	941.55
770.421	941.55
770.604	998.9
770.787	953.84
770.97	923.12
771.152	790
771.335	876.02
771.518	839.16
771.7	906.74
771.883	878.07
772.066	962.03
772.248	865.78
772.431	914.93
772.613	839.16
772.796	908.79
772.978	894.45
773.161	933.36
773.343	841.2
773.526	869.87
773.708	876.02
773.891	833.01
774.073	865.78
774.256	732.66
774.438	871.92
774.621	835.06
774.803	814.58
774.985	871.92
775.168	835.06
775.35	720.37
775.532	818.68
775.715	833.01
775.897	679.41
776.079	716.28
776.261	798.2
776.444	718.33
776.626	738.8
776.808	603.64
776.99	679.41
777.173	742.9
777.355	644.6
777.537	677.37
777.719	699.89
777.901	603.64
778.083	718.33
778.265	699.89
778.447	691.7
778.629	683.51
778.811	687.61
778.993	667.13
779.175	687.61
779.357	712.18
779.539	597.49
779.721	689.65
779.903	706.04
780.085	691.7
780.267	677.37
780.449	609.78
780.631	663.03
780.812	560.63
780.994	609.78
781.176	624.12
781.358	652.79
781.54	577.02
781.721	611.83
781.903	597.49
782.085	570.87
782.267	591.35
782.448	499.19
782.63	577.02
782.812	540.15
782.993	570.87
783.175	507.38
783.357	511.48
783.538	579.06
783.72	460.28
783.901	513.53
784.083	597.49
784.264	593.4
784.446	511.48
784.627	423.42
784.809	480.76
784.99	519.67
785.172	556.54
785.353	392.7
785.535	542.2
785.716	482.81
785.897	396.79
786.079	439.8
786.26	478.71
786.441	478.71
786.623	462.33
786.804	488.95
786.985	577.02
787.167	445.95
787.348	441.85
787.529	468.47
787.71	445.95
787.891	564.73
788.073	443.9
788.254	456.19
788.435	445.95
788.616	505.34
788.797	376.31
788.978	478.71
789.159	390.65
789.34	413.18
789.522	466.42
789.703	339.45
789.884	349.69
790.065	421.37
790.246	458.23
790.427	318.97
790.607	497.14
790.788	392.7
790.969	390.65
791.15	349.69
791.331	321.02
791.512	359.93
791.693	345.59
791.874	382.46
792.054	488.95
792.235	343.55
792.416	345.59
792.597	323.07
792.778	382.46
792.958	302.59
793.139	292.35
793.32	388.6
793.5	372.22
793.681	380.41
793.862	298.49
794.042	390.65
794.223	368.12
794.404	290.3
794.584	253.44
794.765	300.54
794.945	386.55
795.126	386.55
795.306	288.25
795.487	368.12
795.667	407.03
795.848	323.07
796.028	294.4
796.209	355.83
796.389	335.35
796.57	265.72
796.75	290.3
796.93	404.99
797.111	300.54
797.291	230.91
797.471	298.49
797.652	290.3
797.832	265.72
798.012	404.99
798.192	220.67
798.373	187.9
798.553	292.35
798.733	284.16
798.913	259.58
799.093	243.2
799.274	208.38
799.454	345.59
799.634	329.21
799.814	306.68
799.994	265.72
800.174	257.53
800.354	239.1
800.534	187.9
800.714	253.44
800.894	237.05
801.074	228.86
801.254	257.53
801.434	282.11
801.614	243.2
801.794	153.09
801.974	962.03
802.154	173.57
802.334	310.78
802.514	175.61
802.693	255.48
802.873	161.28
803.053	282.11
803.233	183.81
803.413	261.63
803.592	179.71
803.772	194.05
803.952	224.76
804.131	192
804.311	243.2
804.491	253.44
804.67	157.18
804.85	224.76
805.03	232.96
805.209	292.35
805.389	304.64
805.568	159.23
805.748	200.19
805.928	269.82
806.107	155.13
806.287	210.43
806.466	181.76
806.646	159.23
806.825	142.85
807.004	171.52
807.184	183.81
807.363	175.61
807.543	208.38
807.722	185.85
807.901	218.62
808.081	194.05
808.26	87.55
808.439	208.38
808.619	239.1
808.798	136.7
808.977	243.2
809.156	210.43
809.336	151.04
809.515	171.52
809.694	185.85
809.873	282.11
810.052	228.86
810.231	210.43
810.411	128.51
810.59	251.39
810.769	112.13
810.948	179.71
811.127	157.18
811.306	220.67
811.485	110.08
811.664	198.14
811.843	159.23
812.022	120.32
812.201	151.04
812.38	144.89
812.559	179.71
812.737	241.15
812.916	151.04
813.095	177.66
813.274	77.31
813.453	218.62
813.632	132.61
813.811	179.71
813.989	175.61
814.168	183.81
814.347	95.74
814.526	151.04
814.704	167.42
814.883	128.51
815.062	142.85
815.24	216.57
815.419	77.31
815.598	142.85
815.776	13.82
815.955	259.58
816.133	83.45
816.312	251.39
816.49	122.37
816.669	169.47
816.847	187.9
817.026	224.76
817.204	118.27
817.383	179.71
817.561	87.55
817.74	185.85
817.918	112.13
818.097	151.04
818.275	175.61
818.453	142.85
818.632	163.33
818.81	142.85
818.988	54.78
819.167	60.93
819.345	120.32
819.523	128.51
819.701	58.88
819.879	146.94
820.058	153.09
820.236	62.98
820.414	126.46
820.592	69.12
820.77	93.69
820.948	118.27
821.127	69.12
821.305	144.89
821.483	93.69
821.661	140.8
821.839	62.98
822.017	151.04
822.195	87.55
822.373	128.51
822.551	130.56
822.729	124.41
822.907	52.74
823.085	89.6
823.262	60.93
823.44	56.83
823.618	46.59
823.796	103.93
823.974	58.88
824.152	118.27
824.329	97.79
824.507	87.55
824.685	194.05
824.863	30.21
825.04	144.89
825.218	118.27
825.396	126.46
825.574	69.12
825.751	85.5
825.929	112.13
826.107	118.27
826.284	79.36
826.462	36.35
826.639	-12.8
826.817	67.07
826.994	97.79
827.172	50.69
827.349	132.61
827.527	122.37
827.704	110.08
827.882	60.93
828.059	97.79
828.237	73.21
828.414	114.17
828.591	24.06
828.769	85.5
828.946	28.16
829.124	38.4
829.301	144.89
829.478	60.93
829.655	91.65
829.833	81.41
830.01	52.74
830.187	81.41
830.364	77.31
830.542	112.13
830.719	136.7
830.896	69.12
831.073	101.89
831.25	105.98
831.427	60.93
831.604	19.97
831.782	75.26
831.959	103.93
832.136	13.82
832.313	138.75
832.49	99.84
832.667	7.68
832.844	7.68
833.021	101.89
833.198	32.26
833.374	60.93
833.551	54.78
833.728	13.82
833.905	108.03
834.082	36.35
834.259	38.4
834.436	118.27
834.612	17.92
834.789	85.5
834.966	11.78
835.143	136.7
835.319	3.58
835.496	77.31
835.673	69.12
835.85	120.32
836.026	36.35
836.203	58.88
836.38	22.02
836.556	54.78
836.733	36.35
836.909	110.08
837.086	46.59
837.262	46.59
837.439	7.68
837.616	56.83
837.792	11.78
837.968	40.45
838.145	60.93
838.321	62.98
838.498	124.41
838.674	22.02
838.851	44.54
839.027	-8.7
839.203	89.6
839.38	69.12
839.556	32.26
839.732	95.74
839.909	28.16
840.085	146.94
840.261	48.64
840.437	101.89
840.614	54.78
840.79	93.69
840.966	36.35
841.142	77.31
841.318	44.54
841.494	79.36
841.671	122.37
841.847	62.98
842.023	-29.18
842.199	136.7
842.375	81.41
842.551	-18.94
842.727	22.02
842.903	48.64
843.079	-6.66
843.255	22.02
843.431	56.83
843.607	65.02
843.783	-16.9
843.959	93.69
844.134	15.87
844.31	110.08
844.486	24.06
844.662	44.54
844.838	69.12
845.013	19.97
845.189	157.18
845.365	65.02
845.541	52.74
845.716	85.5
845.892	44.54
846.068	15.87
846.244	-14.85
846.419	112.13
846.595	13.82
846.77	48.64
846.946	48.64
847.122	-12.8
847.297	-31.23
847.473	48.64
847.648	13.82
847.824	52.74
847.999	-16.9
848.175	24.06
848.35	-43.52
848.526	112.13
848.701	-6.66
848.876	65.02
849.052	73.21
849.227	112.13
849.403	17.92
849.578	19.97
849.753	-8.7
849.929	24.06
850.104	32.26
850.279	44.54
850.454	15.87
850.63	13.82
850.805	11.78
850.98	101.89
851.155	-0.51
851.33	46.59
851.505	26.11
851.681	69.12
851.856	-20.99
852.031	62.98
852.206	60.93
852.381	-43.52
852.556	108.03
852.731	183.81
852.906	126.46
853.081	87.55
853.256	22.02
853.431	28.16
853.606	28.16
853.781	-14.85
853.956	-10.75
854.131	-35.33
854.305	-45.57
854.48	32.26
854.655	-2.56
854.83	60.93
855.005	-4.61
855.18	-51.71
855.354	-45.57
855.529	-25.09
855.704	46.59
855.879	36.35
856.053	32.26
856.228	24.06
856.403	-29.18
856.577	5.63
856.752	-37.38
856.926	77.31
857.101	11.78
857.276	-29.18
857.45	-45.57
857.625	52.74
857.799	-18.94
857.974	7.68
858.148	-27.14
858.323	71.17
858.497	11.78
858.672	52.74
858.846	15.87
859.02	-33.28
859.195	36.35
859.369	28.16
859.543	52.74
859.718	44.54
859.892	54.78
860.066	-37.38
860.241	5.63
860.415	-27.14
860.589	36.35
860.763	22.02
860.938	-76.29
861.112	67.07
861.286	15.87
861.46	-45.57
861.634	-55.81
861.808	44.54
861.982	-18.94
862.157	5.63
862.331	97.79
862.505	46.59
862.679	-43.52
862.853	32.26
863.027	99.84
863.201	46.59
863.375	-35.33
863.549	36.35
863.722	50.69
863.896	-18.94
864.07	7.68
864.244	15.87
864.418	81.41
864.592	22.02
864.766	22.02
864.939	22.02
865.113	-66.05
865.287	101.89
865.461	-16.9
865.634	19.97
865.808	-53.76
865.982	5.63
866.156	9.73
866.329	-43.52
866.503	62.98
866.676	5.63
866.85	-57.86
867.024	-49.66
867.197	19.97
867.371	38.4
867.544	-29.18
867.718	-41.47
867.891	40.45
868.065	-35.33
868.238	-10.75
868.412	85.5
868.585	-29.18
868.759	-43.52
868.932	-64
869.105	11.78
869.279	-14.85
869.452	-35.33
869.625	-33.28
869.799	-4.61
869.972	-4.61
870.145	-51.71
870.319	87.55
870.492	-12.8
870.665	-2.56
870.838	-37.38
871.011	-20.99
871.185	-45.57
871.358	-20.99
871.531	44.54
871.704	-66.05
871.877	48.64
872.05	-78.33
872.223	-88.57
872.396	32.26
872.569	67.07
872.742	-4.61
872.915	7.68
873.088	11.78
873.261	-33.28
873.434	-0.51
873.607	-53.76
873.78	19.97
873.953	36.35
874.126	13.82
874.299	-2.56
874.471	52.74
874.644	3.58
874.817	7.68
874.99	79.36
875.163	42.5
875.335	-39.42
875.508	65.02
875.681	22.02
875.853	-16.9
876.026	52.74
876.199	15.87
876.371	30.21
876.544	26.11
876.717	77.31
876.889	-18.94
877.062	22.02
877.234	-61.95
877.407	28.16
877.579	7.68
877.752	22.02
877.924	-12.8
878.097	85.5
878.269	-8.7
878.442	56.83
878.614	-20.99
878.786	30.21
878.959	-4.61
879.131	34.3
879.303	-14.85
879.476	110.08
879.648	22.02
879.82	-4.61
879.993	44.54
880.165	-6.66
880.337	-35.33
880.509	-20.99
880.681	-2.56
880.854	-37.38
881.026	38.4
881.198	32.26
881.37	-43.52
881.542	22.02
881.714	32.26
881.886	-49.66
882.058	-47.62
882.23	-10.75
882.402	11.78
882.574	52.74
882.746	22.02
882.918	71.17
883.09	-12.8
883.262	-61.95
883.434	-4.61
883.606	11.78
883.778	-25.09
883.95	60.93
884.122	-37.38
884.293	22.02
884.465	101.89
884.637	30.21
884.809	-27.14
884.98	69.12
885.152	73.21
885.324	38.4
885.496	3.58
885.667	-57.86
885.839	-45.57
886.011	101.89
886.182	-61.95
886.354	52.74
886.525	-94.72
886.697	-117.25
886.869	7.68
887.04	9.73
887.212	46.59
887.383	71.17
887.555	22.02
887.726	-92.67
887.897	-31.23
888.069	-16.9
888.24	13.82
888.412	-61.95
888.583	-27.14
888.754	44.54
888.926	15.87
889.097	-57.86
889.268	-43.52
889.44	3.58
889.611	-53.76
889.782	-45.57
889.953	-4.61
890.125	85.5
890.296	11.78
890.467	32.26
890.638	-16.9
890.809	-31.23
890.98	-8.7
891.151	11.78
891.323	44.54
891.494	11.78
891.665	28.16
891.836	7.68
892.007	26.11
892.178	-25.09
892.349	11.78
892.52	-35.33
892.691	60.93
892.862	83.45
893.032	-82.43
893.203	50.69
893.374	-53.76
893.545	26.11
893.716	-43.52
893.887	-23.04
894.057	15.87
894.228	50.69
894.399	-31.23
894.57	73.21
894.74	-41.47
894.911	52.74
895.082	22.02
895.253	26.11
895.423	-2.56
895.594	54.78
895.764	15.87
895.935	7.68
896.106	-20.99
896.276	-20.99
896.447	-84.48
896.617	-12.8
896.788	-33.28
896.958	11.78
897.129	-37.38
897.299	30.21
897.47	-4.61
897.64	5.63
897.81	52.74
897.981	-20.99
898.151	-53.76
898.322	-49.66
898.492	-16.9
898.662	30.21
898.832	-27.14
899.003	32.26
899.173	77.31
899.343	-35.33
899.513	-10.75
