Data from USB4F104151__253__14-34-16-584.txt Node

Date: Thu Mar 13 14:34:16 EDT 2025
User: louis
Spectrometer: USB4F10415
Trigger mode: 4
Integration Time (sec): 2.500000E-2
Scans to average: 1
Electric dark correction enabled: true
Nonlinearity correction enabled: false
Boxcar width: 0
XAxis mode: Wavelengths
Number of Pixels in Spectrum: 3648
>>>>>Begin Spectral Data<<<<<
178.204	-128.51
178.424	-128.51
178.644	-128.51
178.864	-171.52
179.084	-122.37
179.304	-3.58
179.524	-15.87
179.744	-19.97
179.964	59.9
180.184	16.9
180.404	-5.63
180.624	-7.68
180.844	68.09
181.064	-52.74
181.283	-7.68
181.503	-62.98
181.723	31.23
181.943	8.7
182.163	88.57
182.383	-24.06
182.602	20.99
182.822	41.47
183.042	49.66
183.262	55.81
183.482	8.7
183.701	59.9
183.921	16.9
184.141	-48.64
184.361	-7.68
184.58	12.8
184.8	29.18
185.02	-44.54
185.239	156.16
185.459	66.05
185.679	35.33
185.898	-15.87
186.118	141.82
186.338	37.38
186.557	66.05
186.777	8.7
186.997	-3.58
187.216	25.09
187.436	68.09
187.655	27.14
187.875	49.66
188.095	-40.45
188.314	4.61
188.534	100.86
188.753	8.7
188.973	33.28
189.192	127.49
189.412	104.96
189.631	8.7
189.851	29.18
190.07	25.09
190.29	-28.16
190.509	-7.68
190.729	8.7
190.948	74.24
191.168	190.97
191.387	45.57
191.607	57.86
191.826	82.43
192.045	12.8
192.265	66.05
192.484	35.33
192.704	94.72
192.923	66.05
193.142	96.77
193.362	35.33
193.581	129.53
193.8	59.9
194.02	80.38
194.239	8.7
194.458	18.94
194.678	6.66
194.897	74.24
195.116	59.9
195.335	27.14
195.555	57.86
195.774	-13.82
195.993	43.52
196.212	41.47
196.432	8.7
196.651	41.47
196.87	61.95
197.089	133.63
197.308	8.7
197.528	76.29
197.747	18.94
197.966	57.86
198.185	84.48
198.404	86.53
198.623	49.66
198.842	25.09
199.062	49.66
199.281	8.7
199.5	-52.74
199.719	66.05
199.938	92.67
200.157	98.81
200.376	76.29
200.595	78.33
200.814	55.81
201.033	16.9
201.252	107.01
201.471	61.95
201.69	43.52
201.909	49.66
202.128	117.25
202.347	74.24
202.566	35.33
202.785	-24.06
203.004	-42.5
203.223	104.96
203.442	84.48
203.661	20.99
203.879	35.33
204.098	78.33
204.317	16.9
204.536	131.58
204.755	27.14
204.974	4.61
205.193	10.75
205.411	119.29
205.63	64
205.849	53.76
206.068	98.81
206.287	-3.58
206.505	84.48
206.724	35.33
206.943	37.38
207.162	66.05
207.381	25.09
207.599	-32.26
207.818	-15.87
208.037	-11.78
208.255	-40.45
208.474	25.09
208.693	33.28
208.911	61.95
209.13	49.66
209.349	16.9
209.567	41.47
209.786	84.48
210.005	18.94
210.223	-15.87
210.442	-7.68
210.661	25.09
210.879	37.38
211.098	20.99
211.316	152.06
211.535	59.9
211.753	-11.78
211.972	74.24
212.191	-54.78
212.409	94.72
212.628	92.67
212.846	16.9
213.065	57.86
213.283	131.58
213.502	20.99
213.72	115.2
213.938	18.94
214.157	66.05
214.375	74.24
214.594	33.28
214.812	72.19
215.031	16.9
215.249	86.53
215.467	98.81
215.686	0.51
215.904	33.28
216.122	-5.63
216.341	107.01
216.559	8.7
216.778	49.66
216.996	70.14
217.214	-3.58
217.432	-13.82
217.651	-19.97
217.869	8.7
218.087	57.86
218.306	41.47
218.524	115.2
218.742	23.04
218.96	92.67
219.179	57.86
219.397	16.9
219.615	84.48
219.833	16.9
220.051	-32.26
220.27	80.38
220.488	49.66
220.706	45.57
220.924	61.95
221.142	-19.97
221.36	82.43
221.578	49.66
221.796	16.9
222.015	16.9
222.233	-7.68
222.451	31.23
222.669	-5.63
222.887	6.66
223.105	-5.63
223.323	55.81
223.541	0.51
223.759	49.66
223.977	-7.68
224.195	139.77
224.413	-5.63
224.631	35.33
224.849	8.7
225.067	98.81
225.285	-9.73
225.503	74.24
225.721	2.56
225.939	27.14
226.157	51.71
226.375	117.25
226.592	-65.02
226.81	16.9
227.028	53.76
227.246	117.25
227.464	20.99
227.682	12.8
227.9	107.01
228.117	49.66
228.335	23.04
228.553	111.1
228.771	-9.73
228.989	51.71
229.206	53.76
229.424	49.66
229.642	29.18
229.86	35.33
230.077	80.38
230.295	25.09
230.513	0.51
230.731	20.99
230.948	76.29
231.166	121.34
231.384	-19.97
231.601	123.39
231.819	66.05
232.037	-52.74
232.254	33.28
232.472	-36.35
232.689	20.99
232.907	41.47
233.125	53.76
233.342	33.28
233.56	-46.59
233.777	66.05
233.995	57.86
234.213	131.58
234.43	84.48
234.648	66.05
234.865	-5.63
235.083	66.05
235.3	-73.21
235.518	16.9
235.735	84.48
235.953	-5.63
236.17	59.9
236.388	29.18
236.605	25.09
236.822	51.71
237.04	59.9
237.257	61.95
237.475	18.94
237.692	35.33
237.909	68.09
238.127	74.24
238.344	8.7
238.562	64
238.779	25.09
238.996	43.52
239.214	98.81
239.431	23.04
239.648	4.61
239.865	57.86
240.083	90.62
240.3	107.01
240.517	51.71
240.735	51.71
240.952	51.71
241.169	18.94
241.386	35.33
241.603	16.9
241.821	49.66
242.038	76.29
242.255	94.72
242.472	35.33
242.689	68.09
242.907	57.86
243.124	57.86
243.341	86.53
243.558	41.47
243.775	51.71
243.992	6.66
244.209	10.75
244.426	59.9
244.643	12.8
244.86	29.18
245.078	37.38
245.295	49.66
245.512	10.75
245.729	33.28
245.946	70.14
246.163	49.66
246.38	70.14
246.597	82.43
246.814	45.57
247.031	47.62
247.248	51.71
247.464	43.52
247.681	66.05
247.898	25.09
248.115	150.01
248.332	14.85
248.549	139.77
248.766	57.86
248.983	90.62
249.2	45.57
249.417	59.9
249.633	92.67
249.85	123.39
250.067	31.23
250.284	41.47
250.501	61.95
250.717	37.38
250.934	12.8
251.151	12.8
251.368	2.56
251.585	94.72
251.801	12.8
252.018	-24.06
252.235	107.01
252.451	55.81
252.668	70.14
252.885	57.86
253.102	25.09
253.318	-30.21
253.535	29.18
253.752	61.95
253.968	25.09
254.185	-38.4
254.401	72.19
254.618	4.61
254.835	25.09
255.051	35.33
255.268	25.09
255.484	49.66
255.701	-15.87
255.917	45.57
256.134	33.28
256.351	-1.54
256.567	-50.69
256.784	86.53
257	35.33
257.217	66.05
257.433	90.62
257.65	76.29
257.866	8.7
258.082	-22.02
258.299	23.04
258.515	0.51
258.732	-1.54
258.948	27.14
259.165	98.81
259.381	18.94
259.597	90.62
259.814	94.72
260.03	-44.54
260.246	86.53
260.463	90.62
260.679	111.1
260.895	27.14
261.112	125.44
261.328	57.86
261.544	-26.11
261.761	111.1
261.977	12.8
262.193	8.7
262.409	41.47
262.626	68.09
262.842	33.28
263.058	12.8
263.274	-7.68
263.49	27.14
263.707	57.86
263.923	53.76
264.139	57.86
264.355	16.9
264.571	109.05
264.787	76.29
265.004	109.05
265.22	37.38
265.436	49.66
265.652	98.81
265.868	47.62
266.084	29.18
266.3	57.86
266.516	-22.02
266.732	72.19
266.948	10.75
267.164	127.49
267.38	-32.26
267.596	0.51
267.812	131.58
268.028	84.48
268.244	-44.54
268.46	0.51
268.676	76.29
268.892	31.23
269.108	61.95
269.324	59.9
269.54	-5.63
269.756	16.9
269.972	-7.68
270.188	90.62
270.403	53.76
270.619	12.8
270.835	12.8
271.051	94.72
271.267	74.24
271.483	49.66
271.698	59.9
271.914	147.97
272.13	37.38
272.346	74.24
272.562	18.94
272.777	29.18
272.993	55.81
273.209	-15.87
273.425	102.91
273.64	90.62
273.856	0.51
274.072	43.52
274.287	-7.68
274.503	18.94
274.719	41.47
274.934	0.51
275.15	-48.64
275.366	115.2
275.581	18.94
275.797	64
276.012	74.24
276.228	31.23
276.444	-62.98
276.659	98.81
276.875	35.33
277.09	45.57
277.306	57.86
277.521	59.9
277.737	90.62
277.952	45.57
278.168	-28.16
278.383	29.18
278.599	53.76
278.814	61.95
279.03	-11.78
279.245	119.29
279.461	51.71
279.676	86.53
279.892	-26.11
280.107	-7.68
280.322	51.71
280.538	35.33
280.753	8.7
280.969	-7.68
281.184	57.86
281.399	23.04
281.615	88.57
281.83	57.86
282.045	0.51
282.26	0.51
282.476	0.51
282.691	88.57
282.906	98.81
283.122	27.14
283.337	-3.58
283.552	98.81
283.767	16.9
283.983	57.86
284.198	4.61
284.413	107.01
284.628	18.94
284.843	-3.58
285.058	59.9
285.274	39.42
285.489	2.56
285.704	-5.63
285.919	41.47
286.134	113.15
286.349	25.09
286.564	49.66
286.779	70.14
286.995	0.51
287.21	-36.35
287.425	92.67
287.64	33.28
287.855	-13.82
288.07	-22.02
288.285	41.47
288.5	90.62
288.715	98.81
288.93	-7.68
289.145	33.28
289.36	37.38
289.575	12.8
289.79	57.86
290.004	84.48
290.219	107.01
290.434	33.28
290.649	57.86
290.864	-7.68
291.079	57.86
291.294	61.95
291.509	76.29
291.724	20.99
291.938	20.99
292.153	16.9
292.368	8.7
292.583	115.2
292.798	23.04
293.012	88.57
293.227	66.05
293.442	12.8
293.657	61.95
293.871	131.58
294.086	92.67
294.301	8.7
294.516	57.86
294.73	20.99
294.945	23.04
295.16	2.56
295.374	82.43
295.589	107.01
295.804	98.81
296.018	14.85
296.233	78.33
296.447	86.53
296.662	16.9
296.877	35.33
297.091	35.33
297.306	123.39
297.52	41.47
297.735	49.66
297.949	43.52
298.164	109.05
298.378	94.72
298.593	20.99
298.807	-62.98
299.022	51.71
299.236	84.48
299.451	98.81
299.665	23.04
299.88	53.76
300.094	33.28
300.309	43.52
300.523	119.29
300.737	29.18
300.952	-26.11
301.166	57.86
301.381	0.51
301.595	31.23
301.809	41.47
302.024	92.67
302.238	-15.87
302.452	96.77
302.667	-1.54
302.881	82.43
303.095	49.66
303.309	47.62
303.524	29.18
303.738	20.99
303.952	-19.97
304.166	68.09
304.381	-46.59
304.595	49.66
304.809	10.75
305.023	78.33
305.237	57.86
305.452	-3.58
305.666	53.76
305.88	45.57
306.094	107.01
306.308	111.1
306.522	68.09
306.736	4.61
306.95	25.09
307.164	43.52
307.379	-1.54
307.593	117.25
307.807	20.99
308.021	80.38
308.235	43.52
308.449	-19.97
308.663	-22.02
308.877	107.01
309.091	74.24
309.305	102.91
309.519	-75.26
309.733	68.09
309.947	16.9
310.161	27.14
310.374	41.47
310.588	10.75
310.802	49.66
311.016	29.18
311.23	-24.06
311.444	2.56
311.658	0.51
311.872	90.62
312.085	96.77
312.299	80.38
312.513	86.53
312.727	90.62
312.941	-13.82
313.154	12.8
313.368	82.43
313.582	66.05
313.796	78.33
314.009	43.52
314.223	8.7
314.437	-32.26
314.651	66.05
314.864	27.14
315.078	33.28
315.292	12.8
315.505	51.71
315.719	68.09
315.933	16.9
316.146	74.24
316.36	0.51
316.573	117.25
316.787	113.15
317.001	33.28
317.214	12.8
317.428	82.43
317.641	23.04
317.855	68.09
318.068	-7.68
318.282	111.1
318.495	35.33
318.709	-15.87
318.922	47.62
319.136	115.2
319.349	121.34
319.563	-17.92
319.776	90.62
319.99	-5.63
320.203	10.75
320.417	6.66
320.63	41.47
320.843	127.49
321.057	125.44
321.27	25.09
321.483	43.52
321.697	16.9
321.91	86.53
322.124	55.81
322.337	45.57
322.55	78.33
322.763	86.53
322.977	100.86
323.19	53.76
323.403	4.61
323.617	4.61
323.83	68.09
324.043	98.81
324.256	82.43
324.469	-24.06
324.683	123.39
324.896	25.09
325.109	18.94
325.322	10.75
325.535	2.56
325.748	139.77
325.962	-7.68
326.175	41.47
326.388	94.72
326.601	82.43
326.814	64
327.027	76.29
327.24	115.2
327.453	-52.74
327.666	84.48
327.879	72.19
328.092	16.9
328.305	59.9
328.518	51.71
328.731	10.75
328.944	33.28
329.157	-7.68
329.37	0.51
329.583	94.72
329.796	156.16
330.009	82.43
330.222	127.49
330.435	102.91
330.648	41.47
330.861	-3.58
331.073	84.48
331.286	98.81
331.499	111.1
331.712	-32.26
331.925	4.61
332.138	47.62
332.35	94.72
332.563	68.09
332.776	41.47
332.989	6.66
333.202	12.8
333.414	55.81
333.627	82.43
333.84	74.24
334.053	82.43
334.265	43.52
334.478	33.28
334.691	43.52
334.903	90.62
335.116	92.67
335.329	-3.58
335.541	59.9
335.754	100.86
335.966	29.18
336.179	16.9
336.392	82.43
336.604	109.05
336.817	49.66
337.029	41.47
337.242	37.38
337.454	51.71
337.667	25.09
337.88	125.44
338.092	16.9
338.305	123.39
338.517	10.75
338.729	86.53
338.942	33.28
339.154	-46.59
339.367	2.56
339.579	107.01
339.792	70.14
340.004	27.14
340.217	20.99
340.429	57.86
340.641	68.09
340.854	10.75
341.066	-11.78
341.278	74.24
341.491	86.53
341.703	125.44
341.915	37.38
342.128	78.33
342.34	61.95
342.552	-32.26
342.764	57.86
342.977	98.81
343.189	20.99
343.401	53.76
343.613	-13.82
343.826	49.66
344.038	51.71
344.25	51.71
344.462	41.47
344.674	-28.16
344.886	29.18
345.099	61.95
345.311	33.28
345.523	33.28
345.735	33.28
345.947	74.24
346.159	43.52
346.371	131.58
346.583	41.47
346.795	100.86
347.007	27.14
347.219	49.66
347.431	18.94
347.643	178.69
347.855	37.38
348.067	92.67
348.279	-38.4
348.491	33.28
348.703	84.48
348.915	29.18
349.127	41.47
349.339	92.67
349.551	-24.06
349.763	127.49
349.975	20.99
350.187	98.81
350.399	133.63
350.61	98.81
350.822	37.38
351.034	98.81
351.246	88.57
351.458	57.86
351.669	31.23
351.881	115.2
352.093	78.33
352.305	82.43
352.517	10.75
352.728	68.09
352.94	57.86
353.152	80.38
353.363	49.66
353.575	8.7
353.787	129.53
353.999	64
354.21	92.67
354.422	78.33
354.633	70.14
354.845	41.47
355.057	12.8
355.268	104.96
355.48	33.28
355.692	27.14
355.903	27.14
356.115	18.94
356.326	45.57
356.538	119.29
356.749	57.86
356.961	160.25
357.172	55.81
357.384	8.7
357.595	68.09
357.807	90.62
358.018	-24.06
358.23	102.91
358.441	111.1
358.653	64
358.864	66.05
359.075	-5.63
359.287	27.14
359.498	76.29
359.709	29.18
359.921	18.94
360.132	20.99
360.344	41.47
360.555	70.14
360.766	43.52
360.977	-7.68
361.189	-7.68
361.4	141.82
361.611	98.81
361.823	41.47
362.034	61.95
362.245	-30.21
362.456	115.2
362.667	107.01
362.879	49.66
363.09	12.8
363.301	111.1
363.512	86.53
363.723	55.81
363.935	12.8
364.146	78.33
364.357	35.33
364.568	8.7
364.779	-54.78
364.99	125.44
365.201	25.09
365.412	147.97
365.623	-24.06
365.834	33.28
366.045	90.62
366.256	164.35
366.467	78.33
366.678	37.38
366.889	-32.26
367.1	57.86
367.311	4.61
367.522	-13.82
367.733	98.81
367.944	90.62
368.155	12.8
368.366	141.82
368.577	131.58
368.788	55.81
368.999	57.86
369.209	82.43
369.42	88.57
369.631	129.53
369.842	45.57
370.053	82.43
370.264	27.14
370.474	-7.68
370.685	8.7
370.896	172.54
371.107	23.04
371.317	59.9
371.528	35.33
371.739	92.67
371.95	82.43
372.16	107.01
372.371	55.81
372.582	6.66
372.792	25.09
373.003	86.53
373.214	90.62
373.424	41.47
373.635	55.81
373.846	72.19
374.056	8.7
374.267	70.14
374.477	23.04
374.688	90.62
374.898	111.1
375.109	10.75
375.319	16.9
375.53	131.58
375.74	35.33
375.951	49.66
376.161	121.34
376.372	102.91
376.582	16.9
376.793	94.72
377.003	51.71
377.214	78.33
377.424	18.94
377.635	45.57
377.845	78.33
378.055	115.2
378.266	57.86
378.476	27.14
378.686	25.09
378.897	115.2
379.107	82.43
379.317	29.18
379.528	61.95
379.738	86.53
379.948	-5.63
380.158	35.33
380.369	70.14
380.579	-26.11
380.789	49.66
380.999	74.24
381.21	111.1
381.42	174.59
381.63	33.28
381.84	100.86
382.05	117.25
382.261	131.58
382.471	111.1
382.681	-1.54
382.891	82.43
383.101	76.29
383.311	0.51
383.521	-13.82
383.731	141.82
383.941	123.39
384.151	123.39
384.361	12.8
384.571	102.91
384.781	82.43
384.991	88.57
385.201	70.14
385.411	66.05
385.621	109.05
385.831	98.81
386.041	107.01
386.251	96.77
386.461	135.68
386.671	57.86
386.881	12.8
387.091	53.76
387.301	115.2
387.511	37.38
387.72	102.91
387.93	68.09
388.14	16.9
388.35	66.05
388.56	102.91
388.769	115.2
388.979	125.44
389.189	86.53
389.399	10.75
389.609	39.42
389.818	98.81
390.028	131.58
390.238	82.43
390.447	47.62
390.657	107.01
390.867	86.53
391.076	49.66
391.286	68.09
391.496	84.48
391.705	37.38
391.915	115.2
392.125	129.53
392.334	37.38
392.544	49.66
392.753	33.28
392.963	16.9
393.172	115.2
393.382	109.05
393.591	184.83
393.801	92.67
394.01	178.69
394.22	98.81
394.429	127.49
394.639	92.67
394.848	109.05
395.058	23.04
395.267	86.53
395.477	139.77
395.686	51.71
395.895	229.88
396.105	254.46
396.314	109.05
396.524	109.05
396.733	139.77
396.942	141.82
397.152	139.77
397.361	193.02
397.57	84.48
397.78	107.01
397.989	25.09
398.198	172.54
398.407	45.57
398.617	133.63
398.826	94.72
399.035	117.25
399.244	139.77
399.453	147.97
399.663	133.63
399.872	115.2
400.081	57.86
400.29	115.2
400.499	102.91
400.708	125.44
400.917	68.09
401.127	117.25
401.336	96.77
401.545	188.93
401.754	147.97
401.963	152.06
402.172	90.62
402.381	115.2
402.59	119.29
402.799	78.33
403.008	172.54
403.217	172.54
403.426	168.45
403.635	76.29
403.844	166.4
404.053	147.97
404.262	147.97
404.471	168.45
404.68	133.63
404.888	221.69
405.097	133.63
405.306	182.78
405.515	139.77
405.724	201.21
405.933	217.6
406.142	131.58
406.35	164.35
406.559	317.95
406.768	172.54
406.977	221.69
407.185	221.69
407.394	299.52
407.603	254.46
407.812	215.55
408.02	281.08
408.229	295.42
408.438	229.88
408.646	236.03
408.855	285.18
409.064	270.84
409.272	320
409.481	365.05
409.69	352.76
409.898	336.38
410.107	334.33
410.315	401.91
410.524	406.01
410.733	344.57
410.941	342.52
411.15	397.82
411.358	442.87
411.567	446.97
411.775	389.63
411.984	469.5
412.192	555.51
412.401	528.89
412.609	561.66
412.818	582.14
413.026	569.85
413.234	586.23
413.443	543.22
413.651	633.33
413.86	625.14
414.068	721.4
414.276	692.73
414.485	655.86
414.693	727.54
414.901	764.4
415.11	862.71
415.318	811.51
415.526	887.28
415.734	877.04
415.943	784.88
416.151	909.81
416.359	868.85
416.567	981.49
416.776	1032.69
416.984	1133.04
417.192	1192.43
417.4	1110.51
417.608	1053.17
417.817	1151.47
418.025	1288.68
418.233	1352.17
418.441	1247.72
418.649	1329.64
418.857	1483.24
419.065	1577.45
419.273	1391.08
419.481	1565.16
419.689	1661.41
419.897	1655.27
420.105	1681.89
420.313	1831.4
420.521	1876.45
420.729	1925.6
420.937	1868.26
421.145	1917.41
421.353	2021.86
421.561	2345.44
421.769	2253.28
421.977	2236.89
422.185	2413.02
422.393	2439.64
422.601	2583
422.809	2613.72
423.017	2533.85
423.224	2703.83
423.432	2890.2
423.64	2843.09
423.848	3023.31
424.056	3045.84
424.263	3359.18
424.471	3228.11
424.679	3375.56
424.887	3326.41
425.094	3633.61
425.302	3729.86
425.51	3680.71
425.718	3860.93
425.925	3922.37
426.133	4049.35
426.341	4217.28
426.548	4403.64
426.756	4413.88
426.964	4530.62
427.171	4721.08
427.379	5067.19
427.586	4966.84
427.794	5024.18
428.001	5308.85
428.209	5689.77
428.417	5505.45
428.624	5915.05
428.832	5880.23
429.039	5833.13
429.247	5867.94
429.454	6453.66
429.662	6773.14
429.869	6234.53
430.076	6834.58
430.284	6656.41
430.491	7131.54
430.699	7365.01
430.906	7203.22
431.114	7238.03
431.321	7768.46
431.528	7653.77
431.736	8147.33
431.943	8696.19
432.15	8233.35
432.358	8380.8
432.565	8831.35
432.772	8886.65
432.979	9429.36
433.187	9443.7
433.394	9515.37
433.601	10158.44
433.808	10232.16
434.016	10226.02
434.223	10633.57
434.43	11133.27
434.637	11104.6
434.844	11512.14
435.052	11886.92
435.259	11716.94
435.466	11757.9
435.673	11725.13
435.88	12603.71
436.087	13263.16
436.294	13193.53
436.501	12908.86
436.708	13087.03
436.915	13617.46
437.122	13869.36
437.329	14094.63
437.537	14496.03
437.743	14659.87
437.95	14862.62
438.157	15675.66
438.364	15948.04
438.571	15804.69
438.778	16009.48
438.985	17303.8
439.192	16759.04
439.399	17275.13
439.606	16808.19
439.813	17979.63
440.02	18919.65
440.227	18596.07
440.433	18313.45
440.64	18901.22
440.847	18811.1
441.054	19288.28
441.261	20785.35
441.467	20291.79
441.674	20906.18
441.881	21614.77
442.088	21526.71
442.294	21031.1
442.501	21711.03
442.708	22030.51
442.914	23249.05
443.121	24000.66
443.328	23324.83
443.534	24821.89
443.741	24318.09
443.948	23939.22
444.154	25378.94
444.361	25475.2
444.568	25663.61
444.774	25546.87
444.981	26110.07
445.187	26628.2
445.394	27715.67
445.6	27641.95
445.807	30013.49
446.013	28479.57
446.22	29411.39
446.426	30787.63
446.633	30677.04
446.839	31688.73
447.046	30488.62
447.252	32376.85
447.459	31979.54
447.665	32305.17
447.871	33232.9
448.078	34897.9
448.284	33222.66
448.491	34494.45
448.697	35102.7
448.903	36214.74
449.11	36034.52
449.316	35536.87
449.522	36087.77
449.728	36853.71
449.935	37429.19
450.141	37425.09
450.347	38385.59
450.553	37175.24
450.76	37695.42
450.966	38426.55
451.172	38305.72
451.378	39462.82
451.584	38383.54
451.791	39765.92
451.997	39323.56
452.203	40327.06
452.409	40030.11
452.615	39804.83
452.821	38254.52
453.027	38094.78
453.233	39896.99
453.44	38250.42
453.646	38995.88
453.852	38778.8
454.058	39567.27
454.264	38596.53
454.47	39184.3
454.676	38361.01
454.882	39462.82
455.088	36095.96
455.294	36730.83
455.5	37334.98
455.705	37519.3
455.911	36216.79
456.117	35737.57
456.323	35129.32
456.529	33425.41
456.735	34789.36
456.941	33769.47
457.147	33306.63
457.352	32233.49
457.558	31938.58
457.764	32243.73
457.97	31307.81
458.176	30795.82
458.381	30375.98
458.587	29284.42
458.793	28960.84
458.999	27543.64
459.204	29726.78
459.41	28696.65
459.616	26806.37
459.821	26867.81
460.027	26927.21
460.233	26146.93
460.438	25172.1
460.644	25061.51
460.85	23996.56
461.055	23470.23
461.261	23558.3
461.466	21754.04
461.672	21219.52
461.878	22671.53
462.083	21031.1
462.289	20701.38
462.494	20269.26
462.7	19425.5
462.905	19048.67
463.111	19751.12
463.316	19933.39
463.522	19300.57
463.727	19474.65
463.932	19196.12
464.138	18870.5
464.343	19200.22
464.549	18399.46
464.754	18847.97
464.959	18815.2
465.165	18972.89
465.37	17879.28
465.575	17373.43
465.781	18129.13
465.986	18026.73
466.191	17342.71
466.397	17250.55
466.602	16140.55
466.807	17025.28
467.012	17000.7
467.218	16840.96
467.423	16470.28
467.628	16703.75
467.833	17383.67
468.038	16744.7
468.244	16195.85
468.449	17025.28
468.654	16331.01
468.859	16044.3
469.064	16019.72
469.269	15446.29
469.474	15339.8
469.679	15839.5
469.885	15509.78
470.09	15675.66
470.295	15573.27
470.5	14983.45
470.705	15083.8
470.91	14897.44
471.115	14879
471.32	14778.65
471.525	14844.19
471.73	14627.1
471.935	14340.39
472.139	13865.26
472.344	14115.11
472.549	13859.12
472.754	13771.05
472.959	13517.11
473.164	13238.58
473.369	13136.18
473.574	13500.72
473.778	13283.64
473.983	13154.62
474.188	13183.29
474.393	12591.42
474.598	12671.29
474.802	12329.28
475.007	12566.85
475.212	12593.47
475.417	12083.53
475.621	11962.7
475.826	12132.68
476.031	11858.25
476.235	11751.76
476.44	11757.9
476.645	11643.21
476.849	11626.83
477.054	11213.14
477.259	11235.67
477.463	11229.52
477.668	10979.67
477.872	11075.93
478.077	10705.24
478.282	10652
478.486	10596.7
478.691	10654.05
478.895	10402.15
479.1	10379.62
479.304	10234.21
479.509	10195.3
479.713	10281.32
479.918	10121.57
480.122	9955.69
480.326	9904.49
480.531	10205.54
480.735	9769.32
480.94	9976.17
481.144	10162.53
481.348	9554.29
481.553	9607.53
481.757	9601.39
481.961	9449.84
482.166	9857.39
482.37	9601.39
482.574	9314.67
482.778	9562.48
482.983	9841
483.187	9732.46
483.391	9689.45
483.595	9511.28
483.8	9343.35
484.004	9740.65
484.208	9439.6
484.412	9691.5
484.616	9535.85
484.821	9552.24
485.025	9478.51
485.229	9443.7
485.433	9548.14
485.637	9410.93
485.841	9404.78
486.045	9435.5
486.249	9277.81
486.453	9388.4
486.657	9429.36
486.861	9533.81
487.065	9367.92
487.269	9353.59
487.473	9105.78
487.677	9496.94
487.881	9695.6
488.085	9396.59
488.289	9433.46
488.493	9257.33
488.697	9265.52
488.901	9265.52
489.105	9513.33
489.309	9566.57
489.512	9478.51
489.716	9619.82
489.92	9474.42
490.124	9435.5
490.328	9453.94
490.531	9417.07
490.735	9503.09
490.939	9638.25
491.143	9621.87
491.346	9566.57
491.55	9773.42
491.754	9628.01
491.958	9695.6
492.161	9636.2
492.365	9771.37
492.569	9705.84
492.772	9767.27
492.976	9765.23
493.18	9875.82
493.383	9851.24
493.587	9959.78
493.79	10189.16
493.994	9906.54
494.197	9980.26
494.401	10205.54
494.605	10166.63
494.808	10221.92
495.012	10396
495.215	10158.44
495.419	10531.17
495.622	10393.95
495.825	10656.09
496.029	10496.35
496.232	10742.11
496.436	10674.53
496.639	10801.5
496.843	10781.02
497.046	10772.83
497.249	11239.76
497.453	11411.79
497.656	11307.35
497.859	11268.44
498.063	11434.32
498.266	11592.02
498.469	11637.07
498.673	11727.18
498.876	11682.13
499.079	11772.24
499.282	11995.46
499.485	12452.16
499.689	12224.84
499.892	12435.78
500.095	12351.81
500.298	12599.62
500.501	12509.51
500.705	12790.08
500.908	13115.7
501.111	13054.26
501.314	13162.81
501.517	13322.55
501.72	13467.95
501.923	13441.33
502.126	13861.16
502.329	14084.39
502.532	14164.26
502.735	14090.54
502.938	14203.18
503.141	14434.6
503.344	14782.75
503.547	14848.29
503.75	14770.46
503.953	14999.84
504.156	15241.5
504.359	15288.6
504.562	15304.98
504.765	15614.23
504.968	15780.11
505.17	15788.3
505.373	16175.37
505.576	16392.45
505.779	16466.18
505.982	16632.07
506.185	17012.99
506.387	17039.61
506.59	17068.28
506.793	17398.01
506.996	17156.35
507.198	17813.74
507.401	17611
507.604	17926.38
507.807	18376.94
508.009	18141.42
508.212	18493.67
508.415	18684.13
508.617	18966.75
508.82	19200.22
509.022	18747.62
509.225	19364.06
509.428	19630.29
509.63	19753.17
509.833	19661.01
510.035	20025.55
510.238	20195.53
510.44	20447.43
510.643	20685
510.845	20793.54
511.048	20932.8
511.25	21084.35
511.453	21430.46
511.655	22018.22
511.858	21692.6
512.06	22065.33
512.262	22241.45
512.465	22169.77
512.667	22454.44
512.87	22812.84
513.072	22788.26
513.274	23558.3
513.477	23578.78
513.679	23756.95
513.881	23697.56
514.084	24008.85
514.286	24180.88
514.488	24672.39
514.69	24957.06
514.893	25106.56
515.095	25182.34
515.297	25679.99
515.499	25325.69
515.701	25671.8
515.904	26361.97
516.106	26177.65
516.308	26490.99
516.51	26269.81
516.712	26634.35
516.914	27123.81
517.116	27447.39
517.318	27138.15
517.52	27463.77
517.722	27836.5
517.925	27807.83
518.127	28258.38
518.329	28448.85
518.531	28442.7
518.733	29085.76
518.935	29204.55
519.136	28942.41
519.338	29503.55
519.54	29661.24
519.742	29933.62
519.944	29851.7
520.146	30357.55
520.348	30560.3
520.55	30857.26
520.752	30634.03
520.954	30806.06
521.155	30605.36
521.357	31203.36
521.559	31475.74
521.761	31752.22
521.963	31780.89
522.164	31678.49
522.366	31977.5
522.568	32129.05
522.77	32645.13
522.971	32886.79
523.173	32120.85
523.375	32823.31
523.576	32602.13
523.778	32899.08
523.98	33110.02
524.181	33208.33
524.383	33619.97
524.584	33492.99
524.786	33681.41
524.988	33462.27
525.189	33976.31
525.391	34002.94
525.592	33916.92
525.794	34125.82
525.995	33765.37
526.197	34314.23
526.398	34269.17
526.6	34662.38
526.801	34207.73
527.003	34500.59
527.204	34281.46
527.406	34910.19
527.607	34754.54
527.808	34985.96
528.01	34111.48
528.211	34496.5
528.412	34834.41
528.614	34666.48
528.815	34840.56
529.016	35250.15
529.218	34068.47
529.419	34459.63
529.62	34689.01
529.822	34709.49
530.023	34869.23
530.224	34770.93
530.425	34650.1
530.626	34340.85
530.828	34342.9
531.029	35145.7
531.23	34717.68
531.431	34666.48
531.632	34770.93
531.833	34793.45
532.035	34813.93
532.236	34420.72
532.437	34779.12
532.638	34332.66
532.839	34940.91
533.04	34525.17
533.241	34394.1
533.442	34815.98
533.643	34824.17
533.844	34117.62
534.045	34590.7
534.246	34387.96
534.447	34199.54
534.648	33761.28
534.849	34091
535.05	34109.43
535.251	33941.5
535.451	33650.69
535.652	33951.74
535.853	34144.25
536.054	34283.51
536.255	33638.4
536.456	33294.34
536.657	34043.9
536.857	33687.55
537.058	33359.87
537.259	33837.05
537.46	33581.06
537.66	33384.45
537.861	33462.27
538.062	33226.76
538.263	33503.23
538.463	33335.3
538.664	33478.66
538.865	33468.42
539.065	33753.08
539.266	32921.61
539.466	33667.07
539.667	32985.1
539.868	33443.84
540.068	33333.25
540.269	32944.14
540.469	33234.95
540.67	33134.6
540.87	32913.42
541.071	33138.69
541.271	32882.7
541.472	32899.08
541.672	32745.48
541.873	32757.77
542.073	32200.72
542.274	33077.26
542.474	32626.7
542.675	32436.24
542.875	33015.82
543.075	32813.07
543.276	32088.09
543.476	32671.76
543.676	32520.21
543.877	32763.92
544.077	32641.04
544.277	32921.61
544.478	32935.95
544.678	32866.31
544.878	32462.86
545.078	32794.64
545.279	32352.27
545.479	32299.03
545.679	32647.18
545.879	32866.31
546.079	32202.77
546.28	32477.2
546.48	32237.59
546.68	32630.8
546.88	32829.45
547.08	32589.84
547.28	32395.28
547.48	32362.51
547.68	32542.74
547.88	32358.42
548.081	32604.17
548.281	32170.01
548.481	32352.27
548.681	32755.72
548.881	32835.59
549.081	32507.92
549.28	32272.4
549.48	32788.49
549.68	32184.34
549.88	32634.89
550.08	32356.37
550.28	32587.79
550.48	32399.38
550.68	32456.72
550.88	32432.15
551.08	32555.02
551.279	32686.09
551.479	32606.22
551.679	32958.47
551.879	32907.27
552.079	33257.48
552.278	32577.55
552.478	32630.8
552.678	32841.74
552.878	33030.15
553.077	32624.65
553.277	32477.2
553.477	33402.88
553.676	32577.55
553.876	33077.26
554.076	33220.61
554.275	32856.07
554.475	32651.28
554.674	32743.44
554.874	33001.48
555.074	33267.72
555.273	33128.45
555.473	33046.54
555.672	32727.05
555.872	33304.58
556.071	33425.41
556.271	33237
556.47	33292.29
556.67	32755.72
556.869	32882.7
557.068	33013.77
557.268	33003.53
557.467	33265.67
557.667	33206.28
557.866	33349.64
558.065	33271.81
558.265	32854.03
558.464	33073.16
558.663	33671.17
558.863	33210.37
559.062	33460.23
559.261	33271.81
559.461	33638.4
559.66	33126.41
559.859	33288.2
560.058	32974.86
560.258	32757.77
560.457	33189.89
560.656	33517.57
560.855	33243.14
561.054	33191.94
561.253	33011.72
561.453	33067.02
561.652	33202.18
561.851	33243.14
562.05	32870.41
562.249	33148.93
562.448	33378.31
562.647	33069.06
562.846	33032.2
563.045	32976.9
563.244	32829.45
563.443	33351.68
563.642	32503.82
563.841	32784.4
564.04	32788.49
564.239	33017.86
564.438	32682
564.637	32997.38
564.836	33075.21
565.035	32632.85
565.234	32737.29
565.432	32716.81
565.631	32884.75
565.83	32659.47
566.029	32387.09
566.228	32296.98
566.427	32411.67
566.625	32524.3
566.824	32270.36
567.023	32272.4
567.222	31721.5
567.42	32368.66
567.619	32352.27
567.818	32376.85
568.016	31991.83
568.215	32477.2
568.414	32028.7
568.612	32253.97
568.811	31825.95
569.01	31973.4
569.208	31645.73
569.407	31911.96
569.605	31565.85
569.804	31627.29
570.002	31438.88
570.201	31610.91
570.4	30957.61
570.598	31399.97
570.797	31186.98
570.995	31272.99
571.193	30822.44
571.392	31215.65
571.59	30861.35
571.789	30976.04
571.987	30963.75
572.186	30949.42
572.384	30687.28
572.582	30844.97
572.781	30662.7
572.979	30099.51
573.177	30402.61
573.376	30328.88
573.574	30318.64
573.772	30373.94
573.971	30062.65
574.169	30097.46
574.367	29976.63
574.565	30238.77
574.763	29802.55
574.962	29710.39
575.16	29640.76
575.358	29499.45
575.556	29364.29
575.754	29558.84
575.952	28979.27
576.151	29392.96
576.349	28917.83
576.547	29036.61
576.745	29206.59
576.943	29149.25
577.141	28844.1
577.339	28809.29
577.537	28676.17
577.735	28604.49
577.933	28211.28
578.131	28508.24
578.329	28430.41
578.527	28217.43
578.725	28266.58
578.923	28270.67
579.121	28223.57
579.319	28022.87
579.516	28033.11
579.714	28029.01
579.912	27693.15
580.11	27510.88
580.308	27627.61
580.506	27287.65
580.704	27246.69
580.901	27525.21
581.099	27820.12
581.297	27226.21
581.495	27009.12
581.692	27377.76
581.89	27250.78
582.088	27203.68
582.285	26794.09
582.483	27078.75
582.681	26648.68
582.878	27027.56
583.076	26261.62
583.274	26789.99
583.471	26388.59
583.669	26214.51
583.866	26097.78
584.064	26488.94
584.262	26001.52
584.459	26286.19
584.657	26022
584.854	26128.5
585.052	25974.9
585.249	25972.85
585.447	26073.2
585.644	25651.32
585.841	25669.75
586.039	25866.36
586.236	25532.54
586.434	25550.97
586.631	25419.9
586.828	25618.55
587.026	25458.81
587.223	25290.88
587.42	25165.95
587.618	25481.34
587.815	25274.49
588.012	25155.71
588.21	25241.73
588.407	25227.39
588.604	25086.08
588.801	24965.25
588.999	25385.08
589.196	24526.99
589.393	24600.71
589.59	24838.28
589.787	24459.4
589.984	24678.54
590.182	24508.55
590.379	24737.93
590.576	24387.72
590.773	24498.31
590.97	24123.54
591.167	24531.08
591.364	24189.07
591.561	24531.08
591.758	23863.44
591.955	24400.01
592.152	24322.19
592.349	23847.06
592.546	24094.86
592.743	24004.75
592.94	23926.93
593.137	23894.16
593.334	24160.4
593.531	23707.8
593.727	24051.86
593.924	23783.57
594.121	23830.68
594.318	23840.92
594.515	23357.6
594.712	23865.49
594.908	23603.35
595.105	23724.18
595.302	23578.78
595.499	23521.43
595.696	23759
595.892	23369.88
596.089	23634.07
596.286	23492.76
596.482	23556.25
596.679	23462.04
596.876	23513.24
597.072	23277.72
597.269	23439.51
597.466	22976.67
597.662	23335.07
597.859	23447.71
598.055	23318.68
598.252	23290.01
598.448	23296.16
598.645	23380.12
598.841	23292.06
599.038	23754.9
599.234	23779.48
599.431	23390.36
599.627	23400.6
599.824	23648.41
600.02	23437.47
600.217	23546.01
600.413	23185.57
600.609	23247.01
600.806	23089.31
601.002	23535.77
601.198	23376.03
601.395	23353.5
601.591	23261.34
601.787	23613.59
601.984	23138.46
602.18	23341.21
602.376	23232.67
602.572	23312.54
602.769	23255.2
602.965	23029.92
603.161	23353.5
603.357	23584.92
603.553	23609.5
603.75	23767.19
603.946	23101.6
604.142	23804.05
604.338	23193.76
604.534	23634.07
604.73	23578.78
604.926	23359.64
605.122	23476.38
605.318	23490.71
605.514	23640.22
605.71	23756.95
605.906	23799.96
606.102	23279.77
606.298	23759
606.494	23490.71
606.69	23933.07
606.886	23857.3
607.082	23578.78
607.278	23906.45
607.474	23582.87
607.67	24004.75
607.866	23568.54
608.062	24270.99
608.257	23879.83
608.453	24043.67
608.649	24035.47
608.845	23763.09
609.041	24068.24
609.236	24014.99
609.432	24043.67
609.628	24225.93
609.824	24285.33
610.019	24236.17
610.215	24332.43
610.411	24197.26
610.606	24266.89
610.802	24494.22
610.998	24332.43
611.193	24645.77
611.389	24127.63
611.584	24318.09
611.78	24215.69
611.976	24160.4
612.171	24572.04
612.367	24203.41
612.562	24600.71
612.758	23994.51
612.953	24543.37
613.149	25106.56
613.344	24352.91
613.539	24883.33
613.735	24492.17
613.93	24533.13
614.126	24592.52
614.321	24760.45
614.517	24778.89
614.712	24713.35
614.907	24563.85
615.103	24598.66
615.298	24494.22
615.493	24856.71
615.688	24834.18
615.884	24979.59
616.079	24483.98
616.274	24838.28
616.47	24475.79
616.665	24803.46
616.86	24549.51
617.055	24625.29
617.25	24529.03
617.445	24588.42
617.641	24250.51
617.836	25026.69
618.031	24176.78
618.226	24643.72
618.421	24510.6
618.616	24838.28
618.811	24021.14
619.006	24379.53
619.201	24328.33
619.396	24205.45
619.591	24113.3
619.786	24201.36
619.981	23746.71
620.176	24301.71
620.371	23632.02
620.566	23783.57
620.761	23888.02
620.956	23931.03
621.151	23259.29
621.346	23845.01
621.541	23572.63
621.735	23611.54
621.93	23091.36
622.125	23298.2
622.32	22991.01
622.515	23077.02
622.709	22925.47
622.904	22849.7
623.099	23079.07
623.294	22980.77
623.488	22433.96
623.683	22651.05
623.878	22280.36
624.072	22474.92
624.267	22253.74
624.462	22354.09
624.656	21911.73
624.851	22161.58
625.046	21954.74
625.24	21536.95
625.435	21692.6
625.629	21846.19
625.824	21547.19
626.018	21522.62
626.213	21080.25
626.407	21213.37
626.602	21029.06
626.796	21373.11
626.991	21067.97
627.185	20771.01
627.38	20603.08
627.574	20670.66
627.768	20443.34
627.963	20580.55
628.157	20209.87
628.352	20349.13
628.546	20078.8
628.74	20383.94
628.935	20070.61
629.129	20279.5
629.323	19667.16
629.517	19767.51
629.712	19837.14
629.906	19423.45
630.1	19407.06
630.294	19306.71
630.489	19118.3
630.683	19443.93
630.877	18841.82
631.071	19009.76
631.265	19235.03
631.459	18571.49
631.653	18637.03
631.848	18704.61
632.042	18354.41
632.236	18710.75
632.43	18446.57
632.624	18489.57
632.818	18542.82
633.012	18178.28
633.206	17944.81
633.4	17907.95
633.594	17844.46
633.788	17840.37
633.982	18063.6
634.176	17600.76
634.369	17422.58
634.563	17207.55
634.757	17107.19
634.951	17291.51
635.145	17379.57
635.339	17180.92
635.533	17082.62
635.726	17293.56
635.92	16914.69
636.114	16906.49
636.308	16556.29
636.501	16501
636.695	16560.39
636.889	16703.75
637.083	16357.64
637.276	16277.77
637.47	16251.14
637.664	16070.92
637.857	16261.38
638.051	15894.8
638.244	15622.42
638.438	15851.79
638.632	15569.17
638.825	15409.43
639.019	15618.32
639.212	15362.33
639.406	15454.48
639.599	15304.98
639.793	15069.47
639.986	14924.06
640.18	14889.24
640.373	14922.01
640.567	14790.94
640.76	14895.39
640.954	14610.72
641.147	14569.76
641.34	14405.92
641.534	14608.67
641.727	14502.18
641.92	14336.29
642.114	14100.78
642.307	14092.58
642.5	14022.95
642.694	13771.05
642.887	13777.2
643.08	14090.54
643.273	13715.76
643.467	13590.83
643.66	13158.71
643.853	13273.4
644.046	13134.14
644.239	13318.45
644.432	13267.25
644.626	12939.58
644.819	12869.95
645.012	12800.32
645.205	12960.06
645.398	12835.13
645.591	12759.36
645.784	12636.48
645.977	12558.66
646.17	12478.79
646.363	12302.66
646.556	12360
646.749	12183.88
646.942	12351.81
647.135	12003.66
647.328	12003.66
647.521	11882.83
647.714	11702.61
647.907	11845.96
648.099	11735.37
648.292	11735.37
648.485	11665.74
648.678	11465.04
648.871	11559.25
649.064	11399.51
649.256	11405.65
649.449	11282.77
649.642	11272.53
649.835	11133.27
650.027	10967.38
650.22	10918.23
650.413	10957.14
650.605	10930.52
650.798	10944.86
650.991	10735.96
651.183	10611.04
651.376	10721.63
651.568	10811.74
651.761	10676.57
651.954	10762.59
652.146	10316.13
652.339	10408.29
652.531	10436.96
652.724	10371.43
652.916	10387.81
653.109	10107.24
653.301	10277.22
653.494	10017.13
653.686	9740.65
653.879	10146.15
654.071	10111.33
654.263	9595.25
654.456	9898.34
654.648	10068.33
654.84	9634.16
655.033	9699.69
655.225	9789.8
655.417	9562.48
655.61	9654.64
655.802	9570.67
655.994	9318.77
656.186	9396.59
656.379	9247.09
656.571	9349.49
656.763	9134.45
656.955	9163.12
657.148	9249.14
657.34	9126.26
657.532	8980.85
657.724	8931.7
657.916	8888.7
658.108	9003.38
658.3	8872.31
658.492	8888.7
658.684	8628.6
658.876	8874.36
659.068	8751.48
659.26	8638.84
659.452	8440.19
659.644	8405.38
659.836	8409.47
660.028	8427.9
660.22	8257.92
660.412	8335.74
660.604	8204.67
660.796	8409.47
660.988	8042.89
661.18	8204.67
661.372	7979.4
661.563	8063.36
661.755	7764.36
661.947	7930.25
662.139	7782.79
662.331	7795.08
662.522	7784.84
662.714	7885.19
662.906	7604.62
663.097	7836.04
663.289	7545.23
663.481	7489.93
663.673	7528.85
663.864	7446.93
664.056	7209.36
664.247	7342.48
664.439	7287.18
664.631	7401.87
664.822	7197.07
665.014	7389.58
665.205	7068.05
665.397	7123.35
665.588	7184.79
665.78	7115.16
665.971	6908.31
666.163	7145.87
666.354	6859.16
666.546	6943.13
666.737	6750.62
666.929	6769.05
667.12	7012.76
667.311	6791.58
667.503	6740.38
667.694	6734.23
667.885	6664.6
668.077	6693.27
668.268	6619.55
668.459	6840.73
668.651	6605.21
668.842	6568.35
669.033	6445.47
669.224	6451.61
669.416	6615.45
669.607	6498.72
669.798	6613.4
669.989	6490.52
670.18	6371.74
670.371	6242.72
670.563	6230.43
670.754	6226.34
670.945	6209.95
671.136	6187.43
671.327	6119.84
671.518	6144.42
671.709	6085.03
671.9	6121.89
672.091	6261.15
672.282	6234.53
672.473	6031.78
672.664	6048.16
672.855	6009.25
673.046	5898.66
673.237	5859.75
673.428	5882.28
673.619	5872.04
673.809	5818.79
674	5743.02
674.191	5775.78
674.382	5769.64
674.573	5751.21
674.764	5853.61
674.954	5853.61
675.145	5691.82
675.336	5562.8
675.527	5638.57
675.717	5587.37
675.908	5659.05
676.099	5550.51
676.289	5695.91
676.48	5595.56
676.671	5480.88
676.861	5640.62
677.052	5525.93
677.243	5464.49
677.433	5446.06
677.624	5415.34
677.814	5259.7
678.005	5341.61
678.195	5415.34
678.386	5411.25
678.576	5253.55
678.767	5261.74
678.957	5327.28
679.148	5212.59
679.338	5505.45
679.529	5259.7
679.719	5271.98
679.909	5231.02
680.1	5343.66
680.29	5304.75
680.481	5243.31
680.671	5349.81
680.861	5382.57
681.052	5124.53
681.242	5171.63
681.432	5409.2
681.622	5226.93
681.813	5335.47
682.003	5155.25
682.193	5304.75
682.383	5271.98
682.573	5140.91
682.764	5200.3
682.954	5267.89
683.144	5140.91
683.334	5161.39
683.524	5054.9
683.714	5071.28
683.904	5106.1
684.094	5118.39
684.284	5099.95
684.474	5337.52
684.664	5155.25
684.854	5087.67
685.044	4940.21
685.234	4987.32
685.424	4934.07
685.614	4899.25
685.804	5005.75
685.994	4936.12
686.184	5130.67
686.374	5108.15
686.564	4979.12
686.753	4932.02
686.943	4870.58
687.133	4856.25
687.323	4852.15
687.513	4891.06
687.702	4858.29
687.892	4895.16
688.082	4903.35
688.272	4901.3
688.461	4803
688.651	4837.81
688.841	4792.76
689.03	4684.22
689.22	4641.21
689.41	4649.4
689.599	4596.15
689.789	4725.18
689.979	4645.31
690.168	4620.73
690.358	4688.31
690.547	4561.34
690.737	4735.42
690.926	4516.28
691.116	4448.7
691.305	4563.39
691.495	4592.06
691.684	4448.7
691.874	4567.48
692.063	4655.54
692.252	4493.76
692.442	4497.85
692.631	4391.36
692.82	4438.46
693.01	4366.78
693.199	4424.12
693.388	4262.33
693.578	4526.52
693.767	4460.99
693.956	4426.17
694.146	4393.4
694.335	4444.6
694.524	4311.49
694.713	4366.78
694.902	4276.67
695.092	4383.17
695.281	4237.76
695.47	4147.65
695.659	4260.29
695.848	4422.08
696.037	4280.77
696.226	4241.86
696.415	4309.44
696.604	4211.14
696.793	4229.57
696.982	4012.48
697.171	4293.05
697.36	4170.18
697.549	4049.35
697.738	4245.95
697.927	4131.26
698.116	4200.9
698.305	4043.2
698.494	4227.52
698.683	4106.69
698.872	4262.33
699.061	4223.42
699.25	4067.78
699.438	4262.33
699.627	4018.63
699.816	4200.9
700.005	4088.26
700.193	3977.67
700.382	4006.34
700.571	4024.77
700.76	3983.81
700.948	4196.8
701.137	4057.54
701.326	4155.84
701.514	3852.74
701.703	4030.91
701.892	3910.08
702.08	3981.76
702.269	3879.36
702.457	3932.61
702.646	3834.31
702.834	3727.82
703.023	3801.54
703.212	3934.66
703.4	3926.47
703.589	3889.6
703.777	3770.82
703.965	3822.02
704.154	3879.36
704.342	3879.36
704.531	3824.07
704.719	3662.28
704.907	3846.6
705.096	3721.67
705.284	3707.34
705.472	3629.51
705.661	3693
705.849	3703.24
706.037	3826.12
706.226	3623.37
706.414	3705.29
706.602	3615.18
706.79	3557.83
706.979	3647.94
707.167	3604.94
707.355	3557.83
707.543	3674.57
707.731	3680.71
707.919	3604.94
708.107	3584.46
708.296	3623.37
708.484	3541.45
708.672	3557.83
708.86	3613.13
709.048	3609.03
709.236	3500.49
709.424	3475.91
709.612	3475.91
709.8	3451.34
709.988	3334.61
710.176	3518.92
710.364	3514.83
710.551	3375.56
710.739	3410.38
710.927	3453.39
711.115	3490.25
711.303	3541.45
711.491	3387.85
711.679	3490.25
711.866	3471.82
712.054	3469.77
712.242	3332.56
712.43	3289.55
712.617	3303.89
712.805	3326.41
712.993	3383.76
713.181	3189.2
713.368	3443.15
713.556	3322.32
713.744	3150.29
713.931	3453.39
714.119	3254.73
714.306	3271.12
714.494	3219.92
714.682	3183.06
714.869	3148.24
715.057	3164.62
715.244	3054.03
715.432	3224.01
715.619	3123.66
715.807	3125.71
715.994	3215.82
716.182	3242.45
716.369	3115.47
716.556	3162.58
716.744	3115.47
716.931	3080.66
717.119	3187.15
717.306	3066.32
717.493	3058.13
717.681	3023.31
717.868	3187.15
718.055	3064.27
718.242	3113.42
718.43	3078.61
718.617	2949.59
718.804	2945.49
718.991	2994.64
719.179	2982.35
719.366	3056.08
719.553	2877.91
719.74	2937.3
719.927	2839
720.114	2974.16
720.301	2931.16
720.488	2998.74
720.676	2781.65
720.863	3035.6
721.05	2935.25
721.237	2875.86
721.424	2961.87
721.611	2974.16
721.798	2877.91
721.985	2879.96
722.172	2787.8
722.358	2847.19
722.545	2884.05
722.732	2888.15
722.919	2695.64
723.106	2806.23
723.293	2828.76
723.48	2834.9
723.667	2777.56
723.853	2552.28
724.04	2712.02
724.227	2882
724.414	2712.02
724.6	2834.9
724.787	2765.27
724.974	2834.9
725.161	2752.98
725.347	2683.35
725.534	2824.66
725.72	2740.69
725.907	2752.98
726.094	2777.56
726.28	2570.71
726.467	2673.11
726.653	2656.73
726.84	2628.06
727.027	2673.11
727.213	2535.9
727.4	2675.16
727.586	2695.64
727.773	2626.01
727.959	2669.02
728.145	2613.72
728.332	2613.72
728.518	2578.9
728.705	2605.53
728.891	2679.26
729.077	2587.1
729.264	2429.4
729.45	2621.91
729.636	2603.48
729.823	2552.28
730.009	2515.42
730.195	2460.12
730.382	2480.6
730.568	2519.51
730.754	2669.02
730.94	2458.07
731.126	2400.73
731.313	2556.38
731.499	2417.12
731.685	2523.61
731.871	2564.57
732.057	2460.12
732.243	2525.66
732.429	2460.12
732.615	2429.4
732.801	2417.12
732.987	2367.96
733.173	2480.6
733.359	2359.77
733.545	2427.35
733.731	2474.46
733.917	2427.35
734.103	2386.4
734.289	2394.59
734.475	2335.2
734.661	2392.54
734.847	2390.49
735.033	2347.48
735.219	2449.88
735.404	2427.35
735.59	2331.1
735.776	2380.25
735.962	2374.11
736.148	2296.28
736.333	2468.31
736.519	2327
736.705	2335.2
736.89	2349.53
737.076	2195.93
737.262	2327
737.447	2273.76
737.633	2263.52
737.819	2236.89
738.004	2333.15
738.19	2122.21
738.375	2265.57
738.561	2329.05
738.747	2345.44
738.932	2228.7
739.118	2269.66
739.303	2236.89
739.489	2142.69
739.674	2140.64
739.859	2277.85
740.045	2171.36
740.23	2191.84
740.416	2126.3
740.601	2105.82
740.786	2040.29
740.972	2204.13
741.157	2021.86
741.342	2040.29
741.528	2083.3
741.713	1997.28
741.898	2089.44
742.084	2050.53
742.269	2064.86
742.454	2023.91
742.639	2109.92
742.824	2025.95
743.01	2046.43
743.195	2083.3
743.38	1960.42
743.565	2165.21
743.75	1999.33
743.935	1962.47
744.12	2040.29
744.305	1933.79
744.49	2028
744.675	1950.18
744.86	1978.85
745.045	1837.54
745.23	1913.31
745.415	1894.88
745.6	1909.22
745.785	1835.49
745.97	1962.47
746.155	1843.68
746.34	1907.17
746.525	1876.45
746.71	1911.27
746.895	1868.26
747.079	1761.77
747.264	1804.77
747.449	1931.75
747.634	1753.57
747.819	1718.76
748.003	1741.29
748.188	1724.9
748.373	1774.05
748.557	1696.23
748.742	1696.23
748.927	1759.72
749.111	1563.11
749.296	1630.7
749.481	1618.41
749.665	1647.08
749.85	1546.73
750.034	1634.79
750.219	1606.12
750.404	1614.31
750.588	1649.13
750.773	1458.67
750.957	1595.88
751.141	1540.58
751.326	1499.63
751.51	1511.91
751.695	1577.45
751.879	1493.48
752.064	1657.32
752.248	1528.3
752.432	1503.72
752.617	1526.25
752.801	1624.55
752.985	1479.15
753.17	1513.96
753.354	1485.29
753.538	1397.23
753.722	1417.71
753.907	1374.7
754.091	1425.9
754.275	1436.14
754.459	1337.84
754.643	1343.98
754.828	1389.03
755.012	1305.07
755.196	1300.97
755.38	1280.49
755.564	1393.13
755.748	1352.17
755.932	1245.68
756.116	1360.36
756.3	1346.03
756.484	1204.72
756.668	1352.17
756.852	1245.68
757.036	1257.96
757.22	1130.99
757.404	1227.25
757.588	1157.61
757.772	1253.87
757.956	1253.87
758.14	1255.92
758.323	1163.76
758.507	1114.61
758.691	1147.37
758.875	1239.53
759.059	1219.05
759.242	1204.72
759.426	1155.57
759.61	1165.81
759.794	1157.61
759.977	1159.66
760.161	1303.02
760.345	1151.47
760.528	1092.08
760.712	1133.04
760.895	1204.72
761.079	1085.94
761.263	1053.17
761.446	1085.94
761.63	1042.93
761.813	1120.75
761.997	1008.11
762.18	1008.11
762.364	1090.03
762.547	1040.88
762.731	1073.65
762.914	1065.46
763.098	1071.6
763.281	983.54
763.464	1049.07
763.648	954.87
763.831	1065.46
764.015	967.15
764.198	1071.6
764.381	1034.74
764.564	1083.89
764.748	1073.65
764.931	999.92
765.114	999.92
765.297	1012.21
765.481	952.82
765.664	911.86
765.847	930.29
766.03	958.96
766.213	922.1
766.397	909.81
766.58	895.47
766.763	977.39
766.946	932.34
767.129	909.81
767.312	942.58
767.495	905.71
767.678	889.33
767.861	963.06
768.044	870.9
768.227	899.57
768.41	926.19
768.593	856.56
768.776	872.95
768.959	909.81
769.142	930.29
769.324	958.96
769.507	860.66
769.69	874.99
769.873	891.38
770.056	895.47
770.239	944.63
770.421	958.96
770.604	889.33
770.787	815.6
770.97	895.47
771.152	844.28
771.335	809.46
771.518	864.75
771.7	825.84
771.883	836.08
772.066	754.16
772.248	811.51
772.431	834.04
772.613	713.21
772.796	838.13
772.978	850.42
773.161	934.39
773.343	758.26
773.526	705.01
773.708	723.44
773.891	754.16
774.073	754.16
774.256	795.12
774.438	788.98
774.621	756.21
774.803	764.4
774.985	717.3
775.168	702.97
775.35	737.78
775.532	772.6
775.715	655.86
775.897	729.59
776.079	690.68
776.261	741.88
776.444	754.16
776.626	705.01
776.808	659.96
776.99	631.29
777.173	694.77
777.355	690.68
777.537	666.1
777.719	729.59
777.901	684.53
778.083	682.49
778.265	657.91
778.447	682.49
778.629	633.33
778.811	725.49
778.993	700.92
779.175	666.1
779.357	584.18
779.539	598.52
779.721	639.48
779.903	672.25
780.085	657.91
780.267	664.05
780.449	688.63
780.631	623.09
780.812	614.9
780.994	633.33
781.176	524.79
781.358	578.04
781.54	578.04
781.721	567.8
781.903	657.91
782.085	565.75
782.267	528.89
782.448	547.32
782.63	524.79
782.812	502.26
782.993	557.56
783.175	502.26
783.357	541.18
783.538	492.02
783.72	494.07
783.901	518.65
784.083	528.89
784.264	494.07
784.446	555.51
784.627	524.79
784.809	428.54
784.99	485.88
785.172	508.41
785.353	520.7
785.535	553.46
785.716	406.01
785.897	455.16
786.079	459.26
786.26	453.11
786.441	477.69
786.623	428.54
786.804	418.3
786.985	385.53
787.167	481.78
787.348	463.35
787.529	393.72
787.71	469.5
787.891	471.54
788.073	367.1
788.254	328.19
788.435	399.87
788.616	414.2
788.797	254.46
788.978	442.87
789.159	401.91
789.34	471.54
789.522	379.39
789.703	399.87
789.884	401.91
790.065	414.2
790.246	430.59
790.427	352.76
790.607	387.58
790.788	393.72
790.969	446.97
791.15	389.63
791.331	365.05
791.512	330.23
791.693	358.91
791.874	340.47
792.054	369.15
792.235	320
792.416	410.11
792.597	295.42
792.778	334.33
792.958	387.58
793.139	303.61
793.32	336.38
793.5	330.23
793.681	315.9
793.862	352.76
794.042	387.58
794.223	328.19
794.404	322.04
794.584	274.94
794.765	289.28
794.945	344.57
795.126	311.8
795.306	336.38
795.487	297.47
795.667	287.23
795.848	307.71
796.028	352.76
796.209	281.08
796.389	344.57
796.57	305.66
796.75	315.9
796.93	328.19
797.111	293.37
797.291	236.03
797.471	283.13
797.652	262.65
797.832	320
798.012	305.66
798.192	205.31
798.373	276.99
798.553	229.88
798.733	350.71
798.913	178.69
799.093	346.62
799.274	311.8
799.454	205.31
799.634	256.51
799.814	266.75
799.994	297.47
800.174	287.23
800.354	221.69
800.534	213.5
800.714	240.12
800.894	188.93
801.074	231.93
801.254	272.89
801.434	260.6
801.614	170.49
801.794	246.27
801.974	1024.5
802.154	225.79
802.334	264.7
802.514	186.88
802.693	197.12
802.873	236.03
803.053	266.75
803.233	299.52
803.413	225.79
803.592	205.31
803.772	270.84
803.952	268.8
804.131	160.25
804.311	283.13
804.491	291.32
804.67	184.83
804.85	201.21
805.03	219.64
805.209	168.45
805.389	166.4
805.568	287.23
805.748	133.63
805.928	197.12
806.107	260.6
806.287	213.5
806.466	283.13
806.646	164.35
806.825	195.07
807.004	190.97
807.184	197.12
807.363	236.03
807.543	217.6
807.722	131.58
807.901	227.84
808.081	205.31
808.26	182.78
808.439	193.02
808.619	225.79
808.798	160.25
808.977	166.4
809.156	264.7
809.336	180.73
809.515	231.93
809.694	178.69
809.873	147.97
810.052	242.17
810.231	229.88
810.411	147.97
810.59	186.88
810.769	205.31
810.948	223.74
811.127	188.93
811.306	141.82
811.485	213.5
811.664	238.08
811.843	166.4
812.022	180.73
812.201	90.62
812.38	174.59
812.559	143.87
812.737	174.59
812.916	102.91
813.095	98.81
813.274	127.49
813.453	203.26
813.632	201.21
813.811	182.78
813.989	107.01
814.168	160.25
814.347	74.24
814.526	139.77
814.704	197.12
814.883	197.12
815.062	117.25
815.24	162.3
815.419	107.01
815.598	150.01
815.776	158.21
815.955	98.81
816.133	64
816.312	98.81
816.49	55.81
816.669	90.62
816.847	184.83
817.026	166.4
817.204	127.49
817.383	135.68
817.561	90.62
817.74	190.97
817.918	76.29
818.097	219.64
818.275	145.92
818.453	147.97
818.632	121.34
818.81	262.65
818.988	203.26
819.167	166.4
819.345	172.54
819.523	78.33
819.701	125.44
819.879	100.86
820.058	115.2
820.236	117.25
820.414	141.82
820.592	133.63
820.77	113.15
820.948	164.35
821.127	178.69
821.305	190.97
821.483	59.9
821.661	164.35
821.839	131.58
822.017	184.83
822.195	150.01
822.373	139.77
822.551	172.54
822.729	94.72
822.907	82.43
823.085	156.16
823.262	145.92
823.44	139.77
823.618	84.48
823.796	115.2
823.974	125.44
824.152	55.81
824.329	92.67
824.507	86.53
824.685	178.69
824.863	125.44
825.04	84.48
825.218	141.82
825.396	90.62
825.574	84.48
825.751	139.77
825.929	123.39
826.107	70.14
826.284	98.81
826.462	41.47
826.639	96.77
826.817	78.33
826.994	131.58
827.172	82.43
827.349	213.5
827.527	119.29
827.704	82.43
827.882	107.01
828.059	139.77
828.237	150.01
828.414	231.93
828.591	-17.92
828.769	98.81
828.946	104.96
829.124	119.29
829.301	145.92
829.478	141.82
829.655	82.43
829.833	76.29
830.01	127.49
830.187	90.62
830.364	90.62
830.542	107.01
830.719	135.68
830.896	94.72
831.073	94.72
831.25	96.77
831.427	51.71
831.604	92.67
831.782	100.86
831.959	115.2
832.136	98.81
832.313	96.77
832.49	82.43
832.667	61.95
832.844	119.29
833.021	90.62
833.198	127.49
833.374	88.57
833.551	82.43
833.728	2.56
833.905	51.71
834.082	64
834.259	82.43
834.436	107.01
834.612	16.9
834.789	147.97
834.966	115.2
835.143	43.52
835.319	82.43
835.496	117.25
835.673	61.95
835.85	64
836.026	41.47
836.203	115.2
836.38	20.99
836.556	37.38
836.733	12.8
836.909	90.62
837.086	53.76
837.262	8.7
837.439	84.48
837.616	68.09
837.792	92.67
837.968	43.52
838.145	55.81
838.321	80.38
838.498	33.28
838.674	12.8
838.851	49.66
839.027	53.76
839.203	-5.63
839.38	92.67
839.556	25.09
839.732	102.91
839.909	92.67
840.085	133.63
840.261	-11.78
840.437	51.71
840.614	41.47
840.79	125.44
840.966	74.24
841.142	51.71
841.318	-13.82
841.494	172.54
841.671	84.48
841.847	68.09
842.023	16.9
842.199	53.76
842.375	74.24
842.551	-1.54
842.727	0.51
842.903	90.62
843.079	84.48
843.255	123.39
843.431	90.62
843.607	104.96
843.783	-24.06
843.959	25.09
844.134	12.8
844.31	74.24
844.486	57.86
844.662	33.28
844.838	49.66
845.013	84.48
845.189	86.53
845.365	74.24
845.541	66.05
845.716	18.94
845.892	45.57
846.068	82.43
846.244	66.05
846.419	41.47
846.595	-22.02
846.77	74.24
846.946	76.29
847.122	78.33
847.297	29.18
847.473	76.29
847.648	57.86
847.824	27.14
847.999	64
848.175	-13.82
848.35	33.28
848.526	57.86
848.701	74.24
848.876	51.71
849.052	135.68
849.227	51.71
849.403	66.05
849.578	53.76
849.753	55.81
849.929	84.48
850.104	45.57
850.279	59.9
850.454	98.81
850.63	100.86
850.805	90.62
850.98	109.05
851.155	-15.87
851.33	-1.54
851.505	45.57
851.681	84.48
851.856	-48.64
852.031	18.94
852.206	8.7
852.381	-32.26
852.556	-65.02
852.731	-56.83
852.906	51.71
853.081	39.42
853.256	66.05
853.431	37.38
853.606	0.51
853.781	59.9
853.956	-32.26
854.131	61.95
854.305	31.23
854.48	18.94
854.655	-30.21
854.83	23.04
855.005	-7.68
855.18	27.14
855.354	16.9
855.529	51.71
855.704	-40.45
855.879	-40.45
856.053	-17.92
856.228	74.24
856.403	-3.58
856.577	25.09
856.752	20.99
856.926	43.52
857.101	96.77
857.276	-32.26
857.45	78.33
857.625	37.38
857.799	23.04
857.974	0.51
858.148	-44.54
858.323	20.99
858.497	61.95
858.672	45.57
858.846	-3.58
859.02	68.09
859.195	-89.6
859.369	-3.58
859.543	57.86
859.718	6.66
859.892	94.72
860.066	33.28
860.241	45.57
860.415	-48.64
860.589	18.94
860.763	61.95
860.938	53.76
861.112	10.75
861.286	-52.74
861.46	-5.63
861.634	86.53
861.808	53.76
861.982	-11.78
862.157	76.29
862.331	4.61
862.505	-3.58
862.679	31.23
862.853	57.86
863.027	-11.78
863.201	61.95
863.375	6.66
863.549	-19.97
863.722	0.51
863.896	121.34
864.07	18.94
864.244	41.47
864.418	37.38
864.592	-19.97
864.766	-36.35
864.939	-32.26
865.113	-15.87
865.287	82.43
865.461	41.47
865.634	109.05
865.808	0.51
865.982	-13.82
866.156	29.18
866.329	47.62
866.503	-48.64
866.676	86.53
866.85	0.51
867.024	16.9
867.197	25.09
867.371	41.47
867.544	-40.45
867.718	10.75
867.891	66.05
868.065	35.33
868.238	16.9
868.412	-9.73
868.585	45.57
868.759	-5.63
868.932	-7.68
869.105	-32.26
869.279	53.76
869.452	31.23
869.625	8.7
869.799	0.51
869.972	45.57
870.145	49.66
870.319	-22.02
870.492	10.75
870.665	27.14
870.838	72.19
871.011	49.66
871.185	-19.97
871.358	25.09
871.531	55.81
871.704	41.47
871.877	33.28
872.05	51.71
872.223	25.09
872.396	-1.54
872.569	45.57
872.742	0.51
872.915	66.05
873.088	-81.41
873.261	14.85
873.434	20.99
873.607	-28.16
873.78	-24.06
873.953	33.28
874.126	10.75
874.299	82.43
874.471	-28.16
874.644	18.94
874.817	-15.87
874.99	119.29
875.163	18.94
875.335	68.09
875.508	59.9
875.681	45.57
875.853	43.52
876.026	88.57
876.199	39.42
876.371	10.75
876.544	-5.63
876.717	90.62
876.889	-24.06
877.062	16.9
877.234	74.24
877.407	57.86
877.579	0.51
877.752	-13.82
877.924	33.28
878.097	51.71
878.269	-54.78
878.442	25.09
878.614	0.51
878.786	53.76
878.959	53.76
879.131	53.76
879.303	-5.63
879.476	25.09
879.648	10.75
879.82	0.51
879.993	-40.45
880.165	20.99
880.337	-15.87
880.509	47.62
880.681	51.71
880.854	-11.78
881.026	82.43
881.198	20.99
881.37	45.57
881.542	49.66
881.714	-38.4
881.886	92.67
882.058	35.33
882.23	76.29
882.402	0.51
882.574	78.33
882.746	64
882.918	16.9
883.09	-7.68
883.262	33.28
883.434	0.51
883.606	-54.78
883.778	61.95
883.95	68.09
884.122	-22.02
884.293	68.09
884.465	33.28
884.637	68.09
884.809	27.14
884.98	-7.68
885.152	14.85
885.324	84.48
885.496	-26.11
885.667	2.56
885.839	39.42
886.011	74.24
886.182	86.53
886.354	102.91
886.525	64
886.697	-13.82
886.869	-3.58
887.04	0.51
887.212	78.33
887.383	117.25
887.555	20.99
887.726	16.9
887.897	27.14
888.069	33.28
888.24	-32.26
888.412	115.2
888.583	-9.73
888.754	57.86
888.926	-36.35
889.097	51.71
889.268	-30.21
889.44	74.24
889.611	2.56
889.782	-36.35
889.953	-32.26
890.125	43.52
890.296	-40.45
890.467	12.8
890.638	-19.97
890.809	-15.87
890.98	39.42
891.151	102.91
891.323	86.53
891.494	-11.78
891.665	-5.63
891.836	12.8
892.007	20.99
892.178	68.09
892.349	84.48
892.52	-7.68
892.691	-40.45
892.862	-7.68
893.032	-77.31
893.203	-81.41
893.374	14.85
893.545	90.62
893.716	-28.16
893.887	37.38
894.057	-105.98
894.228	-15.87
894.399	72.19
894.57	76.29
894.74	27.14
894.911	45.57
895.082	-81.41
895.253	20.99
895.423	33.28
895.594	41.47
895.764	-5.63
895.935	0.51
896.106	-15.87
896.276	16.9
896.447	66.05
896.617	12.8
896.788	-97.79
896.958	-3.58
897.129	20.99
897.299	41.47
897.47	45.57
897.64	-40.45
897.81	16.9
897.981	57.86
898.151	-11.78
898.322	-36.35
898.492	61.95
898.662	-22.02
898.832	6.66
899.003	-7.68
899.173	20.99
899.343	16.9
899.513	-15.87
