Data from USB4F104151__73__14-30-24-874.txt Node

Date: Thu Mar 13 14:30:24 EDT 2025
User: louis
Spectrometer: USB4F10415
Trigger mode: 4
Integration Time (sec): 2.500000E-2
Scans to average: 1
Electric dark correction enabled: true
Nonlinearity correction enabled: false
Boxcar width: 0
XAxis mode: Wavelengths
Number of Pixels in Spectrum: 3648
>>>>>Begin Spectral Data<<<<<
178.204	-193.02
178.424	-193.02
178.644	-193.02
178.864	-166.4
179.084	-84.48
179.304	-4.61
179.524	9.73
179.744	-96.77
179.964	99.84
180.184	-27.14
180.404	58.88
180.624	-20.99
180.844	-27.14
181.064	-39.42
181.283	22.02
181.503	-47.62
181.723	73.21
181.943	-72.19
182.163	22.02
182.383	46.59
182.602	46.59
182.822	42.5
183.042	36.35
183.262	40.45
183.482	73.21
183.701	67.07
183.921	9.73
184.141	30.21
184.361	83.45
184.58	-0.51
184.8	30.21
185.02	34.3
185.239	62.98
185.459	28.16
185.679	-27.14
185.898	-53.76
186.118	58.88
186.338	-2.56
186.557	5.63
186.777	19.97
186.997	17.92
187.216	48.64
187.436	91.65
187.655	44.54
187.875	17.92
188.095	36.35
188.314	91.65
188.534	97.79
188.753	32.26
188.973	69.12
189.192	24.06
189.412	42.5
189.631	40.45
189.851	-4.61
190.07	30.21
190.29	30.21
190.509	-6.66
190.729	9.73
190.948	110.08
191.168	83.45
191.387	83.45
191.607	19.97
191.826	-64
192.045	38.4
192.265	32.26
192.484	19.97
192.704	-2.56
192.923	-35.33
193.142	83.45
193.362	58.88
193.581	36.35
193.8	38.4
194.02	58.88
194.239	83.45
194.458	-6.66
194.678	40.45
194.897	79.36
195.116	-29.18
195.335	-20.99
195.555	50.69
195.774	1.54
195.993	34.3
196.212	30.21
196.432	24.06
196.651	38.4
196.87	-31.23
197.089	44.54
197.308	-10.75
197.528	69.12
197.747	9.73
197.966	58.88
198.185	118.27
198.404	15.87
198.623	91.65
198.842	77.31
199.062	58.88
199.281	114.17
199.5	40.45
199.719	34.3
199.938	-18.94
200.157	62.98
200.376	-20.99
200.595	36.35
200.814	30.21
201.033	-16.9
201.252	95.74
201.471	75.26
201.69	44.54
201.909	38.4
202.128	58.88
202.347	-2.56
202.566	28.16
202.785	-35.33
203.004	-64
203.223	120.32
203.442	-10.75
203.661	9.73
203.879	34.3
204.098	169.47
204.317	62.98
204.536	67.07
204.755	-37.38
204.974	81.41
205.193	44.54
205.411	144.89
205.63	36.35
205.849	36.35
206.068	-27.14
206.287	-23.04
206.505	62.98
206.724	-27.14
206.943	1.54
207.162	-31.23
207.381	26.11
207.599	-6.66
207.818	46.59
208.037	-18.94
208.255	1.54
208.474	62.98
208.693	62.98
208.911	38.4
209.13	50.69
209.349	62.98
209.567	22.02
209.786	99.84
210.005	-43.52
210.223	42.5
210.442	-4.61
210.661	77.31
210.879	42.5
211.098	-12.8
211.316	42.5
211.535	101.89
211.753	81.41
211.972	73.21
212.191	1.54
212.409	22.02
212.628	42.5
212.846	26.11
213.065	22.02
213.283	42.5
213.502	67.07
213.72	-39.42
213.938	3.58
214.157	5.63
214.375	50.69
214.594	-33.28
214.812	-6.66
215.031	5.63
215.249	1.54
215.467	15.87
215.686	26.11
215.904	-2.56
216.122	58.88
216.341	75.26
216.559	-39.42
216.778	103.93
216.996	5.63
217.214	-14.85
217.432	13.82
217.651	11.78
217.869	50.69
218.087	17.92
218.306	73.21
218.524	52.74
218.742	19.97
218.96	-55.81
219.179	-27.14
219.397	17.92
219.615	120.32
219.833	9.73
220.051	11.78
220.27	52.74
220.488	50.69
220.706	11.78
220.924	-37.38
221.142	11.78
221.36	-6.66
221.578	58.88
221.796	58.88
222.015	30.21
222.233	22.02
222.451	99.84
222.669	19.97
222.887	60.93
223.105	17.92
223.323	-8.7
223.541	3.58
223.759	-12.8
223.977	9.73
224.195	83.45
224.413	71.17
224.631	17.92
224.849	-2.56
225.067	87.55
225.285	46.59
225.503	40.45
225.721	-37.38
225.939	44.54
226.157	50.69
226.375	67.07
226.592	19.97
226.81	42.5
227.028	67.07
227.246	93.69
227.464	5.63
227.682	9.73
227.9	46.59
228.117	-39.42
228.335	26.11
228.553	-14.85
228.771	67.07
228.989	79.36
229.206	-23.04
229.424	-37.38
229.642	89.6
229.86	-23.04
230.077	73.21
230.295	108.03
230.513	89.6
230.731	126.46
230.948	95.74
231.166	99.84
231.384	-6.66
231.601	11.78
231.819	34.3
232.037	-2.56
232.254	36.35
232.472	28.16
232.689	50.69
232.907	-14.85
233.125	9.73
233.342	-8.7
233.56	32.26
233.777	-10.75
233.995	-6.66
234.213	62.98
234.43	-31.23
234.648	91.65
234.865	19.97
235.083	85.5
235.3	3.58
235.518	36.35
235.735	69.12
235.953	93.69
236.17	26.11
236.388	36.35
236.605	36.35
236.822	132.61
237.04	69.12
237.257	89.6
237.475	-14.85
237.692	30.21
237.909	56.83
238.127	-23.04
238.344	19.97
238.562	69.12
238.779	17.92
238.996	5.63
239.214	28.16
239.431	-10.75
239.648	-39.42
239.865	34.3
240.083	54.78
240.3	75.26
240.517	22.02
240.735	38.4
240.952	91.65
241.169	50.69
241.386	-35.33
241.603	71.17
241.821	42.5
242.038	30.21
242.255	19.97
242.472	-51.71
242.689	67.07
242.907	151.04
243.124	85.5
243.341	3.58
243.558	13.82
243.775	30.21
243.992	-29.18
244.209	22.02
244.426	71.17
244.643	36.35
244.86	-16.9
245.078	99.84
245.295	46.59
245.512	44.54
245.729	3.58
245.946	34.3
246.163	87.55
246.38	-6.66
246.597	26.11
246.814	38.4
247.031	69.12
247.248	34.3
247.464	108.03
247.681	75.26
247.898	34.3
248.115	93.69
248.332	-31.23
248.549	1.54
248.766	75.26
248.983	5.63
249.2	3.58
249.417	69.12
249.633	30.21
249.85	24.06
250.067	34.3
250.284	34.3
250.501	83.45
250.717	62.98
250.934	-10.75
251.151	3.58
251.368	67.07
251.585	112.13
251.801	36.35
252.018	-23.04
252.235	71.17
252.451	44.54
252.668	3.58
252.885	85.5
253.102	95.74
253.318	91.65
253.535	9.73
253.752	52.74
253.968	-4.61
254.185	-20.99
254.401	30.21
254.618	110.08
254.835	36.35
255.051	28.16
255.268	-20.99
255.484	24.06
255.701	34.3
255.917	54.78
256.134	7.68
256.351	67.07
256.567	15.87
256.784	38.4
257	22.02
257.217	83.45
257.433	17.92
257.65	30.21
257.866	95.74
258.082	-33.28
258.299	17.92
258.515	42.5
258.732	26.11
258.948	30.21
259.165	89.6
259.381	62.98
259.597	9.73
259.814	60.93
260.03	26.11
260.246	-6.66
260.463	17.92
260.679	83.45
260.895	-2.56
261.112	26.11
261.328	-0.51
261.544	-4.61
261.761	81.41
261.977	108.03
262.193	-59.9
262.409	56.83
262.626	30.21
262.842	44.54
263.058	36.35
263.274	34.3
263.49	62.98
263.707	69.12
263.923	56.83
264.139	22.02
264.355	75.26
264.571	108.03
264.787	58.88
265.004	93.69
265.22	28.16
265.436	-12.8
265.652	-14.85
265.868	52.74
266.084	-12.8
266.3	67.07
266.516	-2.56
266.732	13.82
266.948	42.5
267.164	-33.28
267.38	17.92
267.596	99.84
267.812	91.65
268.028	46.59
268.244	-14.85
268.46	69.12
268.676	-14.85
268.892	101.89
269.108	-55.81
269.324	-12.8
269.54	-2.56
269.756	140.8
269.972	11.78
270.188	58.88
270.403	-12.8
270.619	24.06
270.835	-29.18
271.051	91.65
271.267	-14.85
271.483	65.02
271.698	-0.51
271.914	-6.66
272.13	-14.85
272.346	26.11
272.562	87.55
272.777	46.59
272.993	46.59
273.209	19.97
273.425	38.4
273.64	-31.23
273.856	83.45
274.072	62.98
274.287	13.82
274.503	44.54
274.719	50.69
274.934	62.98
275.15	17.92
275.366	11.78
275.581	11.78
275.797	44.54
276.012	116.22
276.228	30.21
276.444	67.07
276.659	52.74
276.875	-31.23
277.09	77.31
277.306	-6.66
277.521	81.41
277.737	85.5
277.952	44.54
278.168	1.54
278.383	54.78
278.599	79.36
278.814	93.69
279.03	73.21
279.245	38.4
279.461	34.3
279.676	75.26
279.892	42.5
280.107	-2.56
280.322	13.82
280.538	67.07
280.753	50.69
280.969	75.26
281.184	34.3
281.399	13.82
281.615	9.73
281.83	44.54
282.045	-12.8
282.26	-12.8
282.476	60.93
282.691	71.17
282.906	26.11
283.122	60.93
283.337	-6.66
283.552	69.12
283.767	67.07
283.983	79.36
284.198	1.54
284.413	11.78
284.628	1.54
284.843	71.17
285.058	83.45
285.274	54.78
285.489	-55.81
285.704	17.92
285.919	44.54
286.134	17.92
286.349	1.54
286.564	28.16
286.779	83.45
286.995	108.03
287.21	11.78
287.425	69.12
287.64	40.45
287.855	26.11
288.07	-80.38
288.285	85.5
288.5	38.4
288.715	83.45
288.93	99.84
289.145	22.02
289.36	44.54
289.575	85.5
289.79	42.5
290.004	-27.14
290.219	93.69
290.434	-6.66
290.649	34.3
290.864	93.69
291.079	-14.85
291.294	22.02
291.509	-25.09
291.724	42.5
291.938	-14.85
292.153	38.4
292.368	-2.56
292.583	83.45
292.798	42.5
293.012	1.54
293.227	15.87
293.442	3.58
293.657	75.26
293.871	36.35
294.086	5.63
294.301	62.98
294.516	38.4
294.73	60.93
294.945	1.54
295.16	17.92
295.374	155.13
295.589	-10.75
295.804	50.69
296.018	3.58
296.233	101.89
296.447	99.84
296.662	50.69
296.877	38.4
297.091	34.3
297.306	15.87
297.52	46.59
297.735	36.35
297.949	13.82
298.164	34.3
298.378	26.11
298.593	-23.04
298.807	1.54
299.022	-12.8
299.236	75.26
299.451	60.93
299.665	-31.23
299.88	42.5
300.094	60.93
300.309	30.21
300.523	9.73
300.737	-31.23
300.952	71.17
301.166	42.5
301.381	28.16
301.595	83.45
301.809	-49.66
302.024	11.78
302.238	-27.14
302.452	73.21
302.667	46.59
302.881	67.07
303.095	108.03
303.309	54.78
303.524	-6.66
303.738	42.5
303.952	38.4
304.166	52.74
304.381	-37.38
304.595	105.98
304.809	-12.8
305.023	17.92
305.237	32.26
305.452	-2.56
305.666	17.92
305.88	34.3
306.094	-14.85
306.308	1.54
306.522	-16.9
306.736	67.07
306.95	85.5
307.164	71.17
307.379	110.08
307.593	67.07
307.807	50.69
308.021	42.5
308.235	42.5
308.449	24.06
308.663	34.3
308.877	52.74
309.091	19.97
309.305	93.69
309.519	13.82
309.733	11.78
309.947	30.21
310.161	67.07
310.374	54.78
310.588	108.03
310.802	9.73
311.016	79.36
311.23	52.74
311.444	-55.81
311.658	46.59
311.872	9.73
312.085	9.73
312.299	50.69
312.513	75.26
312.727	46.59
312.941	-6.66
313.154	54.78
313.368	58.88
313.582	22.02
313.796	50.69
314.009	-61.95
314.223	56.83
314.437	89.6
314.651	91.65
314.864	36.35
315.078	46.59
315.292	-16.9
315.505	-18.94
315.719	48.64
315.933	30.21
316.146	-70.14
316.36	75.26
316.573	95.74
316.787	11.78
317.001	28.16
317.214	62.98
317.428	38.4
317.641	-31.23
317.855	75.26
318.068	46.59
318.282	22.02
318.495	65.02
318.709	67.07
318.922	77.31
319.136	136.7
319.349	42.5
319.563	34.3
319.776	17.92
319.99	60.93
320.203	83.45
320.417	75.26
320.63	60.93
320.843	97.79
321.057	67.07
321.27	91.65
321.483	52.74
321.697	73.21
321.91	44.54
322.124	44.54
322.337	132.61
322.55	-4.61
322.763	65.02
322.977	62.98
323.19	13.82
323.403	52.74
323.617	-35.33
323.83	46.59
324.043	58.88
324.256	11.78
324.469	-18.94
324.683	50.69
324.896	50.69
325.109	36.35
325.322	42.5
325.535	85.5
325.748	75.26
325.962	77.31
326.175	69.12
326.388	69.12
326.601	85.5
326.814	65.02
327.027	17.92
327.24	17.92
327.453	-8.7
327.666	34.3
327.879	56.83
328.092	50.69
328.305	-43.52
328.518	7.68
328.731	9.73
328.944	85.5
329.157	7.68
329.37	136.7
329.583	3.58
329.796	124.41
330.009	30.21
330.222	34.3
330.435	9.73
330.648	44.54
330.861	11.78
331.073	34.3
331.286	58.88
331.499	60.93
331.712	-39.42
331.925	83.45
332.138	44.54
332.35	124.41
332.563	-14.85
332.776	7.68
332.989	-4.61
333.202	17.92
333.414	-35.33
333.627	60.93
333.84	-31.23
334.053	30.21
334.265	34.3
334.478	62.98
334.691	81.41
334.903	136.7
335.116	15.87
335.329	9.73
335.541	97.79
335.754	151.04
335.966	32.26
336.179	132.61
336.392	91.65
336.604	34.3
336.817	1.54
337.029	81.41
337.242	34.3
337.454	58.88
337.667	85.5
337.88	50.69
338.092	67.07
338.305	24.06
338.517	130.56
338.729	-10.75
338.942	38.4
339.154	-6.66
339.367	50.69
339.579	50.69
339.792	52.74
340.004	140.8
340.217	71.17
340.429	50.69
340.641	71.17
340.854	38.4
341.066	38.4
341.278	36.35
341.491	56.83
341.703	-14.85
341.915	22.02
342.128	46.59
342.34	85.5
342.552	42.5
342.764	71.17
342.977	22.02
343.189	42.5
343.401	19.97
343.613	-31.23
343.826	69.12
344.038	50.69
344.25	-31.23
344.462	-4.61
344.674	60.93
344.886	71.17
345.099	142.85
345.311	-14.85
345.523	24.06
345.735	54.78
345.947	26.11
346.159	-20.99
346.371	83.45
346.583	67.07
346.795	79.36
347.007	11.78
347.219	52.74
347.431	-14.85
347.643	58.88
347.855	-31.23
348.067	42.5
348.279	-6.66
348.491	75.26
348.703	42.5
348.915	19.97
349.127	50.69
349.339	67.07
349.551	67.07
349.763	97.79
349.975	54.78
350.187	3.58
350.399	30.21
350.61	50.69
350.822	110.08
351.034	26.11
351.246	11.78
351.458	83.45
351.669	-6.66
351.881	95.74
352.093	1.54
352.305	93.69
352.517	42.5
352.728	36.35
352.94	99.84
353.152	85.5
353.363	50.69
353.575	19.97
353.787	77.31
353.999	116.22
354.21	124.41
354.422	50.69
354.633	60.93
354.845	34.3
355.057	36.35
355.268	52.74
355.48	38.4
355.692	-14.85
355.903	26.11
356.115	34.3
356.326	-12.8
356.538	116.22
356.749	1.54
356.961	134.65
357.172	-4.61
357.384	46.59
357.595	103.93
357.807	28.16
358.018	9.73
358.23	44.54
358.441	91.65
358.653	34.3
358.864	13.82
359.075	58.88
359.287	34.3
359.498	22.02
359.709	105.98
359.921	79.36
360.132	60.93
360.344	42.5
360.555	52.74
360.766	126.46
360.977	-6.66
361.189	128.51
361.4	42.5
361.611	42.5
361.823	91.65
362.034	83.45
362.245	9.73
362.456	58.88
362.667	73.21
362.879	-6.66
363.09	-55.81
363.301	42.5
363.512	-33.28
363.723	108.03
363.935	58.88
364.146	95.74
364.357	26.11
364.568	108.03
364.779	-39.42
364.99	153.09
365.201	42.5
365.412	81.41
365.623	26.11
365.834	5.63
366.045	9.73
366.256	9.73
366.467	122.37
366.678	-14.85
366.889	52.74
367.1	-29.18
367.311	75.26
367.522	50.69
367.733	5.63
367.944	58.88
368.155	77.31
368.366	65.02
368.577	116.22
368.788	9.73
368.999	44.54
369.209	34.3
369.42	134.65
369.631	179.71
369.842	11.78
370.053	5.63
370.264	103.93
370.474	-27.14
370.685	1.54
370.896	24.06
371.107	110.08
371.317	79.36
371.528	-29.18
371.739	83.45
371.95	34.3
372.16	83.45
372.371	-8.7
372.582	95.74
372.792	52.74
373.003	67.07
373.214	112.13
373.424	60.93
373.635	30.21
373.846	65.02
374.056	-37.38
374.267	56.83
374.477	30.21
374.688	11.78
374.898	-6.66
375.109	-23.04
375.319	32.26
375.53	52.74
375.74	50.69
375.951	50.69
376.161	75.26
376.372	58.88
376.582	60.93
376.793	114.17
377.003	67.07
377.214	17.92
377.424	7.68
377.635	-18.94
377.845	-4.61
378.055	155.13
378.266	26.11
378.476	5.63
378.686	30.21
378.897	26.11
379.107	87.55
379.317	69.12
379.528	118.27
379.738	19.97
379.948	108.03
380.158	140.8
380.369	83.45
380.579	124.41
380.789	17.92
380.999	151.04
381.21	116.22
381.42	101.89
381.63	-14.85
381.84	83.45
382.05	58.88
382.261	50.69
382.471	67.07
382.681	60.93
382.891	140.8
383.101	50.69
383.311	9.73
383.521	13.82
383.731	46.59
383.941	26.11
384.151	42.5
384.361	103.93
384.571	87.55
384.781	91.65
384.991	30.21
385.201	173.57
385.411	58.88
385.621	19.97
385.831	52.74
386.041	65.02
386.251	87.55
386.461	85.5
386.671	67.07
386.881	17.92
387.091	116.22
387.301	58.88
387.511	99.84
387.72	87.55
387.93	44.54
388.14	26.11
388.35	48.64
388.56	132.61
388.769	159.23
388.979	77.31
389.189	19.97
389.399	118.27
389.609	69.12
389.818	175.61
390.028	34.3
390.238	28.16
390.447	75.26
390.657	108.03
390.867	87.55
391.076	7.68
391.286	85.5
391.496	81.41
391.705	75.26
391.915	87.55
392.125	159.23
392.334	124.41
392.544	157.18
392.753	81.41
392.963	83.45
393.172	101.89
393.382	73.21
393.591	83.45
393.801	83.45
394.01	120.32
394.22	101.89
394.429	140.8
394.639	165.37
394.848	103.93
395.058	73.21
395.267	132.61
395.477	50.69
395.686	105.98
395.895	144.89
396.105	181.76
396.314	169.47
396.524	30.21
396.733	128.51
396.942	87.55
397.152	95.74
397.361	124.41
397.57	77.31
397.78	148.99
397.989	85.5
398.198	114.17
398.407	105.98
398.617	124.41
398.826	36.35
399.035	165.37
399.244	112.13
399.453	95.74
399.663	77.31
399.872	105.98
400.081	79.36
400.29	161.28
400.499	128.51
400.708	167.42
400.917	103.93
401.127	91.65
401.336	110.08
401.545	144.89
401.754	110.08
401.963	132.61
402.172	134.65
402.381	110.08
402.59	112.13
402.799	140.8
403.008	146.94
403.217	218.62
403.426	185.85
403.635	71.17
403.844	173.57
404.053	124.41
404.262	241.15
404.471	181.76
404.68	99.84
404.888	169.47
405.097	148.99
405.306	214.52
405.515	202.24
405.724	161.28
405.933	247.29
406.142	192
406.35	183.81
406.559	271.87
406.768	167.42
406.977	198.14
407.185	273.92
407.394	200.19
407.603	288.25
407.812	251.39
408.02	271.87
408.229	318.97
408.438	253.44
408.646	226.81
408.855	296.44
409.064	327.16
409.272	267.77
409.481	298.49
409.69	308.73
409.898	306.68
410.107	368.12
410.315	351.74
410.524	321.02
410.733	374.27
410.941	452.09
411.15	460.28
411.358	488.95
411.567	501.24
411.775	501.24
411.984	427.51
412.192	493.05
412.401	525.82
412.609	577.02
412.818	566.78
413.026	609.78
413.234	587.26
413.443	574.97
413.651	607.73
413.86	695.8
414.068	689.65
414.276	732.66
414.485	673.27
414.693	712.18
414.901	863.73
415.11	798.2
415.318	902.64
415.526	775.67
415.734	845.3
415.943	951.79
416.151	935.41
416.359	902.64
416.567	984.56
416.776	1052.14
416.984	1109.49
417.192	1109.49
417.4	1109.49
417.608	1172.97
417.817	1279.47
418.025	1207.79
418.233	1232.37
418.441	1267.18
418.649	1334.76
418.857	1467.88
419.065	1476.07
419.273	1484.27
419.481	1601
419.689	1654.25
419.897	1748.45
420.105	1779.17
420.313	1758.69
420.521	1846.76
420.729	1861.09
420.937	1893.86
421.145	2051.55
421.353	2248.16
421.561	2196.96
421.769	2180.57
421.977	2356.7
422.185	2336.22
422.393	2526.68
422.601	2727.38
422.809	2667.99
423.017	2520.54
423.224	2663.9
423.432	2915.8
423.64	2948.56
423.848	3186.13
424.056	3136.98
424.263	3186.13
424.471	3237.33
424.679	3341.77
424.887	3501.51
425.094	3612.1
425.302	3626.44
425.51	3763.65
425.718	3870.15
425.925	3907.01
426.133	4111.81
426.341	4314.56
426.548	4500.92
426.756	4449.72
426.964	4543.93
427.171	4793.78
427.379	4890.04
427.586	5123.51
427.794	5137.84
428.001	5420.46
428.209	5746.09
428.417	5490.09
428.624	6067.62
428.832	5928.36
429.039	5873.06
429.247	5817.77
429.454	6368.67
429.662	6786.46
429.869	6358.43
430.076	6968.73
430.284	6632.86
430.491	7120.28
430.699	7488.91
430.906	7308.69
431.114	7431.57
431.321	7835.02
431.528	7878.02
431.736	8373.63
431.943	8795.51
432.15	8369.54
432.358	8486.27
432.565	9166.2
432.772	8938.87
432.979	9389.42
433.187	9526.64
433.394	9762.16
433.601	10358.11
433.808	10394.98
434.016	10251.62
434.223	10638.69
434.43	11330.9
434.637	10917.21
434.844	11763.02
435.052	11920.71
435.259	12219.72
435.466	12084.55
435.673	12074.31
435.88	12498.24
436.087	13321.52
436.294	13284.66
436.501	13004.09
436.708	13405.49
436.915	13700.4
437.122	14163.24
437.329	14292.26
437.537	14687.52
437.743	15076.63
437.95	14837.02
438.157	15310.1
438.364	16123.15
438.571	16047.37
438.778	16108.81
438.985	17827.06
439.192	17022.2
439.399	17368.31
439.606	17042.68
439.813	17827.06
440.02	18894.05
440.227	18621.67
440.433	18433.25
440.64	19221.72
440.847	19242.2
441.054	19911.89
441.261	20792.51
441.467	20335.82
441.674	21179.58
441.881	21843.12
442.088	21793.97
442.294	21505.21
442.501	22078.64
442.708	22416.55
442.914	23274.65
443.121	24616.07
443.328	23573.66
443.534	25451.64
443.741	24632.46
443.948	24286.35
444.154	26186.86
444.361	26084.47
444.568	26184.82
444.774	26322.03
444.981	26362.99
445.187	27337.82
445.394	28517.45
445.6	27716.7
445.807	30528.56
446.013	29238.34
446.22	29813.82
446.426	30635.05
446.633	31349.79
446.839	32295.96
447.046	30561.33
447.252	32848.91
447.459	32646.16
447.665	32379.92
447.871	34149.37
448.078	35720.16
448.284	33678.33
448.491	34735.09
448.697	36064.22
448.903	36834.25
449.11	36799.44
449.316	36269.01
449.522	37061.58
449.728	37878.72
449.935	37985.21
450.141	38214.58
450.347	38857.65
450.553	37678.02
450.76	38251.45
450.966	39021.48
451.172	38898.61
451.378	39791.52
451.584	38994.86
451.791	40074.14
451.997	39865.25
452.203	40674.2
452.409	40440.73
452.615	40512.41
452.821	38667.19
453.027	38388.66
453.233	40549.27
453.44	38859.7
453.646	39146.41
453.852	39277.48
454.058	39863.2
454.264	39099.31
454.47	39279.53
454.676	38796.21
454.882	39953.31
455.088	36654.03
455.294	36787.15
455.5	37475.27
455.705	38058.94
455.911	36355.03
456.117	35662.82
456.323	35269.61
456.529	33725.44
456.735	34903.02
456.941	33600.51
457.147	33354.76
457.352	32406.55
457.558	32097.3
457.764	32173.08
457.97	31161.38
458.176	30630.96
458.381	30579.76
458.587	29178.95
458.793	29254.72
458.999	27685.98
459.204	29432.89
459.41	28861.51
459.616	26838.12
459.821	26690.66
460.027	26872.93
460.233	26047.6
460.438	25177.22
460.644	25093.25
460.85	24061.07
461.055	23544.98
461.261	23551.13
461.466	21718.2
461.672	21042.37
461.878	22607.02
462.083	20847.81
462.289	20604.1
462.494	20892.87
462.7	19627.22
462.905	18750.69
463.111	19930.32
463.316	19535.06
463.522	19473.62
463.727	19416.28
463.932	19360.98
464.138	18982.11
464.343	19426.52
464.549	18533.61
464.754	19129.56
464.959	18816.22
465.165	18953.44
465.37	17900.78
465.575	17698.03
465.781	18142.44
465.986	18457.83
466.191	17507.57
466.397	17270.01
466.602	16444.68
466.807	16968.96
467.012	16973.05
467.218	16934.14
467.423	16882.94
467.628	17073.4
467.833	17204.47
468.038	16700.67
468.244	16286.98
468.449	16971.01
468.654	16508.16
468.859	16098.57
469.064	16033.04
469.269	15432.98
469.474	15598.87
469.679	16018.7
469.885	15609.11
470.09	15770.9
470.295	15578.39
470.5	15043.87
470.705	15330.58
470.91	15217.94
471.115	14728.48
471.32	15013.15
471.525	14929.18
471.73	14695.71
471.935	14282.02
472.139	14105.9
472.344	13995.31
472.549	14116.14
472.754	13782.32
472.959	13598
473.164	13352.24
473.369	13192.5
473.574	13632.82
473.778	13421.88
473.983	13143.35
474.188	13200.69
474.393	12459.33
474.598	12643.65
474.802	12838.2
475.007	12389.7
475.212	12698.94
475.417	11922.76
475.621	11865.42
475.826	12135.75
476.031	11834.7
476.235	11502.93
476.44	11793.74
476.645	11507.02
476.849	11535.7
477.054	11306.32
477.259	11134.29
477.463	11294.04
477.668	10872.15
477.872	11013.46
478.077	10861.91
478.282	10825.05
478.486	10589.53
478.691	10569.05
478.895	10693.98
479.1	10341.73
479.304	10542.43
479.509	10138.98
479.713	10397.03
479.918	10052.97
480.122	9938.28
480.326	10012.01
480.531	10143.08
480.735	9907.56
480.94	9749.87
481.144	9987.43
481.348	9643.37
481.553	9837.93
481.757	9606.51
481.961	9821.55
482.166	9860.46
482.37	9678.19
482.574	9459.06
482.778	9579.89
482.983	9702.76
483.187	9598.32
483.391	9631.09
483.595	9354.61
483.8	9489.78
484.004	9622.89
484.208	9528.69
484.412	9547.12
484.616	9520.49
484.821	9581.93
485.025	9467.25
485.229	9414
485.433	9506.16
485.637	9506.16
485.841	9299.31
486.045	9422.19
486.249	9448.82
486.453	9555.31
486.657	9375.09
486.861	9424.24
487.065	9254.26
487.269	9553.26
487.473	9375.09
487.677	9563.5
487.881	9741.68
488.085	9434.48
488.289	9694.57
488.493	9168.24
488.697	9526.64
488.901	9485.68
489.105	9432.43
489.309	9583.98
489.512	9467.25
489.716	9407.86
489.92	9436.53
490.124	9432.43
490.328	9454.96
490.531	9545.07
490.735	9618.8
490.939	9741.68
491.143	9477.49
491.346	9692.52
491.55	9672.04
491.754	9700.72
491.958	9645.42
492.161	9573.74
492.365	9788.78
492.569	9655.66
492.772	9684.33
492.976	9778.54
493.18	9753.96
493.383	10065.25
493.587	9987.43
493.79	10239.33
493.994	9995.62
494.197	10069.35
494.401	10327.39
494.605	10169.7
494.808	10366.31
495.012	10192.23
495.215	10440.03
495.419	10739.04
495.622	10474.85
495.825	10411.36
496.029	10560.86
496.232	10962.26
496.436	10603.87
496.639	10995.03
496.843	10956.12
497.046	11146.58
497.249	11375.95
497.453	11191.64
497.656	11224.4
497.859	11545.94
498.063	11459.92
498.266	11705.68
498.469	11392.34
498.673	11973.96
498.876	11988.3
499.079	11906.38
499.282	12109.13
499.485	12444.99
499.689	12244.29
499.892	12617.02
500.095	12610.88
500.298	12655.93
500.501	12672.32
500.705	12909.88
500.908	13403.44
501.111	13272.37
501.314	13174.07
501.517	13192.5
501.72	13622.58
501.923	13800.75
502.126	14017.83
502.329	14191.91
502.532	13972.78
502.735	14132.52
502.938	14595.36
503.141	14429.48
503.344	14740.77
503.547	14677.28
503.75	15052.06
503.953	15324.44
504.156	15363.35
504.359	15408.4
504.562	15631.63
504.765	15832.33
504.968	15723.79
505.17	16069.9
505.373	16178.44
505.576	16272.65
505.779	16641.28
505.982	16743.68
506.185	17057.02
506.387	16854.27
506.59	17308.92
506.793	17505.52
506.996	17319.16
507.198	18091.24
507.401	17913.07
507.604	18058.48
507.807	18523.37
508.009	18242.79
508.212	18695.39
508.415	18918.62
508.617	19234.01
508.82	19203.29
509.022	19066.08
509.225	19334.36
509.428	19827.92
509.63	19918.03
509.833	20006.09
510.035	20229.32
510.238	20186.32
510.44	20466.89
510.643	20763.84
510.845	21140.67
511.048	21071.04
511.25	21155.01
511.453	21439.67
511.655	22035.63
511.858	21820.6
512.06	22058.16
512.262	22553.77
512.465	22066.35
512.667	22570.15
512.87	22690.98
513.072	23288.99
513.274	23227.55
513.477	23356.57
513.679	23923.86
513.881	23762.07
514.084	24147.09
514.286	24519.82
514.488	24605.83
514.69	25289.85
514.893	25101.44
515.095	25246.85
515.297	25529.47
515.499	25582.71
515.701	25754.74
515.904	26160.24
516.106	26485.87
516.308	26764.39
516.51	26952.8
516.712	27257.95
516.914	27186.27
517.116	27464.8
517.318	27466.84
517.52	27556.96
517.722	27872.34
517.925	28236.88
518.127	28542.03
518.329	28802.12
518.531	28687.43
518.733	29133.89
518.935	29086.79
519.136	28955.72
519.338	29852.73
519.54	29826.1
519.742	30082.1
519.944	30112.82
520.146	30604.33
520.348	30850.09
520.55	30784.55
520.752	31001.64
520.954	31511.58
521.155	30921.77
521.357	31575.07
521.559	31484.96
521.761	32343.06
521.963	31992.86
522.164	32029.72
522.366	32058.39
522.568	32605.2
522.77	32338.96
522.971	32979.98
523.173	32551.95
523.375	33195.01
523.576	32848.91
523.778	32943.11
523.98	33498.11
524.181	33160.2
524.383	33321.99
524.584	33633.28
524.786	33780.73
524.988	33676.29
525.189	34135.03
525.391	34010.11
525.592	34096.12
525.794	34006.01
525.995	34063.35
526.197	34008.06
526.398	34364.4
526.6	34712.56
526.801	34589.68
527.003	34368.5
527.204	34315.25
527.406	34872.3
527.607	34776.05
527.808	35025.9
528.01	34249.72
528.211	34417.65
528.412	35140.58
528.614	34900.97
528.815	34921.45
529.016	35073
529.218	34757.61
529.419	34847.72
529.62	34747.37
529.822	34483.19
530.023	34708.46
530.224	34567.15
530.425	34634.74
530.626	34087.93
530.828	34237.43
531.029	34823.15
531.23	34378.74
531.431	34407.41
531.632	34534.39
531.833	34454.51
532.035	34259.96
532.236	34739.18
532.437	34505.71
532.638	33887.23
532.839	34548.72
533.04	34499.57
533.241	33997.82
533.442	34599.92
533.643	34116.6
533.844	33899.51
534.045	34370.55
534.246	33868.8
534.447	33926.14
534.648	33467.39
534.849	33934.33
535.05	33438.72
535.251	33801.21
535.451	33508.35
535.652	33881.08
535.853	33547.26
536.054	33678.33
536.255	33969.15
536.456	33498.11
536.657	33723.39
536.857	33381.38
537.058	33395.71
537.259	33682.43
537.46	33485.83
537.66	33057.8
537.861	33371.14
538.062	33154.05
538.263	33086.47
538.463	33109
538.664	33199.11
538.865	32885.77
539.065	33311.75
539.266	32721.93
539.466	33199.11
539.667	32705.55
539.868	33102.85
540.068	32859.15
540.269	32793.61
540.469	32842.76
540.67	32482.32
540.87	32666.64
541.071	32384.02
541.271	32758.8
541.472	32451.6
541.672	32408.59
541.873	32461.84
542.073	32238.61
542.274	32715.79
542.474	32625.68
542.675	32400.4
542.875	32517.14
543.075	32234.52
543.276	31966.23
543.476	32293.91
543.676	32107.54
543.877	32494.61
544.077	32351.25
544.277	32279.57
544.478	32087.06
544.678	32379.92
544.878	32519.18
545.078	32150.55
545.279	32103.45
545.479	32216.08
545.679	32205.84
545.879	32416.79
546.079	32373.78
546.28	32222.23
546.48	31962.14
546.68	32484.37
546.88	31943.7
547.08	32187.41
547.28	32082.97
547.48	31673.37
547.68	32150.55
547.88	31747.1
548.081	32529.42
548.281	32130.07
548.481	31915.03
548.681	32484.37
548.881	32056.34
549.081	32232.47
549.28	31833.11
549.48	32017.43
549.68	31947.8
549.88	32275.48
550.08	32146.45
550.28	31994.9
550.48	31878.17
550.68	32742.41
550.88	31951.9
551.08	32046.1
551.279	32588.81
551.479	32134.17
551.679	32199.7
551.879	32175.13
552.079	32255
552.278	32015.38
552.478	32293.91
552.678	32480.27
552.878	32939.02
553.077	32455.7
553.277	32160.79
553.477	32433.17
553.676	32617.49
553.876	32418.83
554.076	32461.84
554.275	32465.94
554.475	32132.12
554.674	32750.6
554.874	32695.31
555.074	32269.33
555.273	32721.93
555.473	32726.03
555.672	32650.25
555.872	32701.45
556.071	32924.68
556.271	32742.41
556.47	32689.17
556.67	32697.36
556.869	32449.55
557.068	32885.77
557.268	32396.31
557.467	32504.85
557.667	32656.4
557.866	32764.94
558.065	32721.93
558.265	32881.67
558.464	32298
558.663	32889.87
558.863	32699.41
559.062	32875.53
559.261	32652.3
559.461	33258.5
559.66	32318.48
559.859	33340.42
560.058	32693.26
560.258	32979.98
560.457	32472.08
560.656	33111.05
560.855	32758.8
561.054	33238.02
561.253	32705.55
561.453	33117.19
561.652	32922.63
561.851	33283.08
562.05	32953.35
562.249	32748.56
562.448	33012.74
562.647	32865.29
562.846	32744.46
563.045	32721.93
563.244	32498.7
563.443	32605.2
563.642	32513.04
563.841	32822.28
564.04	32631.82
564.239	32734.22
564.438	32433.17
564.637	32572.43
564.836	32580.62
565.035	31962.14
565.234	32705.55
565.432	32381.97
565.631	32281.62
565.83	32666.64
566.029	32326.67
566.228	32293.91
566.427	32035.86
566.625	32003.1
566.824	31906.84
567.023	32287.76
567.222	31478.82
567.42	32541.71
567.619	31722.52
567.818	31833.11
568.016	31663.13
568.215	32148.5
568.414	31761.44
568.612	32003.1
568.811	31515.68
569.01	31585.31
569.208	31458.34
569.407	31448.1
569.605	31192.1
569.804	31237.16
570.002	31243.3
570.201	31511.58
570.4	30919.72
570.598	30934.06
570.797	30645.29
570.995	30850.09
571.193	30520.37
571.392	31046.69
571.59	30733.36
571.789	30528.56
571.987	30540.85
572.186	30532.65
572.384	30245.94
572.582	30829.61
572.781	30852.14
572.979	29869.11
573.177	30389.3
573.376	29973.56
573.574	29504.57
573.772	29953.08
573.971	29748.28
574.169	29682.75
574.367	29475.9
574.565	29641.79
574.763	29416.51
574.962	29451.33
575.16	28927.05
575.358	29094.98
575.556	28728.39
575.754	29385.79
575.952	28892.23
576.151	28910.66
576.349	28738.63
576.547	28505.17
576.745	28791.88
576.943	28652.62
577.141	28333.14
577.339	28449.87
577.537	28218.45
577.735	28585.04
577.933	28030.04
578.131	27855.96
578.329	28050.52
578.527	27595.87
578.725	28077.14
578.923	28044.37
579.121	27579.48
579.319	27624.54
579.516	27561.05
579.714	27606.11
579.912	27272.29
580.11	27288.67
580.308	27747.42
580.506	26854.5
580.704	26698.86
580.901	27135.07
581.099	27362.4
581.297	26909.8
581.495	26795.11
581.692	26897.51
581.89	26387.57
582.088	26737.77
582.285	26272.88
582.483	26522.73
582.681	26401.9
582.878	26623.08
583.076	26029.17
583.274	26125.43
583.471	25910.39
583.669	26031.22
583.866	25830.52
584.064	26254.45
584.262	25513.08
584.459	25767.03
584.657	25726.07
584.854	25857.14
585.052	25279.61
585.249	25691.26
585.447	25674.87
585.644	25519.23
585.841	25539.71
586.039	25615.48
586.236	25160.83
586.434	25420.92
586.631	24847.49
586.828	25398.4
587.026	24982.66
587.223	24908.93
587.42	24953.99
587.618	24720.52
587.815	24429.71
588.012	24597.64
588.21	24681.61
588.407	25304.19
588.604	24790.15
588.801	24278.16
588.999	24634.5
589.196	24171.66
589.393	24620.17
589.59	24376.46
589.787	24208.53
589.984	24128.66
590.182	24042.64
590.379	24179.86
590.576	24229.01
590.773	23993.49
590.97	24126.61
591.167	23966.87
591.364	23700.63
591.561	23987.35
591.758	23856.28
591.955	23430.3
592.152	23686.29
592.349	23622.81
592.546	23946.39
592.743	23604.38
592.94	23493.79
593.137	23608.47
593.334	23682.2
593.531	23143.58
593.727	23780.5
593.924	23387.29
594.121	23213.21
594.318	23590.04
594.515	23145.63
594.712	23725.21
594.908	23186.59
595.105	23393.44
595.302	23379.1
595.499	23555.22
595.696	23379.1
595.892	23121.06
596.089	22971.55
596.286	23348.38
596.482	23454.87
596.679	23082.14
596.876	23202.97
597.072	23053.47
597.269	23280.8
597.466	23116.96
597.662	23143.58
597.859	23024.8
598.055	23217.31
598.252	23301.28
598.448	23346.33
598.645	23151.77
598.841	22906.02
599.038	23348.38
599.234	23592.09
599.431	23037.09
599.627	23321.76
599.824	23282.84
600.02	23211.17
600.217	23192.73
600.413	23305.37
600.609	23264.41
600.806	23164.06
601.002	23233.69
601.198	23065.76
601.395	23352.48
601.591	23309.47
601.787	23321.76
601.984	23303.32
602.18	23790.74
602.376	23315.61
602.572	23303.32
602.769	23356.57
602.965	23301.28
603.161	23311.52
603.357	23356.57
603.553	23291.04
603.75	23319.71
603.946	23626.9
604.142	23790.74
604.338	23583.9
604.534	23749.78
604.73	23659.67
604.926	23708.82
605.122	23684.25
605.318	23585.94
605.514	23602.33
605.71	23563.42
605.906	23841.94
606.102	24020.11
606.298	24118.42
606.494	24001.68
606.69	23989.39
606.886	24294.54
607.082	23995.54
607.278	24142.99
607.474	23692.44
607.67	24308.88
607.866	24050.83
608.062	24460.43
608.257	24442
608.453	24472.71
608.649	24403.08
608.845	24317.07
609.041	24626.31
609.236	24552.59
609.432	24558.73
609.628	24568.97
609.824	24423.56
610.019	24632.46
610.215	24558.73
610.411	24937.6
610.606	24734.85
610.802	25070.72
610.998	24845.44
611.193	24976.51
611.389	24972.42
611.584	24827.01
611.78	24798.34
611.976	24798.34
612.171	24900.74
612.367	24923.27
612.562	24820.87
612.758	24573.07
612.953	25103.49
613.149	25181.31
613.344	25044.1
613.539	25590.91
613.735	25142.4
613.93	25267.33
614.126	25097.35
614.321	25504.89
614.517	25488.51
614.712	25326.72
614.907	25080.96
615.103	25603.19
615.298	25332.86
615.493	25619.58
615.688	24992.9
615.884	25959.54
616.079	25302.14
616.274	25365.63
616.47	25586.81
616.665	25404.54
616.86	25076.87
617.055	25455.74
617.25	25230.46
617.445	25576.57
617.641	25169.02
617.836	25517.18
618.031	24722.57
618.226	25623.67
618.421	24951.94
618.616	25224.32
618.811	24794.25
619.006	25222.27
619.201	24812.68
619.396	25095.3
619.591	24712.33
619.786	25058.43
619.981	24312.97
620.176	24925.32
620.371	24767.62
620.566	24528.01
620.761	24532.11
620.956	24628.36
621.151	24163.47
621.346	24396.94
621.541	24378.51
621.735	24165.52
621.93	23508.12
622.125	23856.28
622.32	23819.41
622.515	23747.73
622.709	23573.66
622.904	23608.47
623.099	23495.83
623.294	23510.17
623.488	23123.1
623.683	23569.56
623.878	23198.88
624.072	23256.22
624.267	22863.01
624.462	22709.41
624.656	22684.84
624.851	22785.19
625.046	22611.11
625.24	22625.45
625.435	22176.94
625.629	22357.16
625.824	22138.03
626.018	22224.04
626.213	21562.55
626.407	22066.35
626.602	21732.53
626.796	21707.96
626.991	21857.46
627.185	21372.09
627.38	21308.6
627.574	21345.47
627.768	21255.36
627.963	20995.26
628.157	20999.36
628.352	21118.14
628.546	20663.49
628.74	20919.49
628.935	20808.9
629.129	20587.72
629.323	20290.76
629.517	20335.82
629.712	20352.2
629.906	19999.95
630.1	19936.46
630.294	20223.18
630.489	20104.4
630.683	19860.69
630.877	19893.46
631.071	19416.28
631.265	19776.72
631.459	19516.63
631.653	19326.17
631.848	19191
632.042	18906.34
632.236	19215.58
632.43	18982.11
632.624	19008.73
632.818	18752.74
633.012	18556.13
633.206	18791.65
633.4	18631.91
633.594	18461.93
633.788	18267.37
633.982	18224.36
634.176	18134.25
634.369	17986.8
634.563	17790.19
634.757	17984.75
634.951	17951.98
635.145	17667.31
635.339	17642.74
635.533	17351.93
635.726	17841.39
635.92	17032.44
636.114	17253.62
636.308	17163.51
636.501	17030.4
636.695	17018.11
636.889	16575.75
637.083	16798.98
637.276	16659.71
637.47	16551.17
637.664	16411.91
637.857	16452.87
638.051	16483.59
638.244	16102.67
638.438	16188.68
638.632	16061.71
638.825	15879.44
639.019	15668.5
639.212	15500.56
639.406	15496.47
639.599	15510.8
639.793	15654.16
639.986	15252.76
640.18	15213.85
640.373	15277.33
640.567	14939.42
640.76	14845.21
640.954	14927.13
641.147	14656.8
641.34	14841.12
641.534	14468.39
641.727	14748.96
641.92	14564.64
642.114	14470.44
642.307	14273.83
642.5	14126.38
642.694	13954.35
642.887	13987.11
643.08	14046.51
643.273	13952.3
643.467	13745.45
643.66	13753.65
643.853	13456.69
644.046	13333.81
644.239	13501.75
644.432	13083.96
644.626	13135.16
644.819	13063.48
645.012	13102.39
645.205	13126.97
645.398	12920.12
645.591	12784.96
645.784	12778.81
645.977	12696.89
646.17	12713.28
646.363	12461.38
646.556	12387.65
646.749	12121.42
646.942	12354.88
647.135	12373.32
647.328	12033.35
647.521	12207.43
647.714	12035.4
647.907	12008.78
648.099	12021.06
648.292	11775.31
648.485	11607.37
648.678	11539.79
648.871	11511.12
649.064	11605.33
649.256	11474.26
649.449	11519.31
649.642	11332.95
649.835	11216.21
650.027	11156.82
650.22	11312.47
650.413	10958.17
650.605	10894.68
650.798	11019.61
650.991	10839.39
651.183	10859.87
651.376	10726.75
651.568	10577.25
651.761	10638.69
651.954	10726.75
652.146	10546.53
652.339	10380.64
652.531	10384.74
652.724	10306.91
652.916	10241.38
653.109	10302.82
653.301	10351.97
653.494	10290.53
653.686	9991.53
653.879	10098.02
654.071	10052.97
654.263	9874.79
654.456	9715.05
654.648	9788.78
654.84	9692.52
655.033	9678.19
655.225	9762.16
655.417	9457.01
655.61	9577.84
655.802	9622.89
655.994	9440.62
656.186	9039.22
656.379	9395.57
656.571	9256.31
656.763	9176.44
656.955	9192.82
657.148	9282.93
657.34	9201.01
657.532	8832.38
657.724	9125.24
657.916	8947.06
658.108	8947.06
658.3	8924.54
658.492	9061.75
658.684	8660.35
658.876	8721.79
659.068	8596.86
659.26	8684.92
659.452	8686.97
659.644	8482.17
659.836	8473.98
660.028	8488.32
660.22	8185.22
660.412	8258.95
660.604	8222.08
660.796	8209.79
660.988	8123.78
661.18	8211.84
661.372	8045.96
661.563	8197.51
661.755	7896.46
661.947	7947.65
662.139	7814.54
662.331	7820.68
662.522	7673.23
662.714	7695.75
662.906	7587.21
663.097	7669.13
663.289	7501.2
663.481	7638.41
663.673	7540.11
663.864	7441.81
664.056	7366.03
664.247	7591.31
664.439	7206.29
664.631	7318.93
664.822	7415.18
665.014	7384.46
665.205	7374.22
665.397	7155.09
665.588	7079.32
665.78	7095.7
665.971	7226.77
666.163	7163.28
666.354	6981.01
666.546	6976.92
666.737	6851.99
666.929	6765.98
667.12	6829.46
667.311	6851.99
667.503	6673.82
667.694	6606.24
667.885	6706.59
668.077	6577.56
668.268	6526.36
668.459	6698.39
668.651	6565.28
668.842	6532.51
669.033	6514.08
669.224	6458.78
669.416	6503.84
669.607	6452.64
669.798	6317.47
669.989	6481.31
670.18	6284.7
670.371	6251.94
670.563	6227.36
670.754	6288.8
670.945	6215.07
671.136	6239.65
671.327	6180.26
671.518	6096.29
671.709	6114.72
671.9	6202.79
672.091	6071.72
672.282	6030.76
672.473	6008.23
672.664	6055.33
672.855	6026.66
673.046	5946.79
673.237	6047.14
673.428	5897.64
673.619	5918.12
673.809	5852.58
674	5877.16
674.191	5842.34
674.382	5723.56
674.573	5807.53
674.764	5875.11
674.954	5811.62
675.145	5684.65
675.336	5830.06
675.527	5612.97
675.717	5850.53
675.908	5686.7
676.099	5592.49
676.289	5629.35
676.48	5703.08
676.671	5684.65
676.861	5615.02
677.052	5635.5
677.243	5625.26
677.433	5541.29
677.624	5735.85
677.814	5604.78
678.005	5658.03
678.195	5707.18
678.386	5604.78
678.576	5389.74
678.767	5612.97
678.957	5631.4
679.148	5531.05
679.338	5502.38
679.529	5424.56
679.719	5375.41
679.909	5623.21
680.1	5389.74
680.29	5625.26
680.481	5428.65
680.671	5551.53
680.861	5408.17
681.052	5567.92
681.242	5334.45
681.432	5520.81
681.622	5268.91
681.813	5475.76
682.003	5260.72
682.193	5416.37
682.383	5516.72
682.573	5641.64
682.764	5383.6
682.954	5414.32
683.144	5477.8
683.334	5424.56
683.524	5410.22
683.714	5316.01
683.904	5354.93
684.094	5410.22
684.284	5494.19
684.474	5547.44
684.664	5213.62
684.854	5289.39
685.044	5377.45
685.234	5336.49
685.424	5305.78
685.614	5252.53
685.804	5334.45
685.994	5258.67
686.184	5330.35
686.374	5256.62
686.564	5242.29
686.753	5361.07
686.943	5008.82
687.133	5262.77
687.323	5125.55
687.513	5113.27
687.702	5141.94
687.892	5219.76
688.082	5279.15
688.272	5328.3
688.461	5184.94
688.651	5172.66
688.841	5039.54
689.03	5047.73
689.22	5174.71
689.41	5154.23
689.599	5164.47
689.789	4978.1
689.979	5010.87
690.168	5205.42
690.358	4906.42
690.547	4996.53
690.737	4996.53
690.926	4887.99
691.116	4963.76
691.305	5107.12
691.495	4885.94
691.684	4937.14
691.874	4994.48
692.063	4951.48
692.252	4851.13
692.442	5078.45
692.631	4769.21
692.82	4818.36
693.01	4820.41
693.199	4896.18
693.388	4779.45
693.578	4873.65
693.767	4797.88
693.956	4773.3
694.146	4797.88
694.335	4703.67
694.524	4879.8
694.713	4879.8
694.902	4736.44
695.092	4861.37
695.281	4705.72
695.47	4744.63
695.659	4773.3
695.848	4625.85
696.037	4761.02
696.226	4693.43
696.415	4558.27
696.604	4793.78
696.793	4615.61
696.982	4517.31
697.171	4621.75
697.36	4638.14
697.549	4638.14
697.738	4490.68
697.927	4535.74
698.116	4466.11
698.305	4445.63
698.494	4593.08
698.683	4523.45
698.872	4629.95
699.061	4580.79
699.25	4564.41
699.438	4373.95
699.627	4451.77
699.816	4574.65
700.005	4339.13
700.193	4541.88
700.382	4435.39
700.571	4392.38
700.76	4349.37
700.948	4373.95
701.137	4404.67
701.326	4220.35
701.514	4392.38
701.703	4363.71
701.892	4394.43
702.08	4300.22
702.269	4332.99
702.457	4285.89
702.646	4351.42
702.834	4154.82
703.023	4246.98
703.212	4265.41
703.4	4337.09
703.589	4206.02
703.777	4177.34
703.965	4173.25
704.154	4187.58
704.342	4142.53
704.531	4111.81
704.719	4105.67
704.907	4246.98
705.096	4015.55
705.284	4181.44
705.472	4081.09
705.661	4160.96
705.849	4144.58
706.037	4117.95
706.226	4058.56
706.414	4113.86
706.602	4107.71
706.79	3999.17
706.979	3966.4
707.167	3956.16
707.355	4056.51
707.543	3823.05
707.731	3974.6
707.919	3851.72
708.107	3958.21
708.296	3780.04
708.484	3788.23
708.672	3876.29
708.86	3753.41
709.048	3997.12
709.236	3853.77
709.424	3980.74
709.612	3827.14
709.8	3687.88
709.988	3671.5
710.176	3659.21
710.364	3712.46
710.551	3745.22
710.739	3724.74
710.927	3884.48
711.115	3671.5
711.303	3704.26
711.491	3786.18
711.679	3612.1
711.866	3663.3
712.054	3605.96
712.242	3440.08
712.43	3589.58
712.617	3745.22
712.805	3544.52
712.993	3546.57
713.181	3612.1
713.368	3474.89
713.556	3526.09
713.744	3542.47
713.931	3605.96
714.119	3507.66
714.306	3616.2
714.494	3509.71
714.682	3507.66
714.869	3399.12
715.057	3442.12
715.244	3503.56
715.432	3552.71
715.619	3399.12
715.807	3337.68
715.994	3452.36
716.182	3331.53
716.369	3376.59
716.556	3405.26
716.744	3413.45
716.931	3315.15
717.119	3233.23
717.306	3253.71
717.493	3157.46
717.681	3319.25
717.868	3147.22
718.055	3288.53
718.242	3186.13
718.43	3435.98
718.617	3374.54
718.804	3151.31
718.991	3259.85
719.179	3233.23
719.366	3147.22
719.553	3210.7
719.74	3106.26
719.927	3282.38
720.114	3212.75
720.301	3171.79
720.488	2983.38
720.676	3079.63
720.863	3253.71
721.05	3188.18
721.237	3093.97
721.424	3145.17
721.611	3114.45
721.798	3016.15
721.985	3034.58
722.172	3239.37
722.358	3067.35
722.545	3026.39
722.732	2958.8
722.919	2852.31
723.106	2784.73
723.293	2876.88
723.48	2969.04
723.667	2964.95
723.853	2883.03
724.04	2962.9
724.227	2813.4
724.414	2854.36
724.6	2958.8
724.787	2975.19
724.974	2944.47
725.161	2934.23
725.347	2803.16
725.534	2856.4
725.72	2837.97
725.907	2825.68
726.094	2876.88
726.28	2756.05
726.467	2725.33
726.653	2786.77
726.84	2840.02
727.027	2889.17
727.213	2696.66
727.4	2708.95
727.586	2729.43
727.773	2774.49
727.959	2622.94
728.145	2612.7
728.332	2704.85
728.518	2592.22
728.705	2573.78
728.891	2819.54
729.077	2704.85
729.264	2622.94
729.45	2772.44
729.636	2631.13
729.823	2729.43
730.009	2688.47
730.195	2569.69
730.382	2639.32
730.568	2581.98
730.754	2663.9
730.94	2571.74
731.126	2645.46
731.313	2549.21
731.499	2631.13
731.685	2624.98
731.871	2455
732.057	2612.7
732.243	2510.3
732.429	2590.17
732.615	2643.42
732.801	2508.25
732.987	2567.64
733.173	2502.11
733.359	2500.06
733.545	2510.3
733.731	2377.18
733.917	2483.67
734.103	2602.46
734.289	2420.19
734.475	2360.8
734.661	2577.88
734.847	2475.48
735.033	2450.91
735.219	2428.38
735.404	2387.42
735.59	2323.93
735.776	2436.57
735.962	2303.45
736.148	2352.6
736.333	2436.57
736.519	2465.24
736.705	2328.03
736.89	2340.32
737.076	2338.27
737.262	2368.99
737.447	2323.93
737.633	2332.12
737.819	2348.51
738.004	2381.28
738.19	2340.32
738.375	2381.28
738.561	2348.51
738.747	2336.22
738.932	2262.49
739.118	2215.39
739.303	2282.97
739.489	2328.03
739.674	2233.82
739.859	2244.06
740.045	2180.57
740.23	2381.28
740.416	2090.46
740.601	2309.6
740.786	2098.66
740.972	2110.94
741.157	2086.37
741.342	2074.08
741.528	2164.19
741.713	2190.81
741.898	2074.08
742.084	2092.51
742.269	2188.77
742.454	2108.9
742.639	2082.27
742.824	2053.6
743.01	2123.23
743.195	2033.12
743.38	2090.46
743.565	1934.82
743.75	2088.42
743.935	2053.6
744.12	2053.6
744.305	1930.72
744.49	1836.52
744.675	1928.67
744.86	1975.78
745.045	2010.59
745.23	1945.06
745.415	1861.09
745.6	1934.82
745.785	1719.78
745.97	1967.59
746.155	1813.99
746.34	1871.33
746.525	1828.32
746.71	1914.34
746.895	1779.17
747.079	1852.9
747.264	1854.95
747.449	1887.72
747.634	1789.41
747.819	1836.52
748.003	1779.17
748.188	1738.21
748.373	1828.32
748.557	1824.23
748.742	1705.45
748.927	1727.97
749.111	1734.12
749.296	1711.59
749.481	1633.77
749.665	1648.1
749.85	1666.53
750.034	1746.41
750.219	1635.82
750.404	1664.49
750.588	1533.42
750.773	1584.62
750.957	1590.76
751.141	1691.11
751.326	1543.66
751.51	1564.14
751.695	1592.81
751.879	1504.75
752.064	1527.27
752.248	1525.22
752.432	1545.7
752.617	1428.97
752.801	1676.77
752.985	1535.46
753.17	1494.51
753.354	1418.73
753.538	1420.78
753.722	1467.88
753.907	1435.11
754.091	1428.97
754.275	1363.44
754.459	1392.11
754.643	1443.31
754.828	1390.06
755.012	1400.3
755.196	1273.32
755.38	1369.58
755.564	1340.91
755.748	1359.34
755.932	1371.63
756.116	1232.37
756.3	1345
756.484	1279.47
756.668	1308.14
756.852	1222.13
757.036	1287.66
757.22	1205.74
757.404	1181.17
757.588	1324.52
757.772	1287.66
757.956	1314.28
758.14	1213.93
758.323	1132.01
758.507	1181.17
758.691	1105.39
758.875	1132.01
759.059	1148.4
759.242	1193.45
759.426	1213.93
759.61	1175.02
759.794	1146.35
759.977	1064.43
760.161	1215.98
760.345	1175.02
760.528	1097.2
760.712	1078.77
760.895	1093.1
761.079	1076.72
761.263	1052.14
761.446	1086.96
761.63	1099.25
761.813	1218.03
761.997	1099.25
762.18	1043.95
762.364	1064.43
762.547	962.03
762.731	1043.95
762.914	1015.28
763.098	994.8
763.281	1033.71
763.464	1019.38
763.648	988.66
763.831	935.41
764.015	1050.1
764.198	1019.38
764.381	1011.18
764.564	976.37
764.748	1050.1
764.931	980.47
765.114	945.65
765.297	1005.04
765.481	953.84
765.664	919.03
765.847	947.7
766.03	1043.95
766.213	900.59
766.397	1023.47
766.58	904.69
766.763	933.36
766.946	906.74
767.129	878.07
767.312	921.07
767.495	919.03
767.678	925.17
767.861	880.11
768.044	880.11
768.227	869.87
768.41	830.96
768.593	1000.94
768.776	939.51
768.959	810.48
769.142	937.46
769.324	927.22
769.507	910.83
769.69	890.35
769.873	849.4
770.056	943.6
770.239	921.07
770.421	939.51
770.604	894.45
770.787	962.03
770.97	873.97
771.152	814.58
771.335	908.79
771.518	812.53
771.7	822.77
771.883	749.04
772.066	787.96
772.248	873.97
772.431	841.2
772.613	904.69
772.796	859.63
772.978	816.63
773.161	855.54
773.343	740.85
773.526	833.01
773.708	708.09
773.891	681.46
774.073	833.01
774.256	747
774.438	818.68
774.621	730.61
774.803	747
774.985	708.09
775.168	787.96
775.35	706.04
775.532	749.04
775.715	712.18
775.897	775.67
776.079	751.09
776.261	697.85
776.444	755.19
776.626	722.42
776.808	691.7
776.99	673.27
777.173	650.74
777.355	689.65
777.537	679.41
777.719	636.41
777.901	624.12
778.083	681.46
778.265	697.85
778.447	689.65
778.629	607.73
778.811	677.37
778.993	583.16
779.175	628.21
779.357	607.73
779.539	607.73
779.721	538.1
779.903	599.54
780.085	620.02
780.267	560.63
780.449	634.36
780.631	613.88
780.812	603.64
780.994	566.78
781.176	540.15
781.358	574.97
781.54	517.62
781.721	544.25
781.903	519.67
782.085	468.47
782.267	583.16
782.448	519.67
782.63	484.86
782.812	503.29
782.993	525.82
783.175	536.06
783.357	509.43
783.538	577.02
783.72	421.37
783.901	460.28
784.083	544.25
784.264	550.39
784.446	474.62
784.627	452.09
784.809	517.62
784.99	427.51
785.172	486.9
785.353	441.85
785.535	427.51
785.716	486.9
785.897	378.36
786.079	470.52
786.26	519.67
786.441	402.94
786.623	437.75
786.804	374.27
786.985	411.13
787.167	456.19
787.348	452.09
787.529	402.94
787.71	493.05
787.891	378.36
788.073	429.56
788.254	355.83
788.435	427.51
788.616	454.14
788.797	380.41
788.978	435.71
789.159	347.64
789.34	427.51
789.522	312.83
789.703	370.17
789.884	339.45
790.065	296.44
790.246	429.56
790.427	314.88
790.607	396.79
790.788	333.31
790.969	331.26
791.15	345.59
791.331	388.6
791.512	357.88
791.693	396.79
791.874	347.64
792.054	429.56
792.235	407.03
792.416	298.49
792.597	280.06
792.778	394.75
792.958	351.74
793.139	316.92
793.32	275.96
793.5	306.68
793.681	321.02
793.862	370.17
794.042	372.22
794.223	298.49
794.404	271.87
794.584	339.45
794.765	331.26
794.945	345.59
795.126	321.02
795.306	333.31
795.487	237.05
795.667	241.15
795.848	312.83
796.028	288.25
796.209	296.44
796.389	282.11
796.57	251.39
796.75	239.1
796.93	300.54
797.111	265.72
797.291	329.21
797.471	341.5
797.652	312.83
797.832	284.16
798.012	271.87
798.192	314.88
798.373	273.92
798.553	321.02
798.733	300.54
798.913	271.87
799.093	228.86
799.274	265.72
799.454	308.73
799.634	257.53
799.814	302.59
799.994	271.87
800.174	181.76
800.354	210.43
800.534	265.72
800.714	280.06
800.894	241.15
801.074	200.19
801.254	222.72
801.434	321.02
801.614	194.05
801.794	161.28
801.974	869.87
802.154	200.19
802.334	206.33
802.514	83.45
802.693	206.33
802.873	206.33
803.053	243.2
803.233	323.07
803.413	206.33
803.592	181.76
803.772	192
803.952	247.29
804.131	187.9
804.311	232.96
804.491	288.25
804.67	185.85
804.85	183.81
805.03	192
805.209	296.44
805.389	177.66
805.568	222.72
805.748	222.72
805.928	165.37
806.107	288.25
806.287	271.87
806.466	249.34
806.646	204.28
806.825	148.99
807.004	161.28
807.184	263.68
807.363	157.18
807.543	177.66
807.722	163.33
807.901	249.34
808.081	239.1
808.26	153.09
808.439	126.46
808.619	138.75
808.798	130.56
808.977	230.91
809.156	157.18
809.336	210.43
809.515	202.24
809.694	177.66
809.873	169.47
810.052	206.33
810.231	173.57
810.411	173.57
810.59	148.99
810.769	200.19
810.948	194.05
811.127	89.6
811.306	206.33
811.485	75.26
811.664	249.34
811.843	132.61
812.022	159.23
812.201	126.46
812.38	126.46
812.559	239.1
812.737	230.91
812.916	124.41
813.095	140.8
813.274	134.65
813.453	155.13
813.632	142.85
813.811	206.33
813.989	28.16
814.168	124.41
814.347	155.13
814.526	157.18
814.704	157.18
814.883	220.67
815.062	128.51
815.24	153.09
815.419	132.61
815.598	183.81
815.776	93.69
815.955	108.03
816.133	91.65
816.312	91.65
816.49	50.69
816.669	187.9
816.847	148.99
817.026	189.95
817.204	126.46
817.383	60.93
817.561	173.57
817.74	118.27
817.918	196.09
818.097	42.5
818.275	126.46
818.453	118.27
818.632	95.74
818.81	105.98
818.988	67.07
819.167	126.46
819.345	120.32
819.523	198.14
819.701	124.41
819.879	83.45
820.058	189.95
820.236	157.18
820.414	140.8
820.592	108.03
820.77	155.13
820.948	110.08
821.127	153.09
821.305	130.56
821.483	79.36
821.661	187.9
821.839	151.04
822.017	116.22
822.195	93.69
822.373	128.51
822.551	91.65
822.729	91.65
822.907	52.74
823.085	93.69
823.262	173.57
823.44	34.3
823.618	91.65
823.796	140.8
823.974	95.74
824.152	108.03
824.329	146.94
824.507	161.28
824.685	95.74
824.863	48.64
825.04	58.88
825.218	157.18
825.396	130.56
825.574	165.37
825.751	114.17
825.929	148.99
826.107	42.5
826.284	173.57
826.462	120.32
826.639	114.17
826.817	87.55
826.994	126.46
827.172	24.06
827.349	169.47
827.527	99.84
827.704	110.08
827.882	58.88
828.059	67.07
828.237	50.69
828.414	83.45
828.591	38.4
828.769	116.22
828.946	-4.61
829.124	243.2
829.301	75.26
829.478	89.6
829.655	26.11
829.833	38.4
830.01	58.88
830.187	73.21
830.364	108.03
830.542	87.55
830.719	148.99
830.896	126.46
831.073	99.84
831.25	62.98
831.427	175.61
831.604	3.58
831.782	52.74
831.959	62.98
832.136	77.31
832.313	126.46
832.49	101.89
832.667	95.74
832.844	93.69
833.021	116.22
833.198	87.55
833.374	101.89
833.551	126.46
833.728	54.78
833.905	132.61
834.082	-31.23
834.259	91.65
834.436	7.68
834.612	9.73
834.789	83.45
834.966	118.27
835.143	54.78
835.319	40.45
835.496	101.89
835.673	99.84
835.85	116.22
836.026	81.41
836.203	62.98
836.38	32.26
836.556	26.11
836.733	62.98
836.909	87.55
837.086	42.5
837.262	28.16
837.439	71.17
837.616	97.79
837.792	58.88
837.968	105.98
838.145	34.3
838.321	60.93
838.498	85.5
838.674	58.88
838.851	44.54
839.027	50.69
839.203	15.87
839.38	83.45
839.556	60.93
839.732	81.41
839.909	22.02
840.085	79.36
840.261	22.02
840.437	50.69
840.614	-14.85
840.79	46.59
840.966	99.84
841.142	67.07
841.318	34.3
841.494	151.04
841.671	75.26
841.847	-16.9
842.023	-2.56
842.199	85.5
842.375	42.5
842.551	48.64
842.727	108.03
842.903	95.74
843.079	56.83
843.255	85.5
843.431	73.21
843.607	87.55
843.783	11.78
843.959	58.88
844.134	44.54
844.31	126.46
844.486	34.3
844.662	54.78
844.838	26.11
845.013	157.18
845.189	46.59
845.365	44.54
845.541	9.73
845.716	36.35
845.892	-16.9
846.068	122.37
846.244	34.3
846.419	108.03
846.595	-4.61
846.77	1.54
846.946	124.41
847.122	91.65
847.297	60.93
847.473	75.26
847.648	-6.66
847.824	22.02
847.999	42.5
848.175	36.35
848.35	46.59
848.526	103.93
848.701	3.58
848.876	116.22
849.052	44.54
849.227	9.73
849.403	11.78
849.578	17.92
849.753	116.22
849.929	93.69
850.104	93.69
850.279	30.21
850.454	69.12
850.63	67.07
850.805	50.69
850.98	36.35
851.155	75.26
851.33	67.07
851.505	13.82
851.681	34.3
851.856	46.59
852.031	65.02
852.206	-4.61
852.381	34.3
852.556	17.92
852.731	77.31
852.906	67.07
853.081	140.8
853.256	89.6
853.431	17.92
853.606	-47.62
853.781	42.5
853.956	28.16
854.131	75.26
854.305	15.87
854.48	34.3
854.655	3.58
854.83	-27.14
855.005	7.68
855.18	34.3
855.354	-47.62
855.529	17.92
855.704	-31.23
855.879	60.93
856.053	-35.33
856.228	28.16
856.403	-64
856.577	132.61
856.752	26.11
856.926	-39.42
857.101	-29.18
857.276	-8.7
857.45	11.78
857.625	62.98
857.799	54.78
857.974	67.07
858.148	3.58
858.323	7.68
858.497	54.78
858.672	58.88
858.846	1.54
859.02	83.45
859.195	11.78
859.369	52.74
859.543	17.92
859.718	60.93
859.892	36.35
860.066	-12.8
860.241	9.73
860.415	-27.14
860.589	30.21
860.763	42.5
860.938	50.69
861.112	3.58
861.286	60.93
861.46	58.88
861.634	17.92
861.808	83.45
861.982	-31.23
862.157	1.54
862.331	54.78
862.505	34.3
862.679	-10.75
862.853	87.55
863.027	46.59
863.201	93.69
863.375	-35.33
863.549	28.16
863.722	13.82
863.896	24.06
864.07	54.78
864.244	-2.56
864.418	42.5
864.592	99.84
864.766	9.73
864.939	-12.8
865.113	19.97
865.287	85.5
865.461	40.45
865.634	56.83
865.808	46.59
865.982	1.54
866.156	22.02
866.329	-55.81
866.503	91.65
866.676	-8.7
866.85	28.16
867.024	22.02
867.197	99.84
867.371	99.84
867.544	54.78
867.718	-64
867.891	46.59
868.065	15.87
868.238	89.6
868.412	3.58
868.585	-94.72
868.759	17.92
868.932	3.58
869.105	-55.81
869.279	-6.66
869.452	-31.23
869.625	-18.94
869.799	22.02
869.972	1.54
870.145	-14.85
870.319	124.41
870.492	17.92
870.665	-27.14
870.838	-27.14
871.011	-53.76
871.185	-55.81
871.358	-57.86
871.531	50.69
871.704	-27.14
871.877	34.3
872.05	-76.29
872.223	-14.85
872.396	9.73
872.569	17.92
872.742	-27.14
872.915	-0.51
873.088	3.58
873.261	1.54
873.434	17.92
873.607	73.21
873.78	-14.85
873.953	44.54
874.126	71.17
874.299	-2.56
874.471	17.92
874.644	-6.66
874.817	52.74
874.99	110.08
875.163	58.88
875.335	48.64
875.508	-4.61
875.681	28.16
875.853	-29.18
876.026	34.3
876.199	-51.71
876.371	22.02
876.544	54.78
876.717	-27.14
876.889	-6.66
877.062	17.92
877.234	1.54
877.407	-66.05
877.579	83.45
877.752	-29.18
877.924	62.98
878.097	17.92
878.269	-53.76
878.442	9.73
878.614	36.35
878.786	38.4
878.959	17.92
879.131	54.78
879.303	17.92
879.476	54.78
879.648	44.54
879.82	60.93
879.993	-14.85
880.165	5.63
880.337	-47.62
880.509	-4.61
880.681	-6.66
880.854	-29.18
881.026	-51.71
881.198	153.09
881.37	28.16
881.542	22.02
881.714	-39.42
881.886	-18.94
882.058	17.92
882.23	-12.8
882.402	11.78
882.574	77.31
882.746	-2.56
882.918	17.92
883.09	58.88
883.262	79.36
883.434	54.78
883.606	-57.86
883.778	-0.51
883.95	73.21
884.122	-6.66
884.293	71.17
884.465	-12.8
884.637	34.3
884.809	-37.38
884.98	110.08
885.152	36.35
885.324	-16.9
885.496	-53.76
885.667	11.78
885.839	151.04
886.011	-6.66
886.182	13.82
886.354	9.73
886.525	44.54
886.697	1.54
886.869	-27.14
887.04	-6.66
887.212	56.83
887.383	87.55
887.555	-33.28
887.726	-12.8
887.897	-84.48
888.069	103.93
888.24	-10.75
888.412	26.11
888.583	-18.94
888.754	52.74
888.926	-70.14
889.097	-23.04
889.268	-74.24
889.44	69.12
889.611	-104.96
889.782	-53.76
889.953	-16.9
890.125	85.5
890.296	-14.85
890.467	3.58
890.638	-111.1
890.809	17.92
890.98	24.06
891.151	42.5
891.323	73.21
891.494	-55.81
891.665	40.45
891.836	42.5
892.007	30.21
892.178	50.69
892.349	17.92
892.52	9.73
892.691	-2.56
892.862	40.45
893.032	36.35
893.203	58.88
893.374	9.73
893.545	58.88
893.716	-23.04
893.887	112.13
894.057	28.16
894.228	-14.85
894.399	26.11
894.57	67.07
894.74	17.92
894.911	46.59
895.082	-2.56
895.253	-12.8
895.423	28.16
895.594	28.16
895.764	38.4
895.935	26.11
896.106	34.3
896.276	34.3
896.447	58.88
896.617	13.82
896.788	36.35
896.958	1.54
897.129	-14.85
897.299	-76.29
897.47	-20.99
897.64	22.02
897.81	42.5
897.981	-12.8
898.151	-29.18
898.322	22.02
898.492	-27.14
898.662	42.5
898.832	-10.75
899.003	-27.14
899.173	-31.23
899.343	-16.9
899.513	13.82
