Data from USB4F104151__98__14-30-47-668.txt Node

Date: Thu Mar 13 14:30:47 EDT 2025
User: louis
Spectrometer: USB4F10415
Trigger mode: 4
Integration Time (sec): 2.500000E-2
Scans to average: 1
Electric dark correction enabled: true
Nonlinearity correction enabled: false
Boxcar width: 0
XAxis mode: Wavelengths
Number of Pixels in Spectrum: 3648
>>>>>Begin Spectral Data<<<<<
178.204	-165.71
178.424	-165.71
178.644	-165.71
178.864	-194.39
179.084	-114.52
179.304	8.36
179.524	-57.17
179.744	-8.02
179.964	65.71
180.184	-38.74
180.404	51.37
180.624	45.23
180.844	32.94
181.064	-81.75
181.283	-10.07
181.503	-8.02
181.723	0.17
181.943	39.08
182.163	32.94
182.383	28.84
182.602	96.43
182.822	0.17
183.042	94.38
183.262	-28.5
183.482	51.37
183.701	20.65
183.921	67.75
184.141	41.13
184.361	41.13
184.58	73.9
184.8	102.57
185.02	30.89
185.239	26.79
185.459	8.36
185.679	39.08
185.898	-53.08
186.118	114.86
186.338	0.17
186.557	112.81
186.777	2.22
186.997	0.17
187.216	-26.45
187.436	77.99
187.655	67.75
187.875	75.95
188.095	41.13
188.314	100.52
188.534	73.9
188.753	53.42
188.973	57.51
189.192	123.05
189.412	73.9
189.631	41.13
189.851	67.75
190.07	67.75
190.29	6.31
190.509	57.51
190.729	84.14
190.948	82.09
191.168	106.67
191.387	118.95
191.607	77.99
191.826	-22.36
192.045	-3.93
192.265	-20.31
192.484	61.61
192.704	26.79
192.923	-20.31
193.142	18.6
193.362	166.06
193.581	53.42
193.8	65.71
194.02	82.09
194.239	34.99
194.458	57.51
194.678	37.03
194.897	10.41
195.116	114.86
195.335	12.46
195.555	41.13
195.774	0.17
195.993	77.99
196.212	49.32
196.432	49.32
196.651	65.71
196.87	77.99
197.089	90.28
197.308	100.52
197.528	110.76
197.747	82.09
197.966	65.71
198.185	100.52
198.404	108.71
198.623	43.18
198.842	73.9
199.062	77.99
199.281	43.18
199.5	45.23
199.719	71.85
199.938	90.28
200.157	131.24
200.376	57.51
200.595	51.37
200.814	135.34
201.033	75.95
201.252	55.47
201.471	57.51
201.69	123.05
201.909	94.38
202.128	8.36
202.347	129.19
202.566	92.33
202.785	24.75
203.004	57.51
203.223	116.9
203.442	57.51
203.661	2.22
203.879	67.75
204.098	141.48
204.317	65.71
204.536	41.13
204.755	96.43
204.974	82.09
205.193	65.71
205.411	92.33
205.63	73.9
205.849	4.27
206.068	24.75
206.287	59.56
206.505	41.13
206.724	57.51
206.943	75.95
207.162	-3.93
207.381	49.32
207.599	32.94
207.818	65.71
208.037	-12.12
208.255	116.9
208.474	84.14
208.693	88.23
208.911	32.94
209.13	71.85
209.349	73.9
209.567	114.86
209.786	82.09
210.005	100.52
210.223	-14.17
210.442	-5.97
210.661	65.71
210.879	2.22
211.098	4.27
211.316	75.95
211.535	94.38
211.753	32.94
211.972	-16.21
212.191	-3.93
212.409	24.75
212.628	41.13
212.846	24.75
213.065	51.37
213.283	84.14
213.502	16.55
213.72	16.55
213.938	57.51
214.157	16.55
214.375	75.95
214.594	0.17
214.812	94.38
215.031	-22.36
215.249	18.6
215.467	34.99
215.686	28.84
215.904	172.2
216.122	-42.84
216.341	84.14
216.559	37.03
216.778	90.28
216.996	112.81
217.214	4.27
217.432	34.99
217.651	41.13
217.869	84.14
218.087	53.42
218.306	-32.6
218.524	57.51
218.742	10.41
218.96	32.94
219.179	-14.17
219.397	4.27
219.615	108.71
219.833	135.34
220.051	61.61
220.27	67.75
220.488	67.75
220.706	41.13
220.924	28.84
221.142	55.47
221.36	43.18
221.578	92.33
221.796	92.33
222.015	84.14
222.233	18.6
222.451	108.71
222.669	41.13
222.887	24.75
223.105	30.89
223.323	84.14
223.541	26.79
223.759	34.99
223.977	4.27
224.195	112.81
224.413	51.37
224.631	-16.21
224.849	34.99
225.067	127.14
225.285	16.55
225.503	-40.79
225.721	-69.46
225.939	8.36
226.157	49.32
226.375	24.75
226.592	-38.74
226.81	67.75
227.028	114.86
227.246	100.52
227.464	10.41
227.682	77.99
227.9	127.14
228.117	26.79
228.335	67.75
228.553	59.56
228.771	4.27
228.989	8.36
229.206	69.8
229.424	22.7
229.642	20.65
229.86	49.32
230.077	108.71
230.295	18.6
230.513	51.37
230.731	63.66
230.948	147.62
231.166	63.66
231.384	28.84
231.601	73.9
231.819	90.28
232.037	-16.21
232.254	26.79
232.472	37.03
232.689	24.75
232.907	49.32
233.125	84.14
233.342	-48.98
233.56	51.37
233.777	20.65
233.995	18.6
234.213	147.62
234.43	65.71
234.648	26.79
234.865	-28.5
235.083	84.14
235.3	34.99
235.518	61.61
235.735	28.84
235.953	61.61
236.17	-20.31
236.388	73.9
236.605	73.9
236.822	57.51
237.04	155.82
237.257	16.55
237.475	73.9
237.692	92.33
237.909	51.37
238.127	-24.4
238.344	2.22
238.562	0.17
238.779	16.55
238.996	16.55
239.214	164.01
239.431	65.71
239.648	57.51
239.865	123.05
240.083	24.75
240.3	98.47
240.517	2.22
240.735	2.22
240.952	82.09
241.169	65.71
241.386	49.32
241.603	73.9
241.821	41.13
242.038	82.09
242.255	73.9
242.472	30.89
242.689	45.23
242.907	114.86
243.124	51.37
243.341	-8.02
243.558	34.99
243.775	-12.12
243.992	-16.21
244.209	110.76
244.426	102.57
244.643	41.13
244.86	-36.69
245.078	67.75
245.295	77.99
245.512	75.95
245.729	73.9
245.946	41.13
246.163	37.03
246.38	41.13
246.597	2.22
246.814	0.17
247.031	69.8
247.248	41.13
247.464	-26.45
247.681	67.75
247.898	86.19
248.115	-8.02
248.332	41.13
248.549	82.09
248.766	139.43
248.983	73.9
249.2	73.9
249.417	37.03
249.633	55.47
249.85	67.75
250.067	32.94
250.284	-5.97
250.501	71.85
250.717	65.71
250.934	51.37
251.151	-32.6
251.368	-8.02
251.585	39.08
251.801	55.47
252.018	-5.97
252.235	34.99
252.451	57.51
252.668	26.79
252.885	86.19
253.102	-32.6
253.318	102.57
253.535	22.7
253.752	53.42
253.968	-36.69
254.185	47.27
254.401	34.99
254.618	32.94
254.835	77.99
255.051	41.13
255.268	28.84
255.484	82.09
255.701	63.66
255.917	98.47
256.134	73.9
256.351	102.57
256.567	10.41
256.784	61.61
257	0.17
257.217	61.61
257.433	131.24
257.65	114.86
257.866	59.56
258.082	-57.17
258.299	96.43
258.515	104.62
258.732	90.28
258.948	20.65
259.165	2.22
259.381	-32.6
259.597	84.14
259.814	53.42
260.03	10.41
260.246	98.47
260.463	2.22
260.679	4.27
260.895	61.61
261.112	94.38
261.328	45.23
261.544	37.03
261.761	209.06
261.977	47.27
262.193	-40.79
262.409	59.56
262.626	61.61
262.842	20.65
263.058	-79.7
263.274	67.75
263.49	8.36
263.707	86.19
263.923	137.38
264.139	-42.84
264.355	84.14
264.571	86.19
264.787	180.39
265.004	127.14
265.22	37.03
265.436	49.32
265.652	0.17
265.868	102.57
266.084	41.13
266.3	77.99
266.516	-69.46
266.732	106.67
266.948	45.23
267.164	59.56
267.38	32.94
267.596	65.71
267.812	116.9
268.028	47.27
268.244	-30.55
268.46	28.84
268.676	18.6
268.892	57.51
269.108	18.6
269.324	41.13
269.54	8.36
269.756	131.24
269.972	-32.6
270.188	37.03
270.403	10.41
270.619	24.75
270.835	61.61
271.051	20.65
271.267	-18.26
271.483	-8.02
271.698	90.28
271.914	67.75
272.13	96.43
272.346	98.47
272.562	90.28
272.777	98.47
272.993	10.41
273.209	98.47
273.425	73.9
273.64	49.32
273.856	102.57
274.072	12.46
274.287	82.09
274.503	69.8
274.719	73.9
274.934	22.7
275.15	28.84
275.366	-1.88
275.581	92.33
275.797	67.75
276.012	82.09
276.228	30.89
276.444	55.47
276.659	30.89
276.875	24.75
277.09	82.09
277.306	32.94
277.521	8.36
277.737	18.6
277.952	114.86
278.168	2.22
278.383	26.79
278.599	28.84
278.814	59.56
279.03	98.47
279.245	98.47
279.461	20.65
279.676	37.03
279.892	30.89
280.107	49.32
280.322	6.31
280.538	59.56
280.753	57.51
280.969	43.18
281.184	53.42
281.399	94.38
281.615	59.56
281.83	102.57
282.045	12.46
282.26	32.94
282.476	45.23
282.691	98.47
282.906	61.61
283.122	116.9
283.337	20.65
283.552	53.42
283.767	32.94
283.983	49.32
284.198	59.56
284.413	133.29
284.628	65.71
284.843	24.75
285.058	127.14
285.274	90.28
285.489	49.32
285.704	57.51
285.919	53.42
286.134	61.61
286.349	88.23
286.564	10.41
286.779	108.71
286.995	24.75
287.21	61.61
287.425	37.03
287.64	61.61
287.855	123.05
288.07	-24.4
288.285	145.58
288.5	20.65
288.715	57.51
288.93	51.37
289.145	51.37
289.36	82.09
289.575	57.51
289.79	125.1
290.004	86.19
290.219	53.42
290.434	73.9
290.649	41.13
290.864	0.17
291.079	49.32
291.294	73.9
291.509	61.61
291.724	2.22
291.938	51.37
292.153	82.09
292.368	61.61
292.583	32.94
292.798	57.51
293.012	39.08
293.227	39.08
293.442	41.13
293.657	90.28
293.871	59.56
294.086	34.99
294.301	82.09
294.516	73.9
294.73	49.32
294.945	-5.97
295.16	100.52
295.374	57.51
295.589	137.38
295.804	20.65
296.018	24.75
296.233	77.99
296.447	73.9
296.662	-8.02
296.877	41.13
297.091	82.09
297.306	65.71
297.52	4.27
297.735	67.75
297.949	16.55
298.164	82.09
298.378	67.75
298.593	-14.17
298.807	45.23
299.022	92.33
299.236	16.55
299.451	114.86
299.665	22.7
299.88	73.9
300.094	65.71
300.309	-24.4
300.523	2.22
300.737	51.37
300.952	88.23
301.166	32.94
301.381	82.09
301.595	24.75
301.809	22.7
302.024	-8.02
302.238	-8.02
302.452	57.51
302.667	49.32
302.881	75.95
303.095	106.67
303.309	77.99
303.524	43.18
303.738	82.09
303.952	51.37
304.166	90.28
304.381	55.47
304.595	55.47
304.809	-1.88
305.023	67.75
305.237	28.84
305.452	69.8
305.666	73.9
305.88	34.99
306.094	102.57
306.308	41.13
306.522	77.99
306.736	73.9
306.95	94.38
307.164	28.84
307.379	65.71
307.593	65.71
307.807	86.19
308.021	84.14
308.235	88.23
308.449	55.47
308.663	118.95
308.877	110.76
309.091	49.32
309.305	166.06
309.519	0.17
309.733	200.87
309.947	20.65
310.161	108.71
310.374	131.24
310.588	77.99
310.802	51.37
311.016	90.28
311.23	45.23
311.444	57.51
311.658	-8.02
311.872	98.47
312.085	84.14
312.299	108.71
312.513	141.48
312.727	8.36
312.941	49.32
313.154	123.05
313.368	-8.02
313.582	84.14
313.796	65.71
314.009	20.65
314.223	114.86
314.437	57.51
314.651	65.71
314.864	77.99
315.078	92.33
315.292	26.79
315.505	47.27
315.719	63.66
315.933	55.47
316.146	2.22
316.36	16.55
316.573	92.33
316.787	10.41
317.001	45.23
317.214	16.55
317.428	106.67
317.641	18.6
317.855	32.94
318.068	24.75
318.282	53.42
318.495	139.43
318.709	8.36
318.922	67.75
319.136	45.23
319.349	77.99
319.563	2.22
319.776	73.9
319.99	18.6
320.203	67.75
320.417	30.89
320.63	125.1
320.843	96.43
321.057	28.84
321.27	49.32
321.483	110.76
321.697	106.67
321.91	37.03
322.124	90.28
322.337	71.85
322.55	43.18
322.763	88.23
322.977	47.27
323.19	8.36
323.403	28.84
323.617	166.06
323.83	127.14
324.043	18.6
324.256	49.32
324.469	0.17
324.683	80.04
324.896	-24.4
325.109	71.85
325.322	59.56
325.535	43.18
325.748	102.57
325.962	41.13
326.175	80.04
326.388	112.81
326.601	32.94
326.814	84.14
327.027	43.18
327.24	114.86
327.453	-14.17
327.666	84.14
327.879	106.67
328.092	69.8
328.305	94.38
328.518	49.32
328.731	90.28
328.944	53.42
329.157	30.89
329.37	32.94
329.583	123.05
329.796	106.67
330.009	43.18
330.222	94.38
330.435	53.42
330.648	65.71
330.861	24.75
331.073	106.67
331.286	32.94
331.499	-14.17
331.712	0.17
331.925	114.86
332.138	59.56
332.35	114.86
332.563	61.61
332.776	57.51
332.989	34.99
333.202	71.85
333.414	61.61
333.627	67.75
333.84	57.51
334.053	18.6
334.265	-22.36
334.478	51.37
334.691	108.71
334.903	-18.26
335.116	12.46
335.329	84.14
335.541	139.43
335.754	75.95
335.966	63.66
336.179	123.05
336.392	90.28
336.604	-10.07
336.817	41.13
337.029	75.95
337.242	80.04
337.454	90.28
337.667	32.94
337.88	133.29
338.092	149.67
338.305	77.99
338.517	28.84
338.729	53.42
338.942	82.09
339.154	32.94
339.367	51.37
339.579	118.95
339.792	0.17
340.004	53.42
340.217	114.86
340.429	53.42
340.641	90.28
340.854	24.75
341.066	0.17
341.278	170.15
341.491	102.57
341.703	147.62
341.915	14.51
342.128	53.42
342.34	10.41
342.552	65.71
342.764	57.51
342.977	-53.08
343.189	100.52
343.401	75.95
343.613	61.61
343.826	45.23
344.038	63.66
344.25	102.57
344.462	-48.98
344.674	16.55
344.886	86.19
345.099	100.52
345.311	67.75
345.523	32.94
345.735	20.65
345.947	57.51
346.159	67.75
346.371	37.03
346.583	57.51
346.795	65.71
347.007	-28.5
347.219	49.32
347.431	63.66
347.643	139.43
347.855	96.43
348.067	100.52
348.279	26.79
348.491	116.9
348.703	24.75
348.915	8.36
349.127	-3.93
349.339	133.29
349.551	55.47
349.763	73.9
349.975	30.89
350.187	116.9
350.399	147.62
350.61	61.61
350.822	24.75
351.034	77.99
351.246	8.36
351.458	94.38
351.669	108.71
351.881	118.95
352.093	131.24
352.305	63.66
352.517	49.32
352.728	110.76
352.94	125.1
353.152	82.09
353.363	61.61
353.575	86.19
353.787	104.62
353.999	73.9
354.21	153.77
354.422	49.32
354.633	8.36
354.845	-30.55
355.057	67.75
355.268	73.9
355.48	86.19
355.692	45.23
355.903	53.42
356.115	57.51
356.326	-18.26
356.538	114.86
356.749	92.33
356.961	84.14
357.172	100.52
357.384	37.03
357.595	133.29
357.807	106.67
358.018	43.18
358.23	65.71
358.441	149.67
358.653	73.9
358.864	24.75
359.075	41.13
359.287	102.57
359.498	92.33
359.709	104.62
359.921	-5.97
360.132	71.85
360.344	147.62
360.555	51.37
360.766	108.71
360.977	57.51
361.189	129.19
361.4	131.24
361.611	92.33
361.823	57.51
362.034	4.27
362.245	37.03
362.456	26.79
362.667	71.85
362.879	116.9
363.09	67.75
363.301	112.81
363.512	57.51
363.723	80.04
363.935	-3.93
364.146	98.47
364.357	108.71
364.568	131.24
364.779	98.47
364.99	125.1
365.201	92.33
365.412	96.43
365.623	28.84
365.834	69.8
366.045	57.51
366.256	106.67
366.467	188.58
366.678	61.61
366.889	94.38
367.1	37.03
367.311	92.33
367.522	114.86
367.733	43.18
367.944	63.66
368.155	24.75
368.366	67.75
368.577	135.34
368.788	174.25
368.999	49.32
369.209	61.61
369.42	133.29
369.631	59.56
369.842	98.47
370.053	88.23
370.264	71.85
370.474	73.9
370.685	32.94
370.896	41.13
371.107	69.8
371.317	92.33
371.528	75.95
371.739	98.47
371.95	73.9
372.16	106.67
372.371	32.94
372.582	69.8
372.792	43.18
373.003	116.9
373.214	43.18
373.424	106.67
373.635	26.79
373.846	73.9
374.056	53.42
374.267	8.36
374.477	123.05
374.688	39.08
374.898	77.99
375.109	127.14
375.319	77.99
375.53	20.65
375.74	198.82
375.951	67.75
376.161	147.62
376.372	90.28
376.582	65.71
376.793	69.8
377.003	53.42
377.214	88.23
377.424	28.84
377.635	45.23
377.845	73.9
378.055	82.09
378.266	65.71
378.476	125.1
378.686	102.57
378.897	65.71
379.107	123.05
379.317	49.32
379.528	86.19
379.738	114.86
379.948	84.14
380.158	100.52
380.369	61.61
380.579	84.14
380.789	108.71
380.999	127.14
381.21	108.71
381.42	110.76
381.63	139.43
381.84	96.43
382.05	94.38
382.261	135.34
382.471	96.43
382.681	26.79
382.891	207.02
383.101	135.34
383.311	59.56
383.521	41.13
383.731	143.53
383.941	133.29
384.151	65.71
384.361	57.51
384.571	86.19
384.781	73.9
384.991	116.9
385.201	147.62
385.411	110.76
385.621	118.95
385.831	41.13
386.041	106.67
386.251	57.51
386.461	123.05
386.671	41.13
386.881	71.85
387.091	49.32
387.301	32.94
387.511	92.33
387.72	135.34
387.93	100.52
388.14	-8.02
388.35	82.09
388.56	49.32
388.769	121
388.979	186.54
389.189	34.99
389.399	102.57
389.609	172.2
389.818	114.86
390.028	32.94
390.238	100.52
390.447	-14.17
390.657	73.9
390.867	43.18
391.076	75.95
391.286	141.48
391.496	82.09
391.705	86.19
391.915	108.71
392.125	67.75
392.334	139.43
392.544	153.77
392.753	90.28
392.963	41.13
393.172	139.43
393.382	98.47
393.591	139.43
393.801	118.95
394.01	98.47
394.22	22.7
394.429	73.9
394.639	123.05
394.848	123.05
395.058	116.9
395.267	151.72
395.477	75.95
395.686	194.73
395.895	71.85
396.105	188.58
396.314	114.86
396.524	209.06
396.733	123.05
396.942	172.2
397.152	172.2
397.361	108.71
397.57	133.29
397.78	207.02
397.989	139.43
398.198	250.02
398.407	125.1
398.617	184.49
398.826	123.05
399.035	151.72
399.244	174.25
399.453	129.19
399.663	190.63
399.872	172.2
400.081	166.06
400.29	239.78
400.499	139.43
400.708	245.93
400.917	217.26
401.127	102.57
401.336	108.71
401.545	204.97
401.754	182.44
401.963	252.07
402.172	192.68
402.381	106.67
402.59	172.2
402.799	204.97
403.008	235.69
403.217	166.06
403.426	233.64
403.635	190.63
403.844	184.49
404.053	186.54
404.262	133.29
404.471	307.37
404.68	213.16
404.888	145.58
405.097	243.88
405.306	223.4
405.515	278.69
405.724	258.21
405.933	340.13
406.142	260.26
406.35	288.93
406.559	215.21
406.768	286.89
406.977	350.37
407.185	254.12
407.394	250.02
407.603	315.56
407.812	303.27
408.02	344.23
408.229	338.09
408.438	360.61
408.646	282.79
408.855	266.41
409.064	401.57
409.272	344.23
409.481	385.19
409.69	315.56
409.898	407.72
410.107	444.58
410.315	458.92
410.524	452.77
410.733	467.11
410.941	546.98
411.15	542.88
411.358	581.79
411.567	561.31
411.775	567.46
411.984	614.56
412.192	585.89
412.401	641.18
412.609	684.19
412.818	741.54
413.026	721.06
413.234	802.97
413.443	860.32
413.651	755.87
413.86	854.17
414.068	1011.87
414.276	950.43
414.485	893.09
414.693	936.09
414.901	999.58
415.11	1056.92
415.318	991.39
415.526	1020.06
415.734	1163.42
415.943	1208.47
416.151	1269.91
416.359	1247.38
416.567	1327.25
416.776	1394.84
416.984	1327.25
417.192	1439.89
417.4	1501.33
417.608	1409.17
417.817	1487
418.025	1634.45
418.233	1665.17
418.441	1650.83
418.649	1749.14
418.857	1810.58
419.065	1917.07
419.273	1925.26
419.481	1980.56
419.689	2193.55
419.897	2162.83
420.105	2216.07
420.313	2308.23
420.521	2443.4
420.729	2461.83
420.937	2455.69
421.145	2621.57
421.353	2619.52
421.561	2670.72
421.769	2902.14
421.977	3014.78
422.185	2850.94
422.393	3080.32
422.601	3340.41
422.809	3336.31
423.017	3313.78
423.224	3596.4
423.432	3653.75
423.64	3721.33
423.848	4104.3
424.056	3842.16
424.263	4075.63
424.471	4286.57
424.679	4294.76
424.887	4378.73
425.094	4765.79
425.302	4909.15
425.51	4868.19
425.718	4905.06
425.925	5021.79
426.133	5300.31
426.341	5548.12
426.548	5810.26
426.756	5711.96
426.964	6053.97
427.171	6064.21
427.379	6365.26
427.586	6473.8
427.794	6586.44
428.001	7008.32
428.209	7254.08
428.417	7221.31
428.624	7721.01
428.832	7483.45
429.039	7458.87
429.247	7407.67
429.454	8298.54
429.662	8804.39
429.869	8204.33
430.076	8837.16
430.284	8505.38
430.491	9156.64
430.699	9463.83
430.906	9621.53
431.114	9715.73
431.321	10141.71
431.528	10280.97
431.736	10846.21
431.943	11167.74
432.15	10958.85
432.358	11216.9
432.565	11808.76
432.772	11585.53
432.979	12193.78
433.187	12376.05
433.394	12470.25
433.601	13252.58
433.808	13303.78
434.016	13336.54
434.223	13701.08
434.43	14845.9
434.637	14493.65
434.844	15312.83
435.052	15427.52
435.259	15548.35
435.466	15597.5
435.673	15249.35
435.88	16277.43
436.087	17489.82
436.294	17549.21
436.501	17004.46
436.708	17108.9
436.915	17981.34
437.122	18571.15
437.329	18524.05
437.537	19099.53
437.743	19502.98
437.95	19500.93
438.157	20168.57
438.364	21067.63
438.571	21065.58
438.778	20926.32
438.985	23129.93
439.192	22083.42
439.399	22689.62
439.606	22118.23
439.813	23254.86
440.02	24870.7
440.227	24401.72
440.433	24317.75
440.64	25179.95
440.847	24811.31
441.054	25253.67
441.261	26728.21
441.467	26851.09
441.674	27488.01
441.881	28016.38
442.088	28292.86
442.294	27938.56
442.501	28815.09
442.708	29167.34
442.914	30559.96
443.121	31399.63
443.328	30492.38
443.534	32902.84
443.741	31878.85
443.948	31481.55
444.154	33685.16
444.361	33140.4
444.568	33904.29
444.774	33988.26
444.981	34496.16
445.187	35450.51
445.394	36550.27
445.6	36189.83
445.807	39638.61
446.013	37566.06
446.22	38733.4
446.426	39925.32
446.633	40511.04
446.839	41211.45
447.046	40179.27
447.252	42399.27
447.459	42542.63
447.665	42292.77
447.871	44156.42
448.078	45616.63
448.284	43599.38
448.491	44842.49
448.697	46425.57
448.903	47902.16
449.11	47404.5
449.316	46466.53
449.522	47603.16
449.728	48541.13
449.935	48903.62
450.141	49003.97
450.347	50064.81
450.553	48211.4
450.76	49264.06
450.966	50955.68
451.172	49993.14
451.378	51334.56
451.584	50093.49
451.791	51242.4
451.997	51088.8
452.203	52456.84
452.409	51967.38
452.615	51869.08
452.821	50116.01
453.027	49702.32
453.233	52561.29
453.44	50621.86
453.646	50632.1
453.852	50853.28
454.058	51991.95
454.264	50048.43
454.47	51285.4
454.676	49915.31
454.882	51482.01
455.088	47500.76
455.294	48041.42
455.5	48391.62
455.705	49460.66
455.911	47191.51
456.117	46601.7
456.323	45622.77
456.529	43529.75
456.735	45131.26
456.941	44643.84
457.147	43726.35
457.352	42292.77
457.558	41831.98
457.764	41829.93
457.97	40795.71
458.176	40058.44
458.381	40339.01
458.587	38194.79
458.793	38215.27
458.999	36308.61
459.204	38592.09
459.41	37697.13
459.616	35339.92
459.821	35192.47
460.027	35100.31
460.233	34524.83
460.438	32827.06
460.644	33349.29
460.85	31418.06
461.055	31254.22
461.261	31375.05
461.466	28897.01
461.672	28067.58
461.878	29988.58
462.083	27643.65
462.289	27264.78
462.494	27037.45
462.7	26242.84
462.905	25360.17
463.111	26171.16
463.316	26203.93
463.522	25540.39
463.727	25394.98
463.932	25374.5
464.138	25276.2
464.343	25661.22
464.549	24743.73
464.754	24966.96
464.959	25108.27
465.165	24944.43
465.37	23955.26
465.575	23365.45
465.781	24315.7
465.986	24342.33
466.191	23543.62
466.397	22908.75
466.602	22118.23
466.807	22409.04
467.012	22525.78
467.218	22118.23
467.423	22359.89
467.628	22560.59
467.833	23322.44
468.038	22359.89
468.244	21739.36
468.449	22564.69
468.654	22077.27
468.859	21917.53
469.064	21671.78
469.269	20850.54
469.474	20766.57
469.679	21159.78
469.885	20768.62
470.09	20946.8
470.295	20881.26
470.5	20559.73
470.705	20467.57
470.91	20103.03
471.115	19799.93
471.32	20236.15
471.525	19908.47
471.73	19484.55
471.935	19842.94
472.139	18341.78
472.344	19033.99
472.549	18743.18
472.754	18665.36
472.959	18112.41
473.164	17907.61
473.369	17653.66
473.574	18225.04
473.778	18159.51
473.983	17481.63
474.188	17915.8
474.393	17127.33
474.598	17223.59
474.802	16867.24
475.007	16586.67
475.212	16553.9
475.417	16164.79
475.621	16322.48
475.826	16224.18
476.031	15947.7
476.235	15822.78
476.44	15818.68
476.645	15656.89
476.849	15515.58
477.054	15564.73
477.259	15206.34
477.463	15167.43
477.668	14788.55
477.872	15030.21
478.077	14688.2
478.282	14053.33
478.486	14260.18
478.691	13948.89
478.895	14237.65
479.1	13944.79
479.304	14092.24
479.509	13539.29
479.713	13807.58
479.918	13492.19
480.122	13449.18
480.326	13643.74
480.531	13674.46
480.735	13242.34
480.94	13307.87
481.144	13623.26
481.348	13017.06
481.553	13105.12
481.757	12824.55
481.961	13336.54
482.166	13406.17
482.37	13324.26
482.574	12812.26
482.778	12908.52
482.983	13500.38
483.187	13162.47
483.391	12984.29
483.595	12918.76
483.8	12701.67
484.004	13094.88
484.208	13041.64
484.412	12959.72
484.616	13111.27
484.821	13129.7
485.025	12711.91
485.229	13127.65
485.433	12791.78
485.637	13019.11
485.841	12746.73
486.045	12955.62
486.249	12849.13
486.453	12771.3
486.657	12904.42
486.861	13012.96
487.065	12640.23
487.269	12810.22
487.473	12548.08
487.677	13037.54
487.881	12845.03
488.085	12916.71
488.289	12873.7
488.493	12912.61
488.697	13000.68
488.901	13058.02
489.105	13006.82
489.309	12890.09
489.512	12965.86
489.716	13015.01
489.92	12939.24
490.124	12869.61
490.328	13195.23
490.531	13082.6
490.735	13111.27
490.939	12951.53
491.143	13205.47
491.346	13031.4
491.55	13574.11
491.754	13266.91
491.958	13256.67
492.161	13432.8
492.365	13336.54
492.569	13314.02
492.772	13424.61
492.976	13410.27
493.18	13473.76
493.383	13799.38
493.587	14010.32
493.79	13813.72
493.994	13918.17
494.197	13840.34
494.401	14305.23
494.605	13887.45
494.808	14438.35
495.012	14370.77
495.215	14217.17
495.419	14516.17
495.622	14370.77
495.825	14700.49
496.029	14602.19
496.232	15083.46
496.436	14874.57
496.639	15341.5
496.843	15222.72
497.046	15566.78
497.249	15245.25
497.453	15769.53
497.656	15771.58
497.859	15781.82
498.063	15810.49
498.266	16324.53
498.469	16312.24
498.673	16453.55
498.876	16406.45
499.079	16932.78
499.282	16594.86
499.485	17131.43
499.689	17330.08
499.892	17186.72
500.095	17389.47
500.298	17977.24
500.501	17829.79
500.705	18108.31
500.908	18372.5
501.111	18491.28
501.314	18599.82
501.517	18778
501.72	19165.06
501.923	18798.48
502.126	19257.22
502.329	19804.03
502.532	19797.88
502.735	19713.92
502.938	20088.7
503.141	20526.96
503.344	20701.04
503.547	20854.64
503.75	20891.5
503.953	21333.86
504.156	21452.64
504.359	21747.55
504.562	21716.83
504.765	22144.86
504.968	22273.88
505.17	22611.79
505.373	22671.18
505.576	22962
505.779	23365.45
505.982	23455.56
506.185	23715.65
506.387	24026.94
506.59	24145.72
506.793	24430.39
506.996	24233.78
507.198	25009.97
507.401	24676.15
507.604	25298.73
507.807	25868.06
508.009	26105.63
508.212	25906.98
508.415	26478.36
508.617	26859.28
508.82	26924.82
509.022	26472.21
509.225	27442.95
509.428	27500.3
509.63	27604.74
509.833	27627.27
510.035	28776.18
510.238	28532.47
510.44	28860.15
510.643	29196.01
510.845	29890.27
511.048	29282.03
511.25	29935.33
511.453	29957.86
511.655	31059.66
511.858	30424.79
512.06	30820.05
512.262	31147.73
512.465	31518.41
512.667	31649.48
512.87	32114.37
513.072	32292.54
513.274	32683.7
513.477	32898.74
513.679	33132.21
513.881	33343.15
514.084	33717.93
514.286	33978.02
514.488	34092.71
514.69	35174.03
514.893	35022.48
515.095	35229.33
515.297	35415.69
515.499	35919.49
515.701	35845.77
515.904	36378.24
516.106	36591.23
516.308	37230.19
516.51	37537.39
516.712	37688.94
516.914	37729.9
517.116	38258.27
517.318	38387.3
517.52	38819.42
517.722	38571.61
517.925	39521.87
518.127	39552.59
518.329	39886.41
518.531	39765.58
518.733	40384.07
518.935	40631.87
519.136	40498.75
519.338	41156.15
519.54	41166.39
519.742	41811.5
519.944	41999.91
520.146	42327.59
520.348	42436.13
520.55	42219.05
520.752	42862.11
520.954	43261.46
521.155	43005.47
521.357	43591.19
521.559	43697.68
521.761	44768.77
521.963	44029.45
522.164	44606.98
522.366	44619.27
522.568	44971.52
522.77	45293.05
522.971	46169.58
523.173	45551.09
523.375	45970.93
523.576	45999.6
523.778	45807.09
523.98	46347.75
524.181	46470.63
524.383	46669.28
524.584	46831.07
524.786	46855.65
524.988	46700
525.189	47326.68
525.391	47642.07
525.592	47713.75
525.794	47435.22
525.995	47601.11
526.197	47402.46
526.398	47273.43
526.6	47967.69
526.801	48147.92
527.003	47961.55
527.204	48178.64
527.406	48682.44
527.607	48547.27
527.808	48870.85
528.01	47793.62
528.211	48143.82
528.412	49087.93
528.614	49200.57
528.815	48549.32
529.016	49264.06
529.218	48891.33
529.419	48737.73
529.62	48911.81
529.822	48661.96
530.023	48524.74
530.224	48338.38
530.425	49176
530.626	48532.93
530.828	47943.12
531.029	49280.44
531.23	48405.96
531.431	48141.77
531.632	48932.29
531.833	48788.93
532.035	48782.79
532.236	48555.46
532.437	48905.66
532.638	48264.65
532.839	48608.71
533.04	48944.58
533.241	48078.29
533.442	48825.79
533.643	48715.2
533.844	48381.38
534.045	48600.52
534.246	47990.22
534.447	48543.17
534.648	48084.43
534.849	48633.28
535.05	48051.66
535.251	48152.01
535.451	48008.65
535.652	48313.8
535.853	48330.19
536.054	48168.4
536.255	48014.8
536.456	47609.3
536.657	48889.28
536.857	47670.74
537.058	48195.02
537.259	48633.28
537.46	47685.08
537.66	47289.82
537.861	47709.65
538.062	47695.31
538.263	47459.8
538.463	47420.89
538.664	47369.69
538.865	47859.15
539.065	48041.42
539.266	47230.43
539.466	47353.3
539.667	47054.3
539.868	48006.61
540.068	47189.47
540.269	46953.95
540.469	47328.73
540.67	46597.6
540.87	46769.63
541.071	47300.06
541.271	47013.34
541.472	46999.01
541.672	47074.78
541.873	47123.93
542.073	46593.51
542.274	47109.6
542.474	47128.03
542.675	46321.13
542.875	46902.75
543.075	46568.93
543.276	46290.41
543.476	46956
543.676	46530.02
543.877	46994.91
544.077	46822.88
544.277	46382.57
544.478	46437.86
544.678	46673.38
544.878	46728.67
545.078	46730.72
545.279	46288.36
545.479	46390.76
545.679	46257.64
545.879	46370.28
546.079	46521.83
546.28	46061.04
546.48	45657.59
546.68	46421.48
546.88	46261.74
547.08	46415.33
547.28	46355.94
547.48	46228.97
547.68	46468.58
547.88	46159.34
548.081	46583.27
548.281	46368.23
548.481	46190.06
548.681	46220.78
548.881	46231.02
549.081	46175.72
549.28	46280.17
549.48	46630.37
549.68	46110.19
549.88	46638.56
550.08	45895.15
550.28	46470.63
550.48	46429.67
550.68	46192.11
550.88	46183.91
551.08	46343.66
551.279	46108.14
551.479	46124.52
551.679	46441.96
551.879	46378.47
552.079	46360.04
552.278	46247.4
552.478	46228.97
552.678	46198.25
552.878	46761.44
553.077	46218.73
553.277	46020.08
553.477	46591.46
553.676	45968.88
553.876	46597.6
554.076	46560.74
554.275	46102
554.475	45993.45
554.674	46573.03
554.874	46857.7
555.074	46069.23
555.273	46470.63
555.473	46753.25
555.672	46247.4
555.872	46321.13
556.071	46667.23
556.271	46796.26
556.47	46192.11
556.67	46112.24
556.869	46374.38
557.068	46538.21
557.268	46038.51
557.467	46429.67
557.667	46468.58
557.866	46501.35
558.065	46128.62
558.265	46474.73
558.464	45837.81
558.663	46605.8
558.863	45954.54
559.062	46880.22
559.261	45891.05
559.461	46613.99
559.66	46089.71
559.859	46689.76
560.058	46265.83
560.258	46245.35
560.457	45911.53
560.656	46618.08
560.855	45694.45
561.054	46632.42
561.253	46235.11
561.453	46151.15
561.652	46476.77
561.851	46421.48
562.05	46347.75
562.249	46261.74
562.448	46419.43
562.647	45975.02
562.846	45950.45
563.045	45905.39
563.244	46011.88
563.443	46114.28
563.642	45442.55
563.841	45424.12
564.04	45995.5
564.239	46091.76
564.438	45432.31
564.637	45815.28
564.836	45630.96
565.035	45719.03
565.234	45889.01
565.432	45346.29
565.631	45053.44
565.83	45839.86
566.029	45075.96
566.228	45231.61
566.427	45428.21
566.625	45356.53
566.824	45215.22
567.023	45262.33
567.222	44738.05
567.42	45542.9
567.619	45215.22
567.818	44862.97
568.016	44910.08
568.215	45231.61
568.414	44977.66
568.612	44987.9
568.811	44371.46
569.01	44707.33
569.208	44191.24
569.407	44152.33
569.605	44107.27
569.804	44338.69
570.002	44379.65
570.201	44359.17
570.4	44062.22
570.598	43980.3
570.797	43204.12
570.995	43615.76
571.193	43742.74
571.392	43701.78
571.59	43640.34
571.789	43562.51
571.987	43398.68
572.186	43433.49
572.384	43111.96
572.582	43605.52
572.781	43257.37
572.979	42653.22
573.177	42913.31
573.376	42812.96
573.574	42552.87
573.772	42921.5
573.971	42409.51
574.169	42264.1
574.367	41905.71
574.565	42458.66
574.763	42325.54
574.962	42104.36
575.16	41549.36
575.358	41854.51
575.556	41352.76
575.754	42126.89
575.952	41164.34
576.151	41676.33
576.349	41080.38
576.547	41221.69
576.745	41172.53
576.943	41356.85
577.141	41072.18
577.339	41033.27
577.537	40693.31
577.735	40748.6
577.933	40156.74
578.131	40678.97
578.329	40101.45
578.527	40474.18
578.725	39773.77
578.923	39929.42
579.121	39933.51
579.319	39943.75
579.516	39814.73
579.714	40097.35
579.912	39931.47
580.11	39681.61
580.308	39198.29
580.506	39439.95
580.704	38772.32
580.901	39179.86
581.099	39603.79
581.297	38909.53
581.495	38876.76
581.692	38981.21
581.89	38694.49
582.088	38688.35
582.285	38375.01
582.483	38370.91
582.681	38565.47
582.878	38188.64
583.076	37924.46
583.274	38131.3
583.471	37795.43
583.669	37838.44
583.866	37695.08
584.064	38313.57
584.262	37271.15
584.459	37654.12
584.657	37404.27
584.854	37723.76
585.052	36816.5
585.249	37355.12
585.447	37201.52
585.644	36867.7
585.841	36906.62
586.039	37568.11
586.236	36738.68
586.434	36828.79
586.631	36476.54
586.828	36699.77
587.026	36441.73
587.223	36107.91
587.42	35958.41
587.618	36271.75
587.815	36077.19
588.012	36064.9
588.21	35966.6
588.407	36484.73
588.604	35927.69
588.801	35673.74
588.999	35466.89
589.196	35419.79
589.393	35460.75
589.59	35200.66
589.787	35258
589.984	35239.57
590.182	34829.98
590.379	35174.03
590.576	34633.37
590.773	35059.35
590.97	34807.45
591.167	34821.78
591.364	34340.51
591.561	34453.15
591.758	34334.37
591.955	34324.13
592.152	34836.12
592.349	33961.64
592.546	34320.03
592.743	34647.71
592.94	33844.9
593.137	34317.98
593.334	34459.29
593.531	33707.69
593.727	34543.26
593.924	34014.88
594.121	33887.91
594.318	33912.49
594.515	33576.62
594.712	33873.57
594.908	33580.71
595.105	33597.1
595.302	33187.5
595.499	33631.91
595.696	33152.69
595.892	33513.13
596.089	33429.16
596.286	33101.49
596.482	33271.47
596.679	33302.19
596.876	33412.78
597.072	32921.27
597.269	33201.84
597.466	32831.16
597.662	32800.44
597.859	32878.26
598.055	32874.17
598.252	32773.81
598.448	32868.02
598.645	32716.47
598.841	32702.14
599.038	32636.6
599.234	32534.2
599.431	32302.78
599.627	32464.57
599.824	32956.08
600.02	32427.71
600.217	32452.28
600.413	32272.06
600.609	32620.22
600.806	32229.05
601.002	32585.4
601.198	32001.73
601.395	32181.95
601.591	32222.91
601.787	32589.5
601.984	32388.8
602.18	32667.32
602.376	32296.64
602.572	32186.05
602.769	32069.31
602.965	31717.06
603.161	32405.18
603.357	31944.39
603.553	31858.37
603.75	32345.79
603.946	31823.56
604.142	32405.18
604.338	31815.37
604.534	32046.79
604.73	31766.21
604.926	32048.83
605.122	32380.6
605.318	32077.51
605.514	31903.43
605.71	31917.76
605.906	31971.01
606.102	31825.61
606.298	32124.61
606.494	31907.52
606.69	31975.11
606.886	32177.86
607.082	31522.51
607.278	32257.73
607.474	31755.97
607.67	32220.86
607.866	31454.92
608.062	32018.11
608.257	31979.2
608.453	31919.81
608.649	32134.85
608.845	31928
609.041	32175.81
609.236	32034.5
609.432	32632.5
609.628	31848.13
609.824	32192.19
610.019	31940.29
610.215	32143.04
610.411	32538.3
610.606	32091.84
610.802	31938.24
610.998	32208.58
611.193	32186.05
611.389	32181.95
611.584	32233.15
611.78	31971.01
611.976	32239.29
612.171	31973.06
612.367	32270.01
612.562	32179.9
612.758	31917.76
612.953	31694.54
613.149	32497.34
613.344	31850.18
613.539	32325.31
613.735	32323.26
613.93	32296.64
614.126	32018.11
614.321	32396.99
614.517	32022.21
614.712	32169.66
614.907	31778.5
615.103	32243.39
615.298	31979.2
615.493	32569.02
615.688	32054.98
615.884	32536.25
616.079	31762.12
616.274	32161.47
616.47	32054.98
616.665	32112.32
616.86	31895.24
617.055	31960.77
617.25	31809.22
617.445	32272.06
617.641	31418.06
617.836	32085.7
618.031	31745.73
618.226	31737.54
618.421	31792.84
618.616	31715.01
618.811	31336.14
619.006	32177.86
619.201	31512.27
619.396	31395.53
619.591	30779.09
619.786	31123.15
619.981	30734.04
620.176	31188.69
620.371	30699.22
620.566	31366.86
620.761	30625.5
620.956	30820.05
621.151	30303.96
621.346	30803.67
621.541	30312.16
621.735	30717.65
621.93	29918.95
622.125	29843.17
622.32	29411.05
622.515	29847.27
622.709	29589.22
622.904	29441.77
623.099	29148.91
623.294	29288.17
623.488	28991.22
623.683	29245.16
623.878	28258.04
624.072	28632.82
624.267	28763.89
624.462	28210.94
624.656	28055.29
624.851	28284.67
625.046	28227.32
625.24	27963.14
625.435	27973.38
625.629	27760.39
625.824	27635.46
626.018	27516.68
626.213	26832.66
626.407	27141.9
626.602	26885.9
626.796	27045.65
626.991	26945.3
627.185	26687.25
627.38	26830.61
627.574	26369.82
627.768	26205.98
627.963	26195.74
628.157	26179.36
628.352	26230.55
628.546	25380.65
628.74	25952.03
628.935	25386.79
629.129	25542.44
629.323	25200.43
629.517	25130.8
629.712	25098.03
629.906	24887.09
630.1	24565.56
630.294	24565.56
630.489	24426.29
630.683	24590.13
630.877	24127.29
631.071	24022.84
631.265	24500.02
631.459	23961.41
631.653	23783.23
631.848	23736.13
632.042	23832.38
632.236	23723.84
632.43	23338.82
632.624	23510.85
632.818	23344.97
633.012	22945.61
633.206	22832.97
633.4	23134.03
633.594	22560.59
633.788	22804.3
633.982	22597.46
634.176	22617.94
634.369	22126.43
634.563	22314.84
634.757	22140.76
634.951	22124.38
635.145	21987.16
635.339	21675.87
635.533	21935.96
635.726	21602.15
635.92	21227.37
636.114	21210.98
636.308	21180.26
636.501	20981.61
636.695	20834.16
636.889	20684.66
637.083	20883.31
637.276	20549.49
637.47	20311.92
637.664	20336.5
637.857	20324.21
638.051	20268.92
638.244	20172.66
638.438	20113.27
638.632	19888
638.825	19836.8
639.019	19777.4
639.212	19433.35
639.406	19470.21
639.599	19259.27
639.793	19396.48
639.986	18802.57
640.18	19077
640.373	19050.38
640.567	18628.49
640.76	18630.54
640.954	18644.88
641.147	18261.91
641.34	18335.63
641.534	18239.38
641.727	18245.52
641.92	18136.98
642.114	17934.23
642.307	18050.97
642.5	17751.96
642.694	17340.32
642.887	17332.13
643.08	17751.96
643.273	17432.48
643.467	17368.99
643.66	16891.82
643.853	17059.75
644.046	16725.93
644.239	17131.43
644.432	16701.36
644.626	16623.53
644.819	16660.4
645.012	16631.72
645.205	16285.62
645.398	16279.47
645.591	16199.6
645.784	16115.64
645.977	15890.36
646.17	15964.09
646.363	15691.71
646.556	15896.5
646.749	15566.78
646.942	15810.49
647.135	15509.44
647.328	15464.38
647.521	15173.57
647.714	15149
647.907	15249.35
648.099	14995.4
648.292	15062.98
648.485	15050.69
648.678	14610.38
648.871	14751.69
649.064	14630.86
649.256	14813.13
649.449	14321.62
649.642	14360.53
649.835	14032.85
650.027	14225.36
650.22	14319.57
650.413	14213.07
650.605	13942.74
650.798	13909.97
650.991	13758.42
651.183	13817.82
651.376	13606.88
651.568	13615.07
651.761	13395.93
651.954	13207.52
652.146	13346.78
652.339	13469.66
652.531	13305.82
652.724	13166.56
652.916	12820.46
653.109	13234.14
653.301	12908.52
653.494	13006.82
653.686	12740.58
653.879	12810.22
654.071	12908.52
654.263	12531.69
654.456	12543.98
654.648	12574.7
654.84	12347.37
655.033	12242.93
655.225	12431.34
655.417	12113.91
655.61	12314.61
655.802	12167.15
655.994	11939.83
656.186	12206.06
656.379	11927.54
656.571	11839.48
656.763	11659.26
656.955	11583.48
657.148	11431.93
657.34	11677.69
657.532	11571.19
657.724	11370.49
657.916	11481.08
658.108	11419.64
658.3	11366.4
658.492	11458.56
658.684	10948.61
658.876	11063.3
659.068	11161.6
659.26	11077.63
659.452	11108.35
659.644	10854.41
659.836	10643.46
660.028	10856.45
660.22	10506.25
660.412	10782.73
660.604	10493.96
660.796	10463.24
660.988	10375.18
661.18	10539.02
661.372	10205.2
661.563	10190.86
661.755	10174.48
661.947	10188.82
662.139	9859.09
662.331	10151.95
662.522	10065.94
662.714	9801.75
662.906	9801.75
663.097	9758.74
663.289	9596.95
663.481	9578.52
663.673	9818.13
663.864	9441.31
664.056	9519.13
664.247	9551.9
664.439	9193.5
664.631	9386.01
664.822	9521.18
665.014	9400.35
665.205	9154.59
665.397	9058.34
665.588	9199.65
665.78	9013.28
665.971	8941.6
666.163	9037.86
666.354	8775.72
666.546	8798.24
666.737	8855.59
666.929	8851.49
667.12	8642.6
667.311	8749.09
667.503	8618.02
667.694	8699.94
667.885	8550.44
668.077	8517.67
668.268	8372.27
668.459	8425.51
668.651	8431.66
668.842	8335.4
669.033	8314.92
669.224	8241.2
669.416	8355.88
669.607	8241.2
669.798	8294.44
669.989	8142.89
670.18	8056.88
670.371	7972.91
670.563	8065.07
670.754	8024.11
670.945	7788.6
671.136	7725.11
671.327	7815.22
671.518	7893.04
671.709	7804.98
671.9	7743.54
672.091	7661.62
672.282	7749.68
672.473	7823.41
672.664	7731.25
672.855	7829.56
673.046	7675.96
673.237	7645.24
673.428	7497.78
673.619	7702.58
673.809	7331.9
674	7438.39
674.191	7311.42
674.382	7315.52
674.573	7276.6
674.764	7256.12
674.954	7401.53
675.145	7258.17
675.336	7360.57
675.527	7213.12
675.717	7254.08
675.908	7141.44
676.099	7202.88
676.289	7192.64
676.48	7264.32
676.671	6998.08
676.861	7010.37
677.052	7157.82
677.243	7032.9
677.433	7006.27
677.624	7141.44
677.814	7036.99
678.005	6858.82
678.195	6891.59
678.386	6895.68
678.576	6744.13
678.767	6914.11
678.957	6684.74
679.148	6817.86
679.338	7034.94
679.529	6856.77
679.719	6701.12
679.909	6697.03
680.1	6856.77
680.29	6602.82
680.481	6688.84
680.671	6778.95
680.861	6627.4
681.052	6719.56
681.242	6666.31
681.432	6611.01
681.622	6654.02
681.813	6506.57
682.003	6479.94
682.193	6533.19
682.383	6469.7
682.573	6336.59
682.764	6455.37
682.954	6512.71
683.144	6555.72
683.334	6525
683.524	6557.77
683.714	6467.66
683.904	6512.71
684.094	6588.49
684.284	6389.83
684.474	6455.37
684.664	6471.75
684.854	6348.87
685.044	6481.99
685.234	6432.84
685.424	6404.17
685.614	6277.19
685.804	6279.24
685.994	6254.67
686.184	6236.24
686.374	6422.6
686.564	6221.9
686.753	6113.36
686.943	6213.71
687.133	6299.72
687.323	6180.94
687.513	6033.49
687.702	6021.2
687.892	6266.96
688.082	5970
688.272	6271.05
688.461	6101.07
688.651	6010.96
688.841	5922.9
689.03	6064.21
689.22	5998.67
689.41	6064.21
689.599	5959.76
689.789	6045.77
689.979	5810.26
690.168	5922.9
690.358	5857.36
690.547	5789.78
690.737	5802.07
690.926	5834.83
691.116	5660.76
691.305	5935.18
691.495	5599.32
691.684	5961.81
691.874	5750.87
692.063	5566.55
692.252	5644.37
692.442	5611.61
692.631	5464.15
692.82	5441.62
693.01	5386.33
693.199	5439.58
693.388	5546.07
693.578	5460.06
693.767	5531.73
693.956	5415
694.146	5406.81
694.335	5410.9
694.524	5304.41
694.713	5410.9
694.902	5507.16
695.092	5398.62
695.281	5304.41
695.47	5326.94
695.659	5320.79
695.848	5304.41
696.037	5216.35
696.226	5130.33
696.415	5341.27
696.604	5187.68
696.793	5187.68
696.982	5304.41
697.171	5263.45
697.36	5128.28
697.549	5070.94
697.738	5177.44
697.927	5122.14
698.116	5214.3
698.305	5142.62
698.494	5052.51
698.683	4982.88
698.872	4972.64
699.061	5097.56
699.25	5032.03
699.438	4978.78
699.627	4874.34
699.816	5177.44
700.005	5042.27
700.193	4956.26
700.382	5015.65
700.571	4900.96
700.76	4898.91
700.948	5007.45
701.137	4800.61
701.326	4841.57
701.514	4743.27
701.703	4923.49
701.892	4984.93
702.08	4835.42
702.269	4929.63
702.457	4720.74
702.646	4737.12
702.834	4679.78
703.023	4855.9
703.212	4710.5
703.4	4649.06
703.589	4601.96
703.777	4829.28
703.965	4571.24
704.154	4726.88
704.342	4651.11
704.531	4554.85
704.719	4536.42
704.907	4675.68
705.096	4554.85
705.284	4563.05
705.472	4606.05
705.661	4638.82
705.849	4587.62
706.037	4612.2
706.226	4374.63
706.414	4407.4
706.602	4440.17
706.79	4673.64
706.979	4405.35
707.167	4397.16
707.355	4202.6
707.543	4329.58
707.731	4444.26
707.919	4255.85
708.107	4253.8
708.296	4259.95
708.484	4221.03
708.672	4268.14
708.86	4227.18
709.048	4229.23
709.236	4145.26
709.424	4366.44
709.612	4227.18
709.8	4186.22
709.988	4130.92
710.176	4231.27
710.364	4049
710.551	4178.03
710.739	4161.64
710.927	4202.6
711.115	4096.11
711.303	4282.47
711.491	4049
711.679	4104.3
711.866	4059.24
712.054	3909.74
712.242	3989.61
712.43	4149.36
712.617	3981.42
712.805	3956.85
712.993	4046.96
713.181	3819.63
713.368	3987.57
713.556	3881.07
713.744	4018.29
713.931	3981.42
714.119	3719.28
714.306	3891.31
714.494	3928.17
714.682	3782.77
714.869	3702.9
715.057	3868.78
715.244	3772.53
715.432	3866.74
715.619	3588.21
715.807	3895.41
715.994	3827.82
716.182	3606.64
716.369	3668.08
716.556	3836.02
716.744	3682.42
716.931	3659.89
717.119	3661.94
717.306	3649.65
717.493	3522.68
717.681	3680.37
717.868	3549.3
718.055	3563.64
718.242	3571.83
718.43	3688.56
718.617	3551.35
718.804	3526.77
718.991	3502.2
719.179	3575.92
719.366	3631.22
719.553	3547.25
719.74	3498.1
719.927	3598.45
720.114	3451
720.301	3479.67
720.488	3405.94
720.676	3438.71
720.863	3465.33
721.05	3494.01
721.237	3344.5
721.424	3338.36
721.611	3410.04
721.798	3465.33
721.985	3360.89
722.172	3328.12
722.358	3442.81
722.545	3395.7
722.732	3268.73
722.919	3418.23
723.106	3254.39
723.293	3326.07
723.48	3459.19
723.667	3170.43
723.853	3145.85
724.04	3229.82
724.227	3287.16
724.414	3301.5
724.6	3147.9
724.787	3270.78
724.974	3199.1
725.161	3092.6
725.347	3082.36
725.534	3180.67
725.72	3117.18
725.907	3090.56
726.094	3205.24
726.28	3090.56
726.467	3137.66
726.653	3139.71
726.84	3129.47
727.027	3033.21
727.213	3027.07
727.4	2967.68
727.586	2998.4
727.773	3154.04
727.959	3014.78
728.145	2979.97
728.332	2957.44
728.518	3010.68
728.705	3065.98
728.891	2953.34
729.077	2887.81
729.264	2979.97
729.45	2984.06
729.636	3012.73
729.823	2932.86
730.009	2900.09
730.195	2850.94
730.382	2887.81
730.568	2984.06
730.754	2943.1
730.94	2953.34
731.126	2961.53
731.313	2871.42
731.499	2789.5
731.685	2875.52
731.871	2881.66
732.057	2861.18
732.243	2848.9
732.429	2850.94
732.615	2805.89
732.801	2855.04
732.987	2728.07
733.173	2756.74
733.359	2789.5
733.545	2908.29
733.731	2838.66
733.917	2820.22
734.103	2719.87
734.289	2859.14
734.475	2711.68
734.661	2797.7
734.847	2850.94
735.033	2760.83
735.219	2793.6
735.404	2705.54
735.59	2803.84
735.776	2658.43
735.962	2703.49
736.148	2719.87
736.333	2646.15
736.519	2633.86
736.705	2574.47
736.89	2683.01
737.076	2701.44
737.262	2631.81
737.447	2494.6
737.633	2515.08
737.819	2572.42
738.004	2572.42
738.19	2574.47
738.375	2537.6
738.561	2486.4
738.747	2519.17
738.932	2435.21
739.118	2629.76
739.303	2578.56
739.489	2476.16
739.674	2459.78
739.859	2541.7
740.045	2492.55
740.23	2433.16
740.416	2388.1
740.601	2566.28
740.786	2502.79
740.972	2508.93
741.157	2451.59
741.342	2306.18
741.528	2422.92
741.713	2410.63
741.898	2281.61
742.084	2416.77
742.269	2508.93
742.454	2363.53
742.639	2384.01
742.824	2416.77
743.01	2396.29
743.195	2441.35
743.38	2283.66
743.565	2314.38
743.75	2302.09
743.935	2220.17
744.12	2367.62
744.305	2154.63
744.49	2197.64
744.675	2191.5
744.86	2160.78
745.045	2181.26
745.23	2195.59
745.415	2203.79
745.6	2211.98
745.785	2119.82
745.97	2154.63
746.155	2146.44
746.34	2005.13
746.525	2230.41
746.71	2148.49
746.895	2166.92
747.079	2056.33
747.264	2029.71
747.449	2017.42
747.634	2035.85
747.819	2050.19
748.003	2068.62
748.188	1880.21
748.373	1990.8
748.557	1990.8
748.742	1861.77
748.927	1953.93
749.111	1951.88
749.296	2031.76
749.481	1949.84
749.665	1927.31
749.85	1851.53
750.034	1974.41
750.219	1814.67
750.404	1779.86
750.588	1794.19
750.773	1796.24
750.957	1804.43
751.141	1734.8
751.326	1779.86
751.51	1642.64
751.695	1699.98
751.879	1843.34
752.064	1755.28
752.248	1695.89
752.432	1665.17
752.617	1736.85
752.801	1720.46
752.985	1607.83
753.17	1712.27
753.354	1699.98
753.538	1646.74
753.722	1607.83
753.907	1507.48
754.091	1607.83
754.275	1636.5
754.459	1450.13
754.643	1525.91
754.828	1583.25
755.012	1499.28
755.196	1611.92
755.38	1503.38
755.564	1491.09
755.748	1450.13
755.932	1501.33
756.116	1474.71
756.3	1517.72
756.484	1433.75
756.668	1577.11
756.852	1351.83
757.036	1308.82
757.22	1400.98
757.404	1323.16
757.588	1443.99
757.772	1431.7
757.956	1360.02
758.14	1425.56
758.323	1345.69
758.507	1355.93
758.691	1265.82
758.875	1308.82
759.059	1394.84
759.242	1306.77
759.426	1237.14
759.61	1261.72
759.794	1280.15
759.977	1271.96
760.161	1368.21
760.345	1196.18
760.528	1290.39
760.712	1257.62
760.895	1245.34
761.079	1149.08
761.263	1192.09
761.446	1329.3
761.63	1163.42
761.813	1253.53
761.997	1093.79
762.18	1134.75
762.364	1247.38
762.547	1183.9
762.731	1116.31
762.914	1132.7
763.098	1190.04
763.281	1208.47
763.464	1130.65
763.648	1134.75
763.831	1140.89
764.015	1063.07
764.198	1155.23
764.381	1140.89
764.564	1124.51
764.748	1216.66
764.931	1159.32
765.114	1136.79
765.297	1097.88
765.481	1147.03
765.664	1110.17
765.847	1058.97
766.03	1147.03
766.213	1018.01
766.397	1124.51
766.58	1018.01
766.763	1132.7
766.946	1155.23
767.129	1153.18
767.312	1044.63
767.495	1073.31
767.678	999.58
767.861	979.1
768.044	1040.54
768.227	1032.35
768.41	932
768.593	1018.01
768.776	991.39
768.959	1042.59
769.142	1001.63
769.324	1075.35
769.507	1018.01
769.69	960.67
769.873	968.86
770.056	1001.63
770.239	942.24
770.421	1083.55
770.604	1069.21
770.787	1052.83
770.97	917.66
771.152	905.37
771.335	913.56
771.518	1003.68
771.7	991.39
771.883	954.52
772.066	909.47
772.248	917.66
772.431	954.52
772.613	886.94
772.796	870.56
772.978	843.93
773.161	934.04
773.343	880.8
773.526	794.78
773.708	864.41
773.891	737.44
774.073	864.41
774.256	835.74
774.438	835.74
774.621	850.08
774.803	909.47
774.985	882.85
775.168	909.47
775.35	811.17
775.532	825.5
775.715	839.84
775.897	852.13
776.079	819.36
776.261	835.74
776.444	757.92
776.626	745.63
776.808	829.6
776.99	778.4
777.173	786.59
777.355	759.97
777.537	800.93
777.719	872.61
777.901	706.72
778.083	764.06
778.265	753.82
778.447	798.88
778.629	741.54
778.811	794.78
778.993	723.1
779.175	764.06
779.357	725.15
779.539	729.25
779.721	762.02
779.903	733.34
780.085	706.72
780.267	716.96
780.449	692.38
780.631	751.78
780.812	673.95
780.994	639.14
781.176	678.05
781.358	712.86
781.54	632.99
781.721	694.43
781.903	688.29
782.085	635.04
782.267	626.85
782.448	606.37
782.63	602.27
782.812	676
782.993	606.37
783.175	592.03
783.357	528.55
783.538	622.75
783.72	635.04
783.901	624.8
784.083	618.66
784.264	567.46
784.446	598.18
784.627	516.26
784.809	600.23
784.99	491.68
785.172	491.68
785.353	520.35
785.535	477.35
785.716	524.45
785.897	516.26
786.079	508.07
786.26	567.46
786.441	479.4
786.623	501.92
786.804	460.96
786.985	477.35
787.167	544.93
787.348	477.35
787.529	575.65
787.71	491.68
787.891	583.84
788.073	452.77
788.254	442.53
788.435	475.3
788.616	495.78
788.797	481.44
788.978	516.26
789.159	528.55
789.34	446.63
789.522	467.11
789.703	411.81
789.884	479.4
790.065	417.96
790.246	393.38
790.427	430.24
790.607	422.05
790.788	417.96
790.969	481.44
791.15	458.92
791.331	420
791.512	475.3
791.693	387.24
791.874	395.43
792.054	475.3
792.235	391.33
792.416	387.24
792.597	385.19
792.778	401.57
792.958	383.14
793.139	428.2
793.32	395.43
793.5	409.76
793.681	465.06
793.862	395.43
794.042	323.75
794.223	358.57
794.404	362.66
794.584	336.04
794.765	377
794.945	344.23
795.126	286.89
795.306	387.24
795.487	415.91
795.667	309.41
795.848	387.24
796.028	243.88
796.209	364.71
796.389	327.85
796.57	352.42
796.75	250.02
796.93	295.08
797.111	295.08
797.291	360.61
797.471	278.69
797.652	278.69
797.832	307.37
798.012	282.79
798.192	295.08
798.373	295.08
798.553	362.66
798.733	266.41
798.913	315.56
799.093	336.04
799.274	288.93
799.454	319.65
799.634	299.17
799.814	387.24
799.994	305.32
800.174	288.93
800.354	303.27
800.534	239.78
800.714	266.41
800.894	229.54
801.074	264.36
801.254	207.02
801.434	297.13
801.614	237.74
801.794	245.93
801.974	934.04
802.154	319.65
802.334	305.32
802.514	237.74
802.693	245.93
802.873	184.49
803.053	307.37
803.233	235.69
803.413	274.6
803.592	264.36
803.772	250.02
803.952	186.54
804.131	288.93
804.311	225.45
804.491	327.85
804.67	231.59
804.85	180.39
805.03	284.84
805.209	344.23
805.389	297.13
805.568	241.83
805.748	276.65
805.928	315.56
806.107	176.3
806.287	280.74
806.466	250.02
806.646	207.02
806.825	245.93
807.004	284.84
807.184	284.84
807.363	288.93
807.543	209.06
807.722	239.78
807.901	286.89
808.081	233.64
808.26	149.67
808.439	286.89
808.619	262.31
808.798	247.97
808.977	229.54
809.156	276.65
809.336	168.1
809.515	211.11
809.694	149.67
809.873	245.93
810.052	223.4
810.231	192.68
810.411	262.31
810.59	254.12
810.769	235.69
810.948	223.4
811.127	196.78
811.306	176.3
811.485	141.48
811.664	254.12
811.843	180.39
812.022	237.74
812.201	200.87
812.38	213.16
812.559	168.1
812.737	217.26
812.916	168.1
813.095	209.06
813.274	196.78
813.453	149.67
813.632	221.35
813.811	141.48
813.989	168.1
814.168	164.01
814.347	174.25
814.526	204.97
814.704	184.49
814.883	264.36
815.062	166.06
815.24	149.67
815.419	116.9
815.598	123.05
815.776	90.28
815.955	155.82
816.133	108.71
816.312	231.59
816.49	139.43
816.669	129.19
816.847	200.87
817.026	155.82
817.204	143.53
817.383	147.62
817.561	176.3
817.74	129.19
817.918	133.29
818.097	209.06
818.275	204.97
818.453	166.06
818.632	149.67
818.81	159.91
818.988	170.15
819.167	180.39
819.345	106.67
819.523	84.14
819.701	114.86
819.879	161.96
820.058	198.82
820.236	174.25
820.414	147.62
820.592	182.44
820.77	135.34
820.948	135.34
821.127	114.86
821.305	164.01
821.483	90.28
821.661	157.86
821.839	147.62
822.017	131.24
822.195	155.82
822.373	133.29
822.551	137.38
822.729	155.82
822.907	137.38
823.085	196.78
823.262	108.71
823.44	102.57
823.618	157.86
823.796	184.49
823.974	51.37
824.152	84.14
824.329	176.3
824.507	204.97
824.685	133.29
824.863	207.02
825.04	161.96
825.218	157.86
825.396	151.72
825.574	141.48
825.751	133.29
825.929	71.85
826.107	106.67
826.284	139.43
826.462	106.67
826.639	65.71
826.817	94.38
826.994	168.1
827.172	8.36
827.349	231.59
827.527	155.82
827.704	147.62
827.882	49.32
828.059	186.54
828.237	106.67
828.414	180.39
828.591	61.61
828.769	166.06
828.946	125.1
829.124	147.62
829.301	77.99
829.478	131.24
829.655	82.09
829.833	84.14
830.01	118.95
830.187	67.75
830.364	157.86
830.542	110.76
830.719	180.39
830.896	82.09
831.073	170.15
831.25	139.43
831.427	135.34
831.604	102.57
831.782	53.42
831.959	153.77
832.136	94.38
832.313	133.29
832.49	80.04
832.667	92.33
832.844	75.95
833.021	92.33
833.198	168.1
833.374	106.67
833.551	147.62
833.728	82.09
833.905	100.52
834.082	98.47
834.259	106.67
834.436	155.82
834.612	73.9
834.789	110.76
834.966	159.91
835.143	110.76
835.319	84.14
835.496	133.29
835.673	82.09
835.85	94.38
836.026	100.52
836.203	151.72
836.38	110.76
836.556	125.1
836.733	39.08
836.909	125.1
837.086	90.28
837.262	47.27
837.439	112.81
837.616	75.95
837.792	80.04
837.968	45.23
838.145	110.76
838.321	143.53
838.498	49.32
838.674	73.9
838.851	82.09
839.027	143.53
839.203	65.71
839.38	96.43
839.556	90.28
839.732	196.78
839.909	90.28
840.085	147.62
840.261	28.84
840.437	82.09
840.614	57.51
840.79	82.09
840.966	106.67
841.142	57.51
841.318	139.43
841.494	49.32
841.671	55.47
841.847	-3.93
842.023	45.23
842.199	98.47
842.375	106.67
842.551	18.6
842.727	41.13
842.903	127.14
843.079	51.37
843.255	155.82
843.431	84.14
843.607	98.47
843.783	82.09
843.959	106.67
844.134	94.38
844.31	73.9
844.486	34.99
844.662	32.94
844.838	43.18
845.013	98.47
845.189	43.18
845.365	98.47
845.541	61.61
845.716	82.09
845.892	43.18
846.068	108.71
846.244	65.71
846.419	16.55
846.595	41.13
846.77	57.51
846.946	125.1
847.122	139.43
847.297	32.94
847.473	125.1
847.648	61.61
847.824	157.86
847.999	77.99
848.175	88.23
848.35	69.8
848.526	100.52
848.701	112.81
848.876	102.57
849.052	63.66
849.227	2.22
849.403	49.32
849.578	32.94
849.753	20.65
849.929	73.9
850.104	47.27
850.279	114.86
850.454	34.99
850.63	49.32
850.805	84.14
850.98	86.19
851.155	0.17
851.33	14.51
851.505	-8.02
851.681	94.38
851.856	-30.55
852.031	75.95
852.206	18.6
852.381	45.23
852.556	67.75
852.731	49.32
852.906	118.95
853.081	32.94
853.256	110.76
853.431	8.36
853.606	4.27
853.781	-53.08
853.956	43.18
854.131	41.13
854.305	18.6
854.48	61.61
854.655	39.08
854.83	-8.02
855.005	65.71
855.18	127.14
855.354	49.32
855.529	77.99
855.704	0.17
855.879	94.38
856.053	55.47
856.228	141.48
856.403	43.18
856.577	125.1
856.752	-55.12
856.926	123.05
857.101	18.6
857.276	77.99
857.45	8.36
857.625	41.13
857.799	45.23
857.974	20.65
858.148	-22.36
858.323	92.33
858.497	34.99
858.672	47.27
858.846	34.99
859.02	55.47
859.195	67.75
859.369	37.03
859.543	-32.6
859.718	88.23
859.892	32.94
860.066	84.14
860.241	20.65
860.415	59.56
860.589	39.08
860.763	39.08
860.938	-14.17
861.112	100.52
861.286	151.72
861.46	-44.88
861.634	84.14
861.808	22.7
861.982	0.17
862.157	77.99
862.331	32.94
862.505	65.71
862.679	12.46
862.853	2.22
863.027	2.22
863.201	57.51
863.375	-46.93
863.549	-5.97
863.722	20.65
863.896	71.85
864.07	6.31
864.244	-8.02
864.418	90.28
864.592	28.84
864.766	45.23
864.939	118.95
865.113	0.17
865.287	114.86
865.461	30.89
865.634	45.23
865.808	57.51
865.982	55.47
866.156	4.27
866.329	10.41
866.503	-46.93
866.676	59.56
866.85	26.79
867.024	49.32
867.197	16.55
867.371	34.99
867.544	24.75
867.718	57.51
867.891	-16.21
868.065	-32.6
868.238	8.36
868.412	71.85
868.585	-8.02
868.759	24.75
868.932	73.9
869.105	57.51
869.279	0.17
869.452	-3.93
869.625	24.75
869.799	39.08
869.972	82.09
870.145	28.84
870.319	-14.17
870.492	2.22
870.665	32.94
870.838	-32.6
871.011	10.41
871.185	-14.17
871.358	90.28
871.531	37.03
871.704	-46.93
871.877	-20.31
872.05	-16.21
872.223	-1.88
872.396	8.36
872.569	-36.69
872.742	41.13
872.915	57.51
873.088	-16.21
873.261	51.37
873.434	39.08
873.607	24.75
873.78	41.13
873.953	26.79
874.126	110.76
874.299	-20.31
874.471	-40.79
874.644	96.43
874.817	6.31
874.99	90.28
875.163	0.17
875.335	-8.02
875.508	57.51
875.681	67.75
875.853	16.55
876.026	-48.98
876.199	90.28
876.371	41.13
876.544	123.05
876.717	18.6
876.889	6.31
877.062	41.13
877.234	-55.12
877.407	-12.12
877.579	-28.5
877.752	-16.21
877.924	12.46
878.097	2.22
878.269	10.41
878.442	-28.5
878.614	123.05
878.786	49.32
878.959	16.55
879.131	20.65
879.303	18.6
879.476	4.27
879.648	67.75
879.82	69.8
879.993	26.79
880.165	24.75
880.337	2.22
880.509	8.36
880.681	-20.31
880.854	26.79
881.026	-18.26
881.198	65.71
881.37	-32.6
881.542	8.36
881.714	63.66
881.886	-46.93
882.058	86.19
882.23	20.65
882.402	37.03
882.574	0.17
882.746	0.17
882.918	53.42
883.09	24.75
883.262	10.41
883.434	82.09
883.606	-32.6
883.778	-8.02
883.95	65.71
884.122	2.22
884.293	2.22
884.465	14.51
884.637	10.41
884.809	16.55
884.98	20.65
885.152	22.7
885.324	-3.93
885.496	0.17
885.667	16.55
885.839	-32.6
886.011	18.6
886.182	24.75
886.354	26.79
886.525	67.75
886.697	32.94
886.869	28.84
887.04	53.42
887.212	73.9
887.383	20.65
887.555	57.51
887.726	-38.74
887.897	16.55
888.069	106.67
888.24	84.14
888.412	37.03
888.583	34.99
888.754	8.36
888.926	-48.98
889.097	-46.93
889.268	-69.46
889.44	-5.97
889.611	32.94
889.782	18.6
889.953	-22.36
890.125	65.71
890.296	28.84
890.467	18.6
890.638	57.51
890.809	65.71
890.98	-110.42
891.151	26.79
891.323	114.86
891.494	6.31
891.665	-22.36
891.836	6.31
892.007	53.42
892.178	34.99
892.349	16.55
892.52	-8.02
892.691	-24.4
892.862	-5.97
893.032	8.36
893.203	10.41
893.374	8.36
893.545	57.51
893.716	-48.98
893.887	43.18
894.057	-73.56
894.228	-8.02
894.399	4.27
894.57	77.99
894.74	-5.97
894.911	65.71
895.082	-3.93
895.253	41.13
895.423	-20.31
895.594	41.13
895.764	-20.31
895.935	0.17
896.106	8.36
896.276	-8.02
896.447	28.84
896.617	-16.21
896.788	-10.07
896.958	-12.12
897.129	-46.93
897.299	-24.4
897.47	41.13
897.64	45.23
897.81	-40.79
897.981	24.75
898.151	-16.21
898.322	4.27
898.492	-5.97
898.662	12.46
898.832	-8.02
899.003	8.36
899.173	-26.45
899.343	84.14
899.513	-32.6
