Data from USB4F104151__304__14-34-59-971.txt Node

Date: Thu Mar 13 14:34:59 EDT 2025
User: louis
Spectrometer: USB4F10415
Trigger mode: 4
Integration Time (sec): 2.500000E-2
Scans to average: 1
Electric dark correction enabled: true
Nonlinearity correction enabled: false
Boxcar width: 0
XAxis mode: Wavelengths
Number of Pixels in Spectrum: 3648
>>>>>Begin Spectral Data<<<<<
178.204	-161.79
178.424	-161.79
178.644	-161.79
178.864	-169.98
179.084	-94.21
179.304	-32.77
179.524	-6.14
179.744	-43.01
179.964	59.39
180.184	2.05
180.404	10.24
180.624	20.48
180.844	-4.1
181.064	-4.1
181.283	-24.58
181.503	30.72
181.723	-8.19
181.943	-22.53
182.163	96.25
182.383	34.82
182.602	67.58
182.822	110.59
183.042	28.67
183.262	-32.77
183.482	-10.24
183.701	-6.14
183.921	120.83
184.141	20.48
184.361	108.54
184.58	18.43
184.8	108.54
185.02	14.34
185.239	67.58
185.459	26.62
185.679	75.77
185.898	-45.06
186.118	92.16
186.338	45.06
186.557	59.39
186.777	34.82
186.997	65.54
187.216	20.48
187.436	67.58
187.655	34.82
187.875	59.39
188.095	126.97
188.314	77.82
188.534	-18.43
188.753	59.39
188.973	26.62
189.192	137.21
189.412	102.4
189.631	34.82
189.851	49.15
190.07	75.77
190.29	-14.34
190.509	6.14
190.729	4.1
190.948	141.31
191.168	200.7
191.387	75.77
191.607	45.06
191.826	102.4
192.045	75.77
192.265	53.25
192.484	116.73
192.704	71.68
192.923	2.05
193.142	112.64
193.362	69.63
193.581	98.3
193.8	14.34
194.02	75.77
194.239	-36.86
194.458	-4.1
194.678	63.49
194.897	6.14
195.116	45.06
195.335	47.1
195.555	92.16
195.774	43.01
195.993	73.73
196.212	83.97
196.432	51.2
196.651	55.3
196.87	26.62
197.089	53.25
197.308	75.77
197.528	47.1
197.747	-12.29
197.966	20.48
198.185	92.16
198.404	34.82
198.623	131.07
198.842	4.1
199.062	43.01
199.281	63.49
199.5	30.72
199.719	45.06
199.938	65.54
200.157	34.82
200.376	38.91
200.595	10.24
200.814	-6.14
201.033	-55.3
201.252	106.49
201.471	-34.82
201.69	59.39
201.909	22.53
202.128	51.2
202.347	61.44
202.566	67.58
202.785	-47.1
203.004	12.29
203.223	92.16
203.442	43.01
203.661	83.97
203.879	71.68
204.098	92.16
204.317	61.44
204.536	71.68
204.755	51.2
204.974	59.39
205.193	47.1
205.411	116.73
205.63	30.72
205.849	149.5
206.068	-10.24
206.287	22.53
206.505	104.45
206.724	12.29
206.943	-40.96
207.162	102.4
207.381	26.62
207.599	12.29
207.818	40.96
208.037	-8.19
208.255	67.58
208.474	108.54
208.693	-6.14
208.911	124.93
209.13	34.82
209.349	141.31
209.567	71.68
209.786	20.48
210.005	-14.34
210.223	12.29
210.442	-20.48
210.661	12.29
210.879	34.82
211.098	96.25
211.316	79.87
211.535	63.49
211.753	26.62
211.972	55.3
212.191	59.39
212.409	-2.05
212.628	94.21
212.846	-14.34
213.065	129.02
213.283	75.77
213.502	102.4
213.72	55.3
213.938	75.77
214.157	10.24
214.375	59.39
214.594	86.01
214.812	69.63
215.031	90.11
215.249	-14.34
215.467	55.3
215.686	38.91
215.904	55.3
216.122	40.96
216.341	86.01
216.559	-14.34
216.778	28.67
216.996	126.97
217.214	53.25
217.432	12.29
217.651	-71.68
217.869	94.21
218.087	51.2
218.306	34.82
218.524	40.96
218.742	10.24
218.96	83.97
219.179	18.43
219.397	34.82
219.615	88.06
219.833	110.59
220.051	6.14
220.27	51.2
220.488	67.58
220.706	30.72
220.924	34.82
221.142	0
221.36	34.82
221.578	-34.82
221.796	34.82
222.015	22.53
222.233	79.87
222.451	118.78
222.669	47.1
222.887	94.21
223.105	20.48
223.323	22.53
223.541	14.34
223.759	36.86
223.977	4.1
224.195	116.73
224.413	-28.67
224.631	55.3
224.849	65.54
225.067	86.01
225.285	34.82
225.503	43.01
225.721	-71.68
225.939	55.3
226.157	18.43
226.375	174.08
226.592	0
226.81	-2.05
227.028	118.78
227.246	18.43
227.464	51.2
227.682	69.63
227.9	71.68
228.117	112.64
228.335	61.44
228.553	10.24
228.771	83.97
228.989	22.53
229.206	-6.14
229.424	-20.48
229.642	-4.1
229.86	38.91
230.077	88.06
230.295	26.62
230.513	43.01
230.731	75.77
230.948	126.97
231.166	83.97
231.384	2.05
231.601	-18.43
231.819	118.78
232.037	71.68
232.254	4.1
232.472	26.62
232.689	34.82
232.907	28.67
233.125	92.16
233.342	100.35
233.56	30.72
233.777	26.62
233.995	6.14
234.213	79.87
234.43	53.25
234.648	102.4
234.865	-38.91
235.083	34.82
235.3	47.1
235.518	67.58
235.735	114.69
235.953	100.35
236.17	69.63
236.388	16.38
236.605	34.82
236.822	86.01
237.04	88.06
237.257	28.67
237.475	47.1
237.692	45.06
237.909	57.34
238.127	4.1
238.344	86.01
238.562	36.86
238.779	75.77
238.996	6.14
239.214	-10.24
239.431	30.72
239.648	77.82
239.865	6.14
240.083	43.01
240.3	71.68
240.517	51.2
240.735	2.05
240.952	53.25
241.169	4.1
241.386	61.44
241.603	65.54
241.821	-6.14
242.038	55.3
242.255	129.02
242.472	18.43
242.689	75.77
242.907	81.92
243.124	34.82
243.341	-30.72
243.558	-24.58
243.775	-28.67
243.992	-20.48
244.209	36.86
244.426	165.89
244.643	114.69
244.86	110.59
245.078	4.1
245.295	-14.34
245.512	4.1
245.729	43.01
245.946	94.21
246.163	16.38
246.38	77.82
246.597	45.06
246.814	43.01
247.031	79.87
247.248	12.29
247.464	43.01
247.681	104.45
247.898	14.34
248.115	71.68
248.332	20.48
248.549	83.97
248.766	126.97
248.983	108.54
249.2	10.24
249.417	36.86
249.633	94.21
249.85	69.63
250.067	2.05
250.284	26.62
250.501	102.4
250.717	65.54
250.934	36.86
251.151	-34.82
251.368	-34.82
251.585	86.01
251.801	30.72
252.018	36.86
252.235	75.77
252.451	53.25
252.668	-38.91
252.885	71.68
253.102	98.3
253.318	28.67
253.535	47.1
253.752	-71.68
253.968	110.59
254.185	-18.43
254.401	20.48
254.618	18.43
254.835	6.14
255.051	129.02
255.268	116.73
255.484	63.49
255.701	100.35
255.917	10.24
256.134	67.58
256.351	12.29
256.567	-40.96
256.784	55.3
257	30.72
257.217	51.2
257.433	-4.1
257.65	120.83
257.866	118.78
258.082	18.43
258.299	-36.86
258.515	36.86
258.732	75.77
258.948	61.44
259.165	43.01
259.381	-2.05
259.597	83.97
259.814	8.19
260.03	53.25
260.246	47.1
260.463	112.64
260.679	174.08
260.895	-18.43
261.112	92.16
261.328	53.25
261.544	2.05
261.761	126.97
261.977	20.48
262.193	-14.34
262.409	4.1
262.626	104.45
262.842	75.77
263.058	14.34
263.274	6.14
263.49	57.34
263.707	0
263.923	2.05
264.139	-4.1
264.355	53.25
264.571	133.12
264.787	69.63
265.004	18.43
265.22	73.73
265.436	10.24
265.652	34.82
265.868	59.39
266.084	96.25
266.3	-2.05
266.516	-20.48
266.732	102.4
266.948	43.01
267.164	100.35
267.38	79.87
267.596	59.39
267.812	57.34
268.028	83.97
268.244	43.01
268.46	83.97
268.676	-14.34
268.892	53.25
269.108	59.39
269.324	18.43
269.54	51.2
269.756	67.58
269.972	-30.72
270.188	26.62
270.403	47.1
270.619	30.72
270.835	26.62
271.051	79.87
271.267	-6.14
271.483	133.12
271.698	88.06
271.914	2.05
272.13	40.96
272.346	94.21
272.562	47.1
272.777	120.83
272.993	38.91
273.209	86.01
273.425	40.96
273.64	30.72
273.856	8.19
274.072	131.07
274.287	2.05
274.503	18.43
274.719	51.2
274.934	124.93
275.15	-63.49
275.366	63.49
275.581	-47.1
275.797	20.48
276.012	94.21
276.228	22.53
276.444	61.44
276.659	43.01
276.875	38.91
277.09	-65.53
277.306	-45.06
277.521	63.49
277.737	69.63
277.952	69.63
278.168	79.87
278.383	73.73
278.599	73.73
278.814	65.54
279.03	63.49
279.245	145.41
279.461	43.01
279.676	94.21
279.892	28.67
280.107	61.44
280.322	-30.72
280.538	-22.53
280.753	26.62
280.969	104.45
281.184	-4.1
281.399	63.49
281.615	26.62
281.83	8.19
282.045	30.72
282.26	8.19
282.476	59.39
282.691	-34.82
282.906	36.86
283.122	122.88
283.337	2.05
283.552	14.34
283.767	26.62
283.983	165.89
284.198	79.87
284.413	18.43
284.628	-6.14
284.843	-14.34
285.058	96.25
285.274	34.82
285.489	-36.86
285.704	67.58
285.919	-4.1
286.134	79.87
286.349	-71.68
286.564	34.82
286.779	98.3
286.995	-49.15
287.21	-6.14
287.425	18.43
287.64	24.58
287.855	116.73
288.07	47.1
288.285	36.86
288.5	77.82
288.715	57.34
288.93	10.24
289.145	67.58
289.36	20.48
289.575	-10.24
289.79	51.2
290.004	18.43
290.219	104.45
290.434	14.34
290.649	26.62
290.864	-16.38
291.079	4.1
291.294	110.59
291.509	55.3
291.724	10.24
291.938	-10.24
292.153	126.97
292.368	-20.48
292.583	75.77
292.798	110.59
293.012	77.82
293.227	55.3
293.442	20.48
293.657	61.44
293.871	67.58
294.086	-34.82
294.301	98.3
294.516	75.77
294.73	-6.14
294.945	8.19
295.16	75.77
295.374	83.97
295.589	73.73
295.804	-45.06
296.018	2.05
296.233	43.01
296.447	73.73
296.662	14.34
296.877	135.17
297.091	59.39
297.306	139.26
297.52	69.63
297.735	51.2
297.949	30.72
298.164	22.53
298.378	34.82
298.593	53.25
298.807	-4.1
299.022	2.05
299.236	102.4
299.451	12.29
299.665	34.82
299.88	36.86
300.094	90.11
300.309	34.82
300.523	77.82
300.737	73.73
300.952	83.97
301.166	75.77
301.381	-22.53
301.595	45.06
301.809	2.05
302.024	26.62
302.238	51.2
302.452	34.82
302.667	129.02
302.881	63.49
303.095	124.93
303.309	51.2
303.524	73.73
303.738	40.96
303.952	2.05
304.166	-14.34
304.381	-32.77
304.595	126.97
304.809	57.34
305.023	10.24
305.237	45.06
305.452	67.58
305.666	112.64
305.88	96.25
306.094	59.39
306.308	30.72
306.522	106.49
306.736	53.25
306.95	53.25
307.164	36.86
307.379	114.69
307.593	14.34
307.807	83.97
308.021	57.34
308.235	71.68
308.449	26.62
308.663	18.43
308.877	110.59
309.091	43.01
309.305	94.21
309.519	-40.96
309.733	26.62
309.947	8.19
310.161	28.67
310.374	83.97
310.588	88.06
310.802	-8.19
311.016	10.24
311.23	30.72
311.444	77.82
311.658	12.29
311.872	112.64
312.085	34.82
312.299	79.87
312.513	77.82
312.727	47.1
312.941	83.97
313.154	88.06
313.368	-38.91
313.582	92.16
313.796	120.83
314.009	94.21
314.223	126.97
314.437	69.63
314.651	30.72
314.864	69.63
315.078	-10.24
315.292	-4.1
315.505	26.62
315.719	149.5
315.933	26.62
316.146	28.67
316.36	51.2
316.573	2.05
316.787	96.25
317.001	26.62
317.214	-36.86
317.428	18.43
317.641	120.83
317.855	30.72
318.068	-22.53
318.282	49.15
318.495	174.08
318.709	40.96
318.922	18.43
319.136	77.82
319.349	-2.05
319.563	34.82
319.776	102.4
319.99	51.2
320.203	30.72
320.417	24.58
320.63	116.73
320.843	36.86
321.057	73.73
321.27	59.39
321.483	55.3
321.697	71.68
321.91	69.63
322.124	114.69
322.337	75.77
322.55	61.44
322.763	38.91
322.977	4.1
323.19	43.01
323.403	28.67
323.617	55.3
323.83	88.06
324.043	59.39
324.256	51.2
324.469	20.48
324.683	51.2
324.896	-34.82
325.109	65.54
325.322	24.58
325.535	126.97
325.748	112.64
325.962	22.53
326.175	51.2
326.388	92.16
326.601	34.82
326.814	51.2
327.027	26.62
327.24	34.82
327.453	6.14
327.666	65.54
327.879	34.82
328.092	108.54
328.305	14.34
328.518	83.97
328.731	69.63
328.944	47.1
329.157	36.86
329.37	28.67
329.583	133.12
329.796	116.73
330.009	-28.67
330.222	69.63
330.435	151.55
330.648	92.16
330.861	79.87
331.073	26.62
331.286	135.17
331.499	53.25
331.712	6.14
331.925	83.97
332.138	4.1
332.35	47.1
332.563	4.1
332.776	26.62
332.989	49.15
333.202	-4.1
333.414	26.62
333.627	90.11
333.84	18.43
334.053	110.59
334.265	34.82
334.478	51.2
334.691	6.14
334.903	88.06
335.116	16.38
335.329	22.53
335.541	-2.05
335.754	157.69
335.966	18.43
336.179	30.72
336.392	59.39
336.604	-2.05
336.817	36.86
337.029	51.2
337.242	63.49
337.454	32.77
337.667	28.67
337.88	67.58
338.092	108.54
338.305	61.44
338.517	53.25
338.729	133.12
338.942	69.63
339.154	-38.91
339.367	83.97
339.579	73.73
339.792	55.3
340.004	75.77
340.217	75.77
340.429	71.68
340.641	-10.24
340.854	120.83
341.066	34.82
341.278	133.12
341.491	200.7
341.703	96.25
341.915	67.58
342.128	40.96
342.34	69.63
342.552	83.97
342.764	24.58
342.977	51.2
343.189	83.97
343.401	18.43
343.613	12.29
343.826	30.72
344.038	20.48
344.25	-57.34
344.462	-4.1
344.674	-26.62
344.886	92.16
345.099	100.35
345.311	100.35
345.523	-4.1
345.735	53.25
345.947	71.68
346.159	18.43
346.371	12.29
346.583	86.01
346.795	69.63
347.007	77.82
347.219	98.3
347.431	36.86
347.643	53.25
347.855	51.2
348.067	112.64
348.279	10.24
348.491	137.21
348.703	92.16
348.915	53.25
349.127	53.25
349.339	92.16
349.551	59.39
349.763	124.93
349.975	20.48
350.187	67.58
350.399	59.39
350.61	49.15
350.822	61.44
351.034	34.82
351.246	43.01
351.458	47.1
351.669	65.54
351.881	20.48
352.093	104.45
352.305	2.05
352.517	38.91
352.728	88.06
352.94	69.63
353.152	104.45
353.363	43.01
353.575	-4.1
353.787	157.69
353.999	55.3
354.21	104.45
354.422	47.1
354.633	71.68
354.845	53.25
355.057	73.73
355.268	104.45
355.48	77.82
355.692	-30.72
355.903	28.67
356.115	61.44
356.326	-69.63
356.538	94.21
356.749	28.67
356.961	69.63
357.172	28.67
357.384	67.58
357.595	102.4
357.807	149.5
358.018	59.39
358.23	63.49
358.441	77.82
358.653	43.01
358.864	47.1
359.075	-4.1
359.287	141.31
359.498	-4.1
359.709	86.01
359.921	88.06
360.132	-12.29
360.344	26.62
360.555	71.68
360.766	28.67
360.977	65.54
361.189	34.82
361.4	108.54
361.611	100.35
361.823	28.67
362.034	96.25
362.245	4.1
362.456	0
362.667	81.92
362.879	18.43
363.09	81.92
363.301	26.62
363.512	20.48
363.723	94.21
363.935	18.43
364.146	79.87
364.357	12.29
364.568	67.58
364.779	77.82
364.99	79.87
365.201	-12.29
365.412	83.97
365.623	-30.72
365.834	20.48
366.045	94.21
366.256	141.31
366.467	67.58
366.678	67.58
366.889	75.77
367.1	102.4
367.311	75.77
367.522	20.48
367.733	75.77
367.944	192.51
368.155	-12.29
368.366	143.36
368.577	92.16
368.788	75.77
368.999	24.58
369.209	45.06
369.42	135.17
369.631	122.88
369.842	106.49
370.053	18.43
370.264	77.82
370.474	53.25
370.685	69.63
370.896	51.2
371.107	96.25
371.317	143.36
371.528	100.35
371.739	106.49
371.95	2.05
372.16	-6.14
372.371	-26.62
372.582	65.54
372.792	36.86
373.003	98.3
373.214	12.29
373.424	112.64
373.635	14.34
373.846	100.35
374.056	100.35
374.267	86.01
374.477	59.39
374.688	0
374.898	40.96
375.109	75.77
375.319	92.16
375.53	102.4
375.74	40.96
375.951	71.68
376.161	92.16
376.372	81.92
376.582	59.39
376.793	65.54
377.003	10.24
377.214	53.25
377.424	88.06
377.635	135.17
377.845	28.67
378.055	92.16
378.266	36.86
378.476	69.63
378.686	63.49
378.897	59.39
379.107	86.01
379.317	106.49
379.528	4.1
379.738	86.01
379.948	83.97
380.158	108.54
380.369	59.39
380.579	83.97
380.789	14.34
380.999	149.5
381.21	43.01
381.42	169.98
381.63	92.16
381.84	40.96
382.05	12.29
382.261	24.58
382.471	92.16
382.681	43.01
382.891	114.69
383.101	108.54
383.311	-4.1
383.521	118.78
383.731	55.3
383.941	124.93
384.151	0
384.361	12.29
384.571	38.91
384.781	36.86
384.991	149.5
385.201	137.21
385.411	75.77
385.621	151.55
385.831	126.97
386.041	108.54
386.251	34.82
386.461	139.26
386.671	135.17
386.881	92.16
387.091	151.55
387.301	92.16
387.511	22.53
387.72	92.16
387.93	30.72
388.14	59.39
388.35	73.73
388.56	75.77
388.769	79.87
388.979	79.87
389.189	34.82
389.399	-2.05
389.609	104.45
389.818	83.97
390.028	55.3
390.238	129.02
390.447	18.43
390.657	61.44
390.867	30.72
391.076	-38.91
391.286	83.97
391.496	118.78
391.705	106.49
391.915	149.5
392.125	129.02
392.334	108.54
392.544	133.12
392.753	-22.53
392.963	26.62
393.172	67.58
393.382	-28.67
393.591	106.49
393.801	71.68
394.01	188.41
394.22	83.97
394.429	120.83
394.639	71.68
394.848	92.16
395.058	59.39
395.267	102.4
395.477	124.93
395.686	75.77
395.895	174.08
396.105	206.84
396.314	61.44
396.524	102.4
396.733	57.34
396.942	182.27
397.152	157.69
397.361	83.97
397.57	83.97
397.78	86.01
397.989	108.54
398.198	245.76
398.407	100.35
398.617	36.86
398.826	88.06
399.035	96.25
399.244	133.12
399.453	167.93
399.663	77.82
399.872	129.02
400.081	75.77
400.29	149.5
400.499	75.77
400.708	108.54
400.917	133.12
401.127	137.21
401.336	149.5
401.545	153.6
401.754	178.17
401.963	157.69
402.172	47.1
402.381	104.45
402.59	104.45
402.799	94.21
403.008	200.7
403.217	202.75
403.426	206.84
403.635	126.97
403.844	180.22
404.053	233.47
404.262	137.21
404.471	192.51
404.68	258.04
404.888	190.46
405.097	165.89
405.306	190.46
405.515	206.84
405.724	198.65
405.933	251.9
406.142	141.31
406.35	208.89
406.559	198.65
406.768	260.09
406.977	266.24
407.185	221.18
407.394	264.19
407.603	120.83
407.812	223.23
408.02	264.19
408.229	305.15
408.438	305.15
408.646	249.85
408.855	311.29
409.064	288.76
409.272	356.35
409.481	362.49
409.69	278.52
409.898	241.66
410.107	378.87
410.315	382.97
410.524	331.77
410.733	430.07
410.941	397.31
411.15	434.17
411.358	419.83
411.567	509.94
411.775	460.79
411.984	458.75
412.192	540.66
412.401	518.14
412.609	638.97
412.818	552.95
413.026	577.53
413.234	567.29
413.443	688.12
413.651	608.25
413.86	651.25
414.068	747.51
414.276	765.94
414.485	759.8
414.693	790.52
414.901	804.85
415.11	770.04
415.318	821.24
415.526	890.87
415.734	923.63
415.943	780.28
416.151	983.03
416.359	1019.89
416.567	1026.03
416.776	1054.7
416.984	1136.62
417.192	1183.73
417.4	1083.38
417.608	1128.43
417.817	1320.94
418.025	1210.35
418.233	1337.32
418.441	1310.7
418.649	1370.09
418.857	1490.92
419.065	1570.79
419.273	1525.74
419.481	1517.54
419.689	1665
419.897	1718.25
420.105	1697.77
420.313	1814.5
420.521	1832.93
420.729	1861.6
420.937	1918.95
421.145	1867.75
421.353	2164.7
421.561	2172.89
421.769	2217.95
421.977	2385.88
422.185	2328.54
422.393	2516.95
422.601	2641.88
422.809	2617.3
423.017	2684.89
423.224	2756.57
423.432	2815.96
423.64	2861.01
423.848	3246.03
424.056	2979.79
424.263	3434.44
424.471	3323.85
424.679	3508.17
424.887	3610.57
425.094	3663.82
425.302	3635.14
425.51	3991.49
425.718	3921.86
425.925	3911.62
426.133	4173.76
426.341	4419.52
426.548	4618.17
426.756	4581.31
426.964	4509.63
427.171	4745.14
427.379	4921.27
427.586	5007.28
427.794	5302.19
428.001	5416.88
428.209	5609.39
428.417	5556.14
428.624	5918.63
428.832	6023.08
429.039	5910.44
429.247	6143.91
429.454	6514.59
429.662	7077.78
429.869	6436.77
430.076	6932.37
430.284	6729.63
430.491	7141.27
430.699	7544.72
430.906	7450.51
431.114	7573.39
431.321	7749.51
431.528	7886.73
431.736	8517.5
431.943	8939.38
432.15	8529.79
432.358	8716.15
432.565	9201.52
432.772	9238.39
432.979	9529.2
433.187	10004.33
433.394	9877.35
433.601	10483.55
433.808	10549.09
434.016	10266.47
434.223	10897.24
434.43	11396.95
434.637	11300.69
434.844	11880.27
435.052	11994.95
435.259	12089.16
435.466	12220.23
435.673	12269.38
435.88	12822.33
436.087	13707.05
436.294	13475.63
436.501	13170.49
436.708	13449.01
436.915	14059.31
437.122	14296.87
437.329	14731.04
437.537	14964.51
437.743	15175.45
437.95	15267.61
438.157	15988.49
438.364	16508.68
438.571	16312.07
438.778	16590.59
438.985	17938.16
439.192	17067.77
439.399	17696.5
439.606	17221.37
439.813	18517.73
440.02	19521.24
440.227	19154.65
440.433	19238.62
440.64	19597.01
440.847	19580.63
441.054	20123.34
441.261	21108.41
441.467	20833.99
441.674	21583.54
441.881	22202.03
442.088	22230.7
442.294	21978.8
442.501	22030
442.708	23129.76
442.914	23793.3
443.121	24747.65
443.328	24252.05
443.534	26113.65
443.741	25028.23
443.948	24313.49
444.154	26658.41
444.361	26773.1
444.568	26445.42
444.774	26109.55
444.981	26836.58
445.187	27493.98
445.394	28681.8
445.6	28542.54
445.807	31237.67
446.013	29771.32
446.22	30185.01
446.426	31669.79
446.633	31415.84
446.839	33060.36
447.046	31174.18
447.252	33326.6
447.459	33234.44
447.665	33132.04
447.871	34369.01
448.078	35937.76
448.284	34358.77
448.491	35786.21
448.697	36650.45
448.903	37430.72
449.11	37576.13
449.316	36795.85
449.522	37449.16
449.728	38471.09
449.935	38559.16
450.141	38622.64
450.347	39519.65
450.553	38124.99
450.76	38862.25
450.966	39886.24
451.172	39663.01
451.378	40734.1
451.584	39972.25
451.791	40654.23
451.997	40869.26
452.203	41303.43
452.409	41393.54
452.615	40895.89
452.821	39300.52
453.027	39443.88
453.233	41072.01
453.44	39620
453.646	39869.86
453.852	39882.14
454.058	40592.79
454.264	39591.33
454.47	40369.56
454.676	39509.41
454.882	40785.3
455.088	37234.12
455.294	38254.01
455.5	38481.33
455.705	38751.66
455.911	37318.09
456.117	36443.6
456.323	36201.94
456.529	34297.33
456.735	35689.95
456.941	34428.4
457.147	34004.47
457.352	33314.31
457.558	32929.29
457.764	32605.71
457.97	32239.12
458.176	31299.11
458.381	31358.5
458.587	30008.89
458.793	29984.31
458.999	28501.58
459.204	30010.93
459.41	29607.48
459.616	27639.39
459.821	27883.09
460.027	27455.07
460.233	26984.04
460.438	25665.14
460.644	25779.83
460.85	24532.62
461.055	24059.54
461.261	24258.19
461.466	22191.79
461.672	21774
461.878	23142.05
462.083	21511.86
462.289	21309.11
462.494	20825.79
462.7	20276.94
462.905	19633.88
463.111	20326.09
463.316	20254.41
463.522	19693.27
463.727	19777.23
463.932	19799.76
464.138	19406.55
464.343	19574.49
464.549	19042.01
464.754	19803.86
464.959	19670.74
465.165	19449.56
465.37	18474.73
465.575	17874.67
465.781	18724.58
465.986	18859.74
466.191	18099.95
466.397	17817.33
466.602	17114.87
466.807	17430.26
467.012	17510.13
467.218	17428.21
467.423	16987.9
467.628	17266.42
467.833	18079.47
468.038	17649.39
468.244	17012.48
468.449	17377.01
468.654	16434.95
468.859	16609.03
469.064	16586.5
469.269	16156.43
469.474	16174.86
469.679	16484.1
469.885	16109.32
470.09	16172.81
470.295	16051.98
470.5	15482.64
470.705	15587.09
470.91	15398.68
471.115	15157.02
471.32	15689.49
471.525	15370.01
471.73	15161.11
471.935	14929.69
472.139	14391.08
472.344	14554.91
472.549	14171.94
472.754	14374.69
472.959	14038.83
473.164	13594.42
473.369	13774.64
473.574	14100.26
473.778	13999.91
473.983	13604.66
474.188	13895.47
474.393	12994.36
474.598	13158.2
474.802	13016.89
475.007	12724.03
475.212	12971.83
475.417	12259.14
475.621	12545.86
475.826	12455.75
476.031	12308.29
476.235	12080.97
476.44	12195.65
476.645	12093.26
476.849	12040.01
477.054	11781.96
477.259	11716.43
477.463	11872.07
477.668	11087.7
477.872	11462.48
478.077	11325.27
478.282	11138.9
478.486	11069.27
478.691	10723.16
478.895	11093.85
479.1	10887
479.304	11083.61
479.509	10647.39
479.713	10790.75
479.918	10516.32
480.122	10438.5
480.326	10432.35
480.531	10528.61
480.735	10258.28
480.94	10182.5
481.144	10610.53
481.348	9965.42
481.553	10133.35
481.757	9738.09
481.961	10037.09
482.166	10368.87
482.37	10004.33
482.574	9914.22
482.778	9965.42
482.983	10004.33
483.187	10039.14
483.391	10119.01
483.595	10030.95
483.8	9660.27
484.004	9992.04
484.208	10153.83
484.412	9940.84
484.616	9873.26
484.821	10090.34
485.025	9695.08
485.229	10018.66
485.433	9637.74
485.637	9848.68
485.841	9676.65
486.045	9967.46
486.249	9922.41
486.453	9856.87
486.657	10000.23
486.861	10045.29
487.065	9729.9
487.269	9863.02
487.473	9953.13
487.677	9848.68
487.881	9869.16
488.085	9742.19
488.289	9799.53
488.493	9793.39
488.697	9805.67
488.901	9987.94
489.105	9932.65
489.309	9924.46
489.512	10082.15
489.716	9981.8
489.92	9889.64
490.124	9875.31
490.328	10299.23
490.531	10000.23
490.735	9871.21
490.939	10264.42
491.143	10006.38
491.346	10037.09
491.55	10260.32
491.754	10139.49
491.958	10395.49
492.161	10141.54
492.365	10432.35
492.569	10112.87
492.772	10200.93
492.976	10233.7
493.18	10370.91
493.383	10346.34
493.587	10561.37
493.79	10628.96
493.994	10491.74
494.197	10790.75
494.401	10696.54
494.605	10772.32
494.808	10784.6
495.012	11046.74
495.215	10782.56
495.419	11095.89
495.622	11013.98
495.825	11159.38
496.029	11065.18
496.232	11345.75
496.436	11265.88
496.639	11478.86
496.843	11505.49
497.046	11892.55
497.249	11702.09
497.453	11843.4
497.656	11962.19
497.859	12085.06
498.063	11917.13
498.266	12398.4
498.469	12310.34
498.673	12308.29
498.876	12570.43
499.079	12752.7
499.282	12609.34
499.485	12955.45
499.689	13047.61
499.892	13326.13
500.095	12986.17
500.298	13467.44
500.501	13356.85
500.705	13535.03
500.908	13842.22
501.111	14001.96
501.314	14165.8
501.517	14192.42
501.72	14489.38
501.923	14325.54
502.126	14804.77
502.329	14964.51
502.532	14751.52
502.735	15189.78
502.938	15075.1
503.141	15267.61
503.344	15464.21
503.547	15492.88
503.75	15820.56
503.953	16119.56
504.156	16439.05
504.359	16375.56
504.562	16439.05
504.765	16391.94
504.968	16957.18
505.17	16746.24
505.373	17286.9
505.576	17321.72
505.779	17434.36
505.982	17663.73
506.185	18321.13
506.387	17903.34
506.59	18253.55
506.793	18495.21
506.996	18362.09
507.198	18810.59
507.401	18609.89
507.604	19189.47
507.807	19332.83
508.009	19683.03
508.212	19521.24
508.415	19846.87
508.617	20244.17
508.82	20166.35
509.022	19932.88
509.225	20770.5
509.428	20901.57
509.63	21006.02
509.833	21046.97
510.035	21438.14
510.238	21272.25
510.44	21618.36
510.643	22011.57
510.845	22242.99
511.048	22087.34
511.25	22591.14
511.453	22474.41
511.655	23512.73
511.858	23273.12
512.06	23654.04
512.262	23264.92
512.465	23682.71
512.667	24041.11
512.87	24061.58
513.072	24153.74
513.274	24665.74
513.477	25067.14
513.679	25159.3
513.881	25298.56
514.084	25333.37
514.286	25747.06
514.488	25648.76
514.69	26652.27
514.893	26211.95
515.095	26642.03
515.297	26957.41
515.499	26842.73
515.701	27151.97
515.904	27582.04
516.106	27663.96
516.308	27930.2
516.51	28325.46
516.712	28345.94
516.914	28743.24
517.116	29081.16
517.318	28857.93
517.52	29113.92
517.722	29304.38
517.925	29691.45
518.127	29881.91
518.329	30316.08
518.531	29742.65
518.733	30701.1
518.935	30858.79
519.136	30627.37
519.338	31065.64
519.54	31350.31
519.742	31477.28
519.944	31632.93
520.146	32179.73
520.348	32327.19
520.55	32273.94
520.752	32744.97
520.954	32867.85
521.155	32599.57
521.357	32843.27
521.559	33533.44
521.761	34108.92
521.963	33687.04
522.164	33930.75
522.366	33895.93
522.568	34176.5
522.77	34420.21
522.971	34377.2
523.173	34379.25
523.375	34891.24
523.576	34760.17
523.778	34618.86
523.98	35214.82
524.181	35311.08
524.383	35272.17
524.584	35640.8
524.786	35831.26
524.988	35651.04
525.189	35818.97
525.391	35970.52
525.592	36044.25
525.794	35735.01
525.995	36371.93
526.197	35976.67
526.398	36347.35
526.6	36402.64
526.801	36199.9
527.003	36644.3
527.204	36517.33
527.406	36847.05
527.607	36632.02
527.808	36990.41
528.01	36396.5
528.211	36560.34
528.412	37172.68
528.614	37129.67
528.815	37033.42
529.016	37232.07
529.218	37033.42
529.419	37203.4
529.62	36976.08
529.822	36937.16
530.023	36720.08
530.224	36888.01
530.425	36705.74
530.626	36490.71
530.828	36515.28
531.029	37486.02
531.23	36855.25
531.431	36382.16
531.632	36900.3
531.833	36814.29
532.035	36423.12
532.236	36881.87
532.437	36820.43
532.638	36308.44
532.839	36572.63
533.04	36949.45
533.241	36251.09
533.442	36681.17
533.643	36513.23
533.844	36423.12
534.045	36242.9
534.246	35968.48
534.447	36457.94
534.648	36339.16
534.849	36373.97
535.05	36191.7
535.251	36396.5
535.451	35917.28
535.652	35798.49
535.853	35876.32
536.054	35880.41
536.255	36333.01
536.456	35982.81
536.657	36414.93
536.857	35993.05
537.058	35782.11
537.259	36251.09
537.46	35765.73
537.66	35542.5
537.861	35974.62
538.062	35837.41
538.263	35706.34
538.463	35460.58
538.664	35810.78
538.865	35694.05
539.065	35544.55
539.266	35065.32
539.466	35493.35
539.667	35102.18
539.868	35784.16
540.068	35323.36
540.269	35286.5
540.469	35724.77
540.67	35468.77
540.87	35098.09
541.071	35163.62
541.271	35474.91
541.472	35266.02
541.672	35149.29
541.873	35071.46
542.073	34749.93
542.274	35608.03
542.474	34821.61
542.675	34794.99
542.875	35030.51
543.075	34807.28
543.276	34782.7
543.476	35261.93
543.676	34809.32
543.877	35089.9
544.077	34989.55
544.277	35085.8
544.478	34584.05
544.678	35087.85
544.878	34919.92
545.078	34715.12
545.279	34645.49
545.479	34504.18
545.679	34510.32
545.879	34981.35
546.079	34926.06
546.28	34962.92
546.48	34211.32
546.68	34948.59
546.88	34870.76
547.08	34330.1
547.28	34838
547.48	34502.13
547.68	35096.04
547.88	34536.94
548.081	35087.85
548.281	34700.78
548.481	34639.34
548.681	34964.97
548.881	34926.06
549.081	35010.03
549.28	34807.28
549.48	34885.1
549.68	34328.05
549.88	35235.3
550.08	34651.63
550.28	35194.34
550.48	34438.64
550.68	35180.01
550.88	34514.42
551.08	34549.23
551.279	34928.11
551.479	34582
551.679	34995.69
551.879	34735.6
552.079	35102.18
552.278	34790.89
552.478	35339.75
552.678	35231.21
552.878	35184.1
553.077	34946.54
553.277	34928.11
553.477	35122.66
553.676	35378.66
553.876	35298.79
554.076	35128.81
554.275	35091.94
554.475	34979.31
554.674	35081.7
554.874	35163.62
555.074	35116.52
555.273	35421.67
555.473	35522.02
555.672	35024.36
555.872	34989.55
556.071	35208.68
556.271	35632.61
556.47	35003.88
556.67	34889.2
556.869	35302.89
557.068	35372.52
557.268	35120.62
557.467	35241.45
557.667	35409.38
557.866	35511.78
558.065	35274.21
558.265	35384.8
558.464	35087.85
558.663	35585.5
558.863	34934.25
559.062	35692
559.261	34928.11
559.461	35636.7
559.66	35034.6
559.859	35378.66
560.058	35069.42
560.258	35530.21
560.457	35075.56
560.656	35167.72
560.855	35519.97
561.054	35399.14
561.253	34883.05
561.453	35399.14
561.652	35313.13
561.851	35352.04
562.05	35237.35
562.249	35022.31
562.448	35356.13
562.647	35300.84
562.846	34979.31
563.045	35438.05
563.244	34606.58
563.443	35675.62
563.642	35065.32
563.841	35163.62
564.04	34674.16
564.239	35143.14
564.438	34575.86
564.637	35237.35
564.836	34854.38
565.035	34715.12
565.234	34743.79
565.432	34864.62
565.631	34663.92
565.83	34917.87
566.029	34649.58
566.228	34530.8
566.427	34504.18
566.625	34170.36
566.824	34506.23
567.023	34655.73
567.222	34033.14
567.42	34706.93
567.619	34301.43
567.818	33893.88
568.016	34223.61
568.215	34416.11
568.414	33998.33
568.612	34086.39
568.811	34090.49
569.01	33988.09
569.208	33478.15
569.407	34078.2
569.605	33734.14
569.804	33865.21
570.002	33459.71
570.201	33555.97
570.4	33490.43
570.598	33584.64
570.797	33015.3
570.995	32990.73
571.193	33037.83
571.392	33428.99
571.59	33101.32
571.789	33078.79
571.987	32968.2
572.186	32503.31
572.384	32402.96
572.582	32886.28
572.781	32824.84
572.979	32208.4
573.177	32480.78
573.376	32620.05
573.574	32149.01
573.772	32157.21
573.971	31966.74
574.169	31659.55
574.367	31528.48
574.565	32169.49
574.763	31923.74
574.962	31462.94
575.16	31338.02
575.358	31493.66
575.556	30889.51
575.754	31684.12
575.952	31258.15
576.151	31315.49
576.349	30776.87
576.547	30930.47
576.745	30895.66
576.943	30873.13
577.141	31039.01
577.339	30717.48
577.537	30608.94
577.735	30330.42
577.933	30172.72
578.131	30449.2
578.329	30072.37
578.527	30123.57
578.725	30299.7
578.923	30154.29
579.121	30017.08
579.319	29834.81
579.516	29703.74
579.714	30029.37
579.912	29826.62
580.11	29562.43
580.308	29427.26
580.506	29505.09
580.704	28943.94
580.901	29238.85
581.099	29408.83
581.297	29050.44
581.495	28937.8
581.692	29513.28
581.89	28493.39
582.088	29060.68
582.285	28757.58
582.483	28837.45
582.681	28530.25
582.878	28481.1
583.076	28460.62
583.274	28737.1
583.471	28053.08
583.669	28409.42
583.866	28001.88
584.064	28665.42
584.262	27752.02
584.459	28130.9
584.657	28053.08
584.854	28069.46
585.052	27655.77
585.249	27846.23
585.447	27795.03
585.644	27645.53
585.841	27926.1
586.039	27905.62
586.236	27262.56
586.434	27500.12
586.631	27123.3
586.828	27289.18
587.026	27549.28
587.223	27215.46
587.42	26869.35
587.618	27145.83
587.815	26922.6
588.012	26742.38
588.21	26783.34
588.407	27145.83
588.604	26818.15
588.801	26781.29
588.999	26594.92
589.196	26355.31
589.393	26787.43
589.59	26494.57
589.787	26486.38
589.984	26154.61
590.182	26054.26
590.379	26392.17
590.576	26248.82
590.773	26173.04
590.97	26230.38
591.167	26148.47
591.364	25626.23
591.561	26365.55
591.758	25941.62
591.955	25781.88
592.152	25859.7
592.349	25683.58
592.546	25681.53
592.743	25859.7
592.94	25353.85
593.137	25820.79
593.334	25624.19
593.531	25482.88
593.727	25671.29
593.924	25493.12
594.121	25564.79
594.318	25339.52
594.515	25296.51
594.712	25409.15
594.908	25360
595.105	25054.85
595.302	24989.31
595.499	25122.43
595.696	25163.39
595.892	25015.94
596.089	25224.83
596.286	25233.02
596.482	25271.93
596.679	25077.38
596.876	25636.47
597.072	25091.71
597.269	25273.98
597.466	24907.4
597.662	24999.55
597.859	24901.25
598.055	25003.65
598.252	24747.65
598.448	25161.34
598.645	24886.92
598.841	24805
599.038	24829.57
599.234	24655.5
599.431	24637.06
599.627	24755.85
599.824	25167.49
600.02	24641.16
600.217	24911.49
600.413	25028.23
600.609	24688.26
600.806	25007.75
601.002	24911.49
601.198	24712.84
601.395	24790.66
601.591	24643.21
601.787	24833.67
601.984	24712.84
602.18	25157.25
602.376	25079.43
602.572	24659.59
602.769	24917.64
602.965	24923.78
603.161	25007.75
603.357	24870.53
603.553	24985.22
603.75	25011.84
603.946	24555.15
604.142	24985.22
604.338	24577.67
604.534	25187.97
604.73	24817.29
604.926	24888.96
605.122	25251.45
605.318	24858.24
605.514	25026.18
605.71	24964.74
605.906	25106.05
606.102	24841.86
606.298	24948.36
606.494	24864.39
606.69	25339.52
606.886	25073.28
607.082	25085.57
607.278	25312.89
607.474	24823.43
607.67	25065.09
607.866	24921.73
608.062	25472.64
608.257	25040.51
608.453	25345.66
608.649	25396.86
608.845	24999.55
609.041	25233.02
609.236	25198.21
609.432	25460.35
609.628	25677.43
609.824	25396.86
610.019	25134.72
610.215	25527.93
610.411	25374.33
610.606	25501.31
610.802	25466.49
610.998	25413.24
611.193	25718.39
611.389	25255.55
611.584	25425.53
611.78	25577.08
611.976	25783.93
612.171	25710.2
612.367	25833.08
612.562	25865.85
612.758	25456.25
612.953	25400.96
613.149	25654.9
613.344	25476.73
613.539	25910.9
613.735	25697.91
613.93	25929.33
614.126	25536.12
614.321	26142.32
614.517	25896.56
614.712	25824.89
614.907	25599.61
615.103	26035.83
615.298	25632.38
615.493	26099.31
615.688	25403
615.884	26136.18
616.079	25845.37
616.274	25874.04
616.47	25757.3
616.665	25572.99
616.86	25734.78
617.055	25880.18
617.25	25595.51
617.445	25738.87
617.641	25472.64
617.836	25605.75
618.031	25470.59
618.226	25597.56
618.421	25331.33
618.616	25726.58
618.811	25083.52
619.006	25767.54
619.201	25095.81
619.396	25458.3
619.591	24919.68
619.786	25362.04
619.981	24858.24
620.176	25278.08
620.371	24696.46
620.566	25056.9
620.761	24815.24
620.956	24960.64
621.151	24393.36
621.346	24563.34
621.541	24233.61
621.735	24546.95
621.93	24254.09
622.125	24155.79
622.32	23938.71
622.515	24293.01
622.709	24006.29
622.904	23793.3
623.099	23789.21
623.294	23768.73
623.488	23553.69
623.683	23832.21
623.878	23498.39
624.072	23133.85
624.267	23185.05
624.462	23398.04
624.656	23127.71
624.851	22804.13
625.046	22744.74
625.24	22763.17
625.435	22331.05
625.629	22343.34
625.824	22367.91
626.018	22187.69
626.213	21745.33
626.407	22056.62
626.602	21767.86
626.796	21927.6
626.991	22007.47
627.185	21872.31
627.38	21356.22
627.574	21327.55
627.768	21278.4
627.963	21079.74
628.157	21038.78
628.352	21001.92
628.546	20707.01
628.74	20948.67
628.935	20696.77
629.129	20666.05
629.323	20362.95
629.517	20780.74
629.712	20356.81
629.906	20190.92
630.1	20049.61
630.294	20448.97
630.489	19930.83
630.683	20199.12
630.877	19865.3
631.071	19820.24
631.265	19893.97
631.459	19664.6
631.653	19646.16
631.848	19748.56
632.042	19300.06
632.236	19279.58
632.43	18865.89
632.624	19261.15
632.818	18992.86
633.012	18280.17
633.206	18566.88
633.4	18736.87
633.594	18433.77
633.788	18468.58
633.982	18657
634.176	18736.87
634.369	18357.99
634.563	18134.76
634.757	17952.49
634.951	18015.98
635.145	18007.79
635.339	17950.45
635.533	17802.99
635.726	17596.15
635.92	17350.39
636.114	17331.96
636.308	17340.15
636.501	17282.81
636.695	17073.92
636.889	16924.41
637.083	16701.19
637.276	16736
637.47	16852.73
637.664	16598.79
637.857	16445.19
638.051	16475.91
638.244	16488.2
638.438	16393.99
638.632	16242.44
638.825	15853.33
639.019	16244.49
639.212	16074.51
639.406	15859.47
639.599	15750.93
639.793	15918.86
639.986	15529.75
640.18	15367.96
640.373	15517.46
640.567	15132.44
640.76	15398.68
640.954	15423.25
641.147	15230.74
641.34	14890.78
641.534	14747.42
641.727	14866.21
641.92	14620.45
642.114	14620.45
642.307	14595.87
642.5	14376.74
642.694	14192.42
642.887	14200.62
643.08	14290.73
643.273	13969.19
643.467	14126.89
643.66	13936.43
643.853	13932.33
644.046	13846.32
644.239	13709.1
644.432	13649.71
644.626	13567.79
644.819	13442.87
645.012	13401.91
645.205	13283.13
645.398	13385.52
645.591	12932.92
645.784	13117.24
645.977	12697.41
646.17	12916.54
646.363	12748.61
646.556	12535.62
646.749	12629.82
646.942	12617.54
647.135	12375.88
647.328	12101.45
647.521	12285.76
647.714	12218.18
647.907	12248.9
648.099	12144.45
648.292	12212.04
648.485	11941.71
648.678	11980.62
648.871	11853.64
649.064	11923.27
649.256	11931.47
649.449	11693.9
649.642	11546.45
649.835	11374.42
650.027	11294.55
650.22	11442
650.413	11333.46
650.605	11321.17
650.798	11216.72
650.991	11106.13
651.183	11274.07
651.376	11016.02
651.568	10964.82
651.761	11020.12
651.954	10909.53
652.146	10755.93
652.339	10796.89
652.531	10676.06
652.724	10766.17
652.916	10317.67
653.109	10504.03
653.301	10610.53
653.494	10405.73
653.686	10307.43
653.879	10475.36
654.071	10202.98
654.263	10282.85
654.456	10243.94
654.648	9979.75
654.84	10053.48
655.033	9922.41
655.225	9918.31
655.417	9807.72
655.61	9992.04
655.802	10010.47
655.994	9836.39
656.186	9836.39
656.379	9594.73
656.571	9547.63
656.763	9572.21
656.955	9342.83
657.148	9471.86
657.34	9385.84
657.532	9404.27
657.724	9236.34
657.916	9222
658.108	9342.83
658.3	9080.69
658.492	9254.77
658.684	9211.76
658.876	9054.07
659.068	9078.65
659.26	8816.51
659.452	8832.89
659.644	9031.54
659.836	8679.29
660.028	8816.51
660.22	8402.82
660.412	8648.57
660.604	8441.73
660.796	8437.63
660.988	8386.43
661.18	8296.32
661.372	8243.07
661.563	8454.01
661.755	8343.42
661.947	8257.41
662.139	8212.35
662.331	8077.19
662.522	7903.11
662.714	7907.21
662.906	7948.17
663.097	7905.16
663.289	7696.27
663.481	7686.03
663.673	7847.82
663.864	7708.55
664.056	7694.22
664.247	7700.36
664.439	7647.12
664.631	7581.58
664.822	7587.72
665.014	7415.69
665.205	7559.05
665.397	7434.13
665.588	7473.04
665.78	7442.32
665.971	7258
666.163	7194.51
666.354	7243.67
666.546	7020.44
666.737	7153.55
666.929	7069.59
667.12	7012.24
667.311	7094.16
667.503	7196.56
667.694	7067.54
667.885	6981.53
668.077	7016.34
668.268	6743.96
668.459	6866.84
668.651	6924.18
668.842	6764.44
669.033	6801.3
669.224	6748.06
669.416	6741.91
669.607	6813.59
669.798	6541.21
669.989	6746.01
670.18	6688.67
670.371	6447.01
670.563	6578.08
670.754	6549.4
670.945	6475.68
671.136	6473.63
671.327	6348.7
671.518	6436.77
671.709	6449.05
671.9	6434.72
672.091	6303.65
672.282	6158.24
672.473	6375.33
672.664	6229.92
672.855	6156.19
673.046	6184.87
673.237	6184.87
673.428	6193.06
673.619	6104.99
673.809	6061.99
674	5945.25
674.191	6186.91
674.382	6014.88
674.573	6027.17
674.764	6107.04
674.954	5951.4
675.145	5883.81
675.336	5926.82
675.527	5943.21
675.717	5967.78
675.908	5969.83
676.099	5945.25
676.289	6090.66
676.48	5765.03
676.671	5844.9
676.861	5822.38
677.052	5863.33
677.243	5703.59
677.433	5826.47
677.624	5912.49
677.814	5820.33
678.005	5803.94
678.195	5887.91
678.386	5631.91
678.576	5750.7
678.767	5691.31
678.957	5664.68
679.148	5646.25
679.338	5732.26
679.529	5656.49
679.719	5613.48
679.909	5652.39
680.1	5588.91
680.29	5474.22
680.481	5601.19
680.671	5615.53
680.861	5638.06
681.052	5601.19
681.242	5466.03
681.432	5793.7
681.622	5564.33
681.813	5504.94
682.003	5433.26
682.193	5408.69
682.383	5584.81
682.573	5547.95
682.764	5406.64
682.954	5539.76
683.144	5482.41
683.334	5621.67
683.524	5666.73
683.714	5433.26
683.904	5289.9
684.094	5445.55
684.284	5371.82
684.474	5543.85
684.664	5412.78
684.854	5451.69
685.044	5361.58
685.234	5474.22
685.424	5418.93
685.614	5253.04
685.804	5433.26
685.994	5289.9
686.184	5306.29
686.374	5312.43
686.564	5435.31
686.753	5316.53
686.943	5089.2
687.133	5289.9
687.323	5253.04
687.513	5361.58
687.702	5257.14
687.892	5261.23
688.082	5287.86
688.272	5334.96
688.461	5058.48
688.651	5224.37
688.841	5126.07
689.03	5064.63
689.22	5027.76
689.41	4984.76
689.599	5091.25
689.789	5035.96
689.979	5060.53
690.168	5099.44
690.358	4921.27
690.547	4999.09
690.737	4906.93
690.926	5025.72
691.116	4902.84
691.305	4863.93
691.495	4663.22
691.684	4960.18
691.874	4892.6
692.063	4931.51
692.252	4960.18
692.442	4868.02
692.631	4722.62
692.82	4820.92
693.01	4763.58
693.199	4739
693.388	4650.94
693.578	4745.14
693.767	4655.03
693.956	4765.62
694.146	4655.03
694.335	4583.35
694.524	4695.99
694.713	4720.57
694.902	4622.27
695.092	4626.36
695.281	4700.09
695.47	4493.24
695.659	4599.74
695.848	4573.11
696.037	4507.58
696.226	4601.79
696.415	4437.95
696.604	4532.15
696.793	4489.15
696.982	4429.76
697.171	4603.83
697.36	4462.52
697.549	4378.56
697.738	4528.06
697.927	4548.54
698.116	4474.81
698.305	4181.95
698.494	4515.77
698.683	4388.8
698.872	4491.2
699.061	4474.81
699.25	4347.84
699.438	4460.48
699.627	4280.25
699.816	4405.18
700.005	4253.63
700.193	4491.2
700.382	4315.07
700.571	4270.01
700.76	4302.78
700.948	4358.08
701.137	4290.49
701.326	4347.84
701.514	4214.72
701.703	4274.11
701.892	4134.85
702.08	4286.4
702.269	4247.49
702.457	4165.57
702.646	4155.33
702.834	4110.27
703.023	4114.37
703.212	4155.33
703.4	4134.85
703.589	4208.58
703.777	4081.6
703.965	4157.38
704.154	4007.87
704.342	4061.12
704.531	4181.95
704.719	4042.69
704.907	4044.74
705.096	4106.18
705.284	4040.64
705.472	3983.3
705.661	3981.25
705.849	4042.69
706.037	3977.16
706.226	3897.28
706.414	3794.89
706.602	3852.23
706.79	3897.28
706.979	3829.7
707.167	3893.19
707.355	3788.74
707.543	3887.04
707.731	3891.14
707.919	3889.09
708.107	3796.93
708.296	3729.35
708.484	3723.21
708.672	3731.4
708.86	3790.79
709.048	3848.13
709.236	3813.32
709.424	3741.64
709.612	3688.39
709.8	3645.38
709.988	3786.69
710.176	3733.45
710.364	3749.83
710.551	3665.86
710.739	3692.49
710.927	3700.68
711.115	3610.57
711.303	3622.86
711.491	3680.2
711.679	3588.04
711.866	3612.62
712.054	3573.71
712.242	3598.28
712.43	3532.75
712.617	3516.36
712.805	3651.53
712.993	3389.39
713.181	3467.21
713.368	3469.26
713.556	3485.64
713.744	3493.83
713.931	3602.38
714.119	3327.95
714.306	3407.82
714.494	3387.34
714.682	3409.87
714.869	3385.29
715.057	3524.55
715.244	3422.16
715.432	3389.39
715.619	3426.25
715.807	3338.19
715.994	3319.76
716.182	3442.64
716.369	3420.11
716.556	3444.68
716.744	3344.33
716.931	3338.19
717.119	3239.89
717.306	3239.89
717.493	3205.07
717.681	3297.23
717.868	3260.37
718.055	3321.81
718.242	3205.07
718.43	3274.7
718.617	3286.99
718.804	3166.16
718.991	3184.59
719.179	3149.78
719.366	3162.06
719.553	3217.36
719.74	3229.65
719.927	3098.58
720.114	3133.39
720.301	3057.62
720.488	3149.78
720.676	3067.86
720.863	3196.88
721.05	3110.86
721.237	3119.06
721.424	3135.44
721.611	3237.84
721.798	3076.05
721.985	3024.85
722.172	2953.17
722.358	2983.89
722.545	3016.66
722.732	3016.66
722.919	3069.91
723.106	2942.93
723.293	2947.03
723.48	2969.55
723.667	2944.98
723.853	2996.18
724.04	2963.41
724.227	3018.71
724.414	2873.3
724.6	2865.11
724.787	2975.7
724.974	3000.27
725.161	2789.33
725.347	2912.21
725.534	2887.64
725.72	2871.25
725.907	2861.01
726.094	2992.08
726.28	2856.92
726.467	2873.3
726.653	2824.15
726.84	2861.01
727.027	2871.25
727.213	2781.14
727.4	2975.7
727.586	2873.3
727.773	2820.05
727.959	2738.13
728.145	2768.85
728.332	2805.72
728.518	2707.41
728.705	2764.76
728.891	2820.05
729.077	2691.03
729.264	2680.79
729.45	2688.98
729.636	2750.42
729.823	2701.27
730.009	2754.52
730.195	2648.02
730.382	2797.53
730.568	2744.28
730.754	2666.46
730.94	2631.64
731.126	2674.65
731.313	2676.7
731.499	2699.22
731.685	2754.52
731.871	2617.3
732.057	2717.65
732.243	2824.15
732.429	2553.82
732.615	2656.22
732.801	2578.39
732.987	2541.53
733.173	2707.41
733.359	2623.45
733.545	2658.26
733.731	2484.19
733.917	2721.75
734.103	2584.54
734.289	2605.02
734.475	2467.8
734.661	2623.45
734.847	2525.15
735.033	2492.38
735.219	2471.9
735.404	2519
735.59	2547.67
735.776	2412.51
735.962	2519
736.148	2611.16
736.333	2562.01
736.519	2602.97
736.705	2402.27
736.89	2494.43
737.076	2414.56
737.262	2496.47
737.447	2459.61
737.633	2416.6
737.819	2359.26
738.004	2418.65
738.19	2369.5
738.375	2385.88
738.561	2529.24
738.747	2361.31
738.932	2322.4
739.118	2484.19
739.303	2467.8
739.489	2289.63
739.674	2344.92
739.859	2365.4
740.045	2205.66
740.23	2324.44
740.416	2301.92
740.601	2387.93
740.786	2273.25
740.972	2193.37
741.157	2275.29
741.342	2195.42
741.528	2199.52
741.713	2324.44
741.898	2299.87
742.084	2303.96
742.269	2170.85
742.454	2176.99
742.639	2144.22
742.824	2131.94
743.01	2277.34
743.195	2170.85
743.38	2185.18
743.565	2144.22
743.75	2140.13
743.935	2148.32
744.12	2033.63
744.305	2090.98
744.49	2009.06
744.675	2062.3
744.86	2140.13
745.045	2086.88
745.23	2041.82
745.415	2033.63
745.6	1863.65
745.785	2056.16
745.97	2045.92
746.155	2002.91
746.34	2000.87
746.525	2002.91
746.71	1927.14
746.895	1914.85
747.079	1808.36
747.264	1830.88
747.449	2000.87
747.634	2019.3
747.819	1830.88
748.003	1920.99
748.188	1794.02
748.373	1839.08
748.557	1771.49
748.742	2013.15
748.927	1845.22
749.111	1808.36
749.296	1726.44
749.481	1830.88
749.665	1824.74
749.85	1798.12
750.034	1746.92
750.219	1771.49
750.404	1771.49
750.588	1689.57
750.773	1591.27
750.957	1716.2
751.141	1751.01
751.326	1716.2
751.51	1564.65
751.695	1648.61
751.879	1607.66
752.064	1615.85
752.248	1599.46
752.432	1640.42
752.617	1521.64
752.801	1636.33
752.985	1495.02
753.17	1685.48
753.354	1583.08
753.538	1525.74
753.722	1535.98
753.907	1476.59
754.091	1445.87
754.275	1525.74
754.459	1501.16
754.643	1550.31
754.828	1490.92
755.012	1486.83
755.196	1398.76
755.38	1525.74
755.564	1398.76
755.748	1517.54
755.932	1374.19
756.116	1370.09
756.3	1468.39
756.484	1310.7
756.668	1404.91
756.852	1361.9
757.036	1230.83
757.22	1386.47
757.404	1363.95
757.588	1267.69
757.772	1400.81
757.956	1378.28
758.14	1337.32
758.323	1200.11
758.507	1300.46
758.691	1271.79
758.875	1234.93
759.059	1271.79
759.242	1189.87
759.426	1259.5
759.61	1132.53
759.794	1193.97
759.977	1347.56
760.161	1284.08
760.345	1255.4
760.528	1306.6
760.712	1239.02
760.895	1198.06
761.079	1171.44
761.263	1208.3
761.446	1142.77
761.63	1110
761.813	1169.39
761.997	1157.1
762.18	1079.28
762.364	1181.68
762.547	1169.39
762.731	1140.72
762.914	1021.94
763.098	1075.18
763.281	1124.33
763.464	1110
763.648	1036.27
763.831	1126.38
764.015	1066.99
764.198	1138.67
764.381	1030.13
764.564	1034.22
764.748	1052.66
764.931	1042.42
765.114	960.5
765.297	1083.38
765.481	978.93
765.664	1030.13
765.847	962.55
766.03	1001.46
766.213	1017.84
766.397	1026.03
766.58	1021.94
766.763	1003.5
766.946	1026.03
767.129	1011.7
767.312	997.36
767.495	1017.84
767.678	886.77
767.861	964.59
768.044	940.02
768.227	944.11
768.41	940.02
768.593	972.79
768.776	1032.18
768.959	1036.27
769.142	1050.61
769.324	931.83
769.507	997.36
769.69	929.78
769.873	923.63
770.056	1019.89
770.239	976.88
770.421	1028.08
770.604	1015.79
770.787	913.39
770.97	862.19
771.152	858.1
771.335	940.02
771.518	849.91
771.7	888.82
771.883	894.96
772.066	911.35
772.248	847.86
772.431	985.07
772.613	870.39
772.796	800.76
772.978	798.71
773.161	978.93
773.343	833.52
773.526	931.83
773.708	868.34
773.891	749.56
774.073	829.43
774.256	767.99
774.438	856.05
774.621	825.33
774.803	806.9
774.985	841.72
775.168	831.48
775.35	847.86
775.532	767.99
775.715	698.36
775.897	770.04
776.079	720.88
776.261	765.94
776.444	735.22
776.626	763.89
776.808	700.41
776.99	735.22
777.173	800.76
777.355	735.22
777.537	739.32
777.719	774.13
777.901	714.74
778.083	706.55
778.265	626.68
778.447	806.9
778.629	610.29
778.811	747.51
778.993	743.41
779.175	731.12
779.357	790.52
779.539	608.25
779.721	657.4
779.903	651.25
780.085	663.54
780.267	632.82
780.449	671.73
780.631	653.3
780.812	591.86
780.994	706.55
781.176	567.29
781.358	612.34
781.54	544.76
781.721	618.49
781.903	624.63
782.085	632.82
782.267	591.86
782.448	567.29
782.63	542.71
782.812	493.56
782.993	604.15
783.175	458.75
783.357	493.56
783.538	550.9
783.72	483.32
783.901	534.52
784.083	514.04
784.264	550.9
784.446	567.29
784.627	444.41
784.809	546.81
784.99	419.83
785.172	518.14
785.353	542.71
785.535	489.46
785.716	536.57
785.897	481.27
786.079	479.22
786.26	432.12
786.441	481.27
786.623	397.31
786.804	497.66
786.985	413.69
787.167	511.99
787.348	477.18
787.529	428.03
787.71	464.89
787.891	434.17
788.073	409.59
788.254	413.69
788.435	468.98
788.616	487.42
788.797	411.64
788.978	487.42
789.159	403.45
789.34	413.69
789.522	370.68
789.703	350.2
789.884	462.84
790.065	489.46
790.246	405.5
790.427	428.03
790.607	401.4
790.788	411.64
790.969	296.96
791.15	411.64
791.331	342.01
791.512	350.2
791.693	346.11
791.874	370.68
792.054	425.98
792.235	350.2
792.416	329.72
792.597	405.5
792.778	247.8
792.958	393.21
793.139	346.11
793.32	415.74
793.5	307.2
793.681	378.87
793.862	348.15
794.042	366.59
794.223	313.34
794.404	354.3
794.584	303.1
794.765	266.24
794.945	317.44
795.126	354.3
795.306	378.87
795.487	339.96
795.667	309.24
795.848	348.15
796.028	317.44
796.209	329.72
796.389	321.53
796.57	346.11
796.75	274.43
796.93	370.68
797.111	296.96
797.291	321.53
797.471	425.98
797.652	292.86
797.832	268.28
798.012	387.07
798.192	323.58
798.373	231.42
798.553	309.24
798.733	217.08
798.913	231.42
799.093	208.89
799.274	292.86
799.454	268.28
799.634	317.44
799.814	321.53
799.994	264.19
800.174	313.34
800.354	239.61
800.534	153.6
800.714	274.43
800.894	233.47
801.074	210.94
801.254	239.61
801.434	274.43
801.614	272.38
801.794	251.9
801.974	905.2
802.154	221.18
802.334	202.75
802.514	192.51
802.693	280.57
802.873	258.04
803.053	329.72
803.233	266.24
803.413	231.42
803.592	184.32
803.772	251.9
803.952	256
804.131	198.65
804.311	274.43
804.491	256
804.67	231.42
804.85	223.23
805.03	272.38
805.209	276.48
805.389	223.23
805.568	174.08
805.748	288.76
805.928	274.43
806.107	264.19
806.287	268.28
806.466	266.24
806.646	133.12
806.825	272.38
807.004	270.33
807.184	239.61
807.363	251.9
807.543	309.24
807.722	274.43
807.901	264.19
808.081	258.04
808.26	151.55
808.439	204.8
808.619	167.93
808.798	198.65
808.977	260.09
809.156	212.99
809.336	186.37
809.515	178.17
809.694	71.68
809.873	194.56
810.052	176.13
810.231	280.57
810.411	249.85
810.59	233.47
810.769	215.04
810.948	219.13
811.127	133.12
811.306	143.36
811.485	174.08
811.664	296.96
811.843	149.5
812.022	178.17
812.201	202.75
812.38	153.6
812.559	139.26
812.737	206.84
812.916	190.46
813.095	190.46
813.274	190.46
813.453	208.89
813.632	143.36
813.811	184.32
813.989	176.13
814.168	243.71
814.347	153.6
814.526	182.27
814.704	198.65
814.883	174.08
815.062	86.01
815.24	256
815.419	124.93
815.598	192.51
815.776	137.21
815.955	231.42
816.133	219.13
816.312	192.51
816.49	126.97
816.669	190.46
816.847	133.12
817.026	231.42
817.204	139.26
817.383	151.55
817.561	112.64
817.74	208.89
817.918	174.08
818.097	59.39
818.275	198.65
818.453	141.31
818.632	112.64
818.81	215.04
818.988	157.69
819.167	112.64
819.345	137.21
819.523	186.37
819.701	126.97
819.879	151.55
820.058	118.78
820.236	182.27
820.414	137.21
820.592	96.25
820.77	184.32
820.948	96.25
821.127	215.04
821.305	110.59
821.483	86.01
821.661	178.17
821.839	94.21
822.017	18.43
822.195	139.26
822.373	83.97
822.551	92.16
822.729	198.65
822.907	47.1
823.085	88.06
823.262	112.64
823.44	116.73
823.618	112.64
823.796	174.08
823.974	79.87
824.152	124.93
824.329	79.87
824.507	157.69
824.685	135.17
824.863	57.34
825.04	100.35
825.218	124.93
825.396	133.12
825.574	118.78
825.751	157.69
825.929	124.93
826.107	53.25
826.284	157.69
826.462	210.94
826.639	116.73
826.817	137.21
826.994	108.54
827.172	120.83
827.349	210.94
827.527	190.46
827.704	167.93
827.882	149.5
828.059	79.87
828.237	71.68
828.414	210.94
828.591	100.35
828.769	92.16
828.946	110.59
829.124	51.2
829.301	133.12
829.478	172.03
829.655	67.58
829.833	45.06
830.01	8.19
830.187	102.4
830.364	57.34
830.542	100.35
830.719	153.6
830.896	108.54
831.073	100.35
831.25	124.93
831.427	104.45
831.604	79.87
831.782	86.01
831.959	67.58
832.136	67.58
832.313	67.58
832.49	81.92
832.667	83.97
832.844	59.39
833.021	174.08
833.198	124.93
833.374	49.15
833.551	88.06
833.728	124.93
833.905	28.67
834.082	-6.14
834.259	40.96
834.436	110.59
834.612	14.34
834.789	43.01
834.966	92.16
835.143	153.6
835.319	104.45
835.496	18.43
835.673	51.2
835.85	47.1
836.026	59.39
836.203	126.97
836.38	36.86
836.556	75.77
836.733	114.69
836.909	126.97
837.086	36.86
837.262	86.01
837.439	51.2
837.616	22.53
837.792	155.65
837.968	135.17
838.145	79.87
838.321	102.4
838.498	77.82
838.674	143.36
838.851	47.1
839.027	77.82
839.203	61.44
839.38	49.15
839.556	55.3
839.732	94.21
839.909	49.15
840.085	116.73
840.261	26.62
840.437	86.01
840.614	26.62
840.79	81.92
840.966	38.91
841.142	94.21
841.318	88.06
841.494	22.53
841.671	100.35
841.847	59.39
842.023	18.43
842.199	71.68
842.375	143.36
842.551	26.62
842.727	10.24
842.903	108.54
843.079	59.39
843.255	172.03
843.431	104.45
843.607	36.86
843.783	53.25
843.959	83.97
844.134	65.54
844.31	112.64
844.486	26.62
844.662	149.5
844.838	71.68
845.013	51.2
845.189	118.78
845.365	77.82
845.541	77.82
845.716	81.92
845.892	43.01
846.068	63.49
846.244	126.97
846.419	38.91
846.595	75.77
846.77	18.43
846.946	79.87
847.122	67.58
847.297	71.68
847.473	61.44
847.648	45.06
847.824	104.45
847.999	-4.1
848.175	77.82
848.35	32.77
848.526	116.73
848.701	38.91
848.876	92.16
849.052	116.73
849.227	47.1
849.403	67.58
849.578	106.49
849.753	34.82
849.929	124.93
850.104	30.72
850.279	34.82
850.454	67.58
850.63	32.77
850.805	28.67
850.98	43.01
851.155	79.87
851.33	47.1
851.505	43.01
851.681	75.77
851.856	-24.58
852.031	102.4
852.206	2.05
852.381	34.82
852.556	88.06
852.731	102.4
852.906	79.87
853.081	75.77
853.256	108.54
853.431	69.63
853.606	69.63
853.781	-6.14
853.956	-28.67
854.131	26.62
854.305	4.1
854.48	67.58
854.655	36.86
854.83	26.62
855.005	-10.24
855.18	6.14
855.354	51.2
855.529	96.25
855.704	30.72
855.879	20.48
856.053	18.43
856.228	55.3
856.403	6.14
856.577	86.01
856.752	20.48
856.926	59.39
857.101	18.43
857.276	26.62
857.45	2.05
857.625	55.3
857.799	40.96
857.974	133.12
858.148	14.34
858.323	-34.82
858.497	75.77
858.672	67.58
858.846	47.1
859.02	12.29
859.195	-75.77
859.369	94.21
859.543	43.01
859.718	81.92
859.892	-10.24
860.066	10.24
860.241	43.01
860.415	14.34
860.589	-20.48
860.763	2.05
860.938	86.01
861.112	59.39
861.286	43.01
861.46	69.63
861.634	4.1
861.808	79.87
861.982	-6.14
862.157	32.77
862.331	12.29
862.505	77.82
862.679	26.62
862.853	61.44
863.027	77.82
863.201	120.83
863.375	30.72
863.549	34.82
863.722	26.62
863.896	124.93
864.07	63.49
864.244	75.77
864.418	69.63
864.592	104.45
864.766	28.67
864.939	43.01
865.113	47.1
865.287	65.54
865.461	81.92
865.634	16.38
865.808	53.25
865.982	-20.48
866.156	100.35
866.329	-26.62
866.503	88.06
866.676	83.97
866.85	38.91
867.024	49.15
867.197	6.14
867.371	12.29
867.544	-10.24
867.718	26.62
867.891	34.82
868.065	45.06
868.238	43.01
868.412	131.07
868.585	34.82
868.759	-51.2
868.932	28.67
869.105	47.1
869.279	32.77
869.452	-36.86
869.625	32.77
869.799	22.53
869.972	26.62
870.145	30.72
870.319	6.14
870.492	18.43
870.665	14.34
870.838	75.77
871.011	-79.87
871.185	51.2
871.358	45.06
871.531	30.72
871.704	2.05
871.877	-4.1
872.05	75.77
872.223	26.62
872.396	38.91
872.569	45.06
872.742	67.58
872.915	51.2
873.088	38.91
873.261	-12.29
873.434	24.58
873.607	-20.48
873.78	30.72
873.953	38.91
874.126	-4.1
874.299	45.06
874.471	2.05
874.644	30.72
874.817	30.72
874.99	71.68
875.163	10.24
875.335	59.39
875.508	51.2
875.681	67.58
875.853	-6.14
876.026	10.24
876.199	51.2
876.371	67.58
876.544	-4.1
876.717	30.72
876.889	22.53
877.062	-14.34
877.234	-51.2
877.407	2.05
877.579	4.1
877.752	-10.24
877.924	-24.58
878.097	34.82
878.269	43.01
878.442	6.14
878.614	69.63
878.786	88.06
878.959	36.86
879.131	63.49
879.303	-53.25
879.476	110.59
879.648	-22.53
879.82	55.3
879.993	77.82
880.165	14.34
880.337	36.86
880.509	-38.91
880.681	-67.58
880.854	8.19
881.026	22.53
881.198	94.21
881.37	67.58
881.542	94.21
881.714	71.68
881.886	71.68
882.058	34.82
882.23	4.1
882.402	-38.91
882.574	-6.14
882.746	34.82
882.918	83.97
883.09	49.15
883.262	-28.67
883.434	-8.19
883.606	-36.86
883.778	92.16
883.95	67.58
884.122	12.29
884.293	18.43
884.465	69.63
884.637	92.16
884.809	61.44
884.98	53.25
885.152	51.2
885.324	102.4
885.496	34.82
885.667	38.91
885.839	43.01
886.011	38.91
886.182	53.25
886.354	-24.58
886.525	51.2
886.697	26.62
886.869	10.24
887.04	18.43
887.212	71.68
887.383	96.25
887.555	47.1
887.726	34.82
887.897	59.39
888.069	75.77
888.24	20.48
888.412	24.58
888.583	92.16
888.754	108.54
888.926	-43.01
889.097	43.01
889.268	18.43
889.44	43.01
889.611	-4.1
889.782	26.62
889.953	22.53
890.125	14.34
890.296	-71.68
890.467	92.16
890.638	34.82
890.809	-47.1
890.98	4.1
891.151	34.82
891.323	59.39
891.494	73.73
891.665	28.67
891.836	10.24
892.007	28.67
892.178	26.62
892.349	-47.1
892.52	-12.29
892.691	4.1
892.862	-16.38
893.032	-14.34
893.203	-75.77
893.374	14.34
893.545	81.92
893.716	45.06
893.887	18.43
894.057	-38.91
894.228	51.2
894.399	18.43
894.57	83.97
894.74	55.3
894.911	55.3
895.082	-4.1
895.253	-83.97
895.423	4.1
895.594	14.34
895.764	47.1
895.935	20.48
896.106	75.77
896.276	-43.01
896.447	34.82
896.617	-22.53
896.788	14.34
896.958	-6.14
897.129	10.24
897.299	6.14
897.47	26.62
897.64	-2.05
897.81	4.1
897.981	51.2
898.151	-24.58
898.322	30.72
898.492	55.3
898.662	-4.1
898.832	36.86
899.003	36.86
899.173	-12.29
899.343	-26.62
899.513	43.01
