Data from USB4F104151__116__14-31-13-386.txt Node

Date: Thu Mar 13 14:31:13 EDT 2025
User: louis
Spectrometer: USB4F10415
Trigger mode: 4
Integration Time (sec): 2.500000E-2
Scans to average: 1
Electric dark correction enabled: true
Nonlinearity correction enabled: false
Boxcar width: 0
XAxis mode: Wavelengths
Number of Pixels in Spectrum: 3648
>>>>>Begin Spectral Data<<<<<
178.204	-108.88
178.424	-108.88
178.644	-108.88
178.864	-168.27
179.084	-119.12
179.304	-24.92
179.524	-14.68
179.744	34.47
179.964	50.86
180.184	20.14
180.404	-14.68
180.624	-14.68
180.844	-31.06
181.064	-59.73
181.283	93.87
181.503	-63.83
181.723	24.23
181.943	-31.06
182.163	112.3
182.383	18.09
182.602	83.63
182.822	63.15
183.042	52.91
183.262	38.57
183.482	-14.68
183.701	44.71
183.921	50.86
184.141	59.05
184.361	128.68
184.58	-67.92
184.8	18.09
185.02	28.33
185.239	71.34
185.459	42.67
185.679	20.14
185.898	44.71
186.118	87.72
186.338	67.24
186.557	26.28
186.777	36.52
186.997	61.1
187.216	38.57
187.436	100.01
187.655	100.01
187.875	20.14
188.095	61.1
188.314	108.2
188.534	67.24
188.753	34.47
188.973	38.57
189.192	161.45
189.412	59.05
189.631	46.76
189.851	79.53
190.07	54.95
190.29	-4.44
190.509	65.19
190.729	-20.82
190.948	3.75
191.168	181.93
191.387	38.57
191.607	52.91
191.826	95.91
192.045	75.43
192.265	32.43
192.484	11.95
192.704	38.57
192.923	-35.16
193.142	85.67
193.362	75.43
193.581	59.05
193.8	26.28
194.02	34.47
194.239	-14.68
194.458	-45.4
194.678	79.53
194.897	36.52
195.116	67.24
195.335	30.38
195.555	93.87
195.774	50.86
195.993	30.38
196.212	28.33
196.432	83.63
196.651	79.53
196.87	-20.82
197.089	36.52
197.308	61.1
197.528	-2.39
197.747	-6.49
197.966	-4.44
198.185	52.91
198.404	67.24
198.623	93.87
198.842	-12.63
199.062	30.38
199.281	108.2
199.5	110.25
199.719	87.72
199.938	120.49
200.157	110.25
200.376	9.9
200.595	57
200.814	83.63
201.033	20.14
201.252	38.57
201.471	59.05
201.69	11.95
201.909	11.95
202.128	26.28
202.347	-8.53
202.566	93.87
202.785	11.95
203.004	24.23
203.223	91.82
203.442	69.29
203.661	59.05
203.879	5.8
204.098	69.29
204.317	-14.68
204.536	71.34
204.755	61.1
204.974	91.82
205.193	122.54
205.411	93.87
205.63	11.95
205.849	13.99
206.068	22.19
206.287	-18.77
206.505	104.11
206.724	18.09
206.943	44.71
207.162	34.47
207.381	9.9
207.599	65.19
207.818	-51.54
208.037	-2.39
208.255	61.1
208.474	34.47
208.693	30.38
208.911	67.24
209.13	26.28
209.349	67.24
209.567	118.44
209.786	-22.87
210.005	91.82
210.223	50.86
210.442	-14.68
210.661	50.86
210.879	26.28
211.098	69.29
211.316	77.48
211.535	112.3
211.753	18.09
211.972	59.05
212.191	75.43
212.409	91.82
212.628	40.62
212.846	34.47
213.065	38.57
213.283	83.63
213.502	71.34
213.72	52.91
213.938	77.48
214.157	11.95
214.375	116.39
214.594	-29.01
214.812	-0.34
215.031	59.05
215.249	34.47
215.467	13.99
215.686	124.58
215.904	-24.92
216.122	26.28
216.341	77.48
216.559	1.71
216.778	77.48
216.996	52.91
217.214	28.33
217.432	22.19
217.651	3.75
217.869	40.62
218.087	7.85
218.306	50.86
218.524	95.91
218.742	-35.16
218.96	50.86
219.179	28.33
219.397	-39.25
219.615	124.58
219.833	-72.02
220.051	42.67
220.27	48.81
220.488	100.01
220.706	73.39
220.924	-14.68
221.142	-14.68
221.36	75.43
221.578	112.3
221.796	42.67
222.015	-29.01
222.233	46.76
222.451	87.72
222.669	-12.63
222.887	59.05
223.105	18.09
223.323	9.9
223.541	-10.58
223.759	95.91
223.977	85.67
224.195	83.63
224.413	67.24
224.631	42.67
224.849	57
225.067	5.8
225.285	-22.87
225.503	-20.82
225.721	9.9
225.939	9.9
226.157	34.47
226.375	102.06
226.592	44.71
226.81	97.96
227.028	61.1
227.246	91.82
227.464	1.71
227.682	42.67
227.9	20.14
228.117	5.8
228.335	5.8
228.553	118.44
228.771	-26.96
228.989	38.57
229.206	61.1
229.424	18.09
229.642	5.8
229.86	44.71
230.077	7.85
230.295	108.2
230.513	34.47
230.731	116.39
230.948	106.15
231.166	91.82
231.384	44.71
231.601	-0.34
231.819	108.2
232.037	75.43
232.254	-2.39
232.472	110.25
232.689	-6.49
232.907	108.2
233.125	77.48
233.342	59.05
233.56	3.75
233.777	11.95
233.995	22.19
234.213	100.01
234.43	102.06
234.648	26.28
234.865	-6.49
235.083	11.95
235.3	87.72
235.518	52.91
235.735	85.67
235.953	67.24
236.17	83.63
236.388	-31.06
236.605	75.43
236.822	83.63
237.04	50.86
237.257	67.24
237.475	-72.02
237.692	26.28
237.909	-6.49
238.127	97.96
238.344	57
238.562	63.15
238.779	-31.06
238.996	-26.96
239.214	48.81
239.431	100.01
239.648	9.9
239.865	26.28
240.083	69.29
240.3	32.43
240.517	54.95
240.735	71.34
240.952	102.06
241.169	116.39
241.386	52.91
241.603	81.58
241.821	34.47
242.038	91.82
242.255	13.99
242.472	-39.25
242.689	91.82
242.907	112.3
243.124	-20.82
243.341	38.57
243.558	-6.49
243.775	-39.25
243.992	-0.34
244.209	93.87
244.426	91.82
244.643	26.28
244.86	34.47
245.078	-6.49
245.295	42.67
245.512	-18.77
245.729	20.14
245.946	-14.68
246.163	81.58
246.38	9.9
246.597	34.47
246.814	38.57
247.031	-29.01
247.248	7.85
247.464	-14.68
247.681	-67.92
247.898	132.78
248.115	42.67
248.332	1.71
248.549	1.71
248.766	50.86
248.983	93.87
249.2	34.47
249.417	116.39
249.633	40.62
249.85	77.48
250.067	5.8
250.284	-12.63
250.501	-22.87
250.717	95.91
250.934	44.71
251.151	79.53
251.368	50.86
251.585	93.87
251.801	40.62
252.018	-29.01
252.235	63.15
252.451	-45.4
252.668	-10.58
252.885	124.58
253.102	20.14
253.318	11.95
253.535	-6.49
253.752	-20.82
253.968	-4.44
254.185	22.19
254.401	26.28
254.618	85.67
254.835	-4.44
255.051	13.99
255.268	77.48
255.484	63.15
255.701	36.52
255.917	54.95
256.134	18.09
256.351	52.91
256.567	36.52
256.784	34.47
257	-43.35
257.217	145.06
257.433	-35.16
257.65	48.81
257.866	54.95
258.082	-0.34
258.299	24.23
258.515	34.47
258.732	42.67
258.948	42.67
259.165	28.33
259.381	108.2
259.597	63.15
259.814	59.05
260.03	-4.44
260.246	-4.44
260.463	63.15
260.679	108.2
260.895	16.04
261.112	114.34
261.328	-2.39
261.544	114.34
261.761	188.07
261.977	-31.06
262.193	-14.68
262.409	16.04
262.626	28.33
262.842	26.28
263.058	-18.77
263.274	30.38
263.49	83.63
263.707	42.67
263.923	102.06
264.139	-47.44
264.355	-47.44
264.571	89.77
264.787	34.47
265.004	108.2
265.22	85.67
265.436	9.9
265.652	26.28
265.868	44.71
266.084	-35.16
266.3	44.71
266.516	-12.63
266.732	79.53
266.948	46.76
267.164	85.67
267.38	67.24
267.596	124.58
267.812	79.53
268.028	83.63
268.244	-18.77
268.46	67.24
268.676	91.82
268.892	91.82
269.108	-78.16
269.324	46.76
269.54	-35.16
269.756	110.25
269.972	-16.73
270.188	28.33
270.403	63.15
270.619	26.28
270.835	-10.58
271.051	100.01
271.267	69.29
271.483	63.15
271.698	124.58
271.914	22.19
272.13	38.57
272.346	1.71
272.562	13.99
272.777	132.78
272.993	34.47
273.209	26.28
273.425	67.24
273.64	28.33
273.856	79.53
274.072	-26.96
274.287	36.52
274.503	75.43
274.719	36.52
274.934	65.19
275.15	28.33
275.366	3.75
275.581	34.47
275.797	13.99
276.012	38.57
276.228	85.67
276.444	5.8
276.659	-4.44
276.875	32.43
277.09	11.95
277.306	32.43
277.521	75.43
277.737	63.15
277.952	63.15
278.168	52.91
278.383	42.67
278.599	26.28
278.814	61.1
279.03	67.24
279.245	71.34
279.461	63.15
279.676	67.24
279.892	-10.58
280.107	-0.34
280.322	9.9
280.538	57
280.753	26.28
280.969	83.63
281.184	-14.68
281.399	52.91
281.615	54.95
281.83	100.01
282.045	-43.35
282.26	18.09
282.476	30.38
282.691	63.15
282.906	54.95
283.122	57
283.337	63.15
283.552	50.86
283.767	28.33
283.983	42.67
284.198	3.75
284.413	-4.44
284.628	50.86
284.843	13.99
285.058	26.28
285.274	-29.01
285.489	26.28
285.704	67.24
285.919	26.28
286.134	73.39
286.349	5.8
286.564	34.47
286.779	20.14
286.995	13.99
287.21	36.52
287.425	30.38
287.64	-26.96
287.855	110.25
288.07	-29.01
288.285	116.39
288.5	75.43
288.715	71.34
288.93	67.24
289.145	30.38
289.36	59.05
289.575	61.1
289.79	40.62
290.004	-0.34
290.219	73.39
290.434	59.05
290.649	63.15
290.864	44.71
291.079	67.24
291.294	26.28
291.509	28.33
291.724	34.47
291.938	34.47
292.153	-45.4
292.368	-0.34
292.583	1.71
292.798	79.53
293.012	42.67
293.227	104.11
293.442	9.9
293.657	83.63
293.871	42.67
294.086	75.43
294.301	104.11
294.516	50.86
294.73	85.67
294.945	48.81
295.16	59.05
295.374	132.78
295.589	155.3
295.804	46.76
296.018	91.82
296.233	149.16
296.447	26.28
296.662	-63.83
296.877	100.01
297.091	108.2
297.306	26.28
297.52	36.52
297.735	63.15
297.949	26.28
298.164	44.71
298.378	42.67
298.593	1.71
298.807	26.28
299.022	100.01
299.236	100.01
299.451	38.57
299.665	9.9
299.88	91.82
300.094	-6.49
300.309	9.9
300.523	81.58
300.737	1.71
300.952	59.05
301.166	11.95
301.381	34.47
301.595	95.91
301.809	59.05
302.024	42.67
302.238	-51.54
302.452	79.53
302.667	91.82
302.881	34.47
303.095	93.87
303.309	67.24
303.524	54.95
303.738	42.67
303.952	28.33
304.166	67.24
304.381	-31.06
304.595	102.06
304.809	108.2
305.023	132.78
305.237	11.95
305.452	71.34
305.666	67.24
305.88	124.58
306.094	83.63
306.308	26.28
306.522	71.34
306.736	83.63
306.95	18.09
307.164	30.38
307.379	67.24
307.593	126.63
307.807	108.2
308.021	147.11
308.235	175.78
308.449	3.75
308.663	26.28
308.877	104.11
309.091	87.72
309.305	95.91
309.519	16.04
309.733	110.25
309.947	52.91
310.161	59.05
310.374	83.63
310.588	95.91
310.802	36.52
311.016	112.3
311.23	18.09
311.444	26.28
311.658	52.91
311.872	91.82
312.085	91.82
312.299	143.02
312.513	91.82
312.727	44.71
312.941	52.91
313.154	44.71
313.368	-2.39
313.582	83.63
313.796	71.34
314.009	34.47
314.223	44.71
314.437	50.86
314.651	71.34
314.864	63.15
315.078	-20.82
315.292	20.14
315.505	22.19
315.719	87.72
315.933	75.43
316.146	-31.06
316.36	13.99
316.573	91.82
316.787	-4.44
317.001	67.24
317.214	-55.64
317.428	-14.68
317.641	32.43
317.855	93.87
318.068	42.67
318.282	-20.82
318.495	100.01
318.709	61.1
318.922	11.95
319.136	140.97
319.349	65.19
319.563	87.72
319.776	-29.01
319.99	42.67
320.203	110.25
320.417	83.63
320.63	124.58
320.843	75.43
321.057	108.2
321.27	59.05
321.483	57
321.697	69.29
321.91	73.39
322.124	73.39
322.337	59.05
322.55	87.72
322.763	91.82
322.977	44.71
323.19	42.67
323.403	83.63
323.617	42.67
323.83	108.2
324.043	42.67
324.256	59.05
324.469	-14.68
324.683	108.2
324.896	-43.35
325.109	54.95
325.322	87.72
325.535	112.3
325.748	93.87
325.962	50.86
326.175	46.76
326.388	3.75
326.601	63.15
326.814	30.38
327.027	54.95
327.24	102.06
327.453	11.95
327.666	44.71
327.879	18.09
328.092	108.2
328.305	42.67
328.518	50.86
328.731	77.48
328.944	61.1
329.157	85.67
329.37	59.05
329.583	102.06
329.796	110.25
330.009	-45.4
330.222	50.86
330.435	63.15
330.648	83.63
330.861	7.85
331.073	63.15
331.286	38.57
331.499	67.24
331.712	104.11
331.925	34.47
332.138	102.06
332.35	59.05
332.563	-4.44
332.776	13.99
332.989	34.47
333.202	1.71
333.414	44.71
333.627	50.86
333.84	52.91
334.053	65.19
334.265	83.63
334.478	24.23
334.691	26.28
334.903	118.44
335.116	13.99
335.329	83.63
335.541	42.67
335.754	149.16
335.966	24.23
336.179	124.58
336.392	18.09
336.604	65.19
336.817	54.95
337.029	108.2
337.242	59.05
337.454	143.02
337.667	-6.49
337.88	73.39
338.092	67.24
338.305	194.22
338.517	42.67
338.729	59.05
338.942	85.67
339.154	34.47
339.367	24.23
339.579	52.91
339.792	75.43
340.004	26.28
340.217	71.34
340.429	-4.44
340.641	50.86
340.854	9.9
341.066	59.05
341.278	130.73
341.491	181.93
341.703	48.81
341.915	87.72
342.128	102.06
342.34	18.09
342.552	46.76
342.764	54.95
342.977	102.06
343.189	42.67
343.401	50.86
343.613	3.75
343.826	-29.01
344.038	85.67
344.25	16.04
344.462	79.53
344.674	138.92
344.886	124.58
345.099	87.72
345.311	63.15
345.523	20.14
345.735	-45.4
345.947	40.62
346.159	-10.58
346.371	36.52
346.583	73.39
346.795	52.91
347.007	11.95
347.219	77.48
347.431	1.71
347.643	42.67
347.855	-0.34
348.067	116.39
348.279	69.29
348.491	69.29
348.703	57
348.915	124.58
349.127	44.71
349.339	134.82
349.551	-55.64
349.763	24.23
349.975	54.95
350.187	116.39
350.399	75.43
350.61	73.39
350.822	18.09
351.034	77.48
351.246	26.28
351.458	110.25
351.669	112.3
351.881	104.11
352.093	87.72
352.305	89.77
352.517	89.77
352.728	124.58
352.94	114.34
353.152	20.14
353.363	-55.64
353.575	100.01
353.787	59.05
353.999	145.06
354.21	104.11
354.422	7.85
354.633	69.29
354.845	134.82
355.057	44.71
355.268	26.28
355.48	44.71
355.692	-22.87
355.903	100.01
356.115	59.05
356.326	-45.4
356.538	75.43
356.749	75.43
356.961	85.67
357.172	75.43
357.384	75.43
357.595	106.15
357.807	34.47
358.018	30.38
358.23	18.09
358.441	85.67
358.653	102.06
358.864	69.29
359.075	18.09
359.287	89.77
359.498	16.04
359.709	85.67
359.921	73.39
360.132	18.09
360.344	5.8
360.555	5.8
360.766	151.21
360.977	13.99
361.189	134.82
361.4	-29.01
361.611	83.63
361.823	118.44
362.034	32.43
362.245	71.34
362.456	38.57
362.667	46.76
362.879	71.34
363.09	112.3
363.301	36.52
363.512	108.2
363.723	-14.68
363.935	67.24
364.146	67.24
364.357	83.63
364.568	87.72
364.779	36.52
364.99	63.15
365.201	59.05
365.412	95.91
365.623	3.75
365.834	71.34
366.045	75.43
366.256	128.68
366.467	83.63
366.678	93.87
366.889	34.47
367.1	34.47
367.311	134.82
367.522	73.39
367.733	83.63
367.944	132.78
368.155	59.05
368.366	114.34
368.577	186.02
368.788	69.29
368.999	110.25
369.209	16.04
369.42	102.06
369.631	118.44
369.842	120.49
370.053	71.34
370.264	54.95
370.474	1.71
370.685	79.53
370.896	91.82
371.107	143.02
371.317	54.95
371.528	61.1
371.739	104.11
371.95	122.54
372.16	143.02
372.371	36.52
372.582	52.91
372.792	54.95
373.003	116.39
373.214	59.05
373.424	93.87
373.635	-26.96
373.846	134.82
374.056	18.09
374.267	140.97
374.477	93.87
374.688	-6.49
374.898	79.53
375.109	77.48
375.319	67.24
375.53	157.35
375.74	112.3
375.951	50.86
376.161	52.91
376.372	89.77
376.582	38.57
376.793	67.24
377.003	106.15
377.214	71.34
377.424	91.82
377.635	69.29
377.845	81.58
378.055	26.28
378.266	59.05
378.476	52.91
378.686	59.05
378.897	67.24
379.107	67.24
379.317	100.01
379.528	34.47
379.738	67.24
379.948	34.47
380.158	169.64
380.369	102.06
380.579	116.39
380.789	67.24
380.999	22.19
381.21	77.48
381.42	130.73
381.63	59.05
381.84	44.71
382.05	38.57
382.261	110.25
382.471	165.54
382.681	71.34
382.891	190.12
383.101	50.86
383.311	18.09
383.521	50.86
383.731	140.97
383.941	145.06
384.151	110.25
384.361	71.34
384.571	44.71
384.781	116.39
384.991	93.87
385.201	143.02
385.411	102.06
385.621	175.78
385.831	34.47
386.041	50.86
386.251	71.34
386.461	149.16
386.671	75.43
386.881	116.39
387.091	-2.39
387.301	149.16
387.511	34.47
387.72	83.63
387.93	97.96
388.14	75.43
388.35	108.2
388.56	112.3
388.769	75.43
388.979	75.43
389.189	22.19
389.399	151.21
389.609	75.43
389.818	128.68
390.028	118.44
390.238	67.24
390.447	93.87
390.657	97.96
390.867	110.25
391.076	38.57
391.286	5.8
391.496	147.11
391.705	124.58
391.915	128.68
392.125	100.01
392.334	71.34
392.544	128.68
392.753	118.44
392.963	20.14
393.172	181.93
393.382	61.1
393.591	140.97
393.801	79.53
394.01	132.78
394.22	143.02
394.429	42.67
394.639	87.72
394.848	153.26
395.058	136.87
395.267	75.43
395.477	124.58
395.686	132.78
395.895	157.35
396.105	186.02
396.314	59.05
396.524	106.15
396.733	81.58
396.942	151.21
397.152	157.35
397.361	110.25
397.57	104.11
397.78	145.06
397.989	118.44
398.198	149.16
398.407	165.54
398.617	169.64
398.826	143.02
399.035	108.2
399.244	136.87
399.453	132.78
399.663	188.07
399.872	186.02
400.081	108.2
400.29	173.74
400.499	169.64
400.708	124.58
400.917	136.87
401.127	134.82
401.336	153.26
401.545	222.89
401.754	198.31
401.963	149.16
402.172	241.32
402.381	106.15
402.59	136.87
402.799	147.11
403.008	134.82
403.217	247.46
403.426	190.12
403.635	157.35
403.844	222.89
404.053	214.7
404.262	208.55
404.471	247.46
404.68	177.83
404.888	181.93
405.097	181.93
405.306	239.27
405.515	325.29
405.724	202.41
405.933	274.09
406.142	263.85
406.35	263.85
406.559	284.33
406.768	210.6
406.977	296.61
407.185	292.52
407.394	269.99
407.603	192.17
407.812	331.43
408.02	448.16
408.229	321.19
408.438	292.52
408.646	317.09
408.855	306.85
409.064	435.88
409.272	296.61
409.481	429.73
409.69	444.07
409.898	345.77
410.107	448.16
410.315	444.07
410.524	452.26
410.733	542.37
410.941	464.55
411.15	503.46
411.358	509.6
411.567	501.41
411.775	575.14
411.984	501.41
412.192	542.37
412.401	597.67
412.609	698.02
412.818	714.4
413.026	743.07
413.234	759.46
413.443	824.99
413.651	738.98
413.86	804.51
414.068	890.53
414.276	931.48
414.485	859.81
414.693	886.43
414.901	939.68
415.11	894.62
415.318	970.4
415.526	1025.69
415.734	1005.21
415.943	1136.28
416.151	1173.14
416.359	1173.14
416.567	1273.5
416.776	1324.69
416.984	1330.84
417.192	1339.03
417.4	1373.85
417.608	1437.33
417.817	1410.71
418.025	1451.67
418.233	1554.07
418.441	1582.74
418.649	1603.22
418.857	1808.02
419.065	1887.89
419.273	1848.97
419.481	1877.65
419.689	1947.28
419.897	2141.83
420.105	2164.36
420.313	2188.94
420.521	2258.57
420.729	2207.37
420.937	2336.39
421.145	2535.04
421.353	2446.98
421.561	2721.41
421.769	2770.56
421.977	2848.38
422.185	2803.33
422.393	2893.44
422.601	3221.11
422.809	3159.67
423.017	3231.35
423.224	3348.09
423.432	3528.31
423.64	3511.93
423.848	3880.56
424.056	3755.63
424.263	3950.19
424.471	4017.77
424.679	3985.01
424.887	4228.71
425.094	4562.53
425.302	4378.22
425.51	4666.98
425.718	4740.71
425.925	4798.05
426.133	4853.34
426.341	5271.13
426.548	5439.06
426.756	5555.8
426.964	5545.56
427.171	5807.7
427.379	6102.61
427.586	6207.05
427.794	6342.22
428.001	6501.96
428.209	6811.2
428.417	6583.88
428.624	7226.94
428.832	7269.95
429.039	7079.49
429.247	7097.92
429.454	7777.84
429.662	8257.07
429.869	7884.34
430.076	8295.98
430.284	8209.97
430.491	8472.11
430.699	8908.32
430.906	9195.04
431.114	9090.59
431.321	9393.69
431.528	9582.1
431.736	10241.55
431.943	10561.03
432.15	10315.28
432.358	10788.36
432.565	11101.7
432.772	10909.19
432.979	11503.1
433.187	11625.98
433.394	11675.13
433.601	12465.64
433.808	12629.48
434.016	12576.23
434.223	12977.64
434.43	14142.93
434.637	13708.76
434.844	14337.49
435.052	14738.89
435.259	14659.02
435.466	14771.66
435.673	14966.21
435.88	15658.43
436.087	16371.12
436.294	16129.46
436.501	15908.28
436.708	16287.15
436.915	16881.07
437.122	17690.01
437.329	17581.47
437.537	18025.88
437.743	18261.4
437.95	18163.09
438.157	19182.98
438.364	20123
438.571	19744.13
438.778	19776.89
438.985	21644.64
439.192	20948.33
439.399	21634.4
439.606	21079.4
439.813	22134.1
440.02	23373.13
440.227	23022.92
440.433	22836.56
440.64	23559.49
440.847	23596.35
441.054	24175.93
441.261	25769.25
441.467	25144.62
441.674	26035.49
441.881	26717.46
442.088	26752.27
442.294	26377.5
442.501	27176.2
442.708	27622.66
442.914	28300.54
443.121	29779.17
443.328	28980.46
443.534	30874.84
443.741	30008.54
443.948	29723.88
444.154	31937.73
444.361	31741.13
444.568	31900.87
444.774	31843.52
444.981	32302.27
445.187	33119.41
445.394	34657.43
445.6	34157.73
445.807	37457.01
446.013	35873.93
446.22	36377.73
446.426	38284.39
446.633	38169.7
446.839	39279.7
447.046	37876.84
447.252	39789.64
447.459	40102.98
447.665	39621.71
447.871	41505.84
448.078	43254.81
448.284	41118.78
448.491	42349.6
448.697	44010.51
448.903	44856.32
449.11	44815.36
449.316	43895.82
449.522	44989.44
449.728	45939.69
449.935	46545.89
450.141	46185.45
450.347	47234.01
450.553	45698.03
450.76	46664.67
450.966	47780.82
451.172	47008.73
451.378	48563.14
451.584	47725.52
451.791	48915.39
451.997	48477.13
452.203	49222.59
452.409	49556.41
452.615	49335.23
452.821	47625.17
453.027	46783.46
453.233	49689.52
453.44	47573.97
453.646	47963.09
453.852	48241.61
454.058	48475.08
454.264	47369.18
454.47	48348.1
454.676	47668.18
454.882	48864.19
455.088	44581.89
455.294	45364.21
455.5	45892.59
455.705	46128.11
455.911	44780.54
456.117	43691.02
456.323	43691.02
456.529	41204.79
456.735	42660.9
456.941	41708.59
457.147	40985.66
457.352	39263.32
457.558	39359.57
457.764	38954.07
457.97	38800.47
458.176	37432.43
458.381	38026.34
458.587	36400.26
458.793	36189.31
458.999	34335.9
459.204	36629.63
459.41	35662.99
459.616	33547.43
459.821	33486
460.027	33356.97
460.233	32677.05
460.438	30911.7
460.644	31145.17
460.85	29713.64
461.055	29324.52
461.261	29408.49
461.466	26864.91
461.672	26172.7
461.878	28351.74
462.083	26268.95
462.289	25720.1
462.494	25654.56
462.7	24147.26
462.905	23659.84
463.111	24558.9
463.316	24806.7
463.522	24206.65
463.727	24026.43
463.932	23907.65
464.138	23887.17
464.343	23627.07
464.549	23078.22
464.754	23999.8
464.959	23868.73
465.165	23584.07
465.37	22523.22
465.575	22064.47
465.781	22842.7
465.986	22928.72
466.191	21984.6
466.397	21450.08
466.602	20522.35
466.807	21411.17
467.012	21505.38
467.218	21355.88
467.423	20993.39
467.628	21421.41
467.833	21808.48
468.038	20915.56
468.244	20680.05
468.449	21284.2
468.654	20571.5
468.859	20055.42
469.064	20288.89
469.269	19813.76
469.474	19824
469.679	20139.38
469.885	19641.73
470.09	19756.41
470.295	19660.16
470.5	19123.59
470.705	19344.77
470.91	18883.98
471.115	18634.13
471.32	19068.3
471.525	18929.03
471.73	18400.66
471.935	18249.11
472.139	17778.08
472.344	17851.8
472.549	17599.9
472.754	17610.14
472.959	17356.19
473.164	17003.94
473.369	16766.38
473.574	17145.25
473.778	17135.01
473.983	16950.7
474.188	16803.24
474.393	16078.26
474.598	16283.06
474.802	16082.36
475.007	16006.58
475.212	15726.01
475.417	15273.41
475.621	15640
475.826	15113.67
476.031	15017.41
476.235	14599.63
476.44	15308.23
476.645	14749.13
476.849	14708.17
477.054	14454.22
477.259	14349.78
477.463	14392.78
477.668	14028.24
477.872	14198.23
478.077	13825.5
478.282	13661.66
478.486	13569.5
478.691	13569.5
478.895	13252.06
479.1	13338.08
479.304	13471.2
479.509	12879.33
479.713	13264.35
479.918	12830.18
480.122	12797.42
480.326	12781.03
480.531	12838.37
480.735	12535.28
480.94	12750.31
481.144	13018.6
481.348	12596.71
481.553	12684.78
481.757	12207.6
481.961	12482.03
482.166	12672.49
482.37	12496.36
482.574	12183.02
482.778	12404.21
482.983	12705.26
483.187	12281.33
483.391	12520.94
483.595	12375.53
483.8	12135.92
484.004	12363.25
484.208	12576.23
484.412	12213.74
484.616	12553.71
484.821	12150.26
485.025	12078.58
485.229	12328.43
485.433	12172.78
485.637	12246.51
485.841	12156.4
486.045	12350.96
486.249	12150.26
486.453	12223.98
486.657	12486.12
486.861	12264.94
487.065	11978.23
487.269	12252.66
487.473	12037.62
487.677	12406.25
487.881	12420.59
488.085	12342.77
488.289	12457.45
488.493	12185.07
488.697	12412.4
488.901	12361.2
489.105	12219.89
489.309	12183.02
489.512	12406.25
489.716	12232.18
489.92	12375.53
490.124	12410.35
490.328	12586.47
490.531	12307.95
490.735	12682.73
490.939	12688.87
491.143	12445.16
491.346	12453.36
491.55	12539.37
491.754	12455.4
491.958	12848.61
492.161	12742.12
492.365	12723.69
492.569	12703.21
492.772	12821.99
492.976	12877.29
493.18	12887.53
493.383	13073.89
493.587	12969.44
493.79	13237.73
493.994	13174.24
494.197	13389.28
494.401	13497.82
494.605	13405.66
494.808	13864.41
495.012	13436.38
495.215	13573.6
495.419	13669.85
495.622	13639.13
495.825	14104.02
496.029	13927.89
496.232	14161.36
496.436	14206.42
496.639	14486.99
496.843	14501.33
497.046	14841.29
497.249	15060.42
497.453	14833.1
497.656	15279.55
497.859	15013.32
498.063	15236.55
498.266	15515.07
498.469	15654.33
498.673	15627.71
498.876	15850.94
499.079	15967.67
499.282	15988.15
499.485	16563.63
499.689	16453.04
499.892	16663.98
500.095	16655.79
500.298	17208.74
500.501	16883.11
500.705	17249.7
500.908	17335.71
501.111	17827.23
501.314	17636.77
501.517	17866.14
501.72	18277.78
501.923	18060.7
502.126	18603.41
502.329	18924.94
502.532	18808.2
502.735	19017.1
502.938	19531.14
503.141	19383.68
503.344	19735.93
503.547	19490.18
503.75	19946.87
503.953	20428.15
504.156	20465.01
504.359	20804.97
504.562	20786.54
504.765	21300.58
504.968	21630.3
505.17	21521.76
505.373	21325.16
505.576	21831.01
505.779	22369.62
505.982	22404.44
506.185	22938.96
506.387	22998.35
506.59	22830.41
506.793	23033.16
506.996	23207.24
507.198	24038.72
507.401	23782.72
507.604	24257.85
507.807	24661.3
508.009	24759.6
508.212	24874.29
508.415	25421.09
508.617	25433.38
508.82	25691.43
509.022	25554.21
509.225	26326.3
509.428	26357.02
509.63	26500.37
509.833	26660.12
510.035	27604.23
510.238	27290.89
510.44	27995.39
510.643	27921.66
510.845	28040.45
511.048	28099.84
511.25	28550.39
511.453	28814.58
511.655	29551.85
511.858	29273.32
512.06	29181.17
512.262	29803.75
512.465	29484.26
512.667	30270.68
512.87	30481.63
513.072	30516.44
513.274	31118.54
513.477	31702.21
513.679	31626.44
513.881	32085.19
514.084	32545.98
514.286	32068.8
514.488	32777.4
514.69	33471.66
514.893	33463.47
515.095	33500.33
515.297	33791.14
515.499	33758.38
515.701	34501.79
515.904	34770.07
516.106	34841.75
516.308	34985.11
516.51	35499.15
516.712	35761.29
516.914	35589.26
517.116	36443.26
517.318	36521.09
517.52	36813.94
517.722	36471.93
517.925	37213.3
518.127	37514.35
518.329	38214.76
518.531	37848.17
518.733	38519.9
518.935	38833.24
519.136	38671.45
519.338	39011.42
519.54	39097.43
519.742	39242.84
519.944	39883.85
520.146	40334.4
520.348	40270.92
520.55	40608.83
520.752	40356.93
520.954	41301.04
521.155	40774.72
521.357	41489.46
521.559	41380.92
521.761	42243.11
521.963	41565.23
522.164	42183.72
522.366	42501.15
522.568	42861.6
522.77	43009.05
522.971	43240.47
523.173	43275.29
523.375	43371.54
523.576	43365.4
523.778	43238.42
523.98	44037.13
524.181	44178.44
524.383	43940.88
524.584	44551.17
524.786	44575.75
524.988	44332.04
525.189	45024.25
525.391	44737.54
525.592	44833.79
525.794	45384.69
525.995	45229.05
526.197	45399.03
526.398	45347.83
526.6	45548.53
526.801	45804.53
527.003	45896.69
527.204	45675.51
527.406	46574.56
527.607	45802.48
527.808	45974.51
528.01	45444.09
528.211	46068.72
528.412	46636
528.614	46365.67
528.815	46216.17
529.016	46949.34
529.218	46355.43
529.419	46418.92
529.62	46896.1
529.822	46300.14
530.023	46480.36
530.224	46570.47
530.425	46339.05
530.626	46337
530.828	46300.14
531.029	47301.59
531.23	46261.22
531.431	46521.32
531.632	46846.94
531.833	46724.07
532.035	46412.77
532.236	46349.29
532.437	46791.65
532.638	46388.2
532.839	46826.46
533.04	46853.09
533.241	46277.61
533.442	46945.25
533.643	46308.33
533.844	46455.78
534.045	46281.7
534.246	45886.45
534.447	46138.35
534.648	46142.44
534.849	46582.76
535.05	45661.17
535.251	46414.82
535.451	46078.96
535.652	46521.32
535.853	46119.91
536.054	46310.38
536.255	46388.2
536.456	45782
536.657	46396.39
536.857	46005.23
537.058	45798.38
537.259	46388.2
537.46	45863.92
537.66	45646.83
537.861	46054.38
538.062	45954.03
538.263	45994.99
538.463	45722.61
538.664	45597.68
538.865	45896.69
539.065	45646.83
539.266	45728.75
539.466	46031.85
539.667	45317.11
539.868	46142.44
540.068	45792.24
540.269	45730.8
540.469	45759.47
540.67	45569.01
540.87	45489.14
541.071	45376.5
541.271	45593.59
541.472	45257.72
541.672	45210.62
541.873	45161.47
542.073	44889.09
542.274	45622.26
542.474	44827.65
542.675	44792.83
542.875	45630.45
543.075	45274.1
543.276	44682.24
543.476	45665.27
543.676	45147.13
543.877	45192.19
544.077	45358.07
544.277	45403.13
544.478	45274.1
544.678	45124.6
544.878	45259.77
545.078	45233.14
545.279	44684.29
545.479	44895.23
545.679	45218.81
545.879	45216.76
546.079	45018.11
546.28	45118.46
546.48	44864.51
546.68	45048.83
546.88	45157.37
547.08	45024.25
547.28	45292.54
547.48	44717.06
547.68	45120.51
547.88	44522.5
548.081	44989.44
548.281	44852.22
548.481	45143.03
548.681	45468.66
548.881	44907.52
549.081	44841.98
549.28	45190.14
549.48	45161.47
549.68	44925.95
549.88	45585.4
550.08	44887.04
550.28	45065.21
550.48	44907.52
550.68	45038.59
550.88	44790.78
551.08	45235.19
551.279	45091.83
551.479	44735.49
551.679	45386.74
551.879	45163.51
552.079	45210.62
552.278	44760.06
552.478	44981.24
552.678	45145.08
552.878	45409.27
553.077	44948.48
553.277	44538.88
553.477	45415.41
553.676	45188.09
553.876	45132.79
554.076	45065.21
554.275	45216.76
554.475	44657.67
554.674	44745.73
554.874	44831.74
555.074	44917.76
555.273	45323.26
555.473	45067.26
555.672	44987.39
555.872	45061.12
556.071	44708.86
556.271	45509.62
556.47	44891.13
556.67	44678.14
556.869	44876.8
557.068	45118.46
557.268	44717.06
557.467	45300.73
557.667	45112.31
557.866	44932.09
558.065	45177.85
558.265	44895.23
558.464	44807.17
558.663	45288.44
558.863	44594.18
559.062	45241.34
559.261	44960.76
559.461	45399.03
559.66	44612.61
559.859	44882.94
560.058	44776.45
560.258	44760.06
560.457	44479.49
560.656	45095.93
560.855	44682.24
561.054	44891.13
561.253	44385.29
561.453	45075.45
561.652	45071.35
561.851	44936.19
562.05	44643.33
562.249	44413.96
562.448	44717.06
562.647	44829.69
562.846	44733.44
563.045	44483.59
563.244	44465.16
563.443	44862.46
563.642	44205.06
563.841	44467.2
564.04	44366.85
564.239	44956.67
564.438	44639.23
564.637	44377.09
564.836	44338.18
565.035	43883.53
565.234	44059.66
565.432	44082.19
565.631	44071.95
565.83	44205.06
566.029	43904.01
566.228	43666.45
566.427	44035.08
566.625	43791.37
566.824	43607.06
567.023	44129.29
567.222	43336.73
567.42	43969.55
567.619	43967.5
567.818	43701.26
568.016	43484.18
568.215	43660.3
568.414	43615.25
568.612	43555.86
568.811	43392.02
569.01	43346.97
569.208	43086.87
569.407	43119.64
569.605	43258.9
569.804	43359.25
570.002	42759.2
570.201	42718.24
570.4	43019.29
570.598	42779.68
570.797	42462.24
570.995	42855.45
571.193	42103.85
571.392	42398.76
571.59	42163.24
571.789	42398.76
571.987	41862.19
572.186	42322.98
572.384	41626.67
572.582	42128.42
572.781	42355.75
572.979	41546.8
573.177	41518.13
573.376	42243.11
573.574	41391.16
573.772	41554.99
573.971	41462.83
574.169	41354.29
574.367	41131.06
574.565	41575.47
574.763	41098.3
574.962	41139.25
575.16	40518.72
575.358	40631.36
575.556	40268.87
575.754	40827.96
575.952	40401.99
576.151	40993.85
576.349	39910.47
576.547	40320.07
576.745	40098.89
576.943	39791.69
577.141	40277.06
577.339	40272.96
577.537	39853.13
577.735	39732.3
577.933	39715.92
578.131	39715.92
578.329	39359.57
578.527	39216.21
578.725	39681.1
578.923	39588.94
579.121	39021.66
579.319	39144.53
579.516	39132.25
579.714	39162.97
579.912	38980.7
580.11	38796.38
580.308	38734.94
580.506	38616.16
580.704	38247.52
580.901	38397.02
581.099	38810.71
581.297	38067.3
581.495	38098.02
581.692	37944.42
581.89	38085.73
582.088	37866.6
582.285	37770.35
582.483	37743.72
582.681	38014.05
582.878	37543.02
583.076	37311.6
583.274	37551.21
583.471	37143.67
583.669	37133.43
583.866	37162.1
584.064	37393.52
584.262	36631.68
584.459	37078.13
584.657	36717.69
584.854	37006.45
585.052	36291.71
585.249	36500.61
585.447	36801.66
585.644	36082.82
585.841	36596.86
586.039	36500.61
586.236	36179.07
586.434	36134.02
586.631	35626.12
586.828	35906.69
587.026	36191.36
587.223	35832.97
587.42	35470.48
587.618	35667.08
587.815	35202.19
588.012	35437.71
588.21	35093.65
588.407	35675.27
588.604	35361.94
588.801	35069.08
588.999	34874.52
589.196	34604.19
589.393	35120.27
589.59	34505.88
589.787	34813.08
589.984	34409.63
590.182	34290.85
590.379	34569.37
590.576	34176.16
590.773	34544.8
590.97	34155.68
591.167	34475.16
591.364	34088.1
591.561	33842.34
591.758	33473.71
591.955	33715.37
592.152	33889.45
592.349	33807.53
592.546	33920.17
592.743	33862.82
592.94	33496.24
593.137	33709.22
593.334	33850.53
593.531	33340.59
593.727	33555.63
593.924	33459.37
594.121	33332.4
594.318	33416.36
594.515	33168.56
594.712	33316.01
594.908	33195.18
595.105	32859.32
595.302	32511.16
595.499	32931
595.696	32511.16
595.892	32566.46
596.089	32615.61
596.286	33006.77
596.482	32330.94
596.679	32660.66
596.876	32455.87
597.072	32494.78
597.269	32435.39
597.466	32392.38
597.662	32402.62
597.859	32187.58
598.055	32369.85
598.252	32068.8
598.448	32289.98
598.645	31931.59
598.841	31433.93
599.038	31904.96
599.234	31868.1
599.431	31372.49
599.627	31472.84
599.824	31900.87
600.02	31427.79
600.217	31511.75
600.413	31538.38
600.609	31591.62
600.806	31708.36
601.002	31243.47
601.198	31249.61
601.395	31405.26
601.591	31456.46
601.787	31603.91
601.984	31378.64
602.18	31900.87
602.376	31192.27
602.572	31077.58
602.769	31505.61
602.965	31337.68
603.161	31065.3
603.357	30696.66
603.553	30837.97
603.75	30962.9
603.946	31055.06
604.142	30907.6
604.338	30725.33
604.534	30862.55
604.73	30606.55
604.926	30823.64
605.122	30977.23
605.318	30805.2
605.514	31173.84
605.71	30905.56
605.906	31007.95
606.102	30766.29
606.298	31077.58
606.494	31001.81
606.69	30770.39
606.886	30940.37
607.082	30323.93
607.278	30825.68
607.474	30309.6
607.67	30680.28
607.866	30528.73
608.062	30780.63
608.257	30557.4
608.453	30854.36
608.649	30848.21
608.845	30633.18
609.041	30766.29
609.236	30801.11
609.432	30608.6
609.628	30856.4
609.824	30680.28
610.019	30567.64
610.215	31053.01
610.411	30983.38
610.606	30356.7
610.802	31048.91
610.998	30500.06
611.193	30706.9
611.389	30672.09
611.584	31106.26
611.78	30252.25
611.976	30602.46
612.171	30956.75
612.367	30721.24
612.562	30606.55
612.758	30219.49
612.953	30221.53
613.149	30983.38
613.344	30557.4
613.539	31171.79
613.735	30418.14
613.93	31118.54
614.126	30411.99
614.321	30776.53
614.517	30209.25
614.712	30749.91
614.907	30667.99
615.103	30375.13
615.298	30584.02
615.493	30725.33
615.688	30156
615.884	30899.41
616.079	30553.3
616.274	30770.39
616.47	30420.19
616.665	30659.8
616.86	30469.34
617.055	30285.02
617.25	30432.47
617.445	30250.21
617.641	30082.27
617.836	30733.53
618.031	29578.47
618.226	30010.59
618.421	30072.03
618.616	30307.55
618.811	29830.37
619.006	30352.6
619.201	29400.3
619.396	29867.23
619.591	29476.07
619.786	29928.67
619.981	29308.14
620.176	29646.05
620.371	28966.13
620.566	29385.96
620.761	29121.77
620.956	29273.32
621.151	28769.52
621.346	29123.82
621.541	28720.37
621.735	28736.76
621.93	28327.16
622.125	28761.33
622.32	28153.09
622.515	28251.39
622.709	28036.35
622.904	27852.03
623.099	27778.31
623.294	27680
623.488	27735.3
623.683	27979.01
623.878	26998.03
624.072	27471.11
624.267	27366.67
624.462	27086.09
624.656	26727.7
624.851	26696.98
625.046	26674.45
625.24	26828.05
625.435	26297.63
625.629	26324.25
625.824	26289.43
626.018	26029.34
626.213	25718.05
626.407	25935.13
626.602	25576.74
626.796	25924.9
626.991	25767.2
627.185	25586.98
627.38	25382.18
627.574	25097.52
627.768	25087.28
627.963	24704.31
628.157	24522.04
628.352	24571.19
628.546	24415.54
628.74	24784.18
628.935	24368.44
629.129	24554.8
629.323	24192.31
629.517	24036.67
629.712	24151.35
629.906	23754.05
630.1	23559.49
630.294	23838.01
630.489	23565.64
630.683	23678.27
630.877	23053.64
631.071	22943.05
631.265	23256.39
631.459	22869.33
631.653	22654.29
631.848	22961.48
632.042	22568.27
632.236	22594.9
632.43	21886.3
632.624	22355.29
632.818	21966.17
633.012	21869.92
633.206	21888.35
633.4	22025.56
633.594	21503.33
633.788	21689.7
633.982	21417.32
634.176	21351.78
634.369	21407.08
634.563	21106.02
634.757	20964.71
634.951	21046.63
635.145	21054.83
635.339	20804.97
635.533	20501.87
635.726	21015.91
635.92	20198.77
636.114	20548.98
636.308	20532.59
636.501	20000.12
636.695	19950.97
636.889	19953.02
637.083	19916.15
637.276	19686.78
637.47	19703.17
637.664	19422.59
637.857	19424.64
638.051	19592.58
638.244	18986.38
638.438	19086.73
638.632	18746.76
638.825	19006.86
639.019	18873.74
639.212	18423.19
639.406	18722.19
639.599	18398.61
639.793	18562.45
639.986	18156.95
640.18	18150.81
640.373	18187.67
640.567	17606.05
640.76	17905.05
640.954	17608.09
641.147	17814.94
641.34	17728.92
641.534	17505.7
641.727	17630.62
641.92	17477.02
642.114	17061.29
642.307	17210.79
642.5	17016.23
642.694	16893.35
642.887	16559.53
643.08	16852.39
643.273	16494
643.467	16526.77
643.66	16328.11
643.853	16186.8
644.046	16442.8
644.239	16151.99
644.432	16213.43
644.626	15965.62
644.819	15861.18
645.012	16027.06
645.205	15949.24
645.398	15715.77
645.591	15455.68
645.784	15644.09
645.977	15427.01
646.17	15275.46
646.363	15334.85
646.556	15082.95
646.749	15109.57
646.942	14900.68
647.135	14667.21
647.328	14726.6
647.521	14691.79
647.714	14486.99
647.907	14597.58
648.099	14312.91
648.292	14503.37
648.485	14308.82
648.678	14251.47
648.871	14044.63
649.064	13944.28
649.256	14210.51
649.449	13850.07
649.642	14056.92
649.835	13637.08
650.027	13655.51
650.22	13460.96
650.413	13526.49
650.605	13512.16
650.798	13112.8
650.991	13436.38
651.183	13454.81
651.376	13004.26
651.568	13135.33
651.761	13141.47
651.954	13075.94
652.146	13045.22
652.339	12772.84
652.531	12785.13
652.724	12623.34
652.916	12600.81
653.109	12455.4
653.301	12361.2
653.494	12516.84
653.686	12256.75
653.879	12514.8
654.071	12158.45
654.263	12252.66
654.456	12185.07
654.648	12256.75
654.84	11945.46
655.033	11924.98
655.225	12103.15
655.417	11589.11
655.61	11777.53
655.802	11623.93
655.994	11625.98
656.186	11587.07
656.379	11556.35
656.571	11496.96
656.763	11210.24
656.955	11279.87
657.148	11243.01
657.34	11056.64
657.532	11060.74
657.724	11058.69
657.916	11161.09
658.108	11068.93
658.3	10933.76
658.492	11040.26
658.684	10831.37
658.876	10657.29
659.068	10536.46
659.26	10454.54
659.452	10604.04
659.644	10552.84
659.836	10665.48
660.028	10520.07
660.22	10065.43
660.412	10333.71
660.604	10030.61
660.796	10094.1
660.988	10145.3
661.18	10171.92
661.372	9864.72
661.563	10049.04
661.755	9733.65
661.947	10051.09
662.139	9815.57
662.331	9850.39
662.522	9547.29
662.714	9590.3
662.906	9539.1
663.097	9571.86
663.289	9487.9
663.481	9436.7
663.673	9530.91
663.864	9256.48
664.056	9307.68
664.247	9416.22
664.439	9041.44
664.631	9319.96
664.822	8990.24
665.014	8902.18
665.205	8971.81
665.397	8902.18
665.588	8973.86
665.78	8717.86
665.971	8914.47
666.163	8717.86
666.354	8906.27
666.546	8709.67
666.737	8609.32
666.929	8635.94
667.12	8588.84
667.311	8556.07
667.503	8523.3
667.694	8486.44
667.885	8345.13
668.077	8285.74
668.268	8310.32
668.459	8252.97
668.651	8332.84
668.842	8209.97
669.033	8193.58
669.224	8310.32
669.416	8126
669.607	8111.66
669.798	8095.28
669.989	8136.24
670.18	7966.26
670.371	7802.42
670.563	7837.24
670.754	7958.07
670.945	7849.52
671.136	7777.84
671.327	7786.04
671.518	7638.58
671.709	7777.84
671.9	7786.04
672.091	7538.23
672.282	7669.3
672.473	7474.74
672.664	7601.72
672.855	7480.89
673.046	7489.08
673.237	7683.64
673.428	7390.78
673.619	7333.43
673.809	7405.11
674	7444.03
674.191	7458.36
674.382	7214.65
674.573	7282.24
674.764	7218.75
674.954	7319.1
675.145	6989.38
675.336	7265.85
675.527	7087.68
675.717	7054.91
675.908	7165.5
676.099	7153.21
676.289	7083.58
676.48	7132.73
676.671	6999.62
676.861	7054.91
677.052	6989.38
677.243	6923.84
677.433	6764.1
677.624	6862.4
677.814	6768.2
678.005	6772.29
678.195	6972.99
678.386	6917.7
678.576	6796.87
678.767	6764.1
678.957	6964.8
679.148	6743.62
679.338	6753.86
679.529	6745.67
679.719	6542.92
679.909	6751.81
680.1	6657.61
680.29	6657.61
680.481	6534.73
680.671	6678.08
680.861	6489.67
681.052	6729.28
681.242	6596.17
681.432	6692.42
681.622	6661.7
681.813	6571.59
682.003	6637.13
682.193	6551.11
682.383	6471.24
682.573	6516.3
682.764	6446.66
682.954	6442.57
683.144	6659.65
683.334	6409.8
683.524	6399.56
683.714	6475.34
683.904	6276.68
684.094	6352.46
684.284	6424.14
684.474	6325.83
684.664	6440.52
684.854	6327.88
685.044	6327.88
685.234	6340.17
685.424	6239.82
685.614	6121.04
685.804	6270.54
685.994	6346.31
686.184	6329.93
686.374	6188.62
686.564	6114.89
686.753	6317.64
686.943	5901.9
687.133	6186.57
687.323	5807.7
687.513	6243.92
687.702	6143.56
687.892	5981.78
688.082	6008.4
688.272	6032.97
688.461	5912.14
688.651	6024.78
688.841	5875.28
689.03	5881.42
689.22	5715.54
689.41	5981.78
689.599	5903.95
689.789	5826.13
689.979	5713.49
690.168	5672.53
690.358	5631.57
690.547	5609.05
690.737	5582.42
690.926	5690.96
691.116	5641.81
691.305	5641.81
691.495	5588.57
691.684	5369.43
691.874	5697.11
692.063	5607
692.252	5563.99
692.442	5572.18
692.631	5531.22
692.82	5559.89
693.01	5379.67
693.199	5277.27
693.388	5312.09
693.578	5455.45
693.767	5344.86
693.956	5269.08
694.146	5326.43
694.335	5271.13
694.524	5219.93
694.713	5369.43
694.902	5162.59
695.092	5234.27
695.281	5013.09
695.47	5244.51
695.659	5023.33
695.848	5336.67
696.037	5076.57
696.226	5361.24
696.415	5301.85
696.604	5178.97
696.793	5187.16
696.982	5170.78
697.171	5015.13
697.36	5031.52
697.549	5097.05
697.738	4875.87
697.927	5097.05
698.116	5072.48
698.305	4961.89
698.494	5027.42
698.683	4916.83
698.872	5097.05
699.061	4761.19
699.25	4908.64
699.438	4873.82
699.627	4767.33
699.816	4752.99
700.005	4789.86
700.193	4752.99
700.382	4845.15
700.571	4777.57
700.76	4720.23
700.948	4970.08
701.137	4738.66
701.326	4640.36
701.514	4609.64
701.703	4632.16
701.892	4484.71
702.08	4652.64
702.269	4650.6
702.457	4597.35
702.646	4648.55
702.834	4507.24
703.023	4490.85
703.212	4638.31
703.4	4466.28
703.589	4462.18
703.777	4519.53
703.965	4429.42
704.154	4558.44
704.342	4501.09
704.531	4466.28
704.719	4329.06
704.907	4365.93
705.096	4312.68
705.284	4478.57
705.472	4423.27
705.661	4351.59
705.849	4466.28
706.037	4445.8
706.226	4329.06
706.414	4277.87
706.602	4114.03
706.79	4320.87
706.979	4228.71
707.167	4222.57
707.355	4118.12
707.543	4238.95
707.731	4208.23
707.919	4284.01
708.107	4187.75
708.296	4279.91
708.484	4030.06
708.672	4150.89
708.86	3982.96
709.048	4271.72
709.236	4011.63
709.424	4060.78
709.612	4064.88
709.8	4023.92
709.988	4064.88
710.176	4048.49
710.364	3966.57
710.551	3942
710.739	3956.33
710.927	4021.87
711.115	3991.15
711.303	3876.46
711.491	3913.33
711.679	3823.22
711.866	3812.98
712.054	3933.81
712.242	3802.74
712.43	3890.8
712.617	3942
712.805	3860.08
712.993	3966.57
713.181	3817.07
713.368	3815.02
713.556	3901.04
713.744	3671.67
713.931	3855.98
714.119	3864.18
714.306	3778.16
714.494	3712.63
714.682	3761.78
714.869	3714.67
715.057	3616.37
715.244	3704.43
715.432	3626.61
715.619	3647.09
715.807	3630.71
715.994	3556.98
716.182	3559.03
716.369	3581.56
716.556	3628.66
716.744	3511.93
716.931	3544.69
717.119	3548.79
717.306	3401.33
717.493	3468.92
717.681	3438.2
717.868	3479.16
718.055	3536.5
718.242	3477.11
718.43	3550.84
718.617	3466.87
718.804	3477.11
718.991	3528.31
719.179	3413.62
719.366	3450.49
719.553	3360.38
719.74	3387
719.927	3327.61
720.114	3360.38
720.301	3278.46
720.488	3266.17
720.676	3237.5
720.863	3464.82
721.05	3376.76
721.237	3192.44
721.424	3358.33
721.611	3352.18
721.798	3253.88
721.985	3221.11
722.172	3262.07
722.358	3167.87
722.545	3348.09
722.732	3137.15
722.919	3096.19
723.106	3135.1
723.293	3272.31
723.48	3174.01
723.667	3098.24
723.853	3036.8
724.04	3255.93
724.227	3149.43
724.414	3122.81
724.6	3120.76
724.787	3235.45
724.974	3139.19
725.161	3128.95
725.347	3040.89
725.534	3065.47
725.72	3004.03
725.907	3040.89
726.094	3178.11
726.28	3065.47
726.467	3071.61
726.653	3026.56
726.84	2967.17
727.027	3012.22
727.213	2932.35
727.4	2930.3
727.586	2807.42
727.773	2975.36
727.959	2944.64
728.145	3028.6
728.332	2928.25
728.518	2717.31
728.705	2848.38
728.891	2795.14
729.077	2815.62
729.264	2879.1
729.45	2760.32
729.636	2981.5
729.823	2821.76
730.009	2832
730.195	2846.34
730.382	2846.34
730.568	2819.71
730.754	2823.81
730.94	2809.47
731.126	2854.53
731.313	2864.77
731.499	2649.73
731.685	2750.08
731.871	2811.52
732.057	2651.78
732.243	2823.81
732.429	2633.35
732.615	2858.62
732.801	2758.27
732.987	2674.31
733.173	2745.98
733.359	2764.42
733.545	2754.18
733.731	2756.22
733.917	2776.7
734.103	2672.26
734.289	2682.5
734.475	2633.35
734.661	2705.03
734.847	2713.22
735.033	2711.17
735.219	2592.39
735.404	2772.61
735.59	2668.16
735.776	2594.44
735.962	2598.53
736.148	2659.97
736.333	2614.91
736.519	2598.53
736.705	2582.15
736.89	2475.65
737.076	2545.28
737.262	2496.13
737.447	2561.67
737.633	2590.34
737.819	2533
738.004	2508.42
738.19	2582.15
738.375	2336.39
738.561	2504.32
738.747	2436.74
738.932	2463.37
739.118	2555.52
739.303	2416.26
739.489	2500.23
739.674	2520.71
739.859	2291.34
740.045	2317.96
740.23	2387.59
740.416	2262.66
740.601	2229.9
740.786	2279.05
740.972	2356.87
741.157	2399.88
741.342	2289.29
741.528	2467.46
741.713	2369.16
741.898	2313.86
742.084	2313.86
742.269	2207.37
742.454	2164.36
742.639	2346.63
742.824	2363.01
743.01	2322.06
743.195	2324.1
743.38	2270.86
743.565	2229.9
743.75	2238.09
743.935	2297.48
744.12	2289.29
744.305	1967.76
744.49	2082.44
744.675	2246.28
744.86	2082.44
745.045	2135.69
745.23	2059.92
745.415	2098.83
745.6	2143.88
745.785	1988.24
745.97	2102.92
746.155	2131.59
746.34	2033.29
746.525	2033.29
746.71	2016.91
746.895	1914.51
747.079	2084.49
747.264	2008.72
747.449	1992.33
747.634	2002.57
747.819	1881.74
748.003	1857.17
748.188	1851.02
748.373	1922.7
748.557	1830.54
748.742	1826.45
748.927	1789.58
749.111	1844.88
749.296	1871.5
749.481	2000.52
749.665	1781.39
749.85	1795.73
750.034	1963.66
750.219	1736.34
750.404	1824.4
750.588	1740.43
750.773	1779.34
750.957	1685.14
751.141	1695.38
751.326	1762.96
751.51	1722
751.695	1762.96
751.879	1615.51
752.064	1765.01
752.248	1722
752.432	1687.18
752.617	1678.99
752.801	1605.27
752.985	1609.36
753.17	1697.42
753.354	1644.18
753.538	1652.37
753.722	1592.98
753.907	1529.49
754.091	1584.79
754.275	1601.17
754.459	1418.9
754.643	1519.25
754.828	1627.79
755.012	1527.44
755.196	1523.35
755.38	1529.49
755.564	1472.15
755.748	1408.66
755.932	1494.68
756.116	1461.91
756.3	1482.39
756.484	1377.94
756.668	1439.38
756.852	1394.33
757.036	1445.52
757.22	1279.64
757.404	1379.99
757.588	1298.07
757.772	1320.6
757.956	1328.79
758.14	1410.71
758.323	1367.7
758.507	1277.59
758.691	1257.11
758.875	1345.17
759.059	1322.65
759.242	1277.59
759.426	1240.73
759.61	1373.85
759.794	1283.74
759.977	1347.22
760.161	1189.53
760.345	1195.67
760.528	1275.54
760.712	1152.67
760.895	1242.78
761.079	1171.1
761.263	1156.76
761.446	1189.53
761.63	1189.53
761.813	1263.26
761.997	1175.19
762.18	1214.1
762.364	1257.11
762.547	1167
762.731	1140.38
762.914	1158.81
763.098	1167
763.281	1138.33
763.464	1050.27
763.648	1111.71
763.831	1093.27
764.015	1142.43
764.198	1128.09
764.381	1148.57
764.564	1156.76
764.748	1005.21
764.931	1132.19
765.114	1076.89
765.297	1103.51
765.481	1095.32
765.664	1150.62
765.847	994.97
766.03	1117.85
766.213	1019.55
766.397	994.97
766.58	1021.6
766.763	1076.89
766.946	992.92
767.129	1009.31
767.312	1078.94
767.495	1181.34
767.678	972.44
767.861	1072.79
768.044	1029.79
768.227	1044.12
768.41	1050.27
768.593	1037.98
768.776	954.01
768.959	911
769.142	1027.74
769.324	1019.55
769.507	1035.93
769.69	1017.5
769.873	945.82
770.056	1042.07
770.239	956.06
770.421	902.81
770.604	962.2
770.787	1009.31
770.97	1005.21
771.152	935.58
771.335	978.59
771.518	902.81
771.7	1015.45
771.883	1058.46
772.066	884.38
772.248	921.24
772.431	937.63
772.613	911
772.796	915.1
772.978	962.2
773.161	943.77
773.343	894.62
773.526	913.05
773.708	894.62
773.891	902.81
774.073	822.94
774.256	820.89
774.438	904.86
774.621	902.81
774.803	792.22
774.985	816.8
775.168	892.57
775.35	792.22
775.532	911
775.715	757.41
775.897	886.43
776.079	812.7
776.261	829.09
776.444	773.79
776.626	767.65
776.808	716.45
776.99	804.51
777.173	763.55
777.355	824.99
777.537	786.08
777.719	773.79
777.901	743.07
778.083	771.74
778.265	689.82
778.447	786.08
778.629	741.02
778.811	771.74
778.993	718.5
779.175	730.78
779.357	820.89
779.539	728.74
779.721	667.3
779.903	749.22
780.085	628.39
780.267	661.15
780.449	612
780.631	675.49
780.812	652.96
780.994	583.33
781.176	640.67
781.358	601.76
781.54	616.1
781.721	757.41
781.903	609.95
782.085	634.53
782.267	695.97
782.448	632.48
782.63	607.91
782.812	599.71
782.993	587.43
783.175	616.1
783.357	568.99
783.538	562.85
783.72	630.43
783.901	528.03
784.083	583.33
784.264	519.84
784.446	501.41
784.627	540.32
784.809	521.89
784.99	583.33
785.172	591.52
785.353	456.36
785.535	485.03
785.716	464.55
785.897	427.68
786.079	478.88
786.26	554.66
786.441	552.61
786.623	394.92
786.804	499.36
786.985	521.89
787.167	517.79
787.348	487.08
787.529	476.84
787.71	454.31
787.891	495.27
788.073	485.03
788.254	452.26
788.435	497.32
788.616	472.74
788.797	386.72
788.978	394.92
789.159	485.03
789.34	534.18
789.522	378.53
789.703	495.27
789.884	394.92
790.065	435.88
790.246	513.7
790.427	454.31
790.607	431.78
790.788	423.59
790.969	401.06
791.15	464.55
791.331	433.83
791.512	444.07
791.693	356.01
791.874	399.01
792.054	446.12
792.235	454.31
792.416	388.77
792.597	362.15
792.778	421.54
792.958	394.92
793.139	298.66
793.32	394.92
793.5	374.44
793.681	413.35
793.862	411.3
794.042	292.52
794.223	386.72
794.404	419.49
794.584	282.28
794.765	296.61
794.945	313
795.126	337.57
795.306	370.34
795.487	306.85
795.667	413.35
795.848	321.19
796.028	349.86
796.209	399.01
796.389	409.25
796.57	247.46
796.75	419.49
796.93	290.47
797.111	337.57
797.291	284.33
797.471	198.31
797.652	235.18
797.832	257.7
798.012	388.77
798.192	202.41
798.373	241.32
798.553	308.9
798.733	325.29
798.913	257.7
799.093	173.74
799.274	288.42
799.454	319.14
799.634	345.77
799.814	304.81
799.994	263.85
800.174	321.19
800.354	302.76
800.534	261.8
800.714	335.53
800.894	173.74
801.074	163.5
801.254	272.04
801.434	317.09
801.614	337.57
801.794	208.55
801.974	841.37
802.154	263.85
802.334	272.04
802.514	245.41
802.693	251.56
802.873	272.04
803.053	267.94
803.233	253.61
803.413	272.04
803.592	231.08
803.772	224.94
803.952	245.41
804.131	235.18
804.311	239.27
804.491	298.66
804.67	214.7
804.85	198.31
805.03	313
805.209	345.77
805.389	259.75
805.568	183.98
805.748	239.27
805.928	278.18
806.107	247.46
806.287	226.98
806.466	302.76
806.646	276.13
806.825	214.7
807.004	216.74
807.184	177.83
807.363	190.12
807.543	263.85
807.722	251.56
807.901	224.94
808.081	214.7
808.26	124.58
808.439	190.12
808.619	190.12
808.798	183.98
808.977	206.5
809.156	308.9
809.336	216.74
809.515	296.61
809.694	208.55
809.873	102.06
810.052	229.03
810.231	208.55
810.411	169.64
810.59	263.85
810.769	54.95
810.948	186.02
811.127	165.54
811.306	198.31
811.485	159.4
811.664	290.47
811.843	237.22
812.022	132.78
812.201	210.6
812.38	175.78
812.559	167.59
812.737	206.5
812.916	153.26
813.095	167.59
813.274	190.12
813.453	149.16
813.632	210.6
813.811	202.41
813.989	118.44
814.168	173.74
814.347	263.85
814.526	165.54
814.704	198.31
814.883	200.36
815.062	192.17
815.24	173.74
815.419	161.45
815.598	177.83
815.776	120.49
815.955	153.26
816.133	102.06
816.312	167.59
816.49	97.96
816.669	214.7
816.847	112.3
817.026	165.54
817.204	153.26
817.383	153.26
817.561	153.26
817.74	192.17
817.918	83.63
818.097	126.63
818.275	155.3
818.453	79.53
818.632	169.64
818.81	128.68
818.988	108.2
819.167	159.4
819.345	140.97
819.523	85.67
819.701	167.59
819.879	163.5
820.058	143.02
820.236	91.82
820.414	81.58
820.592	46.76
820.77	102.06
820.948	159.4
821.127	112.3
821.305	138.92
821.483	110.25
821.661	261.8
821.839	171.69
822.017	181.93
822.195	120.49
822.373	140.97
822.551	116.39
822.729	93.87
822.907	52.91
823.085	136.87
823.262	134.82
823.44	128.68
823.618	153.26
823.796	132.78
823.974	181.93
824.152	104.11
824.329	181.93
824.507	122.54
824.685	198.31
824.863	157.35
825.04	114.34
825.218	124.58
825.396	116.39
825.574	149.16
825.751	91.82
825.929	136.87
826.107	54.95
826.284	128.68
826.462	110.25
826.639	3.75
826.817	28.33
826.994	63.15
827.172	140.97
827.349	151.21
827.527	222.89
827.704	100.01
827.882	102.06
828.059	153.26
828.237	108.2
828.414	149.16
828.591	85.67
828.769	132.78
828.946	153.26
829.124	100.01
829.301	190.12
829.478	59.05
829.655	169.64
829.833	95.91
830.01	59.05
830.187	69.29
830.364	81.58
830.542	165.54
830.719	110.25
830.896	104.11
831.073	108.2
831.25	116.39
831.427	116.39
831.604	54.95
831.782	116.39
831.959	181.93
832.136	67.24
832.313	116.39
832.49	77.48
832.667	143.02
832.844	124.58
833.021	206.5
833.198	153.26
833.374	104.11
833.551	95.91
833.728	116.39
833.905	110.25
834.082	34.47
834.259	7.85
834.436	73.39
834.612	106.15
834.789	83.63
834.966	50.86
835.143	149.16
835.319	63.15
835.496	71.34
835.673	91.82
835.85	128.68
836.026	128.68
836.203	161.45
836.38	87.72
836.556	44.71
836.733	42.67
836.909	91.82
837.086	77.48
837.262	11.95
837.439	126.63
837.616	44.71
837.792	42.67
837.968	59.05
838.145	77.48
838.321	50.86
838.498	-4.44
838.674	75.43
838.851	93.87
839.027	130.73
839.203	122.54
839.38	85.67
839.556	126.63
839.732	75.43
839.909	134.82
840.085	126.63
840.261	91.82
840.437	126.63
840.614	85.67
840.79	89.77
840.966	100.01
841.142	18.09
841.318	42.67
841.494	143.02
841.671	91.82
841.847	-4.44
842.023	1.71
842.199	67.24
842.375	9.9
842.551	52.91
842.727	67.24
842.903	40.62
843.079	7.85
843.255	153.26
843.431	71.34
843.607	59.05
843.783	-22.87
843.959	77.48
844.134	18.09
844.31	149.16
844.486	50.86
844.662	52.91
844.838	100.01
845.013	77.48
845.189	104.11
845.365	54.95
845.541	95.91
845.716	9.9
845.892	59.05
846.068	112.3
846.244	59.05
846.419	42.67
846.595	50.86
846.77	9.9
846.946	54.95
847.122	22.19
847.297	65.19
847.473	75.43
847.648	1.71
847.824	95.91
847.999	46.76
848.175	34.47
848.35	18.09
848.526	52.91
848.701	132.78
848.876	132.78
849.052	50.86
849.227	52.91
849.403	-0.34
849.578	18.09
849.753	100.01
849.929	85.67
850.104	50.86
850.279	108.2
850.454	73.39
850.63	151.21
850.805	-26.96
850.98	46.76
851.155	18.09
851.33	71.34
851.505	52.91
851.681	36.52
851.856	87.72
852.031	-14.68
852.206	1.71
852.381	59.05
852.556	134.82
852.731	-14.68
852.906	22.19
853.081	89.77
853.256	46.76
853.431	100.01
853.606	-86.36
853.781	52.91
853.956	69.29
854.131	40.62
854.305	-31.06
854.48	30.38
854.655	100.01
854.83	-16.73
855.005	9.9
855.18	46.76
855.354	110.25
855.529	30.38
855.704	48.81
855.879	122.54
856.053	-6.49
856.228	77.48
856.403	9.9
856.577	54.95
856.752	26.28
856.926	71.34
857.101	-6.49
857.276	32.43
857.45	34.47
857.625	77.48
857.799	26.28
857.974	91.82
858.148	9.9
858.323	145.06
858.497	9.9
858.672	30.38
858.846	26.28
859.02	32.43
859.195	-43.35
859.369	-47.44
859.543	28.33
859.718	40.62
859.892	50.86
860.066	63.15
860.241	3.75
860.415	54.95
860.589	3.75
860.763	59.05
860.938	18.09
861.112	116.39
861.286	9.9
861.46	1.71
861.634	50.86
861.808	116.39
861.982	34.47
862.157	22.19
862.331	22.19
862.505	26.28
862.679	67.24
862.853	124.58
863.027	9.9
863.201	91.82
863.375	-10.58
863.549	18.09
863.722	26.28
863.896	85.67
864.07	-31.06
864.244	9.9
864.418	9.9
864.592	16.04
864.766	54.95
864.939	67.24
865.113	1.71
865.287	34.47
865.461	9.9
865.634	1.71
865.808	-31.06
865.982	5.8
866.156	-6.49
866.329	34.47
866.503	34.47
866.676	81.58
866.85	71.34
867.024	20.14
867.197	44.71
867.371	46.76
867.544	20.14
867.718	46.76
867.891	116.39
868.065	67.24
868.238	18.09
868.412	126.63
868.585	-6.49
868.759	-47.44
868.932	-98.64
869.105	9.9
869.279	-41.3
869.452	59.05
869.625	75.43
869.799	-22.87
869.972	1.71
870.145	50.86
870.319	38.57
870.492	42.67
870.665	-22.87
870.838	34.47
871.011	-76.12
871.185	11.95
871.358	1.71
871.531	1.71
871.704	50.86
871.877	38.57
872.05	11.95
872.223	18.09
872.396	13.99
872.569	42.67
872.742	-20.82
872.915	9.9
873.088	-39.25
873.261	-18.77
873.434	13.99
873.607	-14.68
873.78	-0.34
873.953	28.33
874.126	-0.34
874.299	77.48
874.471	40.62
874.644	26.28
874.817	69.29
874.99	42.67
875.163	-69.97
875.335	71.34
875.508	22.19
875.681	71.34
875.853	34.47
876.026	-31.06
876.199	3.75
876.371	71.34
876.544	-37.2
876.717	11.95
876.889	-16.73
877.062	1.71
877.234	-39.25
877.407	-4.44
877.579	34.47
877.752	67.24
877.924	38.57
878.097	26.28
878.269	34.47
878.442	28.33
878.614	75.43
878.786	-6.49
878.959	-31.06
879.131	9.9
879.303	-0.34
879.476	-6.49
879.648	1.71
879.82	71.34
879.993	18.09
880.165	-49.49
880.337	42.67
880.509	108.2
880.681	28.33
880.854	-31.06
881.026	100.01
881.198	9.9
881.37	24.23
881.542	-55.64
881.714	-80.21
881.886	52.91
882.058	46.76
882.23	54.95
882.402	22.19
882.574	50.86
882.746	54.95
882.918	110.25
883.09	20.14
883.262	59.05
883.434	52.91
883.606	13.99
883.778	59.05
883.95	34.47
884.122	20.14
884.293	73.39
884.465	28.33
884.637	40.62
884.809	-31.06
884.98	18.09
885.152	1.71
885.324	-18.77
885.496	67.24
885.667	-2.39
885.839	9.9
886.011	87.72
886.182	50.86
886.354	100.01
886.525	20.14
886.697	48.81
886.869	-51.54
887.04	9.9
887.212	65.19
887.383	61.1
887.555	9.9
887.726	-22.87
887.897	-51.54
888.069	85.67
888.24	9.9
888.412	77.48
888.583	28.33
888.754	3.75
888.926	-110.93
889.097	20.14
889.268	-67.92
889.44	52.91
889.611	-29.01
889.782	13.99
889.953	1.71
890.125	-14.68
890.296	-14.68
890.467	1.71
890.638	100.01
890.809	11.95
890.98	-6.49
891.151	34.47
891.323	116.39
891.494	5.8
891.665	-31.06
891.836	3.75
892.007	50.86
892.178	20.14
892.349	32.43
892.52	-72.02
892.691	-26.96
892.862	-14.68
893.032	-26.96
893.203	13.99
893.374	-16.73
893.545	75.43
893.716	63.15
893.887	46.76
894.057	-14.68
894.228	-0.34
894.399	-12.63
894.57	28.33
894.74	20.14
894.911	20.14
895.082	-55.64
895.253	-0.34
895.423	42.67
895.594	26.28
895.764	-2.39
895.935	-112.98
896.106	28.33
896.276	71.34
896.447	50.86
896.617	28.33
896.788	11.95
896.958	36.52
897.129	-12.63
897.299	-31.06
897.47	-12.63
897.64	65.19
897.81	54.95
897.981	50.86
898.151	61.1
898.322	61.1
898.492	44.71
898.662	34.47
898.832	42.67
899.003	-4.44
899.173	18.09
899.343	5.8
899.513	-14.68
