Data from USB4F104151__302__14-34-59-396.txt Node

Date: Thu Mar 13 14:34:59 EDT 2025
User: louis
Spectrometer: USB4F10415
Trigger mode: 4
Integration Time (sec): 2.500000E-2
Scans to average: 1
Electric dark correction enabled: true
Nonlinearity correction enabled: false
Boxcar width: 0
XAxis mode: Wavelengths
Number of Pixels in Spectrum: 3648
>>>>>Begin Spectral Data<<<<<
178.204	-104.96
178.424	-104.96
178.644	-104.96
178.864	-137.73
179.084	-133.63
179.304	-23.04
179.524	-6.66
179.744	17.92
179.964	58.88
180.184	-74.24
180.404	42.5
180.624	-18.94
180.844	34.3
181.064	-16.9
181.283	-8.7
181.503	26.11
181.723	-31.23
181.943	-23.04
182.163	5.63
182.383	22.02
182.602	5.63
182.822	79.36
183.042	19.97
183.262	3.58
183.482	79.36
183.701	5.63
183.921	58.88
184.141	-4.61
184.361	24.06
184.58	62.98
184.8	40.45
185.02	58.88
185.239	112.13
185.459	79.36
185.679	46.59
185.898	5.63
186.118	15.87
186.338	46.59
186.557	26.11
186.777	-10.75
186.997	75.26
187.216	71.17
187.436	99.84
187.655	-16.9
187.875	105.98
188.095	1.54
188.314	144.89
188.534	89.6
188.753	62.98
188.973	112.13
189.192	30.21
189.412	46.59
189.631	1.54
189.851	34.3
190.07	87.55
190.29	-35.33
190.509	5.63
190.729	54.78
190.948	120.32
191.168	212.48
191.387	67.07
191.607	79.36
191.826	5.63
192.045	56.83
192.265	5.63
192.484	54.78
192.704	22.02
192.923	5.63
193.142	138.75
193.362	-2.56
193.581	79.36
193.8	-10.75
194.02	48.64
194.239	5.63
194.458	26.11
194.678	-27.14
194.897	91.65
195.116	-96.77
195.335	79.36
195.555	9.73
195.774	56.83
195.993	34.3
196.212	48.64
196.432	54.78
196.651	40.45
196.87	40.45
197.089	105.98
197.308	77.31
197.528	81.41
197.747	46.59
197.966	48.64
198.185	46.59
198.404	54.78
198.623	22.02
198.842	40.45
199.062	136.7
199.281	114.17
199.5	-18.94
199.719	65.02
199.938	71.17
200.157	79.36
200.376	9.73
200.595	91.65
200.814	71.17
201.033	81.41
201.252	151.04
201.471	-14.85
201.69	71.17
201.909	71.17
202.128	1.54
202.347	17.92
202.566	-0.51
202.785	22.02
203.004	-18.94
203.223	112.13
203.442	19.97
203.661	-14.85
203.879	97.79
204.098	22.02
204.317	32.26
204.536	101.89
204.755	34.3
204.974	54.78
205.193	42.5
205.411	163.33
205.63	124.41
205.849	7.68
206.068	44.54
206.287	65.02
206.505	24.06
206.724	26.11
206.943	73.21
207.162	71.17
207.381	93.69
207.599	67.07
207.818	73.21
208.037	46.59
208.255	-27.14
208.474	30.21
208.693	-14.85
208.911	54.78
209.13	71.17
209.349	17.92
209.567	54.78
209.786	112.13
210.005	46.59
210.223	-49.66
210.442	-18.94
210.661	46.59
210.879	71.17
211.098	40.45
211.316	9.73
211.535	48.64
211.753	-0.51
211.972	75.26
212.191	-23.04
212.409	48.64
212.628	24.06
212.846	-2.56
213.065	95.74
213.283	42.5
213.502	77.31
213.72	56.83
213.938	95.74
214.157	128.51
214.375	95.74
214.594	11.78
214.812	54.78
215.031	65.02
215.249	-68.09
215.467	62.98
215.686	15.87
215.904	97.79
216.122	-14.85
216.341	5.63
216.559	-2.56
216.778	81.41
216.996	58.88
217.214	62.98
217.432	24.06
217.651	-68.09
217.869	36.35
218.087	30.21
218.306	40.45
218.524	71.17
218.742	17.92
218.96	83.45
219.179	3.58
219.397	38.4
219.615	87.55
219.833	-2.56
220.051	-72.19
220.27	120.32
220.488	91.65
220.706	40.45
220.924	-10.75
221.142	54.78
221.36	79.36
221.578	62.98
221.796	-4.61
222.015	114.17
222.233	58.88
222.451	67.07
222.669	42.5
222.887	108.03
223.105	-2.56
223.323	105.98
223.541	11.78
223.759	120.32
223.977	-35.33
224.195	67.07
224.413	69.12
224.631	26.11
224.849	-14.85
225.067	58.88
225.285	-0.51
225.503	-78.33
225.721	-25.09
225.939	54.78
226.157	5.63
226.375	105.98
226.592	38.4
226.81	97.79
227.028	71.17
227.246	110.08
227.464	-35.33
227.682	110.08
227.9	34.3
228.117	50.69
228.335	38.4
228.553	56.83
228.771	108.03
228.989	-8.7
229.206	24.06
229.424	-41.47
229.642	32.26
229.86	38.4
230.077	87.55
230.295	15.87
230.513	40.45
230.731	24.06
230.948	116.22
231.166	101.89
231.384	-35.33
231.601	1.54
231.819	95.74
232.037	-8.7
232.254	54.78
232.472	24.06
232.689	40.45
232.907	22.02
233.125	5.63
233.342	5.63
233.56	71.17
233.777	58.88
233.995	38.4
234.213	38.4
234.43	65.02
234.648	30.21
234.865	62.98
235.083	75.26
235.3	-10.75
235.518	-8.7
235.735	85.5
235.953	73.21
236.17	9.73
236.388	46.59
236.605	65.02
236.822	62.98
237.04	116.22
237.257	122.37
237.475	46.59
237.692	34.3
237.909	40.45
238.127	-2.56
238.344	22.02
238.562	79.36
238.779	-27.14
238.996	-37.38
239.214	9.73
239.431	73.21
239.648	-25.09
239.865	26.11
240.083	38.4
240.3	138.75
240.517	87.55
240.735	30.21
240.952	65.02
241.169	136.7
241.386	-35.33
241.603	50.69
241.821	-25.09
242.038	105.98
242.255	91.65
242.472	-27.14
242.689	62.98
242.907	105.98
243.124	-10.75
243.341	17.92
243.558	-25.09
243.775	48.64
243.992	30.21
244.209	30.21
244.426	24.06
244.643	136.7
244.86	24.06
245.078	95.74
245.295	58.88
245.512	38.4
245.729	5.63
245.946	62.98
246.163	73.21
246.38	19.97
246.597	34.3
246.814	-31.23
247.031	-43.52
247.248	40.45
247.464	73.21
247.681	101.89
247.898	7.68
248.115	60.93
248.332	42.5
248.549	-23.04
248.766	132.61
248.983	81.41
249.2	26.11
249.417	71.17
249.633	42.5
249.85	114.17
250.067	24.06
250.284	124.41
250.501	75.26
250.717	56.83
250.934	3.58
251.151	58.88
251.368	81.41
251.585	79.36
251.801	62.98
252.018	9.73
252.235	22.02
252.451	38.4
252.668	13.82
252.885	73.21
253.102	-16.9
253.318	-2.56
253.535	58.88
253.752	5.63
253.968	-27.14
254.185	89.6
254.401	19.97
254.618	81.41
254.835	46.59
255.051	210.43
255.268	83.45
255.484	-35.33
255.701	38.4
255.917	1.54
256.134	24.06
256.351	54.78
256.567	38.4
256.784	22.02
257	-76.29
257.217	89.6
257.433	22.02
257.65	32.26
257.866	87.55
258.082	-27.14
258.299	79.36
258.515	34.3
258.732	-2.56
258.948	-35.33
259.165	73.21
259.381	17.92
259.597	95.74
259.814	71.17
260.03	34.3
260.246	-57.86
260.463	75.26
260.679	9.73
260.895	34.3
261.112	-55.81
261.328	56.83
261.544	62.98
261.761	-8.7
261.977	24.06
262.193	-31.23
262.409	22.02
262.626	13.82
262.842	65.02
263.058	54.78
263.274	19.97
263.49	30.21
263.707	161.28
263.923	62.98
264.139	9.73
264.355	56.83
264.571	93.69
264.787	73.21
265.004	11.78
265.22	58.88
265.436	32.26
265.652	22.02
265.868	5.63
266.084	-74.24
266.3	48.64
266.516	-47.62
266.732	13.82
266.948	71.17
267.164	44.54
267.38	95.74
267.596	91.65
267.812	62.98
268.028	19.97
268.244	36.35
268.46	103.93
268.676	52.74
268.892	-18.94
269.108	-25.09
269.324	56.83
269.54	-47.62
269.756	48.64
269.972	-43.52
270.188	44.54
270.403	38.4
270.619	-2.56
270.835	5.63
271.051	62.98
271.267	52.74
271.483	95.74
271.698	52.74
271.914	56.83
272.13	-0.51
272.346	-18.94
272.562	7.68
272.777	40.45
272.993	22.02
273.209	30.21
273.425	24.06
273.64	34.3
273.856	22.02
274.072	17.92
274.287	22.02
274.503	58.88
274.719	69.12
274.934	15.87
275.15	17.92
275.366	60.93
275.581	38.4
275.797	-16.9
276.012	110.08
276.228	36.35
276.444	73.21
276.659	54.78
276.875	73.21
277.09	17.92
277.306	40.45
277.521	17.92
277.737	5.63
277.952	48.64
278.168	118.27
278.383	83.45
278.599	-2.56
278.814	177.66
279.03	-14.85
279.245	1.54
279.461	34.3
279.676	105.98
279.892	-33.28
280.107	13.82
280.322	30.21
280.538	34.3
280.753	32.26
280.969	144.89
281.184	5.63
281.399	91.65
281.615	11.78
281.83	5.63
282.045	54.78
282.26	91.65
282.476	32.26
282.691	97.79
282.906	-0.51
283.122	58.88
283.337	-33.28
283.552	28.16
283.767	36.35
283.983	87.55
284.198	-2.56
284.413	-8.7
284.628	-14.85
284.843	-16.9
285.058	42.5
285.274	7.68
285.489	9.73
285.704	138.75
285.919	5.63
286.134	87.55
286.349	13.82
286.564	13.82
286.779	144.89
286.995	38.4
287.21	38.4
287.425	58.88
287.64	46.59
287.855	-6.66
288.07	46.59
288.285	40.45
288.5	116.22
288.715	114.17
288.93	-18.94
289.145	89.6
289.36	9.73
289.575	26.11
289.79	50.69
290.004	22.02
290.219	89.6
290.434	-18.94
290.649	5.63
290.864	24.06
291.079	99.84
291.294	73.21
291.509	-45.57
291.724	-49.66
291.938	36.35
292.153	-18.94
292.368	1.54
292.583	75.26
292.798	34.3
293.012	44.54
293.227	75.26
293.442	28.16
293.657	38.4
293.871	118.27
294.086	73.21
294.301	132.61
294.516	83.45
294.73	50.69
294.945	-37.38
295.16	13.82
295.374	7.68
295.589	58.88
295.804	-31.23
296.018	-64
296.233	46.59
296.447	30.21
296.662	34.3
296.877	71.17
297.091	62.98
297.306	26.11
297.52	83.45
297.735	65.02
297.949	69.12
298.164	67.07
298.378	7.68
298.593	-6.66
298.807	30.21
299.022	91.65
299.236	17.92
299.451	36.35
299.665	-16.9
299.88	105.98
300.094	50.69
300.309	48.64
300.523	22.02
300.737	46.59
300.952	62.98
301.166	5.63
301.381	24.06
301.595	13.82
301.809	9.73
302.024	62.98
302.238	19.97
302.452	108.03
302.667	-25.09
302.881	54.78
303.095	97.79
303.309	48.64
303.524	44.54
303.738	99.84
303.952	-14.85
304.166	81.41
304.381	-31.23
304.595	30.21
304.809	9.73
305.023	38.4
305.237	-10.75
305.452	9.73
305.666	38.4
305.88	38.4
306.094	95.74
306.308	28.16
306.522	103.93
306.736	83.45
306.95	17.92
307.164	71.17
307.379	112.13
307.593	79.36
307.807	79.36
308.021	32.26
308.235	42.5
308.449	58.88
308.663	95.74
308.877	120.32
309.091	-2.56
309.305	71.17
309.519	13.82
309.733	97.79
309.947	3.58
310.161	67.07
310.374	75.26
310.588	79.36
310.802	89.6
311.016	38.4
311.23	87.55
311.444	54.78
311.658	50.69
311.872	87.55
312.085	112.13
312.299	136.7
312.513	71.17
312.727	48.64
312.941	48.64
313.154	38.4
313.368	9.73
313.582	85.5
313.796	71.17
314.009	-25.09
314.223	54.78
314.437	58.88
314.651	50.69
314.864	28.16
315.078	30.21
315.292	1.54
315.505	46.59
315.719	105.98
315.933	89.6
316.146	38.4
316.36	42.5
316.573	146.94
316.787	71.17
317.001	24.06
317.214	-35.33
317.428	81.41
317.641	58.88
317.855	32.26
318.068	28.16
318.282	50.69
318.495	42.5
318.709	42.5
318.922	79.36
319.136	103.93
319.349	38.4
319.563	50.69
319.776	71.17
319.99	34.3
320.203	87.55
320.417	67.07
320.63	22.02
320.843	103.93
321.057	40.45
321.27	54.78
321.483	42.5
321.697	50.69
321.91	87.55
322.124	38.4
322.337	120.32
322.55	-49.66
322.763	-14.85
322.977	30.21
323.19	60.93
323.403	65.02
323.617	75.26
323.83	118.27
324.043	32.26
324.256	130.56
324.469	9.73
324.683	93.69
324.896	13.82
325.109	32.26
325.322	9.73
325.535	122.37
325.748	73.21
325.962	58.88
326.175	97.79
326.388	114.17
326.601	138.75
326.814	56.83
327.027	75.26
327.24	91.65
327.453	26.11
327.666	120.32
327.879	42.5
328.092	108.03
328.305	46.59
328.518	24.06
328.731	42.5
328.944	-2.56
329.157	97.79
329.37	42.5
329.583	144.89
329.796	140.8
330.009	24.06
330.222	130.56
330.435	146.94
330.648	138.75
330.861	71.17
331.073	-0.51
331.286	114.17
331.499	97.79
331.712	73.21
331.925	30.21
332.138	62.98
332.35	87.55
332.563	36.35
332.776	71.17
332.989	75.26
333.202	5.63
333.414	7.68
333.627	99.84
333.84	48.64
334.053	114.17
334.265	-2.56
334.478	97.79
334.691	81.41
334.903	-25.09
335.116	136.7
335.329	26.11
335.541	-10.75
335.754	50.69
335.966	24.06
336.179	22.02
336.392	32.26
336.604	60.93
336.817	89.6
337.029	65.02
337.242	-51.71
337.454	79.36
337.667	30.21
337.88	120.32
338.092	75.26
338.305	13.82
338.517	7.68
338.729	130.56
338.942	142.85
339.154	75.26
339.367	26.11
339.579	30.21
339.792	-10.75
340.004	26.11
340.217	54.78
340.429	69.12
340.641	32.26
340.854	19.97
341.066	-4.61
341.278	40.45
341.491	136.7
341.703	75.26
341.915	11.78
342.128	95.74
342.34	81.41
342.552	81.41
342.764	73.21
342.977	5.63
343.189	38.4
343.401	81.41
343.613	42.5
343.826	19.97
344.038	-18.94
344.25	71.17
344.462	1.54
344.674	54.78
344.886	34.3
345.099	30.21
345.311	93.69
345.523	54.78
345.735	40.45
345.947	-2.56
346.159	30.21
346.371	13.82
346.583	79.36
346.795	169.47
347.007	56.83
347.219	50.69
347.431	83.45
347.643	95.74
347.855	62.98
348.067	95.74
348.279	58.88
348.491	5.63
348.703	30.21
348.915	46.59
349.127	5.63
349.339	50.69
349.551	13.82
349.763	110.08
349.975	91.65
350.187	67.07
350.399	112.13
350.61	99.84
350.822	71.17
351.034	40.45
351.246	-2.56
351.458	22.02
351.669	81.41
351.881	71.17
352.093	67.07
352.305	87.55
352.517	87.55
352.728	128.51
352.94	87.55
353.152	15.87
353.363	13.82
353.575	-18.94
353.787	9.73
353.999	65.02
354.21	116.22
354.422	5.63
354.633	89.6
354.845	13.82
355.057	56.83
355.268	32.26
355.48	48.64
355.692	-4.61
355.903	38.4
356.115	1.54
356.326	36.35
356.538	97.79
356.749	38.4
356.961	110.08
357.172	58.88
357.384	22.02
357.595	126.46
357.807	34.3
358.018	40.45
358.23	136.7
358.441	110.08
358.653	79.36
358.864	32.26
359.075	22.02
359.287	52.74
359.498	103.93
359.709	9.73
359.921	48.64
360.132	71.17
360.344	71.17
360.555	26.11
360.766	116.22
360.977	97.79
361.189	50.69
361.4	89.6
361.611	171.52
361.823	103.93
362.034	62.98
362.245	-16.9
362.456	22.02
362.667	60.93
362.879	56.83
363.09	120.32
363.301	71.17
363.512	58.88
363.723	34.3
363.935	56.83
364.146	101.89
364.357	56.83
364.568	83.45
364.779	-20.99
364.99	116.22
365.201	-2.56
365.412	103.93
365.623	24.06
365.834	75.26
366.045	-16.9
366.256	112.13
366.467	67.07
366.678	136.7
366.889	95.74
367.1	-2.56
367.311	62.98
367.522	62.98
367.733	112.13
367.944	56.83
368.155	103.93
368.366	153.09
368.577	87.55
368.788	22.02
368.999	26.11
369.209	13.82
369.42	144.89
369.631	148.99
369.842	128.51
370.053	13.82
370.264	120.32
370.474	5.63
370.685	1.54
370.896	89.6
371.107	40.45
371.317	71.17
371.528	56.83
371.739	71.17
371.95	95.74
372.16	79.36
372.371	120.32
372.582	-43.52
372.792	15.87
373.003	91.65
373.214	48.64
373.424	38.4
373.635	108.03
373.846	155.13
374.056	103.93
374.267	81.41
374.477	-2.56
374.688	48.64
374.898	24.06
375.109	22.02
375.319	58.88
375.53	71.17
375.74	124.41
375.951	13.82
376.161	101.89
376.372	130.56
376.582	-10.75
376.793	38.4
377.003	30.21
377.214	56.83
377.424	103.93
377.635	103.93
377.845	-90.62
378.055	136.7
378.266	-14.85
378.476	50.69
378.686	71.17
378.897	114.17
379.107	132.61
379.317	73.21
379.528	58.88
379.738	161.28
379.948	71.17
380.158	73.21
380.369	13.82
380.579	34.3
380.789	52.74
380.999	32.26
381.21	81.41
381.42	138.75
381.63	-23.04
381.84	71.17
382.05	89.6
382.261	71.17
382.471	79.36
382.681	52.74
382.891	122.37
383.101	48.64
383.311	38.4
383.521	75.26
383.731	99.84
383.941	122.37
384.151	89.6
384.361	62.98
384.571	58.88
384.781	95.74
384.991	163.33
385.201	-4.61
385.411	146.94
385.621	79.36
385.831	30.21
386.041	67.07
386.251	87.55
386.461	95.74
386.671	26.11
386.881	128.51
387.091	75.26
387.301	28.16
387.511	46.59
387.72	71.17
387.93	65.02
388.14	-39.42
388.35	79.36
388.56	124.41
388.769	103.93
388.979	71.17
389.189	-23.04
389.399	87.55
389.609	73.21
389.818	112.13
390.028	54.78
390.238	56.83
390.447	87.55
390.657	83.45
390.867	124.41
391.076	136.7
391.286	114.17
391.496	103.93
391.705	54.78
391.915	148.99
392.125	56.83
392.334	79.36
392.544	155.13
392.753	112.13
392.963	42.5
393.172	65.02
393.382	112.13
393.591	103.93
393.801	75.26
394.01	87.55
394.22	42.5
394.429	75.26
394.639	38.4
394.848	58.88
395.058	44.54
395.267	108.03
395.477	130.56
395.686	99.84
395.895	179.71
396.105	153.09
396.314	77.31
396.524	48.64
396.733	181.76
396.942	161.28
397.152	62.98
397.361	161.28
397.57	87.55
397.78	105.98
397.989	112.13
398.198	208.38
398.407	62.98
398.617	93.69
398.826	116.22
399.035	71.17
399.244	140.8
399.453	103.93
399.663	134.65
399.872	161.28
400.081	114.17
400.29	187.9
400.499	93.69
400.708	130.56
400.917	146.94
401.127	124.41
401.336	103.93
401.545	177.66
401.754	155.13
401.963	222.72
402.172	122.37
402.381	194.05
402.59	116.22
402.799	83.45
403.008	165.37
403.217	112.13
403.426	175.61
403.635	140.8
403.844	226.81
404.053	161.28
404.262	148.99
404.471	194.05
404.68	210.43
404.888	153.09
405.097	159.23
405.306	173.57
405.515	235
405.724	171.52
405.933	169.47
406.142	224.76
406.35	198.14
406.559	185.85
406.768	271.87
406.977	286.2
407.185	230.91
407.394	181.76
407.603	194.05
407.812	218.62
408.02	304.64
408.229	286.2
408.438	226.81
408.646	243.2
408.855	278.01
409.064	251.39
409.272	265.72
409.481	392.7
409.69	357.88
409.898	392.7
410.107	402.94
410.315	415.23
410.524	333.31
410.733	411.13
410.941	447.99
411.15	468.47
411.358	376.31
411.567	476.66
411.775	431.61
411.984	423.42
412.192	548.34
412.401	521.72
412.609	601.59
412.818	634.36
413.026	572.92
413.234	501.24
413.443	546.3
413.651	615.93
413.86	595.45
414.068	802.29
414.276	757.24
414.485	769.52
414.693	689.65
414.901	820.72
415.11	749.04
415.318	722.42
415.526	841.2
415.734	851.44
415.943	843.25
416.151	941.55
416.359	908.79
416.567	931.31
416.776	1015.28
416.984	1140.21
417.192	1089.01
417.4	1150.45
417.608	1132.01
417.817	1170.93
418.025	1320.43
418.233	1455.59
418.441	1271.28
418.649	1396.2
418.857	1463.79
419.065	1498.6
419.273	1543.66
419.481	1594.86
419.689	1611.24
419.897	1687.01
420.105	1781.22
420.313	1795.56
420.521	1883.62
420.729	1918.43
420.937	1912.29
421.145	1963.49
421.353	2051.55
421.561	2258.4
421.769	2258.4
421.977	2438.62
422.185	2393.56
422.393	2407.9
422.601	2704.85
422.809	2629.08
423.017	2639.32
423.224	2803.16
423.432	2917.84
423.64	2940.37
423.848	3206.61
424.056	3102.16
424.263	3294.67
424.471	3444.17
424.679	3450.32
424.887	3556.81
425.094	3773.89
425.302	3612.1
425.51	3749.32
425.718	3827.14
425.925	3917.25
426.133	4058.56
426.341	4404.67
426.548	4527.55
426.756	4472.25
426.964	4597.18
427.171	4920.76
427.379	4904.37
427.586	5008.82
427.794	5148.08
428.001	5338.54
428.209	5668.27
428.417	5645.74
428.624	6063.52
428.832	5895.59
429.039	5993.89
429.247	5926.31
429.454	6436.25
429.662	6929.81
429.869	6428.06
430.076	6929.81
430.284	6714.78
430.491	7007.64
430.699	7345.55
430.906	7568.78
431.114	7511.44
431.321	7652.75
431.528	7992.71
431.736	8381.82
431.943	8848.76
432.15	8375.68
432.358	8467.84
432.565	9133.43
432.772	9188.72
432.979	9514.35
433.187	9696.62
433.394	9647.47
433.601	10220.9
433.808	10528.1
434.016	10337.63
434.223	10691.93
434.43	11515.22
434.637	11281.75
434.844	11851.08
435.052	12107.08
435.259	12006.73
435.466	11967.82
435.673	12285.25
435.88	12698.94
436.087	13421.88
436.294	13391.16
436.501	13315.38
436.708	13489.46
436.915	13972.78
437.122	14376.23
437.329	14255.4
437.537	15039.77
437.743	14832.93
437.95	15179.03
438.157	15709.46
438.364	16385.29
438.571	16401.67
438.778	16319.75
438.985	17749.23
439.192	17073.4
439.399	17923.31
439.606	17317.11
439.813	18177.26
440.02	19254.49
440.227	18963.68
440.433	18986.21
440.64	19403.99
440.847	19383.51
441.054	19614.93
441.261	21435.58
441.467	20778.18
441.674	21542.07
441.881	21763.25
442.088	22041.78
442.294	21796.02
442.501	22246.57
442.708	22777
442.914	23712.92
443.121	24603.78
443.328	23964.82
443.534	25902.2
443.741	25031.81
443.948	24382.6
444.154	26418.28
444.361	26328.17
444.568	26362.99
444.774	26184.82
444.981	26924.13
445.187	27253.86
445.394	28423.25
445.6	28255.31
445.807	30805.03
446.013	29537.34
446.22	30338.1
446.426	31241.25
446.633	31681.56
446.839	32490.51
447.046	31319.07
447.252	33059.85
447.459	33141.77
447.665	33063.94
447.871	34350.07
448.078	35886.04
448.284	34169.85
448.491	34941.93
448.697	36035.55
448.903	36760.53
449.11	37149.64
449.316	36590.55
449.522	37112.78
449.728	38280.12
449.935	38540.21
450.141	38675.38
450.347	39138.22
450.553	38171.58
450.76	38706.1
450.966	39730.08
451.172	39259.05
451.378	40235.93
451.584	39469.99
451.791	40481.69
451.997	40323.99
452.203	41010.06
452.409	41304.97
452.615	40917.9
452.821	39054.25
453.027	39089.07
453.233	40950.67
453.44	39293.86
453.646	39668.64
453.852	39852.96
454.058	40149.92
454.264	38896.56
454.47	40217.5
454.676	39037.87
454.882	40534.93
455.088	36967.37
455.294	37381.06
455.5	38007.74
455.705	38304.7
455.911	37256.14
456.117	36164.57
456.323	36094.94
456.529	33758.2
456.735	35337.19
456.941	34219
457.147	33852.41
457.352	32660.49
457.558	32640.01
457.764	32410.64
457.97	31826.97
458.176	30876.71
458.381	31319.07
458.587	29498.43
458.793	29350.98
458.999	28265.55
459.204	29912.12
459.41	29580.35
459.616	27221.09
459.821	27501.66
460.027	27380.83
460.233	26545.26
460.438	25400.44
460.644	25566.33
460.85	24628.36
461.055	24087.7
461.261	24016.02
461.466	22248.62
461.672	21503.16
461.878	22817.96
462.083	21521.59
462.289	21198.01
462.494	20808.9
462.7	19952.85
462.905	19393.75
463.111	19918.03
463.316	19985.62
463.522	19836.11
463.727	19447
463.932	19592.41
464.138	19354.84
464.343	19512.53
464.549	19047.65
464.754	19492.05
464.959	19340.5
465.165	19483.86
465.37	18351.34
465.575	18136.3
465.781	18650.34
465.986	18660.58
466.191	17984.75
466.397	17726.71
466.602	16655.62
466.807	17581.3
467.012	17245.43
467.218	17345.78
467.423	17077.5
467.628	17134.84
467.833	18162.92
468.038	16952.57
468.244	16563.46
468.449	17208.57
468.654	16614.66
468.859	16370.95
469.064	16160.01
469.269	15981.84
469.474	15955.21
469.679	16475.4
469.885	15824.14
470.09	15918.35
470.295	15693.07
470.5	15519
470.705	15758.61
470.91	15162.65
471.115	15193.37
471.32	15195.42
471.525	15258.9
471.73	14937.37
471.935	14685.47
472.139	14208.3
472.344	14359.84
472.549	14447.91
472.754	13980.97
472.959	13888.81
473.164	13540.66
473.369	13516.08
473.574	13780.27
473.778	13708.59
473.983	13565.23
474.188	13727.02
474.393	13040.95
474.598	13219.13
474.802	12999.99
475.007	12741.95
475.212	12703.04
475.417	12277.06
475.621	12551.49
475.826	12555.58
476.031	12209.48
476.235	11992.39
476.44	12152.13
476.645	11834.7
476.849	12025.16
477.054	11797.84
477.259	11646.29
477.463	11580.75
477.668	11347.28
477.872	11537.74
478.077	11167.06
478.282	10904.92
478.486	10974.55
478.691	10769.76
478.895	10900.83
479.1	10790.24
479.304	10593.63
479.509	10407.27
479.713	10646.88
479.918	10231.14
480.122	10122.6
480.326	10564.96
480.531	10433.89
480.735	10235.24
480.94	10259.81
481.144	10388.83
481.348	10020.2
481.553	10012.01
481.757	9913.7
481.961	10108.26
482.166	9983.34
482.37	10118.5
482.574	9829.74
482.778	9944.42
482.983	9895.27
483.187	9887.08
483.391	9981.29
483.595	9559.41
483.8	9631.09
484.004	9776.49
484.208	9880.94
484.412	9811.31
484.616	9923.94
484.821	10036.58
485.025	9756.01
485.229	10175.84
485.433	9854.31
485.637	10065.25
485.841	9848.17
486.045	9700.72
486.249	9954.66
486.453	9684.33
486.657	9901.42
486.861	9919.85
487.065	9500.02
487.269	9880.94
487.473	9614.7
487.677	9731.44
487.881	9899.37
488.085	9848.17
488.289	9844.07
488.493	9782.63
488.697	9852.27
488.901	9764.2
489.105	9880.94
489.309	9674.09
489.512	9819.5
489.716	9764.2
489.92	9837.93
490.124	9913.7
490.328	9909.61
490.531	9850.22
490.735	10018.15
490.939	9958.76
491.143	9950.57
491.346	10157.41
491.55	10089.83
491.754	10138.98
491.958	10118.5
492.161	9952.62
492.365	10206.56
492.569	10175.84
492.772	10190.18
492.976	10100.07
493.18	10179.94
493.383	10354.02
493.587	10427.74
493.79	10440.03
493.994	10329.44
494.197	10415.46
494.401	10558.81
494.605	10724.7
494.808	11074.9
495.012	10904.92
495.215	11068.76
495.419	10933.59
495.622	10911.07
495.825	10986.84
496.029	11017.56
496.232	11474.26
496.436	11083.09
496.639	11550.03
496.843	11507.02
497.046	11441.49
497.249	11707.73
497.453	11689.29
497.656	11687.25
497.859	11941.19
498.063	12035.4
498.266	12301.64
498.469	12301.64
498.673	12211.53
498.876	12455.23
499.079	12526.91
499.282	12913.98
499.485	12899.64
499.689	13034.81
499.892	13247.8
500.095	12963.13
500.298	13477.17
500.501	13489.46
500.705	13565.23
500.908	13636.91
501.111	14064.94
501.314	14069.03
501.517	14224.68
501.72	14409
501.923	14478.63
502.126	14591.27
502.329	14880.03
502.532	14794.01
502.735	14980.38
502.938	15246.62
503.141	15275.29
503.344	15475.99
503.547	15447.32
503.75	15793.42
503.953	16121.1
504.156	16207.11
504.359	16393.48
504.562	16430.34
504.765	16557.32
504.968	16860.41
505.17	16915.71
505.373	16897.28
505.576	17399.03
505.779	17382.65
505.982	17487.09
506.185	17847.54
506.387	17851.63
506.59	18089.2
506.793	18330.86
506.996	18089.2
507.198	18803.94
507.401	18652.39
507.604	18898.14
507.807	19057.89
508.009	19412.18
508.212	19240.15
508.415	19731.67
508.617	19866.83
508.82	20237.52
509.022	20133.07
509.225	20675.78
509.428	20765.89
509.63	20634.82
509.833	20657.35
510.035	21460.15
510.238	21292.22
510.44	21562.55
510.643	21898.42
510.845	22281.39
511.048	22064.3
511.25	22346.92
511.453	22322.35
511.655	23155.87
511.858	22733.99
512.06	23057.57
512.262	23702.68
512.465	23606.42
512.667	23653.53
512.87	23788.69
513.072	24095.89
513.274	24421.52
513.477	24863.88
513.679	24831.11
513.881	25261.18
514.084	25781.37
514.286	25293.95
514.488	25451.64
514.69	26246.26
514.893	26225.78
515.095	26430.57
515.297	26731.62
515.499	26612.84
515.701	27155.55
515.904	27425.89
516.106	27554.91
516.308	27579.48
516.51	28001.36
516.712	28066.9
516.914	28460.11
517.116	28904.52
517.318	28826.7
517.52	29117.51
517.722	28908.61
517.925	29543.49
518.127	29824.06
518.329	29611.07
518.531	29729.85
518.733	30262.32
518.935	30653.48
519.136	30538.8
519.338	31185.96
519.54	30983.21
519.742	31329.31
519.944	31525.92
520.146	31835.16
520.348	32132.12
520.55	32195.6
520.752	31831.07
520.954	32531.47
521.155	32558.1
521.357	33084.42
521.559	33299.46
521.761	33555.46
521.963	33317.89
522.164	33532.93
522.366	33330.18
522.568	33778.68
522.77	33852.41
522.971	34370.55
523.173	34262.01
523.375	34644.98
523.576	34221.05
523.778	34589.68
523.98	35167.21
524.181	34843.63
524.383	35310.57
524.584	34909.16
524.786	35275.75
524.988	35378.15
525.189	35541.99
525.391	35748.83
525.592	35720.16
525.794	35767.26
525.995	35646.43
526.197	35851.23
526.398	35937.24
526.6	36021.21
526.801	36232.15
527.003	36187.1
527.204	36080.6
527.406	36565.97
527.607	36015.07
527.808	36469.72
528.01	35990.49
528.211	36254.68
528.412	37000.14
528.614	36815.82
528.815	36672.46
529.016	36854.73
529.218	36285.4
529.419	36357.08
529.62	36694.99
529.822	35974.11
530.023	36559.83
530.224	36805.58
530.425	36422.61
530.626	36709.33
530.828	36105.18
531.029	36756.43
531.23	36393.94
531.431	36436.95
531.632	36580.31
531.833	36586.45
532.035	36361.17
532.236	36502.48
532.437	36711.38
532.638	36352.98
532.839	36406.23
533.04	36787.15
533.241	36209.62
533.442	36561.87
533.643	36527.06
533.844	36129.75
534.045	36379.6
534.246	35861.47
534.447	36170.71
534.648	36260.82
534.849	35879.9
535.05	35912.67
535.251	36234.2
535.451	35726.3
535.652	35773.41
535.853	35587.04
536.054	36219.86
536.255	35779.55
536.456	35427.3
536.657	36023.26
536.857	35982.3
537.058	35345.38
537.259	35765.21
537.46	35867.61
537.66	35433.44
537.861	35351.52
538.062	35056.62
538.263	35218.41
538.463	35349.48
538.664	35050.47
538.865	35486.69
539.065	35351.52
539.266	34888.68
539.466	35228.65
539.667	34862.06
539.868	35019.75
540.068	35023.85
540.269	34956.27
540.469	35007.47
540.67	34941.93
540.87	35116.01
541.071	34892.78
541.271	34925.55
541.472	35163.11
541.672	34581.49
541.873	34448.37
542.073	34620.4
542.274	35163.11
542.474	34456.56
542.675	34599.92
542.875	34868.2
543.075	34827.24
543.276	34323.44
543.476	34890.73
543.676	34503.67
543.877	34892.78
544.077	34860.01
544.277	34540.53
544.478	34479.09
544.678	34552.82
544.878	34817
545.078	34546.67
545.279	34479.09
545.479	34497.52
545.679	34583.54
545.879	34601.97
546.079	34679.79
546.28	34374.64
546.48	34018.3
546.68	34499.57
546.88	34470.9
547.08	34298.87
547.28	34599.92
547.48	34206.71
547.68	34270.2
547.88	34409.46
548.081	34632.69
548.281	34581.49
548.481	34319.35
548.681	34624.5
548.881	34591.73
549.081	34173.94
549.28	33903.61
549.48	34812.91
549.68	34434.03
549.88	35111.91
550.08	34335.73
550.28	34720.75
550.48	34628.59
550.68	34728.94
550.88	34503.67
551.08	34673.65
551.279	35107.82
551.479	34792.43
551.679	34667.5
551.879	34587.63
552.079	34630.64
552.278	34569.2
552.478	35105.77
552.678	34894.83
552.878	35075.05
553.077	34497.52
553.277	34739.18
553.477	35353.57
553.676	34808.81
553.876	34833.39
554.076	34794.48
554.275	34882.54
554.475	34427.89
554.674	34696.17
554.874	34587.63
555.074	34870.25
555.273	35023.85
555.473	35150.82
555.672	34792.43
555.872	34761.71
556.071	35017.71
556.271	35259.37
556.47	34995.18
556.67	34690.03
556.869	35101.67
557.068	35128.3
557.268	34575.34
557.467	34823.15
557.667	34933.74
557.866	34712.56
558.065	34984.94
558.265	34948.07
558.464	34970.6
558.663	35554.27
558.863	34935.79
559.062	35650.53
559.261	34952.17
559.461	35060.71
559.66	34423.79
559.859	35304.42
560.058	35154.92
560.258	35318.76
560.457	34290.68
560.656	35062.76
560.855	35044.33
561.054	34704.37
561.253	34966.51
561.453	35023.85
561.652	35163.11
561.851	35134.44
562.05	34827.24
562.249	34737.13
562.448	35222.5
562.647	35159.02
562.846	34898.92
563.045	34999.27
563.244	34565.1
563.443	35320.81
563.642	34329.59
563.841	35259.37
564.04	34444.27
564.239	35163.11
564.438	34567.15
564.637	34624.5
564.836	34978.79
565.035	34687.98
565.234	34696.17
565.432	34612.21
565.631	34257.91
565.83	34470.9
566.029	34337.78
566.228	34401.27
566.427	34219
566.625	33803.26
566.824	33895.42
567.023	34280.44
567.222	33780.73
567.42	34401.27
567.619	33821.69
567.818	33997.82
568.016	33950.71
568.215	33868.8
568.414	33696.77
568.612	34188.28
568.811	33422.34
569.01	33702.91
569.208	33430.53
569.407	33862.65
569.605	33217.54
569.804	33606.66
570.002	33268.74
570.201	33235.97
570.4	32979.98
570.598	33025.03
570.797	33053.7
570.995	32480.27
571.193	32541.71
571.392	32881.67
571.59	32386.07
571.789	32807.95
571.987	32349.2
572.186	32402.45
572.384	32304.15
572.582	32447.5
572.781	32472.08
572.979	32013.34
573.177	32601.1
573.376	32183.32
573.574	31947.8
573.772	32191.51
573.971	31380.51
574.169	31704.09
574.367	31394.85
574.565	32039.96
574.763	31894.55
574.962	31476.77
575.16	31511.58
575.358	31290.4
575.556	30966.82
575.754	31206.44
575.952	30768.17
576.151	30882.86
576.349	30557.23
576.547	30983.21
576.745	30868.52
576.943	30506.03
577.141	30676.01
577.339	30823.47
577.537	30348.34
577.735	30381.1
577.933	30297.14
578.131	30190.64
578.329	29852.73
578.527	29858.87
578.725	30108.72
578.923	30112.82
579.121	29789.24
579.319	29369.41
579.516	29815.87
579.714	29541.44
579.912	29410.37
580.11	29547.58
580.308	29178.95
580.506	29226.05
580.704	28656.71
580.901	29355.07
581.099	29217.86
581.297	28707.91
581.495	28669
581.692	28968.01
581.89	28548.17
582.088	29068.36
582.285	28396.62
582.483	28568.65
582.681	28445.77
582.878	28413.01
583.076	28079.19
583.274	28187.73
583.471	27622.49
583.669	27970.65
583.866	28017.75
584.064	28191.83
584.262	27677.79
584.459	28003.41
584.657	27577.44
584.854	28011.6
585.052	27485.28
585.249	27808.86
585.447	27624.54
585.644	27303.01
585.841	27604.06
586.039	27597.91
586.236	26989.67
586.434	27253.86
586.631	26981.48
586.828	27087.97
587.026	27032.68
587.223	26850.41
587.42	27151.46
587.618	26799.21
587.815	26764.39
588.012	26502.25
588.21	26520.68
588.407	27108.45
588.604	26834.02
588.801	26227.82
588.999	26623.08
589.196	26346.61
589.393	26164.34
589.59	26360.94
589.787	26270.83
589.984	26113.14
590.182	25820.28
590.379	26084.47
590.576	25957.49
590.773	25855.09
590.97	26012.79
591.167	25986.16
591.364	25638.01
591.561	25621.63
591.758	25844.85
591.955	25908.34
592.152	25433.21
592.349	25367.68
592.546	25478.27
592.743	25834.61
592.94	25252.99
593.137	25572.47
593.334	25621.63
593.531	25275.52
593.727	25392.25
593.924	25252.99
594.121	25185.41
594.318	25146.5
594.515	24818.82
594.712	25345.15
594.908	25140.35
595.105	25328.77
595.302	25150.59
595.499	25236.61
595.696	24882.31
595.892	24693.9
596.089	25019.52
596.286	24992.9
596.482	24829.06
596.679	24951.94
596.876	24767.62
597.072	24800.39
597.269	25181.31
597.466	24722.57
597.662	24755.33
597.859	24859.78
598.055	24827.01
598.252	24468.62
598.448	24800.39
598.645	24777.86
598.841	24710.28
599.038	24470.67
599.234	24677.51
599.431	24380.56
599.627	24708.23
599.824	24958.08
600.02	24730.76
600.217	24628.36
600.413	24599.69
600.609	24566.92
600.806	24401.04
601.002	24648.84
601.198	24687.75
601.395	24581.26
601.591	24636.55
601.787	24628.36
601.984	24444.04
602.18	24706.18
602.376	24335.5
602.572	24888.45
602.769	25007.23
602.965	24564.87
603.161	24792.2
603.357	24482.95
603.553	24609.93
603.75	25107.58
603.946	24687.75
604.142	24650.89
604.338	24450.19
604.534	24616.07
604.73	24540.3
604.926	24609.93
605.122	24466.57
605.318	24587.4
605.514	25005.19
605.71	24587.4
605.906	24712.33
606.102	24990.85
606.298	24941.7
606.494	25070.72
606.69	24724.61
606.886	25320.57
607.082	24575.11
607.278	24956.04
607.474	24691.85
607.67	24939.65
607.866	24577.16
608.062	25259.13
608.257	24630.41
608.453	25015.43
608.649	25009.28
608.845	25080.96
609.041	25113.73
609.236	25310.33
609.432	25025.67
609.628	24849.54
609.824	25138.3
610.019	24939.65
610.215	25298.05
610.411	25445.5
610.606	25148.54
610.802	25511.03
610.998	25242.75
611.193	25392.25
611.389	25257.09
611.584	25511.03
611.78	25685.11
611.976	25619.58
612.171	25343.1
612.367	25422.97
612.562	25349.25
612.758	25441.4
612.953	25449.6
613.149	25617.53
613.344	25296
613.539	26168.43
613.735	25367.68
613.93	25705.59
614.126	25484.41
614.321	25570.43
614.517	25709.69
614.712	25713.78
614.907	25685.11
615.103	25658.49
615.298	25394.3
615.493	25824.37
615.688	25336.96
615.884	26344.56
616.079	25613.43
616.274	25777.27
616.47	25631.86
616.665	25339.01
616.86	25576.57
617.055	25472.12
617.25	25629.82
617.445	25711.74
617.641	25400.44
617.836	25748.6
618.031	25074.82
618.226	25625.72
618.421	25107.58
618.616	25683.06
618.811	24775.81
619.006	25515.13
619.201	24917.12
619.396	25134.21
619.591	24734.85
619.786	25095.3
619.981	24648.84
620.176	25029.76
620.371	24534.15
620.566	24835.21
620.761	24824.97
620.956	24661.13
621.151	24327.31
621.346	24675.46
621.541	24206.48
621.735	24568.97
621.93	24140.94
622.125	24128.66
622.32	23690.39
622.515	23921.81
622.709	23841.94
622.904	23893.14
623.099	23585.94
623.294	23495.83
623.488	23141.53
623.683	23397.53
623.878	23295.13
624.072	23108.77
624.267	22981.79
624.462	22926.5
624.656	22625.45
624.851	22965.41
625.046	22623.4
625.24	22459.56
625.435	22287.53
625.629	22504.62
625.824	22211.76
626.018	22262.96
626.213	21771.44
626.407	22045.87
626.602	21753.01
626.796	22015.15
626.991	21728.44
627.185	21505.21
627.38	21361.85
627.574	21324.99
627.768	21036.22
627.963	21064.89
628.157	21128.38
628.352	20925.63
628.546	20726.98
628.74	21095.61
628.935	20546.76
629.129	20962.5
629.323	20274.38
629.517	20552.9
629.712	20268.23
629.906	20063.44
630.1	19838.16
630.294	20051.15
630.489	19913.94
630.683	20045.01
630.877	19760.34
631.071	19451.1
631.265	19606.74
631.459	19500.25
631.653	19381.46
631.848	19281.11
632.042	19264.73
632.236	19453.14
632.43	19039.45
632.624	18773.22
632.818	18947.29
633.012	18617.57
633.206	18822.37
633.4	18535.65
633.594	18486.5
633.788	18296.04
633.982	18291.94
634.176	18394.34
634.369	17904.88
634.563	18111.72
634.757	17968.37
634.951	17984.75
635.145	17773.81
635.339	17624.31
635.533	17458.42
635.726	17593.59
635.92	17288.44
636.114	17288.44
636.308	17159.42
636.501	17011.96
636.695	17093.88
636.889	16901.37
637.083	16801.02
637.276	16616.71
637.47	16411.91
637.664	16475.4
637.857	16659.71
638.051	16256.26
638.244	16123.15
638.438	16375.05
638.632	16200.97
638.825	15973.64
639.019	16137.48
639.212	15695.12
639.406	15830.29
639.599	15523.09
639.793	15791.38
639.986	15088.92
640.18	15308.05
640.373	15363.35
640.567	15076.63
640.76	15158.55
640.954	14935.32
641.147	15123.74
641.34	14611.75
641.534	14771.49
641.727	14796.06
641.92	14677.28
642.114	14499.11
642.307	14288.17
642.5	14423.33
642.694	14095.66
642.887	14017.83
643.08	14196.01
643.273	14142.76
643.467	13956.4
643.66	13862.19
643.853	13841.71
644.046	13516.08
644.239	13817.13
644.432	13475.12
644.626	13217.08
644.819	13366.58
645.012	13296.95
645.205	13251.89
645.398	13251.89
645.591	12891.45
645.784	12936.51
645.977	12827.96
646.17	12690.75
646.363	12801.34
646.556	12420.42
646.749	12508.48
646.942	12547.39
647.135	12412.23
647.328	12070.22
647.521	12381.51
647.714	12158.28
647.907	12197.19
648.099	12100.94
648.292	12006.73
648.485	12039.5
648.678	11771.21
648.871	11795.79
649.064	11523.41
649.256	11787.6
649.449	11447.63
649.642	11552.08
649.835	11449.68
650.027	11359.57
650.22	11392.34
650.413	11203.93
650.605	11212.12
650.798	11191.64
650.991	11203.93
651.183	11136.34
651.376	10812.76
651.568	10984.79
651.761	10943.83
651.954	11085.14
652.146	10708.32
652.339	10716.51
652.531	10601.82
652.724	10505.57
652.916	10515.81
653.109	10442.08
653.301	10374.5
653.494	10429.79
653.686	10237.28
653.879	10376.55
654.071	10081.64
654.263	10196.32
654.456	10073.45
654.648	10114.41
654.84	9932.14
655.033	9928.04
655.225	10102.12
655.417	9911.66
655.61	9805.16
655.802	9860.46
655.994	9549.17
656.186	9614.7
656.379	9553.26
656.571	9475.44
656.763	9473.39
656.955	9287.03
657.148	9303.41
657.34	9444.72
657.532	9327.99
657.724	9198.96
657.916	9311.6
658.108	9168.24
658.3	9182.58
658.492	8969.59
658.684	8932.73
658.876	8861.05
659.068	9065.85
659.26	8811.9
659.452	8775.03
659.644	8842.62
659.836	8729.98
660.028	8625.53
660.22	8533.37
660.412	8422.78
660.604	8476.03
660.796	8435.07
660.988	8330.62
661.18	8394.11
661.372	8273.28
661.563	8367.49
661.755	7927.18
661.947	8322.43
662.139	8103.3
662.331	8052.1
662.522	7964.04
662.714	7929.22
662.906	7941.51
663.097	7910.79
663.289	7599.5
663.481	7722.38
663.673	7703.95
663.864	7910.79
664.056	7724.43
664.247	7662.99
664.439	7521.68
664.631	7386.51
664.822	7669.13
665.014	7372.18
665.205	7490.96
665.397	7249.3
665.588	7517.58
665.78	7239.06
665.971	7267.73
666.163	7132.56
666.354	7288.21
666.546	7134.61
666.737	6946.2
666.929	7110.04
667.12	7042.45
667.311	6913.43
667.503	6716.83
667.694	6860.18
667.885	6741.4
668.077	7013.78
668.268	6770.07
668.459	6755.74
668.651	6636.95
668.842	6792.6
669.033	6806.94
669.224	6561.18
669.416	6714.78
669.607	6788.5
669.798	6405.53
669.989	6606.24
670.18	6516.12
670.371	6493.6
670.563	6464.93
670.754	6415.77
670.945	6542.75
671.136	6530.46
671.327	6290.85
671.518	6206.88
671.709	6288.8
671.9	6239.65
672.091	6296.99
672.282	6337.95
672.473	6182.31
672.664	6256.03
672.855	6219.17
673.046	6153.63
673.237	6321.57
673.428	6280.61
673.619	6274.46
673.809	6145.44
674	6348.19
674.191	6104.48
674.382	6079.91
674.573	5932.45
674.764	5965.22
674.954	5997.99
675.145	5852.58
675.336	5940.65
675.527	5838.25
675.717	5946.79
675.908	5928.36
676.099	5780.9
676.289	5891.49
676.48	5768.62
676.671	5856.68
676.861	5815.72
677.052	5674.41
677.243	5698.99
677.433	5735.85
677.624	5866.92
677.814	5623.21
678.005	5830.06
678.195	5821.86
678.386	5752.23
678.576	5479.85
678.767	5741.99
678.957	5682.6
679.148	5684.65
679.338	5682.6
679.529	5746.09
679.719	5543.34
679.909	5690.79
680.1	5658.03
680.29	5559.72
680.481	5475.76
680.671	5660.07
680.861	5545.39
681.052	5592.49
681.242	5653.93
681.432	5709.22
681.622	5463.47
681.813	5412.27
682.003	5543.34
682.193	5494.19
682.383	5504.43
682.573	5576.11
682.764	5324.21
682.954	5365.17
683.144	5576.11
683.334	5389.74
683.524	5432.75
683.714	5459.37
683.904	5322.16
684.094	5412.27
684.284	5479.85
684.474	5494.19
684.664	5412.27
684.854	5297.58
685.044	5488.04
685.234	5301.68
685.424	5244.34
685.614	5232.05
685.804	5316.01
685.994	5199.28
686.184	5395.89
686.374	5219.76
686.564	5100.98
686.753	5043.64
686.943	5182.9
687.133	5158.32
687.323	5103.03
687.513	5174.71
687.702	5182.9
687.892	5234.1
688.082	5148.08
688.272	5076.4
688.461	5010.87
688.651	5166.51
688.841	5143.99
689.03	4986.29
689.22	4988.34
689.41	5064.11
689.599	5027.25
689.789	4953.52
689.979	5125.55
690.168	5045.68
690.358	5021.11
690.547	4871.61
690.737	4877.75
690.926	4871.61
691.116	4748.73
691.305	4892.09
691.495	4687.29
691.684	4801.97
691.874	4838.84
692.063	4836.79
692.252	4767.16
692.442	4855.22
692.631	4656.57
692.82	4681.14
693.01	4644.28
693.199	4617.66
693.388	4578.75
693.578	4679.1
693.767	4761.02
693.956	4631.99
694.146	4513.21
694.335	4631.99
694.524	4631.99
694.713	4609.47
694.902	4627.9
695.092	4650.43
695.281	4515.26
695.47	4560.31
695.659	4537.79
695.848	4521.4
696.037	4478.4
696.226	4629.95
696.415	4537.79
696.604	4605.37
696.793	4453.82
696.982	4609.47
697.171	4453.82
697.36	4621.75
697.549	4244.93
697.738	4459.96
697.927	4355.52
698.116	4386.24
698.305	4294.08
698.494	4429.24
698.683	4445.63
698.872	4390.33
699.061	4304.32
699.25	4511.16
699.438	4253.12
699.627	4425.15
699.816	4285.89
700.005	4357.57
700.193	4185.54
700.382	4279.74
700.571	4210.11
700.76	4251.07
700.948	4208.06
701.137	4203.97
701.326	4240.83
701.514	4257.22
701.703	4242.88
701.892	4208.06
702.08	4273.6
702.269	4193.73
702.457	4029.89
702.646	4070.85
702.834	4066.75
703.023	4261.31
703.212	4076.99
703.4	3962.31
703.589	3988.93
703.777	4064.71
703.965	4056.51
704.154	4120
704.342	4120
704.531	3929.54
704.719	3904.96
704.907	4036.03
705.096	4044.23
705.284	4128.19
705.472	4036.03
705.661	3894.72
705.849	4023.75
706.037	4003.27
706.226	3827.14
706.414	3937.73
706.602	3872.2
706.79	3919.3
706.979	3872.2
707.167	3878.34
707.355	3864.01
707.543	3720.65
707.731	3939.78
707.919	3751.37
708.107	3755.46
708.296	3798.47
708.484	3757.51
708.672	3741.13
708.86	3745.22
709.048	3743.17
709.236	3751.37
709.424	3716.55
709.612	3687.88
709.8	3706.31
709.988	3702.22
710.176	3716.55
710.364	3663.3
710.551	3612.1
710.739	3593.67
710.927	3538.38
711.115	3556.81
711.303	3630.54
711.491	3595.72
711.679	3538.38
711.866	3540.43
712.054	3579.34
712.242	3622.34
712.43	3716.55
712.617	3485.13
712.805	3493.32
712.993	3478.99
713.181	3397.07
713.368	3583.43
713.556	3472.84
713.744	3372.49
713.931	3438.03
714.119	3397.07
714.306	3343.82
714.494	3282.38
714.682	3495.37
714.869	3278.29
715.057	3511.75
715.244	3270.09
715.432	3446.22
715.619	3392.97
715.807	3409.36
715.994	3429.84
716.182	3339.73
716.369	3335.63
716.556	3302.86
716.744	3345.87
716.931	3302.86
717.119	3306.96
717.306	3257.81
717.493	3233.23
717.681	3218.89
717.868	3225.04
718.055	3290.57
718.242	3327.44
718.43	3053.01
718.617	3200.46
718.804	3096.02
718.991	3126.74
719.179	3257.81
719.366	3171.79
719.553	3210.7
719.74	3151.31
719.927	3179.98
720.114	3063.25
720.301	3046.87
720.488	3044.82
720.676	3128.78
720.863	3280.33
721.05	3106.26
721.237	2991.57
721.424	3134.93
721.611	2991.57
721.798	2942.42
721.985	3005.91
722.172	2962.9
722.358	2993.62
722.545	2790.87
722.732	2930.13
722.919	3153.36
723.106	3036.63
723.293	3048.91
723.48	2938.32
723.667	2979.28
723.853	2842.07
724.04	2997.71
724.227	2983.38
724.414	2915.8
724.6	2885.08
724.787	3001.81
724.974	2909.65
725.161	2815.45
725.347	2817.49
725.534	2827.73
725.72	2751.96
725.907	2790.87
726.094	2860.5
726.28	2778.58
726.467	2717.14
726.653	2868.69
726.84	2770.39
727.027	2815.45
727.213	2817.49
727.4	2676.18
727.586	2815.45
727.773	2872.79
727.959	2635.22
728.145	2760.15
728.332	2872.79
728.518	2688.47
728.705	2639.32
728.891	2852.31
729.077	2770.39
729.264	2696.66
729.45	2641.37
729.636	2809.3
729.823	2678.23
730.009	2678.23
730.195	2639.32
730.382	2719.19
730.568	2663.9
730.754	2672.09
730.94	2479.58
731.126	2670.04
731.313	2717.14
731.499	2487.77
731.685	2745.81
731.871	2643.42
732.057	2553.31
732.243	2653.66
732.429	2653.66
732.615	2690.52
732.801	2686.42
732.987	2643.42
733.173	2567.64
733.359	2467.29
733.545	2598.36
733.731	2514.39
733.917	2676.18
734.103	2530.78
734.289	2530.78
734.475	2520.54
734.661	2618.84
734.847	2569.69
735.033	2520.54
735.219	2536.92
735.404	2455
735.59	2446.81
735.776	2409.95
735.962	2485.72
736.148	2479.58
736.333	2569.69
736.519	2446.81
736.705	2422.24
736.89	2489.82
737.076	2358.75
737.262	2547.16
737.447	2389.47
737.633	2358.75
737.819	2452.95
738.004	2430.43
738.19	2446.81
738.375	2416.09
738.561	2418.14
738.747	2332.12
738.932	2309.6
739.118	2303.45
739.303	2444.76
739.489	2428.38
739.674	2260.45
739.859	2194.91
740.045	2362.84
740.23	2201.05
740.416	2268.64
740.601	2289.12
740.786	2297.31
740.972	2176.48
741.157	2156
741.342	2282.97
741.528	2162.14
741.713	2287.07
741.898	2190.81
742.084	2188.77
742.269	2145.76
742.454	2192.86
742.639	2266.59
742.824	2225.63
743.01	2192.86
743.195	2168.29
743.38	2119.14
743.565	2184.67
743.75	2119.14
743.935	2166.24
744.12	2168.29
744.305	1983.97
744.49	2069.98
744.675	2086.37
744.86	2131.42
745.045	2045.41
745.23	2059.74
745.415	1965.54
745.6	1988.07
745.785	1924.58
745.97	2065.89
746.155	1938.91
746.34	2031.07
746.525	1877.48
746.71	2039.26
746.895	1881.57
747.079	1897.96
747.264	2014.69
747.449	1857
747.634	1854.95
747.819	1881.57
748.003	1762.79
748.188	1766.89
748.373	1777.12
748.557	1799.65
748.742	1809.89
748.927	1766.89
749.111	1889.76
749.296	1830.37
749.481	1795.56
749.665	1648.1
749.85	1750.5
750.034	1801.7
750.219	1652.2
750.404	1680.87
750.588	1764.84
750.773	1594.86
750.957	1750.5
751.141	1684.97
751.326	1695.21
751.51	1652.2
751.695	1521.13
751.879	1619.43
752.064	1689.06
752.248	1537.51
752.432	1623.53
752.617	1523.18
752.801	1543.66
752.985	1564.14
753.17	1695.21
753.354	1506.79
753.538	1435.11
753.722	1508.84
753.907	1490.41
754.091	1570.28
754.275	1478.12
754.459	1482.22
754.643	1428.97
754.828	1435.11
755.012	1418.73
755.196	1490.41
755.38	1433.07
755.564	1365.48
755.748	1390.06
755.932	1476.07
756.116	1394.15
756.3	1365.48
756.484	1353.2
756.668	1474.03
756.852	1390.06
757.036	1250.8
757.22	1275.37
757.404	1345
757.588	1299.95
757.772	1228.27
757.956	1261.04
758.14	1320.43
758.323	1220.08
758.507	1293.8
758.691	1283.56
758.875	1324.52
759.059	1275.37
759.242	1281.52
759.426	1189.36
759.61	1160.69
759.794	1252.84
759.977	1326.57
760.161	1332.72
760.345	1271.28
760.528	1234.41
760.712	1236.46
760.895	1215.98
761.079	1199.6
761.263	1150.45
761.446	996.85
761.63	1074.67
761.813	1129.97
761.997	1013.23
762.18	1166.83
762.364	1213.93
762.547	1056.24
762.731	1146.35
762.914	1129.97
763.098	1005.04
763.281	1054.19
763.464	1091.06
763.648	1086.96
763.831	1086.96
764.015	1007.09
764.198	1046
764.381	1086.96
764.564	1072.62
764.748	1035.76
764.931	1107.44
765.114	986.61
765.297	1111.54
765.481	927.22
765.664	1015.28
765.847	1021.42
766.03	1097.2
766.213	941.55
766.397	1013.23
766.58	919.03
766.763	884.21
766.946	914.93
767.129	996.85
767.312	1005.04
767.495	998.9
767.678	982.51
767.861	982.51
768.044	919.03
768.227	882.16
768.41	896.5
768.593	964.08
768.776	1039.86
768.959	923.12
769.142	939.51
769.324	964.08
769.507	972.27
769.69	890.35
769.873	914.93
770.056	996.85
770.239	908.79
770.421	941.55
770.604	902.64
770.787	914.93
770.97	839.16
771.152	890.35
771.335	957.94
771.518	849.4
771.7	867.83
771.883	941.55
772.066	808.44
772.248	792.05
772.431	947.7
772.613	867.83
772.796	882.16
772.978	857.59
773.161	824.82
773.343	818.68
773.526	783.86
773.708	738.8
773.891	851.44
774.073	814.58
774.256	796.15
774.438	808.44
774.621	751.09
774.803	851.44
774.985	792.05
775.168	812.53
775.35	775.67
775.532	761.33
775.715	697.85
775.897	837.11
776.079	761.33
776.261	800.24
776.444	728.56
776.626	751.09
776.808	695.8
776.99	685.56
777.173	656.89
777.355	673.27
777.537	656.89
777.719	693.75
777.901	656.89
778.083	695.8
778.265	577.02
778.447	734.71
778.629	564.73
778.811	703.99
778.993	603.64
779.175	755.19
779.357	693.75
779.539	648.69
779.721	630.26
779.903	644.6
780.085	638.45
780.267	644.6
780.449	648.69
780.631	589.3
780.812	644.6
780.994	572.92
781.176	591.35
781.358	564.73
781.54	587.26
781.721	656.89
781.903	611.83
782.085	564.73
782.267	558.58
782.448	480.76
782.63	501.24
782.812	638.45
782.993	595.45
783.175	527.86
783.357	521.72
783.538	568.82
783.72	546.3
783.901	538.1
784.083	491
784.264	507.38
784.446	572.92
784.627	441.85
784.809	570.87
784.99	480.76
785.172	468.47
785.353	507.38
785.535	613.88
785.716	495.1
785.897	529.91
786.079	441.85
786.26	491
786.441	429.56
786.623	441.85
786.804	486.9
786.985	464.38
787.167	447.99
787.348	394.75
787.529	466.42
787.71	435.71
787.891	472.57
788.073	472.57
788.254	386.55
788.435	447.99
788.616	378.36
788.797	447.99
788.978	417.27
789.159	390.65
789.34	429.56
789.522	376.31
789.703	431.61
789.884	472.57
790.065	417.27
790.246	441.85
790.427	341.5
790.607	447.99
790.788	415.23
790.969	284.16
791.15	439.8
791.331	359.93
791.512	327.16
791.693	325.12
791.874	343.55
792.054	466.42
792.235	407.03
792.416	361.98
792.597	359.93
792.778	335.35
792.958	378.36
793.139	359.93
793.32	300.54
793.5	329.21
793.681	439.8
793.862	382.46
794.042	284.16
794.223	308.73
794.404	370.17
794.584	284.16
794.765	353.79
794.945	370.17
795.126	304.64
795.306	353.79
795.487	355.83
795.667	284.16
795.848	271.87
796.028	331.26
796.209	294.4
796.389	318.97
796.57	343.55
796.75	286.2
796.93	280.06
797.111	237.05
797.291	316.92
797.471	323.07
797.652	337.4
797.832	323.07
798.012	300.54
798.192	226.81
798.373	210.43
798.553	226.81
798.733	284.16
798.913	204.28
799.093	259.58
799.274	296.44
799.454	294.4
799.634	267.77
799.814	316.92
799.994	259.58
800.174	267.77
800.354	163.33
800.534	169.47
800.714	267.77
800.894	230.91
801.074	218.62
801.254	271.87
801.434	280.06
801.614	263.68
801.794	275.96
801.974	1005.04
802.154	218.62
802.334	267.77
802.514	286.2
802.693	292.35
802.873	255.48
803.053	335.35
803.233	261.63
803.413	275.96
803.592	267.77
803.772	140.8
803.952	294.4
804.131	263.68
804.311	282.11
804.491	318.97
804.67	171.52
804.85	222.72
805.03	187.9
805.209	228.86
805.389	181.76
805.568	210.43
805.748	304.64
805.928	243.2
806.107	218.62
806.287	284.16
806.466	261.63
806.646	216.57
806.825	222.72
807.004	208.38
807.184	239.1
807.363	181.76
807.543	148.99
807.722	187.9
807.901	181.76
808.081	202.24
808.26	132.61
808.439	210.43
808.619	253.44
808.798	202.24
808.977	144.89
809.156	192
809.336	192
809.515	196.09
809.694	214.52
809.873	187.9
810.052	226.81
810.231	218.62
810.411	192
810.59	245.24
810.769	226.81
810.948	114.17
811.127	148.99
811.306	239.1
811.485	89.6
811.664	140.8
811.843	206.33
812.022	198.14
812.201	163.33
812.38	126.46
812.559	255.48
812.737	202.24
812.916	128.51
813.095	210.43
813.274	212.48
813.453	136.7
813.632	185.85
813.811	140.8
813.989	112.13
814.168	173.57
814.347	132.61
814.526	177.66
814.704	200.19
814.883	138.75
815.062	175.61
815.24	179.71
815.419	243.2
815.598	200.19
815.776	87.55
815.955	189.95
816.133	34.3
816.312	210.43
816.49	198.14
816.669	163.33
816.847	132.61
817.026	142.85
817.204	124.41
817.383	144.89
817.561	214.52
817.74	134.65
817.918	103.93
818.097	140.8
818.275	136.7
818.453	153.09
818.632	173.57
818.81	130.56
818.988	153.09
819.167	136.7
819.345	144.89
819.523	140.8
819.701	226.81
819.879	114.17
820.058	148.99
820.236	200.19
820.414	153.09
820.592	34.3
820.77	105.98
820.948	112.13
821.127	77.31
821.305	185.85
821.483	62.98
821.661	210.43
821.839	136.7
822.017	148.99
822.195	87.55
822.373	118.27
822.551	177.66
822.729	99.84
822.907	130.56
823.085	112.13
823.262	138.75
823.44	194.05
823.618	140.8
823.796	226.81
823.974	97.79
824.152	36.35
824.329	103.93
824.507	157.18
824.685	120.32
824.863	97.79
825.04	99.84
825.218	116.22
825.396	95.74
825.574	142.85
825.751	138.75
825.929	69.12
826.107	30.21
826.284	153.09
826.462	79.36
826.639	60.93
826.817	67.07
826.994	99.84
827.172	81.41
827.349	148.99
827.527	60.93
827.704	128.51
827.882	120.32
828.059	95.74
828.237	95.74
828.414	177.66
828.591	83.45
828.769	65.02
828.946	67.07
829.124	120.32
829.301	46.59
829.478	85.5
829.655	120.32
829.833	136.7
830.01	95.74
830.187	93.69
830.364	67.07
830.542	124.41
830.719	169.47
830.896	103.93
831.073	75.26
831.25	65.02
831.427	83.45
831.604	81.41
831.782	50.69
831.959	144.89
832.136	83.45
832.313	38.4
832.49	71.17
832.667	97.79
832.844	112.13
833.021	67.07
833.198	105.98
833.374	112.13
833.551	136.7
833.728	153.09
833.905	81.41
834.082	103.93
834.259	71.17
834.436	144.89
834.612	75.26
834.789	161.28
834.966	99.84
835.143	71.17
835.319	48.64
835.496	42.5
835.673	52.74
835.85	60.93
836.026	62.98
836.203	79.36
836.38	22.02
836.556	114.17
836.733	-20.99
836.909	79.36
837.086	19.97
837.262	54.78
837.439	5.63
837.616	95.74
837.792	110.08
837.968	73.21
838.145	-18.94
838.321	22.02
838.498	95.74
838.674	87.55
838.851	46.59
839.027	103.93
839.203	58.88
839.38	87.55
839.556	5.63
839.732	132.61
839.909	75.26
840.085	56.83
840.261	62.98
840.437	30.21
840.614	97.79
840.79	126.46
840.966	95.74
841.142	136.7
841.318	1.54
841.494	60.93
841.671	132.61
841.847	73.21
842.023	46.59
842.199	75.26
842.375	62.98
842.551	93.69
842.727	155.13
842.903	112.13
843.079	-4.61
843.255	32.26
843.431	7.68
843.607	91.65
843.783	-8.7
843.959	54.78
844.134	13.82
844.31	62.98
844.486	-43.52
844.662	5.63
844.838	87.55
845.013	40.45
845.189	87.55
845.365	46.59
845.541	79.36
845.716	69.12
845.892	67.07
846.068	32.26
846.244	62.98
846.419	91.65
846.595	32.26
846.77	101.89
846.946	105.98
847.122	5.63
847.297	54.78
847.473	140.8
847.648	60.93
847.824	62.98
847.999	-6.66
848.175	-35.33
848.35	87.55
848.526	120.32
848.701	124.41
848.876	91.65
849.052	87.55
849.227	79.36
849.403	32.26
849.578	38.4
849.753	46.59
849.929	87.55
850.104	87.55
850.279	26.11
850.454	44.54
850.63	124.41
850.805	65.02
850.98	54.78
851.155	48.64
851.33	62.98
851.505	-10.75
851.681	136.7
851.856	-23.04
852.031	30.21
852.206	-70.14
852.381	13.82
852.556	120.32
852.731	87.55
852.906	11.78
853.081	22.02
853.256	128.51
853.431	42.5
853.606	132.61
853.781	97.79
853.956	30.21
854.131	15.87
854.305	62.98
854.48	56.83
854.655	30.21
854.83	75.26
855.005	93.69
855.18	103.93
855.354	-8.7
855.529	120.32
855.704	17.92
855.879	118.27
856.053	71.17
856.228	-43.52
856.403	-35.33
856.577	87.55
856.752	-25.09
856.926	81.41
857.101	-2.56
857.276	7.68
857.45	22.02
857.625	58.88
857.799	44.54
857.974	71.17
858.148	46.59
858.323	3.58
858.497	-45.57
858.672	60.93
858.846	-10.75
859.02	34.3
859.195	32.26
859.369	-25.09
859.543	52.74
859.718	38.4
859.892	-8.7
860.066	13.82
860.241	-18.94
860.415	65.02
860.589	26.11
860.763	-25.09
860.938	22.02
861.112	-31.23
861.286	13.82
861.46	-41.47
861.634	30.21
861.808	38.4
861.982	71.17
862.157	1.54
862.331	-8.7
862.505	30.21
862.679	5.63
862.853	1.54
863.027	22.02
863.201	48.64
863.375	-76.29
863.549	5.63
863.722	19.97
863.896	81.41
864.07	75.26
864.244	-41.47
864.418	65.02
864.592	58.88
864.766	48.64
864.939	34.3
865.113	32.26
865.287	38.4
865.461	-2.56
865.634	75.26
865.808	5.63
865.982	46.59
866.156	22.02
866.329	-43.52
866.503	83.45
866.676	54.78
866.85	32.26
867.024	32.26
867.197	34.3
867.371	48.64
867.544	52.74
867.718	13.82
867.891	30.21
868.065	-16.9
868.238	48.64
868.412	5.63
868.585	34.3
868.759	-0.51
868.932	15.87
869.105	-18.94
869.279	46.59
869.452	22.02
869.625	75.26
869.799	11.78
869.972	58.88
870.145	-16.9
870.319	-2.56
870.492	-70.14
870.665	-23.04
870.838	22.02
871.011	-64
871.185	42.5
871.358	-10.75
871.531	15.87
871.704	22.02
871.877	50.69
872.05	46.59
872.223	30.21
872.396	71.17
872.569	-47.62
872.742	-14.85
872.915	19.97
873.088	-18.94
873.261	-20.99
873.434	42.5
873.607	-2.56
873.78	52.74
873.953	67.07
874.126	5.63
874.299	87.55
874.471	1.54
874.644	46.59
874.817	-6.66
874.99	87.55
875.163	32.26
875.335	54.78
875.508	54.78
875.681	116.22
875.853	-2.56
876.026	-29.18
876.199	42.5
876.371	-43.52
876.544	54.78
876.717	-6.66
876.889	-10.75
877.062	58.88
877.234	-14.85
877.407	-41.47
877.579	9.73
877.752	-51.71
877.924	-27.14
878.097	69.12
878.269	30.21
878.442	73.21
878.614	11.78
878.786	58.88
878.959	-14.85
879.131	17.92
879.303	48.64
879.476	-47.62
879.648	65.02
879.82	-27.14
879.993	38.4
880.165	-29.18
880.337	-53.76
880.509	54.78
880.681	-12.8
880.854	34.3
881.026	-4.61
881.198	48.64
881.37	71.17
881.542	-18.94
881.714	-59.9
881.886	22.02
882.058	48.64
882.23	67.07
882.402	-80.38
882.574	54.78
882.746	42.5
882.918	99.84
883.09	26.11
883.262	-14.85
883.434	54.78
883.606	-10.75
883.778	36.35
883.95	-2.56
884.122	38.4
884.293	81.41
884.465	-27.14
884.637	40.45
884.809	-59.9
884.98	1.54
885.152	46.59
885.324	44.54
885.496	-6.66
885.667	-76.29
885.839	17.92
886.011	71.17
886.182	11.78
886.354	38.4
886.525	26.11
886.697	40.45
886.869	15.87
887.04	-18.94
887.212	22.02
887.383	110.08
887.555	-70.14
887.726	1.54
887.897	-20.99
888.069	13.82
888.24	13.82
888.412	-6.66
888.583	22.02
888.754	13.82
888.926	-18.94
889.097	42.5
889.268	-10.75
889.44	5.63
889.611	-43.52
889.782	1.54
889.953	-10.75
890.125	79.36
890.296	46.59
890.467	-0.51
890.638	-88.57
890.809	32.26
890.98	1.54
891.151	-18.94
891.323	69.12
891.494	9.73
891.665	44.54
891.836	52.74
892.007	13.82
892.178	73.21
892.349	-31.23
892.52	-23.04
892.691	-31.23
892.862	-25.09
893.032	13.82
893.203	-47.62
893.374	-39.42
893.545	1.54
893.716	32.26
893.887	38.4
894.057	-2.56
894.228	-14.85
894.399	-16.9
894.57	91.65
894.74	56.83
894.911	-10.75
895.082	5.63
895.253	-41.47
895.423	1.54
895.594	28.16
895.764	62.98
895.935	22.02
896.106	7.68
896.276	-18.94
896.447	38.4
896.617	26.11
896.788	30.21
896.958	-4.61
897.129	24.06
897.299	26.11
897.47	22.02
897.64	-27.14
897.81	22.02
897.981	34.3
898.151	-59.9
898.322	9.73
898.492	15.87
898.662	-27.14
898.832	-43.52
899.003	38.4
899.173	24.06
899.343	-45.57
899.513	5.63
