Data from USB4F104151__297__14-34-56-272.txt Node

Date: Thu Mar 13 14:34:56 EDT 2025
User: louis
Spectrometer: USB4F10415
Trigger mode: 4
Integration Time (sec): 2.500000E-2
Scans to average: 1
Electric dark correction enabled: true
Nonlinearity correction enabled: false
Boxcar width: 0
XAxis mode: Wavelengths
Number of Pixels in Spectrum: 3648
>>>>>Begin Spectral Data<<<<<
178.204	-228.35
178.424	-228.35
178.644	-228.35
178.864	-166.91
179.084	-156.67
179.304	-29.7
179.524	7.17
179.744	-23.55
179.964	-3.07
180.184	-3.07
180.404	44.03
180.624	72.7
180.844	-44.03
181.064	-56.32
181.283	39.94
181.503	-11.26
181.723	7.17
181.943	23.55
182.163	111.61
182.383	-31.74
182.602	54.27
182.822	3.07
183.042	56.32
183.262	37.89
183.482	29.7
183.701	11.26
183.921	-64.51
184.141	-35.84
184.361	15.36
184.58	-31.74
184.8	35.84
185.02	21.5
185.239	80.89
185.459	99.33
185.679	70.65
185.898	5.12
186.118	21.5
186.338	-11.26
186.557	11.26
186.777	46.08
186.997	-9.22
187.216	62.46
187.436	-3.07
187.655	1.02
187.875	21.5
188.095	-5.12
188.314	72.7
188.534	46.08
188.753	-11.26
188.973	39.94
189.192	80.89
189.412	41.98
189.631	-11.26
189.851	107.52
190.07	91.13
190.29	31.74
190.509	58.37
190.729	-3.07
190.948	101.37
191.168	156.67
191.387	89.09
191.607	-1.02
191.826	64.51
192.045	29.7
192.265	-27.65
192.484	-11.26
192.704	78.85
192.923	15.36
193.142	95.23
193.362	31.74
193.581	128
193.8	46.08
194.02	99.33
194.239	37.89
194.458	21.5
194.678	-27.65
194.897	5.12
195.116	29.7
195.335	54.27
195.555	-13.31
195.774	41.98
195.993	54.27
196.212	31.74
196.432	17.41
196.651	105.47
196.87	1.02
197.089	130.05
197.308	68.61
197.528	62.46
197.747	19.46
197.966	25.6
198.185	13.31
198.404	1.02
198.623	-1.02
198.842	-7.17
199.062	41.98
199.281	78.85
199.5	-5.12
199.719	82.94
199.938	41.98
200.157	44.03
200.376	52.22
200.595	78.85
200.814	15.36
201.033	111.61
201.252	72.7
201.471	46.08
201.69	117.76
201.909	54.27
202.128	56.32
202.347	46.08
202.566	25.6
202.785	-39.94
203.004	-25.6
203.223	89.09
203.442	21.5
203.661	-17.41
203.879	54.27
204.098	46.08
204.317	-9.22
204.536	23.55
204.755	39.94
204.974	39.94
205.193	5.12
205.411	105.47
205.63	-21.5
205.849	13.31
206.068	33.79
206.287	41.98
206.505	15.36
206.724	37.89
206.943	-35.84
207.162	15.36
207.381	7.17
207.599	-5.12
207.818	13.31
208.037	29.7
208.255	-27.65
208.474	13.31
208.693	41.98
208.911	80.89
209.13	-19.46
209.349	33.79
209.567	54.27
209.786	25.6
210.005	31.74
210.223	-33.79
210.442	31.74
210.661	70.65
210.879	58.37
211.098	15.36
211.316	35.84
211.535	70.65
211.753	54.27
211.972	54.27
212.191	-17.41
212.409	115.71
212.628	21.5
212.846	58.37
213.065	37.89
213.283	48.13
213.502	-3.07
213.72	-23.55
213.938	105.47
214.157	89.09
214.375	23.55
214.594	13.31
214.812	21.5
215.031	115.71
215.249	37.89
215.467	46.08
215.686	72.7
215.904	62.46
216.122	52.22
216.341	119.81
216.559	80.89
216.778	9.22
216.996	46.08
217.214	60.42
217.432	-29.7
217.651	35.84
217.869	46.08
218.087	23.55
218.306	70.65
218.524	-11.26
218.742	-9.22
218.96	29.7
219.179	39.94
219.397	95.23
219.615	87.04
219.833	48.13
220.051	-13.31
220.27	72.7
220.488	62.46
220.706	25.6
220.924	17.41
221.142	-15.36
221.36	7.17
221.578	50.18
221.796	39.94
222.015	56.32
222.233	-44.03
222.451	5.12
222.669	-11.26
222.887	46.08
223.105	-17.41
223.323	-23.55
223.541	15.36
223.759	48.13
223.977	-3.07
224.195	54.27
224.413	13.31
224.631	95.23
224.849	-11.26
225.067	72.7
225.285	21.5
225.503	1.02
225.721	-56.32
225.939	21.5
226.157	70.65
226.375	105.47
226.592	37.89
226.81	9.22
227.028	62.46
227.246	78.85
227.464	17.41
227.682	-27.65
227.9	-23.55
228.117	50.18
228.335	5.12
228.553	17.41
228.771	-3.07
228.989	82.94
229.206	70.65
229.424	62.46
229.642	9.22
229.86	13.31
230.077	54.27
230.295	70.65
230.513	111.61
230.731	58.37
230.948	99.33
231.166	27.65
231.384	-7.17
231.601	48.13
231.819	58.37
232.037	82.94
232.254	-23.55
232.472	37.89
232.689	39.94
232.907	128
233.125	-15.36
233.342	13.31
233.56	-44.03
233.777	-5.12
233.995	1.02
234.213	37.89
234.43	48.13
234.648	41.98
234.865	50.18
235.083	119.81
235.3	-52.22
235.518	48.13
235.735	80.89
235.953	62.46
236.17	-39.94
236.388	33.79
236.605	111.61
236.822	21.5
237.04	-37.89
237.257	37.89
237.475	-21.5
237.692	50.18
237.909	35.84
238.127	29.7
238.344	50.18
238.562	9.22
238.779	-7.17
238.996	5.12
239.214	13.31
239.431	105.47
239.648	11.26
239.865	27.65
240.083	41.98
240.3	56.32
240.517	-39.94
240.735	-9.22
240.952	39.94
241.169	25.6
241.386	13.31
241.603	54.27
241.821	-9.22
242.038	70.65
242.255	50.18
242.472	23.55
242.689	91.13
242.907	7.17
243.124	27.65
243.341	41.98
243.558	9.22
243.775	-66.56
243.992	-68.61
244.209	64.51
244.426	89.09
244.643	-44.03
244.86	-7.17
245.078	33.79
245.295	113.66
245.512	-35.84
245.729	56.32
245.946	62.46
246.163	31.74
246.38	25.6
246.597	5.12
246.814	54.27
247.031	66.56
247.248	136.19
247.464	68.61
247.681	5.12
247.898	-35.84
248.115	27.65
248.332	7.17
248.549	76.8
248.766	60.42
248.983	46.08
249.2	50.18
249.417	84.99
249.633	15.36
249.85	105.47
250.067	76.8
250.284	21.5
250.501	78.85
250.717	-3.07
250.934	9.22
251.151	89.09
251.368	46.08
251.585	97.28
251.801	33.79
252.018	-68.61
252.235	107.52
252.451	29.7
252.668	-3.07
252.885	50.18
253.102	48.13
253.318	13.31
253.535	1.02
253.752	25.6
253.968	37.89
254.185	-23.55
254.401	21.5
254.618	70.65
254.835	13.31
255.051	168.96
255.268	54.27
255.484	74.75
255.701	-7.17
255.917	31.74
256.134	48.13
256.351	56.32
256.567	25.6
256.784	29.7
257	27.65
257.217	41.98
257.433	64.51
257.65	21.5
257.866	107.52
258.082	-1.02
258.299	-107.52
258.515	39.94
258.732	-27.65
258.948	-9.22
259.165	78.85
259.381	-5.12
259.597	41.98
259.814	21.5
260.03	35.84
260.246	13.31
260.463	41.98
260.679	46.08
260.895	23.55
261.112	52.22
261.328	17.41
261.544	70.65
261.761	23.55
261.977	54.27
262.193	41.98
262.409	70.65
262.626	7.17
262.842	130.05
263.058	-74.75
263.274	46.08
263.49	87.04
263.707	91.13
263.923	15.36
264.139	46.08
264.355	33.79
264.571	25.6
264.787	46.08
265.004	35.84
265.22	78.85
265.436	-11.26
265.652	-17.41
265.868	41.98
266.084	-27.65
266.3	-3.07
266.516	46.08
266.732	-17.41
266.948	-25.6
267.164	-27.65
267.38	1.02
267.596	15.36
267.812	80.89
268.028	72.7
268.244	-93.18
268.46	15.36
268.676	58.37
268.892	62.46
269.108	-35.84
269.324	27.65
269.54	31.74
269.756	62.46
269.972	5.12
270.188	17.41
270.403	21.5
270.619	111.61
270.835	97.28
271.051	31.74
271.267	15.36
271.483	62.46
271.698	17.41
271.914	44.03
272.13	37.89
272.346	48.13
272.562	9.22
272.777	58.37
272.993	50.18
273.209	29.7
273.425	87.04
273.64	54.27
273.856	-5.12
274.072	5.12
274.287	52.22
274.503	64.51
274.719	41.98
274.934	13.31
275.15	78.85
275.366	-7.17
275.581	5.12
275.797	80.89
276.012	15.36
276.228	62.46
276.444	33.79
276.659	62.46
276.875	31.74
277.09	-3.07
277.306	95.23
277.521	56.32
277.737	29.7
277.952	82.94
278.168	56.32
278.383	7.17
278.599	33.79
278.814	7.17
279.03	7.17
279.245	76.8
279.461	-11.26
279.676	21.5
279.892	13.31
280.107	37.89
280.322	5.12
280.538	134.14
280.753	50.18
280.969	72.7
281.184	-39.94
281.399	70.65
281.615	95.23
281.83	121.85
282.045	44.03
282.26	-1.02
282.476	27.65
282.691	62.46
282.906	56.32
283.122	-33.79
283.337	5.12
283.552	62.46
283.767	-33.79
283.983	64.51
284.198	37.89
284.413	29.7
284.628	-1.02
284.843	46.08
285.058	-1.02
285.274	82.94
285.489	-68.61
285.704	68.61
285.919	-19.46
286.134	-1.02
286.349	25.6
286.564	44.03
286.779	54.27
286.995	3.07
287.21	-54.27
287.425	-1.02
287.64	35.84
287.855	54.27
288.07	-41.98
288.285	31.74
288.5	31.74
288.715	54.27
288.93	23.55
289.145	29.7
289.36	54.27
289.575	27.65
289.79	64.51
290.004	13.31
290.219	31.74
290.434	103.42
290.649	17.41
290.864	78.85
291.079	52.22
291.294	50.18
291.509	9.22
291.724	52.22
291.938	46.08
292.153	46.08
292.368	64.51
292.583	52.22
292.798	80.89
293.012	148.48
293.227	15.36
293.442	13.31
293.657	21.5
293.871	95.23
294.086	-11.26
294.301	21.5
294.516	78.85
294.73	62.46
294.945	27.65
295.16	-33.79
295.374	156.67
295.589	37.89
295.804	-5.12
296.018	3.07
296.233	48.13
296.447	97.28
296.662	31.74
296.877	70.65
297.091	25.6
297.306	-1.02
297.52	23.55
297.735	46.08
297.949	25.6
298.164	56.32
298.378	58.37
298.593	99.33
298.807	39.94
299.022	117.76
299.236	46.08
299.451	-3.07
299.665	41.98
299.88	46.08
300.094	13.31
300.309	109.57
300.523	41.98
300.737	9.22
300.952	68.61
301.166	89.09
301.381	15.36
301.595	9.22
301.809	7.17
302.024	68.61
302.238	48.13
302.452	140.29
302.667	-23.55
302.881	13.31
303.095	80.89
303.309	54.27
303.524	37.89
303.738	78.85
303.952	-25.6
304.166	111.61
304.381	-27.65
304.595	72.7
304.809	44.03
305.023	72.7
305.237	5.12
305.452	107.52
305.666	64.51
305.88	97.28
306.094	41.98
306.308	78.85
306.522	54.27
306.736	70.65
306.95	72.7
307.164	66.56
307.379	17.41
307.593	113.66
307.807	17.41
308.021	62.46
308.235	66.56
308.449	13.31
308.663	-60.42
308.877	105.47
309.091	-25.6
309.305	1.02
309.519	78.85
309.733	76.8
309.947	54.27
310.161	58.37
310.374	103.42
310.588	50.18
310.802	-3.07
311.016	25.6
311.23	37.89
311.444	29.7
311.658	72.7
311.872	74.75
312.085	62.46
312.299	103.42
312.513	119.81
312.727	54.27
312.941	17.41
313.154	-27.65
313.368	17.41
313.582	82.94
313.796	31.74
314.009	78.85
314.223	72.7
314.437	109.57
314.651	130.05
314.864	19.46
315.078	64.51
315.292	33.79
315.505	7.17
315.719	70.65
315.933	29.7
316.146	23.55
316.36	1.02
316.573	82.94
316.787	89.09
317.001	17.41
317.214	29.7
317.428	37.89
317.641	-23.55
317.855	46.08
318.068	39.94
318.282	99.33
318.495	84.99
318.709	70.65
318.922	62.46
319.136	66.56
319.349	13.31
319.563	64.51
319.776	3.07
319.99	19.46
320.203	17.41
320.417	82.94
320.63	48.13
320.843	29.7
321.057	89.09
321.27	91.13
321.483	-33.79
321.697	109.57
321.91	13.31
322.124	80.89
322.337	70.65
322.55	62.46
322.763	29.7
322.977	9.22
323.19	-5.12
323.403	7.17
323.617	46.08
323.83	132.09
324.043	-3.07
324.256	15.36
324.469	17.41
324.683	72.7
324.896	17.41
325.109	-3.07
325.322	17.41
325.535	62.46
325.748	95.23
325.962	39.94
326.175	78.85
326.388	130.05
326.601	99.33
326.814	15.36
327.027	-9.22
327.24	115.71
327.453	41.98
327.666	15.36
327.879	105.47
328.092	136.19
328.305	128
328.518	41.98
328.731	72.7
328.944	82.94
329.157	66.56
329.37	54.27
329.583	78.85
329.796	146.43
330.009	31.74
330.222	74.75
330.435	-25.6
330.648	48.13
330.861	21.5
331.073	66.56
331.286	-11.26
331.499	72.7
331.712	17.41
331.925	46.08
332.138	87.04
332.35	78.85
332.563	-39.94
332.776	39.94
332.989	41.98
333.202	89.09
333.414	-3.07
333.627	-5.12
333.84	58.37
334.053	97.28
334.265	46.08
334.478	17.41
334.691	44.03
334.903	64.51
335.116	125.95
335.329	37.89
335.541	105.47
335.754	101.37
335.966	48.13
336.179	68.61
336.392	48.13
336.604	54.27
336.817	89.09
337.029	89.09
337.242	48.13
337.454	46.08
337.667	72.7
337.88	160.77
338.092	9.22
338.305	93.18
338.517	-7.17
338.729	58.37
338.942	74.75
339.154	115.71
339.367	13.31
339.579	89.09
339.792	-54.27
340.004	74.75
340.217	46.08
340.429	84.99
340.641	58.37
340.854	25.6
341.066	29.7
341.278	56.32
341.491	50.18
341.703	44.03
341.915	-31.74
342.128	84.99
342.34	48.13
342.552	-11.26
342.764	52.22
342.977	82.94
343.189	64.51
343.401	48.13
343.613	-11.26
343.826	64.51
344.038	54.27
344.25	33.79
344.462	-23.55
344.674	-27.65
344.886	58.37
345.099	46.08
345.311	46.08
345.523	54.27
345.735	3.07
345.947	48.13
346.159	62.46
346.371	78.85
346.583	11.26
346.795	89.09
347.007	33.79
347.219	62.46
347.431	46.08
347.643	46.08
347.855	21.5
348.067	29.7
348.279	21.5
348.491	41.98
348.703	46.08
348.915	46.08
349.127	54.27
349.339	56.32
349.551	56.32
349.763	115.71
349.975	39.94
350.187	82.94
350.399	78.85
350.61	33.79
350.822	37.89
351.034	80.89
351.246	21.5
351.458	128
351.669	64.51
351.881	91.13
352.093	111.61
352.305	29.7
352.517	107.52
352.728	111.61
352.94	64.51
353.152	70.65
353.363	-33.79
353.575	89.09
353.787	99.33
353.999	29.7
354.21	136.19
354.422	3.07
354.633	-11.26
354.845	87.04
355.057	25.6
355.268	39.94
355.48	39.94
355.692	46.08
355.903	60.42
356.115	-3.07
356.326	-21.5
356.538	152.57
356.749	5.12
356.961	95.23
357.172	41.98
357.384	37.89
357.595	97.28
357.807	78.85
358.018	41.98
358.23	31.74
358.441	162.81
358.653	82.94
358.864	76.8
359.075	82.94
359.287	50.18
359.498	109.57
359.709	50.18
359.921	56.32
360.132	82.94
360.344	123.9
360.555	25.6
360.766	56.32
360.977	29.7
361.189	138.24
361.4	23.55
361.611	97.28
361.823	37.89
362.034	93.18
362.245	78.85
362.456	17.41
362.667	111.61
362.879	35.84
363.09	21.5
363.301	89.09
363.512	48.13
363.723	54.27
363.935	70.65
364.146	87.04
364.357	-3.07
364.568	138.24
364.779	-25.6
364.99	78.85
365.201	-9.22
365.412	103.42
365.623	56.32
365.834	50.18
366.045	-11.26
366.256	62.46
366.467	58.37
366.678	25.6
366.889	48.13
367.1	13.31
367.311	21.5
367.522	33.79
367.733	76.8
367.944	95.23
368.155	9.22
368.366	113.66
368.577	29.7
368.788	89.09
368.999	31.74
369.209	95.23
369.42	99.33
369.631	121.85
369.842	99.33
370.053	80.89
370.264	50.18
370.474	76.8
370.685	89.09
370.896	5.12
371.107	101.37
371.317	70.65
371.528	111.61
371.739	154.62
371.95	-13.31
372.16	91.13
372.371	-1.02
372.582	91.13
372.792	132.09
373.003	29.7
373.214	91.13
373.424	144.38
373.635	105.47
373.846	62.46
374.056	56.32
374.267	25.6
374.477	105.47
374.688	23.55
374.898	1.02
375.109	37.89
375.319	46.08
375.53	123.9
375.74	3.07
375.951	70.65
376.161	87.04
376.372	58.37
376.582	87.04
376.793	21.5
377.003	13.31
377.214	89.09
377.424	66.56
377.635	113.66
377.845	70.65
378.055	87.04
378.266	89.09
378.476	70.65
378.686	11.26
378.897	119.81
379.107	103.42
379.317	152.57
379.528	-39.94
379.738	99.33
379.948	48.13
380.158	148.48
380.369	121.85
380.579	154.62
380.789	72.7
380.999	113.66
381.21	33.79
381.42	95.23
381.63	37.89
381.84	78.85
382.05	62.46
382.261	54.27
382.471	115.71
382.681	21.5
382.891	62.46
383.101	95.23
383.311	128
383.521	46.08
383.731	177.15
383.941	82.94
384.151	91.13
384.361	123.9
384.571	66.56
384.781	78.85
384.991	136.19
385.201	152.57
385.411	70.65
385.621	121.85
385.831	72.7
386.041	1.02
386.251	44.03
386.461	128
386.671	97.28
386.881	56.32
387.091	62.46
387.301	70.65
387.511	50.18
387.72	113.66
387.93	99.33
388.14	11.26
388.35	95.23
388.56	103.42
388.769	46.08
388.979	64.51
389.189	37.89
389.399	119.81
389.609	78.85
389.818	54.27
390.028	111.61
390.238	17.41
390.447	70.65
390.657	78.85
390.867	29.7
391.076	72.7
391.286	70.65
391.496	39.94
391.705	78.85
391.915	123.9
392.125	105.47
392.334	152.57
392.544	80.89
392.753	25.6
392.963	31.74
393.172	80.89
393.382	27.65
393.591	130.05
393.801	109.57
394.01	93.18
394.22	76.8
394.429	105.47
394.639	95.23
394.848	80.89
395.058	166.91
395.267	128
395.477	154.62
395.686	128
395.895	78.85
396.105	164.86
396.314	70.65
396.524	117.76
396.733	130.05
396.942	173.05
397.152	70.65
397.361	128
397.57	156.67
397.78	78.85
397.989	138.24
398.198	177.15
398.407	72.7
398.617	160.77
398.826	154.62
399.035	152.57
399.244	93.18
399.453	103.42
399.663	209.92
399.872	152.57
400.081	101.37
400.29	173.05
400.499	21.5
400.708	156.67
400.917	99.33
401.127	203.77
401.336	111.61
401.545	154.62
401.754	181.25
401.963	138.24
402.172	56.32
402.381	148.48
402.59	140.29
402.799	119.81
403.008	119.81
403.217	136.19
403.426	187.39
403.635	134.14
403.844	111.61
404.053	173.05
404.262	91.13
404.471	171.01
404.68	197.63
404.888	205.82
405.097	193.53
405.306	193.53
405.515	267.26
405.724	185.34
405.933	164.86
406.142	242.68
406.35	214.01
406.559	238.59
406.768	265.21
406.977	283.64
407.185	302.08
407.394	259.07
407.603	211.96
407.812	252.92
408.02	238.59
408.229	326.65
408.438	324.6
408.646	308.22
408.855	279.55
409.064	381.95
409.272	324.6
409.481	410.62
409.69	375.8
409.898	416.76
410.107	410.62
410.315	381.95
410.524	324.6
410.733	418.81
410.941	498.68
411.15	492.54
411.358	545.78
411.567	566.26
411.775	517.11
411.984	447.48
412.192	531.45
412.401	543.74
412.609	648.18
412.818	676.85
413.026	625.65
413.234	693.24
413.443	744.44
413.651	775.16
413.86	793.59
414.068	807.92
414.276	893.94
414.485	859.12
414.693	826.36
414.901	938.99
415.11	922.61
415.318	998.38
415.526	934.9
415.734	1070.06
415.943	1121.26
416.151	1197.04
416.359	1156.08
416.567	1160.17
416.776	1332.2
416.984	1336.3
417.192	1350.64
417.4	1334.25
417.608	1336.3
417.817	1389.55
418.025	1520.62
418.233	1627.11
418.441	1586.15
418.649	1471.47
418.857	1752.04
419.065	1827.81
419.273	1643.49
419.481	1809.38
419.689	1913.83
419.897	2055.14
420.105	2073.57
420.313	2130.91
420.521	2216.93
420.729	2245.6
420.937	2431.96
421.145	2460.63
421.353	2587.61
421.561	2675.67
421.769	2644.95
421.977	2790.36
422.185	2755.54
422.393	2880.47
422.601	2982.87
422.809	3195.86
423.017	3167.18
423.224	3242.96
423.432	3404.75
423.64	3343.31
423.848	3703.75
424.056	3734.47
424.263	3994.56
424.471	3886.02
424.679	4019.14
424.887	4307.9
425.094	4172.74
425.302	4361.15
425.51	4496.32
425.718	4717.5
425.925	4760.5
426.133	4815.8
426.341	5268.4
426.548	5424.05
426.756	5307.31
426.964	5407.66
427.171	5692.33
427.379	5903.27
427.586	6038.44
427.794	6163.36
428.001	6437.79
428.209	6699.93
428.417	6689.69
428.624	7087
428.832	7125.91
429.039	6962.07
429.247	7130
429.454	7697.29
429.662	8340.35
429.869	7777.16
430.076	8190.85
430.284	8072.07
430.491	8256.39
430.699	8786.81
430.906	8684.41
431.114	8893.3
431.321	9110.39
431.528	9483.12
431.736	9839.47
431.943	10478.43
432.15	10232.68
432.358	10320.74
432.565	10861.4
432.772	10836.83
432.979	11187.03
433.187	11461.46
433.394	11604.81
433.601	12245.83
433.808	12426.05
434.016	12301.12
434.223	12847.93
434.43	13390.64
434.637	13202.23
434.844	14138.15
435.052	14486.31
435.259	14185.26
435.466	14351.14
435.673	14443.3
435.88	15250.2
436.087	16059.15
436.294	15889.17
436.501	15602.45
436.708	15864.59
436.915	16605.95
437.122	17337.08
437.329	17408.76
437.537	17638.13
437.743	17961.71
437.95	17720.05
438.157	18778.85
438.364	19432.15
438.571	19505.88
438.778	19473.11
438.985	21211.84
439.192	20402.89
439.399	20992.7
439.606	20368.07
439.813	22000.3
440.02	23102.11
440.227	22581.93
440.433	22528.68
440.64	22919.84
440.847	22901.41
441.054	23327.39
441.261	24922.76
441.467	24699.53
441.674	25215.62
441.881	26104.43
442.088	26137.2
442.294	25909.88
442.501	26491.5
442.708	26899.05
442.914	28002.9
443.121	29291.07
443.328	27988.56
443.534	30218.8
443.741	29430.33
443.948	28918.34
444.154	31334.95
444.361	31341.09
444.568	31552.03
444.774	31347.23
444.981	31750.68
445.187	32463.38
445.394	33784.32
445.6	33671.68
445.807	36803.02
446.013	35013.1
446.22	35168.74
446.426	36893.13
446.633	37120.46
446.839	38640.05
447.046	36938.19
447.252	39418.28
447.459	39090.6
447.665	38916.53
447.871	40929.68
448.078	42117.5
448.284	40526.23
448.491	41220.49
448.697	42668.4
448.903	43731.3
449.11	43759.97
449.316	43239.79
449.522	44071.26
449.728	45187.41
449.935	45459.79
450.141	45496.65
450.347	46719.29
450.553	44796.24
450.76	45910.34
450.966	47112.5
451.172	46311.74
451.378	47366.45
451.584	46475.58
451.791	47700.26
451.997	47456.56
452.203	48335.13
452.409	48103.71
452.615	47966.5
452.821	46317.89
453.027	45873.48
453.233	48750.87
453.44	45826.37
453.646	46780.73
453.852	47040.82
454.058	47724.84
454.264	46299.45
454.47	47642.92
454.676	46092.61
454.882	47536.43
455.088	43727.2
455.294	44296.54
455.5	45117.78
455.705	45109.58
455.911	43786.6
456.117	42832.24
456.323	42330.49
456.529	40108.44
456.735	41419.14
456.941	40796.56
457.147	40069.53
457.352	38861.23
457.558	38347.19
457.764	38138.3
457.97	37818.81
458.176	36930
458.381	36905.42
458.587	35400.16
458.793	35238.37
458.999	33430.02
459.204	35590.62
459.41	34785.77
459.616	32490
459.821	32203.28
460.027	32723.47
460.233	31722.01
460.438	30104.12
460.644	30337.59
460.85	29342.27
461.055	28617.29
461.261	28482.13
461.466	26208.88
461.672	25522.81
461.878	27226.72
462.083	25797.24
462.289	25010.82
462.494	24924.8
462.7	23823
462.905	23149.21
463.111	23782.04
463.316	24210.06
463.522	23341.72
463.727	23427.74
463.932	23466.65
464.138	23102.11
464.343	23548.57
464.549	22457
464.754	23329.44
464.959	23009.95
465.165	22925.99
465.37	21779.12
465.575	21453.5
465.781	22186.67
465.986	21918.39
466.191	21527.22
466.397	21158.59
466.602	20046.54
466.807	20628.17
467.012	20781.76
467.218	20517.57
467.423	20261.58
467.628	20568.77
467.833	21248.7
468.038	20466.38
468.244	19925.71
468.449	20495.05
468.654	19897.04
468.859	19755.73
469.064	19436.25
469.269	18897.63
469.474	19127
469.679	19380.95
469.885	19067.61
470.09	19219.16
470.295	18703.07
470.5	18410.22
470.705	18871.01
470.91	18256.62
471.115	17937.13
471.32	18455.27
471.525	18098.92
471.73	17816.3
471.935	17695.47
472.139	17019.64
472.344	17132.28
472.549	17341.18
472.754	17011.45
472.959	16497.41
473.164	16128.78
473.369	16118.54
473.574	16460.55
473.778	16507.65
473.983	16167.69
474.188	16306.95
474.393	15672.08
474.598	15776.53
474.802	15360.79
475.007	15389.46
475.212	15653.65
475.417	14705.44
475.621	14783.26
475.826	14746.4
476.031	14504.74
476.235	14185.26
476.44	14428.96
476.645	14246.69
476.849	14148.39
477.054	13890.35
477.259	13718.32
477.463	13916.97
477.668	13304.63
477.872	13777.71
478.077	13411.12
478.282	12960.57
478.486	13187.89
478.691	12995.39
478.895	12841.79
479.1	12882.75
479.304	12839.74
479.509	12387.14
479.713	12571.46
479.918	12440.39
480.122	12299.08
480.326	12467.01
480.531	12555.07
480.735	12243.78
480.94	12319.56
481.144	12469.06
481.348	11873.1
481.553	12047.18
481.757	11842.38
481.961	11971.4
482.166	12213.06
482.37	11809.61
482.574	11871.05
482.778	11815.76
482.983	12143.43
483.187	11920.2
483.391	12010.31
483.595	11838.28
483.8	11735.88
484.004	11688.78
484.208	11932.49
484.412	11690.83
484.616	11858.76
484.821	11703.12
485.025	11426.64
485.229	11768.65
485.433	11834.19
485.637	11918.15
485.841	11729.74
486.045	11803.47
486.249	11772.75
486.453	11574.1
486.657	11828.04
486.861	11864.91
487.065	11541.33
487.269	11803.47
487.473	11486.03
487.677	11582.29
487.881	12032.84
488.085	11723.6
488.289	11819.85
488.493	11776.84
488.697	11875.15
488.901	11856.72
489.105	11864.91
489.309	11703.12
489.512	11694.93
489.716	11803.47
489.92	11828.04
490.124	11891.53
490.328	11768.65
490.531	11883.34
490.735	11922.25
490.939	12067.66
491.143	11920.2
491.346	11873.1
491.55	12358.47
491.754	12180.29
491.958	12100.42
492.161	12043.08
492.365	12368.71
492.569	12104.52
492.772	12251.97
492.976	12292.93
493.18	12503.87
493.383	12530.5
493.587	12483.39
493.79	12729.15
493.994	12473.15
494.197	12639.04
494.401	12858.17
494.605	12675.9
494.808	12950.33
495.012	12917.56
495.215	12907.32
495.419	13151.03
495.622	12622.66
495.825	13261.62
496.029	13415.22
496.232	13597.49
496.436	13482.8
496.639	13939.5
496.843	13914.92
497.046	14115.62
497.249	14129.96
497.453	14080.81
497.656	14361.38
497.859	14367.52
498.063	14639.9
498.266	14791.45
498.469	14486.31
498.673	14773.02
498.876	14916.38
499.079	15096.6
499.282	15053.59
499.485	15659.79
499.689	15467.28
499.892	15700.75
500.095	15893.26
500.298	16134.92
500.501	16046.86
500.705	16562.95
500.908	16489.22
501.111	16706.31
501.314	16730.88
501.517	17214.2
501.72	17535.73
501.923	17322.74
502.126	17519.35
502.329	18002.67
502.532	17777.39
502.735	17930.99
502.938	18543.33
503.141	18488.04
503.344	18768.61
503.547	18871.01
503.75	18887.39
503.953	19356.38
504.156	19663.57
504.359	19686.1
504.562	19802.83
504.765	20087.5
504.968	20183.76
505.17	20298.44
505.373	20372.17
505.576	20865.73
505.779	20980.42
505.982	21031.62
506.185	21383.87
506.387	21199.55
506.59	21992.11
506.793	22241.96
506.996	21951.15
507.198	22356.65
507.401	22698.66
507.604	22850.21
507.807	23272.09
508.009	23171.74
508.212	23581.34
508.415	23736.98
508.617	24138.38
508.82	24109.71
509.022	24210.06
509.225	24818.31
509.428	24832.65
509.63	25287.29
509.833	25055.87
510.035	25694.84
510.238	25866.87
510.44	25961.08
510.643	26606.19
510.845	26694.25
511.048	26675.82
511.25	27054.69
511.453	26872.42
511.655	27505.24
511.858	27720.28
512.06	28113.49
512.262	28232.27
512.465	28205.65
512.667	28678.73
512.87	28906.05
513.072	29016.65
513.274	29788.73
513.477	29979.19
513.679	29850.17
513.881	30310.96
514.084	30571.05
514.286	30573.1
514.488	30825
514.69	31486.5
514.893	31515.17
515.095	31443.49
515.297	31791.64
515.499	32135.7
515.701	32641.55
515.904	33004.04
516.106	32897.55
516.308	33454.59
516.51	33589.76
516.712	33655.29
516.914	33847.8
517.116	34441.71
517.318	34365.94
517.52	34775.53
517.722	34640.37
517.925	35416.55
518.127	35494.37
518.329	35760.61
518.531	35619.3
518.733	36372.95
518.935	36342.23
519.136	36643.28
519.338	37210.57
519.54	36987.34
519.742	37544.39
519.944	37810.62
520.146	38119.87
520.348	38322.62
520.55	37900.73
520.752	38517.17
520.954	39106.99
521.155	38767.02
521.357	39451.05
521.559	39512.49
521.761	39979.42
521.963	39856.54
522.164	39889.31
522.366	40130.97
522.568	40452.5
522.77	40661.4
522.971	41136.52
523.173	40782.23
523.375	41134.48
523.576	41197.96
523.778	40997.26
523.98	41806.21
524.181	41945.47
524.383	41763.2
524.584	42213.76
524.786	41816.45
524.988	41836.93
525.189	42326.39
525.391	42672.5
525.592	42766.71
525.794	42754.42
525.995	42969.46
526.197	42672.5
526.398	43008.37
526.6	42967.41
526.801	43217.26
527.003	43444.59
527.204	43270.51
527.406	43753.83
527.607	43143.53
527.808	43387.24
528.01	42625.4
528.211	43495.78
528.412	44028.26
528.614	43620.71
528.815	43702.63
529.016	44433.75
529.218	43805.03
529.419	43860.32
529.62	43704.68
529.822	43489.64
530.023	43532.65
530.224	43952.48
530.425	43589.99
530.626	43731.3
530.828	43463.02
531.029	44280.16
531.23	43288.94
531.431	43258.22
531.632	43876.71
531.833	43850.08
532.035	43506.02
532.236	43483.5
532.437	44423.51
532.638	43260.27
532.839	43821.41
533.04	43985.25
533.241	43239.79
533.442	44429.66
533.643	43682.15
533.844	43422.06
534.045	43727.2
534.246	43403.63
534.447	43526.5
534.648	43159.92
534.849	43559.27
535.05	43624.81
535.251	43123.05
535.451	43307.37
535.652	43331.95
535.853	43012.46
536.054	42979.7
536.255	43475.3
536.456	42680.69
536.657	43751.78
536.857	42828.15
537.058	42711.41
537.259	43037.04
537.46	43032.94
537.66	42580.34
537.861	42895.73
538.062	42975.6
538.263	42586.49
538.463	42533.24
538.664	42858.87
538.865	43159.92
539.065	42936.69
539.266	42400.12
539.466	43100.53
539.667	42191.23
539.868	42912.11
540.068	42477.94
540.269	42240.38
540.469	43037.04
540.67	42240.38
540.87	42672.5
541.071	42410.36
541.271	42490.23
541.472	42379.64
541.672	42080.64
541.873	41970.05
542.073	41853.31
542.274	42436.98
542.474	41900.42
542.675	41990.53
542.875	42226.04
543.075	41982.34
543.276	41580.93
543.476	42387.83
543.676	41992.58
543.877	42514.81
544.077	41818.5
544.277	42031.49
544.478	41818.5
544.678	41924.99
544.878	42180.99
545.078	42252.67
545.279	41800.07
545.479	41593.22
545.679	42062.21
545.879	41738.63
546.079	41709.96
546.28	41748.87
546.48	41853.31
546.68	42260.86
546.88	41841.03
547.08	41499.01
547.28	41763.2
547.48	41560.45
547.68	42080.64
547.88	41585.03
548.081	42131.84
548.281	41922.94
548.481	41685.38
548.681	42004.86
548.881	42002.82
549.081	41804.16
549.28	41587.08
549.48	42051.97
549.68	42105.21
549.88	42199.42
550.08	41472.39
550.28	42035.58
550.48	41644.42
550.68	41974.14
550.88	41720.2
551.08	41902.46
551.279	41869.7
551.479	41746.82
551.679	41998.72
551.879	41822.59
552.079	42142.08
552.278	41783.68
552.478	41886.08
552.678	42072.45
552.878	42101.12
553.077	42187.13
553.277	41920.9
553.477	42275.19
553.676	42131.84
553.876	41974.14
554.076	41861.51
554.275	41744.77
554.475	41705.86
554.674	42060.16
554.874	41978.24
555.074	42183.04
555.273	42113.41
555.473	42326.39
555.672	42105.21
555.872	42195.32
556.071	42367.35
556.271	42168.7
556.47	42166.65
556.67	41904.51
556.869	42287.48
557.068	41908.61
557.268	42119.55
557.467	42336.63
557.667	42119.55
557.866	41980.29
558.065	41896.32
558.265	41896.32
558.464	42174.84
558.663	42445.18
558.863	41709.96
559.062	42393.98
559.261	41705.86
559.461	42142.08
559.66	41404.81
559.859	41843.07
560.058	41929.09
560.258	42027.39
560.457	41615.75
560.656	42566.01
560.855	41931.14
561.054	42285.43
561.253	42019.2
561.453	41904.51
561.652	42162.56
561.851	42043.77
562.05	41599.37
562.249	41691.52
562.448	42215.8
562.647	42006.91
562.846	41976.19
563.045	41826.69
563.244	41650.56
563.443	42072.45
563.642	41517.45
563.841	41449.86
564.04	41646.47
564.239	41920.9
564.438	41222.54
564.637	41957.76
564.836	41906.56
565.035	40841.62
565.234	41593.22
565.432	41935.23
565.631	41525.64
565.83	41408.9
566.029	41298.31
566.228	41197.96
566.427	41023.89
566.625	40839.57
566.824	40774.03
567.023	41572.74
567.222	40599.96
567.42	40954.26
567.619	41128.33
567.818	40497.56
568.016	40737.17
568.215	40532.37
568.414	40663.44
568.612	40817.04
568.811	40298.91
569.01	40814.99
569.208	40171.93
569.407	40188.31
569.605	40018.33
569.804	40540.57
570.002	39795.1
570.201	40145.31
570.4	39950.75
570.598	39905.7
570.797	39600.55
570.995	40139.16
571.193	39668.13
571.392	40049.05
571.59	39287.21
571.789	39463.33
571.987	39315.88
572.186	39174.57
572.384	39043.5
572.582	39416.23
572.781	39356.84
572.979	38674.87
573.177	38990.25
573.376	38980.01
573.574	38683.06
573.772	38549.94
573.971	38257.08
574.169	38246.84
574.367	38128.06
574.565	38255.03
574.763	37910.97
574.962	38244.79
575.16	37745.09
575.358	37841.34
575.556	37691.84
575.754	38431.16
575.952	37745.09
576.151	37587.39
576.349	36938.19
576.547	37487.04
576.745	37183.94
576.943	37454.28
577.141	36936.14
577.339	37122.51
577.537	36973
577.735	37099.98
577.933	36798.93
578.131	36733.39
578.329	36526.55
578.527	36698.58
578.725	36538.83
578.923	36501.97
579.121	36344.28
579.319	36209.11
579.516	36127.19
579.714	36268.5
579.912	35766.75
580.11	35721.69
580.308	36041.18
580.506	35901.92
580.704	35418.6
580.901	35623.39
581.099	35506.66
581.297	35107.3
581.495	35267.05
581.692	35310.05
581.89	34882.03
582.088	35267.05
582.285	34701.81
582.483	35097.06
582.681	34816.49
582.878	34832.88
583.076	34288.12
583.274	34769.39
583.471	34128.38
583.669	34210.29
583.866	33995.26
584.064	34492.91
584.262	34150.9
584.459	34073.08
584.657	34134.52
584.854	33974.78
585.052	33460.74
585.249	34071.03
585.447	34081.27
585.644	33382.91
585.841	33767.93
586.039	33729.02
586.236	33337.86
586.434	33231.36
586.631	33151.49
586.828	33221.13
587.026	33122.82
587.223	32909.83
587.42	32799.24
587.618	32891.4
587.815	32512.53
588.012	32676.37
588.21	32578.06
588.407	32793.1
588.604	32619.02
588.801	32375.31
588.999	32309.78
589.196	32092.69
589.393	32336.4
589.59	32066.07
589.787	32004.63
589.984	31935
590.182	31793.69
590.379	31896.09
590.576	32033.3
590.773	31795.74
590.97	31496.74
591.167	31808.03
591.364	31353.38
591.561	31382.05
591.758	31339.04
591.955	31279.65
592.152	31670.81
592.349	31081
592.546	31124.01
592.743	31316.51
592.94	30792.23
593.137	31111.72
593.334	31193.64
593.531	30425.65
593.727	31302.18
593.924	30898.73
594.121	30562.86
594.318	30982.7
594.515	30431.79
594.712	30908.97
594.908	30390.83
595.105	31021.61
595.302	30255.67
595.499	30738.99
595.696	30505.52
595.892	30310.96
596.089	30403.12
596.286	30276.15
596.482	30353.97
596.679	30224.95
596.876	30218.8
597.072	30233.14
597.269	30335.54
597.466	30112.31
597.662	29870.65
597.859	30208.56
598.055	29966.9
598.252	29776.44
598.448	29760.06
598.645	29626.94
598.841	29571.64
599.038	29862.46
599.234	29798.97
599.431	29715
599.627	29573.69
599.824	30118.45
600.02	29526.59
600.217	29805.11
600.413	29323.84
600.609	29428.29
600.806	29227.59
601.002	29381.18
601.198	29487.68
601.395	29360.7
601.591	29637.18
601.787	29278.79
601.984	29301.31
602.18	29743.67
602.376	29915.7
602.572	29305.41
602.769	29542.97
602.965	29209.15
603.161	29655.61
603.357	29530.69
603.553	29499.97
603.75	29426.24
603.946	29475.39
604.142	29403.71
604.338	29583.93
604.534	29444.67
604.73	29370.94
604.926	29526.59
605.122	29545.02
605.318	29610.56
605.514	29600.32
605.71	29401.66
605.906	29459.01
606.102	29639.23
606.298	29440.57
606.494	29385.28
606.69	29811.26
606.886	29764.15
607.082	29483.58
607.278	29522.49
607.474	29243.97
607.67	29731.39
607.866	29258.31
608.062	29678.14
608.257	29356.61
608.453	29612.6
608.649	29649.47
608.845	29735.48
609.041	29956.66
609.236	29950.52
609.432	29778.49
609.628	29643.32
609.824	29831.74
610.019	29616.7
610.215	29784.63
610.411	29909.56
610.606	29755.96
610.802	30102.07
610.998	30042.68
611.193	30038.58
611.389	29948.47
611.584	29942.33
611.78	29823.54
611.976	29825.59
612.171	29846.07
612.367	30095.92
612.562	29786.68
612.758	29864.5
612.953	29325.89
613.149	30032.44
613.344	29907.51
613.539	30210.61
613.735	29950.52
613.93	29581.88
614.126	29927.99
614.321	30413.36
614.517	30001.72
614.712	29952.57
614.907	29725.24
615.103	30122.55
615.298	30067.25
615.493	30274.1
615.688	29727.29
615.884	30499.37
616.079	30020.15
616.274	30337.59
616.47	30016.05
616.665	30202.42
616.86	29686.33
617.055	29739.58
617.25	29925.94
617.445	30014.01
617.641	29772.35
617.836	29594.17
618.031	29555.26
618.226	29891.13
618.421	29555.26
618.616	29776.44
618.811	29481.53
619.006	29936.18
619.201	29225.54
619.396	29774.39
619.591	29055.56
619.786	29368.9
619.981	29073.99
620.176	29409.86
620.371	29071.94
620.566	28977.73
620.761	29016.65
620.956	29059.65
621.151	28254.8
621.346	28922.44
621.541	28396.11
621.735	28508.75
621.93	28240.47
622.125	28226.13
622.32	27953.75
622.515	28242.51
622.709	27857.49
622.904	27794.01
623.099	27650.65
623.294	27705.95
623.488	27114.08
623.683	27554.4
623.878	27300.45
624.072	27400.8
624.267	27411.04
624.462	26907.24
624.656	26661.48
624.851	26886.76
625.046	26428.01
625.24	26362.48
625.435	26176.11
625.629	25973.36
625.824	25983.6
626.018	26069.62
626.213	25590.39
626.407	25975.41
626.602	25430.65
626.796	25567.87
626.991	25604.73
627.185	24840.84
627.38	25088.64
627.574	24908.42
627.768	24695.43
627.963	24623.75
628.157	24765.06
628.352	24711.81
628.546	24459.91
628.74	24631.94
628.935	24122
629.129	24433.29
629.323	23734.93
629.517	23949.97
629.712	23632.54
629.906	23708.31
630.1	23415.45
630.294	23548.57
630.489	23311
630.683	23413.4
630.877	23323.29
631.071	22696.61
631.265	22999.71
631.459	22737.57
631.653	22512.3
631.848	22479.53
632.042	22594.22
632.236	22332.08
632.43	22291.12
632.624	22198.96
632.818	22000.3
633.012	21633.72
633.206	21834.42
633.4	21697.2
633.594	21607.09
633.788	21746.36
633.982	21539.51
634.176	21359.29
634.369	20908.74
634.563	21131.97
634.757	20998.85
634.951	21074.62
635.145	20906.69
635.339	20673.22
635.533	20525.77
635.726	20499.14
635.92	20200.14
636.114	20198.09
636.308	20150.99
636.501	20280.01
636.695	20073.17
636.889	19735.25
637.083	19624.66
637.276	19475.16
637.47	19516.12
637.664	19606.23
637.857	19413.72
638.051	19149.53
638.244	19129.05
638.438	19120.86
638.632	19124.96
638.825	18834.14
639.019	18664.16
639.212	18555.62
639.406	18387.69
639.599	18459.37
639.793	18588.39
639.986	18264.81
640.18	18166.51
640.373	18027.24
640.567	17928.94
640.76	18088.68
640.954	17783.54
641.147	17378.04
641.34	17572.6
641.534	17404.66
641.727	17416.95
641.92	17324.79
642.114	16966.4
642.307	17167.1
642.5	17042.17
642.694	16618.24
642.887	16546.56
643.08	16757.5
643.273	16456.45
643.467	16583.43
643.66	16173.83
643.853	16278.28
644.046	16053
644.239	16163.59
644.432	15809.29
644.626	15686.42
644.819	15708.94
645.012	15663.89
645.205	15633.17
645.398	15571.73
645.591	15508.24
645.784	15194.9
645.977	15057.69
646.17	15088.41
646.363	14816.03
646.556	14910.24
646.749	14795.55
646.942	15137.56
647.135	14488.35
647.328	14613.28
647.521	14660.38
647.714	14211.88
647.907	14652.19
648.099	14048.04
648.292	14377.76
648.485	14123.82
648.678	13974.31
648.871	14101.29
649.064	13941.55
649.256	13980.46
649.449	13691.7
649.642	13742.89
649.835	13345.59
650.027	13409.08
650.22	13429.56
650.413	13450.03
650.605	13349.68
650.798	13265.72
650.991	13267.77
651.183	12960.57
651.376	12970.81
651.568	12804.92
651.761	12979
651.954	12727.1
652.146	12757.82
652.339	12731.2
652.531	12641.09
652.724	12587.84
652.916	12432.19
653.109	12645.18
653.301	12456.77
653.494	12501.83
653.686	12049.22
653.879	12321.6
654.071	12006.22
654.263	12077.9
654.456	11789.13
654.648	11971.4
654.84	11701.07
655.033	11649.87
655.225	11565.9
655.417	11572.05
655.61	11811.66
655.802	11617.1
655.994	11252.56
656.186	11481.94
656.379	11242.32
656.571	11440.98
656.763	11207.51
656.955	11168.6
657.148	11021.14
657.34	11086.68
657.532	10881.88
657.724	10863.45
657.916	10761.05
658.108	10675.04
658.3	10791.77
658.492	10744.67
658.684	10591.07
658.876	10619.74
659.068	10638.17
659.26	10259.3
659.452	10554.21
659.644	10509.15
659.836	10148.71
660.028	10437.47
660.22	10081.13
660.412	10140.52
660.604	9986.92
660.796	10111.85
660.988	9847.66
661.18	9825.13
661.372	9827.18
661.563	10007.4
661.755	9634.67
661.947	9694.06
662.139	9745.26
662.331	9624.43
662.522	9433.97
662.714	9489.26
662.906	9198.45
663.097	9489.26
663.289	9276.27
663.481	9216.88
663.673	9395.06
663.864	9337.71
664.056	9104.25
664.247	9075.57
664.439	8688.51
664.631	9048.95
664.822	8975.22
665.014	8795
665.205	8762.23
665.397	9020.28
665.588	8915.83
665.78	8704.89
665.971	8604.54
666.163	8473.47
666.354	8543.1
666.546	8371.07
666.737	8377.22
666.929	8444.8
667.12	8237.95
667.311	8149.89
667.503	8223.62
667.694	8237.95
667.885	8233.86
668.077	8151.94
668.268	8000.39
668.459	7988.1
668.651	8129.41
668.842	7932.81
669.033	8008.58
669.224	8041.35
669.416	7959.43
669.607	7930.76
669.798	7654.28
669.989	7682.95
670.18	7799.69
670.371	7725.96
670.563	7652.24
670.754	7723.91
670.945	7723.91
671.136	7576.46
671.327	7553.93
671.518	7320.46
671.709	7396.24
671.9	7398.29
672.091	7381.9
672.282	7355.28
672.473	7402.38
672.664	7248.79
672.855	7297.94
673.046	7119.76
673.237	7297.94
673.428	7336.85
673.619	7238.55
673.809	7295.89
674	7025.56
674.191	7242.64
674.382	7033.75
674.573	7168.91
674.764	7013.27
674.954	7127.96
675.145	6787.99
675.336	7033.75
675.527	6869.91
675.717	7091.09
675.908	6869.91
676.099	6843.29
676.289	7033.75
676.48	6740.89
676.671	6673.31
676.861	6787.99
677.052	6663.07
677.243	6765.46
677.433	6601.63
677.624	6787.99
677.814	6607.77
678.005	6648.73
678.195	6587.29
678.386	6624.15
678.576	6583.2
678.767	6409.12
678.957	6472.61
679.148	6695.83
679.338	6833.05
679.529	6386.59
679.719	6370.21
679.909	6800.28
680.1	6435.74
680.29	6575
680.481	6497.18
680.671	6368.16
680.861	6368.16
681.052	6394.78
681.242	6345.63
681.432	6460.32
681.622	6448.03
681.813	6276
682.003	6413.21
682.193	6175.65
682.383	6314.91
682.573	6476.7
682.764	6151.07
682.954	6181.79
683.144	6347.68
683.334	6192.03
683.524	6230.94
683.714	6321.06
683.904	6286.24
684.094	6173.6
684.284	6220.71
684.474	6140.83
684.664	6175.65
684.854	6241.18
685.044	6013.86
685.234	5862.31
685.424	6108.07
685.614	6009.76
685.804	5927.85
685.994	6069.16
686.184	5989.28
686.374	5985.19
686.564	6060.96
686.753	5936.04
686.943	5788.58
687.133	6075.3
687.323	5884.84
687.513	5956.52
687.702	5753.77
687.892	5706.66
688.082	5739.43
688.272	5899.17
688.461	5831.59
688.651	5907.37
688.841	5637.03
689.03	5624.75
689.22	5745.58
689.41	5702.57
689.599	5628.84
689.789	5706.66
689.979	5723.05
690.168	5602.22
690.358	5749.67
690.547	5612.46
690.737	5559.21
690.926	5471.15
691.116	5444.52
691.305	5493.68
691.495	5395.37
691.684	5440.43
691.874	5620.65
692.063	5458.86
692.252	5591.98
692.442	5446.57
692.631	5254.06
692.82	5252.02
693.01	5378.99
693.199	5346.22
693.388	5325.74
693.578	5231.54
693.767	5309.36
693.956	5237.68
694.146	5133.23
694.335	5102.51
694.524	5129.14
694.713	5247.92
694.902	5118.9
695.092	5135.28
695.281	5002.16
695.47	5059.51
695.659	5026.74
695.848	5075.89
696.037	5100.47
696.226	5026.74
696.415	5067.7
696.604	5084.08
696.793	4953.01
696.982	4973.49
697.171	5055.41
697.36	5026.74
697.549	4993.97
697.738	4910.01
697.927	4699.06
698.116	4815.8
698.305	4797.37
698.494	4879.29
698.683	4883.38
698.872	4944.82
699.061	4844.47
699.25	4664.25
699.438	4701.11
699.627	4774.84
699.816	4879.29
700.005	4780.98
700.193	4711.35
700.382	4879.29
700.571	4758.46
700.76	4821.94
700.948	4631.48
701.137	4731.83
701.326	4701.11
701.514	4527.03
701.703	4651.96
701.892	4674.49
702.08	4656.06
702.269	4596.67
702.457	4445.12
702.646	4578.23
702.834	4479.93
703.023	4428.73
703.212	4477.88
703.4	4428.73
703.589	4412.35
703.777	4406.2
703.965	4449.21
704.154	4332.48
704.342	4441.02
704.531	4330.43
704.719	4445.12
704.907	4363.2
705.096	4309.95
705.284	4246.46
705.472	4228.03
705.661	4201.41
705.849	4277.18
706.037	4338.62
706.226	4185.02
706.414	4228.03
706.602	4103.11
706.79	4217.79
706.979	4146.11
707.167	4262.85
707.355	4166.59
707.543	4068.29
707.731	4133.82
707.919	4137.92
708.107	4086.72
708.296	3978.18
708.484	4060.1
708.672	4109.25
708.86	3984.32
709.048	3953.6
709.236	3937.22
709.424	4033.47
709.612	4043.71
709.8	3961.8
709.988	3986.37
710.176	3881.92
710.364	3939.27
710.551	3929.03
710.739	3896.26
710.927	3836.87
711.115	3840.97
711.303	3920.84
711.491	3857.35
711.679	3767.24
711.866	3904.45
712.054	3847.11
712.242	3912.64
712.43	4019.14
712.617	3687.37
712.805	3808.2
712.993	3605.45
713.181	3677.13
713.368	3732.42
713.556	3773.38
713.744	3535.82
713.931	3685.32
714.119	3584.97
714.306	3750.85
714.494	3611.59
714.682	3578.83
714.869	3627.98
715.057	3724.23
715.244	3423.18
715.432	3646.41
715.619	3576.78
715.807	3513.29
715.994	3599.31
716.182	3472.33
716.369	3488.71
716.556	3578.83
716.744	3484.62
716.931	3492.81
717.119	3609.54
717.306	3472.33
717.493	3535.82
717.681	3359.69
717.868	3488.71
718.055	3443.66
718.242	3472.33
718.43	3425.23
718.617	3392.46
718.804	3310.54
718.991	3355.6
719.179	3357.64
719.366	3445.71
719.553	3412.94
719.74	3312.59
719.927	3234.77
720.114	3298.25
720.301	3220.43
720.488	3105.74
720.676	3193.81
720.863	3189.71
721.05	3298.25
721.237	3175.38
721.424	3175.38
721.611	3216.33
721.798	3124.18
721.985	3085.26
722.172	3044.31
722.358	3134.42
722.545	3292.11
722.732	3034.07
722.919	3134.42
723.106	3023.83
723.293	2964.43
723.48	2970.58
723.667	3138.51
723.853	3089.36
724.04	3021.78
724.227	3066.83
724.414	3007.44
724.6	3003.35
724.787	3101.65
724.974	3070.93
725.161	2982.87
725.347	2921.43
725.534	2974.67
725.72	2913.24
725.907	3101.65
726.094	2986.96
726.28	2868.18
726.467	2948.05
726.653	2954.19
726.84	3027.92
727.027	2835.41
727.213	2849.75
727.4	2905.04
727.586	2866.13
727.773	2986.96
727.959	2905.04
728.145	2825.17
728.332	2862.04
728.518	2724.82
728.705	2847.7
728.891	2773.97
729.077	2841.56
729.264	2851.8
729.45	2802.65
729.636	2782.17
729.823	2708.44
730.009	2872.28
730.195	2642.9
730.382	2806.74
730.568	2642.9
730.754	2778.07
730.94	2651.1
731.126	2808.79
731.313	2669.53
731.499	2610.14
731.685	2735.06
731.871	2642.9
732.057	2730.97
732.243	2712.53
732.429	2640.86
732.615	2653.14
732.801	2620.38
732.987	2563.03
733.173	2685.91
733.359	2571.22
733.545	2608.09
733.731	2552.79
733.917	2677.72
734.103	2608.09
734.289	2524.12
734.475	2626.52
734.661	2544.6
734.847	2712.53
735.033	2579.42
735.219	2610.14
735.404	2571.22
735.59	2515.93
735.776	2495.45
735.962	2546.65
736.148	2540.51
736.333	2544.6
736.519	2468.83
736.705	2499.55
736.89	2348
737.076	2454.49
737.262	2438.11
737.447	2638.81
737.633	2364.38
737.819	2485.21
738.004	2489.31
738.19	2345.95
738.375	2503.64
738.561	2503.64
738.747	2391
738.932	2368.48
739.118	2423.77
739.303	2442.2
739.489	2413.53
739.674	2397.15
739.859	2268.13
740.045	2298.84
740.23	2284.51
740.416	2315.23
740.601	2333.66
740.786	2137.06
740.972	2175.97
741.157	2159.58
741.342	2218.97
741.528	2216.93
741.713	2364.38
741.898	2145.25
742.084	2225.12
742.269	2214.88
742.454	2151.39
742.639	2214.88
742.824	2143.2
743.01	2163.68
743.195	2208.73
743.38	2102.24
743.565	2200.54
743.75	2118.62
743.935	2110.43
744.12	2094.05
744.305	1983.46
744.49	2061.28
744.675	2057.18
744.86	2038.75
745.045	2077.66
745.23	2081.76
745.415	2118.62
745.6	2143.2
745.785	1930.21
745.97	1997.79
746.155	1903.59
746.34	1995.75
746.525	1860.58
746.71	2020.32
746.895	1891.3
747.079	1872.87
747.264	2061.28
747.449	1954.79
747.634	1897.44
747.819	1879.01
748.003	1840.1
748.188	1917.92
748.373	1860.58
748.557	1872.87
748.742	1883.11
748.927	1850.34
749.111	1733.61
749.296	1737.7
749.481	1868.77
749.665	1821.67
749.85	1668.07
750.034	1717.22
750.219	1670.12
750.404	1688.55
750.588	1670.12
750.773	1704.93
750.957	1655.78
751.141	1696.74
751.326	1516.52
751.51	1508.33
751.695	1555.43
751.879	1637.35
752.064	1594.34
752.248	1584.1
752.432	1711.08
752.617	1610.73
752.801	1479.66
752.985	1555.43
753.17	1688.55
753.354	1553.38
753.538	1524.71
753.722	1569.77
753.907	1549.29
754.091	1559.53
754.275	1504.23
754.459	1496.04
754.643	1553.38
754.828	1496.04
755.012	1446.89
755.196	1397.74
755.38	1438.7
755.564	1217.52
755.748	1481.71
755.932	1391.59
756.116	1364.97
756.3	1340.4
756.484	1332.2
756.668	1430.51
756.852	1393.64
757.036	1401.83
757.22	1283.05
757.404	1287.15
757.588	1278.96
757.772	1301.48
757.956	1307.63
758.14	1389.55
758.323	1121.26
758.507	1350.64
758.691	1250.28
758.875	1287.15
759.059	1233.9
759.242	1154.03
759.426	1276.91
759.61	1209.33
759.794	1213.42
759.977	1258.48
760.161	1252.33
760.345	1248.24
760.528	1211.37
760.712	1158.13
760.895	1194.99
761.079	1229.81
761.263	1176.56
761.446	1260.52
761.63	1125.36
761.813	1137.65
761.997	1055.73
762.18	1088.5
762.364	1274.86
762.547	1174.51
762.731	1031.15
762.914	1096.69
763.098	1070.06
763.281	1057.78
763.464	1221.61
763.648	1057.78
763.831	1057.78
764.015	996.34
764.198	1059.82
764.381	1043.44
764.564	1025.01
764.748	1051.63
764.931	1135.6
765.114	1020.91
765.297	1004.53
765.481	914.42
765.664	914.42
765.847	984.05
766.03	1037.3
766.213	963.57
766.397	996.34
766.58	1006.58
766.763	1051.63
766.946	1002.48
767.129	922.61
767.312	957.43
767.495	1031.15
767.678	982
767.861	973.81
768.044	900.08
768.227	916.47
768.41	842.74
768.593	1020.91
768.776	996.34
768.959	953.33
769.142	906.23
769.324	902.13
769.507	877.55
769.69	912.37
769.873	943.09
770.056	1004.53
770.239	1012.72
770.421	951.28
770.604	873.46
770.787	910.32
770.97	953.33
771.152	842.74
771.335	906.23
771.518	857.07
771.7	922.61
771.883	912.37
772.066	904.18
772.248	898.03
772.431	914.42
772.613	930.8
772.796	746.48
772.978	947.19
773.161	807.92
773.343	855.03
773.526	818.16
773.708	801.78
773.891	807.92
774.073	742.39
774.256	799.73
774.438	857.07
774.621	801.78
774.803	820.21
774.985	746.48
775.168	791.54
775.35	697.33
775.532	771.06
775.715	738.29
775.897	814.07
776.079	732.15
776.261	674.81
776.444	734.2
776.626	687.09
776.808	781.3
776.99	754.68
777.173	697.33
777.355	709.62
777.537	726
777.719	676.85
777.901	680.95
778.083	654.33
778.265	678.9
778.447	648.18
778.629	717.81
778.811	660.47
778.993	668.66
779.175	726
779.357	672.76
779.539	574.46
779.721	693.24
779.903	582.65
780.085	629.75
780.267	742.39
780.449	648.18
780.631	680.95
780.812	687.09
780.994	693.24
781.176	646.13
781.358	562.17
781.54	539.64
781.721	615.41
781.903	644.09
782.085	623.61
782.267	646.13
782.448	558.07
782.63	578.55
782.812	621.56
782.993	562.17
783.175	566.26
783.357	603.13
783.538	603.13
783.72	592.89
783.901	461.82
784.083	558.07
784.264	562.17
784.446	541.69
784.627	515.06
784.809	547.83
784.99	553.98
785.172	588.79
785.353	447.48
785.535	558.07
785.716	449.53
785.897	447.48
786.079	496.63
786.26	515.06
786.441	504.82
786.623	441.34
786.804	455.67
786.985	515.06
787.167	545.78
787.348	521.21
787.529	459.77
787.71	490.49
787.891	478.2
788.073	508.92
788.254	353.27
788.435	465.91
788.616	508.92
788.797	367.61
788.978	375.8
789.159	390.14
789.34	521.21
789.522	455.67
789.703	416.76
789.884	465.91
790.065	504.82
790.246	406.52
790.427	295.93
790.607	357.37
790.788	400.38
790.969	289.79
791.15	383.99
791.331	347.13
791.512	459.77
791.693	410.62
791.874	390.14
792.054	441.34
792.235	429.05
792.416	349.18
792.597	324.6
792.778	383.99
792.958	357.37
793.139	345.08
793.32	324.6
793.5	322.56
793.681	424.95
793.862	379.9
794.042	359.42
794.223	365.56
794.404	357.37
794.584	332.79
794.765	383.99
794.945	340.99
795.126	267.26
795.306	369.66
795.487	283.64
795.667	300.03
795.848	414.71
796.028	308.22
796.209	340.99
796.389	300.03
796.57	287.74
796.75	316.41
796.93	302.08
797.111	349.18
797.291	209.92
797.471	283.64
797.652	273.4
797.832	218.11
798.012	324.6
798.192	297.98
798.373	283.64
798.553	252.92
798.733	336.89
798.913	205.82
799.093	234.49
799.274	287.74
799.454	314.36
799.634	183.29
799.814	377.85
799.994	242.68
800.174	283.64
800.354	248.83
800.534	310.27
800.714	326.65
800.894	246.78
801.074	271.36
801.254	252.92
801.434	244.73
801.614	220.16
801.794	209.92
801.974	1004.53
802.154	230.4
802.334	271.36
802.514	275.45
802.693	302.08
802.873	308.22
803.053	228.35
803.233	207.87
803.413	234.49
803.592	250.88
803.772	128
803.952	175.1
804.131	224.25
804.311	222.2
804.491	287.74
804.67	136.19
804.85	205.82
805.03	295.93
805.209	271.36
805.389	224.25
805.568	193.53
805.748	250.88
805.928	201.72
806.107	185.34
806.287	197.63
806.466	285.69
806.646	244.73
806.825	203.77
807.004	168.96
807.184	214.01
807.363	203.77
807.543	183.29
807.722	146.43
807.901	195.58
808.081	218.11
808.26	140.29
808.439	197.63
808.619	162.81
808.798	240.64
808.977	111.61
809.156	261.12
809.336	263.16
809.515	220.16
809.694	142.33
809.873	136.19
810.052	252.92
810.231	197.63
810.411	150.53
810.59	214.01
810.769	128
810.948	168.96
811.127	140.29
811.306	152.57
811.485	150.53
811.664	228.35
811.843	179.2
812.022	91.13
812.201	171.01
812.38	132.09
812.559	185.34
812.737	220.16
812.916	201.72
813.095	152.57
813.274	218.11
813.453	154.62
813.632	238.59
813.811	76.8
813.989	232.44
814.168	154.62
814.347	146.43
814.526	236.54
814.704	201.72
814.883	148.48
815.062	152.57
815.24	136.19
815.419	119.81
815.598	142.33
815.776	72.7
815.955	123.9
816.133	46.08
816.312	209.92
816.49	103.42
816.669	146.43
816.847	111.61
817.026	166.91
817.204	95.23
817.383	166.91
817.561	103.42
817.74	177.15
817.918	136.19
818.097	140.29
818.275	91.13
818.453	185.34
818.632	146.43
818.81	123.9
818.988	89.09
819.167	113.66
819.345	132.09
819.523	74.75
819.701	134.14
819.879	173.05
820.058	205.82
820.236	95.23
820.414	144.38
820.592	154.62
820.77	99.33
820.948	156.67
821.127	160.77
821.305	142.33
821.483	136.19
821.661	168.96
821.839	111.61
822.017	142.33
822.195	132.09
822.373	177.15
822.551	148.48
822.729	103.42
822.907	121.85
823.085	201.72
823.262	152.57
823.44	103.42
823.618	152.57
823.796	97.28
823.974	117.76
824.152	130.05
824.329	111.61
824.507	144.38
824.685	87.04
824.863	132.09
825.04	140.29
825.218	105.47
825.396	39.94
825.574	162.81
825.751	89.09
825.929	115.71
826.107	74.75
826.284	107.52
826.462	128
826.639	46.08
826.817	125.95
826.994	60.42
827.172	113.66
827.349	168.96
827.527	113.66
827.704	136.19
827.882	46.08
828.059	78.85
828.237	82.94
828.414	78.85
828.591	7.17
828.769	128
828.946	76.8
829.124	130.05
829.301	136.19
829.478	74.75
829.655	29.7
829.833	107.52
830.01	54.27
830.187	113.66
830.364	74.75
830.542	119.81
830.719	117.76
830.896	78.85
831.073	105.47
831.25	95.23
831.427	121.85
831.604	89.09
831.782	78.85
831.959	132.09
832.136	72.7
832.313	95.23
832.49	103.42
832.667	62.46
832.844	60.42
833.021	84.99
833.198	50.18
833.374	54.27
833.551	54.27
833.728	76.8
833.905	35.84
834.082	58.37
834.259	50.18
834.436	103.42
834.612	31.74
834.789	78.85
834.966	121.85
835.143	105.47
835.319	21.5
835.496	91.13
835.673	72.7
835.85	119.81
836.026	140.29
836.203	35.84
836.38	72.7
836.556	-11.26
836.733	-21.5
836.909	74.75
837.086	58.37
837.262	-3.07
837.439	25.6
837.616	64.51
837.792	39.94
837.968	44.03
838.145	-9.22
838.321	103.42
838.498	9.22
838.674	95.23
838.851	54.27
839.027	23.55
839.203	46.08
839.38	130.05
839.556	48.13
839.732	68.61
839.909	58.37
840.085	84.99
840.261	78.85
840.437	193.53
840.614	11.26
840.79	95.23
840.966	128
841.142	99.33
841.318	21.5
841.494	21.5
841.671	70.65
841.847	7.17
842.023	44.03
842.199	97.28
842.375	109.57
842.551	21.5
842.727	54.27
842.903	105.47
843.079	80.89
843.255	64.51
843.431	62.46
843.607	64.51
843.783	-3.07
843.959	54.27
844.134	54.27
844.31	33.79
844.486	-27.65
844.662	9.22
844.838	50.18
845.013	9.22
845.189	70.65
845.365	58.37
845.541	17.41
845.716	103.42
845.892	13.31
846.068	44.03
846.244	5.12
846.419	138.24
846.595	27.65
846.77	95.23
846.946	39.94
847.122	31.74
847.297	25.6
847.473	119.81
847.648	37.89
847.824	-23.55
847.999	17.41
848.175	72.7
848.35	-23.55
848.526	87.04
848.701	9.22
848.876	-13.31
849.052	111.61
849.227	13.31
849.403	62.46
849.578	7.17
849.753	21.5
849.929	1.02
850.104	7.17
850.279	41.98
850.454	74.75
850.63	68.61
850.805	62.46
850.98	89.09
851.155	89.09
851.33	58.37
851.505	-48.13
851.681	62.46
851.856	13.31
852.031	136.19
852.206	-3.07
852.381	138.24
852.556	46.08
852.731	107.52
852.906	78.85
853.081	-31.74
853.256	82.94
853.431	72.7
853.606	-37.89
853.781	95.23
853.956	64.51
854.131	13.31
854.305	5.12
854.48	-15.36
854.655	-15.36
854.83	-3.07
855.005	52.22
855.18	23.55
855.354	29.7
855.529	80.89
855.704	72.7
855.879	64.51
856.053	-11.26
856.228	1.02
856.403	89.09
856.577	37.89
856.752	3.07
856.926	-17.41
857.101	41.98
857.276	-33.79
857.45	54.27
857.625	95.23
857.799	11.26
857.974	56.32
858.148	64.51
858.323	89.09
858.497	72.7
858.672	29.7
858.846	-17.41
859.02	87.04
859.195	50.18
859.369	39.94
859.543	-17.41
859.718	44.03
859.892	21.5
860.066	1.02
860.241	-3.07
860.415	-19.46
860.589	46.08
860.763	-19.46
860.938	35.84
861.112	25.6
861.286	15.36
861.46	37.89
861.634	89.09
861.808	74.75
861.982	-1.02
862.157	5.12
862.331	-48.13
862.505	7.17
862.679	-27.65
862.853	87.04
863.027	-35.84
863.201	54.27
863.375	-15.36
863.549	48.13
863.722	-52.22
863.896	95.23
864.07	19.46
864.244	13.31
864.418	58.37
864.592	111.61
864.766	64.51
864.939	82.94
865.113	-15.36
865.287	78.85
865.461	-44.03
865.634	50.18
865.808	66.56
865.982	1.02
866.156	-3.07
866.329	-97.28
866.503	21.5
866.676	58.37
866.85	58.37
867.024	-11.26
867.197	37.89
867.371	-31.74
867.544	5.12
867.718	-109.57
867.891	111.61
868.065	5.12
868.238	-9.22
868.412	68.61
868.585	62.46
868.759	-93.18
868.932	7.17
869.105	-33.79
869.279	-23.55
869.452	21.5
869.625	66.56
869.799	7.17
869.972	13.31
870.145	-60.42
870.319	5.12
870.492	17.41
870.665	76.8
870.838	-11.26
871.011	-27.65
871.185	87.04
871.358	5.12
871.531	21.5
871.704	13.31
871.877	-41.98
872.05	-1.02
872.223	-68.61
872.396	1.02
872.569	13.31
872.742	-19.46
872.915	-9.22
873.088	-60.42
873.261	46.08
873.434	7.17
873.607	-25.6
873.78	48.13
873.953	-46.08
874.126	41.98
874.299	78.85
874.471	48.13
874.644	29.7
874.817	54.27
874.99	89.09
875.163	-52.22
875.335	39.94
875.508	-44.03
875.681	58.37
875.853	-15.36
876.026	-27.65
876.199	46.08
876.371	58.37
876.544	9.22
876.717	27.65
876.889	-103.42
877.062	21.5
877.234	21.5
877.407	-27.65
877.579	-21.5
877.752	5.12
877.924	-25.6
878.097	54.27
878.269	-7.17
878.442	37.89
878.614	21.5
878.786	-3.07
878.959	5.12
879.131	21.5
879.303	-7.17
879.476	54.27
879.648	37.89
879.82	-56.32
879.993	-35.84
880.165	29.7
880.337	-19.46
880.509	33.79
880.681	-33.79
880.854	-27.65
881.026	39.94
881.198	140.29
881.37	-3.07
881.542	-11.26
881.714	-31.74
881.886	-52.22
882.058	56.32
882.23	29.7
882.402	72.7
882.574	70.65
882.746	13.31
882.918	-17.41
883.09	15.36
883.262	15.36
883.434	25.6
883.606	29.7
883.778	66.56
883.95	70.65
884.122	31.74
884.293	-33.79
884.465	13.31
884.637	66.56
884.809	23.55
884.98	-35.84
885.152	50.18
885.324	29.7
885.496	-3.07
885.667	15.36
885.839	37.89
886.011	89.09
886.182	21.5
886.354	-37.89
886.525	-52.22
886.697	1.02
886.869	21.5
887.04	58.37
887.212	25.6
887.383	58.37
887.555	-19.46
887.726	41.98
887.897	103.42
888.069	37.89
888.24	56.32
888.412	-3.07
888.583	39.94
888.754	-1.02
888.926	-117.76
889.097	-11.26
889.268	23.55
889.44	46.08
889.611	-35.84
889.782	-11.26
889.953	15.36
890.125	31.74
890.296	-11.26
890.467	-46.08
890.638	5.12
890.809	13.31
890.98	-11.26
891.151	93.18
891.323	89.09
891.494	-9.22
891.665	-31.74
891.836	23.55
892.007	70.65
892.178	5.12
892.349	-31.74
892.52	-54.27
892.691	39.94
892.862	48.13
893.032	-17.41
893.203	17.41
893.374	25.6
893.545	76.8
893.716	-44.03
893.887	66.56
894.057	-19.46
894.228	-46.08
894.399	23.55
894.57	-58.37
894.74	19.46
894.911	105.47
895.082	33.79
895.253	33.79
895.423	1.02
895.594	107.52
895.764	39.94
895.935	-3.07
896.106	13.31
896.276	21.5
896.447	-7.17
896.617	-13.31
896.788	-19.46
896.958	-9.22
897.129	11.26
897.299	-1.02
897.47	70.65
897.64	-3.07
897.81	23.55
897.981	13.31
898.151	-66.56
898.322	37.89
898.492	-11.26
898.662	23.55
898.832	-56.32
899.003	23.55
899.173	-74.75
899.343	48.13
899.513	-9.22
