Data from USB4F104151__267__14-34-35-679.txt Node

Date: Thu Mar 13 14:34:35 EDT 2025
User: louis
Spectrometer: USB4F10415
Trigger mode: 4
Integration Time (sec): 2.500000E-2
Scans to average: 1
Electric dark correction enabled: true
Nonlinearity correction enabled: false
Boxcar width: 0
XAxis mode: Wavelengths
Number of Pixels in Spectrum: 3648
>>>>>Begin Spectral Data<<<<<
178.204	-162.47
178.424	-162.47
178.644	-162.47
178.864	-88.75
179.084	-109.22
179.304	-27.31
179.524	-80.55
179.744	-10.92
179.964	17.75
180.184	13.65
180.404	40.28
180.624	-70.31
180.844	11.61
181.064	-37.55
181.283	34.13
181.503	-4.78
181.723	114
181.943	-51.88
182.163	73.04
182.383	136.53
182.602	58.71
182.822	54.61
183.042	68.95
183.262	17.75
183.482	11.61
183.701	-12.97
183.921	-6.83
184.141	-4.78
184.361	68.95
184.58	83.28
184.8	-31.4
185.02	19.8
185.239	36.18
185.459	-86.7
185.679	27.99
185.898	13.65
186.118	46.42
186.338	-27.31
186.557	-27.31
186.777	95.57
186.997	7.51
187.216	25.94
187.436	83.28
187.655	-23.21
187.875	30.04
188.095	19.8
188.314	91.48
188.534	71
188.753	11.61
188.973	54.61
189.192	91.48
189.412	75.09
189.631	5.46
189.851	21.85
190.07	54.61
190.29	-39.59
190.509	38.23
190.729	-29.35
190.948	13.65
191.168	175.44
191.387	93.52
191.607	-2.73
191.826	58.71
192.045	-55.98
192.265	-23.21
192.484	58.71
192.704	19.8
192.923	54.61
193.142	165.2
193.362	7.51
193.581	46.42
193.8	75.09
194.02	36.18
194.239	58.71
194.458	87.38
194.678	-39.59
194.897	-12.97
195.116	-39.59
195.335	-6.83
195.555	34.13
195.774	9.56
195.993	75.09
196.212	-6.83
196.432	50.52
196.651	58.71
196.87	1.37
197.089	140.63
197.308	-12.97
197.528	3.41
197.747	19.8
197.966	66.9
198.185	71
198.404	-15.02
198.623	157.01
198.842	109.91
199.062	5.46
199.281	11.61
199.5	42.32
199.719	68.95
199.938	103.76
200.157	97.62
200.376	5.46
200.595	107.86
200.814	79.19
201.033	-17.07
201.252	-62.12
201.471	30.04
201.69	-47.79
201.909	27.99
202.128	-10.92
202.347	-39.59
202.566	25.94
202.785	11.61
203.004	-25.26
203.223	50.52
203.442	58.71
203.661	-2.73
203.879	-39.59
204.098	91.48
204.317	5.46
204.536	128.34
204.755	34.13
204.974	-53.93
205.193	71
205.411	50.52
205.63	52.56
205.849	25.94
206.068	44.37
206.287	44.37
206.505	38.23
206.724	9.56
206.943	40.28
207.162	71
207.381	68.95
207.599	-43.69
207.818	21.85
208.037	95.57
208.255	13.65
208.474	9.56
208.693	46.42
208.911	60.76
209.13	68.95
209.349	101.72
209.567	99.67
209.786	30.04
210.005	17.75
210.223	17.75
210.442	13.65
210.661	99.67
210.879	-2.73
211.098	97.62
211.316	19.8
211.535	38.23
211.753	-8.87
211.972	91.48
212.191	-37.55
212.409	-6.83
212.628	25.94
212.846	21.85
213.065	30.04
213.283	93.52
213.502	-23.21
213.72	52.56
213.938	79.19
214.157	60.76
214.375	19.8
214.594	-49.83
214.812	58.71
215.031	40.28
215.249	-6.83
215.467	9.56
215.686	58.71
215.904	83.28
216.122	1.37
216.341	54.61
216.559	93.52
216.778	36.18
216.996	60.76
217.214	30.04
217.432	-23.21
217.651	-0.68
217.869	95.57
218.087	58.71
218.306	36.18
218.524	1.37
218.742	-35.5
218.96	85.33
219.179	62.8
219.397	-45.74
219.615	87.38
219.833	148.82
220.051	-6.83
220.27	44.37
220.488	3.41
220.706	93.52
220.924	25.94
221.142	30.04
221.36	-45.74
221.578	34.13
221.796	50.52
222.015	30.04
222.233	30.04
222.451	71
222.669	1.37
222.887	42.32
223.105	25.94
223.323	-33.45
223.541	-2.73
223.759	91.48
223.977	56.66
224.195	87.38
224.413	54.61
224.631	68.95
224.849	34.13
225.067	77.14
225.285	52.56
225.503	1.37
225.721	-10.92
225.939	32.08
226.157	19.8
226.375	132.44
226.592	118.1
226.81	66.9
227.028	-39.59
227.246	62.8
227.464	42.32
227.682	60.76
227.9	101.72
228.117	1.37
228.335	-6.83
228.553	17.75
228.771	-6.83
228.989	17.75
229.206	17.75
229.424	60.76
229.642	-27.31
229.86	21.85
230.077	56.66
230.295	3.41
230.513	64.85
230.731	-21.16
230.948	3.41
231.166	116.05
231.384	-27.31
231.601	38.23
231.819	34.13
232.037	13.65
232.254	-27.31
232.472	9.56
232.689	-19.11
232.907	42.32
233.125	93.52
233.342	-35.5
233.56	-29.35
233.777	36.18
233.995	-2.73
234.213	68.95
234.43	21.85
234.648	42.32
234.865	-0.68
235.083	85.33
235.3	50.52
235.518	-27.31
235.735	58.71
235.953	144.72
236.17	62.8
236.388	11.61
236.605	11.61
236.822	93.52
237.04	23.89
237.257	-43.69
237.475	-23.21
237.692	19.8
237.909	17.75
238.127	7.51
238.344	21.85
238.562	54.61
238.779	-12.97
238.996	32.08
239.214	-12.97
239.431	107.86
239.648	-12.97
239.865	17.75
240.083	7.51
240.3	-12.97
240.517	-39.59
240.735	25.94
240.952	52.56
241.169	93.52
241.386	93.52
241.603	-6.83
241.821	-6.83
242.038	60.76
242.255	66.9
242.472	17.75
242.689	124.24
242.907	40.28
243.124	42.32
243.341	56.66
243.558	-86.7
243.775	-6.83
243.992	-111.27
244.209	5.46
244.426	89.43
244.643	95.57
244.86	34.13
245.078	68.95
245.295	27.99
245.512	17.75
245.729	-8.87
245.946	91.48
246.163	52.56
246.38	25.94
246.597	44.37
246.814	-4.78
247.031	-70.31
247.248	21.85
247.464	11.61
247.681	68.95
247.898	83.28
248.115	32.08
248.332	-2.73
248.549	83.28
248.766	17.75
248.983	71
249.2	17.75
249.417	-6.83
249.633	-4.78
249.85	60.76
250.067	42.32
250.284	3.41
250.501	60.76
250.717	42.32
250.934	19.8
251.151	-4.78
251.368	25.94
251.585	191.83
251.801	60.76
252.018	5.46
252.235	19.8
252.451	-35.5
252.668	1.37
252.885	116.05
253.102	58.71
253.318	50.52
253.535	25.94
253.752	68.95
253.968	1.37
254.185	-29.35
254.401	40.28
254.618	32.08
254.835	23.89
255.051	56.66
255.268	50.52
255.484	38.23
255.701	1.37
255.917	50.52
256.134	19.8
256.351	-4.78
256.567	58.71
256.784	-21.16
257	58.71
257.217	44.37
257.433	87.38
257.65	56.66
257.866	87.38
258.082	-19.11
258.299	1.37
258.515	34.13
258.732	87.38
258.948	9.56
259.165	132.44
259.381	25.94
259.597	83.28
259.814	58.71
260.03	66.9
260.246	25.94
260.463	-2.73
260.679	126.29
260.895	48.47
261.112	46.42
261.328	77.14
261.544	124.24
261.761	144.72
261.977	44.37
262.193	44.37
262.409	25.94
262.626	13.65
262.842	52.56
263.058	46.42
263.274	50.52
263.49	13.65
263.707	17.75
263.923	66.9
264.139	-113.32
264.355	3.41
264.571	83.28
264.787	-35.5
265.004	107.86
265.22	3.41
265.436	-31.4
265.652	54.61
265.868	71
266.084	17.75
266.3	25.94
266.516	-23.21
266.732	17.75
266.948	83.28
267.164	46.42
267.38	103.76
267.596	-6.83
267.812	11.61
268.028	-2.73
268.244	-15.02
268.46	66.9
268.676	81.24
268.892	34.13
269.108	-6.83
269.324	-37.55
269.54	79.19
269.756	62.8
269.972	-2.73
270.188	42.32
270.403	58.71
270.619	87.38
270.835	17.75
271.051	5.46
271.267	9.56
271.483	5.46
271.698	62.8
271.914	-12.97
272.13	15.7
272.346	32.08
272.562	118.1
272.777	71
272.993	38.23
273.209	-84.65
273.425	-29.35
273.64	19.8
273.856	25.94
274.072	-47.79
274.287	-53.93
274.503	11.61
274.719	-19.11
274.934	3.41
275.15	19.8
275.366	75.09
275.581	-39.59
275.797	34.13
276.012	-15.02
276.228	-4.78
276.444	5.46
276.659	103.76
276.875	21.85
277.09	50.52
277.306	1.37
277.521	-15.02
277.737	25.94
277.952	3.41
278.168	11.61
278.383	34.13
278.599	66.9
278.814	99.67
279.03	83.28
279.245	142.68
279.461	25.94
279.676	58.71
279.892	-23.21
280.107	-10.92
280.322	-6.83
280.538	83.28
280.753	46.42
280.969	99.67
281.184	58.71
281.399	34.13
281.615	-6.83
281.83	-41.64
282.045	27.99
282.26	44.37
282.476	60.76
282.691	25.94
282.906	21.85
283.122	56.66
283.337	19.8
283.552	38.23
283.767	-6.83
283.983	17.75
284.198	-58.03
284.413	75.09
284.628	-19.11
284.843	58.71
285.058	73.04
285.274	9.56
285.489	60.76
285.704	34.13
285.919	-21.16
286.134	52.56
286.349	97.62
286.564	23.89
286.779	91.48
286.995	-64.17
287.21	-15.02
287.425	66.9
287.64	-45.74
287.855	64.85
288.07	30.04
288.285	38.23
288.5	99.67
288.715	42.32
288.93	62.8
289.145	-6.83
289.36	83.28
289.575	19.8
289.79	75.09
290.004	52.56
290.219	-10.92
290.434	116.05
290.649	-109.22
290.864	50.52
291.079	68.95
291.294	46.42
291.509	62.8
291.724	9.56
291.938	66.9
292.153	66.9
292.368	-15.02
292.583	50.52
292.798	95.57
293.012	85.33
293.227	34.13
293.442	54.61
293.657	34.13
293.871	62.8
294.086	52.56
294.301	42.32
294.516	58.71
294.73	9.56
294.945	-37.55
295.16	71
295.374	42.32
295.589	79.19
295.804	27.99
296.018	5.46
296.233	60.76
296.447	107.86
296.662	-10.92
296.877	-29.35
297.091	77.14
297.306	9.56
297.52	-12.97
297.735	13.65
297.949	101.72
298.164	11.61
298.378	42.32
298.593	50.52
298.807	11.61
299.022	23.89
299.236	91.48
299.451	93.52
299.665	-10.92
299.88	17.75
300.094	-31.4
300.309	13.65
300.523	34.13
300.737	-23.21
300.952	66.9
301.166	-10.92
301.381	-45.74
301.595	46.42
301.809	83.28
302.024	7.51
302.238	-15.02
302.452	62.8
302.667	9.56
302.881	75.09
303.095	87.38
303.309	50.52
303.524	-45.74
303.738	42.32
303.952	5.46
304.166	21.85
304.381	9.56
304.595	95.57
304.809	-37.55
305.023	93.52
305.237	83.28
305.452	32.08
305.666	36.18
305.88	34.13
306.094	42.32
306.308	93.52
306.522	83.28
306.736	17.75
306.95	19.8
307.164	-17.07
307.379	60.76
307.593	83.28
307.807	71
308.021	62.8
308.235	-39.59
308.449	3.41
308.663	-15.02
308.877	126.29
309.091	38.23
309.305	77.14
309.519	13.65
309.733	95.57
309.947	-23.21
310.161	68.95
310.374	54.61
310.588	120.15
310.802	17.75
311.016	9.56
311.23	109.91
311.444	-4.78
311.658	9.56
311.872	27.99
312.085	101.72
312.299	42.32
312.513	75.09
312.727	1.37
312.941	1.37
313.154	91.48
313.368	48.47
313.582	60.76
313.796	34.13
314.009	1.37
314.223	60.76
314.437	71
314.651	-19.11
314.864	17.75
315.078	50.52
315.292	-12.97
315.505	27.99
315.719	52.56
315.933	25.94
316.146	77.14
316.36	-31.4
316.573	56.66
316.787	3.41
317.001	3.41
317.214	83.28
317.428	30.04
317.641	-21.16
317.855	19.8
318.068	-12.97
318.282	-15.02
318.495	62.8
318.709	30.04
318.922	-4.78
319.136	132.44
319.349	5.46
319.563	-23.21
319.776	-31.4
319.99	5.46
320.203	13.65
320.417	34.13
320.63	30.04
320.843	134.48
321.057	83.28
321.27	62.8
321.483	38.23
321.697	87.38
321.91	-27.31
322.124	-23.21
322.337	17.75
322.55	34.13
322.763	50.52
322.977	75.09
323.19	25.94
323.403	38.23
323.617	75.09
323.83	27.99
324.043	44.37
324.256	109.91
324.469	11.61
324.683	101.72
324.896	58.71
325.109	87.38
325.322	-27.31
325.535	85.33
325.748	34.13
325.962	17.75
326.175	11.61
326.388	48.47
326.601	13.65
326.814	-45.74
327.027	17.75
327.24	120.15
327.453	-62.12
327.666	48.47
327.879	103.76
328.092	46.42
328.305	-23.21
328.518	-2.73
328.731	25.94
328.944	46.42
329.157	19.8
329.37	13.65
329.583	122.2
329.796	140.63
330.009	-27.31
330.222	25.94
330.435	138.58
330.648	60.76
330.861	93.52
331.073	68.95
331.286	38.23
331.499	58.71
331.712	19.8
331.925	-60.07
332.138	-0.68
332.35	83.28
332.563	-21.16
332.776	-15.02
332.989	1.37
333.202	21.85
333.414	75.09
333.627	30.04
333.84	66.9
334.053	34.13
334.265	95.57
334.478	1.37
334.691	44.37
334.903	-37.55
335.116	-12.97
335.329	19.8
335.541	97.62
335.754	77.14
335.966	17.75
336.179	38.23
336.392	11.61
336.604	-35.5
336.817	34.13
337.029	34.13
337.242	58.71
337.454	-15.02
337.667	-19.11
337.88	34.13
338.092	25.94
338.305	124.24
338.517	-31.4
338.729	34.13
338.942	83.28
339.154	56.66
339.367	1.37
339.579	83.28
339.792	-8.87
340.004	66.9
340.217	5.46
340.429	3.41
340.641	54.61
340.854	77.14
341.066	-0.68
341.278	-21.16
341.491	38.23
341.703	7.51
341.915	60.76
342.128	25.94
342.34	-31.4
342.552	34.13
342.764	-4.78
342.977	71
343.189	-6.83
343.401	44.37
343.613	-17.07
343.826	87.38
344.038	48.47
344.25	5.46
344.462	-68.27
344.674	36.18
344.886	-21.16
345.099	73.04
345.311	60.76
345.523	25.94
345.735	7.51
345.947	34.13
346.159	27.99
346.371	25.94
346.583	11.61
346.795	75.09
347.007	75.09
347.219	54.61
347.431	52.56
347.643	52.56
347.855	-23.21
348.067	77.14
348.279	-0.68
348.491	42.32
348.703	46.42
348.915	107.86
349.127	1.37
349.339	42.32
349.551	-23.21
349.763	36.18
349.975	60.76
350.187	66.9
350.399	134.48
350.61	13.65
350.822	25.94
351.034	118.1
351.246	93.52
351.458	21.85
351.669	77.14
351.881	91.48
352.093	109.91
352.305	27.99
352.517	52.56
352.728	30.04
352.94	68.95
353.152	9.56
353.363	-39.59
353.575	32.08
353.787	89.43
353.999	21.85
354.21	107.86
354.422	-60.07
354.633	15.7
354.845	38.23
355.057	75.09
355.268	-29.35
355.48	25.94
355.692	11.61
355.903	27.99
356.115	25.94
356.326	-6.83
356.538	3.41
356.749	83.28
356.961	79.19
357.172	25.94
357.384	-43.69
357.595	46.42
357.807	-23.21
358.018	42.32
358.23	99.67
358.441	95.57
358.653	-0.68
358.864	25.94
359.075	87.38
359.287	30.04
359.498	50.52
359.709	85.33
359.921	48.47
360.132	75.09
360.344	107.86
360.555	1.37
360.766	38.23
360.977	7.51
361.189	58.71
361.4	25.94
361.611	79.19
361.823	58.71
362.034	40.28
362.245	21.85
362.456	66.9
362.667	40.28
362.879	-41.64
363.09	66.9
363.301	144.72
363.512	36.18
363.723	42.32
363.935	1.37
364.146	91.48
364.357	7.51
364.568	107.86
364.779	21.85
364.99	87.38
365.201	-21.16
365.412	116.05
365.623	36.18
365.834	-21.16
366.045	-0.68
366.256	52.56
366.467	52.56
366.678	34.13
366.889	-27.31
367.1	-31.4
367.311	66.9
367.522	42.32
367.733	42.32
367.944	-2.73
368.155	34.13
368.366	30.04
368.577	13.65
368.788	32.08
368.999	27.99
369.209	77.14
369.42	107.86
369.631	140.63
369.842	25.94
370.053	13.65
370.264	126.29
370.474	-17.07
370.685	103.76
370.896	85.33
371.107	66.9
371.317	71
371.528	-2.73
371.739	9.56
371.95	42.32
372.16	116.05
372.371	-39.59
372.582	50.52
372.792	101.72
373.003	83.28
373.214	-2.73
373.424	132.44
373.635	46.42
373.846	58.71
374.056	75.09
374.267	79.19
374.477	130.39
374.688	11.61
374.898	-4.78
375.109	-31.4
375.319	17.75
375.53	34.13
375.74	52.56
375.951	-4.78
376.161	19.8
376.372	48.47
376.582	11.61
376.793	-2.73
377.003	-27.31
377.214	75.09
377.424	-39.59
377.635	17.75
377.845	60.76
378.055	130.39
378.266	46.42
378.476	13.65
378.686	5.46
378.897	25.94
379.107	64.85
379.317	99.67
379.528	50.52
379.738	103.76
379.948	27.99
380.158	38.23
380.369	77.14
380.579	42.32
380.789	13.65
380.999	52.56
381.21	46.42
381.42	144.72
381.63	-15.02
381.84	54.61
382.05	87.38
382.261	109.91
382.471	111.96
382.681	62.8
382.891	23.89
383.101	60.76
383.311	11.61
383.521	34.13
383.731	75.09
383.941	52.56
384.151	27.99
384.361	-2.73
384.571	1.37
384.781	42.32
384.991	68.95
385.201	87.38
385.411	85.33
385.621	11.61
385.831	30.04
386.041	75.09
386.251	1.37
386.461	58.71
386.671	-6.83
386.881	34.13
387.091	30.04
387.301	79.19
387.511	11.61
387.72	34.13
387.93	19.8
388.14	79.19
388.35	54.61
388.56	34.13
388.769	1.37
388.979	-6.83
389.189	50.52
389.399	111.96
389.609	93.52
389.818	107.86
390.028	83.28
390.238	38.23
390.447	27.99
390.657	87.38
390.867	25.94
391.076	19.8
391.286	1.37
391.496	66.9
391.705	1.37
391.915	99.67
392.125	91.48
392.334	71
392.544	136.53
392.753	9.56
392.963	58.71
393.172	-23.21
393.382	46.42
393.591	159.06
393.801	60.76
394.01	134.48
394.22	150.87
394.429	42.32
394.639	64.85
394.848	91.48
395.058	27.99
395.267	25.94
395.477	105.81
395.686	122.2
395.895	122.2
396.105	173.39
396.314	71
396.524	34.13
396.733	83.28
396.942	91.48
397.152	75.09
397.361	169.3
397.57	68.95
397.78	52.56
397.989	101.72
398.198	66.9
398.407	132.44
398.617	124.24
398.826	13.65
399.035	50.52
399.244	93.52
399.453	52.56
399.663	73.04
399.872	44.37
400.081	103.76
400.29	165.2
400.499	99.67
400.708	183.63
400.917	91.48
401.127	62.8
401.336	124.24
401.545	83.28
401.754	111.96
401.963	89.43
402.172	71
402.381	146.77
402.59	128.34
402.799	71
403.008	107.86
403.217	159.06
403.426	66.9
403.635	87.38
403.844	124.24
404.053	109.91
404.262	128.34
404.471	165.2
404.68	91.48
404.888	181.59
405.097	126.29
405.306	101.72
405.515	136.53
405.724	122.2
405.933	81.24
406.142	136.53
406.35	218.45
406.559	116.05
406.768	132.44
406.977	157.01
407.185	185.68
407.394	165.2
407.603	150.87
407.812	216.4
408.02	195.92
408.229	271.7
408.438	263.51
408.646	161.11
408.855	224.59
409.064	232.79
409.272	220.5
409.481	249.17
409.69	208.21
409.898	247.12
410.107	236.88
410.315	304.46
410.524	197.97
410.733	374.1
410.941	329.04
411.15	374.1
411.358	357.71
411.567	388.43
411.775	339.28
411.984	437.58
412.192	363.86
412.401	398.67
412.609	480.59
412.818	468.3
413.026	443.73
413.234	554.32
413.443	488.78
413.651	431.44
413.86	410.96
414.068	503.12
414.276	478.54
414.485	568.65
414.693	558.41
414.901	638.28
415.11	591.18
415.318	630.09
415.526	611.66
415.734	623.95
415.943	724.3
416.151	742.73
416.359	722.25
416.567	752.97
416.776	752.97
416.984	906.57
417.192	902.47
417.4	873.8
417.608	849.22
417.817	824.65
418.025	920.9
418.233	1011.01
418.441	992.58
418.649	1058.12
418.857	1074.5
419.065	1181
419.273	1074.5
419.481	1205.57
419.689	1230.15
419.897	1295.68
420.105	1283.39
420.313	1377.6
420.521	1508.67
420.729	1445.18
420.937	1385.79
421.145	1561.92
421.353	1559.87
421.561	1707.32
421.769	1729.85
421.977	1867.06
422.185	1787.19
422.393	1897.78
422.601	1963.32
422.809	1975.61
423.017	2024.76
423.224	2161.97
423.432	2268.47
423.64	2207.03
423.848	2327.86
424.056	2254.13
424.263	2538.8
424.471	2616.62
424.679	2596.14
424.887	2645.29
425.094	2780.46
425.302	2819.37
425.51	2929.96
425.718	2977.06
425.925	2925.86
426.133	3024.17
426.341	3327.27
426.548	3427.62
426.756	3351.84
426.964	3261.73
427.171	3626.27
427.379	3738.91
427.586	3753.24
427.794	3855.64
428.001	4074.78
428.209	4293.91
428.417	4199.7
428.624	4422.93
428.832	4435.22
429.039	4343.06
429.247	4424.98
429.454	4699.41
429.662	5203.21
429.869	4834.57
430.076	5162.25
430.284	5092.62
430.491	5256.45
430.699	5588.22
430.906	5575.94
431.114	5700.86
431.321	5940.47
431.528	5948.67
431.736	6212.85
431.943	6610.16
432.15	6395.12
432.358	6450.42
432.565	6872.3
432.772	6915.31
432.979	7089.39
433.187	7087.34
433.394	7277.8
433.601	7890.14
433.808	7857.37
434.016	7853.28
434.223	8053.98
434.43	8488.15
434.637	8363.22
434.844	9143.5
435.052	9008.33
435.259	8987.85
435.466	9028.81
435.673	9090.25
435.88	9383.11
436.087	10142.91
436.294	10112.19
436.501	9704.64
436.708	9974.97
436.915	10482.87
437.122	10677.43
437.329	10724.53
437.537	11095.21
437.743	11355.3
437.95	11152.56
438.157	11855.01
438.364	12315.8
438.571	12211.35
438.778	12158.11
438.985	13210.76
439.192	12774.55
439.399	13327.5
439.606	12774.55
439.813	13917.31
440.02	14584.95
440.227	14152.83
440.433	14328.95
440.64	14648.44
440.847	14441.59
441.054	15146.09
441.261	15828.07
441.467	15514.73
441.674	15643.75
441.881	16335.96
442.088	16340.06
442.294	16174.17
442.501	16563.29
442.708	16878.68
442.914	17609.8
443.121	18152.51
443.328	17880.13
443.534	19141.68
443.741	18730.04
443.948	18279.49
444.154	19885.09
444.361	19655.72
444.568	19561.51
444.774	19784.74
444.981	19952.68
445.187	20352.03
445.394	21140.5
445.6	21081.11
445.807	23004.15
446.013	21885.96
446.22	22561.79
446.426	23225.33
446.633	23546.86
446.839	24296.42
447.046	23401.46
447.252	24460.26
447.459	24609.76
447.665	24611.81
447.871	25865.16
448.078	26717.12
448.284	25430.99
448.491	26170.31
448.697	27128.76
448.903	27493.3
449.11	27579.31
449.316	27360.18
449.522	27704.24
449.728	28646.3
449.935	28773.28
450.141	28971.93
450.347	29701.01
450.553	28396.45
450.76	29053.85
450.966	29631.38
451.172	29590.42
451.378	30477.19
451.584	29688.72
451.791	30360.45
451.997	30278.54
452.203	30595.97
452.409	30821.25
452.615	30694.27
452.821	29250.46
453.027	29016.99
453.233	30944.13
453.44	29449.11
453.646	29868.94
453.852	29963.15
454.058	30198.66
454.264	29457.3
454.47	30018.44
454.676	29475.73
454.882	30153.61
455.088	27661.23
455.294	27937.71
455.5	28564.39
455.705	28918.68
455.911	27689.9
456.117	27034.55
456.323	26696.64
456.529	25136.09
456.735	26584
456.941	25461.71
457.147	25297.88
457.352	24163.3
457.558	24341.47
457.764	24386.53
457.97	23669.74
458.176	23415.79
458.381	23274.48
458.587	22184.96
458.793	21996.55
458.999	20780.06
459.204	22260.74
459.41	21617.68
459.616	20509.72
459.821	20100.13
460.027	20237.34
460.233	19813.42
460.438	18893.88
460.644	19135.54
460.85	18156.61
461.055	17873.99
461.261	17314.89
461.466	16421.98
461.672	15928.42
461.878	17001.55
462.083	15957.09
462.289	15621.22
462.494	15418.47
462.7	14767.22
462.905	14058.62
463.111	14791.8
463.316	14804.08
463.522	14437.5
463.727	14427.26
463.932	14677.11
464.138	14320.76
464.343	14384.25
464.549	13882.5
464.754	14449.78
464.959	14324.86
465.165	13995.14
465.37	13550.73
465.575	13198.48
465.781	13479.05
465.986	13882.5
466.191	13245.58
466.397	13053.07
466.602	12334.23
466.807	12878.99
467.012	12817.55
467.218	12555.41
467.423	12428.44
467.628	12395.67
467.833	13169.8
468.038	12473.49
468.244	12317.85
468.449	12559.51
468.654	12166.3
468.859	12063.9
469.064	12059.81
469.269	11414.7
469.474	11478.18
469.679	11711.65
469.885	11486.37
470.09	11715.75
470.295	11617.44
470.5	11306.15
470.705	11553.96
470.91	11048.11
471.115	11211.95
471.32	11093.16
471.525	11175.08
471.73	11001.01
471.935	10634.42
472.139	10196.15
472.344	10519.73
472.549	10605.75
472.754	10235.07
472.959	10110.14
473.164	10058.94
473.369	9706.69
473.574	9884.86
473.778	9858.24
473.983	9774.27
474.188	9866.43
474.393	9192.65
474.598	9340.1
474.802	9290.95
475.007	9508.04
475.212	9112.78
475.417	8914.13
475.621	9008.33
475.826	9014.48
476.031	8770.77
476.235	8629.46
476.44	8592.59
476.645	8561.87
476.849	8602.83
477.054	8418.52
477.259	8293.59
477.463	8410.32
477.668	8244.44
477.872	8105.18
478.077	7900.38
478.282	7970.01
478.486	7959.77
478.691	7757.02
478.895	7800.03
479.1	7683.3
479.304	7791.84
479.509	7591.14
479.713	7644.38
479.918	7521.51
480.122	7447.78
480.326	7609.57
480.531	7644.38
480.735	7423.2
480.94	7343.33
481.144	7505.12
481.348	7195.88
481.553	7216.36
481.757	7163.11
481.961	7259.37
482.166	7320.81
482.37	7021.8
482.574	7032.04
482.778	6999.27
482.983	7128.3
483.187	7087.34
483.391	7132.39
483.595	7093.48
483.8	7007.47
484.004	7138.54
484.208	7138.54
484.412	7099.62
484.616	7046.38
484.821	7062.76
485.025	6907.12
485.229	6978.79
485.433	6866.16
485.637	6927.6
485.841	7183.59
486.045	7038.19
486.249	7079.15
486.453	6913.26
486.657	6980.84
486.861	6913.26
487.065	6956.27
487.269	6972.65
487.473	6827.25
487.677	7054.57
487.881	7220.46
488.085	6935.79
488.289	7029.99
488.493	6892.78
488.697	6952.17
488.901	7005.42
489.105	6941.93
489.309	6995.18
489.512	7040.23
489.716	7025.9
489.92	6882.54
490.124	6857.96
490.328	6954.22
490.531	7107.82
490.735	7099.62
490.939	6989.03
491.143	7222.5
491.346	7132.39
491.55	7122.15
491.754	7091.43
491.958	7054.57
492.161	7095.53
492.365	7066.86
492.569	7173.35
492.772	7046.38
492.976	7415.01
493.18	7275.75
493.383	7511.27
493.587	7255.27
493.79	7433.44
493.994	7296.23
494.197	7525.6
494.401	7359.72
494.605	7412.96
494.808	7621.86
495.012	7566.56
495.215	7628
495.419	7662.82
495.622	7464.16
495.825	7671.01
496.029	7838.94
496.232	8041.69
496.436	7843.04
496.639	8223.96
496.843	7992.54
497.046	8193.24
497.249	8301.78
497.453	8162.52
497.656	8144.09
497.859	8246.49
498.063	8281.3
498.266	8582.35
498.469	8545.49
498.673	8516.82
498.876	8621.27
499.079	8791.25
499.282	8596.69
499.485	8971.47
499.689	8844.49
499.892	9131.21
500.095	9030.86
500.298	9252.04
500.501	9254.09
500.705	9219.27
500.908	9340.1
501.111	9487.56
501.314	9428.17
501.517	9905.34
501.72	9809.09
501.923	9784.51
502.126	9790.66
502.329	10020.03
502.532	10142.91
502.735	10407.09
502.938	10378.42
503.141	10390.71
503.344	10742.96
503.547	10755.25
503.75	10808.5
503.953	10831.02
504.156	10896.56
504.359	11101.36
504.562	11261.1
504.765	11431.08
504.968	11523.24
505.17	11562.15
505.373	11406.5
505.576	11494.57
505.779	11963.55
505.982	11996.32
506.185	12233.88
506.387	12199.07
506.59	12428.44
506.793	12635.28
506.996	12588.18
507.198	12956.82
507.401	12987.54
507.604	12952.72
507.807	13083.79
508.009	13364.36
508.212	13227.15
508.415	13620.36
508.617	13784.19
508.82	13624.45
509.022	13962.37
509.225	14109.82
509.428	14017.66
509.63	14193.79
509.833	14449.78
510.035	14552.18
510.238	14558.33
510.44	14881.91
510.643	14926.96
510.845	15174.77
511.048	15264.88
511.25	15635.56
511.453	15412.33
511.655	16245.85
511.858	15729.77
512.06	15823.97
512.262	16032.86
512.465	16213.09
512.667	16628.82
512.87	16563.29
513.072	16469.08
513.274	17169.49
513.477	17159.25
513.679	17314.89
513.881	17411.15
514.084	17355.85
514.286	17474.63
514.488	17925.19
514.69	18127.94
514.893	18117.7
515.095	18248.77
515.297	18291.77
515.499	18654.26
515.701	18889.78
515.904	18697.27
516.106	19311.66
516.308	19172.4
516.51	19461.16
516.712	19422.25
516.914	19833.89
517.116	19958.82
517.318	20067.36
517.52	20177.95
517.722	20065.32
517.925	20476.96
518.127	20669.47
518.329	20757.53
518.531	20569.12
518.733	21324.82
518.935	21451.79
519.136	21404.69
519.338	21623.82
519.54	21748.75
519.742	21580.81
519.944	21828.62
520.146	22408.19
520.348	22320.13
520.55	22293.51
520.752	22389.76
520.954	23090.17
521.155	22361.09
521.357	23143.41
521.559	23159.8
521.761	23350.26
521.963	23346.16
522.164	23409.65
522.366	23184.37
522.568	23567.34
522.77	23655.4
522.971	23911.4
523.173	23798.76
523.375	24015.85
523.576	23938.02
523.778	23919.59
523.98	24269.79
524.181	24505.31
524.383	24269.79
524.584	24312.8
524.786	24540.13
524.988	24546.27
525.189	24597.47
525.391	24929.24
525.592	24757.21
525.794	25033.69
525.995	25005.02
526.197	24783.84
526.398	25043.93
526.6	24921.05
526.801	25189.33
527.003	24945.62
527.204	24964.06
527.406	25293.78
527.607	25105.37
527.808	25465.81
528.01	24888.28
528.211	25013.21
528.412	25244.63
528.614	25338.83
528.815	24990.68
529.016	25656.27
529.218	24951.77
529.419	25277.4
529.62	25021.4
529.822	24939.48
530.023	24687.58
530.224	25291.73
530.425	24984.54
530.626	24706.01
530.828	24769.5
531.029	25285.59
531.23	24585.18
531.431	24867.8
531.632	24757.21
531.833	24740.83
532.035	24576.99
532.236	24951.77
532.437	24886.23
532.638	24658.91
532.839	24935.38
533.04	24579.04
533.241	24646.62
533.442	24882.14
533.643	24304.61
533.844	24386.53
534.045	24376.29
534.246	24114.15
534.447	24329.19
534.648	24495.07
534.849	24042.47
535.05	24073.19
535.251	24259.56
535.451	24058.85
535.652	24017.89
535.853	23755.75
536.054	23925.74
536.255	23800.81
536.456	23739.37
536.657	24253.41
536.857	23782.38
537.058	23694.32
537.259	23471.09
537.46	23669.74
537.66	23268.34
537.861	23544.81
538.062	23348.21
538.263	23370.74
538.463	23428.08
538.664	23231.47
538.865	23178.23
539.065	23428.08
539.266	23077.88
539.466	23014.39
539.667	23149.56
539.868	23376.88
540.068	23157.75
540.269	23190.52
540.469	23192.56
540.67	23211
540.87	23049.21
541.071	22936.57
541.271	23241.71
541.472	22823.93
541.672	23163.89
541.873	22643.71
542.073	22588.41
542.274	23219.19
542.474	23006.2
542.675	22838.26
542.875	22905.85
543.075	22868.98
543.276	22639.61
543.476	22955
543.676	22674.43
543.877	22660.09
544.077	22891.51
544.277	22584.32
544.478	22690.81
544.678	22684.67
544.878	22660.09
545.078	22905.85
545.279	22483.97
545.479	22680.57
545.679	22541.31
545.879	22897.66
546.079	22477.82
546.28	22469.63
546.48	22303.74
546.68	22656
546.88	22721.53
547.08	22477.82
547.28	22819.83
547.48	22664.19
547.68	22619.13
547.88	22598.65
548.081	22942.71
548.281	22543.36
548.481	22643.71
548.681	22979.57
548.881	22764.54
549.081	22608.89
549.28	22729.72
549.48	22787.07
549.68	22590.46
549.88	23006.2
550.08	22742.01
550.28	23159.8
550.48	22821.88
550.68	23120.88
550.88	22795.26
551.08	23147.51
551.279	22789.11
551.479	22860.79
551.679	23049.21
551.879	23067.64
552.079	22850.55
552.278	22977.53
552.478	23325.68
552.678	23110.64
552.878	23251.95
553.077	22989.81
553.277	23041.01
553.477	23430.13
553.676	23141.36
553.876	23262.19
554.076	23180.28
554.275	23145.46
554.475	23213.04
554.674	23501.81
554.874	23352.31
555.074	23335.92
555.273	23565.29
555.473	23626.73
555.672	23294.96
555.872	23538.67
556.071	23419.89
556.271	23673.84
556.47	23712.75
556.67	23288.82
556.869	23520.24
557.068	23686.12
557.268	23481.33
557.467	23639.02
557.667	24091.62
557.866	23456.75
558.065	23372.78
558.265	23593.97
558.464	23421.94
558.663	24052.71
558.863	23544.81
559.062	24294.37
559.261	23583.73
559.461	23770.09
559.66	23522.29
559.859	23813.1
560.058	23718.89
560.258	23903.21
560.457	23882.73
560.656	23946.22
560.855	23929.83
561.054	23993.32
561.253	23847.91
561.453	23876.58
561.652	23884.78
561.851	24075.24
562.05	23790.57
562.249	23954.41
562.448	23831.53
562.647	23817.19
562.846	23921.64
563.045	24228.84
563.244	23839.72
563.443	24179.68
563.642	23796.71
563.841	23905.26
564.04	23802.86
564.239	23933.93
564.438	23737.32
564.637	23765.99
564.836	23798.76
565.035	23583.73
565.234	23811.05
565.432	23466.99
565.631	23593.97
565.83	23579.63
566.029	23452.66
566.228	23774.19
566.427	23532.53
566.625	23239.67
566.824	23000.05
567.023	23561.2
567.222	23020.53
567.42	23163.89
567.619	23282.67
567.818	22918.14
568.016	23337.97
568.215	22975.48
568.414	22903.8
568.612	22948.86
568.811	23036.92
569.01	22764.54
569.208	22744.06
569.407	23170.04
569.605	22793.21
569.804	22756.35
570.002	22412.29
570.201	22701.05
570.4	22617.08
570.598	22201.35
570.797	22002.69
570.995	22436.86
571.193	22074.37
571.392	22514.69
571.59	22211.59
571.789	22047.75
571.987	21801.99
572.186	21801.99
572.384	21849.1
572.582	21951.49
572.781	21824.52
572.979	21466.13
573.177	21468.17
573.376	21380.11
573.574	21546
573.772	21505.04
573.971	21337.1
574.169	21406.73
574.367	20909.08
574.565	21052.44
574.763	21005.33
574.962	20929.56
575.16	20800.54
575.358	20947.99
575.556	20591.64
575.754	21050.39
575.952	20356.13
576.151	20651.03
576.349	20048.93
576.547	20204.58
576.745	20489.24
576.943	20079.65
577.141	20218.91
577.339	20214.82
577.537	20149.28
577.735	20298.78
577.933	20020.26
578.131	19782.7
578.329	19893.29
578.527	19522.6
578.725	20018.21
578.923	19530.8
579.121	19627.05
579.319	19463.21
579.516	19452.97
579.714	19399.73
579.912	19160.11
580.11	19090.48
580.308	19162.16
580.506	19065.91
580.704	18900.02
580.901	19039.28
581.099	19377.2
581.297	19035.19
581.495	18836.53
581.692	18721.85
581.89	18678.84
582.088	18777.14
582.285	18639.93
582.483	18441.28
582.681	18613.31
582.878	18535.48
583.076	18424.89
583.274	18533.43
583.471	18433.08
583.669	18373.69
583.866	18064.45
584.064	18551.87
584.262	18078.79
584.459	18140.22
584.657	17978.43
584.854	18068.55
585.052	17798.21
585.249	18050.11
585.447	17974.34
585.644	17597.51
585.841	17787.97
586.039	17828.93
586.236	17579.08
586.434	17572.94
586.631	17546.31
586.828	17353.8
587.026	17589.32
587.223	17130.58
587.42	17503.31
587.618	17550.41
587.815	17407.05
588.012	17202.25
588.21	17511.5
588.407	17556.55
588.604	17239.12
588.801	17069.14
588.999	17384.52
589.196	16952.4
589.393	17093.71
589.59	17185.87
589.787	17030.23
589.984	16884.82
590.182	17165.39
590.379	17300.56
590.576	16911.44
590.773	17138.77
590.97	16864.34
591.167	17120.34
591.364	16718.93
591.561	16974.93
591.758	16663.64
591.955	16761.94
592.152	16933.97
592.349	16602.2
592.546	17075.28
592.743	16811.09
592.94	16690.26
593.137	16876.63
593.334	16782.42
593.531	16458.84
593.727	16741.46
593.924	16884.82
594.121	16522.33
594.318	16954.45
594.515	16557.14
594.712	16729.17
594.908	16608.34
595.105	16520.28
595.302	16600.15
595.499	16837.72
595.696	16720.98
595.892	16417.88
596.089	16571.48
596.286	16792.66
596.482	16630.87
596.679	16909.4
596.876	16993.36
597.072	16979.03
597.269	16577.62
597.466	16583.77
597.662	16862.29
597.859	16798.81
598.055	16569.43
598.252	16606.3
598.448	16905.3
598.645	16833.62
598.841	16913.49
599.038	16714.84
599.234	17173.58
599.431	16860.24
599.627	16704.6
599.824	17179.73
600.02	17130.58
600.217	17253.45
600.413	17019.99
600.609	17257.55
600.806	17067.09
601.002	17261.65
601.198	17349.71
601.395	17204.3
601.591	17237.07
601.787	17034.32
601.984	17384.52
602.18	17599.56
602.376	17681.48
602.572	17241.17
602.769	17529.93
602.965	17550.41
603.161	17849.41
603.357	17886.28
603.553	17759.3
603.75	17919.04
603.946	17607.75
604.142	17990.72
604.338	17863.75
604.534	18105.41
604.73	17609.8
604.926	17929.28
605.122	18140.22
605.318	18095.17
605.514	18193.47
605.71	18224.19
605.906	18129.98
606.102	18445.37
606.298	18162.75
606.494	18316.35
606.69	18566.2
606.886	18678.84
607.082	18160.7
607.278	18748.47
607.474	18213.95
607.67	18773.05
607.866	18377.79
608.062	19137.59
608.257	18852.92
608.453	18703.42
608.649	18887.73
608.845	18672.7
609.041	18910.26
609.236	19235.89
609.432	19172.4
609.628	19004.47
609.824	18940.98
610.019	19303.47
610.215	18951.22
610.411	19569.71
610.606	19256.37
610.802	19272.75
610.998	19567.66
611.193	19379.25
611.389	19412.01
611.584	19479.6
611.78	19549.23
611.976	19668.01
612.171	19514.41
612.367	19899.43
612.562	19674.15
612.758	19575.85
612.953	19891.24
613.149	19682.35
613.344	19723.3
613.539	19909.67
613.735	20263.97
613.93	20198.43
614.126	19946.53
614.321	20247.58
614.517	20036.64
614.712	19887.14
614.907	19936.29
615.103	20229.15
615.298	19883.05
615.493	20186.15
615.688	19698.73
615.884	20300.83
616.079	20061.22
616.274	20251.68
616.47	20165.67
616.665	20276.26
616.86	20149.28
617.055	19958.82
617.25	20026.4
617.445	20304.93
617.641	19885.09
617.836	20532.25
618.031	19891.24
618.226	20055.08
618.421	19813.42
618.616	19944.49
618.811	19741.74
619.006	20317.22
619.201	19790.89
619.396	19946.53
619.591	19700.78
619.786	19751.98
619.981	19649.58
620.176	19717.16
620.371	19555.37
620.566	19559.47
620.761	19477.55
620.956	19532.84
621.151	19604.52
621.346	19639.34
621.541	19287.09
621.735	19344.43
621.93	19076.15
622.125	19225.65
622.32	18717.75
622.515	19049.52
622.709	18897.97
622.904	18998.32
623.099	18562.11
623.294	18981.94
623.488	18691.13
623.683	18617.4
623.878	18291.77
624.072	18646.07
624.267	18170.94
624.462	18117.7
624.656	18037.83
624.851	18228.29
625.046	17947.72
625.24	17833.03
625.435	17998.91
625.629	17556.55
625.824	17970.24
626.018	17847.36
626.213	17540.17
626.407	17609.8
626.602	17394.76
626.796	17742.92
626.991	17329.23
627.185	17151.06
627.38	16958.55
627.574	17157.2
627.768	16868.44
627.963	16860.24
628.157	16690.26
628.352	16782.42
628.546	16501.85
628.74	16667.74
628.935	16456.79
629.129	16489.56
629.323	16079.97
629.517	16331.87
629.712	16419.93
629.906	15959.14
630.1	15707.24
630.294	16112.74
630.489	15885.41
630.683	15606.89
630.877	15774.82
631.071	15582.31
631.265	15795.3
631.459	15291.5
631.653	15678.57
631.848	15379.56
632.042	15381.61
632.236	15393.9
632.43	15115.37
632.624	15080.56
632.818	14865.52
633.012	14883.95
633.206	14785.65
633.4	14998.64
633.594	14470.26
633.788	14556.28
633.982	14597.24
634.176	14742.64
634.369	14435.45
634.563	14478.46
634.757	14253.18
634.951	14247.04
635.145	14046.33
635.339	14130.3
635.533	13978.75
635.726	13804.67
635.92	13812.87
636.114	13907.07
636.308	13616.26
636.501	13790.34
636.695	13773.96
636.889	13370.51
637.083	13452.42
637.276	13534.34
637.47	13249.68
637.664	13300.87
637.857	13200.52
638.051	12878.99
638.244	12940.43
638.438	12934.29
638.632	12932.24
638.825	12711.06
639.019	12428.44
639.212	12491.93
639.406	12506.26
639.599	12455.06
639.793	12526.74
639.986	12436.63
640.18	12262.55
640.373	12199.07
640.567	11807.91
640.76	12162.2
640.954	11918.5
641.147	11603.11
641.34	11764.9
641.534	11814.05
641.727	11633.83
641.92	11414.7
642.114	11545.77
642.307	11556
642.5	11474.09
642.694	11207.85
642.887	11211.95
643.08	11173.03
643.273	11193.51
643.467	10904.75
643.66	10894.51
643.853	10724.53
644.046	10654.9
644.239	10673.33
644.432	10706.1
644.626	10446.01
644.819	10380.47
645.012	10398.9
645.205	10341.56
645.398	10296.5
645.591	10226.87
645.784	10269.88
645.977	9987.26
646.17	10077.37
646.363	9956.54
646.556	9753.79
646.749	9856.19
646.942	9819.33
647.135	9766.08
647.328	9620.67
647.521	9585.86
647.714	9409.73
647.907	9620.67
648.099	9333.96
648.292	9479.36
648.485	9325.77
648.678	9170.12
648.871	9225.42
649.064	9143.5
649.256	9325.77
649.449	8918.22
649.642	8828.11
649.835	8768.72
650.027	8965.32
650.22	8842.45
650.413	8674.51
650.605	8840.4
650.798	8635.6
650.991	8537.3
651.183	8703.18
651.376	8621.27
651.568	8639.7
651.761	8514.77
651.954	8490.2
652.146	8430.8
652.339	8436.95
652.531	8424.66
652.724	8193.24
652.916	8156.38
653.109	8133.85
653.301	8094.94
653.494	8279.25
653.686	7957.72
653.879	8080.6
654.071	7767.26
654.263	7855.33
654.456	7742.69
654.648	7763.17
654.84	7554.27
655.033	7750.88
655.225	7783.65
655.417	7490.79
655.61	7693.54
655.802	7593.19
655.994	7466.21
656.186	7488.74
656.379	7513.31
656.571	7255.27
656.763	7185.64
656.955	7300.33
657.148	7308.52
657.34	7279.85
657.532	7013.61
657.724	7161.06
657.916	7148.78
658.108	7105.77
658.3	7017.71
658.492	7025.9
658.684	6794.48
658.876	6939.88
659.068	6790.38
659.26	6778.09
659.452	6685.94
659.644	6632.69
659.836	6702.32
660.028	6587.63
660.22	6563.06
660.412	6497.52
660.604	6495.47
660.796	6522.1
660.988	6518
661.18	6399.22
661.372	6393.08
661.563	6423.8
661.755	6216.95
661.947	6481.14
662.139	6161.66
662.331	6165.75
662.522	6231.29
662.714	6087.93
662.906	6122.74
663.097	6026.49
663.289	5874.94
663.481	6055.16
663.673	5932.28
663.864	5991.67
664.056	5862.65
664.247	5866.75
664.439	5969.15
664.631	5760.25
664.822	5795.07
665.014	5637.38
665.205	5948.67
665.397	5686.53
665.588	5571.84
665.78	5520.64
665.971	5440.77
666.163	5649.66
666.354	5498.11
666.546	5510.4
666.737	5629.18
666.929	5508.35
667.12	5371.14
667.311	5393.67
667.503	5377.28
667.694	5473.54
667.885	5289.22
668.077	5195.01
668.268	5199.11
668.459	5059.85
668.651	5074.18
668.842	5182.73
669.033	5045.51
669.224	5027.08
669.416	5109
669.607	5051.66
669.798	5000.46
669.989	5109
670.18	4994.31
670.371	5094.66
670.563	4902.15
670.754	4984.07
670.945	4883.72
671.136	5000.46
671.327	4879.63
671.518	4906.25
671.709	4869.39
671.9	4883.72
672.091	4885.77
672.282	4900.11
672.473	4834.57
672.664	4662.54
672.855	4695.31
673.046	4779.28
673.237	4719.89
673.428	4703.5
673.619	4637.97
673.809	4775.18
674	4621.58
674.191	4660.49
674.382	4605.2
674.573	4857.1
674.764	4695.31
674.954	4633.87
675.145	4597.01
675.336	4654.35
675.527	4556.05
675.717	4519.18
675.908	4457.75
676.099	4607.25
676.289	4371.73
676.48	4560.14
676.671	4322.58
676.861	4441.36
677.052	4523.28
677.243	4547.86
677.433	4420.88
677.624	4517.14
677.814	4386.07
678.005	4476.18
678.195	4476.18
678.386	4498.7
678.576	4328.72
678.767	4351.25
678.957	4435.22
679.148	4467.99
679.338	4457.75
679.529	4539.66
679.719	4361.49
679.909	4539.66
680.1	4482.32
680.29	4238.61
680.481	4402.45
680.671	4494.61
680.861	4261.14
681.052	4345.11
681.242	4377.87
681.432	4379.92
681.622	4375.83
681.813	4394.26
682.003	4392.21
682.193	4377.87
682.383	4515.09
682.573	4281.62
682.764	4367.63
682.954	4373.78
683.144	4359.44
683.334	4406.55
683.524	4375.83
683.714	4424.98
683.904	4328.72
684.094	4250.9
684.284	4351.25
684.474	4486.42
684.664	4367.63
684.854	4334.87
685.044	4236.56
685.234	4162.84
685.424	4271.38
685.614	4326.68
685.804	4291.86
685.994	4277.52
686.184	4293.91
686.374	4183.32
686.564	4220.18
686.753	4261.14
686.943	4277.52
687.133	4195.61
687.323	4279.57
687.513	4285.72
687.702	4222.23
687.892	4216.09
688.082	4334.87
688.272	4214.04
688.461	4113.69
688.651	4211.99
688.841	4093.21
689.03	4113.69
689.22	4125.97
689.41	4255
689.599	4146.45
689.789	3908.89
689.979	4107.54
690.168	4013.34
690.358	4097.3
690.547	4080.92
690.737	4091.16
690.926	4144.41
691.116	3984.66
691.305	4072.73
691.495	3978.52
691.684	4023.58
691.874	4039.96
692.063	4009.24
692.252	3851.55
692.442	4031.77
692.631	3933.47
692.82	3949.85
693.01	3847.45
693.199	3831.07
693.388	3892.51
693.578	3904.79
693.767	3888.41
693.956	3999
694.146	3964.18
694.335	3974.42
694.524	3802.4
694.713	3902.75
694.902	3892.51
695.092	3892.51
695.281	3777.82
695.47	3859.74
695.659	3915.03
695.848	3839.26
696.037	3935.51
696.226	3878.17
696.415	3826.97
696.604	3855.64
696.793	3826.97
696.982	3894.55
697.171	3859.74
697.36	3788.06
697.549	3884.31
697.738	3589.41
697.927	3712.28
698.116	3663.13
698.305	3687.71
698.494	3775.77
698.683	3724.57
698.872	3814.68
699.061	3779.87
699.25	3835.16
699.438	3872.03
699.627	3667.23
699.816	3781.92
700.005	3638.56
700.193	3829.02
700.382	3679.52
700.571	3642.65
700.76	3605.79
700.948	3622.17
701.137	3757.34
701.326	3704.09
701.514	3589.41
701.703	3755.29
701.892	3743
702.08	3650.85
702.269	3568.93
702.457	3417.38
702.646	3714.33
702.834	3493.15
703.023	3568.93
703.212	3605.79
703.4	3603.74
703.589	3534.11
703.777	3525.92
703.965	3456.29
704.154	3577.12
704.342	3566.88
704.531	3441.95
704.719	3439.9
704.907	3519.78
705.096	3566.88
705.284	3439.9
705.472	3314.98
705.661	3353.89
705.849	3577.12
706.037	3333.41
706.226	3366.18
706.414	3530.02
706.602	3386.66
706.79	3548.45
706.979	3400.99
707.167	3435.81
707.355	3413.28
707.543	3366.18
707.731	3351.84
707.919	3341.6
708.107	3278.12
708.296	3200.29
708.484	3388.71
708.672	3294.5
708.86	3317.03
709.048	3321.12
709.236	3335.46
709.424	3237.16
709.612	3140.9
709.8	3249.44
709.988	3222.82
710.176	3263.78
710.364	3269.92
710.551	3247.4
710.739	3200.29
710.927	3130.66
711.115	3204.39
711.303	3218.72
711.491	3181.86
711.679	3097.89
711.866	3024.17
712.054	3040.55
712.242	3101.99
712.43	3134.76
712.617	2977.06
712.805	2975.02
712.993	3114.28
713.181	2983.21
713.368	3142.95
713.556	3032.36
713.744	2934.06
713.931	3183.91
714.119	3024.17
714.306	3077.41
714.494	2966.82
714.682	2938.15
714.869	2884.91
715.057	2991.4
715.244	2966.82
715.432	2913.58
715.619	2809.13
715.807	2845.99
715.994	2944.3
716.182	2858.28
716.369	3024.17
716.556	3013.93
716.744	2934.06
716.931	2700.59
717.119	2788.65
717.306	2897.19
717.493	2921.77
717.681	2807.08
717.868	2809.13
718.055	2835.75
718.242	2897.19
718.43	2829.61
718.617	2745.64
718.804	2770.22
718.991	2782.51
719.179	2764.08
719.366	2721.07
719.553	2725.16
719.74	2766.12
719.927	2671.92
720.114	2790.7
720.301	2893.1
720.488	2745.64
720.676	2753.84
720.863	2731.31
721.05	2598.19
721.237	2649.39
721.424	2546.99
721.611	2659.63
721.798	2520.37
721.985	2616.62
722.172	2598.19
722.358	2606.38
722.545	2612.53
722.732	2612.53
722.919	2590
723.106	2520.37
723.293	2643.24
723.48	2520.37
723.667	2598.19
723.853	2553.13
724.04	2557.23
724.227	2612.53
724.414	2540.85
724.6	2565.42
724.787	2602.29
724.974	2544.94
725.161	2495.79
725.347	2567.47
725.534	2413.87
725.72	2544.94
725.907	2489.65
726.094	2567.47
726.28	2430.26
726.467	2444.59
726.653	2297.14
726.84	2534.7
727.027	2557.23
727.213	2495.79
727.4	2565.42
727.586	2405.68
727.773	2565.42
727.959	2536.75
728.145	2508.08
728.332	2467.12
728.518	2385.2
728.705	2352.43
728.891	2491.7
729.077	2477.36
729.264	2141.49
729.45	2334
729.636	2374.96
729.823	2360.63
730.009	2311.47
730.195	2413.87
730.382	2305.33
730.568	2295.09
730.754	2327.86
730.94	2252.08
731.126	2364.72
731.313	2432.3
731.499	2354.48
731.685	2295.09
731.871	2395.44
732.057	2434.35
732.243	2356.53
732.429	2266.42
732.615	2348.34
732.801	2305.33
732.987	2241.84
733.173	2239.8
733.359	2243.89
733.545	2399.54
733.731	2239.8
733.917	2221.36
734.103	2266.42
734.289	2295.09
734.475	2192.69
734.661	2354.48
734.847	2192.69
735.033	2116.92
735.219	2131.25
735.404	2157.88
735.59	2086.2
735.776	2207.03
735.962	2149.68
736.148	2209.08
736.333	2207.03
736.519	2043.19
736.705	2016.57
736.89	2190.64
737.076	2149.68
737.262	2129.2
737.447	2059.57
737.633	2022.71
737.819	2164.02
738.004	1959.22
738.19	1938.74
738.375	2098.49
738.561	2090.29
738.747	2041.14
738.932	2028.85
739.118	2041.14
739.303	2037.05
739.489	1953.08
739.674	1991.99
739.859	1942.84
740.045	1961.27
740.23	2028.85
740.416	1903.93
740.601	1901.88
740.786	1979.7
740.972	2061.62
741.157	2014.52
741.342	1977.66
741.528	1905.98
741.713	1938.74
741.898	1912.12
742.084	1856.82
742.269	1961.27
742.454	1951.03
742.639	1901.88
742.824	1889.59
743.01	1805.63
743.195	1918.26
743.38	1781.05
743.565	1793.34
743.75	1789.24
743.935	1891.64
744.12	1891.64
744.305	1688.89
744.49	1754.43
744.675	1729.85
744.86	1731.9
745.045	1680.7
745.23	1779
745.415	1738.04
745.6	1807.67
745.785	1639.74
745.97	1768.76
746.155	1756.47
746.34	1762.62
746.525	1649.98
746.71	1795.39
746.895	1692.99
747.079	1633.6
747.264	1676.6
747.449	1615.16
747.634	1570.11
747.819	1578.3
748.003	1590.59
748.188	1643.84
748.373	1545.53
748.557	1715.52
748.742	1623.36
748.927	1543.49
749.111	1606.97
749.296	1553.73
749.481	1516.86
749.665	1559.87
749.85	1404.22
750.034	1488.19
750.219	1457.47
750.404	1525.05
750.588	1518.91
750.773	1482.05
750.957	1463.61
751.141	1451.33
751.326	1510.72
751.51	1398.08
751.695	1428.8
751.879	1314.11
752.064	1361.22
752.248	1361.22
752.432	1353.02
752.617	1420.61
752.801	1332.55
752.985	1393.98
753.17	1396.03
753.354	1324.35
753.538	1371.46
753.722	1273.15
753.907	1305.92
754.091	1299.78
754.275	1314.11
754.459	1273.15
754.643	1205.57
754.828	1250.63
755.012	1246.53
755.196	1213.76
755.38	1164.61
755.564	1213.76
755.748	1252.67
755.932	1183.04
756.116	1131.84
756.3	1123.65
756.484	1156.42
756.668	1172.8
756.852	1103.17
757.036	1172.8
757.22	1119.56
757.404	1025.35
757.588	1156.42
757.772	1148.23
757.956	1181
758.14	1168.71
758.323	1160.52
758.507	1125.7
758.691	1082.69
758.875	1078.6
759.059	1156.42
759.242	1031.49
759.426	980.29
759.61	984.39
759.794	1041.73
759.977	1070.4
760.161	1099.08
760.345	1099.08
760.528	1011.01
760.712	1074.5
760.895	1054.02
761.079	918.86
761.263	947.53
761.446	959.81
761.63	961.86
761.813	1004.87
761.997	916.81
762.18	929.1
762.364	953.67
762.547	863.56
762.731	943.43
762.914	988.49
763.098	879.94
763.281	970.05
763.464	906.57
763.648	935.24
763.831	951.62
764.015	861.51
764.198	961.86
764.381	976.2
764.564	873.8
764.748	931.14
764.931	847.18
765.114	820.55
765.297	929.1
765.481	832.84
765.664	879.94
765.847	884.04
766.03	951.62
766.213	869.7
766.397	855.37
766.58	877.9
766.763	806.22
766.946	861.51
767.129	853.32
767.312	769.35
767.495	718.15
767.678	812.36
767.861	693.58
768.044	832.84
768.227	730.44
768.41	828.74
768.593	779.59
768.776	902.47
768.959	748.87
769.142	900.42
769.324	787.79
769.507	755.02
769.69	793.93
769.873	755.02
770.056	804.17
770.239	716.11
770.421	787.79
770.604	744.78
770.787	789.83
770.97	787.79
771.152	771.4
771.335	740.68
771.518	757.07
771.7	744.78
771.883	855.37
772.066	632.14
772.248	701.77
772.431	793.93
772.613	763.21
772.796	748.87
772.978	669
773.161	726.35
773.343	736.59
773.526	709.96
773.708	730.44
773.891	664.91
774.073	648.52
774.256	683.34
774.438	664.91
774.621	740.68
774.803	732.49
774.985	685.39
775.168	658.76
775.35	699.72
775.532	601.42
775.715	576.84
775.897	691.53
776.079	662.86
776.261	609.61
776.444	640.33
776.626	650.57
776.808	587.08
776.99	689.48
777.173	605.52
777.355	599.37
777.537	736.59
777.719	574.8
777.901	607.56
778.083	550.22
778.265	554.32
778.447	607.56
778.629	558.41
778.811	542.03
778.993	617.8
779.175	609.61
779.357	552.27
779.539	445.77
779.721	566.6
779.903	605.52
780.085	490.83
780.267	580.94
780.449	517.45
780.631	611.66
780.812	566.6
780.994	501.07
781.176	501.07
781.358	492.88
781.54	542.03
781.721	470.35
781.903	542.03
782.085	486.73
782.267	560.46
782.448	513.36
782.63	460.11
782.812	476.49
782.993	503.12
783.175	431.44
783.357	464.21
783.538	468.3
783.72	384.34
783.901	410.96
784.083	513.36
784.264	435.53
784.446	402.77
784.627	386.38
784.809	431.44
784.99	349.52
785.172	462.16
785.353	460.11
785.535	447.82
785.716	372.05
785.897	372.05
786.079	410.96
786.26	353.62
786.441	443.73
786.623	345.42
786.804	451.92
786.985	355.66
787.167	423.25
787.348	398.67
787.529	437.58
787.71	453.97
787.891	410.96
788.073	410.96
788.254	396.62
788.435	433.49
788.616	337.23
788.797	361.81
788.978	304.46
789.159	347.47
789.34	374.1
789.522	410.96
789.703	226.64
789.884	320.85
790.065	394.58
790.246	398.67
790.427	304.46
790.607	361.81
790.788	337.23
790.969	261.46
791.15	312.66
791.331	300.37
791.512	363.86
791.693	370
791.874	320.85
792.054	347.47
792.235	345.42
792.416	238.93
792.597	304.46
792.778	249.17
792.958	312.66
793.139	216.4
793.32	232.79
793.5	314.7
793.681	257.36
793.862	281.94
794.042	296.27
794.223	206.16
794.404	304.46
794.584	226.64
794.765	257.36
794.945	259.41
795.126	300.37
795.306	357.71
795.487	288.08
795.667	193.87
795.848	298.32
796.028	296.27
796.209	326.99
796.389	261.46
796.57	243.03
796.75	232.79
796.93	271.7
797.111	183.63
797.291	189.78
797.471	243.03
797.652	245.07
797.832	220.5
798.012	296.27
798.192	193.87
798.373	134.48
798.553	187.73
798.733	261.46
798.913	206.16
799.093	238.93
799.274	271.7
799.454	322.9
799.634	212.31
799.814	269.65
799.994	247.12
800.174	181.59
800.354	206.16
800.534	191.83
800.714	304.46
800.894	193.87
801.074	122.2
801.254	247.12
801.434	247.12
801.614	152.91
801.794	230.74
801.974	947.53
802.154	222.55
802.334	243.03
802.514	152.91
802.693	226.64
802.873	234.83
803.053	279.89
803.233	202.07
803.413	173.39
803.592	222.55
803.772	169.3
803.952	208.21
804.131	169.3
804.311	214.35
804.491	230.74
804.67	171.35
804.85	136.53
805.03	271.7
805.209	222.55
805.389	197.97
805.568	202.07
805.748	169.3
805.928	240.98
806.107	136.53
806.287	167.25
806.466	230.74
806.646	224.59
806.825	128.34
807.004	134.48
807.184	195.92
807.363	224.59
807.543	101.72
807.722	206.16
807.901	232.79
808.081	181.59
808.26	157.01
808.439	140.63
808.619	144.72
808.798	191.83
808.977	169.3
809.156	222.55
809.336	146.77
809.515	218.45
809.694	124.24
809.873	181.59
810.052	107.86
810.231	171.35
810.411	189.78
810.59	206.16
810.769	148.82
810.948	134.48
811.127	99.67
811.306	163.15
811.485	169.3
811.664	167.25
811.843	185.68
812.022	107.86
812.201	101.72
812.38	126.29
812.559	109.91
812.737	116.05
812.916	148.82
813.095	181.59
813.274	210.26
813.453	99.67
813.632	107.86
813.811	191.83
813.989	62.8
814.168	66.9
814.347	126.29
814.526	128.34
814.704	89.43
814.883	154.96
815.062	134.48
815.24	169.3
815.419	167.25
815.598	175.44
815.776	99.67
815.955	152.91
816.133	75.09
816.312	132.44
816.49	68.95
816.669	89.43
816.847	181.59
817.026	118.1
817.204	91.48
817.383	58.71
817.561	107.86
817.74	136.53
817.918	138.58
818.097	87.38
818.275	87.38
818.453	111.96
818.632	136.53
818.81	159.06
818.988	105.81
819.167	142.68
819.345	85.33
819.523	75.09
819.701	83.28
819.879	140.63
820.058	30.04
820.236	128.34
820.414	116.05
820.592	60.76
820.77	138.58
820.948	111.96
821.127	124.24
821.305	146.77
821.483	165.2
821.661	142.68
821.839	124.24
822.017	173.39
822.195	101.72
822.373	118.1
822.551	132.44
822.729	128.34
822.907	111.96
823.085	107.86
823.262	122.2
823.44	140.63
823.618	101.72
823.796	75.09
823.974	66.9
824.152	11.61
824.329	85.33
824.507	126.29
824.685	103.76
824.863	120.15
825.04	105.81
825.218	99.67
825.396	107.86
825.574	91.48
825.751	62.8
825.929	87.38
826.107	9.56
826.284	89.43
826.462	148.82
826.639	93.52
826.817	132.44
826.994	101.72
827.172	27.99
827.349	136.53
827.527	93.52
827.704	83.28
827.882	66.9
828.059	19.8
828.237	34.13
828.414	52.56
828.591	75.09
828.769	124.24
828.946	109.91
829.124	73.04
829.301	83.28
829.478	128.34
829.655	5.46
829.833	44.37
830.01	13.65
830.187	44.37
830.364	1.37
830.542	116.05
830.719	111.96
830.896	126.29
831.073	116.05
831.25	109.91
831.427	181.59
831.604	87.38
831.782	75.09
831.959	83.28
832.136	66.9
832.313	111.96
832.49	109.91
832.667	34.13
832.844	5.46
833.021	165.2
833.198	99.67
833.374	118.1
833.551	46.42
833.728	52.56
833.905	-21.16
834.082	54.61
834.259	77.14
834.436	116.05
834.612	17.75
834.789	83.28
834.966	50.52
835.143	120.15
835.319	-43.69
835.496	77.14
835.673	99.67
835.85	111.96
836.026	114
836.203	17.75
836.38	38.23
836.556	19.8
836.733	85.33
836.909	101.72
837.086	44.37
837.262	34.13
837.439	77.14
837.616	58.71
837.792	60.76
837.968	40.28
838.145	-37.55
838.321	77.14
838.498	7.51
838.674	111.96
838.851	95.57
839.027	11.61
839.203	13.65
839.38	79.19
839.556	-31.4
839.732	68.95
839.909	-19.11
840.085	66.9
840.261	46.42
840.437	144.72
840.614	79.19
840.79	75.09
840.966	54.61
841.142	56.66
841.318	17.75
841.494	50.52
841.671	93.52
841.847	-23.21
842.023	-31.4
842.199	75.09
842.375	-2.73
842.551	38.23
842.727	-58.03
842.903	122.2
843.079	-21.16
843.255	42.32
843.431	30.04
843.607	64.85
843.783	-23.21
843.959	44.37
844.134	-23.21
844.31	75.09
844.486	25.94
844.662	-29.35
844.838	1.37
845.013	58.71
845.189	34.13
845.365	46.42
845.541	-6.83
845.716	30.04
845.892	34.13
846.068	-23.21
846.244	-23.21
846.419	75.09
846.595	11.61
846.77	44.37
846.946	89.43
847.122	58.71
847.297	11.61
847.473	11.61
847.648	17.75
847.824	77.14
847.999	11.61
848.175	138.58
848.35	42.32
848.526	85.33
848.701	107.86
848.876	32.08
849.052	89.43
849.227	34.13
849.403	79.19
849.578	58.71
849.753	3.41
849.929	66.9
850.104	-86.7
850.279	83.28
850.454	23.89
850.63	116.05
850.805	-4.78
850.98	-10.92
851.155	62.8
851.33	97.62
851.505	-10.92
851.681	91.48
851.856	-19.11
852.031	50.52
852.206	50.52
852.381	17.75
852.556	13.65
852.731	75.09
852.906	5.46
853.081	17.75
853.256	93.52
853.431	9.56
853.606	15.7
853.781	17.75
853.956	-19.11
854.131	-23.21
854.305	-19.11
854.48	27.99
854.655	48.47
854.83	3.41
855.005	-6.83
855.18	87.38
855.354	42.32
855.529	42.32
855.704	-19.11
855.879	30.04
856.053	-25.26
856.228	93.52
856.403	-17.07
856.577	3.41
856.752	38.23
856.926	50.52
857.101	77.14
857.276	32.08
857.45	1.37
857.625	68.95
857.799	3.41
857.974	-74.41
858.148	-4.78
858.323	-21.16
858.497	-51.88
858.672	48.47
858.846	-29.35
859.02	58.71
859.195	17.75
859.369	9.56
859.543	36.18
859.718	87.38
859.892	50.52
860.066	21.85
860.241	36.18
860.415	9.56
860.589	-10.92
860.763	25.94
860.938	-6.83
861.112	105.81
861.286	66.9
861.46	36.18
861.634	30.04
861.808	50.52
861.982	38.23
862.157	23.89
862.331	-0.68
862.505	-21.16
862.679	-39.59
862.853	25.94
863.027	11.61
863.201	-27.31
863.375	-31.4
863.549	46.42
863.722	68.95
863.896	87.38
864.07	-68.27
864.244	-6.83
864.418	-35.5
864.592	-2.73
864.766	34.13
864.939	157.01
865.113	-2.73
865.287	3.41
865.461	17.75
865.634	-39.59
865.808	68.95
865.982	15.7
866.156	-29.35
866.329	-39.59
866.503	44.37
866.676	25.94
866.85	5.46
867.024	-15.02
867.197	60.76
867.371	23.89
867.544	27.99
867.718	-4.78
867.891	71
868.065	-68.27
868.238	36.18
868.412	118.1
868.585	-2.73
868.759	-15.02
868.932	-23.21
869.105	-21.16
869.279	-25.26
869.452	-15.02
869.625	40.28
869.799	66.9
869.972	-127.66
870.145	-6.83
870.319	99.67
870.492	23.89
870.665	-21.16
870.838	-23.21
871.011	-133.8
871.185	87.38
871.358	-23.21
871.531	42.32
871.704	15.7
871.877	91.48
872.05	21.85
872.223	-29.35
872.396	3.41
872.569	58.71
872.742	-37.55
872.915	38.23
873.088	-4.78
873.261	-15.02
873.434	60.76
873.607	-15.02
873.78	-37.55
873.953	-15.02
874.126	-4.78
874.299	64.85
874.471	21.85
874.644	-4.78
874.817	38.23
874.99	101.72
875.163	1.37
875.335	17.75
875.508	21.85
875.681	11.61
875.853	17.75
876.026	32.08
876.199	-55.98
876.371	140.63
876.544	46.42
876.717	19.8
876.889	42.32
877.062	-15.02
877.234	-64.17
877.407	27.99
877.579	-37.55
877.752	64.85
877.924	-39.59
878.097	-21.16
878.269	-27.31
878.442	19.8
878.614	11.61
878.786	-4.78
878.959	-27.31
879.131	-15.02
879.303	7.51
879.476	-4.78
879.648	17.75
879.82	5.46
879.993	25.94
880.165	83.28
880.337	-12.97
880.509	50.52
880.681	21.85
880.854	-31.4
881.026	68.95
881.198	56.66
881.37	25.94
881.542	-31.4
881.714	-70.31
881.886	19.8
882.058	-21.16
882.23	5.46
882.402	27.99
882.574	-12.97
882.746	1.37
882.918	48.47
883.09	25.94
883.262	50.52
883.434	-6.83
883.606	-23.21
883.778	27.99
883.95	95.57
884.122	52.56
884.293	66.9
884.465	11.61
884.637	40.28
884.809	13.65
884.98	1.37
885.152	-12.97
885.324	81.24
885.496	-55.98
885.667	91.48
885.839	-12.97
886.011	132.44
886.182	19.8
886.354	15.7
886.525	-17.07
886.697	-41.64
886.869	-6.83
887.04	48.47
887.212	34.13
887.383	36.18
887.555	-25.26
887.726	-76.46
887.897	58.71
888.069	1.37
888.24	54.61
888.412	-39.59
888.583	-23.21
888.754	30.04
888.926	-23.21
889.097	-27.31
889.268	-86.7
889.44	-23.21
889.611	25.94
889.782	-62.12
889.953	11.61
890.125	71
890.296	50.52
890.467	-10.92
890.638	1.37
890.809	38.23
890.98	-53.93
891.151	58.71
891.323	77.14
891.494	13.65
891.665	-31.4
891.836	25.94
892.007	50.52
892.178	34.13
892.349	34.13
892.52	-31.4
892.691	-31.4
892.862	-47.79
893.032	-80.55
893.203	19.8
893.374	-0.68
893.545	3.41
893.716	-60.07
893.887	38.23
894.057	-10.92
894.228	42.32
894.399	-4.78
894.57	-15.02
894.74	-39.59
894.911	68.95
895.082	-27.31
895.253	-6.83
895.423	-10.92
895.594	1.37
895.764	9.56
895.935	-58.03
896.106	34.13
896.276	-55.98
896.447	-15.02
896.617	-2.73
896.788	11.61
896.958	19.8
897.129	-0.68
897.299	-10.92
897.47	-31.4
897.64	11.61
897.81	36.18
897.981	44.37
898.151	38.23
898.322	-31.4
898.492	13.65
898.662	-64.17
898.832	3.41
899.003	3.41
899.173	50.52
899.343	5.46
899.513	-39.59
