Data from USB4F104151__86__14-30-37-996.txt Node

Date: Thu Mar 13 14:30:37 EDT 2025
User: louis
Spectrometer: USB4F10415
Trigger mode: 4
Integration Time (sec): 2.500000E-2
Scans to average: 1
Electric dark correction enabled: true
Nonlinearity correction enabled: false
Boxcar width: 0
XAxis mode: Wavelengths
Number of Pixels in Spectrum: 3648
>>>>>Begin Spectral Data<<<<<
178.204	-86.87
178.424	-86.87
178.644	-86.87
178.864	-170.83
179.084	-133.97
179.304	-54.1
179.524	29.87
179.744	-17.24
179.964	-15.19
180.184	21.67
180.404	29.87
180.624	-2.9
180.844	5.29
181.064	-76.63
181.283	13.48
181.503	-33.62
181.723	99.5
181.943	-33.62
182.163	179.37
182.383	66.73
182.602	13.48
182.822	76.97
183.042	1.19
183.262	-31.57
183.482	62.63
183.701	79.02
183.921	54.44
184.141	15.53
184.361	52.39
184.58	-35.67
184.8	3.24
185.02	13.48
185.239	87.21
185.459	-17.24
185.679	-33.62
185.898	70.83
186.118	9.39
186.338	-15.19
186.557	38.06
186.777	9.39
186.997	46.25
187.216	-7
187.436	5.29
187.655	42.15
187.875	60.59
188.095	-88.92
188.314	44.2
188.534	87.21
188.753	-23.38
188.973	33.96
189.192	83.11
189.412	54.44
189.631	-2.9
189.851	128.17
190.07	38.06
190.29	-43.86
190.509	17.58
190.729	7.34
190.948	60.59
191.168	148.65
191.387	-31.57
191.607	38.06
191.826	36.01
192.045	46.25
192.265	-9.05
192.484	70.83
192.704	70.83
192.923	-23.38
193.142	89.26
193.362	15.53
193.581	-17.24
193.8	9.39
194.02	21.67
194.239	-0.85
194.458	79.02
194.678	17.58
194.897	81.07
195.116	29.87
195.335	-7
195.555	31.91
195.774	-9.05
195.993	91.31
196.212	72.87
196.432	13.48
196.651	7.34
196.87	-11.09
197.089	128.17
197.308	-7
197.528	54.44
197.747	-2.9
197.966	29.87
198.185	132.26
198.404	62.63
198.623	79.02
198.842	21.67
199.062	-0.85
199.281	15.53
199.5	83.11
199.719	25.77
199.938	21.67
200.157	140.46
200.376	48.3
200.595	50.35
200.814	5.29
201.033	21.67
201.252	79.02
201.471	83.11
201.69	42.15
201.909	50.35
202.128	58.54
202.347	81.07
202.566	-2.9
202.785	56.49
203.004	21.67
203.223	187.56
203.442	89.26
203.661	5.29
203.879	-80.72
204.098	91.31
204.317	40.11
204.536	3.24
204.755	68.78
204.974	46.25
205.193	76.97
205.411	70.83
205.63	38.06
205.849	-7
206.068	48.3
206.287	21.67
206.505	46.25
206.724	68.78
206.943	-2.9
207.162	5.29
207.381	99.5
207.599	-27.48
207.818	19.63
208.037	-58.2
208.255	54.44
208.474	3.24
208.693	9.39
208.911	-15.19
209.13	93.35
209.349	103.59
209.567	23.72
209.786	115.88
210.005	105.64
210.223	48.3
210.442	-35.67
210.661	124.07
210.879	44.2
211.098	29.87
211.316	46.25
211.535	29.87
211.753	23.72
211.972	40.11
212.191	40.11
212.409	70.83
212.628	-33.62
212.846	-19.29
213.065	46.25
213.283	33.96
213.502	31.91
213.72	13.48
213.938	25.77
214.157	95.4
214.375	29.87
214.594	72.87
214.812	27.82
215.031	-0.85
215.249	17.58
215.467	3.24
215.686	40.11
215.904	70.83
216.122	5.29
216.341	70.83
216.559	-0.85
216.778	29.87
216.996	83.11
217.214	48.3
217.432	-17.24
217.651	-35.67
217.869	-2.9
218.087	17.58
218.306	17.58
218.524	103.59
218.742	-21.33
218.96	79.02
219.179	70.83
219.397	17.58
219.615	76.97
219.833	62.63
220.051	-60.24
220.27	89.26
220.488	79.02
220.706	42.15
220.924	17.58
221.142	40.11
221.36	87.21
221.578	48.3
221.796	74.92
222.015	-23.38
222.233	62.63
222.451	70.83
222.669	-66.39
222.887	29.87
223.105	-33.62
223.323	-7
223.541	5.29
223.759	62.63
223.977	-9.05
224.195	74.92
224.413	62.63
224.631	89.26
224.849	25.77
225.067	64.68
225.285	-23.38
225.503	-7
225.721	3.24
225.939	-21.33
226.157	15.53
226.375	91.31
226.592	-25.43
226.81	29.87
227.028	109.74
227.246	130.22
227.464	9.39
227.682	60.59
227.9	-9.05
228.117	72.87
228.335	3.24
228.553	29.87
228.771	66.73
228.989	38.06
229.206	72.87
229.424	31.91
229.642	52.39
229.86	-2.9
230.077	89.26
230.295	25.77
230.513	74.92
230.731	89.26
230.948	81.07
231.166	83.11
231.384	33.96
231.601	-58.2
231.819	21.67
232.037	15.53
232.254	-23.38
232.472	-9.05
232.689	50.35
232.907	-13.14
233.125	17.58
233.342	62.63
233.56	-25.43
233.777	70.83
233.995	-23.38
234.213	46.25
234.43	40.11
234.648	95.4
234.865	-37.72
235.083	-11.09
235.3	-17.24
235.518	76.97
235.735	93.35
235.953	21.67
236.17	40.11
236.388	38.06
236.605	29.87
236.822	99.5
237.04	13.48
237.257	-43.86
237.475	83.11
237.692	-11.09
237.909	42.15
238.127	-4.95
238.344	31.91
238.562	103.59
238.779	29.87
238.996	-31.57
239.214	3.24
239.431	5.29
239.648	-39.76
239.865	87.21
240.083	46.25
240.3	21.67
240.517	13.48
240.735	17.58
240.952	54.44
241.169	83.11
241.386	38.06
241.603	70.83
241.821	48.3
242.038	103.59
242.255	44.2
242.472	-58.2
242.689	44.2
242.907	-0.85
243.124	38.06
243.341	-0.85
243.558	21.67
243.775	33.96
243.992	-15.19
244.209	48.3
244.426	103.59
244.643	21.67
244.86	-27.48
245.078	70.83
245.295	72.87
245.512	128.17
245.729	9.39
245.946	87.21
246.163	-35.67
246.38	54.44
246.597	23.72
246.814	56.49
247.031	31.91
247.248	1.19
247.464	38.06
247.681	1.19
247.898	5.29
248.115	113.83
248.332	87.21
248.549	46.25
248.766	105.64
248.983	-2.9
249.2	48.3
249.417	-19.29
249.633	21.67
249.85	70.83
250.067	29.87
250.284	-19.29
250.501	38.06
250.717	38.06
250.934	64.68
251.151	7.34
251.368	23.72
251.585	38.06
251.801	-9.05
252.018	7.34
252.235	54.44
252.451	-27.48
252.668	11.43
252.885	62.63
253.102	31.91
253.318	46.25
253.535	-7
253.752	21.67
253.968	-15.19
254.185	-23.38
254.401	3.24
254.618	-17.24
254.835	-9.05
255.051	81.07
255.268	7.34
255.484	11.43
255.701	52.39
255.917	72.87
256.134	-43.86
256.351	29.87
256.567	-25.43
256.784	13.48
257	-41.81
257.217	-27.48
257.433	38.06
257.65	-41.81
257.866	56.49
258.082	21.67
258.299	23.72
258.515	-2.9
258.732	50.35
258.948	25.77
259.165	74.92
259.381	29.87
259.597	124.07
259.814	-4.95
260.03	31.91
260.246	72.87
260.463	40.11
260.679	140.46
260.895	48.3
261.112	128.17
261.328	70.83
261.544	-93.01
261.761	191.66
261.977	46.25
262.193	-11.09
262.409	-11.09
262.626	27.82
262.842	-7
263.058	-4.95
263.274	29.87
263.49	101.55
263.707	38.06
263.923	19.63
264.139	-21.33
264.355	87.21
264.571	46.25
264.787	62.63
265.004	79.02
265.22	27.82
265.436	21.67
265.652	-19.29
265.868	-9.05
266.084	-4.95
266.3	42.15
266.516	13.48
266.732	21.67
266.948	23.72
267.164	46.25
267.38	62.63
267.596	97.45
267.812	87.21
268.028	111.78
268.244	21.67
268.46	50.35
268.676	38.06
268.892	40.11
269.108	17.58
269.324	-0.85
269.54	-52.05
269.756	87.21
269.972	-33.62
270.188	29.87
270.403	-19.29
270.619	-27.48
270.835	-11.09
271.051	70.83
271.267	-9.05
271.483	-2.9
271.698	89.26
271.914	21.67
272.13	50.35
272.346	87.21
272.562	9.39
272.777	21.67
272.993	9.39
273.209	-31.57
273.425	29.87
273.64	31.91
273.856	79.02
274.072	7.34
274.287	5.29
274.503	50.35
274.719	13.48
274.934	60.59
275.15	-82.77
275.366	17.58
275.581	-2.9
275.797	50.35
276.012	87.21
276.228	46.25
276.444	56.49
276.659	42.15
276.875	74.92
277.09	38.06
277.306	46.25
277.521	48.3
277.737	62.63
277.952	50.35
278.168	46.25
278.383	60.59
278.599	38.06
278.814	54.44
279.03	15.53
279.245	21.67
279.461	79.02
279.676	56.49
279.892	-68.44
280.107	91.31
280.322	23.72
280.538	33.96
280.753	1.19
280.969	11.43
281.184	33.96
281.399	9.39
281.615	21.67
281.83	62.63
282.045	-43.86
282.26	7.34
282.476	-56.15
282.691	46.25
282.906	42.15
283.122	72.87
283.337	-41.81
283.552	38.06
283.767	31.91
283.983	42.15
284.198	-11.09
284.413	42.15
284.628	-17.24
284.843	103.59
285.058	87.21
285.274	21.67
285.489	17.58
285.704	101.55
285.919	15.53
286.134	-17.24
286.349	-47.96
286.564	-19.29
286.779	64.68
286.995	56.49
287.21	42.15
287.425	54.44
287.64	44.2
287.855	-0.85
288.07	-27.48
288.285	87.21
288.5	50.35
288.715	31.91
288.93	27.82
289.145	-9.05
289.36	101.55
289.575	13.48
289.79	62.63
290.004	5.29
290.219	93.35
290.434	54.44
290.649	-15.19
290.864	13.48
291.079	56.49
291.294	48.3
291.509	52.39
291.724	-19.29
291.938	58.54
292.153	64.68
292.368	-7
292.583	66.73
292.798	81.07
293.012	-9.05
293.227	7.34
293.442	64.68
293.657	7.34
293.871	113.83
294.086	-2.9
294.301	79.02
294.516	64.68
294.73	46.25
294.945	-43.86
295.16	23.72
295.374	87.21
295.589	74.92
295.804	-2.9
296.018	-9.05
296.233	93.35
296.447	81.07
296.662	-17.24
296.877	87.21
297.091	56.49
297.306	-9.05
297.52	13.48
297.735	66.73
297.949	13.48
298.164	87.21
298.378	-11.09
298.593	5.29
298.807	-33.62
299.022	54.44
299.236	11.43
299.451	72.87
299.665	21.67
299.88	66.73
300.094	95.4
300.309	17.58
300.523	23.72
300.737	72.87
300.952	54.44
301.166	38.06
301.381	27.82
301.595	54.44
301.809	29.87
302.024	-19.29
302.238	38.06
302.452	42.15
302.667	7.34
302.881	115.88
303.095	81.07
303.309	130.22
303.524	21.67
303.738	103.59
303.952	46.25
304.166	38.06
304.381	-66.39
304.595	79.02
304.809	-2.9
305.023	3.24
305.237	17.58
305.452	54.44
305.666	58.54
305.88	83.11
306.094	97.45
306.308	89.26
306.522	81.07
306.736	87.21
306.95	31.91
307.164	95.4
307.379	21.67
307.593	111.78
307.807	68.78
308.021	72.87
308.235	103.59
308.449	46.25
308.663	52.39
308.877	111.78
309.091	50.35
309.305	21.67
309.519	-19.29
309.733	38.06
309.947	25.77
310.161	62.63
310.374	-21.33
310.588	87.21
310.802	7.34
311.016	5.29
311.23	64.68
311.444	40.11
311.658	50.35
311.872	29.87
312.085	42.15
312.299	27.82
312.513	31.91
312.727	103.59
312.941	-50
313.154	11.43
313.368	46.25
313.582	33.96
313.796	33.96
314.009	13.48
314.223	40.11
314.437	-15.19
314.651	62.63
314.864	-2.9
315.078	29.87
315.292	-33.62
315.505	19.63
315.719	95.4
315.933	72.87
316.146	19.63
316.36	9.39
316.573	138.41
316.787	15.53
317.001	40.11
317.214	-19.29
317.428	40.11
317.641	-0.85
317.855	87.21
318.068	31.91
318.282	79.02
318.495	13.48
318.709	21.67
318.922	38.06
319.136	181.42
319.349	83.11
319.563	54.44
319.776	-11.09
319.99	-27.48
320.203	21.67
320.417	68.78
320.63	70.83
320.843	138.41
321.057	79.02
321.27	93.35
321.483	48.3
321.697	42.15
321.91	107.69
322.124	138.41
322.337	5.29
322.55	9.39
322.763	48.3
322.977	107.69
323.19	19.63
323.403	74.92
323.617	48.3
323.83	38.06
324.043	-13.14
324.256	56.49
324.469	38.06
324.683	128.17
324.896	1.19
325.109	3.24
325.322	-31.57
325.535	31.91
325.748	111.78
325.962	11.43
326.175	36.01
326.388	103.59
326.601	23.72
326.814	42.15
327.027	70.83
327.24	109.74
327.453	-0.85
327.666	15.53
327.879	74.92
328.092	13.48
328.305	17.58
328.518	105.64
328.731	70.83
328.944	56.49
329.157	21.67
329.37	91.31
329.583	99.5
329.796	162.98
330.009	-17.24
330.222	25.77
330.435	62.63
330.648	15.53
330.861	105.64
331.073	58.54
331.286	81.07
331.499	-2.9
331.712	5.29
331.925	62.63
332.138	-19.29
332.35	117.93
332.563	-17.24
332.776	21.67
332.989	-9.05
333.202	62.63
333.414	-11.09
333.627	79.02
333.84	50.35
334.053	62.63
334.265	13.48
334.478	15.53
334.691	54.44
334.903	38.06
335.116	68.78
335.329	83.11
335.541	31.91
335.754	62.63
335.966	-33.62
336.179	-2.9
336.392	29.87
336.604	5.29
336.817	50.35
337.029	99.5
337.242	64.68
337.454	13.48
337.667	136.36
337.88	46.25
338.092	87.21
338.305	136.36
338.517	-11.09
338.729	97.45
338.942	58.54
339.154	54.44
339.367	36.01
339.579	50.35
339.792	-47.96
340.004	-15.19
340.217	70.83
340.429	-27.48
340.641	81.07
340.854	79.02
341.066	56.49
341.278	79.02
341.491	132.26
341.703	132.26
341.915	83.11
342.128	42.15
342.34	46.25
342.552	40.11
342.764	9.39
342.977	109.74
343.189	72.87
343.401	83.11
343.613	36.01
343.826	54.44
344.038	33.96
344.25	101.55
344.462	5.29
344.674	91.31
344.886	40.11
345.099	83.11
345.311	56.49
345.523	87.21
345.735	-9.05
345.947	7.34
346.159	62.63
346.371	29.87
346.583	27.82
346.795	93.35
347.007	70.83
347.219	97.45
347.431	72.87
347.643	56.49
347.855	56.49
348.067	111.78
348.279	21.67
348.491	-2.9
348.703	7.34
348.915	62.63
349.127	81.07
349.339	40.11
349.551	-27.48
349.763	97.45
349.975	91.31
350.187	95.4
350.399	111.78
350.61	40.11
350.822	-9.05
351.034	111.78
351.246	103.59
351.458	56.49
351.669	46.25
351.881	56.49
352.093	36.01
352.305	91.31
352.517	50.35
352.728	62.63
352.94	99.5
353.152	103.59
353.363	44.2
353.575	70.83
353.787	103.59
353.999	97.45
354.21	136.36
354.422	64.68
354.633	58.54
354.845	103.59
355.057	42.15
355.268	99.5
355.48	105.64
355.692	-17.24
355.903	21.67
356.115	38.06
356.326	62.63
356.538	56.49
356.749	91.31
356.961	138.41
357.172	54.44
357.384	11.43
357.595	105.64
357.807	66.73
358.018	-4.95
358.23	-15.19
358.441	128.17
358.653	25.77
358.864	-2.9
359.075	81.07
359.287	46.25
359.498	107.69
359.709	101.55
359.921	13.48
360.132	74.92
360.344	54.44
360.555	29.87
360.766	76.97
360.977	11.43
361.189	48.3
361.4	29.87
361.611	79.02
361.823	144.55
362.034	95.4
362.245	29.87
362.456	13.48
362.667	17.58
362.879	-43.86
363.09	74.92
363.301	68.78
363.512	89.26
363.723	21.67
363.935	79.02
364.146	89.26
364.357	83.11
364.568	81.07
364.779	70.83
364.99	99.5
365.201	50.35
365.412	83.11
365.623	13.48
365.834	111.78
366.045	11.43
366.256	36.01
366.467	99.5
366.678	76.97
366.889	21.67
367.1	46.25
367.311	144.55
367.522	74.92
367.733	46.25
367.944	62.63
368.155	68.78
368.366	62.63
368.577	105.64
368.788	160.94
368.999	111.78
369.209	64.68
369.42	128.17
369.631	130.22
369.842	36.01
370.053	38.06
370.264	89.26
370.474	-15.19
370.685	54.44
370.896	23.72
371.107	103.59
371.317	101.55
371.528	-15.19
371.739	17.58
371.95	103.59
372.16	97.45
372.371	-17.24
372.582	7.34
372.792	38.06
373.003	89.26
373.214	48.3
373.424	103.59
373.635	-50
373.846	62.63
374.056	111.78
374.267	81.07
374.477	146.6
374.688	21.67
374.898	109.74
375.109	29.87
375.319	56.49
375.53	101.55
375.74	38.06
375.951	54.44
376.161	46.25
376.372	54.44
376.582	58.54
376.793	46.25
377.003	40.11
377.214	44.2
377.424	138.41
377.635	79.02
377.845	81.07
378.055	134.31
378.266	29.87
378.476	83.11
378.686	97.45
378.897	105.64
379.107	42.15
379.317	29.87
379.528	9.39
379.738	87.21
379.948	54.44
380.158	103.59
380.369	33.96
380.579	136.36
380.789	46.25
380.999	136.36
381.21	25.77
381.42	181.42
381.63	62.63
381.84	105.64
382.05	140.46
382.261	105.64
382.471	70.83
382.681	95.4
382.891	154.79
383.101	103.59
383.311	40.11
383.521	5.29
383.731	21.67
383.941	103.59
384.151	132.26
384.361	54.44
384.571	99.5
384.781	33.96
384.991	87.21
385.201	111.78
385.411	152.74
385.621	81.07
385.831	40.11
386.041	93.35
386.251	62.63
386.461	97.45
386.671	64.68
386.881	56.49
387.091	19.63
387.301	113.83
387.511	33.96
387.72	89.26
387.93	128.17
388.14	13.48
388.35	128.17
388.56	79.02
388.769	105.64
388.979	138.41
389.189	48.3
389.399	62.63
389.609	64.68
389.818	66.73
390.028	89.26
390.238	46.25
390.447	95.4
390.657	68.78
390.867	54.44
391.076	-43.86
391.286	130.22
391.496	58.54
391.705	68.78
391.915	72.87
392.125	99.5
392.334	144.55
392.544	74.92
392.753	119.98
392.963	103.59
393.172	91.31
393.382	54.44
393.591	171.18
393.801	128.17
394.01	144.55
394.22	138.41
394.429	70.83
394.639	115.88
394.848	138.41
395.058	74.92
395.267	132.26
395.477	185.51
395.686	138.41
395.895	165.03
396.105	169.13
396.314	83.11
396.524	169.13
396.733	189.61
396.942	138.41
397.152	126.12
397.361	128.17
397.57	122.02
397.78	169.13
397.989	117.93
398.198	177.32
398.407	150.7
398.617	105.64
398.826	152.74
399.035	64.68
399.244	128.17
399.453	111.78
399.663	91.31
399.872	113.83
400.081	244.9
400.29	171.18
400.499	119.98
400.708	197.8
400.917	91.31
401.127	140.46
401.336	105.64
401.545	124.07
401.754	218.28
401.963	187.56
402.172	144.55
402.381	109.74
402.59	160.94
402.799	132.26
403.008	228.52
403.217	169.13
403.426	165.03
403.635	167.08
403.844	91.31
404.053	212.14
404.262	242.85
404.471	283.81
404.68	169.13
404.888	193.7
405.097	171.18
405.306	283.81
405.515	218.28
405.724	205.99
405.933	283.81
406.142	181.42
406.35	341.16
406.559	267.43
406.768	337.06
406.977	218.28
407.185	357.54
407.394	341.16
407.603	269.48
407.812	375.97
408.02	292.01
408.229	398.5
408.438	371.88
408.646	337.06
408.855	351.4
409.064	294.05
409.272	373.92
409.481	396.45
409.69	359.59
409.898	373.92
410.107	437.41
410.315	478.37
410.524	455.84
410.733	509.09
410.941	455.84
411.15	545.95
411.358	580.77
411.567	623.78
411.775	644.26
411.984	597.15
412.192	701.6
412.401	648.35
412.609	730.27
412.818	808.09
413.026	806.05
413.234	734.37
413.443	711.84
413.651	752.8
413.86	791.71
414.068	840.86
414.276	955.55
414.485	980.12
414.693	890.01
414.901	963.74
415.11	1103
415.318	1037.47
415.526	1039.51
415.734	1125.53
415.943	1090.71
416.151	1203.35
416.359	1225.88
416.567	1242.26
416.776	1338.52
416.984	1285.27
417.192	1467.54
417.4	1459.35
417.608	1418.39
417.817	1551.51
418.025	1635.47
418.233	1717.39
418.441	1594.51
418.649	1791.12
418.857	1948.81
419.065	1858.7
419.273	1860.75
419.481	1950.86
419.689	2251.91
419.897	2270.34
420.105	2262.15
420.313	2243.72
420.521	2454.66
420.729	2473.09
420.937	2587.78
421.145	2659.46
421.353	2751.62
421.561	2843.78
421.769	2876.54
421.977	3118.2
422.185	2847.87
422.393	3112.06
422.601	3425.4
422.809	3314.81
423.017	3353.72
423.224	3327.1
423.432	3843.18
423.64	3814.51
423.848	4152.43
424.056	3959.92
424.263	4166.76
424.471	4228.2
424.679	4371.56
424.887	4695.14
425.094	4777.06
425.302	4768.87
425.51	4781.15
425.718	4953.18
425.925	5141.6
426.133	5268.57
426.341	5608.53
426.548	5739.6
426.756	5825.62
426.964	6079.57
427.171	6091.85
427.379	6253.64
427.586	6571.08
427.794	6593.61
428.001	7003.2
428.209	7431.23
428.417	7119.93
428.624	7697.46
428.832	7777.33
429.039	7599.16
429.247	7550.01
429.454	8373.29
429.662	8887.33
429.869	8193.07
430.076	8907.81
430.284	8713.25
430.491	9006.11
430.699	9487.39
430.906	9485.34
431.114	9663.51
431.321	10052.63
431.528	10318.86
431.736	10945.54
431.943	11383.8
432.15	11146.24
432.358	11109.38
432.565	11899.89
432.772	11521.02
432.979	12420.08
433.187	12727.27
433.394	12585.96
433.601	13505.5
433.808	13523.93
434.016	13251.55
434.223	14101.46
434.43	14705.61
434.637	14549.96
434.844	15487.93
435.052	15565.76
435.259	15539.13
435.466	15739.83
435.673	15559.61
435.88	16454.58
436.087	17441.7
436.294	17544.09
436.501	16851.88
436.708	17279.91
436.915	17884.06
437.122	18652.05
437.329	18766.73
437.537	19385.22
437.743	19792.76
437.95	19590.02
438.157	20312.95
438.364	21191.53
438.571	20917.1
438.778	21287.78
438.985	23389
439.192	22516.56
439.399	22934.35
439.606	22172.5
439.813	23520.07
440.02	24730.42
440.227	24652.59
440.433	24187.71
440.64	25482.02
440.847	25117.48
441.054	25838.37
441.261	27374.34
441.467	26958.61
441.674	27286.28
441.881	28582.65
442.088	28381.95
442.294	28125.95
442.501	28908.27
442.708	29315.82
442.914	30761.69
443.121	31883.97
443.328	30851.8
443.534	32996.02
443.741	32346.81
443.948	31996.61
444.154	34022.05
444.361	34032.29
444.568	33835.69
444.774	34239.14
444.981	34405.02
445.187	35822.22
445.394	37126.77
445.6	36729.47
445.807	40014.41
446.013	38142.56
446.22	39103.06
446.426	40448.58
446.633	40454.72
446.839	42031.66
447.046	40286.79
447.252	42500.64
447.459	42426.92
447.665	42418.72
447.871	44288.52
448.078	46629.35
448.284	43923.98
448.491	45005.31
448.697	46533.09
448.903	47383
449.11	47628.76
449.316	46787.04
449.522	48058.83
449.728	49275.32
449.935	49646.01
450.141	49211.84
450.347	50354.6
450.553	48669.12
450.76	49449.4
450.966	51204.51
451.172	50145.71
451.378	51390.87
451.584	50600.36
451.791	51962.26
451.997	51616.15
452.203	52392.33
452.409	52623.75
452.615	52253.07
452.821	50579.88
453.027	49772.98
453.233	52500.87
453.44	50381.23
453.646	51169.69
453.852	51071.39
454.058	52064.66
454.264	50289.07
454.47	51411.35
454.676	50100.65
454.882	51784.08
455.088	47245.79
455.294	48482.76
455.5	49002.94
455.705	49463.74
455.911	46914.01
456.117	46615.01
456.323	45949.42
456.529	43616.79
456.735	45441.53
456.941	44489.22
457.147	43207.19
457.352	42048.04
457.558	41843.24
457.764	42013.23
457.97	40827.45
458.176	40090.18
458.381	39944.78
458.587	38216.29
458.793	38341.22
458.999	36039.3
459.204	38842.97
459.41	37687.92
459.616	35089.04
459.821	35302.03
460.027	35181.2
460.233	34024.1
460.438	32572.09
460.644	32795.32
460.85	31331.02
461.055	31005.39
461.261	31048.4
461.466	29141.74
461.672	27628.29
461.878	29879.01
462.083	28041.98
462.289	27126.54
462.494	27181.84
462.7	25850.66
462.905	25422.63
463.111	26286.87
463.316	26063.64
463.522	25365.29
463.727	25420.58
463.932	25539.36
464.138	25187.11
464.343	25776.93
464.549	24562.48
464.754	25545.51
464.959	25363.24
465.165	25203.5
465.37	24027.96
465.575	23370.57
465.781	24220.47
465.986	24400.69
466.191	23657.28
466.397	23350.09
466.602	21902.17
466.807	22721.36
467.012	22950.73
467.218	22707.02
467.423	22457.17
467.628	22573.91
467.833	23571.27
468.038	22451.03
468.244	21664.61
468.449	22594.39
468.654	22205.27
468.859	21750.62
469.064	21719.9
469.269	21156.71
469.474	20835.18
469.679	21441.38
469.885	20972.39
470.09	21013.35
470.295	20833.13
470.5	20245.37
470.705	20595.57
470.91	20142.97
471.115	19876.73
471.32	20036.47
471.525	19989.37
471.73	19501.95
471.935	19231.62
472.139	18871.18
472.344	18922.38
472.549	18975.63
472.754	18805.64
472.959	18471.82
473.164	17814.43
473.369	17830.81
473.574	18416.53
473.778	18154.39
473.983	18224.02
474.188	17589.15
474.393	17036.2
474.598	17079.21
474.802	16909.22
475.007	16806.83
475.212	16606.13
475.417	16149.43
475.621	16266.16
475.826	16364.46
476.031	16264.11
476.235	15676.35
476.44	15848.38
476.645	15625.15
476.849	15580.09
477.054	15537.09
477.259	15094.72
477.463	15127.49
477.668	14744.52
477.872	14910.41
478.077	14857.16
478.282	14558.16
478.486	14296.02
478.691	14236.63
478.895	14074.84
479.1	14285.78
479.304	14173.14
479.509	13396.96
479.713	13886.42
479.918	13677.53
480.122	13366.24
480.326	13693.91
480.531	13751.26
480.735	13431.77
480.94	13319.14
481.144	13837.27
481.348	13261.79
481.553	13202.4
481.757	13030.37
481.961	13171.68
482.166	13571.04
482.37	13333.47
482.574	13112.29
482.778	13042.66
482.983	13212.64
483.187	13448.16
483.391	13206.5
483.595	12897.25
483.8	12682.22
484.004	13245.41
484.208	13267.94
484.412	12880.87
484.616	13155.3
484.821	13235.17
485.025	12729.32
485.229	13057
485.433	13030.37
485.637	12854.25
485.841	12872.68
486.045	12774.38
486.249	12846.05
486.453	12956.64
486.657	13198.31
486.861	13091.81
487.065	12583.91
487.269	13071.33
487.473	12678.12
487.677	12776.42
487.881	12887.01
488.085	12942.31
488.289	12981.22
488.493	12788.71
488.697	13263.84
488.901	13155.3
489.105	12973.03
489.309	12964.84
489.512	13005.8
489.716	13085.67
489.92	13163.49
490.124	12940.26
490.328	13505.5
490.531	13188.07
490.735	13251.55
490.939	13235.17
491.143	13419.49
491.346	13157.35
491.55	13403.1
491.754	13562.84
491.958	13591.52
492.161	13374.43
492.365	13632.47
492.569	13626.33
492.772	13493.21
492.976	13685.72
493.18	13714.39
493.383	13720.54
493.587	14117.84
493.79	13978.58
493.994	13902.81
494.197	14193.62
494.401	14037.97
494.605	14107.6
494.808	14375.89
495.012	14271.44
495.215	14685.13
495.419	14736.33
495.622	14742.47
495.825	14926.79
496.029	14928.84
496.232	15195.07
496.436	14961.61
496.639	15547.33
496.843	15320
497.046	15809.47
497.249	15561.66
497.453	15942.58
497.656	15938.49
497.859	16061.37
498.063	15979.45
498.266	16556.97
498.469	16425.9
498.673	16550.83
498.876	16823.21
499.079	16870.31
499.282	17054.63
499.485	17122.21
499.689	17439.65
499.892	17607.58
500.095	17611.68
500.298	18228.12
500.501	18049.94
500.705	18289.56
500.908	18678.67
501.111	18355.09
501.314	18920.33
501.517	19317.64
501.72	19155.85
501.923	19288.96
502.126	19600.26
502.329	20200.31
502.532	20396.92
502.735	20005.75
502.938	20339.57
503.141	20575.09
503.344	20888.43
503.547	20824.94
503.75	21334.89
503.953	21506.91
504.156	21560.16
504.359	21853.02
504.562	21928.8
504.765	22721.36
504.968	22600.53
505.17	23067.47
505.373	22975.31
505.576	23395.14
505.779	23231.3
505.982	23749.44
506.185	24234.81
506.387	24263.48
506.59	24148.79
506.793	24752.94
506.996	24752.94
507.198	25461.54
507.401	24992.56
507.604	25553.7
507.807	25875.23
508.009	26143.52
508.212	26372.89
508.415	26788.63
508.617	26823.44
508.82	27187.98
509.022	27118.35
509.225	27943.68
509.428	28009.22
509.63	28160.76
509.833	28740.34
510.035	28803.83
510.238	29014.77
510.44	28984.05
510.643	29893.35
510.845	29895.39
511.048	29747.94
511.25	30466.78
511.453	30505.69
511.655	31374.03
511.858	31302.35
512.06	31085.26
512.262	32015.04
512.465	31388.36
512.667	31935.17
512.87	32801.46
513.072	32567.99
513.274	33020.59
513.477	33497.77
513.679	33415.85
513.881	33880.74
514.084	34089.63
514.286	34286.24
514.488	34161.31
514.69	35572.36
514.893	35633.8
515.095	35480.21
515.297	35703.43
515.499	36051.59
515.701	36608.64
515.904	36774.52
516.106	37100.15
516.308	37452.4
516.51	37743.21
516.712	37540.46
516.914	38337.12
517.116	38847.07
517.318	38511.2
517.52	39400.02
517.722	39209.56
517.925	39639.63
518.127	39924.3
518.329	40247.88
518.531	39879.24
518.733	41028.15
518.935	40784.44
519.136	40796.73
519.338	41755.18
519.54	41634.35
519.742	42383.91
519.944	42471.97
520.146	42660.38
520.348	42930.72
520.55	43096.6
520.752	43110.94
520.954	43780.62
521.155	43624.98
521.357	44188.17
521.559	44333.57
521.761	44997.12
521.963	44763.65
522.164	45279.74
522.366	44943.87
522.568	45435.38
522.77	45462
522.971	46268.9
523.173	46139.88
523.375	46703.07
523.576	46375.4
523.778	46402.02
523.98	47040.99
524.181	46547.43
524.383	46811.62
524.584	47667.67
524.786	47712.72
524.988	47167.96
525.189	47952.33
525.391	47862.22
525.592	48017.87
525.794	48288.2
525.995	48253.39
526.197	48239.05
526.398	48523.72
526.6	48679.36
526.801	48708.04
527.003	48935.36
527.204	48527.81
527.406	49310.14
527.607	48875.97
527.808	49351.1
528.01	48777.67
528.211	49234.36
528.412	49533.37
528.614	49097.15
528.815	49412.54
529.016	49916.34
529.218	49080.77
529.419	49461.69
529.62	49332.67
529.822	49308.09
530.023	49340.86
530.224	49461.69
530.425	49193.4
530.626	48900.54
530.828	48824.77
531.029	50147.76
531.23	49142.2
531.431	49390.01
531.632	49441.21
531.833	49537.46
532.035	49207.74
532.236	49363.39
532.437	49396.15
532.638	48982.46
532.839	49150.4
533.04	49066.43
533.241	48314.83
533.442	49406.39
533.643	49166.78
533.844	49269.18
534.045	49232.32
534.246	48378.31
534.447	49271.23
534.648	48982.46
534.849	48800.19
535.05	49168.83
535.251	48839.11
535.451	48748.99
535.652	48675.27
535.853	48671.17
536.054	48609.73
536.255	49086.91
536.456	47983.05
536.657	48832.96
536.857	48120.27
537.058	47946.19
537.259	48230.86
537.46	48318.92
537.66	48294.35
537.861	48400.84
538.062	48343.5
538.263	48503.24
538.463	47864.27
538.664	47905.23
538.865	47950.29
539.065	48361.93
539.266	47942.1
539.466	48214.47
539.667	47974.86
539.868	48341.45
540.068	47788.5
540.269	47679.96
540.469	48175.56
540.67	47802.83
540.87	47540.69
541.071	47569.36
541.271	47684.05
541.472	47423.96
541.672	47165.91
541.873	47288.79
542.073	46856.67
542.274	47694.29
542.474	47344.09
542.675	47229.4
542.875	48019.92
543.075	47245.79
543.276	47081.95
543.476	47587.8
543.676	47221.21
543.877	47270.36
544.077	47356.38
544.277	47249.88
544.478	47114.72
544.678	47233.5
544.878	47071.71
545.078	47589.84
545.279	46877.15
545.479	46668.26
545.679	47321.56
545.879	47256.03
546.079	47172.06
546.28	47307.22
546.48	46768.61
546.68	47202.78
546.88	47294.94
547.08	47094.24
547.28	46973.41
547.48	46555.62
547.68	46930.4
547.88	46715.36
548.081	47432.15
548.281	47288.79
548.481	46664.16
548.681	47213.02
548.881	46961.12
549.081	46905.82
549.28	47047.13
549.48	46959.07
549.68	47032.8
549.88	47249.88
550.08	46531.04
550.28	46987.74
550.48	47213.02
550.68	47331.8
550.88	46623.2
551.08	46895.58
551.279	47204.83
551.479	47131.1
551.679	47010.27
551.879	46901.73
552.079	47313.37
552.278	46617.06
552.478	46680.55
552.678	47057.37
552.878	47225.31
553.077	47319.51
553.277	46840.29
553.477	47725.01
553.676	46871.01
553.876	47194.59
554.076	46660.07
554.275	47190.49
554.475	46590.44
554.674	46932.45
554.874	47270.36
555.074	47100.38
555.273	47292.89
555.473	47655.38
555.672	47127
555.872	47391.19
556.071	47278.55
556.271	47292.89
556.47	46582.24
556.67	46934.49
556.869	47264.22
557.068	47196.63
557.268	46938.59
557.467	47243.74
557.667	47458.77
557.866	47524.31
558.065	46954.97
558.265	47084
558.464	47051.23
558.663	47614.42
558.863	46875.1
559.062	47704.53
559.261	47161.82
559.461	47270.36
559.66	46737.89
559.859	47194.59
560.058	46860.77
560.258	47045.08
560.457	47139.29
560.656	47434.2
560.855	47198.68
561.054	47172.06
561.253	46858.72
561.453	47069.66
561.652	47417.82
561.851	46856.67
562.05	46875.1
562.249	46969.31
562.448	47217.11
562.647	46795.23
562.846	46660.07
563.045	46832.1
563.244	46838.24
563.443	47356.38
563.642	46119.4
563.841	46899.68
564.04	46723.55
564.239	47120.86
564.438	46483.94
564.637	47024.61
564.836	47110.62
565.035	46549.48
565.234	46653.92
565.432	46268.9
565.631	46166.51
565.83	46193.13
566.029	45951.47
566.228	45957.61
566.427	45783.54
566.625	45761.01
566.824	45359.61
567.023	46311.91
567.222	45441.53
567.42	46178.79
567.619	45613.55
567.818	45695.47
568.016	45443.57
568.215	46246.38
568.414	45679.09
568.612	46209.51
568.811	45189.63
569.01	45394.42
569.208	44845.57
569.407	45615.6
569.605	44751.36
569.804	45384.18
570.002	45007.36
570.201	45279.74
570.4	44679.68
570.598	44827.13
570.797	44927.49
570.995	44882.43
571.193	44190.22
571.392	44487.17
571.59	44155.4
571.789	44077.58
571.987	43819.53
572.186	43649.55
572.384	43948.56
572.582	44022.28
572.781	43817.49
572.979	43581.97
573.177	43778.57
573.376	43876.88
573.574	43450.9
573.772	43762.19
573.971	42922.52
574.169	43008.54
574.367	42693.15
574.565	42998.3
574.763	42762.78
574.962	42631.71
575.16	42136.1
575.358	42770.97
575.556	41994.79
575.754	42730.01
575.952	42082.86
576.151	42514.98
576.349	42136.1
576.547	42084.9
576.745	42385.96
576.943	41910.83
577.141	41454.13
577.339	41878.06
577.537	41923.11
577.735	41245.24
577.933	41163.32
578.131	41220.66
578.329	40806.97
578.527	40700.48
578.725	40983.1
578.923	41009.72
579.121	40809.02
579.319	40092.23
579.516	40761.92
579.714	40583.74
579.912	40110.66
580.11	40438.34
580.308	40383.04
580.506	40137.29
580.704	39817.8
580.901	39858.76
581.099	40559.17
581.297	39705.16
581.495	39504.46
581.692	39766.6
581.89	39254.61
582.088	39506.51
582.285	39266.9
582.483	39152.21
582.681	38967.9
582.878	39338.58
583.076	38922.84
583.274	38998.62
583.471	38599.26
583.669	38478.43
583.866	38120.04
584.064	38693.47
584.262	38191.72
584.459	38455.9
584.657	38410.85
584.854	38441.57
585.052	37538.41
585.249	37741.16
585.447	37972.58
585.644	37702.25
585.841	37515.89
586.039	38128.23
586.236	37319.28
586.434	37474.93
586.631	36973.17
586.828	36952.69
587.026	37106.29
587.223	37145.2
587.42	37165.68
587.618	36960.89
587.815	36434.56
588.012	36592.25
588.21	36985.46
588.407	37040.76
588.604	36418.17
588.801	36444.8
588.999	36584.06
589.196	36352.64
589.393	36448.89
589.59	35746.44
589.787	36151.94
589.984	35996.29
590.182	35852.94
590.379	36186.75
590.576	35342.99
590.773	35601.04
590.97	35187.35
591.167	35758.73
591.364	35187.35
591.561	35555.98
591.758	34964.12
591.955	35459.73
592.152	35539.6
592.349	34777.75
592.546	35132.05
592.743	34996.88
592.94	34566.81
593.137	34818.71
593.334	34783.9
593.531	34480.8
593.727	34761.37
593.924	34697.88
594.121	34194.08
594.318	34728.6
594.515	33821.35
594.712	34622.11
594.908	33927.84
595.105	34278.05
595.302	34050.72
595.499	34220.7
595.696	34364.06
595.892	34212.51
596.089	34081.44
596.286	33993.38
596.482	33987.24
596.679	34032.29
596.876	33960.61
597.072	33743.53
597.269	33628.84
597.466	33641.13
597.662	33413.8
597.859	33424.04
598.055	33639.08
598.252	33385.13
598.448	33303.21
598.645	33454.76
598.841	33028.79
599.038	33694.38
599.234	33211.06
599.431	33032.88
599.627	33180.34
599.824	33247.92
600.02	33082.03
600.217	33125.04
600.413	33100.47
600.609	33084.08
600.806	32991.92
601.002	33008.31
601.198	32578.23
601.395	32914.1
601.591	33143.47
601.787	33018.55
601.984	32707.26
602.18	33213.1
602.376	32582.33
602.572	32875.19
602.769	33043.12
602.965	32672.44
603.161	32686.78
603.357	32527.03
603.553	32408.25
603.75	32561.85
603.946	32602.81
604.142	32846.52
604.338	32379.58
604.534	32606.91
604.73	32389.82
604.926	32703.16
605.122	32357.05
605.318	32359.1
605.514	32355
605.71	32150.21
605.906	32496.31
606.102	32230.08
606.298	32271.04
606.494	32234.17
606.69	32567.99
606.886	32856.76
607.082	32516.79
607.278	32705.21
607.474	31924.93
607.67	32762.55
607.866	32076.48
608.062	32803.51
608.257	32260.8
608.453	32357.05
608.649	32307.9
608.845	32131.78
609.041	32363.2
609.236	32422.59
609.432	32295.61
609.628	32361.15
609.824	32260.8
610.019	32469.69
610.215	32453.31
610.411	32557.75
610.606	32244.41
610.802	32277.18
610.998	32369.34
611.193	32348.86
611.389	32279.23
611.584	32287.42
611.78	31789.77
611.976	32383.68
612.171	32621.24
612.367	32479.93
612.562	31974.08
612.758	31980.23
612.953	32586.43
613.149	32299.71
613.344	32129.73
613.539	32615.1
613.735	32021.19
613.93	32418.49
614.126	32031.43
614.321	32602.81
614.517	32285.37
614.712	32230.08
614.907	32144.06
615.103	32576.19
615.298	31949.51
615.493	32727.74
615.688	31757
615.884	32690.87
616.079	32037.57
616.274	32152.26
616.47	32088.77
616.665	32088.77
616.86	32217.79
617.055	31820.49
617.25	31896.26
617.445	32180.93
617.641	31488.71
617.836	32182.98
618.031	31568.58
618.226	32072.39
618.421	31599.3
618.616	32271.04
618.811	31341.26
619.006	31777.48
619.201	31158.99
619.396	31218.38
619.591	30882.52
619.786	31556.3
619.981	30968.53
620.176	31478.47
620.371	30630.62
620.566	31021.78
620.761	30712.53
620.956	31173.33
621.151	30083.81
621.346	30618.33
621.541	30284.51
621.735	30352.09
621.93	29911.78
622.125	30032.61
622.32	29815.52
622.515	29821.67
622.709	29534.95
622.904	29172.46
623.099	29623.01
623.294	29303.53
623.488	28994.29
623.683	29158.13
623.878	28969.71
624.072	28971.76
624.267	28470.01
624.462	28398.33
624.656	28502.78
624.851	28508.92
625.046	28054.27
625.24	28453.62
625.435	27661.06
625.629	27564.81
625.824	27390.73
626.018	27464.46
626.213	26979.09
626.407	27593.48
626.602	26731.28
626.796	27024.14
626.991	26870.54
627.185	26780.43
627.38	26202.91
627.574	26503.96
627.768	25963.29
627.963	26260.25
628.157	25932.57
628.352	25987.87
628.546	25686.82
628.74	25586.47
628.935	25131.82
629.129	25443.11
629.323	24890.16
629.517	25414.44
629.712	25029.42
629.906	24769.33
630.1	24689.46
630.294	24707.89
630.489	24339.26
630.683	24484.66
630.877	24140.6
631.071	23925.57
631.265	24181.56
631.459	23982.91
631.653	23880.51
631.848	24009.53
632.042	23720.77
632.236	23399.24
632.43	23393.09
632.624	23454.53
632.818	23053.13
633.012	22895.44
633.206	22909.77
633.4	22924.11
633.594	22348.63
633.788	22629.2
633.982	22664.02
634.176	22348.63
634.369	22612.82
634.563	22168.41
634.757	22027.1
634.951	22074.2
635.145	21830.49
635.339	21783.39
635.533	21672.8
635.726	21764.96
635.92	21046.12
636.114	21140.33
636.308	21111.66
636.501	21285.73
636.695	20702.06
636.889	21154.66
637.083	20845.42
637.276	20732.78
637.47	20337.52
637.664	20241.27
637.857	20452.21
638.051	20132.73
638.244	19833.72
638.438	20097.91
638.632	19972.99
638.825	19698.56
639.019	19415.94
639.212	19661.69
639.406	19555.2
639.599	19018.63
639.793	19420.03
639.986	18871.18
640.18	18953.1
640.373	18762.64
640.567	18494.35
640.76	18606.99
640.954	18410.39
641.147	18502.54
641.34	18250.64
641.534	18471.82
641.727	18111.38
641.92	18289.56
642.114	17808.28
642.307	17777.56
642.5	17669.02
642.694	17511.33
642.887	17499.04
643.08	17765.28
643.273	17257.38
643.467	17505.18
643.66	17220.52
643.853	17173.41
644.046	16735.15
644.239	17038.25
644.432	16872.36
644.626	16700.33
644.819	16497.58
645.012	16741.29
645.205	16413.62
645.398	16182.2
645.591	16079.8
645.784	16057.27
645.977	15854.52
646.17	15954.87
646.363	15852.47
646.556	15420.35
646.749	15629.24
646.942	15420.35
647.135	15334.34
647.328	15244.23
647.521	15508.41
647.714	14990.28
647.907	15176.64
648.099	14996.42
648.292	15064
648.485	14920.65
648.678	14711.75
648.871	14541.77
649.064	14351.31
649.256	14748.62
649.449	14595.02
649.642	14539.72
649.835	14373.84
650.027	14220.24
650.22	13976.53
650.413	14027.73
650.605	13964.25
650.798	14076.88
650.991	13775.83
651.183	13876.18
651.376	13595.61
651.568	13769.69
651.761	13661.15
651.954	13630.43
652.146	13218.78
652.339	13464.54
652.531	13243.36
652.724	13210.59
652.916	12907.49
653.109	13147.11
653.301	13167.59
653.494	13171.68
653.686	12735.46
653.879	13032.42
654.071	12895.21
654.263	12592.11
654.456	12473.32
654.648	12612.59
654.84	12555.24
655.033	12471.28
655.225	12356.59
655.417	12260.34
655.61	12399.6
655.802	12352.49
655.994	12182.51
656.186	12073.97
656.379	11985.91
656.571	11949.04
656.763	11770.87
656.955	11744.25
657.148	11576.31
657.34	11906.04
657.532	11467.77
657.724	11406.33
657.916	11400.19
658.108	11502.59
658.3	11465.72
658.492	11330.56
658.684	11070.47
658.876	11066.37
659.068	11017.22
659.26	10990.59
659.452	11015.17
659.644	11025.41
659.836	10804.23
660.028	10693.64
660.22	10640.39
660.412	10675.21
660.604	10595.34
660.796	10552.33
660.988	10361.87
661.18	10445.84
661.372	10292.24
661.563	10357.77
661.755	10155.02
661.947	10347.53
662.139	9899.03
662.331	9958.42
662.522	9892.88
662.714	10095.63
662.906	9802.77
663.097	9813.01
663.289	9700.37
663.481	9716.76
663.673	9804.82
663.864	9526.3
664.056	9653.27
664.247	9827.35
664.439	9593.88
664.631	9507.87
664.822	9266.21
665.014	9339.93
665.205	9131.04
665.397	9188.38
665.588	9198.62
665.78	9159.71
665.971	9139.23
666.163	8987.68
666.354	9229.34
666.546	8852.52
666.737	8752.17
666.929	8778.79
667.12	8901.67
667.311	8604.71
667.503	8709.16
667.694	8674.34
667.885	8473.64
668.077	8789.03
668.268	8426.54
668.459	8526.89
668.651	8438.83
668.842	8551.46
669.033	8451.11
669.224	8328.24
669.416	8432.68
669.607	8291.37
669.798	8256.56
669.989	8293.42
670.18	8105.01
670.371	8125.49
670.563	8098.86
670.754	8062
670.945	7939.12
671.136	8111.15
671.327	7918.64
671.518	7853.11
671.709	7795.76
671.9	7889.97
672.091	7844.91
672.282	7717.94
672.473	7650.36
672.664	7668.79
672.855	7525.43
673.046	7656.5
673.237	7670.84
673.428	7488.57
673.619	7593.01
673.809	7429.18
674	7470.14
674.191	7494.71
674.382	7386.17
674.573	7457.85
674.764	7248.96
674.954	7283.77
675.145	7232.57
675.336	7326.78
675.527	7410.75
675.717	7150.65
675.908	7255.1
676.099	7238.72
676.289	7146.56
676.48	7105.6
676.671	7136.32
676.861	7175.23
677.052	7136.32
677.243	7066.69
677.433	6861.89
677.624	7232.57
677.814	6937.66
678.005	6935.62
678.195	6992.96
678.386	6853.7
678.576	6792.26
678.767	6917.19
678.957	6804.55
679.148	6796.35
679.338	6888.51
679.529	6689.86
679.719	6677.57
679.909	6734.92
680.1	6956.1
680.29	6726.72
680.481	6708.29
680.671	6603.85
680.861	6718.53
681.052	6673.48
681.242	6779.97
681.432	6734.92
681.622	6497.35
681.813	6571.08
682.003	6591.56
682.193	6538.31
682.383	6722.63
682.573	6437.96
682.764	6331.47
682.954	6423.62
683.144	6452.3
683.334	6513.74
683.524	6358.09
683.714	6403.14
683.904	6341.71
684.094	6548.55
684.284	6382.67
684.474	6360.14
684.664	6368.33
684.854	6437.96
685.044	6378.57
685.234	6239.31
685.424	6343.75
685.614	6321.23
685.804	6345.8
685.994	6251.6
686.184	6267.98
686.374	6102.09
686.564	6196.3
686.753	6141
686.943	6085.71
687.133	6028.37
687.323	6030.41
687.513	6083.66
687.702	5977.17
687.892	5944.4
688.082	6044.75
688.272	6022.22
688.461	5860.43
688.651	5862.48
688.841	5887.06
689.03	5954.64
689.22	5917.78
689.41	5944.4
689.599	5835.86
689.789	5813.33
689.979	5940.3
690.168	5645.4
690.358	5682.26
690.547	5600.34
690.737	5741.65
690.926	5669.97
691.116	5553.24
691.305	5682.26
691.495	5659.73
691.684	5702.74
691.874	5526.61
692.063	5616.72
692.252	5438.55
692.442	5448.79
692.631	5325.91
692.82	5467.22
693.01	5477.46
693.199	5350.49
693.388	5325.91
693.578	5297.24
693.767	5422.17
693.956	5196.89
694.146	5276.76
694.335	5160.03
694.524	5276.76
694.713	5364.82
694.902	5200.99
695.092	5246.04
695.281	5133.4
695.47	5243.99
695.659	5104.73
695.848	5153.88
696.037	5127.26
696.226	5248.09
696.415	4973.66
696.604	5141.6
696.793	5000.29
696.982	5100.64
697.171	4990.05
697.36	5098.59
697.549	4953.18
697.738	4912.22
697.927	4875.36
698.116	5084.25
698.305	4758.63
698.494	5018.72
698.683	4801.63
698.872	4830.3
699.061	4793.44
699.25	4858.98
699.438	4750.43
699.627	4752.48
699.816	4693.09
700.005	4639.84
700.193	4668.52
700.382	4805.73
700.571	4775.01
700.76	4758.63
700.948	4766.82
701.137	4613.22
701.326	4793.44
701.514	4613.22
701.703	4777.06
701.892	4676.71
702.08	4729.95
702.269	4611.17
702.457	4609.12
702.646	4553.83
702.834	4666.47
703.023	4500.58
703.212	4430.95
703.4	4559.97
703.589	4428.9
703.777	4531.3
703.965	4293.74
704.154	4498.53
704.342	4396.14
704.531	4457.57
704.719	4330.6
704.907	4461.67
705.096	4224.11
705.284	4437.09
705.472	4295.79
705.661	4322.41
705.849	4248.68
706.037	4478.05
706.226	4213.87
706.414	4185.19
706.602	4203.63
706.79	4297.83
706.979	4209.77
707.167	3994.73
707.355	4199.53
707.543	4299.88
707.731	4174.95
707.919	4023.41
708.107	3994.73
708.296	3957.87
708.484	3923.05
708.672	4150.38
708.86	3988.59
709.048	4035.69
709.236	3978.35
709.424	3988.59
709.612	3863.66
709.8	3880.05
709.988	4086.89
710.176	3939.44
710.364	3796.08
710.551	3863.66
710.739	3953.77
710.927	4043.88
711.115	3783.79
711.303	3867.76
711.491	3773.55
711.679	3724.4
711.866	3834.99
712.054	3871.86
712.242	3691.63
712.43	3708.02
712.617	3736.69
712.805	3822.7
712.993	3742.83
713.181	3593.33
713.368	3636.34
713.556	3642.48
713.744	3660.91
713.931	3748.98
714.119	3650.67
714.306	3697.78
714.494	3503.22
714.682	3511.41
714.869	3431.54
715.057	3519.6
715.244	3517.56
715.432	3425.4
715.619	3619.96
715.807	3363.96
715.994	3613.81
716.182	3449.97
716.369	3447.93
716.556	3572.85
716.744	3419.25
716.931	3439.73
717.119	3372.15
717.306	3460.21
717.493	3392.63
717.681	3415.16
717.868	3413.11
718.055	3357.82
718.242	3282.04
718.43	3341.43
718.617	3345.53
718.804	3253.37
718.991	3290.23
719.179	3353.72
719.366	3363.96
719.553	3216.51
719.74	3169.4
719.927	3263.61
720.114	3224.7
720.301	3323
720.488	3150.97
720.676	3132.54
720.863	3284.09
721.05	3191.93
721.237	3069.05
721.424	3187.83
721.611	3175.55
721.798	2933.89
721.985	3077.24
722.172	3075.2
722.358	3067
722.545	3069.05
722.732	2974.85
722.919	2970.75
723.106	3069.05
723.293	3114.11
723.48	2956.41
723.667	2905.21
723.853	2972.8
724.04	3077.24
724.227	3019.9
724.414	3030.14
724.6	2817.15
724.787	3058.81
724.974	2962.56
725.161	2907.26
725.347	2942.08
725.534	2876.54
725.72	2827.39
725.907	2817.15
726.094	2823.3
726.28	2831.49
726.467	2913.41
726.653	2835.58
726.84	2929.79
727.027	2964.61
727.213	2823.3
727.4	2833.54
727.586	2808.96
727.773	2782.34
727.959	2776.19
728.145	2915.45
728.332	2661.51
728.518	2696.32
728.705	2741.38
728.891	2714.75
729.077	2704.51
729.264	2630.79
729.45	2651.27
729.636	2741.38
729.823	2759.81
730.009	2798.72
730.195	2645.12
730.382	2718.85
730.568	2614.4
730.754	2761.86
730.94	2663.55
731.126	2587.78
731.313	2561.16
731.499	2622.59
731.685	2643.07
731.871	2595.97
732.057	2745.47
732.243	2593.92
732.429	2569.35
732.615	2702.47
732.801	2454.66
732.987	2487.43
733.173	2540.68
733.359	2563.2
733.545	2493.57
733.731	2577.54
733.917	2542.72
734.103	2530.44
734.289	2471.04
734.475	2501.76
734.661	2528.39
734.847	2559.11
735.033	2481.28
735.219	2534.53
735.404	2495.62
735.59	2421.89
735.776	2309.26
735.962	2446.47
736.148	2499.72
736.333	2434.18
736.519	2393.22
736.705	2294.92
736.89	2444.42
737.076	2421.89
737.262	2231.43
737.447	2315.4
737.633	2317.45
737.819	2425.99
738.004	2393.22
738.19	2430.09
738.375	2331.78
738.561	2491.52
738.747	2258.06
738.932	2344.07
739.118	2350.21
739.303	2299.02
739.489	2251.91
739.674	2256.01
739.859	2135.18
740.045	2319.5
740.23	2213
740.416	2180.23
740.601	2102.41
740.786	2172.04
740.972	2114.7
741.157	2147.47
741.342	2086.03
741.528	2108.55
741.713	2198.67
741.898	2049.16
742.084	2081.93
742.269	2131.08
742.454	2137.23
742.639	2032.78
742.824	2143.37
743.01	2102.41
743.195	2178.19
743.38	1991.82
743.565	2036.88
743.75	1963.15
743.935	2155.66
744.12	2055.31
744.305	1963.15
744.49	2118.79
744.675	2040.97
744.86	1993.87
745.045	1987.72
745.23	2028.68
745.415	2012.3
745.6	1967.24
745.785	1946.76
745.97	1895.57
746.155	1897.61
746.34	1938.57
746.525	1889.42
746.71	1807.5
746.895	1842.32
747.079	1842.32
747.264	1795.22
747.449	1938.57
747.634	1799.31
747.819	1721.49
748.003	1875.09
748.188	1709.2
748.373	1764.5
748.557	1631.38
748.742	1850.51
748.927	1680.53
749.111	1709.2
749.296	1717.39
749.481	1766.54
749.665	1694.86
749.85	1496.21
750.034	1733.78
750.219	1727.63
750.404	1627.28
750.588	1688.72
750.773	1543.32
750.957	1565.84
751.141	1637.52
751.326	1578.13
751.51	1471.64
751.695	1678.48
751.879	1571.99
752.064	1553.55
752.248	1555.6
752.432	1580.18
752.617	1420.44
752.801	1467.54
752.985	1500.31
753.17	1598.61
753.354	1510.55
753.538	1496.21
753.722	1393.81
753.907	1477.78
754.091	1434.77
754.275	1381.53
754.459	1449.11
754.643	1377.43
754.828	1387.67
755.012	1455.25
755.196	1352.85
755.38	1393.81
755.564	1313.94
755.748	1346.71
755.932	1350.81
756.116	1318.04
756.3	1332.37
756.484	1242.26
756.668	1219.74
756.852	1150.11
757.036	1207.45
757.22	1266.84
757.404	1297.56
757.588	1209.5
757.772	1320.09
757.956	1236.12
758.14	1242.26
758.323	1240.22
758.507	1248.41
758.691	1246.36
758.875	1250.46
759.059	1236.12
759.242	1139.87
759.426	1143.96
759.61	1160.34
759.794	1057.95
759.977	1219.74
760.161	1234.07
760.345	1184.92
760.528	1154.2
760.712	1236.12
760.895	1096.86
761.079	1113.24
761.263	1143.96
761.446	1066.14
761.63	1135.77
761.813	1217.69
761.997	1103
762.18	1016.99
762.364	1037.47
762.547	1184.92
762.731	1037.47
762.914	1006.75
763.098	1070.23
763.281	1012.89
763.464	1115.29
763.648	1137.82
763.831	1072.28
764.015	1035.42
764.198	1033.37
764.381	1008.8
764.564	1053.85
764.748	1000.6
764.931	969.88
765.114	996.51
765.297	1029.27
765.481	1012.89
765.664	973.98
765.847	1031.32
766.03	1076.38
766.213	1053.85
766.397	963.74
766.58	883.87
766.763	1039.51
766.946	933.02
767.129	996.51
767.312	1012.89
767.495	1012.89
767.678	914.59
767.861	1012.89
768.044	965.79
768.227	971.93
768.41	926.88
768.593	939.16
768.776	943.26
768.959	939.16
769.142	963.74
769.324	898.2
769.507	926.88
769.69	908.44
769.873	887.97
770.056	935.07
770.239	808.09
770.421	955.55
770.604	967.84
770.787	930.97
770.97	832.67
771.152	863.39
771.335	894.11
771.518	822.43
771.7	908.44
771.883	984.22
772.066	908.44
772.248	887.97
772.431	892.06
772.613	939.16
772.796	793.76
772.978	840.86
773.161	861.34
773.343	859.29
773.526	760.99
773.708	804
773.891	787.61
774.073	793.76
774.256	795.81
774.438	820.38
774.621	814.24
774.803	849.05
774.985	808.09
775.168	836.77
775.35	740.51
775.532	756.9
775.715	685.22
775.897	865.44
776.079	715.94
776.261	717.98
776.444	705.7
776.626	677.02
776.808	734.37
776.99	695.46
777.173	705.7
777.355	711.84
777.537	666.78
777.719	636.06
777.901	634.02
778.083	617.63
778.265	636.06
778.447	717.98
778.629	664.74
778.811	627.87
778.993	685.22
779.175	644.26
779.357	629.92
779.539	601.25
779.721	668.83
779.903	623.78
780.085	640.16
780.267	672.93
780.449	570.53
780.631	613.54
780.812	533.67
780.994	588.96
781.176	599.2
781.358	533.67
781.54	545.95
781.721	674.98
781.903	582.82
782.085	548
782.267	646.3
782.448	515.23
782.63	574.63
782.812	576.67
782.993	562.34
783.175	554.15
783.357	507.04
783.538	576.67
783.72	574.63
783.901	619.68
784.083	492.71
784.264	521.38
784.446	416.93
784.627	468.13
784.809	511.14
784.99	509.09
785.172	513.19
785.353	476.32
785.535	529.57
785.716	472.23
785.897	414.88
786.079	443.56
786.26	500.9
786.441	500.9
786.623	451.75
786.804	472.23
786.985	468.13
787.167	521.38
787.348	353.45
787.529	480.42
787.71	488.61
787.891	394.4
788.073	386.21
788.254	439.46
788.435	423.08
788.616	517.28
788.797	324.77
788.978	390.31
789.159	449.7
789.34	283.81
789.522	316.58
789.703	398.5
789.884	466.08
790.065	384.16
790.246	431.27
790.427	294.05
790.607	466.08
790.788	337.06
790.969	382.12
791.15	382.12
791.331	365.73
791.512	326.82
791.693	324.77
791.874	335.01
792.054	464.04
792.235	349.35
792.416	298.15
792.597	382.12
792.778	322.73
792.958	433.32
793.139	349.35
793.32	341.16
793.5	324.77
793.681	341.16
793.862	275.62
794.042	384.16
794.223	269.48
794.404	316.58
794.584	324.77
794.765	353.45
794.945	326.82
795.126	390.31
795.306	324.77
795.487	332.97
795.667	390.31
795.848	345.25
796.028	253.09
796.209	308.39
796.389	251.05
796.57	267.43
796.75	191.66
796.93	337.06
797.111	201.9
797.291	375.97
797.471	357.54
797.652	365.73
797.832	246.95
798.012	365.73
798.192	306.34
798.373	242.85
798.553	232.62
798.733	298.15
798.913	287.91
799.093	220.33
799.274	294.05
799.454	292.01
799.634	242.85
799.814	283.81
799.994	205.99
800.174	300.2
800.354	337.06
800.534	165.03
800.714	251.05
800.894	232.62
801.074	259.24
801.254	261.29
801.434	285.86
801.614	226.47
801.794	160.94
801.974	881.82
802.154	259.24
802.334	285.86
802.514	187.56
802.693	312.49
802.873	193.7
803.053	345.25
803.233	267.43
803.413	154.79
803.592	205.99
803.772	236.71
803.952	160.94
804.131	249
804.311	226.47
804.491	226.47
804.67	152.74
804.85	234.66
805.03	255.14
805.209	308.39
805.389	228.52
805.568	218.28
805.748	220.33
805.928	234.66
806.107	210.09
806.287	214.18
806.466	203.94
806.646	210.09
806.825	171.18
807.004	220.33
807.184	218.28
807.363	259.24
807.543	152.74
807.722	210.09
807.901	210.09
808.081	144.55
808.26	242.85
808.439	181.42
808.619	236.71
808.798	169.13
808.977	259.24
809.156	275.62
809.336	195.75
809.515	226.47
809.694	236.71
809.873	218.28
810.052	173.22
810.231	210.09
810.411	218.28
810.59	169.13
810.769	210.09
810.948	185.51
811.127	113.83
811.306	160.94
811.485	119.98
811.664	300.2
811.843	242.85
812.022	160.94
812.201	148.65
812.38	132.26
812.559	193.7
812.737	214.18
812.916	169.13
813.095	130.22
813.274	162.98
813.453	117.93
813.632	136.36
813.811	160.94
813.989	134.31
814.168	111.78
814.347	242.85
814.526	240.81
814.704	205.99
814.883	201.9
815.062	113.83
815.24	214.18
815.419	72.87
815.598	169.13
815.776	89.26
815.955	181.42
816.133	111.78
816.312	210.09
816.49	89.26
816.669	72.87
816.847	138.41
817.026	193.7
817.204	201.9
817.383	132.26
817.561	91.31
817.74	101.55
817.918	162.98
818.097	95.4
818.275	74.92
818.453	130.22
818.632	205.99
818.81	169.13
818.988	113.83
819.167	128.17
819.345	119.98
819.523	156.84
819.701	103.59
819.879	136.36
820.058	91.31
820.236	103.59
820.414	138.41
820.592	136.36
820.77	66.73
820.948	115.88
821.127	130.22
821.305	101.55
821.483	105.64
821.661	99.5
821.839	60.59
822.017	58.54
822.195	111.78
822.373	191.66
822.551	132.26
822.729	160.94
822.907	169.13
823.085	152.74
823.262	103.59
823.44	109.74
823.618	79.02
823.796	128.17
823.974	101.55
824.152	72.87
824.329	40.11
824.507	150.7
824.685	185.51
824.863	95.4
825.04	54.44
825.218	105.64
825.396	103.59
825.574	107.69
825.751	103.59
825.929	169.13
826.107	146.6
826.284	113.83
826.462	95.4
826.639	64.68
826.817	85.16
826.994	56.49
827.172	56.49
827.349	187.56
827.527	177.32
827.704	97.45
827.882	146.6
828.059	95.4
828.237	79.02
828.414	124.07
828.591	62.63
828.769	81.07
828.946	31.91
829.124	156.84
829.301	150.7
829.478	62.63
829.655	124.07
829.833	132.26
830.01	-31.57
830.187	105.64
830.364	101.55
830.542	-17.24
830.719	152.74
830.896	132.26
831.073	134.31
831.25	50.35
831.427	72.87
831.604	95.4
831.782	62.63
831.959	79.02
832.136	169.13
832.313	79.02
832.49	79.02
832.667	83.11
832.844	64.68
833.021	132.26
833.198	109.74
833.374	111.78
833.551	23.72
833.728	46.25
833.905	74.92
834.082	19.63
834.259	111.78
834.436	107.69
834.612	29.87
834.789	46.25
834.966	138.41
835.143	89.26
835.319	85.16
835.496	132.26
835.673	21.67
835.85	117.93
836.026	101.55
836.203	111.78
836.38	48.3
836.556	46.25
836.733	38.06
836.909	185.51
837.086	54.44
837.262	87.21
837.439	46.25
837.616	95.4
837.792	68.78
837.968	83.11
838.145	99.5
838.321	40.11
838.498	76.97
838.674	46.25
838.851	62.63
839.027	48.3
839.203	15.53
839.38	15.53
839.556	21.67
839.732	171.18
839.909	72.87
840.085	138.41
840.261	40.11
840.437	72.87
840.614	72.87
840.79	95.4
840.966	103.59
841.142	115.88
841.318	13.48
841.494	56.49
841.671	66.73
841.847	76.97
842.023	70.83
842.199	-0.85
842.375	111.78
842.551	54.44
842.727	-0.85
842.903	23.72
843.079	-64.34
843.255	70.83
843.431	119.98
843.607	66.73
843.783	-29.52
843.959	66.73
844.134	81.07
844.31	58.54
844.486	-2.9
844.662	70.83
844.838	50.35
845.013	56.49
845.189	56.49
845.365	36.01
845.541	97.45
845.716	64.68
845.892	132.26
846.068	38.06
846.244	111.78
846.419	111.78
846.595	60.59
846.77	48.3
846.946	31.91
847.122	9.39
847.297	38.06
847.473	95.4
847.648	23.72
847.824	66.73
847.999	7.34
848.175	40.11
848.35	62.63
848.526	74.92
848.701	76.97
848.876	95.4
849.052	70.83
849.227	74.92
849.403	105.64
849.578	17.58
849.753	46.25
849.929	33.96
850.104	7.34
850.279	13.48
850.454	122.02
850.63	62.63
850.805	31.91
850.98	99.5
851.155	52.39
851.33	1.19
851.505	-68.44
851.681	54.44
851.856	-15.19
852.031	50.35
852.206	38.06
852.381	-25.43
852.556	-45.91
852.731	66.73
852.906	-2.9
853.081	38.06
853.256	128.17
853.431	62.63
853.606	5.29
853.781	56.49
853.956	-97.11
854.131	31.91
854.305	74.92
854.48	-35.67
854.655	62.63
854.83	38.06
855.005	15.53
855.18	89.26
855.354	66.73
855.529	-31.57
855.704	15.53
855.879	23.72
856.053	15.53
856.228	40.11
856.403	-45.91
856.577	31.91
856.752	-19.29
856.926	-9.05
857.101	40.11
857.276	-2.9
857.45	11.43
857.625	9.39
857.799	46.25
857.974	38.06
858.148	-4.95
858.323	85.16
858.497	40.11
858.672	46.25
858.846	-9.05
859.02	38.06
859.195	17.58
859.369	40.11
859.543	48.3
859.718	81.07
859.892	93.35
860.066	66.73
860.241	33.96
860.415	-4.95
860.589	31.91
860.763	7.34
860.938	31.91
861.112	83.11
861.286	97.45
861.46	38.06
861.634	-2.9
861.808	54.44
861.982	46.25
862.157	-41.81
862.331	46.25
862.505	5.29
862.679	21.67
862.853	-60.24
863.027	-2.9
863.201	66.73
863.375	40.11
863.549	56.49
863.722	54.44
863.896	42.15
864.07	5.29
864.244	31.91
864.418	9.39
864.592	-56.15
864.766	-13.14
864.939	-54.1
865.113	29.87
865.287	5.29
865.461	25.77
865.634	-56.15
865.808	-11.09
865.982	38.06
866.156	-33.62
866.329	13.48
866.503	62.63
866.676	91.31
866.85	29.87
867.024	-35.67
867.197	25.77
867.371	54.44
867.544	40.11
867.718	-15.19
867.891	62.63
868.065	-11.09
868.238	15.53
868.412	81.07
868.585	40.11
868.759	23.72
868.932	17.58
869.105	54.44
869.279	38.06
869.452	1.19
869.625	33.96
869.799	29.87
869.972	-78.68
870.145	62.63
870.319	21.67
870.492	-80.72
870.665	29.87
870.838	-4.95
871.011	-113.49
871.185	-19.29
871.358	31.91
871.531	23.72
871.704	52.39
871.877	-7
872.05	42.15
872.223	13.48
872.396	54.44
872.569	66.73
872.742	-82.77
872.915	62.63
873.088	-0.85
873.261	-56.15
873.434	5.29
873.607	-33.62
873.78	1.19
873.953	5.29
874.126	58.54
874.299	-2.9
874.471	-0.85
874.644	-0.85
874.817	15.53
874.99	29.87
875.163	-90.96
875.335	25.77
875.508	7.34
875.681	9.39
875.853	-13.14
876.026	-9.05
876.199	-17.24
876.371	62.63
876.544	-7
876.717	5.29
876.889	33.96
877.062	21.67
877.234	5.29
877.407	9.39
877.579	-2.9
877.752	-52.05
877.924	21.67
878.097	-27.48
878.269	29.87
878.442	66.73
878.614	5.29
878.786	27.82
878.959	46.25
879.131	21.67
879.303	-58.2
879.476	48.3
879.648	-4.95
879.82	21.67
879.993	56.49
880.165	23.72
880.337	-31.57
880.509	81.07
880.681	33.96
880.854	13.48
881.026	66.73
881.198	46.25
881.37	-27.48
881.542	7.34
881.714	-97.11
881.886	-15.19
882.058	-4.95
882.23	50.35
882.402	31.91
882.574	-47.96
882.746	15.53
882.918	46.25
883.09	54.44
883.262	19.63
883.434	21.67
883.606	-35.67
883.778	-25.43
883.95	81.07
884.122	21.67
884.293	-7
884.465	-17.24
884.637	152.74
884.809	-35.67
884.98	62.63
885.152	15.53
885.324	119.98
885.496	-31.57
885.667	46.25
885.839	29.87
886.011	52.39
886.182	17.58
886.354	58.54
886.525	-19.29
886.697	23.72
886.869	11.43
887.04	31.91
887.212	128.17
887.383	23.72
887.555	31.91
887.726	-17.24
887.897	-4.95
888.069	-0.85
888.24	13.48
888.412	7.34
888.583	62.63
888.754	-27.48
888.926	-60.24
889.097	13.48
889.268	-23.38
889.44	-76.63
889.611	-11.09
889.782	-35.67
889.953	17.58
890.125	21.67
890.296	-9.05
890.467	-2.9
890.638	9.39
890.809	38.06
890.98	-39.76
891.151	50.35
891.323	-4.95
891.494	38.06
891.665	-33.62
891.836	9.39
892.007	-27.48
892.178	36.01
892.349	81.07
892.52	-13.14
892.691	74.92
892.862	-64.34
893.032	25.77
893.203	-0.85
893.374	-27.48
893.545	56.49
893.716	-27.48
893.887	42.15
894.057	13.48
894.228	-2.9
894.399	38.06
894.57	-2.9
894.74	25.77
894.911	-2.9
895.082	1.19
895.253	-19.29
895.423	66.73
895.594	91.31
895.764	62.63
895.935	-23.38
896.106	29.87
896.276	25.77
896.447	50.35
896.617	-50
896.788	1.19
896.958	-35.67
897.129	-19.29
897.299	7.34
897.47	-2.9
897.64	50.35
897.81	-19.29
897.981	15.53
898.151	-19.29
898.322	72.87
898.492	33.96
898.662	66.73
898.832	-33.62
899.003	29.87
899.173	-13.14
899.343	-68.44
899.513	-72.53
