Data from USB4F104151__67__14-30-15-053.txt Node

Date: Thu Mar 13 14:30:15 EDT 2025
User: louis
Spectrometer: USB4F10415
Trigger mode: 4
Integration Time (sec): 2.500000E-2
Scans to average: 1
Electric dark correction enabled: true
Nonlinearity correction enabled: false
Boxcar width: 0
XAxis mode: Wavelengths
Number of Pixels in Spectrum: 3648
>>>>>Begin Spectral Data<<<<<
178.204	-176.98
178.424	-176.98
178.644	-176.98
178.864	-230.23
179.084	-107.35
179.304	-107.35
179.524	3.24
179.744	-27.48
179.964	-2.9
180.184	50.35
180.404	38.06
180.624	-11.09
180.844	23.72
181.064	-17.24
181.283	48.3
181.503	-54.1
181.723	56.49
181.943	19.63
182.163	-21.33
182.383	-17.24
182.602	-2.9
182.822	87.21
183.042	-27.48
183.262	-25.43
183.482	38.06
183.701	-11.09
183.921	29.87
184.141	81.07
184.361	50.35
184.58	5.29
184.8	-0.85
185.02	21.67
185.239	-60.24
185.459	-19.29
185.679	58.54
185.898	-43.86
186.118	97.45
186.338	64.68
186.557	31.91
186.777	-74.58
186.997	-15.19
187.216	46.25
187.436	50.35
187.655	62.63
187.875	70.83
188.095	-19.29
188.314	99.5
188.534	5.29
188.753	-47.96
188.973	-7
189.192	-35.67
189.412	-4.95
189.631	29.87
189.851	-39.76
190.07	13.48
190.29	-66.39
190.509	7.34
190.729	-23.38
190.948	142.5
191.168	148.65
191.387	7.34
191.607	1.19
191.826	-35.67
192.045	-60.24
192.265	7.34
192.484	56.49
192.704	-11.09
192.923	19.63
193.142	136.36
193.362	-82.77
193.581	-0.85
193.8	13.48
194.02	7.34
194.239	40.11
194.458	-2.9
194.678	42.15
194.897	11.43
195.116	33.96
195.335	-23.38
195.555	87.21
195.774	25.77
195.993	42.15
196.212	48.3
196.432	46.25
196.651	17.58
196.87	64.68
197.089	64.68
197.308	38.06
197.528	109.74
197.747	-11.09
197.966	21.67
198.185	23.72
198.404	-9.05
198.623	54.44
198.842	21.67
199.062	-11.09
199.281	74.92
199.5	99.5
199.719	54.44
199.938	52.39
200.157	1.19
200.376	74.92
200.595	27.82
200.814	-0.85
201.033	17.58
201.252	54.44
201.471	36.01
201.69	58.54
201.909	7.34
202.128	29.87
202.347	13.48
202.566	7.34
202.785	52.39
203.004	38.06
203.223	64.68
203.442	46.25
203.661	70.83
203.879	-19.29
204.098	13.48
204.317	-25.43
204.536	38.06
204.755	27.82
204.974	64.68
205.193	29.87
205.411	70.83
205.63	-27.48
205.849	103.59
206.068	56.49
206.287	-15.19
206.505	44.2
206.724	-9.05
206.943	5.29
207.162	-39.76
207.381	-50
207.599	13.48
207.818	23.72
208.037	13.48
208.255	-2.9
208.474	21.67
208.693	89.26
208.911	-25.43
209.13	68.78
209.349	54.44
209.567	46.25
209.786	21.67
210.005	62.63
210.223	-27.48
210.442	-27.48
210.661	58.54
210.879	15.53
211.098	40.11
211.316	44.2
211.535	-2.9
211.753	-0.85
211.972	-11.09
212.191	-54.1
212.409	-47.96
212.628	7.34
212.846	9.39
213.065	70.83
213.283	50.35
213.502	-7
213.72	25.77
213.938	46.25
214.157	23.72
214.375	-4.95
214.594	46.25
214.812	40.11
215.031	46.25
215.249	60.59
215.467	5.29
215.686	-2.9
215.904	66.73
216.122	-2.9
216.341	74.92
216.559	62.63
216.778	40.11
216.996	72.87
217.214	-15.19
217.432	31.91
217.651	5.29
217.869	-19.29
218.087	-41.81
218.306	-2.9
218.524	56.49
218.742	36.01
218.96	62.63
219.179	13.48
219.397	5.29
219.615	91.31
219.833	50.35
220.051	-60.24
220.27	29.87
220.488	58.54
220.706	46.25
220.924	-17.24
221.142	1.19
221.36	-17.24
221.578	13.48
221.796	89.26
222.015	33.96
222.233	66.73
222.451	21.67
222.669	46.25
222.887	21.67
223.105	46.25
223.323	70.83
223.541	-43.86
223.759	15.53
223.977	64.68
224.195	40.11
224.413	15.53
224.631	13.48
224.849	7.34
225.067	87.21
225.285	46.25
225.503	-29.52
225.721	31.91
225.939	58.54
226.157	101.55
226.375	79.02
226.592	-31.57
226.81	38.06
227.028	33.96
227.246	62.63
227.464	-33.62
227.682	48.3
227.9	-17.24
228.117	52.39
228.335	13.48
228.553	-37.72
228.771	105.64
228.989	5.29
229.206	-9.05
229.424	11.43
229.642	48.3
229.86	-19.29
230.077	81.07
230.295	7.34
230.513	44.2
230.731	-15.19
230.948	70.83
231.166	119.98
231.384	23.72
231.601	-2.9
231.819	91.31
232.037	-0.85
232.254	13.48
232.472	46.25
232.689	-60.24
232.907	81.07
233.125	31.91
233.342	38.06
233.56	-17.24
233.777	9.39
233.995	1.19
234.213	160.94
234.43	105.64
234.648	-15.19
234.865	-2.9
235.083	144.55
235.3	-17.24
235.518	13.48
235.735	46.25
235.953	64.68
236.17	-33.62
236.388	64.68
236.605	29.87
236.822	81.07
237.04	-0.85
237.257	7.34
237.475	-23.38
237.692	-35.67
237.909	21.67
238.127	40.11
238.344	-11.09
238.562	15.53
238.779	-17.24
238.996	-2.9
239.214	15.53
239.431	-31.57
239.648	29.87
239.865	-50
240.083	-17.24
240.3	29.87
240.517	-27.48
240.735	46.25
240.952	60.59
241.169	31.91
241.386	25.77
241.603	-27.48
241.821	5.29
242.038	70.83
242.255	46.25
242.472	-47.96
242.689	5.29
242.907	21.67
243.124	-33.62
243.341	1.19
243.558	-17.24
243.775	9.39
243.992	-66.39
244.209	-11.09
244.426	124.07
244.643	46.25
244.86	38.06
245.078	70.83
245.295	21.67
245.512	54.44
245.729	29.87
245.946	-9.05
246.163	40.11
246.38	54.44
246.597	-23.38
246.814	9.39
247.031	-13.14
247.248	50.35
247.464	33.96
247.681	-11.09
247.898	54.44
248.115	50.35
248.332	54.44
248.549	-13.14
248.766	17.58
248.983	27.82
249.2	-52.05
249.417	79.02
249.633	21.67
249.85	31.91
250.067	15.53
250.284	-2.9
250.501	103.59
250.717	70.83
250.934	29.87
251.151	25.77
251.368	33.96
251.585	48.3
251.801	29.87
252.018	-2.9
252.235	91.31
252.451	46.25
252.668	-27.48
252.885	-11.09
253.102	-41.81
253.318	17.58
253.535	-27.48
253.752	87.21
253.968	1.19
254.185	-17.24
254.401	31.91
254.618	-9.05
254.835	-52.05
255.051	128.17
255.268	42.15
255.484	50.35
255.701	15.53
255.917	38.06
256.134	-68.44
256.351	81.07
256.567	44.2
256.784	-27.48
257	42.15
257.217	-23.38
257.433	-13.14
257.65	-52.05
257.866	44.2
258.082	-39.76
258.299	-7
258.515	58.54
258.732	-17.24
258.948	-7
259.165	-35.67
259.381	-35.67
259.597	9.39
259.814	1.19
260.03	68.78
260.246	17.58
260.463	42.15
260.679	72.87
260.895	38.06
261.112	66.73
261.328	-9.05
261.544	-74.58
261.761	46.25
261.977	33.96
262.193	5.29
262.409	15.53
262.626	48.3
262.842	81.07
263.058	-50
263.274	119.98
263.49	-31.57
263.707	134.31
263.923	38.06
264.139	-25.43
264.355	29.87
264.571	60.59
264.787	79.02
265.004	70.83
265.22	-58.2
265.436	-23.38
265.652	25.77
265.868	95.4
266.084	31.91
266.3	9.39
266.516	-68.44
266.732	40.11
266.948	62.63
267.164	-35.67
267.38	48.3
267.596	46.25
267.812	140.46
268.028	-17.24
268.244	17.58
268.46	81.07
268.676	-4.95
268.892	50.35
269.108	40.11
269.324	-82.77
269.54	91.31
269.756	58.54
269.972	5.29
270.188	-95.06
270.403	17.58
270.619	15.53
270.835	126.12
271.051	29.87
271.267	-43.86
271.483	3.24
271.698	79.02
271.914	-17.24
272.13	38.06
272.346	-66.39
272.562	101.55
272.777	54.44
272.993	-23.38
273.209	23.72
273.425	36.01
273.64	-9.05
273.856	54.44
274.072	38.06
274.287	21.67
274.503	40.11
274.719	1.19
274.934	-11.09
275.15	-33.62
275.366	62.63
275.581	-39.76
275.797	-33.62
276.012	56.49
276.228	-11.09
276.444	-27.48
276.659	38.06
276.875	29.87
277.09	-19.29
277.306	-25.43
277.521	70.83
277.737	38.06
277.952	72.87
278.168	42.15
278.383	79.02
278.599	79.02
278.814	29.87
279.03	81.07
279.245	103.59
279.461	-23.38
279.676	89.26
279.892	25.77
280.107	-68.44
280.322	21.67
280.538	79.02
280.753	74.92
280.969	29.87
281.184	56.49
281.399	-7
281.615	-7
281.83	50.35
282.045	13.48
282.26	25.77
282.476	-2.9
282.691	85.16
282.906	-15.19
283.122	11.43
283.337	17.58
283.552	42.15
283.767	-19.29
283.983	-19.29
284.198	58.54
284.413	72.87
284.628	-56.15
284.843	56.49
285.058	62.63
285.274	-99.16
285.489	7.34
285.704	-13.14
285.919	15.53
286.134	-64.34
286.349	15.53
286.564	58.54
286.779	56.49
286.995	42.15
287.21	-11.09
287.425	-41.81
287.64	42.15
287.855	40.11
288.07	-27.48
288.285	134.31
288.5	42.15
288.715	76.97
288.93	-2.9
289.145	50.35
289.36	48.3
289.575	15.53
289.79	62.63
290.004	54.44
290.219	52.39
290.434	25.77
290.649	38.06
290.864	-11.09
291.079	-43.86
291.294	15.53
291.509	70.83
291.724	-11.09
291.938	29.87
292.153	-17.24
292.368	9.39
292.583	103.59
292.798	15.53
293.012	-2.9
293.227	79.02
293.442	46.25
293.657	1.19
293.871	46.25
294.086	11.43
294.301	42.15
294.516	66.73
294.73	40.11
294.945	-31.57
295.16	48.3
295.374	-17.24
295.589	103.59
295.804	-64.34
296.018	-21.33
296.233	48.3
296.447	72.87
296.662	70.83
296.877	62.63
297.091	48.3
297.306	19.63
297.52	-41.81
297.735	33.96
297.949	17.58
298.164	-17.24
298.378	13.48
298.593	-7
298.807	15.53
299.022	23.72
299.236	70.83
299.451	70.83
299.665	-35.67
299.88	-15.19
300.094	-15.19
300.309	83.11
300.523	3.24
300.737	70.83
300.952	5.29
301.166	23.72
301.381	-15.19
301.595	5.29
301.809	29.87
302.024	31.91
302.238	-33.62
302.452	31.91
302.667	46.25
302.881	95.4
303.095	21.67
303.309	64.68
303.524	-31.57
303.738	33.96
303.952	-52.05
304.166	95.4
304.381	-64.34
304.595	31.91
304.809	17.58
305.023	72.87
305.237	-2.9
305.452	7.34
305.666	97.45
305.88	56.49
306.094	81.07
306.308	68.78
306.522	40.11
306.736	-58.2
306.95	85.16
307.164	-2.9
307.379	9.39
307.593	115.88
307.807	9.39
308.021	31.91
308.235	91.31
308.449	36.01
308.663	81.07
308.877	40.11
309.091	46.25
309.305	31.91
309.519	-2.9
309.733	103.59
309.947	-25.43
310.161	38.06
310.374	79.02
310.588	60.59
310.802	3.24
311.016	-31.57
311.23	3.24
311.444	33.96
311.658	-7
311.872	70.83
312.085	42.15
312.299	76.97
312.513	64.68
312.727	13.48
312.941	17.58
313.154	111.78
313.368	-31.57
313.582	58.54
313.796	74.92
314.009	13.48
314.223	165.03
314.437	87.21
314.651	74.92
314.864	70.83
315.078	46.25
315.292	-0.85
315.505	-35.67
315.719	66.73
315.933	29.87
316.146	21.67
316.36	-39.76
316.573	85.16
316.787	-50
317.001	7.34
317.214	-9.05
317.428	72.87
317.641	-27.48
317.855	21.67
318.068	29.87
318.282	87.21
318.495	70.83
318.709	103.59
318.922	40.11
319.136	87.21
319.349	62.63
319.563	7.34
319.776	13.48
319.99	-17.24
320.203	46.25
320.417	83.11
320.63	58.54
320.843	95.4
321.057	-2.9
321.27	74.92
321.483	79.02
321.697	70.83
321.91	50.35
322.124	-23.38
322.337	111.78
322.55	-19.29
322.763	42.15
322.977	-25.43
323.19	31.91
323.403	9.39
323.617	23.72
323.83	91.31
324.043	31.91
324.256	95.4
324.469	56.49
324.683	58.54
324.896	-76.63
325.109	62.63
325.322	-0.85
325.535	46.25
325.748	31.91
325.962	50.35
326.175	-19.29
326.388	25.77
326.601	31.91
326.814	-2.9
327.027	79.02
327.24	83.11
327.453	9.39
327.666	62.63
327.879	38.06
328.092	40.11
328.305	79.02
328.518	21.67
328.731	-50
328.944	-0.85
329.157	29.87
329.37	68.78
329.583	56.49
329.796	70.83
330.009	-27.48
330.222	54.44
330.435	-2.9
330.648	17.58
330.861	48.3
331.073	50.35
331.286	38.06
331.499	31.91
331.712	-19.29
331.925	23.72
332.138	-76.63
332.35	42.15
332.563	74.92
332.776	93.35
332.989	-39.76
333.202	-11.09
333.414	40.11
333.627	7.34
333.84	-27.48
334.053	81.07
334.265	-52.05
334.478	1.19
334.691	-0.85
334.903	29.87
335.116	-2.9
335.329	48.3
335.541	25.77
335.754	111.78
335.966	17.58
336.179	11.43
336.392	21.67
336.604	29.87
336.817	72.87
337.029	62.63
337.242	-45.91
337.454	46.25
337.667	29.87
337.88	72.87
338.092	74.92
338.305	70.83
338.517	48.3
338.729	13.48
338.942	81.07
339.154	-15.19
339.367	-70.48
339.579	62.63
339.792	21.67
340.004	83.11
340.217	13.48
340.429	46.25
340.641	-23.38
340.854	-11.09
341.066	3.24
341.278	46.25
341.491	83.11
341.703	31.91
341.915	81.07
342.128	95.4
342.34	7.34
342.552	50.35
342.764	38.06
342.977	11.43
343.189	-35.67
343.401	64.68
343.613	-9.05
343.826	81.07
344.038	-2.9
344.25	54.44
344.462	-41.81
344.674	40.11
344.886	54.44
345.099	21.67
345.311	87.21
345.523	-31.57
345.735	5.29
345.947	66.73
346.159	21.67
346.371	33.96
346.583	-27.48
346.795	101.55
347.007	-27.48
347.219	72.87
347.431	7.34
347.643	54.44
347.855	15.53
348.067	70.83
348.279	-41.81
348.491	81.07
348.703	99.5
348.915	13.48
349.127	29.87
349.339	-2.9
349.551	-23.38
349.763	27.82
349.975	-4.95
350.187	111.78
350.399	64.68
350.61	1.19
350.822	-2.9
351.034	54.44
351.246	-21.33
351.458	46.25
351.669	81.07
351.881	81.07
352.093	146.6
352.305	72.87
352.517	105.64
352.728	87.21
352.94	19.63
353.152	91.31
353.363	-17.24
353.575	21.67
353.787	50.35
353.999	40.11
354.21	79.02
354.422	7.34
354.633	40.11
354.845	1.19
355.057	62.63
355.268	-27.48
355.48	-9.05
355.692	83.11
355.903	50.35
356.115	13.48
356.326	-9.05
356.538	-25.43
356.749	29.87
356.961	64.68
357.172	48.3
357.384	40.11
357.595	107.69
357.807	111.78
358.018	25.77
358.23	46.25
358.441	97.45
358.653	58.54
358.864	72.87
359.075	-43.86
359.287	119.98
359.498	31.91
359.709	-11.09
359.921	99.5
360.132	29.87
360.344	109.74
360.555	74.92
360.766	15.53
360.977	52.39
361.189	64.68
361.4	25.77
361.611	87.21
361.823	50.35
362.034	70.83
362.245	-39.76
362.456	48.3
362.667	50.35
362.879	89.26
363.09	46.25
363.301	62.63
363.512	38.06
363.723	29.87
363.935	-56.15
364.146	85.16
364.357	66.73
364.568	33.96
364.779	-64.34
364.99	95.4
365.201	-7
365.412	64.68
365.623	1.19
365.834	-2.9
366.045	42.15
366.256	105.64
366.467	31.91
366.678	62.63
366.889	29.87
367.1	97.45
367.311	38.06
367.522	54.44
367.733	64.68
367.944	81.07
368.155	70.83
368.366	-2.9
368.577	33.96
368.788	81.07
368.999	5.29
369.209	46.25
369.42	87.21
369.631	146.6
369.842	70.83
370.053	42.15
370.264	79.02
370.474	27.82
370.685	95.4
370.896	72.87
371.107	103.59
371.317	29.87
371.528	17.58
371.739	40.11
371.95	46.25
372.16	76.97
372.371	-0.85
372.582	81.07
372.792	107.69
373.003	9.39
373.214	-11.09
373.424	81.07
373.635	50.35
373.846	97.45
374.056	-0.85
374.267	-15.19
374.477	44.2
374.688	58.54
374.898	93.35
375.109	-0.85
375.319	38.06
375.53	29.87
375.74	40.11
375.951	5.29
376.161	38.06
376.372	52.39
376.582	42.15
376.793	52.39
377.003	40.11
377.214	-11.09
377.424	33.96
377.635	46.25
377.845	89.26
378.055	70.83
378.266	-11.09
378.476	-11.09
378.686	23.72
378.897	97.45
379.107	46.25
379.317	81.07
379.528	9.39
379.738	74.92
379.948	-31.57
380.158	126.12
380.369	-7
380.579	113.83
380.789	70.83
380.999	56.49
381.21	87.21
381.42	64.68
381.63	83.11
381.84	-23.38
382.05	103.59
382.261	72.87
382.471	97.45
382.681	-2.9
382.891	58.54
383.101	25.77
383.311	1.19
383.521	76.97
383.731	38.06
383.941	15.53
384.151	3.24
384.361	62.63
384.571	66.73
384.781	13.48
384.991	136.36
385.201	48.3
385.411	87.21
385.621	81.07
385.831	42.15
386.041	93.35
386.251	42.15
386.461	162.98
386.671	122.02
386.881	111.78
387.091	13.48
387.301	105.64
387.511	46.25
387.72	115.88
387.93	48.3
388.14	-60.24
388.35	-11.09
388.56	146.6
388.769	52.39
388.979	97.45
389.189	38.06
389.399	-27.48
389.609	95.4
389.818	3.24
390.028	54.44
390.238	113.83
390.447	40.11
390.657	81.07
390.867	136.36
391.076	-27.48
391.286	38.06
391.496	29.87
391.705	60.59
391.915	83.11
392.125	105.64
392.334	42.15
392.544	154.79
392.753	-7
392.963	42.15
393.172	38.06
393.382	42.15
393.591	124.07
393.801	-15.19
394.01	76.97
394.22	70.83
394.429	54.44
394.639	5.29
394.848	54.44
395.058	72.87
395.267	132.26
395.477	62.63
395.686	132.26
395.895	103.59
396.105	130.22
396.314	76.97
396.524	95.4
396.733	52.39
396.942	144.55
397.152	111.78
397.361	115.88
397.57	136.36
397.78	66.73
397.989	130.22
398.198	177.32
398.407	132.26
398.617	29.87
398.826	95.4
399.035	44.2
399.244	171.18
399.453	144.55
399.663	154.79
399.872	130.22
400.081	128.17
400.29	160.94
400.499	119.98
400.708	99.5
400.917	97.45
401.127	201.9
401.336	148.65
401.545	185.51
401.754	126.12
401.963	89.26
402.172	40.11
402.381	97.45
402.59	177.32
402.799	162.98
403.008	169.13
403.217	99.5
403.426	175.27
403.635	171.18
403.844	169.13
404.053	91.31
404.262	91.31
404.471	259.24
404.68	122.02
404.888	130.22
405.097	134.31
405.306	160.94
405.515	210.09
405.724	160.94
405.933	240.81
406.142	261.29
406.35	167.08
406.559	195.75
406.768	298.15
406.977	210.09
407.185	173.22
407.394	279.72
407.603	150.7
407.812	205.99
408.02	220.33
408.229	283.81
408.438	306.34
408.646	267.43
408.855	361.64
409.064	300.2
409.272	308.39
409.481	328.87
409.69	277.67
409.898	283.81
410.107	386.21
410.315	398.5
410.524	373.92
410.733	371.88
410.941	390.31
411.15	490.66
411.358	396.45
411.567	523.43
411.775	459.94
411.984	533.67
412.192	504.99
412.401	513.19
412.609	593.06
412.818	498.85
413.026	595.11
413.234	656.54
413.443	595.11
413.651	629.92
413.86	746.66
414.068	705.7
414.276	818.33
414.485	728.22
414.693	787.61
414.901	849.05
415.11	863.39
415.318	851.1
415.526	840.86
415.734	998.56
415.943	916.64
416.151	1025.18
416.359	982.17
416.567	1098.91
416.776	1131.67
416.984	1189.02
417.192	1160.34
417.4	1195.16
417.608	1217.69
417.817	1232.02
418.025	1311.89
418.233	1397.91
418.441	1340.57
418.649	1510.55
418.857	1563.79
419.065	1561.75
419.273	1619.09
419.481	1684.62
419.689	1758.35
419.897	1946.76
420.105	1866.89
420.313	1897.61
420.521	1901.71
420.729	2102.41
420.937	2098.31
421.145	2190.47
421.353	2311.3
421.561	2440.33
421.769	2503.81
421.977	2421.89
422.185	2557.06
422.393	2759.81
422.601	2753.66
422.809	2788.48
423.017	2696.32
423.224	3019.9
423.432	3003.52
423.64	3167.35
423.848	3388.53
424.056	3245.18
424.263	3519.6
424.471	3554.42
424.679	3492.98
424.887	3880.05
425.094	3929.2
425.302	3955.82
425.51	4138.09
425.718	4181.1
425.925	4256.87
426.133	4365.42
426.341	4691.04
426.548	4852.83
426.756	4783.2
426.964	4904.03
427.171	5180.51
427.379	5411.93
427.586	5385.3
427.794	5573.72
428.001	5925.97
428.209	6003.79
428.417	5946.45
428.624	6460.49
428.832	6390.86
429.039	6425.67
429.247	6282.31
429.454	6964.29
429.662	7363.64
429.869	7115.84
430.076	7377.98
430.284	7291.96
430.491	7525.43
430.699	7924.79
430.906	7920.69
431.114	8025.14
431.321	8315.95
431.528	8565.8
431.736	9180.19
431.943	9413.66
432.15	9329.69
432.358	9204.77
432.565	9753.62
432.772	9745.43
432.979	10327.05
433.187	10349.58
433.394	10386.44
433.601	11150.34
433.808	11195.39
434.016	11031.55
434.223	11662.33
434.43	12223.47
434.637	11867.13
434.844	12829.67
435.052	13071.33
435.259	12964.84
435.466	13360.09
435.673	12872.68
435.88	13788.12
436.087	14531.53
436.294	14369.74
436.501	14283.73
436.708	14437.33
436.915	14832.58
437.122	15406.02
437.329	15709.11
437.537	16112.56
437.743	16137.14
437.95	16122.8
438.157	16958.38
438.364	17449.89
438.571	17251.24
438.778	17707.93
438.985	19100.55
439.192	18502.54
439.399	18842.51
439.606	18826.12
439.813	19596.16
440.02	20781.93
440.227	20476.79
440.433	20255.61
440.64	20898.67
440.847	20632.43
441.054	21173.1
441.261	22569.81
441.467	22500.18
441.674	22741.84
441.881	23851.84
442.088	23782.21
442.294	23405.38
442.501	24007.48
442.708	24507.19
442.914	25328.42
443.121	26553.11
443.328	25555.75
443.534	27618.05
443.741	26555.16
443.948	26647.32
444.154	28465.91
444.361	27970.3
444.568	27982.59
444.774	28498.68
444.981	28728.05
445.187	29446.89
445.394	30599.9
445.6	30218.97
445.807	33213.1
446.013	31445.71
446.22	32414.4
446.426	33501.87
446.633	33841.83
446.839	35107.47
447.046	33596.07
447.252	35263.12
447.459	35152.53
447.665	35351.18
447.871	36659.84
448.078	38427.23
448.284	36436.61
448.491	37630.57
448.697	39232.08
448.903	39422.55
449.11	39881.29
449.316	38875.74
449.522	40104.52
449.728	40675.9
449.935	41380.4
450.141	41116.22
450.347	42224.17
450.553	40696.38
450.76	41265.72
450.966	42680.86
451.172	41822.76
451.378	43307.54
451.584	42512.93
451.791	43647.5
451.997	43530.77
452.203	44096.01
452.409	43743.76
452.615	44046.86
452.821	42150.44
453.027	41986.6
453.233	43528.72
453.44	42588.7
453.646	42730.01
453.852	42971.67
454.058	43907.6
454.264	42306.09
454.47	43350.55
454.676	42031.66
454.882	43530.77
455.088	39846.47
455.294	40102.47
455.5	40772.16
455.705	41122.36
455.911	39842.38
456.117	38978.14
456.323	38445.66
456.529	36573.82
456.735	38042.21
456.941	37114.48
457.147	36639.36
457.352	35588.75
457.558	35087
457.764	34982.55
457.97	34374.3
458.176	33264.3
458.381	33925.8
458.587	32101.06
458.793	32303.81
458.999	30569.18
459.204	32783.03
459.41	31677.13
459.616	29410.03
459.821	29457.13
460.027	29440.75
460.233	28875.51
460.438	27820.8
460.644	27777.79
460.85	26381.08
461.055	25901.86
461.261	25641.76
461.466	24261.43
461.672	23307.08
461.878	24836.91
462.083	23307.08
462.289	22733.65
462.494	22580.05
462.7	21457.76
462.905	21042.03
463.111	21838.69
463.316	21826.4
463.522	21234.53
463.727	21304.17
463.932	20872.04
464.138	21074.79
464.343	20931.44
464.549	20325.24
464.754	21080.94
464.959	21001.07
465.165	20546.42
465.37	19919.74
465.575	19526.53
465.781	20249.46
465.986	20059
466.191	19155.85
466.397	19043.21
466.602	18240.4
466.807	18877.32
467.012	18836.36
467.218	18715.53
467.423	18389.91
467.628	18832.27
467.833	19067.78
468.038	18674.57
468.244	17875.87
468.449	18721.68
468.654	18119.57
468.859	18054.04
469.064	17802.14
469.269	17253.28
469.474	17445.79
469.679	17714.08
469.885	17175.46
470.09	17095.59
470.295	17232.8
470.5	16559.02
470.705	16905.13
470.91	16513.97
471.115	16249.78
471.32	16311.22
471.525	16505.77
471.73	15801.27
471.935	15952.82
472.139	15512.51
472.344	15940.54
472.549	15340.48
472.754	15381.44
472.959	14846.92
473.164	14482.38
473.369	14648.27
473.574	15059.91
473.778	14949.32
473.983	14955.46
474.188	14627.79
474.393	14058.45
474.598	13892.57
474.802	14058.45
475.007	13859.8
475.212	13992.92
475.417	13409.25
475.621	13616.09
475.826	13607.9
476.031	13165.54
476.235	13112.29
476.44	12964.84
476.645	12850.15
476.849	12794.86
477.054	12635.11
477.259	12530.67
477.463	12649.45
477.668	12186.61
477.872	12202.99
478.077	12047.35
478.282	11672.57
478.486	11852.79
478.691	11576.31
478.895	11781.11
479.1	11779.06
479.304	11564.03
479.509	11189.25
479.713	11541.5
479.918	11179.01
480.122	10923.01
480.326	11232.26
480.531	11199.49
480.735	11066.37
480.94	10998.79
481.144	11170.82
481.348	10828.81
481.553	10837
481.757	10679.3
481.961	10660.87
482.166	10961.92
482.37	10773.51
482.574	10664.97
482.778	10664.97
482.983	10943.49
483.187	10955.78
483.391	10785.8
483.595	10728.45
483.8	10509.32
484.004	10769.41
484.208	10947.59
484.412	10720.26
484.616	10720.26
484.821	10662.92
485.025	10503.18
485.229	10554.38
485.433	10755.08
485.637	10859.52
485.841	10695.69
486.045	10413.07
486.249	10710.02
486.453	10421.26
486.657	10486.79
486.861	10564.62
487.065	10296.33
487.269	10593.29
487.473	10400.78
487.677	10621.96
487.881	10744.84
488.085	10443.79
488.289	10673.16
488.493	10249.23
488.697	10695.69
488.901	10683.4
489.105	10595.34
489.309	10679.3
489.512	10451.98
489.716	10468.36
489.92	10669.06
490.124	10597.38
490.328	10759.17
490.531	10642.44
490.735	10730.5
490.939	10820.61
491.143	10408.97
491.346	10728.45
491.55	10970.12
491.754	10908.68
491.958	10943.49
492.161	10914.82
492.365	11088.9
492.569	11013.12
492.772	11019.27
492.976	11232.26
493.18	11133.95
493.383	11168.77
493.587	11234.3
493.79	11279.36
493.994	11238.4
494.197	11348.99
494.401	11592.7
494.605	11506.68
494.808	11748.34
495.012	11637.75
495.215	11564.03
495.419	11975.67
495.622	11633.66
495.825	11865.08
496.029	11903.99
496.232	12055.54
496.436	12125.17
496.639	12332.01
496.843	12258.29
497.046	12680.17
497.249	12764.14
497.453	12506.09
497.656	12631.02
497.859	12819.43
498.063	12751.85
498.266	13151.2
498.469	12864.49
498.673	13063.14
498.876	13345.76
499.079	13611.99
499.282	13595.61
499.485	13898.71
499.689	13982.68
499.892	14281.68
500.095	14234.58
500.298	14582.73
500.501	14341.07
500.705	14715.85
500.908	14785.48
501.111	15133.64
501.314	14941.13
501.517	15418.3
501.72	15395.78
501.923	15651.77
502.126	15829.95
502.329	15944.63
502.532	16053.17
502.735	16225.2
502.938	16491.44
503.141	16315.31
503.344	16786.35
503.547	16716.72
503.75	16978.86
503.953	17423.26
504.156	17410.98
504.359	17638.3
504.562	17738.65
504.765	17949.59
504.968	17980.31
505.17	18160.53
505.373	18387.86
505.576	18426.77
505.779	18897.8
505.982	19008.39
506.185	19125.13
506.387	19530.62
506.59	19358.6
506.793	19807.1
506.996	19827.58
507.198	20007.8
507.401	20124.54
507.604	20499.31
507.807	20710.25
508.009	20820.84
508.212	20951.91
508.415	21357.41
508.617	21408.61
508.82	21625.7
509.022	21578.59
509.225	22203.22
509.428	22422.36
509.63	22451.03
509.833	22405.97
510.035	23180.1
510.238	23071.56
510.44	23188.3
510.643	23749.44
510.845	23833.41
511.048	23632.71
511.25	23937.85
511.453	24378.17
511.655	25054
511.858	24896.3
512.06	24793.9
512.262	25285.42
512.465	25223.98
512.667	25549.6
512.87	25721.63
513.072	26118.94
513.274	26622.74
513.477	26905.36
513.679	27005.71
513.881	27142.92
514.084	27523.85
514.286	27355.91
514.488	27562.76
514.69	28357.37
514.893	28261.12
515.095	28279.55
515.297	28918.51
515.499	28844.79
515.701	29469.42
515.904	29496.04
516.106	29784.8
516.308	29762.28
516.51	30081.76
516.712	30208.73
516.914	30812.88
517.116	31144.66
517.318	31140.56
517.52	31187.66
517.722	31259.34
517.925	31773.38
518.127	32008.9
518.329	32410.3
518.531	32299.71
518.733	33192.62
518.935	32914.1
519.136	32996.02
519.338	33422
519.54	33753.77
519.742	33759.91
519.944	33745.58
520.146	35003.03
520.348	34757.27
520.55	34994.84
520.752	34732.7
520.954	35398.29
521.155	35031.7
521.357	35596.94
521.559	36000.39
521.761	36209.28
521.963	35955.33
522.164	36219.52
522.366	36219.52
522.568	36758.14
522.77	36739.71
522.971	37388.91
523.173	36870.78
523.375	37110.39
523.576	37272.18
523.778	37376.62
523.98	37438.06
524.181	37618.28
524.383	37732.97
524.584	38412.9
524.786	38433.38
524.988	38015.59
525.189	38244.96
525.391	38701.66
525.592	38890.07
525.794	38638.17
525.995	39250.52
526.197	38599.26
526.398	39002.71
526.6	39223.89
526.801	39066.2
527.003	39254.61
527.204	39191.12
527.406	39625.29
527.607	39488.08
527.808	39932.49
528.01	38853.21
528.211	39774.8
528.412	40202.82
528.614	39821.9
528.815	39713.36
529.016	40186.44
529.218	39514.7
529.419	39531.09
529.62	39944.78
529.822	40163.91
530.023	39604.81
530.224	39590.48
530.425	39574.09
530.626	38705.76
530.828	39189.08
531.029	40041.03
531.23	39307.86
531.431	39445.07
531.632	39860.81
531.833	39637.58
532.035	39938.63
532.236	39498.32
532.437	39600.72
532.638	39510.61
532.839	39531.09
533.04	39422.55
533.241	39268.95
533.442	39858.76
533.643	39668.3
533.844	39244.37
534.045	39715.4
534.246	38838.87
534.447	39678.54
534.648	39318.1
534.849	39539.28
535.05	39160.41
535.251	39416.4
535.451	38926.94
535.652	39440.98
535.853	39086.68
536.054	39215.7
536.255	39225.94
536.456	38920.79
536.657	39283.28
536.857	39035.48
537.058	38654.56
537.259	38484.58
537.46	38933.08
537.66	38482.53
537.861	38914.65
538.062	38349.41
538.263	38664.8
538.463	38300.26
538.664	38382.18
538.865	38449.76
539.065	38804.06
539.266	38036.07
539.466	38672.99
539.667	37943.91
539.868	38738.52
540.068	38244.96
540.269	38165.09
540.469	38406.75
540.67	38056.55
540.87	38158.95
541.071	38031.97
541.271	38281.83
541.472	38093.41
541.672	37898.86
541.873	37999.21
542.073	37472.88
542.274	38251.11
542.474	37868.14
542.675	37669.48
542.875	37952.1
543.075	37905
543.276	37067.38
543.476	38173.28
543.676	37634.67
543.877	37732.97
544.077	38040.17
544.277	37763.69
544.478	37902.95
544.678	37986.92
544.878	38015.59
545.078	37847.66
545.279	37704.3
545.479	37907.05
545.679	37714.54
545.879	37612.14
546.079	37671.53
546.28	37644.91
546.48	37468.78
546.68	37653.1
546.88	37853.8
547.08	37710.44
547.28	37438.06
547.48	37235.31
547.68	37839.47
547.88	37198.45
548.081	37778.03
548.281	37476.97
548.481	37313.14
548.681	37595.76
548.881	37718.64
549.081	37790.31
549.28	37503.6
549.48	37882.47
549.68	37339.76
549.88	38036.07
550.08	37339.76
550.28	37792.36
550.48	37411.44
550.68	37696.11
550.88	37356.14
551.08	37388.91
551.279	37659.24
551.479	37546.61
551.679	37517.93
551.879	37415.54
552.079	37622.38
552.278	37620.33
552.478	37704.3
552.678	37757.55
552.878	37866.09
553.077	37417.58
553.277	37358.19
553.477	37962.34
553.676	37182.07
553.876	37489.26
554.076	37739.11
554.275	37513.84
554.475	37333.62
554.674	37943.91
554.874	37984.87
555.074	37915.24
555.273	37829.23
555.473	37980.78
555.672	37788.27
555.872	38062.69
556.071	38058.6
556.271	38117.99
556.47	37765.74
556.67	37839.47
556.869	38054.5
557.068	37755.5
557.268	37560.94
557.467	37730.92
557.667	37980.78
557.866	38150.76
558.065	38046.31
558.265	37814.89
558.464	37804.65
558.663	38261.35
558.863	37032.57
559.062	38365.79
559.261	37571.18
559.461	38509.15
559.66	37415.54
559.859	38117.99
560.058	37653.1
560.258	37909.1
560.457	37618.28
560.656	38236.77
560.855	37593.71
561.054	38072.93
561.253	37720.68
561.453	37913.19
561.652	38195.81
561.851	37956.2
562.05	37960.3
562.249	37534.32
562.448	37966.44
562.647	37786.22
562.846	37622.38
563.045	37763.69
563.244	37413.49
563.443	38161
563.642	37212.79
563.841	37614.19
564.04	37243.51
564.239	37911.14
564.438	37194.36
564.637	37655.15
564.836	37833.32
565.035	36954.74
565.234	37257.84
565.432	37382.77
565.631	36921.98
565.83	37560.94
566.029	37061.24
566.228	37089.91
566.427	37112.44
566.625	36795
566.824	36932.22
567.023	37300.85
567.222	36471.42
567.42	37079.67
567.619	36823.67
567.818	36733.56
568.016	36328.06
568.215	36932.22
568.414	36770.43
568.612	36842.1
568.811	36795
569.01	36465.28
569.208	36201.09
569.407	36129.41
569.605	36102.79
569.804	36569.72
570.002	35951.24
570.201	36366.98
570.4	36053.64
570.598	35947.14
570.797	35312.27
570.995	35664.52
571.193	35541.64
571.392	36248.19
571.59	35506.83
571.789	35455.63
571.987	35359.38
572.186	35459.73
572.384	35185.3
572.582	35537.55
572.781	35453.58
572.979	34611.87
573.177	35121.81
573.376	35445.39
573.574	34611.87
573.772	34716.31
573.971	34429.6
574.169	34503.32
574.367	34200.22
574.565	34681.5
574.763	34523.8
574.962	34413.21
575.16	33964.71
575.358	33628.84
575.556	33770.15
575.754	34398.88
575.952	33661.61
576.151	33966.76
576.349	33827.49
576.547	33460.91
576.745	33591.98
576.943	33804.97
577.141	33383.09
577.339	33252.02
577.537	33284.78
577.735	33477.29
577.933	32793.27
578.131	33391.28
578.329	32916.15
578.527	32885.43
578.725	32764.6
578.923	32938.68
579.121	32631.48
579.319	32146.11
579.516	32477.88
579.714	32676.54
579.912	32088.77
580.11	32029.38
580.308	31949.51
580.506	32019.14
580.704	31853.25
580.901	31840.96
581.099	31945.41
581.297	31886.02
581.495	31699.65
581.692	32002.75
581.89	31294.16
582.088	31701.7
582.285	31156.94
582.483	31777.48
582.681	31515.34
582.878	31267.53
583.076	30520.02
583.274	30851.8
583.471	30898.9
583.669	30812.88
583.866	31056.59
584.064	30833.36
584.262	30690.01
584.459	30845.65
584.657	30769.88
584.854	30900.95
585.052	29946.59
585.249	30343.9
585.447	30163.68
585.644	30051.04
585.841	30044.9
586.039	30069.47
586.236	29965.03
586.434	29938.4
586.631	29604.58
586.828	29649.64
587.026	30149.34
587.223	29524.71
587.42	29715.17
587.618	29678.31
587.815	29238
588.012	29590.25
588.21	29201.13
588.407	29649.64
588.604	29258.48
588.801	28990.19
588.999	29061.87
589.196	28695.28
589.393	28670.71
589.59	28803.83
589.787	28568.31
589.984	28756.72
590.182	28695.28
590.379	29047.54
590.576	28693.24
590.773	28687.09
590.97	28805.88
591.167	28545.78
591.364	28089.09
591.561	28400.38
591.758	27947.78
591.955	27994.88
592.152	28257.02
592.349	28281.6
592.546	28422.9
592.743	28070.65
592.94	27638.53
593.137	27906.82
593.334	28011.26
593.531	27501.32
593.727	27767.55
593.924	27855.62
594.121	27534.09
594.318	27718.4
594.515	27417.35
594.712	27734.79
594.908	27271.95
595.105	27409.16
595.302	27038.48
595.499	27828.99
595.696	27339.53
595.892	27202.32
596.089	27773.7
596.286	27298.57
596.482	27370.25
596.679	27298.57
596.876	27167.5
597.072	27196.17
597.269	27151.12
597.466	26692.37
597.662	26759.95
597.859	26788.63
598.055	27061.01
598.252	26807.06
598.448	26888.98
598.645	26653.46
598.841	26614.55
599.038	26712.85
599.234	26997.52
599.431	26637.08
599.627	26815.25
599.824	26878.74
600.02	26805.01
600.217	26696.47
600.413	26757.91
600.609	26608.4
600.806	26694.42
601.002	26559.25
601.198	26815.25
601.395	26575.64
601.591	26643.22
601.787	26432.28
601.984	26495.77
602.18	26852.11
602.376	26569.49
602.572	26618.64
602.769	26774.29
602.965	26266.39
603.161	26602.26
603.357	26649.36
603.553	26708.76
603.75	26716.95
603.946	26438.42
604.142	26700.56
604.338	26174.24
604.534	26768.15
604.73	26512.15
604.926	26768.15
605.122	26868.5
605.318	26415.9
605.514	26536.73
605.71	26469.14
605.906	26868.5
606.102	26917.65
606.298	26817.3
606.494	26706.71
606.69	26704.66
606.886	26839.83
607.082	26766.1
607.278	26762
607.474	26190.62
607.67	26968.85
607.866	26266.39
608.062	26815.25
608.257	26821.39
608.453	26921.74
608.649	27003.66
608.845	26882.83
609.041	26526.49
609.236	26944.27
609.432	26917.65
609.628	26903.31
609.824	26868.5
610.019	26788.63
610.215	27089.68
610.411	27325.19
610.606	27249.42
610.802	27169.55
610.998	27224.84
611.193	27267.85
611.389	27054.86
611.584	26864.4
611.78	26686.23
611.976	27300.62
612.171	27255.56
612.367	27091.73
612.562	27267.85
612.758	27048.72
612.953	27177.74
613.149	27566.85
613.344	26845.97
613.539	27405.06
613.735	27263.75
613.93	27419.4
614.126	27034.38
614.321	27589.38
614.517	27562.76
614.712	27368.2
614.907	27317
615.103	27446.02
615.298	27425.54
615.493	27577.09
615.688	27036.43
615.884	27919.1
616.079	27423.5
616.274	27599.62
616.47	27218.7
616.665	27427.59
616.86	27568.9
617.055	27321.1
617.25	27292.43
617.445	27464.46
617.641	26768.15
617.836	27370.25
618.031	27036.43
618.226	27300.62
618.421	26811.15
618.616	27013.9
618.811	26618.64
619.006	27271.95
619.201	26592.02
619.396	27114.25
619.591	26747.67
619.786	26805.01
619.981	26360.6
620.176	26643.22
620.371	26346.26
620.566	26702.61
620.761	26407.7
620.956	26430.23
621.151	26219.29
621.346	26051.36
621.541	25895.71
621.735	26247.96
621.93	25781.03
622.125	25813.79
622.32	25506.6
622.515	25568.04
622.709	25193.26
622.904	25344.81
623.099	25137.96
623.294	25385.77
623.488	24578.87
623.683	24916.78
623.878	24730.42
624.072	24716.08
624.267	24675.12
624.462	24832.82
624.656	24460.09
624.851	24396.6
625.046	24171.32
625.24	24030.01
625.435	24068.92
625.629	23944
625.824	23610.18
626.018	23741.25
626.213	22928.2
626.407	23515.97
626.602	23049.03
626.796	23253.83
626.991	23325.51
627.185	23006.03
627.38	22809.42
627.574	22498.13
627.768	22920.01
627.963	22657.87
628.157	22045.53
628.352	22432.6
628.546	22027.1
628.74	22213.46
628.935	21941.08
629.129	22156.12
629.323	21674.85
629.517	21947.23
629.712	21609.31
629.906	21642.08
630.1	21148.52
630.294	21527.39
630.489	21048.17
630.683	21285.73
630.877	21185.38
631.071	20949.87
631.265	20816.75
631.459	20542.32
631.653	20591.47
631.848	20343.67
632.042	20419.44
632.236	20763.5
632.43	20245.37
632.624	20073.34
632.818	19825.53
633.012	19864.44
633.206	19649.41
633.4	19657.6
633.594	19231.62
633.788	19463.04
633.982	19524.48
634.176	19403.65
634.369	19131.27
634.563	19182.47
634.757	18693.01
634.951	19200.9
635.145	18983.82
635.339	18932.62
635.533	18420.63
635.726	18525.07
635.92	18209.68
636.114	18555.79
636.308	18365.33
636.501	18054.04
636.695	18156.44
636.889	17808.28
637.083	17900.44
637.276	17806.23
637.47	17617.82
637.664	17593.25
637.857	17613.73
638.051	17398.69
638.244	17333.15
638.438	17165.22
638.632	17101.73
638.825	17226.66
639.019	16776.11
639.212	16642.99
639.406	17021.86
639.599	16798.63
639.793	16722.86
639.986	16419.76
640.18	16552.88
640.373	16360.37
640.567	16081.85
640.76	16266.16
640.954	15975.35
641.147	15770.55
641.34	15860.66
641.534	15666.11
641.727	15807.42
641.92	15631.29
642.114	15283.14
642.307	15487.93
642.5	15461.31
642.694	14980.04
642.887	15131.59
643.08	15352.77
643.273	15064
643.467	15082.44
643.66	14857.16
643.853	14748.62
644.046	14308.3
644.239	14588.88
644.432	14253.01
644.626	14279.63
644.819	14416.85
645.012	14226.39
645.205	14005.2
645.398	14275.54
645.591	14164.95
645.784	13923.29
645.977	13968.34
646.17	13718.49
646.363	13693.91
646.556	13634.52
646.749	13581.28
646.942	13417.44
647.135	13415.39
647.328	13319.14
647.521	13153.25
647.714	13104.1
647.907	13255.65
648.099	12846.05
648.292	12940.26
648.485	12678.12
648.678	12815.34
648.871	12526.57
649.064	12440.56
649.256	12647.4
649.449	12502
649.642	12418.03
649.835	12276.72
650.027	12235.76
650.22	12178.42
650.413	12190.7
650.605	12047.35
650.798	11844.6
650.991	11801.59
651.183	11969.52
651.376	11627.51
651.568	11809.78
651.761	11666.42
651.954	11445.24
652.146	11676.66
652.339	11502.59
652.531	11652.09
652.724	11375.61
652.916	11185.15
653.109	11224.06
653.301	11281.41
653.494	11242.5
653.686	11060.23
653.879	11281.41
654.071	10869.76
654.263	10888.2
654.456	10863.62
654.648	10802.18
654.84	10693.64
655.033	10703.88
655.225	10755.08
655.417	10408.97
655.61	10523.66
655.802	10370.06
655.994	10335.24
656.186	10484.75
656.379	10058.77
656.571	10312.72
656.763	10136.59
656.955	10148.88
657.148	10032.15
657.34	9851.92
657.532	9829.4
657.724	9970.71
657.916	9958.42
658.108	9688.09
658.3	9643.03
658.492	9688.09
658.684	9471
658.876	9667.61
659.068	9460.76
659.26	9563.16
659.452	9532.44
659.644	9389.08
659.836	9354.27
660.028	9223.2
660.22	9016.35
660.412	9073.7
660.604	9012.26
660.796	9262.11
660.988	9055.26
661.18	9049.12
661.372	8918.05
661.563	9040.93
661.755	8817.7
661.947	8885.28
662.139	8754.21
662.331	8604.71
662.522	8594.47
662.714	8580.14
662.906	8418.35
663.097	8563.75
663.289	8391.72
663.481	8410.15
663.673	8193.07
663.864	8244.27
664.056	8252.46
664.247	8283.18
664.439	8322.09
664.631	8037.42
664.822	8045.62
665.014	8123.44
665.205	8074.29
665.397	7947.31
665.588	8125.49
665.78	7883.83
665.971	7765.04
666.163	7935.03
666.354	7597.11
666.546	7484.47
666.737	7758.9
666.929	7660.6
667.12	7527.48
667.311	7480.38
667.503	7529.53
667.694	7705.65
667.885	7500.86
668.077	7453.75
668.268	7371.83
668.459	7361.59
668.651	7337.02
668.842	7296.06
669.033	7300.16
669.224	7210.04
669.416	7322.68
669.607	7095.36
669.798	7171.13
669.989	7271.48
670.18	7070.78
670.371	7042.11
670.563	7070.78
670.754	7173.18
670.945	6857.79
671.136	6949.95
671.327	7066.69
671.518	7040.06
671.709	6736.96
671.9	6888.51
672.091	6829.12
672.282	6773.83
672.473	6675.52
672.664	6673.48
672.855	6710.34
673.046	6628.42
673.237	6546.5
673.428	6673.48
673.619	6552.65
673.809	6446.15
674	6626.37
674.191	6485.06
674.382	6401.1
674.573	6476.87
674.764	6444.1
674.954	6483.02
675.145	6235.21
675.336	6310.99
675.527	6407.24
675.717	6378.57
675.908	6247.5
676.099	6327.37
676.289	6421.58
676.48	6294.6
676.671	6470.73
676.861	6075.47
677.052	6157.39
677.243	6005.84
677.433	6286.41
677.624	6198.35
677.814	6046.8
678.005	6165.58
678.195	6141
678.386	6206.54
678.576	6050.89
678.767	6210.64
678.957	6001.74
679.148	6196.3
679.338	6200.4
679.529	5964.88
679.719	5977.17
679.909	6026.32
680.1	6044.75
680.29	6075.47
680.481	5936.21
680.671	5815.38
680.861	5821.52
681.052	5960.78
681.242	5794.9
681.432	5975.12
681.622	5870.67
681.813	5862.48
682.003	5948.5
682.193	5813.33
682.383	5887.06
682.573	5901.39
682.764	5620.82
682.954	5743.7
683.144	5891.15
683.334	5657.68
683.524	5751.89
683.714	5780.56
683.904	5760.08
684.094	5780.56
684.284	5805.14
684.474	5942.35
684.664	5786.71
684.854	5790.8
685.044	5612.63
685.234	5682.26
685.424	5731.41
685.614	5616.72
685.804	5717.08
685.994	5579.86
686.184	5641.3
686.374	5686.36
686.564	5665.88
686.753	5444.7
686.943	5545.05
687.133	5602.39
687.323	5504.09
687.513	5649.49
687.702	5567.57
687.892	5403.74
688.082	5407.83
688.272	5389.4
688.461	5428.31
688.651	5387.35
688.841	5528.66
689.03	5418.07
689.22	5358.68
689.41	5373.02
689.599	5272.67
689.789	5354.58
689.979	5168.22
690.168	5272.67
690.358	5100.64
690.547	5110.88
690.737	5264.47
690.926	5022.81
691.116	5026.91
691.305	5016.67
691.495	5129.31
691.684	5012.57
691.874	5133.4
692.063	5112.92
692.252	5209.18
692.442	5100.64
692.631	5016.67
692.82	5186.65
693.01	5022.81
693.199	4924.51
693.388	5006.43
693.578	5024.86
693.767	4861.02
693.956	4863.07
694.146	4727.91
694.335	4914.27
694.524	4822.11
694.713	4846.69
694.902	4906.08
695.092	4852.83
695.281	4740.19
695.47	4686.95
695.659	4715.62
695.848	4838.5
696.037	4662.37
696.226	4719.71
696.415	4664.42
696.604	4695.14
696.793	4676.71
696.982	4666.47
697.171	4633.7
697.36	4697.19
697.549	4736.1
697.738	4443.24
697.927	4568.16
698.116	4602.98
698.305	4445.29
698.494	4545.64
698.683	4549.73
698.872	4498.53
699.061	4396.14
699.25	4392.04
699.438	4430.95
699.627	4422.76
699.816	4543.59
700.005	4500.58
700.193	4486.25
700.382	4346.98
700.571	4551.78
700.76	4463.72
700.948	4324.46
701.137	4418.66
701.326	4330.6
701.514	4346.98
701.703	4392.04
701.892	4310.12
702.08	4328.55
702.269	4199.53
702.457	4299.88
702.646	4318.31
702.834	4232.3
703.023	4260.97
703.212	4283.5
703.4	4205.67
703.589	4209.77
703.777	4181.1
703.965	4095.08
704.154	4191.34
704.342	4119.66
704.531	4160.62
704.719	3982.45
704.907	4072.56
705.096	3951.73
705.284	4002.93
705.472	4168.81
705.661	3966.06
705.849	4125.8
706.037	4125.8
706.226	3996.78
706.414	4029.55
706.602	3994.73
706.79	4060.27
706.979	3921.01
707.167	4037.74
707.355	3871.86
707.543	3957.87
707.731	4099.18
707.919	3785.84
708.107	3808.37
708.296	3781.74
708.484	3888.24
708.672	3929.2
708.86	3908.72
709.048	3882.1
709.236	3880.05
709.424	3955.82
709.612	3953.77
709.8	3832.94
709.988	3822.7
710.176	3718.26
710.364	3884.14
710.551	3675.25
710.739	3732.59
710.927	3683.44
711.115	3726.45
711.303	3646.58
711.491	3744.88
711.679	3607.67
711.866	3748.98
712.054	3730.55
712.242	3540.08
712.43	3552.37
712.617	3581.04
712.805	3632.24
712.993	3560.56
713.181	3460.21
713.368	3622
713.556	3695.73
713.744	3394.68
713.931	3597.43
714.119	3560.56
714.306	3437.69
714.494	3454.07
714.682	3429.49
714.869	3376.25
715.057	3396.73
715.244	3392.63
715.432	3529.84
715.619	3443.83
715.807	3425.4
715.994	3519.6
716.182	3368.06
716.369	3417.21
716.556	3396.73
716.744	3284.09
716.931	3380.34
717.119	3298.42
717.306	3331.19
717.493	3355.77
717.681	3253.37
717.868	3400.82
718.055	3316.86
718.242	3257.46
718.43	3314.81
718.617	3325.05
718.804	3273.85
718.991	3288.18
719.179	3191.93
719.366	3228.79
719.553	3126.39
719.74	3288.18
719.927	3046.52
720.114	3112.06
720.301	3110.01
720.488	3144.83
720.676	3110.01
720.863	3228.79
721.05	3159.16
721.237	3165.31
721.424	2962.56
721.611	3175.55
721.798	3069.05
721.985	3095.68
722.172	2940.03
722.358	3159.16
722.545	3050.62
722.732	2929.79
722.919	3054.72
723.106	2974.85
723.293	3001.47
723.48	3060.86
723.667	2989.18
723.853	3034.24
724.04	2872.45
724.227	3136.63
724.414	2974.85
724.6	2868.35
724.787	2829.44
724.974	2913.41
725.161	2997.37
725.347	2991.23
725.534	2798.72
725.72	2931.84
725.907	2972.8
726.094	2970.75
726.28	2804.86
726.467	2841.73
726.653	2817.15
726.84	2778.24
727.027	2954.37
727.213	2759.81
727.4	2823.3
727.586	2892.93
727.773	2806.91
727.959	2808.96
728.145	2847.87
728.332	2790.53
728.518	2745.47
728.705	2831.49
728.891	2745.47
729.077	2647.17
729.264	2667.65
729.45	2768
729.636	2808.96
729.823	2681.99
730.009	2536.58
730.195	2696.32
730.382	2768
730.568	2602.11
730.754	2733.18
730.94	2669.7
731.126	2737.28
731.313	2636.93
731.499	2708.61
731.685	2774.14
731.871	2610.31
732.057	2643.07
732.243	2606.21
732.429	2653.31
732.615	2694.27
732.801	2626.69
732.987	2643.07
733.173	2604.16
733.359	2606.21
733.545	2612.35
733.731	2514.05
733.917	2561.16
734.103	2534.53
734.289	2587.78
734.475	2598.02
734.661	2628.74
734.847	2595.97
735.033	2415.75
735.219	2469
735.404	2512
735.59	2475.14
735.776	2542.72
735.962	2532.48
736.148	2432.13
736.333	2458.76
736.519	2489.48
736.705	2479.24
736.89	2430.09
737.076	2501.76
737.262	2454.66
737.447	2356.36
737.633	2376.84
737.819	2397.32
738.004	2382.98
738.19	2403.46
738.375	2339.97
738.561	2503.81
738.747	2292.87
738.932	2301.06
739.118	2462.85
739.303	2413.7
739.489	2389.13
739.674	2358.41
739.859	2262.15
740.045	2258.06
740.23	2286.73
740.416	2276.49
740.601	2319.5
740.786	2317.45
740.972	2311.3
741.157	2358.41
741.342	2274.44
741.528	2126.99
741.713	2159.75
741.898	2278.54
742.084	2210.95
742.269	2260.1
742.454	2194.57
742.639	2225.29
742.824	2210.95
743.01	2030.73
743.195	2155.66
743.38	2014.35
743.565	2188.43
743.75	2178.19
743.935	2137.23
744.12	2163.85
744.305	2169.99
744.49	2092.17
744.675	2106.51
744.86	1971.34
745.045	2036.88
745.23	2004.11
745.415	2088.07
745.6	2034.83
745.785	1995.92
745.97	1973.39
746.155	1881.23
746.34	2096.27
746.525	1950.86
746.71	1985.68
746.895	1856.65
747.079	1891.47
747.264	1916.05
747.449	1918.09
747.634	1905.81
747.819	1893.52
748.003	1877.13
748.188	1856.65
748.373	1848.46
748.557	1911.95
748.742	1856.65
748.927	1766.54
749.111	1834.13
749.296	1784.98
749.481	1836.17
749.665	1698.96
749.85	1731.73
750.034	1733.78
750.219	1739.92
750.404	1633.43
750.588	1703.06
750.773	1688.72
750.957	1684.62
751.141	1647.76
751.326	1717.39
751.51	1610.9
751.695	1610.9
751.879	1582.23
752.064	1649.81
752.248	1547.41
752.432	1701.01
752.617	1660.05
752.801	1557.65
752.985	1547.41
753.17	1543.32
753.354	1592.47
753.538	1490.07
753.722	1598.61
753.907	1434.77
754.091	1522.84
754.275	1455.25
754.459	1479.83
754.643	1453.2
754.828	1377.43
755.012	1473.68
755.196	1430.68
755.38	1391.77
755.564	1449.11
755.748	1318.04
755.932	1361.05
756.116	1447.06
756.3	1416.34
756.484	1365.14
756.668	1440.92
756.852	1322.13
757.036	1299.61
757.22	1383.57
757.404	1254.55
757.588	1227.93
757.772	1299.61
757.956	1248.41
758.14	1299.61
758.323	1189.02
758.507	1264.79
758.691	1244.31
758.875	1291.41
759.059	1299.61
759.242	1350.81
759.426	1146.01
759.61	1217.69
759.794	1217.69
759.977	1211.54
760.161	1242.26
760.345	1160.34
760.528	1197.21
760.712	1244.31
760.895	1170.58
761.079	1143.96
761.263	1139.87
761.446	1141.91
761.63	1244.31
761.813	1127.58
761.997	1166.49
762.18	1119.39
762.364	1139.87
762.547	1053.85
762.731	1086.62
762.914	1033.37
763.098	1062.04
763.281	1080.47
763.464	1045.66
763.648	1053.85
763.831	996.51
764.015	1039.51
764.198	1004.7
764.381	998.56
764.564	984.22
764.748	1070.23
764.931	1027.23
765.114	1051.8
765.297	1010.84
765.481	883.87
765.664	922.78
765.847	1035.42
766.03	1141.91
766.213	998.56
766.397	1049.75
766.58	916.64
766.763	949.4
766.946	914.59
767.129	1033.37
767.312	1008.8
767.495	951.45
767.678	980.12
767.861	900.25
768.044	1006.75
768.227	924.83
768.41	971.93
768.593	951.45
768.776	941.21
768.959	982.17
769.142	990.36
769.324	881.82
769.507	949.4
769.69	818.33
769.873	918.68
770.056	928.92
770.239	887.97
770.421	951.45
770.604	947.36
770.787	859.29
770.97	890.01
771.152	881.82
771.335	859.29
771.518	773.28
771.7	926.88
771.883	959.64
772.066	779.42
772.248	890.01
772.431	818.33
772.613	902.3
772.796	892.06
772.978	914.59
773.161	869.53
773.343	828.57
773.526	851.1
773.708	797.85
773.891	767.13
774.073	748.7
774.256	844.96
774.438	752.8
774.621	767.13
774.803	742.56
774.985	834.72
775.168	818.33
775.35	683.17
775.532	791.71
775.715	791.71
775.897	779.42
776.079	726.18
776.261	707.74
776.444	685.22
776.626	695.46
776.808	709.79
776.99	740.51
777.173	791.71
777.355	713.89
777.537	689.31
777.719	760.99
777.901	693.41
778.083	705.7
778.265	586.91
778.447	722.08
778.629	652.45
778.811	713.89
778.993	625.83
779.175	742.56
779.357	656.54
779.539	711.84
779.721	648.35
779.903	599.2
780.085	644.26
780.267	570.53
780.449	648.35
780.631	627.87
780.812	652.45
780.994	605.35
781.176	548
781.358	513.19
781.54	545.95
781.721	648.35
781.903	523.43
782.085	548
782.267	580.77
782.448	662.69
782.63	470.18
782.812	523.43
782.993	578.72
783.175	652.45
783.357	568.48
783.538	595.11
783.72	511.14
783.901	550.05
784.083	562.34
784.264	511.14
784.446	435.36
784.627	500.9
784.809	439.46
784.99	504.99
785.172	562.34
785.353	494.76
785.535	498.85
785.716	507.04
785.897	490.66
786.079	447.65
786.26	468.13
786.441	418.98
786.623	441.51
786.804	468.13
786.985	369.83
787.167	509.09
787.348	455.84
787.529	464.04
787.71	455.84
787.891	464.04
788.073	402.6
788.254	312.49
788.435	484.52
788.616	357.54
788.797	418.98
788.978	382.12
789.159	363.69
789.34	349.35
789.522	337.06
789.703	316.58
789.884	414.88
790.065	443.56
790.246	382.12
790.427	378.02
790.607	496.8
790.788	433.32
790.969	308.39
791.15	367.78
791.331	298.15
791.512	392.36
791.693	304.29
791.874	378.02
792.054	472.23
792.235	326.82
792.416	267.43
792.597	355.49
792.778	324.77
792.958	386.21
793.139	326.82
793.32	359.59
793.5	351.4
793.681	341.16
793.862	402.6
794.042	316.58
794.223	294.05
794.404	400.55
794.584	300.2
794.765	302.25
794.945	316.58
795.126	320.68
795.306	314.53
795.487	373.92
795.667	234.66
795.848	320.68
796.028	318.63
796.209	300.2
796.389	275.62
796.57	300.2
796.75	222.38
796.93	316.58
797.111	337.06
797.291	253.09
797.471	337.06
797.652	271.53
797.832	316.58
798.012	378.02
798.192	287.91
798.373	208.04
798.553	271.53
798.733	234.66
798.913	251.05
799.093	238.76
799.274	292.01
799.454	298.15
799.634	281.77
799.814	246.95
799.994	283.81
800.174	240.81
800.354	214.18
800.534	246.95
800.714	212.14
800.894	238.76
801.074	177.32
801.254	179.37
801.434	226.47
801.614	287.91
801.794	234.66
801.974	877.73
802.154	218.28
802.334	257.19
802.514	165.03
802.693	234.66
802.873	185.51
803.053	222.38
803.233	294.05
803.413	203.94
803.592	156.84
803.772	177.32
803.952	220.33
804.131	251.05
804.311	249
804.491	255.14
804.67	171.18
804.85	185.51
805.03	222.38
805.209	253.09
805.389	201.9
805.568	156.84
805.748	251.05
805.928	218.28
806.107	226.47
806.287	167.08
806.466	193.7
806.646	169.13
806.825	162.98
807.004	158.89
807.184	226.47
807.363	222.38
807.543	136.36
807.722	195.75
807.901	218.28
808.081	197.8
808.26	201.9
808.439	201.9
808.619	218.28
808.798	140.46
808.977	177.32
809.156	214.18
809.336	169.13
809.515	226.47
809.694	167.08
809.873	169.13
810.052	193.7
810.231	257.19
810.411	205.99
810.59	257.19
810.769	136.36
810.948	234.66
811.127	111.78
811.306	154.79
811.485	189.61
811.664	208.04
811.843	74.92
812.022	122.02
812.201	111.78
812.38	185.51
812.559	148.65
812.737	228.52
812.916	130.22
813.095	156.84
813.274	146.6
813.453	197.8
813.632	146.6
813.811	185.51
813.989	109.74
814.168	130.22
814.347	128.17
814.526	111.78
814.704	136.36
814.883	152.74
815.062	128.17
815.24	136.36
815.419	152.74
815.598	140.46
815.776	87.21
815.955	173.22
816.133	87.21
816.312	249
816.49	79.02
816.669	62.63
816.847	154.79
817.026	103.59
817.204	72.87
817.383	132.26
817.561	38.06
817.74	212.14
817.918	160.94
818.097	89.26
818.275	101.55
818.453	122.02
818.632	148.65
818.81	113.83
818.988	89.26
819.167	111.78
819.345	81.07
819.523	48.3
819.701	103.59
819.879	79.02
820.058	119.98
820.236	99.5
820.414	93.35
820.592	152.74
820.77	91.31
820.948	97.45
821.127	103.59
821.305	128.17
821.483	-2.9
821.661	201.9
821.839	177.32
822.017	144.55
822.195	111.78
822.373	171.18
822.551	122.02
822.729	179.37
822.907	140.46
823.085	128.17
823.262	83.11
823.44	87.21
823.618	130.22
823.796	140.46
823.974	48.3
824.152	136.36
824.329	95.4
824.507	107.69
824.685	72.87
824.863	136.36
825.04	91.31
825.218	54.44
825.396	113.83
825.574	105.64
825.751	36.01
825.929	105.64
826.107	62.63
826.284	70.83
826.462	101.55
826.639	9.39
826.817	87.21
826.994	48.3
827.172	23.72
827.349	130.22
827.527	38.06
827.704	124.07
827.882	105.64
828.059	113.83
828.237	144.55
828.414	107.69
828.591	-2.9
828.769	103.59
828.946	66.73
829.124	128.17
829.301	160.94
829.478	87.21
829.655	89.26
829.833	74.92
830.01	5.29
830.187	66.73
830.364	91.31
830.542	103.59
830.719	154.79
830.896	31.91
831.073	56.49
831.25	87.21
831.427	103.59
831.604	72.87
831.782	95.4
831.959	119.98
832.136	103.59
832.313	154.79
832.49	13.48
832.667	146.6
832.844	95.4
833.021	111.78
833.198	95.4
833.374	87.21
833.551	83.11
833.728	136.36
833.905	87.21
834.082	66.73
834.259	62.63
834.436	132.26
834.612	54.44
834.789	60.59
834.966	9.39
835.143	48.3
835.319	46.25
835.496	70.83
835.673	111.78
835.85	134.31
836.026	119.98
836.203	62.63
836.38	81.07
836.556	-27.48
836.733	70.83
836.909	62.63
837.086	54.44
837.262	-35.67
837.439	87.21
837.616	54.44
837.792	38.06
837.968	89.26
838.145	5.29
838.321	48.3
838.498	60.59
838.674	142.5
838.851	68.78
839.027	113.83
839.203	64.68
839.38	60.59
839.556	15.53
839.732	119.98
839.909	29.87
840.085	38.06
840.261	5.29
840.437	-23.38
840.614	60.59
840.79	74.92
840.966	21.67
841.142	48.3
841.318	31.91
841.494	33.96
841.671	64.68
841.847	38.06
842.023	21.67
842.199	99.5
842.375	46.25
842.551	-45.91
842.727	-27.48
842.903	146.6
843.079	60.59
843.255	21.67
843.431	81.07
843.607	-2.9
843.783	-23.38
843.959	87.21
844.134	13.48
844.31	68.78
844.486	99.5
844.662	74.92
844.838	31.91
845.013	-19.29
845.189	21.67
845.365	1.19
845.541	38.06
845.716	81.07
845.892	103.59
846.068	74.92
846.244	7.34
846.419	42.15
846.595	-9.05
846.77	79.02
846.946	-0.85
847.122	60.59
847.297	17.58
847.473	48.3
847.648	-33.62
847.824	13.48
847.999	9.39
848.175	5.29
848.35	-27.48
848.526	148.65
848.701	79.02
848.876	66.73
849.052	-9.05
849.227	13.48
849.403	-31.57
849.578	70.83
849.753	36.01
849.929	46.25
850.104	-2.9
850.279	17.58
850.454	56.49
850.63	72.87
850.805	29.87
850.98	99.5
851.155	-9.05
851.33	-74.58
851.505	-21.33
851.681	105.64
851.856	29.87
852.031	62.63
852.206	42.15
852.381	-50
852.556	33.96
852.731	81.07
852.906	36.01
853.081	-9.05
853.256	85.16
853.431	38.06
853.606	50.35
853.781	56.49
853.956	-72.53
854.131	33.96
854.305	36.01
854.48	46.25
854.655	25.77
854.83	-0.85
855.005	-60.24
855.18	29.87
855.354	-9.05
855.529	29.87
855.704	-2.9
855.879	23.72
856.053	1.19
856.228	56.49
856.403	15.53
856.577	13.48
856.752	-23.38
856.926	54.44
857.101	-2.9
857.276	23.72
857.45	-43.86
857.625	95.4
857.799	-21.33
857.974	-9.05
858.148	-33.62
858.323	81.07
858.497	21.67
858.672	38.06
858.846	-52.05
859.02	23.72
859.195	42.15
859.369	1.19
859.543	38.06
859.718	7.34
859.892	40.11
860.066	48.3
860.241	1.19
860.415	-76.63
860.589	-99.16
860.763	-0.85
860.938	-17.24
861.112	23.72
861.286	44.2
861.46	7.34
861.634	-17.24
861.808	74.92
861.982	-15.19
862.157	62.63
862.331	38.06
862.505	-66.39
862.679	-27.48
862.853	17.58
863.027	-23.38
863.201	97.45
863.375	-52.05
863.549	87.21
863.722	68.78
863.896	38.06
864.07	-43.86
864.244	25.77
864.418	-43.86
864.592	13.48
864.766	132.26
864.939	62.63
865.113	9.39
865.287	23.72
865.461	-19.29
865.634	-19.29
865.808	-25.43
865.982	-105.3
866.156	-17.24
866.329	-11.09
866.503	48.3
866.676	29.87
866.85	46.25
867.024	3.24
867.197	40.11
867.371	21.67
867.544	9.39
867.718	-41.81
867.891	-0.85
868.065	-27.48
868.238	-70.48
868.412	29.87
868.585	5.29
868.759	36.01
868.932	1.19
869.105	15.53
869.279	11.43
869.452	-2.9
869.625	-19.29
869.799	-11.09
869.972	-27.48
870.145	-2.9
870.319	-11.09
870.492	-23.38
870.665	17.58
870.838	-50
871.011	-35.67
871.185	21.67
871.358	-9.05
871.531	29.87
871.704	38.06
871.877	81.07
872.05	42.15
872.223	-60.24
872.396	7.34
872.569	-9.05
872.742	29.87
872.915	15.53
873.088	25.77
873.261	1.19
873.434	46.25
873.607	-0.85
873.78	33.96
873.953	-43.86
874.126	7.34
874.299	40.11
874.471	-68.44
874.644	-15.19
874.817	81.07
874.99	81.07
875.163	13.48
875.335	29.87
875.508	-66.39
875.681	91.31
875.853	-146.26
876.026	-2.9
876.199	9.39
876.371	-11.09
876.544	-19.29
876.717	48.3
876.889	5.29
877.062	-25.43
877.234	-27.48
877.407	-9.05
877.579	-90.96
877.752	19.63
877.924	46.25
878.097	9.39
878.269	-2.9
878.442	-35.67
878.614	-15.19
878.786	70.83
878.959	1.19
879.131	-25.43
879.303	-56.15
879.476	-25.43
879.648	17.58
879.82	-19.29
879.993	-17.24
880.165	-74.58
880.337	-7
880.509	83.11
880.681	-17.24
880.854	42.15
881.026	60.59
881.198	-15.19
881.37	-31.57
881.542	15.53
881.714	5.29
881.886	-25.43
882.058	64.68
882.23	-56.15
882.402	-50
882.574	-19.29
882.746	29.87
882.918	64.68
883.09	-4.95
883.262	38.06
883.434	-52.05
883.606	13.48
883.778	-64.34
883.95	44.2
884.122	-50
884.293	-0.85
884.465	-31.57
884.637	81.07
884.809	-76.63
884.98	-0.85
885.152	-31.57
885.324	21.67
885.496	-78.68
885.667	27.82
885.839	-19.29
886.011	64.68
886.182	91.31
886.354	-2.9
886.525	-72.53
886.697	-29.52
886.869	-68.44
887.04	36.01
887.212	31.91
887.383	46.25
887.555	-50
887.726	42.15
887.897	-13.14
888.069	66.73
888.24	-0.85
888.412	5.29
888.583	23.72
888.754	-52.05
888.926	-9.05
889.097	1.19
889.268	-27.48
889.44	19.63
889.611	-25.43
889.782	-11.09
889.953	-9.05
890.125	3.24
890.296	-58.2
890.467	-58.2
890.638	44.2
890.809	-25.43
890.98	-80.72
891.151	40.11
891.323	-0.85
891.494	-21.33
891.665	-43.86
891.836	-35.67
892.007	11.43
892.178	-25.43
892.349	25.77
892.52	29.87
892.691	17.58
892.862	-15.19
893.032	1.19
893.203	3.24
893.374	-39.76
893.545	46.25
893.716	-27.48
893.887	-15.19
894.057	-35.67
894.228	38.06
894.399	5.29
894.57	-33.62
894.74	15.53
894.911	23.72
895.082	-7
895.253	-19.29
895.423	-11.09
895.594	62.63
895.764	9.39
895.935	-62.29
896.106	-11.09
896.276	3.24
896.447	38.06
896.617	-99.16
896.788	-66.39
896.958	-19.29
897.129	-31.57
897.299	-52.05
897.47	-23.38
897.64	74.92
897.81	-43.86
897.981	95.4
898.151	7.34
898.322	-4.95
898.492	-11.09
898.662	21.67
898.832	-4.95
899.003	21.67
899.173	36.01
899.343	-19.29
899.513	-33.62
