Data from USB4F104151__298__14-34-56-597.txt Node

Date: Thu Mar 13 14:34:56 EDT 2025
User: louis
Spectrometer: USB4F10415
Trigger mode: 4
Integration Time (sec): 2.500000E-2
Scans to average: 1
Electric dark correction enabled: true
Nonlinearity correction enabled: false
Boxcar width: 0
XAxis mode: Wavelengths
Number of Pixels in Spectrum: 3648
>>>>>Begin Spectral Data<<<<<
178.204	-27.14
178.424	-27.14
178.644	-27.14
178.864	-158.21
179.084	-203.26
179.304	-14.85
179.524	-0.51
179.744	9.73
179.964	-4.61
180.184	5.63
180.404	30.21
180.624	-23.04
180.844	22.02
181.064	-2.56
181.283	-14.85
181.503	-43.52
181.723	36.35
181.943	-16.9
182.163	52.74
182.383	-12.8
182.602	-23.04
182.822	-39.42
183.042	26.11
183.262	-35.33
183.482	83.45
183.701	-20.99
183.921	13.82
184.141	42.5
184.361	44.54
184.58	-27.14
184.8	9.73
185.02	-27.14
185.239	52.74
185.459	17.92
185.679	5.63
185.898	-6.66
186.118	99.84
186.338	75.26
186.557	75.26
186.777	-23.04
186.997	11.78
187.216	13.82
187.436	44.54
187.655	77.31
187.875	1.54
188.095	-10.75
188.314	54.78
188.534	112.13
188.753	-70.14
188.973	38.4
189.192	93.69
189.412	44.54
189.631	73.21
189.851	17.92
190.07	52.74
190.29	-23.04
190.509	52.74
190.729	42.5
190.948	67.07
191.168	128.51
191.387	32.26
191.607	13.82
191.826	116.22
192.045	9.73
192.265	5.63
192.484	95.74
192.704	36.35
192.923	-6.66
193.142	99.84
193.362	60.93
193.581	67.07
193.8	65.02
194.02	157.18
194.239	28.16
194.458	26.11
194.678	34.3
194.897	62.98
195.116	44.54
195.335	17.92
195.555	93.69
195.774	38.4
195.993	91.65
196.212	42.5
196.432	60.93
196.651	52.74
196.87	-8.7
197.089	73.21
197.308	44.54
197.528	46.59
197.747	-10.75
197.966	17.92
198.185	95.74
198.404	-27.14
198.623	1.54
198.842	62.98
199.062	-8.7
199.281	1.54
199.5	-8.7
199.719	30.21
199.938	69.12
200.157	30.21
200.376	108.03
200.595	34.3
200.814	9.73
201.033	67.07
201.252	19.97
201.471	99.84
201.69	46.59
201.909	-20.99
202.128	46.59
202.347	79.36
202.566	42.5
202.785	9.73
203.004	17.92
203.223	58.88
203.442	-51.71
203.661	32.26
203.879	-14.85
204.098	58.88
204.317	26.11
204.536	22.02
204.755	60.93
204.974	-47.62
205.193	50.69
205.411	58.88
205.63	-72.19
205.849	75.26
206.068	54.78
206.287	26.11
206.505	75.26
206.724	13.82
206.943	26.11
207.162	36.35
207.381	71.17
207.599	-55.81
207.818	-39.42
208.037	52.74
208.255	46.59
208.474	73.21
208.693	75.26
208.911	34.3
209.13	58.88
209.349	48.64
209.567	-6.66
209.786	-4.61
210.005	26.11
210.223	19.97
210.442	34.3
210.661	46.59
210.879	-31.23
211.098	50.69
211.316	112.13
211.535	60.93
211.753	9.73
211.972	58.88
212.191	28.16
212.409	17.92
212.628	67.07
212.846	50.69
213.065	110.08
213.283	87.55
213.502	-4.61
213.72	17.92
213.938	30.21
214.157	-12.8
214.375	1.54
214.594	83.45
214.812	73.21
215.031	-4.61
215.249	13.82
215.467	1.54
215.686	17.92
215.904	83.45
216.122	-14.85
216.341	99.84
216.559	112.13
216.778	75.26
216.996	32.26
217.214	-8.7
217.432	56.83
217.651	67.07
217.869	-10.75
218.087	67.07
218.306	1.54
218.524	50.69
218.742	9.73
218.96	56.83
219.179	-27.14
219.397	11.78
219.615	13.82
219.833	105.98
220.051	122.37
220.27	3.58
220.488	62.98
220.706	5.63
220.924	34.3
221.142	58.88
221.36	91.65
221.578	-39.42
221.796	26.11
222.015	38.4
222.233	11.78
222.451	77.31
222.669	112.13
222.887	83.45
223.105	13.82
223.323	22.02
223.541	7.68
223.759	1.54
223.977	13.82
224.195	101.89
224.413	89.6
224.631	22.02
224.849	83.45
225.067	128.51
225.285	-2.56
225.503	26.11
225.721	-29.18
225.939	42.5
226.157	1.54
226.375	136.7
226.592	17.92
226.81	1.54
227.028	144.89
227.246	58.88
227.464	-14.85
227.682	11.78
227.9	93.69
228.117	17.92
228.335	46.59
228.553	22.02
228.771	-6.66
228.989	46.59
229.206	-31.23
229.424	67.07
229.642	85.5
229.86	-43.52
230.077	101.89
230.295	56.83
230.513	108.03
230.731	62.98
230.948	138.75
231.166	81.41
231.384	-6.66
231.601	-2.56
231.819	185.85
232.037	67.07
232.254	28.16
232.472	46.59
232.689	22.02
232.907	58.88
233.125	9.73
233.342	-6.66
233.56	30.21
233.777	-64
233.995	-51.71
234.213	112.13
234.43	67.07
234.648	-72.19
234.865	-23.04
235.083	85.5
235.3	52.74
235.518	69.12
235.735	3.58
235.953	56.83
236.17	-72.19
236.388	11.78
236.605	73.21
236.822	50.69
237.04	17.92
237.257	-4.61
237.475	-78.33
237.692	58.88
237.909	26.11
238.127	9.73
238.344	-43.52
238.562	38.4
238.779	3.58
238.996	-14.85
239.214	52.74
239.431	50.69
239.648	-27.14
239.865	44.54
240.083	87.55
240.3	50.69
240.517	22.02
240.735	75.26
240.952	36.35
241.169	54.78
241.386	3.58
241.603	52.74
241.821	-96.77
242.038	67.07
242.255	83.45
242.472	-33.28
242.689	-14.85
242.907	24.06
243.124	34.3
243.341	36.35
243.558	-20.99
243.775	140.8
243.992	17.92
244.209	108.03
244.426	134.65
244.643	85.5
244.86	46.59
245.078	17.92
245.295	67.07
245.512	34.3
245.729	24.06
245.946	60.93
246.163	28.16
246.38	75.26
246.597	46.59
246.814	34.3
247.031	1.54
247.248	24.06
247.464	50.69
247.681	34.3
247.898	62.98
248.115	28.16
248.332	-45.57
248.549	93.69
248.766	69.12
248.983	-4.61
249.2	67.07
249.417	60.93
249.633	75.26
249.85	26.11
250.067	50.69
250.284	44.54
250.501	30.21
250.717	42.5
250.934	81.41
251.151	11.78
251.368	-55.81
251.585	62.98
251.801	36.35
252.018	32.26
252.235	93.69
252.451	30.21
252.668	44.54
252.885	50.69
253.102	60.93
253.318	28.16
253.535	-2.56
253.752	13.82
253.968	44.54
254.185	15.87
254.401	17.92
254.618	30.21
254.835	60.93
255.051	134.65
255.268	32.26
255.484	9.73
255.701	3.58
255.917	60.93
256.134	26.11
256.351	19.97
256.567	5.63
256.784	-12.8
257	-76.29
257.217	44.54
257.433	9.73
257.65	50.69
257.866	60.93
258.082	50.69
258.299	9.73
258.515	67.07
258.732	-39.42
258.948	42.5
259.165	3.58
259.381	26.11
259.597	67.07
259.814	-14.85
260.03	58.88
260.246	50.69
260.463	5.63
260.679	95.74
260.895	71.17
261.112	36.35
261.328	36.35
261.544	3.58
261.761	173.57
261.977	34.3
262.193	69.12
262.409	34.3
262.626	-29.18
262.842	17.92
263.058	52.74
263.274	83.45
263.49	56.83
263.707	95.74
263.923	87.55
264.139	-57.86
264.355	38.4
264.571	44.54
264.787	34.3
265.004	65.02
265.22	-2.56
265.436	30.21
265.652	-51.71
265.868	83.45
266.084	1.54
266.3	62.98
266.516	22.02
266.732	46.59
266.948	1.54
267.164	17.92
267.38	79.36
267.596	42.5
267.812	165.37
268.028	1.54
268.244	11.78
268.46	36.35
268.676	5.63
268.892	103.93
269.108	62.98
269.324	-0.51
269.54	-2.56
269.756	42.5
269.972	7.68
270.188	42.5
270.403	-37.38
270.619	11.78
270.835	79.36
271.051	62.98
271.267	7.68
271.483	26.11
271.698	42.5
271.914	9.73
272.13	40.45
272.346	75.26
272.562	-6.66
272.777	77.31
272.993	19.97
273.209	3.58
273.425	-29.18
273.64	-94.72
273.856	69.12
274.072	44.54
274.287	67.07
274.503	79.36
274.719	-4.61
274.934	7.68
275.15	-29.18
275.366	17.92
275.581	1.54
275.797	-12.8
276.012	77.31
276.228	34.3
276.444	24.06
276.659	91.65
276.875	32.26
277.09	3.58
277.306	44.54
277.521	50.69
277.737	65.02
277.952	56.83
278.168	3.58
278.383	54.78
278.599	101.89
278.814	75.26
279.03	3.58
279.245	11.78
279.461	-51.71
279.676	58.88
279.892	-39.42
280.107	26.11
280.322	42.5
280.538	79.36
280.753	30.21
280.969	-27.14
281.184	50.69
281.399	44.54
281.615	-29.18
281.83	26.11
282.045	-20.99
282.26	-4.61
282.476	-37.38
282.691	7.68
282.906	132.61
283.122	26.11
283.337	1.54
283.552	62.98
283.767	-14.85
283.983	79.36
284.198	22.02
284.413	50.69
284.628	-16.9
284.843	22.02
285.058	52.74
285.274	67.07
285.489	-29.18
285.704	1.54
285.919	26.11
286.134	42.5
286.349	75.26
286.564	110.08
286.779	91.65
286.995	85.5
287.21	-12.8
287.425	46.59
287.64	34.3
287.855	-55.81
288.07	9.73
288.285	13.82
288.5	85.5
288.715	62.98
288.93	54.78
289.145	-43.52
289.36	50.69
289.575	3.58
289.79	67.07
290.004	26.11
290.219	32.26
290.434	22.02
290.649	1.54
290.864	9.73
291.079	46.59
291.294	34.3
291.509	58.88
291.724	17.92
291.938	-35.33
292.153	91.65
292.368	1.54
292.583	30.21
292.798	32.26
293.012	71.17
293.227	75.26
293.442	-35.33
293.657	1.54
293.871	50.69
294.086	62.98
294.301	42.5
294.516	30.21
294.73	24.06
294.945	83.45
295.16	38.4
295.374	26.11
295.589	77.31
295.804	56.83
296.018	81.41
296.233	97.79
296.447	97.79
296.662	-14.85
296.877	91.65
297.091	148.99
297.306	-6.66
297.52	87.55
297.735	60.93
297.949	13.82
298.164	67.07
298.378	-2.56
298.593	24.06
298.807	50.69
299.022	58.88
299.236	38.4
299.451	-6.66
299.665	1.54
299.88	5.63
300.094	93.69
300.309	50.69
300.523	32.26
300.737	71.17
300.952	11.78
301.166	42.5
301.381	42.5
301.595	28.16
301.809	-4.61
302.024	11.78
302.238	11.78
302.452	108.03
302.667	44.54
302.881	132.61
303.095	67.07
303.309	46.59
303.524	28.16
303.738	85.5
303.952	17.92
304.166	83.45
304.381	-43.52
304.595	50.69
304.809	77.31
305.023	58.88
305.237	-2.56
305.452	42.5
305.666	42.5
305.88	83.45
306.094	50.69
306.308	75.26
306.522	73.21
306.736	13.82
306.95	-35.33
307.164	48.64
307.379	26.11
307.593	136.7
307.807	62.98
308.021	91.65
308.235	93.69
308.449	-8.7
308.663	-8.7
308.877	134.65
309.091	50.69
309.305	108.03
309.519	-27.14
309.733	85.5
309.947	11.78
310.161	1.54
310.374	69.12
310.588	5.63
310.802	11.78
311.016	52.74
311.23	58.88
311.444	-47.62
311.658	26.11
311.872	91.65
312.085	116.22
312.299	93.69
312.513	83.45
312.727	52.74
312.941	36.35
313.154	58.88
313.368	17.92
313.582	67.07
313.796	30.21
314.009	-14.85
314.223	99.84
314.437	22.02
314.651	46.59
314.864	69.12
315.078	44.54
315.292	17.92
315.505	44.54
315.719	-23.04
315.933	54.78
316.146	120.32
316.36	58.88
316.573	116.22
316.787	54.78
317.001	38.4
317.214	-6.66
317.428	26.11
317.641	26.11
317.855	-0.51
318.068	91.65
318.282	77.31
318.495	-70.14
318.709	-6.66
318.922	83.45
319.136	99.84
319.349	93.69
319.563	19.97
319.776	-18.94
319.99	26.11
320.203	52.74
320.417	69.12
320.63	36.35
320.843	159.23
321.057	128.51
321.27	-45.57
321.483	-31.23
321.697	46.59
321.91	103.93
322.124	22.02
322.337	50.69
322.55	32.26
322.763	50.69
322.977	120.32
323.19	42.5
323.403	62.98
323.617	58.88
323.83	60.93
324.043	-16.9
324.256	9.73
324.469	30.21
324.683	36.35
324.896	69.12
325.109	15.87
325.322	9.73
325.535	50.69
325.748	97.79
325.962	50.69
326.175	75.26
326.388	-12.8
326.601	91.65
326.814	42.5
327.027	75.26
327.24	116.22
327.453	1.54
327.666	52.74
327.879	69.12
328.092	58.88
328.305	54.78
328.518	95.74
328.731	-0.51
328.944	-35.33
329.157	62.98
329.37	1.54
329.583	136.7
329.796	56.83
330.009	-47.62
330.222	87.55
330.435	-35.33
330.648	124.41
330.861	9.73
331.073	108.03
331.286	28.16
331.499	85.5
331.712	-27.14
331.925	28.16
332.138	46.59
332.35	110.08
332.563	-35.33
332.776	83.45
332.989	17.92
333.202	-6.66
333.414	65.02
333.627	73.21
333.84	5.63
334.053	62.98
334.265	13.82
334.478	46.59
334.691	101.89
334.903	58.88
335.116	71.17
335.329	34.3
335.541	71.17
335.754	91.65
335.966	-18.94
336.179	34.3
336.392	-4.61
336.604	30.21
336.817	5.63
337.029	-18.94
337.242	60.93
337.454	89.6
337.667	26.11
337.88	79.36
338.092	26.11
338.305	34.3
338.517	38.4
338.729	26.11
338.942	77.31
339.154	24.06
339.367	26.11
339.579	-14.85
339.792	26.11
340.004	9.73
340.217	83.45
340.429	89.6
340.641	-2.56
340.854	71.17
341.066	-23.04
341.278	75.26
341.491	122.37
341.703	36.35
341.915	-6.66
342.128	83.45
342.34	-25.09
342.552	44.54
342.764	46.59
342.977	58.88
343.189	13.82
343.401	9.73
343.613	118.27
343.826	93.69
344.038	58.88
344.25	28.16
344.462	30.21
344.674	15.87
344.886	87.55
345.099	40.45
345.311	28.16
345.523	5.63
345.735	-94.72
345.947	118.27
346.159	-6.66
346.371	124.41
346.583	101.89
346.795	151.04
347.007	26.11
347.219	9.73
347.431	48.64
347.643	48.64
347.855	60.93
348.067	112.13
348.279	17.92
348.491	83.45
348.703	50.69
348.915	-49.66
349.127	42.5
349.339	-23.04
349.551	-2.56
349.763	42.5
349.975	22.02
350.187	114.17
350.399	44.54
350.61	95.74
350.822	9.73
351.034	110.08
351.246	-49.66
351.458	142.85
351.669	75.26
351.881	67.07
352.093	134.65
352.305	58.88
352.517	75.26
352.728	52.74
352.94	140.8
353.152	-6.66
353.363	-14.85
353.575	30.21
353.787	134.65
353.999	-37.38
354.21	110.08
354.422	87.55
354.633	40.45
354.845	108.03
355.057	30.21
355.268	71.17
355.48	42.5
355.692	15.87
355.903	11.78
356.115	15.87
356.326	-14.85
356.538	75.26
356.749	-6.66
356.961	192
357.172	26.11
357.384	28.16
357.595	34.3
357.807	69.12
358.018	62.98
358.23	75.26
358.441	81.41
358.653	134.65
358.864	30.21
359.075	71.17
359.287	77.31
359.498	56.83
359.709	-33.28
359.921	28.16
360.132	91.65
360.344	32.26
360.555	-12.8
360.766	50.69
360.977	26.11
361.189	69.12
361.4	69.12
361.611	17.92
361.823	151.04
362.034	24.06
362.245	-35.33
362.456	26.11
362.667	22.02
362.879	9.73
363.09	69.12
363.301	22.02
363.512	65.02
363.723	9.73
363.935	62.98
364.146	17.92
364.357	-14.85
364.568	136.7
364.779	22.02
364.99	116.22
365.201	-12.8
365.412	81.41
365.623	3.58
365.834	30.21
366.045	-20.99
366.256	54.78
366.467	71.17
366.678	69.12
366.889	108.03
367.1	34.3
367.311	19.97
367.522	62.98
367.733	69.12
367.944	110.08
368.155	17.92
368.366	58.88
368.577	165.37
368.788	67.07
368.999	19.97
369.209	-12.8
369.42	126.46
369.631	159.23
369.842	81.41
370.053	13.82
370.264	60.93
370.474	52.74
370.685	1.54
370.896	17.92
371.107	42.5
371.317	26.11
371.528	56.83
371.739	40.45
371.95	114.17
372.16	103.93
372.371	-20.99
372.582	79.36
372.792	9.73
373.003	75.26
373.214	67.07
373.424	50.69
373.635	13.82
373.846	112.13
374.056	38.4
374.267	101.89
374.477	62.98
374.688	17.92
374.898	28.16
375.109	19.97
375.319	54.78
375.53	101.89
375.74	62.98
375.951	46.59
376.161	91.65
376.372	22.02
376.582	-6.66
376.793	114.17
377.003	3.58
377.214	1.54
377.424	36.35
377.635	28.16
377.845	108.03
378.055	60.93
378.266	42.5
378.476	112.13
378.686	118.27
378.897	11.78
379.107	151.04
379.317	58.88
379.528	-2.56
379.738	101.89
379.948	28.16
380.158	75.26
380.369	148.99
380.579	17.92
380.789	36.35
380.999	87.55
381.21	128.51
381.42	134.65
381.63	26.11
381.84	67.07
382.05	34.3
382.261	157.18
382.471	132.61
382.681	103.93
382.891	67.07
383.101	58.88
383.311	77.31
383.521	75.26
383.731	60.93
383.941	60.93
384.151	77.31
384.361	58.88
384.571	108.03
384.781	108.03
384.991	134.65
385.201	151.04
385.411	34.3
385.621	75.26
385.831	30.21
386.041	161.28
386.251	83.45
386.461	108.03
386.671	11.78
386.881	42.5
387.091	15.87
387.301	108.03
387.511	34.3
387.72	97.79
387.93	99.84
388.14	58.88
388.35	67.07
388.56	77.31
388.769	91.65
388.979	30.21
389.189	83.45
389.399	30.21
389.609	11.78
389.818	75.26
390.028	138.75
390.238	103.93
390.447	48.64
390.657	173.57
390.867	69.12
391.076	9.73
391.286	124.41
391.496	32.26
391.705	26.11
391.915	157.18
392.125	77.31
392.334	-18.94
392.544	142.85
392.753	42.5
392.963	44.54
393.172	75.26
393.382	93.69
393.591	124.41
393.801	62.98
394.01	144.89
394.22	142.85
394.429	38.4
394.639	140.8
394.848	83.45
395.058	75.26
395.267	116.22
395.477	142.85
395.686	75.26
395.895	194.05
396.105	198.14
396.314	81.41
396.524	60.93
396.733	112.13
396.942	48.64
397.152	79.36
397.361	103.93
397.57	144.89
397.78	108.03
397.989	101.89
398.198	75.26
398.407	157.18
398.617	122.37
398.826	165.37
399.035	67.07
399.244	101.89
399.453	155.13
399.663	146.94
399.872	126.46
400.081	85.5
400.29	148.99
400.499	54.78
400.708	222.72
400.917	151.04
401.127	99.84
401.336	108.03
401.545	198.14
401.754	198.14
401.963	235
402.172	103.93
402.381	89.6
402.59	224.76
402.799	118.27
403.008	144.89
403.217	161.28
403.426	226.81
403.635	108.03
403.844	112.13
404.053	181.76
404.262	128.51
404.471	241.15
404.68	212.48
404.888	198.14
405.097	146.94
405.306	239.1
405.515	257.53
405.724	245.24
405.933	267.77
406.142	298.49
406.35	271.87
406.559	181.76
406.768	210.43
406.977	282.11
407.185	218.62
407.394	292.35
407.603	275.96
407.812	304.64
408.02	329.21
408.229	275.96
408.438	249.34
408.646	218.62
408.855	333.31
409.064	329.21
409.272	396.79
409.481	464.38
409.69	331.26
409.898	388.6
410.107	331.26
410.315	466.42
410.524	452.09
410.733	443.9
410.941	468.47
411.15	509.43
411.358	554.49
411.567	558.58
411.775	534.01
411.984	566.78
412.192	624.12
412.401	558.58
412.609	718.33
412.818	687.61
413.026	667.13
413.234	701.94
413.443	642.55
413.651	607.73
413.86	779.76
414.068	787.96
414.276	828.92
414.485	837.11
414.693	804.34
414.901	1029.62
415.11	1054.19
415.318	1060.34
415.526	1066.48
415.734	1068.53
415.943	1037.81
416.151	1156.59
416.359	1068.53
416.567	1140.21
416.776	1152.49
416.984	1230.32
417.192	1320.43
417.4	1447.4
417.608	1385.96
417.817	1406.44
418.025	1377.77
418.233	1629.67
418.441	1535.46
418.649	1639.91
418.857	1697.25
419.065	1857
419.273	1785.32
419.481	1844.71
419.689	1902.05
419.897	2139.62
420.105	1975.78
420.313	2207.2
420.521	2207.2
420.729	2223.58
420.937	2348.51
421.145	2360.8
421.353	2491.87
421.561	2524.63
421.769	2684.38
421.977	2782.68
422.185	2840.02
422.393	2901.46
422.601	3079.63
422.809	3175.89
423.017	3124.69
423.224	3392.97
423.432	3335.63
423.64	3427.79
423.848	3689.93
424.056	3638.73
424.263	3827.14
424.471	3878.34
424.679	4056.51
424.887	4199.87
425.094	4328.89
425.302	4273.6
425.51	4482.49
425.718	4752.82
425.925	4617.66
426.133	4791.73
426.341	5129.65
426.548	5281.2
426.756	5285.3
426.964	5502.38
427.171	5809.58
427.379	5676.46
427.586	5891.49
427.794	6096.29
428.001	6327.71
428.209	6583.71
428.417	6538.65
428.624	7058.84
428.832	7153.04
429.039	6997.4
429.247	7044.5
429.454	7800.2
429.662	8123.78
429.869	7443.85
430.076	8224.13
430.284	7861.64
430.491	8258.95
430.699	8615.29
430.906	8824.19
431.114	8779.13
431.321	9205.11
431.528	9504.11
431.736	9868.65
431.943	10509.66
432.15	10106.21
432.358	10165.6
432.565	10788.19
432.772	10773.85
432.979	11396.43
433.187	11455.83
433.394	11298.13
433.601	12248.39
433.808	12240.2
434.016	12117.32
434.223	12619.07
434.43	13681.97
434.637	13176.12
434.844	14212.39
435.052	14462.24
435.259	14542.11
435.466	14454.05
435.673	14241.06
435.88	15213.85
436.087	16051.47
436.294	15815.95
436.501	15566.1
436.708	15863.05
436.915	16082.19
437.122	17265.91
437.329	17284.34
437.537	17720.56
437.743	17929.45
437.95	17890.54
438.157	18683.11
438.364	19475.67
438.571	19211.48
438.778	19231.96
438.985	21134.53
439.192	20163.79
439.399	21220.54
439.606	20452.55
439.813	21662.9
440.02	22899.87
440.227	22512.81
440.433	22070.45
440.64	23198.88
440.847	22647.97
441.054	23381.15
441.261	25040
441.467	24634.5
441.674	25203.84
441.881	25912.44
442.088	26012.79
442.294	25707.64
442.501	26190.96
442.708	26604.65
442.914	27806.81
443.121	28816.46
443.328	28181.59
443.534	30020.66
443.741	29500.48
443.948	28892.23
444.154	30975.02
444.361	31163.43
444.568	30987.3
444.774	30880.81
444.981	31446.05
445.187	32046.1
445.394	33733.63
445.6	33031.18
445.807	36711.38
446.013	34706.41
446.22	35503.07
446.426	36854.73
446.633	37399.49
446.839	38585.27
447.046	36766.67
447.252	39064.49
447.459	39113.64
447.665	38757.3
447.871	40338.33
448.078	41837.44
448.284	40108.96
448.491	41415.56
448.697	43156.33
448.903	43637.61
449.11	43619.17
449.316	42769.27
449.522	43668.33
449.728	44931.92
449.935	45081.42
450.141	45388.62
450.347	46496.57
450.553	44587.86
450.76	45646.66
450.966	46273.34
451.172	46177.09
451.378	47366.96
451.584	46242.62
451.791	47444.78
451.997	47559.47
452.203	48173.86
452.409	48184.1
452.615	48149.28
452.821	46205.76
453.027	45914.95
453.233	47758.12
453.44	45945.67
453.646	46732.09
453.852	46824.25
454.058	47647.53
454.264	46009.15
454.47	47006.51
454.676	46019.39
454.882	47102.77
455.088	43547.5
455.294	44206.94
455.5	44469.08
455.705	45218.64
455.911	43801.44
456.117	42509.18
456.323	42261.37
456.529	39867.3
456.735	41651.08
456.941	40696.72
457.147	39775.14
457.352	38280.12
457.558	38226.87
457.764	38482.87
457.97	37686.21
458.176	36461.52
458.381	36580.31
458.587	35214.31
458.793	35126.25
458.999	32936.97
459.204	35306.47
459.41	34726.89
459.616	32162.84
459.821	32039.96
460.027	32009.24
460.233	31247.4
460.438	29916.22
460.644	30354.48
460.85	28814.41
461.055	28071
461.261	28308.56
461.466	26371.18
461.672	25322.62
461.878	26858.6
462.083	25310.33
462.289	25001.09
462.494	24630.41
462.7	23628.95
462.905	23178.4
463.111	24099.98
463.316	23831.7
463.522	23395.48
463.727	23452.83
463.932	22914.21
464.138	23039.14
464.343	23168.16
464.549	22209.71
464.754	22983.84
464.959	22926.5
465.165	22838.44
465.37	21652.66
465.575	21243.07
465.781	21941.43
465.986	22117.55
466.191	21337.27
466.397	21089.47
466.602	19686.61
466.807	20804.8
467.012	20630.73
467.218	20532.42
467.423	20104.4
467.628	20491.46
467.833	21126.33
468.038	20268.23
468.244	19735.76
468.449	20333.77
468.654	19729.62
468.859	19506.39
469.064	19526.87
469.269	18836.7
469.474	18605.28
469.679	19266.78
469.885	18963.68
470.09	18801.89
470.295	18857.18
470.5	18195.69
470.705	18427.11
470.91	17700.08
471.115	18068.72
471.32	18240.75
471.525	18132.2
471.73	17822.96
471.935	17630.45
472.139	16889.09
472.344	17216.76
472.549	17032.44
472.754	16946.43
472.959	16723.2
473.164	16219.4
473.369	16063.75
473.574	16336.13
473.778	16487.68
473.983	16053.52
474.188	16401.67
474.393	15377.69
474.598	15521.04
474.802	15435.03
475.007	15373.59
475.212	15490.32
475.417	14863.65
475.621	14531.87
475.826	14732.58
476.031	14456.1
476.235	13989.16
476.44	14503.2
476.645	14118.18
476.849	14165.29
477.054	13999.4
477.259	13946.16
477.463	13854
477.668	13409.59
477.872	13415.73
478.077	13337.91
478.282	13059.38
478.486	13120.82
478.691	12844.35
478.895	12852.54
479.1	12490.05
479.304	12879.16
479.509	12363.08
479.713	12682.56
479.918	12070.22
480.122	12279.11
480.326	12348.74
480.531	12498.24
480.735	12209.48
480.94	12074.31
481.144	12387.65
481.348	11941.19
481.553	12119.37
481.757	11742.54
481.961	11806.03
482.166	12023.11
482.37	11951.43
482.574	11638.09
482.778	11824.46
482.983	11988.3
483.187	11838.8
483.391	12150.09
483.595	11756.88
483.8	11752.78
484.004	11720.01
484.208	11701.58
484.412	11627.85
484.616	11842.89
484.821	11978.06
485.025	11373.91
485.229	11935.05
485.433	11642.19
485.637	11863.37
485.841	11787.6
486.045	11724.11
486.249	11634
486.453	11590.99
486.657	11683.15
486.861	11687.25
487.065	11433.3
487.269	11664.72
487.473	11513.17
487.677	11695.44
487.881	11830.6
488.085	11564.37
488.289	11941.19
488.493	11627.85
488.697	11914.57
488.901	11795.79
489.105	11625.81
489.309	11693.39
489.512	11806.03
489.716	11775.31
489.92	11838.8
490.124	11832.65
490.328	11916.62
490.531	11799.88
490.735	11855.18
490.939	11922.76
491.143	11978.06
491.346	11920.71
491.55	12029.26
491.754	12186.95
491.958	12125.51
492.161	12010.82
492.365	12387.65
492.569	11953.48
492.772	12229.96
492.976	12283.2
493.18	12174.66
493.383	12365.12
493.587	12348.74
493.79	12631.36
493.994	12430.66
494.197	12657.98
494.401	12592.45
494.605	12637.5
494.808	12797.24
495.012	13028.67
495.215	13210.93
495.419	13268.28
495.622	12858.68
495.825	13387.06
496.029	13106.49
496.232	13583.66
496.436	13499.7
496.639	13624.62
496.843	13657.39
497.046	13917.48
497.249	14064.94
497.453	14124.33
497.656	14318.89
497.859	14288.17
498.063	14267.69
498.266	14710.05
498.469	14558.5
498.673	14902.56
498.876	15213.85
499.079	15207.7
499.282	15133.98
499.485	15447.32
499.689	15346.97
499.892	15686.93
500.095	15826.19
500.298	16282.89
500.501	15926.54
500.705	16450.82
500.908	16401.67
501.111	16887.04
501.314	16870.65
501.517	17011.96
501.72	17302.78
501.923	17159.42
502.126	17501.43
502.329	17927.41
502.532	17861.87
502.735	18054.38
502.938	18238.7
503.141	18416.87
503.344	18705.63
503.547	18820.32
503.75	18830.56
503.953	19168.48
504.156	19381.46
504.359	19416.28
504.562	19516.63
504.765	19952.85
504.968	20212.94
505.17	20542.66
505.373	20153.55
505.576	20700.36
505.779	20874.43
505.982	21175.48
506.185	21335.23
506.387	21427.39
506.59	21542.07
506.793	22027.44
506.996	21898.42
507.198	22510.76
507.401	22512.81
507.604	22789.28
507.807	22987.94
508.009	23499.93
508.212	23366.81
508.415	23661.72
508.617	24073.36
508.82	24151.18
509.022	23977.11
509.225	24931.46
509.428	24802.44
509.63	24999.04
509.833	24849.54
510.035	25611.39
510.238	25605.24
510.44	26231.92
510.643	26238.06
510.845	26422.38
511.048	26418.28
511.25	27151.46
511.453	26844.26
511.655	28226.64
511.858	27702.36
512.06	27802.71
512.262	28243.03
512.465	28126.29
512.667	28439.63
512.87	28779.59
513.072	28757.07
513.274	29324.35
513.477	29707.32
513.679	30104.63
513.881	30227.51
514.084	30624.81
514.286	30290.99
514.488	30684.2
514.69	31097.89
514.893	31304.74
515.095	31976.47
515.297	31734.81
515.499	32035.86
515.701	32396.31
515.904	32742.41
516.106	32918.54
516.308	33254.4
516.51	33307.65
516.712	33647.61
516.914	33954.81
517.116	34434.03
517.318	34462.71
517.52	34683.89
517.722	34370.55
517.925	35148.78
518.127	35660.77
518.329	35476.45
518.531	35429.35
518.733	35935.2
518.935	36359.13
519.136	36654.03
519.338	37161.93
519.54	36991.95
519.742	37532.61
519.944	37190.6
520.146	38069.18
520.348	37968.83
520.55	38130.62
520.752	38599.6
520.954	38534.07
521.155	38536.12
521.357	38865.84
521.559	39246.76
521.761	39703.46
521.963	39715.75
522.164	39979.93
522.366	39981.98
522.568	40088.48
522.77	40539.03
522.971	40541.08
523.173	40147.87
523.375	40979.34
523.576	40940.43
523.778	40860.56
523.98	41491.33
524.181	41571.21
524.383	41100.17
524.584	42054.53
524.786	41925.5
524.988	41919.36
525.189	42171.26
525.391	42255.23
525.592	42404.73
525.794	42705.78
525.995	42898.29
526.197	42560.37
526.398	42597.24
526.6	42720.12
526.801	42951.54
527.003	42642.29
527.204	42781.56
527.406	42957.68
527.607	43213.68
527.808	43645.8
528.01	42713.97
528.211	43043.7
528.412	43799.4
528.614	43633.51
528.815	43348.84
529.016	43578.22
529.218	43451.24
529.419	43506.54
529.62	43733.86
529.822	43602.79
530.023	43670.37
530.224	43721.57
530.425	43817.83
530.626	43447.15
530.828	43213.68
531.029	44000.1
531.23	43254.64
531.431	43512.68
531.632	43334.51
531.833	43744.1
532.035	43946.85
532.236	43727.72
532.437	43449.19
532.638	43088.75
532.839	43281.26
533.04	43649.89
533.241	43088.75
533.442	43658.09
533.643	43234.16
533.844	42898.29
534.045	43453.29
534.246	42984.3
534.447	43463.53
534.648	42832.75
534.849	43350.89
535.05	42587
535.251	42990.45
535.451	43119.47
535.652	43287.4
535.853	42978.16
536.054	43096.94
536.255	43103.09
536.456	42736.5
536.657	43287.4
536.857	42568.57
537.058	42414.97
537.259	43334.51
537.46	42734.45
537.66	42251.13
537.861	42656.63
538.062	42679.16
538.263	42484.6
538.463	42621.81
538.664	42519.42
538.865	42363.77
539.065	42554.23
539.266	42314.62
539.466	42556.28
539.667	42034.05
539.868	42654.58
540.068	42392.44
540.269	42369.91
540.469	42480.5
540.67	42034.05
540.87	42261.37
541.071	42062.72
541.271	42173.31
541.472	42068.86
541.672	41876.35
541.873	41810.82
542.073	41272.2
542.274	42578.81
542.474	41743.24
542.675	42003.33
542.875	42402.68
543.075	41868.16
543.276	41292.68
543.476	41841.54
543.676	41837.44
543.877	41792.39
544.077	42199.93
544.277	41939.84
544.478	41839.49
544.678	41991.04
544.878	41958.27
545.078	41298.83
545.279	41855.87
545.479	41440.14
545.679	41718.66
545.879	41626.5
546.079	41622.4
546.28	41651.08
546.48	41417.61
546.68	42077.05
546.88	41571.21
547.08	41919.36
547.28	41851.78
547.48	41341.83
547.68	41991.04
547.88	41329.55
548.081	41673.6
548.281	41556.87
548.481	41497.48
548.681	41849.73
548.881	41556.87
549.081	41628.55
549.28	41270.15
549.48	41685.89
549.68	41755.52
549.88	41925.5
550.08	41491.33
550.28	41739.14
550.48	41577.35
550.68	42089.34
550.88	41737.09
551.08	41622.4
551.279	41986.94
551.479	41606.02
551.679	41839.49
551.879	41542.53
552.079	41857.92
552.278	41528.2
552.478	41757.57
552.678	41984.9
552.878	41982.85
553.077	41745.28
553.277	41530.25
553.477	42212.22
553.676	41515.91
553.876	42204.03
554.076	41890.69
554.275	41689.99
554.475	41526.15
554.674	42023.81
554.874	41907.07
555.074	42015.61
555.273	41845.63
555.473	42212.22
555.672	41964.42
555.872	41743.24
556.071	41798.53
556.271	42359.67
556.47	41530.25
556.67	41474.95
556.869	41579.4
557.068	41997.18
557.268	42029.95
557.467	41862.02
557.667	42083.2
557.866	42228.6
558.065	41984.9
558.265	41837.44
558.464	41741.19
558.663	42265.47
558.863	41655.17
559.062	42257.28
559.261	41761.67
559.461	42335.1
559.66	41302.92
559.859	41874.31
560.058	41714.56
560.258	42056.57
560.457	41788.29
560.656	41931.65
560.855	41558.92
561.054	42247.04
561.253	41749.38
561.453	41591.69
561.652	41900.93
561.851	41710.47
562.05	41569.16
562.249	41689.99
562.448	42300.28
562.647	41667.46
562.846	41284.49
563.045	41634.69
563.244	41274.25
563.443	41923.46
563.642	41704.32
563.841	42095.49
564.04	41362.31
564.239	42089.34
564.438	41581.45
564.637	41540.49
564.836	41474.95
565.035	40887.18
565.234	41618.31
565.432	41204.62
565.631	41034.64
565.83	40889.23
566.029	41116.56
566.228	40706.96
566.427	40864.66
566.625	40649.62
566.824	40151.96
567.023	41300.87
567.222	40313.75
567.42	41274.25
567.619	40790.93
567.818	40364.95
568.016	40835.98
568.215	40856.46
568.414	40362.9
568.612	40637.33
568.811	40188.83
569.01	40471.45
569.208	39855.01
569.407	40311.7
569.605	39789.47
569.804	40348.57
570.002	40188.83
570.201	40018.85
570.4	39582.63
570.598	39351.21
570.797	39539.62
570.995	39318.44
571.193	39244.71
571.392	39400.36
571.59	39170.99
571.789	39291.82
571.987	39367.59
572.186	39508.9
572.384	39103.4
572.582	38861.74
572.781	39197.61
572.979	38390.71
573.177	38998.96
573.376	38814.64
573.574	38321.08
573.772	38695.86
573.971	38796.21
574.169	38216.63
574.367	38271.93
574.565	38284.22
574.763	37850.05
574.962	37876.67
575.16	37139.4
575.358	37766.08
575.556	37180.36
575.754	38028.22
575.952	37280.71
576.151	37821.37
576.349	37364.68
576.547	37272.52
576.745	37133.26
576.943	36969.42
577.141	37360.58
577.339	37024.72
577.537	36719.57
577.735	36764.62
577.933	36484.05
578.131	36793.29
578.329	36520.91
578.527	36582.35
578.725	36393.94
578.923	36529.11
579.121	36379.6
579.319	36203.48
579.516	36051.93
579.714	36115.42
579.912	35748.83
580.11	35435.49
580.308	35496.93
580.506	35695.58
580.704	34946.03
580.901	35253.22
581.099	35689.44
581.297	34950.12
581.495	34864.11
581.692	35529.7
581.89	34690.03
582.088	35202.02
582.285	34606.06
582.483	35206.12
582.681	34925.55
582.878	34882.54
583.076	34323.44
583.274	34610.16
583.471	33985.53
583.669	34253.81
583.866	34085.88
584.064	34085.88
584.262	33664
584.459	34061.3
584.657	33772.54
584.854	34079.74
585.052	33514.5
585.249	33481.73
585.447	33790.97
585.644	33043.46
585.841	33293.32
586.039	33463.3
586.236	33086.47
586.434	32898.06
586.631	33135.62
586.828	33418.24
587.026	32969.74
587.223	33022.98
587.42	33045.51
587.618	32766.99
587.815	32367.63
588.012	32601.1
588.21	32664.59
588.407	32871.43
588.604	32373.78
588.801	32046.1
588.999	32320.53
589.196	32136.21
589.393	32185.36
589.59	31933.46
589.787	31628.32
589.984	31724.57
590.182	31439.9
590.379	31820.83
590.576	31476.77
590.773	31570.97
590.97	31136.8
591.167	31749.15
591.364	30942.25
591.561	31786.01
591.758	31018.02
591.955	31169.57
592.152	31288.35
592.349	30942.25
592.546	31196.2
592.743	30741.55
592.94	30753.83
593.137	30934.06
593.334	31116.33
593.531	30528.56
593.727	30833.71
593.924	30870.57
594.121	30393.39
594.318	30936.1
594.515	30620.72
594.712	30284.85
594.908	30303.28
595.105	30538.8
595.302	30166.07
595.499	30178.36
595.696	30350.38
595.892	30284.85
596.089	30340.15
596.286	30252.08
596.482	30139.44
596.679	29877.3
596.876	29951.03
597.072	29887.54
597.269	29860.92
597.466	29750.33
597.662	30157.88
597.859	29629.5
598.055	30073.91
598.252	29830.2
598.448	29873.21
598.645	29662.27
598.841	29350.98
599.038	29899.83
599.234	29867.06
599.431	29322.3
599.627	29695.03
599.824	29578.3
600.02	29606.97
600.217	29365.31
600.413	29355.07
600.609	29512.77
600.806	29262.91
601.002	29566.01
601.198	29453.37
601.395	29459.52
601.591	29447.23
601.787	29389.89
601.984	29068.36
602.18	29824.06
602.376	29353.02
602.572	29211.71
602.769	29242.43
602.965	29076.55
603.161	29258.82
603.357	29074.5
603.553	29269.06
603.75	29455.42
603.946	29320.26
604.142	29422.66
604.338	28978.25
604.534	29570.11
604.73	29357.12
604.926	29260.87
605.122	29492.29
605.318	29072.45
605.514	28904.52
605.71	29488.19
605.906	29166.66
606.102	29467.71
606.298	29559.87
606.494	29180.99
606.69	29508.67
606.886	29447.23
607.082	28965.96
607.278	29449.28
607.474	28613.71
607.67	29469.76
607.866	29078.6
608.062	29420.61
608.257	29310.02
608.453	29492.29
608.649	29529.15
608.845	29168.71
609.041	29426.75
609.236	29690.94
609.432	29729.85
609.628	29809.72
609.824	29504.57
610.019	29424.7
610.215	29815.87
610.411	30000.18
610.606	29504.57
610.802	29701.18
610.998	29791.29
611.193	30092.34
611.389	29504.57
611.584	29553.73
611.78	29885.5
611.976	29557.82
612.171	30133.3
612.367	29883.45
612.562	29662.27
612.758	29582.4
612.953	29613.12
613.149	29707.32
613.344	29508.67
613.539	30102.58
613.735	29883.45
613.93	30024.76
614.126	29740.09
614.321	29846.58
614.517	30286.9
614.712	30069.81
614.907	29590.59
615.103	30149.68
615.298	29762.62
615.493	30331.95
615.688	29799.48
615.884	30166.07
616.079	29443.13
616.274	30391.34
616.47	29885.5
616.665	29998.13
616.86	29641.79
617.055	30184.5
617.25	29746.23
617.445	29934.65
617.641	29348.93
617.836	29922.36
618.031	29365.31
618.226	29836.34
618.421	29654.08
618.616	29883.45
618.811	29406.27
619.006	29717.56
619.201	29088.84
619.396	29533.25
619.591	28992.58
619.786	29555.77
619.981	28953.67
620.176	29199.43
620.371	29131.84
620.566	29072.45
620.761	28329.04
620.956	28703.82
621.151	28415.05
621.346	28257.36
621.541	28120.15
621.735	28470.35
621.93	28073.04
622.125	28111.96
622.32	28083.28
622.515	27765.85
622.709	27653.21
622.904	27604.06
623.099	27223.14
623.294	27950.17
623.488	26971.24
623.683	27051.11
623.878	26811.49
624.072	27147.36
624.267	27020.39
624.462	26831.97
624.656	26938.47
624.851	26530.92
625.046	26303.6
625.24	26389.61
625.435	25812.09
625.629	26070.13
625.824	26254.45
626.018	25607.29
626.213	25406.59
626.407	26072.18
626.602	25386.11
626.796	25472.12
626.991	25349.25
627.185	25146.5
627.38	25087.11
627.574	24728.71
627.768	24913.03
627.963	24675.46
628.157	24358.03
628.352	24601.74
628.546	24001.68
628.74	24456.33
628.935	24052.88
629.129	23938.19
629.323	23497.88
629.517	23817.36
629.712	23764.12
629.906	23659.67
630.1	23424.15
630.294	23358.62
630.489	23215.26
630.683	23147.68
630.877	22832.29
631.071	23014.56
631.265	22670.5
631.459	22693.03
631.653	22910.11
631.848	22604.97
632.042	22365.35
632.236	22269.1
632.43	22172.85
632.624	22144.17
632.818	21791.92
633.012	21705.91
633.206	21564.6
633.4	21640.37
633.594	21601.46
633.788	21243.07
633.982	21411
634.176	21636.28
634.369	21060.8
634.563	21089.47
634.757	20784.32
634.951	20899.01
635.145	20421.83
635.339	20780.23
635.533	20329.67
635.726	20452.55
635.92	20006.09
636.114	20280.52
636.308	20059.34
636.501	20063.44
636.695	19858.64
636.889	19764.43
637.083	19762.39
637.276	19424.47
637.47	19432.66
637.664	19244.25
637.857	19682.52
638.051	19123.42
638.244	18785.51
638.438	19068.13
638.632	18822.37
638.825	18658.53
639.019	18535.65
639.212	18351.34
639.406	18433.25
639.599	18201.83
639.793	18320.62
639.986	18236.65
640.18	18283.75
640.373	18097.39
640.567	17759.47
640.76	17980.65
640.954	17714.42
641.147	17499.38
641.34	17536.24
641.534	17446.13
641.727	17347.83
641.92	17280.25
642.114	16801.02
642.307	16893.18
642.5	16899.33
642.694	16606.47
642.887	16504.07
643.08	16801.02
643.273	16682.24
643.467	16428.29
643.66	16045.32
643.853	16352.52
644.046	16016.65
644.239	15967.5
644.432	15844.62
644.626	15662.35
644.819	15445.27
645.012	15392.02
645.205	15564.05
645.398	15414.55
645.591	15252.76
645.784	15353.11
645.977	15148.31
646.17	15256.86
646.363	14996.76
646.556	14920.99
646.749	14777.63
646.942	14877.98
647.135	14671.14
647.328	14372.13
647.521	14339.37
647.714	14279.97
647.907	14296.36
648.099	14159.14
648.292	14441.76
648.485	14386.47
648.678	14007.59
648.871	13894.96
649.064	13874.48
649.256	13862.19
649.449	13823.28
649.642	13751.6
649.835	13600.05
650.027	13305.14
650.22	13493.55
650.413	13462.83
650.605	13436.21
650.798	13137.21
650.991	13038.91
651.183	13026.62
651.376	12866.88
651.568	12825.92
651.761	12787
651.954	12580.16
652.146	12653.89
652.339	12766.53
652.531	12647.74
652.724	12350.79
652.916	12019.02
653.109	12531.01
653.301	12105.03
653.494	12328.26
653.686	11906.38
653.879	12094.79
654.071	12043.59
654.263	11902.28
654.456	11947.34
654.648	11994.44
654.84	11830.6
655.033	11879.75
655.225	11797.84
655.417	11584.85
655.61	11625.81
655.802	11513.17
655.994	11130.2
656.186	11433.3
656.379	11429.2
656.571	11216.21
656.763	11193.69
656.955	11115.86
657.148	11035.99
657.34	10945.88
657.532	10925.4
657.724	11128.15
657.916	10796.38
658.108	10859.87
658.3	10866.01
658.492	10800.48
658.684	10562.91
658.876	10601.82
659.068	10646.88
659.26	10374.5
659.452	10366.31
659.644	10646.88
659.836	10159.46
660.028	10249.57
660.22	10067.3
660.412	10110.31
660.604	10026.34
660.796	10077.54
660.988	9876.84
661.18	9942.38
661.372	9602.41
661.563	9878.89
661.755	9588.08
661.947	9602.41
662.139	9586.03
662.331	9354.61
662.522	9446.77
662.714	9405.81
662.906	9536.88
663.097	9282.93
663.289	9256.31
663.481	9094.52
663.673	9143.67
663.864	8942.97
664.056	8910.2
664.247	8928.63
664.439	8940.92
664.631	9004.41
664.822	8926.58
665.014	8809.85
665.205	8719.74
665.397	8572.29
665.588	8924.54
665.78	8484.22
665.971	8686.97
666.163	8709.5
666.354	8551.81
666.546	8338.82
666.737	8445.31
666.929	8482.17
667.12	8093.06
667.311	8439.17
667.503	8217.99
667.694	8365.44
667.885	8195.46
668.077	8033.67
668.268	7906.7
668.459	8105.35
668.651	8070.53
668.842	7939.46
669.033	7685.51
669.224	7912.84
669.416	7857.54
669.607	7955.85
669.798	7816.58
669.989	7701.9
670.18	7808.39
670.371	7490.96
670.563	7521.68
670.754	7726.47
670.945	7509.39
671.136	7394.7
671.327	7513.49
671.518	7533.97
671.709	7556.49
671.9	7390.61
672.091	7486.86
672.282	7355.79
672.473	7345.55
672.664	7316.88
672.855	7206.29
673.046	7194
673.237	7349.65
673.428	7167.38
673.619	7026.07
673.809	7181.71
674	6981.01
674.191	7042.45
674.382	6952.34
674.573	6960.53
674.764	6991.25
674.954	6993.3
675.145	6770.07
675.336	6903.19
675.527	6989.21
675.717	6876.57
675.908	6768.02
676.099	6948.25
676.289	6862.23
676.48	6796.7
676.671	6761.88
676.861	6772.12
677.052	6763.93
677.243	6616.48
677.433	6563.23
677.624	6710.68
677.814	6575.52
678.005	6569.37
678.195	6743.45
678.386	6485.41
678.576	6538.65
678.767	6559.13
678.957	6374.81
679.148	6667.67
679.338	6458.78
679.529	6614.43
679.719	6415.77
679.909	6509.98
680.1	6573.47
680.29	6587.8
680.481	6383.01
680.671	6426.01
680.861	6444.45
681.052	6266.27
681.242	6428.06
681.432	6393.25
681.622	6215.07
681.813	6354.34
682.003	6292.9
682.193	6163.87
682.383	6307.23
682.573	6366.62
682.764	6305.18
682.954	6245.79
683.144	6315.42
683.334	6256.03
683.524	6172.07
683.714	6317.47
683.904	6077.86
684.094	6266.27
684.284	6208.93
684.474	6274.46
684.664	6198.69
684.854	6010.28
685.044	5942.69
685.234	5993.89
685.424	6047.14
685.614	5989.8
685.804	6043.04
685.994	6139.3
686.184	6041
686.374	5914.02
686.564	5834.15
686.753	5856.68
686.943	5680.55
687.133	5785
687.323	5854.63
687.513	5899.69
687.702	5830.06
687.892	5719.46
688.082	5737.9
688.272	5940.65
688.461	5793.19
688.651	5764.52
688.841	5670.31
689.03	5690.79
689.22	5760.42
689.41	5649.83
689.599	5770.66
689.789	5694.89
689.979	5617.07
690.168	5623.21
690.358	5557.68
690.547	5637.55
690.737	5572.01
690.926	5565.87
691.116	5514.67
691.305	5510.57
691.495	5391.79
691.684	5555.63
691.874	5326.25
692.063	5473.71
692.252	5340.59
692.442	5330.35
692.631	5266.86
692.82	5299.63
693.01	5295.54
693.199	5381.55
693.388	5326.25
693.578	5268.91
693.767	5334.45
693.956	5201.33
694.146	5121.46
694.335	5227.95
694.524	5060.02
694.713	5156.27
694.902	5154.23
695.092	5125.55
695.281	4990.39
695.47	5080.5
695.659	5041.59
695.848	5082.55
696.037	5090.74
696.226	4998.58
696.415	4935.09
696.604	4982.2
696.793	5080.5
696.982	4974
697.171	4980.15
697.36	5033.4
697.549	4857.27
697.738	4877.75
697.927	4748.73
698.116	4834.74
698.305	4861.37
698.494	4941.24
698.683	4754.87
698.872	4861.37
699.061	4810.17
699.25	4795.83
699.438	4758.97
699.627	4777.4
699.816	4810.17
700.005	4908.47
700.193	4697.53
700.382	4724.15
700.571	4691.38
700.76	4623.8
700.948	4787.64
701.137	4656.57
701.326	4666.81
701.514	4552.12
701.703	4615.61
701.892	4654.52
702.08	4621.75
702.269	4656.57
702.457	4445.63
702.646	4609.47
702.834	4312.51
703.023	4548.03
703.212	4533.69
703.4	4441.53
703.589	4392.38
703.777	4502.97
703.965	4482.49
704.154	4408.76
704.342	4312.51
704.531	4449.72
704.719	4230.59
704.907	4367.81
705.096	4183.49
705.284	4259.26
705.472	4388.29
705.661	4238.78
705.849	4306.37
706.037	4249.02
706.226	4214.21
706.414	4230.59
706.602	4218.3
706.79	4285.89
706.979	4150.72
707.167	4246.98
707.355	4212.16
707.543	4105.67
707.731	3999.17
707.919	4156.86
708.107	4017.6
708.296	3933.64
708.484	3990.98
708.672	4025.79
708.86	4154.82
709.048	4277.69
709.236	3986.88
709.424	4054.47
709.612	3915.2
709.8	3980.74
709.988	3878.34
710.176	3773.89
710.364	4081.09
710.551	3892.68
710.739	3950.02
710.927	4036.03
711.115	3821
711.303	3950.02
711.491	3868.1
711.679	3675.59
711.866	3696.07
712.054	3734.98
712.242	3739.08
712.43	3806.66
712.617	3802.57
712.805	3796.42
712.993	3659.21
713.181	3681.74
713.368	3653.06
713.556	3765.7
713.744	3722.7
713.931	3835.33
714.119	3771.85
714.306	3743.17
714.494	3562.95
714.682	3720.65
714.869	3642.82
715.057	3524.04
715.244	3524.04
715.432	3626.44
715.619	3648.97
715.807	3540.43
715.994	3515.85
716.182	3395.02
716.369	3501.51
716.556	3499.47
716.744	3470.8
716.931	3399.12
717.119	3503.56
717.306	3497.42
717.493	3368.4
717.681	3421.64
717.868	3345.87
718.055	3370.44
718.242	3380.68
718.43	3462.6
718.617	3556.81
718.804	3401.16
718.991	3278.29
719.179	3491.27
719.366	3399.12
719.553	3327.44
719.74	3231.18
719.927	3282.38
720.114	3100.11
720.301	3225.04
720.488	3243.47
720.676	3196.37
720.863	3235.28
721.05	3257.81
721.237	3294.67
721.424	3253.71
721.611	3124.69
721.798	3282.38
721.985	3075.54
722.172	3143.12
722.358	3249.61
722.545	3214.8
722.732	3102.16
722.919	3159.5
723.106	2975.19
723.293	3120.59
723.48	3114.45
723.667	2975.19
723.853	3020.24
724.04	3046.87
724.227	3106.26
724.414	3091.92
724.6	3034.58
724.787	3069.39
724.974	3063.25
725.161	2995.67
725.347	2952.66
725.534	2991.57
725.72	3010
725.907	2926.04
726.094	3044.82
726.28	3020.24
726.467	3024.34
726.653	2985.43
726.84	3063.25
727.027	3079.63
727.213	2917.84
727.4	2829.78
727.586	2905.56
727.773	2919.89
727.959	2854.36
728.145	2889.17
728.332	2745.81
728.518	2733.53
728.705	2770.39
728.891	2948.56
729.077	2774.49
729.264	2739.67
729.45	2827.73
729.636	2868.69
729.823	2811.35
730.009	2799.06
730.195	2852.31
730.382	2774.49
730.568	2786.77
730.754	2852.31
730.94	2667.99
731.126	2614.74
731.313	2749.91
731.499	2682.33
731.685	2850.26
731.871	2713.05
732.057	2788.82
732.243	2706.9
732.429	2651.61
732.615	2729.43
732.801	2653.66
732.987	2663.9
733.173	2508.25
733.359	2645.46
733.545	2581.98
733.731	2557.4
733.917	2653.66
734.103	2704.85
734.289	2610.65
734.475	2524.63
734.661	2631.13
734.847	2561.5
735.033	2604.5
735.219	2569.69
735.404	2565.59
735.59	2483.67
735.776	2586.07
735.962	2489.82
736.148	2545.11
736.333	2428.38
736.519	2477.53
736.705	2469.34
736.89	2633.18
737.076	2532.83
737.262	2493.91
737.447	2387.42
737.633	2584.02
737.819	2551.26
738.004	2360.8
738.19	2336.22
738.375	2264.54
738.561	2334.17
738.747	2414.04
738.932	2319.84
739.118	2428.38
739.303	2368.99
739.489	2309.6
739.674	2250.21
739.859	2483.67
740.045	2321.88
740.23	2311.64
740.416	2313.69
740.601	2221.53
740.786	2289.12
740.972	2225.63
741.157	2246.11
741.342	2213.34
741.528	2242.01
741.713	2295.26
741.898	2213.34
742.084	2192.86
742.269	2205.15
742.454	2270.69
742.639	2244.06
742.824	2207.2
743.01	2100.7
743.195	2237.92
743.38	2196.96
743.565	2090.46
743.75	2076.13
743.935	2172.38
744.12	2237.92
744.305	1934.82
744.49	2153.95
744.675	2151.9
744.86	2123.23
745.045	2102.75
745.23	1969.63
745.415	1981.92
745.6	2158.05
745.785	2088.42
745.97	2004.45
746.155	1934.82
746.34	2010.59
746.525	1910.24
746.71	2074.08
746.895	1811.94
747.079	1904.1
747.264	1943.01
747.449	1953.25
747.634	1955.3
747.819	1912.29
748.003	1893.86
748.188	1828.32
748.373	1861.09
748.557	1828.32
748.742	1865.19
748.927	1750.5
749.111	1781.22
749.296	1773.03
749.481	1820.13
749.665	1740.26
749.85	1822.18
750.034	1871.33
750.219	1758.69
750.404	1721.83
750.588	1725.93
750.773	1758.69
750.957	1705.45
751.141	1701.35
751.326	1658.34
751.51	1574.38
751.695	1537.51
751.879	1619.43
752.064	1644.01
752.248	1537.51
752.432	1680.87
752.617	1615.34
752.801	1533.42
752.985	1574.38
753.17	1500.65
753.354	1562.09
753.538	1541.61
753.722	1535.46
753.907	1443.31
754.091	1476.07
754.275	1504.75
754.459	1496.55
754.643	1394.15
754.828	1498.6
755.012	1418.73
755.196	1449.45
755.38	1486.31
755.564	1297.9
755.748	1394.15
755.932	1451.5
756.116	1402.35
756.3	1459.69
756.484	1371.63
756.668	1385.96
756.852	1248.75
757.036	1412.59
757.22	1254.89
757.404	1271.28
757.588	1336.81
757.772	1248.75
757.956	1314.28
758.14	1299.95
758.323	1316.33
758.507	1269.23
758.691	1172.97
758.875	1289.71
759.059	1304.04
759.242	1345
759.426	1258.99
759.61	1285.61
759.794	1224.17
759.977	1175.02
760.161	1238.51
760.345	1201.65
760.528	1222.13
760.712	1152.49
760.895	1150.45
761.079	1156.59
761.263	1086.96
761.446	1140.21
761.63	1068.53
761.813	1084.91
761.997	1078.77
762.18	1168.88
762.364	1033.71
762.547	1050.1
762.731	1029.62
762.914	1181.17
763.098	988.66
763.281	1142.25
763.464	1019.38
763.648	947.7
763.831	1089.01
764.015	1105.39
764.198	1064.43
764.381	1046
764.564	1095.15
764.748	1050.1
764.931	1013.23
765.114	1076.72
765.297	1150.45
765.481	1027.57
765.664	994.8
765.847	947.7
766.03	1156.59
766.213	943.6
766.397	984.56
766.58	955.89
766.763	968.18
766.946	1025.52
767.129	998.9
767.312	919.03
767.495	1011.18
767.678	888.31
767.861	1002.99
768.044	986.61
768.227	1068.53
768.41	910.83
768.593	853.49
768.776	931.31
768.959	945.65
769.142	947.7
769.324	919.03
769.507	898.55
769.69	941.55
769.873	898.55
770.056	1013.23
770.239	888.31
770.421	959.99
770.604	853.49
770.787	1029.62
770.97	929.27
771.152	863.73
771.335	857.59
771.518	828.92
771.7	939.51
771.883	882.16
772.066	914.93
772.248	902.64
772.431	937.46
772.613	886.26
772.796	808.44
772.978	837.11
773.161	814.58
773.343	816.63
773.526	830.96
773.708	894.45
773.891	703.99
774.073	751.09
774.256	830.96
774.438	785.91
774.621	740.85
774.803	804.34
774.985	749.04
775.168	779.76
775.35	861.68
775.532	617.97
775.715	734.71
775.897	785.91
776.079	787.96
776.261	740.85
776.444	736.76
776.626	689.65
776.808	722.42
776.99	742.9
777.173	767.48
777.355	755.19
777.537	767.48
777.719	749.04
777.901	839.16
778.083	699.89
778.265	622.07
778.447	714.23
778.629	685.56
778.811	691.7
778.993	640.5
779.175	701.94
779.357	673.27
779.539	656.89
779.721	566.78
779.903	673.27
780.085	617.97
780.267	691.7
780.449	622.07
780.631	585.21
780.812	656.89
780.994	646.65
781.176	607.73
781.358	562.68
781.54	591.35
781.721	642.55
781.903	679.41
782.085	587.26
782.267	634.36
782.448	478.71
782.63	552.44
782.812	519.67
782.993	607.73
783.175	615.93
783.357	548.34
783.538	542.2
783.72	476.66
783.901	517.62
784.083	558.58
784.264	486.9
784.446	495.1
784.627	474.62
784.809	517.62
784.99	550.39
785.172	511.48
785.353	511.48
785.535	493.05
785.716	445.95
785.897	435.71
786.079	501.24
786.26	470.52
786.441	538.1
786.623	478.71
786.804	443.9
786.985	542.2
787.167	349.69
787.348	493.05
787.529	495.1
787.71	593.4
787.891	435.71
788.073	388.6
788.254	454.14
788.435	427.51
788.616	382.46
788.797	439.8
788.978	370.17
789.159	427.51
789.34	470.52
789.522	402.94
789.703	370.17
789.884	456.19
790.065	439.8
790.246	456.19
790.427	380.41
790.607	437.75
790.788	435.71
790.969	390.65
791.15	411.13
791.331	341.5
791.512	370.17
791.693	359.93
791.874	384.51
792.054	437.75
792.235	347.64
792.416	361.98
792.597	265.72
792.778	372.22
792.958	394.75
793.139	314.88
793.32	361.98
793.5	341.5
793.681	419.32
793.862	376.31
794.042	329.21
794.223	267.77
794.404	419.32
794.584	347.64
794.765	372.22
794.945	296.44
795.126	296.44
795.306	335.35
795.487	296.44
795.667	292.35
795.848	312.83
796.028	275.96
796.209	361.98
796.389	290.3
796.57	341.5
796.75	251.39
796.93	263.68
797.111	290.3
797.291	314.88
797.471	308.73
797.652	251.39
797.832	321.02
798.012	312.83
798.192	255.48
798.373	189.95
798.553	370.17
798.733	226.81
798.913	263.68
799.093	273.92
799.274	261.63
799.454	304.64
799.634	255.48
799.814	296.44
799.994	337.4
800.174	337.4
800.354	235
800.534	280.06
800.714	302.59
800.894	241.15
801.074	161.28
801.254	263.68
801.434	331.26
801.614	251.39
801.794	255.48
801.974	955.89
802.154	216.57
802.334	290.3
802.514	183.81
802.693	222.72
802.873	173.57
803.053	232.96
803.233	241.15
803.413	216.57
803.592	247.29
803.772	198.14
803.952	165.37
804.131	278.01
804.311	206.33
804.491	267.77
804.67	265.72
804.85	230.91
805.03	206.33
805.209	216.57
805.389	198.14
805.568	189.95
805.748	173.57
805.928	183.81
806.107	216.57
806.287	259.58
806.466	192
806.646	206.33
806.825	222.72
807.004	222.72
807.184	255.48
807.363	232.96
807.543	222.72
807.722	132.61
807.901	183.81
808.081	173.57
808.26	136.7
808.439	243.2
808.619	208.38
808.798	192
808.977	185.85
809.156	204.28
809.336	159.23
809.515	222.72
809.694	140.8
809.873	200.19
810.052	245.24
810.231	183.81
810.411	187.9
810.59	257.53
810.769	140.8
810.948	206.33
811.127	87.55
811.306	249.34
811.485	214.52
811.664	206.33
811.843	124.41
812.022	124.41
812.201	134.65
812.38	175.61
812.559	75.26
812.737	220.67
812.916	77.31
813.095	87.55
813.274	216.57
813.453	142.85
813.632	142.85
813.811	202.24
813.989	89.6
814.168	198.14
814.347	232.96
814.526	157.18
814.704	165.37
814.883	232.96
815.062	128.51
815.24	224.76
815.419	163.33
815.598	148.99
815.776	151.04
815.955	62.98
816.133	93.69
816.312	173.57
816.49	101.89
816.669	239.1
816.847	112.13
817.026	161.28
817.204	183.81
817.383	251.39
817.561	114.17
817.74	75.26
817.918	165.37
818.097	167.42
818.275	210.43
818.453	206.33
818.632	214.52
818.81	118.27
818.988	128.51
819.167	157.18
819.345	128.51
819.523	116.22
819.701	155.13
819.879	169.47
820.058	9.73
820.236	87.55
820.414	108.03
820.592	200.19
820.77	62.98
820.948	75.26
821.127	50.69
821.305	148.99
821.483	101.89
821.661	175.61
821.839	132.61
822.017	124.41
822.195	124.41
822.373	124.41
822.551	126.46
822.729	144.89
822.907	75.26
823.085	83.45
823.262	116.22
823.44	120.32
823.618	50.69
823.796	169.47
823.974	75.26
824.152	124.41
824.329	95.74
824.507	157.18
824.685	142.85
824.863	159.23
825.04	58.88
825.218	187.9
825.396	50.69
825.574	128.51
825.751	42.5
825.929	192
826.107	95.74
826.284	126.46
826.462	142.85
826.639	67.07
826.817	110.08
826.994	75.26
827.172	42.5
827.349	144.89
827.527	52.74
827.704	83.45
827.882	30.21
828.059	79.36
828.237	73.21
828.414	130.56
828.591	128.51
828.769	91.65
828.946	91.65
829.124	118.27
829.301	54.78
829.478	75.26
829.655	69.12
829.833	32.26
830.01	73.21
830.187	103.93
830.364	34.3
830.542	50.69
830.719	202.24
830.896	87.55
831.073	30.21
831.25	75.26
831.427	118.27
831.604	52.74
831.782	69.12
831.959	183.81
832.136	-4.61
832.313	89.6
832.49	99.84
832.667	5.63
832.844	91.65
833.021	140.8
833.198	110.08
833.374	34.3
833.551	42.5
833.728	28.16
833.905	65.02
834.082	30.21
834.259	71.17
834.436	134.65
834.612	44.54
834.789	73.21
834.966	97.79
835.143	75.26
835.319	1.54
835.496	62.98
835.673	140.8
835.85	126.46
836.026	144.89
836.203	50.69
836.38	79.36
836.556	101.89
836.733	77.31
836.909	148.99
837.086	58.88
837.262	48.64
837.439	5.63
837.616	89.6
837.792	44.54
837.968	93.69
838.145	93.69
838.321	19.97
838.498	83.45
838.674	83.45
838.851	140.8
839.027	26.11
839.203	56.83
839.38	52.74
839.556	46.59
839.732	132.61
839.909	13.82
840.085	42.5
840.261	-2.56
840.437	112.13
840.614	19.97
840.79	58.88
840.966	65.02
841.142	75.26
841.318	42.5
841.494	140.8
841.671	65.02
841.847	110.08
842.023	75.26
842.199	40.45
842.375	91.65
842.551	32.26
842.727	13.82
842.903	46.59
843.079	52.74
843.255	58.88
843.431	1.54
843.607	122.37
843.783	-74.24
843.959	130.56
844.134	-4.61
844.31	140.8
844.486	36.35
844.662	67.07
844.838	-6.66
845.013	87.55
845.189	103.93
845.365	91.65
845.541	67.07
845.716	9.73
845.892	83.45
846.068	58.88
846.244	3.58
846.419	17.92
846.595	77.31
846.77	3.58
846.946	124.41
847.122	-18.94
847.297	46.59
847.473	95.74
847.648	46.59
847.824	116.22
847.999	-20.99
848.175	-27.14
848.35	44.54
848.526	99.84
848.701	99.84
848.876	97.79
849.052	46.59
849.227	52.74
849.403	30.21
849.578	9.73
849.753	89.6
849.929	58.88
850.104	13.82
850.279	28.16
850.454	58.88
850.63	91.65
850.805	26.11
850.98	99.84
851.155	60.93
851.33	75.26
851.505	-6.66
851.681	38.4
851.856	52.74
852.031	118.27
852.206	-14.85
852.381	7.68
852.556	34.3
852.731	-18.94
852.906	54.78
853.081	26.11
853.256	62.98
853.431	65.02
853.606	15.87
853.781	52.74
853.956	26.11
854.131	19.97
854.305	75.26
854.48	67.07
854.655	-10.75
854.83	28.16
855.005	9.73
855.18	13.82
855.354	26.11
855.529	17.92
855.704	-0.51
855.879	95.74
856.053	1.54
856.228	116.22
856.403	-55.81
856.577	13.82
856.752	34.3
856.926	26.11
857.101	36.35
857.276	34.3
857.45	11.78
857.625	34.3
857.799	28.16
857.974	11.78
858.148	-0.51
858.323	54.78
858.497	28.16
858.672	30.21
858.846	17.92
859.02	79.36
859.195	-104.96
859.369	46.59
859.543	52.74
859.718	34.3
859.892	28.16
860.066	-12.8
860.241	-20.99
860.415	60.93
860.589	-10.75
860.763	60.93
860.938	-12.8
861.112	54.78
861.286	-27.14
861.46	-14.85
861.634	40.45
861.808	83.45
861.982	1.54
862.157	-33.28
862.331	-12.8
862.505	-23.04
862.679	-82.43
862.853	52.74
863.027	83.45
863.201	87.55
863.375	54.78
863.549	9.73
863.722	7.68
863.896	60.93
864.07	-14.85
864.244	-18.94
864.418	44.54
864.592	-64
864.766	108.03
864.939	67.07
865.113	1.54
865.287	19.97
865.461	-47.62
865.634	50.69
865.808	-88.57
865.982	-4.61
866.156	-12.8
866.329	-96.77
866.503	-29.18
866.676	60.93
866.85	42.5
867.024	30.21
867.197	79.36
867.371	42.5
867.544	44.54
867.718	-47.62
867.891	36.35
868.065	1.54
868.238	46.59
868.412	9.73
868.585	48.64
868.759	28.16
868.932	9.73
869.105	-16.9
869.279	40.45
869.452	54.78
869.625	15.87
869.799	-55.81
869.972	13.82
870.145	-12.8
870.319	26.11
870.492	11.78
870.665	42.5
870.838	34.3
871.011	-6.66
871.185	19.97
871.358	-18.94
871.531	36.35
871.704	-29.18
871.877	-6.66
872.05	1.54
872.223	17.92
872.396	-6.66
872.569	-31.23
872.742	52.74
872.915	9.73
873.088	-59.9
873.261	-0.51
873.434	38.4
873.607	101.89
873.78	22.02
873.953	-12.8
874.126	-55.81
874.299	34.3
874.471	-39.42
874.644	-14.85
874.817	15.87
874.99	138.75
875.163	-4.61
875.335	-23.04
875.508	-6.66
875.681	36.35
875.853	50.69
876.026	-72.19
876.199	-4.61
876.371	11.78
876.544	-16.9
876.717	50.69
876.889	-16.9
877.062	67.07
877.234	-55.81
877.407	44.54
877.579	1.54
877.752	30.21
877.924	-23.04
878.097	60.93
878.269	5.63
878.442	-4.61
878.614	65.02
878.786	-33.28
878.959	91.65
879.131	36.35
879.303	-2.56
879.476	54.78
879.648	-6.66
879.82	19.97
879.993	1.54
880.165	13.82
880.337	-6.66
880.509	42.5
880.681	-45.57
880.854	3.58
881.026	42.5
881.198	1.54
881.37	-68.09
881.542	40.45
881.714	13.82
881.886	-6.66
882.058	83.45
882.23	22.02
882.402	26.11
882.574	36.35
882.746	22.02
882.918	42.5
883.09	58.88
883.262	-6.66
883.434	42.5
883.606	-51.71
883.778	52.74
883.95	50.69
884.122	-35.33
884.293	-41.47
884.465	34.3
884.637	71.17
884.809	-35.33
884.98	-23.04
885.152	32.26
885.324	60.93
885.496	-68.09
885.667	-29.18
885.839	24.06
886.011	9.73
886.182	-31.23
886.354	65.02
886.525	-2.56
886.697	-45.57
886.869	-29.18
887.04	-39.42
887.212	-6.66
887.383	83.45
887.555	26.11
887.726	-35.33
887.897	-31.23
888.069	1.54
888.24	-20.99
888.412	-55.81
888.583	-100.86
888.754	-23.04
888.926	-64
889.097	-12.8
889.268	-100.86
889.44	-72.19
889.611	44.54
889.782	22.02
889.953	-51.71
890.125	58.88
890.296	-102.91
890.467	44.54
890.638	-6.66
890.809	1.54
890.98	17.92
891.151	34.3
891.323	67.07
891.494	-47.62
891.665	-16.9
891.836	15.87
892.007	-31.23
892.178	42.5
892.349	-88.57
892.52	60.93
892.691	1.54
892.862	-10.75
893.032	-23.04
893.203	11.78
893.374	36.35
893.545	24.06
893.716	-8.7
893.887	9.73
894.057	-8.7
894.228	-25.09
894.399	11.78
894.57	11.78
894.74	-35.33
894.911	62.98
895.082	-27.14
895.253	-59.9
895.423	-25.09
895.594	34.3
895.764	-4.61
895.935	-10.75
896.106	30.21
896.276	-14.85
896.447	40.45
896.617	-31.23
896.788	17.92
896.958	-4.61
897.129	7.68
897.299	-66.05
897.47	42.5
897.64	1.54
897.81	26.11
897.981	-31.23
898.151	-4.61
898.322	30.21
898.492	50.69
898.662	-51.71
898.832	52.74
899.003	-78.33
899.173	34.3
899.343	-41.47
899.513	-111.1
