Data from USB4F104151__187__14-32-57-906.txt Node

Date: Thu Mar 13 14:32:57 EDT 2025
User: louis
Spectrometer: USB4F10415
Trigger mode: 4
Integration Time (sec): 2.500000E-2
Scans to average: 1
Electric dark correction enabled: true
Nonlinearity correction enabled: false
Boxcar width: 0
XAxis mode: Wavelengths
Number of Pixels in Spectrum: 3648
>>>>>Begin Spectral Data<<<<<
178.204	-112.81
178.424	-112.81
178.644	-112.81
178.864	-161.96
179.084	-168.1
179.304	34.64
179.524	26.45
179.744	-28.84
179.964	-6.31
180.184	-67.75
180.404	67.41
180.624	-22.7
180.844	-39.08
181.064	-94.38
181.283	-28.84
181.503	67.41
181.723	91.99
181.943	-69.8
182.163	51.03
182.383	-14.51
182.602	79.7
182.822	18.26
183.042	51.03
183.262	22.36
183.482	-24.75
183.701	85.84
183.921	-4.27
184.141	38.74
184.361	55.12
184.58	59.22
184.8	30.55
185.02	18.26
185.239	46.93
185.459	-37.03
185.679	-49.32
185.898	-30.89
186.118	59.22
186.338	-12.46
186.557	94.04
186.777	-14.51
186.997	-67.75
187.216	8.02
187.436	65.36
187.655	63.32
187.875	77.65
188.095	-14.51
188.314	108.37
188.534	40.79
188.753	61.27
188.973	34.64
189.192	83.8
189.412	22.36
189.631	51.03
189.851	75.6
190.07	63.32
190.29	-26.79
190.509	69.46
190.729	-39.08
190.948	83.8
191.168	83.8
191.387	10.07
191.607	94.04
191.826	102.23
192.045	91.99
192.265	26.45
192.484	48.98
192.704	12.12
192.923	-28.84
193.142	75.6
193.362	51.03
193.581	100.18
193.8	42.84
194.02	42.84
194.239	36.69
194.458	18.26
194.678	-45.23
194.897	59.22
195.116	32.6
195.335	1.88
195.555	24.4
195.774	20.31
195.993	46.93
196.212	116.56
196.432	1.88
196.651	-20.65
196.87	-14.51
197.089	132.95
197.308	3.93
197.528	85.84
197.747	8.02
197.966	10.07
198.185	51.03
198.404	51.03
198.623	91.99
198.842	38.74
199.062	110.42
199.281	149.33
199.5	65.36
199.719	63.32
199.938	73.56
200.157	22.36
200.376	-6.31
200.595	57.17
200.814	18.26
201.033	10.07
201.252	51.03
201.471	18.26
201.69	83.8
201.909	120.66
202.128	65.36
202.347	26.45
202.566	59.22
202.785	-18.6
203.004	-39.08
203.223	132.95
203.442	-6.31
203.661	-10.41
203.879	67.41
204.098	94.04
204.317	20.31
204.536	53.08
204.755	-41.13
204.974	118.61
205.193	77.65
205.411	91.99
205.63	75.6
205.849	118.61
206.068	24.4
206.287	-0.17
206.505	73.56
206.724	46.93
206.943	-34.99
207.162	1.88
207.381	36.69
207.599	3.93
207.818	108.37
208.037	-4.27
208.255	24.4
208.474	75.6
208.693	75.6
208.911	28.5
209.13	-14.51
209.349	44.88
209.567	-2.22
209.786	42.84
210.005	42.84
210.223	46.93
210.442	-8.36
210.661	51.03
210.879	100.18
211.098	83.8
211.316	34.64
211.535	14.17
211.753	-41.13
211.972	-2.22
212.191	10.07
212.409	-30.89
212.628	46.93
212.846	36.69
213.065	-0.17
213.283	91.99
213.502	42.84
213.72	1.88
213.938	26.45
214.157	34.64
214.375	67.41
214.594	51.03
214.812	65.36
215.031	10.07
215.249	18.26
215.467	116.56
215.686	14.17
215.904	184.15
216.122	71.51
216.341	83.8
216.559	-14.51
216.778	5.97
216.996	18.26
217.214	14.17
217.432	-30.89
217.651	42.84
217.869	34.64
218.087	44.88
218.306	36.69
218.524	40.79
218.742	-24.75
218.96	61.27
219.179	59.22
219.397	10.07
219.615	44.88
219.833	22.36
220.051	14.17
220.27	104.28
220.488	59.22
220.706	94.04
220.924	85.84
221.142	42.84
221.36	-10.41
221.578	18.26
221.796	14.17
222.015	71.51
222.233	12.12
222.451	147.28
222.669	-10.41
222.887	75.6
223.105	1.88
223.323	34.64
223.541	14.17
223.759	44.88
223.977	3.93
224.195	-2.22
224.413	59.22
224.631	110.42
224.849	22.36
225.067	34.64
225.285	-53.42
225.503	26.45
225.721	-34.99
225.939	24.4
226.157	53.08
226.375	157.52
226.592	20.31
226.81	-6.31
227.028	69.46
227.246	98.13
227.464	-22.7
227.682	24.4
227.9	69.46
228.117	89.94
228.335	91.99
228.553	10.07
228.771	51.03
228.989	12.12
229.206	18.26
229.424	-2.22
229.642	24.4
229.86	12.12
230.077	71.51
230.295	32.6
230.513	34.64
230.731	42.84
230.948	96.08
231.166	69.46
231.384	-14.51
231.601	-22.7
231.819	34.64
232.037	94.04
232.254	36.69
232.472	38.74
232.689	-18.6
232.907	10.07
233.125	-30.89
233.342	-6.31
233.56	5.97
233.777	51.03
233.995	38.74
234.213	75.6
234.43	75.6
234.648	51.03
234.865	22.36
235.083	46.93
235.3	5.97
235.518	59.22
235.735	75.6
235.953	22.36
236.17	135
236.388	42.84
236.605	53.08
236.822	87.89
237.04	1.88
237.257	94.04
237.475	10.07
237.692	18.26
237.909	32.6
238.127	30.55
238.344	34.64
238.562	106.32
238.779	22.36
238.996	-104.62
239.214	-10.41
239.431	26.45
239.648	63.32
239.865	59.22
240.083	89.94
240.3	87.89
240.517	22.36
240.735	28.5
240.952	126.8
241.169	67.41
241.386	18.26
241.603	-63.66
241.821	67.41
242.038	28.5
242.255	79.7
242.472	-37.03
242.689	94.04
242.907	55.12
243.124	-28.84
243.341	36.69
243.558	12.12
243.775	-0.17
243.992	-47.27
244.209	59.22
244.426	44.88
244.643	85.84
244.86	-20.65
245.078	71.51
245.295	53.08
245.512	18.26
245.729	-14.51
245.946	44.88
246.163	10.07
246.38	34.64
246.597	30.55
246.814	61.27
247.031	-0.17
247.248	-34.99
247.464	3.93
247.681	26.45
247.898	-18.6
248.115	34.64
248.332	40.79
248.549	100.18
248.766	53.08
248.983	53.08
249.2	22.36
249.417	-4.27
249.633	87.89
249.85	67.41
250.067	85.84
250.284	32.6
250.501	77.65
250.717	26.45
250.934	20.31
251.151	77.65
251.368	48.98
251.585	42.84
251.801	59.22
252.018	-65.71
252.235	18.26
252.451	1.88
252.668	61.27
252.885	42.84
253.102	67.41
253.318	14.17
253.535	32.6
253.752	14.17
253.968	67.41
254.185	-61.61
254.401	-12.46
254.618	18.26
254.835	-12.46
255.051	116.56
255.268	16.21
255.484	-43.18
255.701	3.93
255.917	57.17
256.134	-22.7
256.351	-4.27
256.567	-114.86
256.784	14.17
257	-24.75
257.217	36.69
257.433	55.12
257.65	24.4
257.866	10.07
258.082	22.36
258.299	44.88
258.515	3.93
258.732	18.26
258.948	42.84
259.165	42.84
259.381	-67.75
259.597	51.03
259.814	14.17
260.03	16.21
260.246	20.31
260.463	61.27
260.679	83.8
260.895	18.26
261.112	42.84
261.328	110.42
261.544	34.64
261.761	83.8
261.977	-0.17
262.193	26.45
262.409	44.88
262.626	-43.18
262.842	38.74
263.058	-12.46
263.274	51.03
263.49	26.45
263.707	55.12
263.923	18.26
264.139	-2.22
264.355	96.08
264.571	77.65
264.787	10.07
265.004	-37.03
265.22	-8.36
265.436	12.12
265.652	-6.31
265.868	12.12
266.084	-4.27
266.3	3.93
266.516	28.5
266.732	18.26
266.948	10.07
267.164	26.45
267.38	61.27
267.596	-6.31
267.812	116.56
268.028	20.31
268.244	-39.08
268.46	96.08
268.676	42.84
268.892	14.17
269.108	18.26
269.324	-32.94
269.54	48.98
269.756	5.97
269.972	53.08
270.188	-4.27
270.403	-32.94
270.619	-96.43
270.835	34.64
271.051	61.27
271.267	-10.41
271.483	34.64
271.698	-39.08
271.914	-51.37
272.13	3.93
272.346	55.12
272.562	-43.18
272.777	36.69
272.993	-22.7
273.209	65.36
273.425	63.32
273.64	59.22
273.856	79.7
274.072	51.03
274.287	-14.51
274.503	83.8
274.719	53.08
274.934	-69.8
275.15	-18.6
275.366	120.66
275.581	10.07
275.797	12.12
276.012	53.08
276.228	-6.31
276.444	46.93
276.659	79.7
276.875	22.36
277.09	-53.42
277.306	-30.89
277.521	83.8
277.737	8.02
277.952	34.64
278.168	-43.18
278.383	-100.52
278.599	14.17
278.814	-30.89
279.03	28.5
279.245	46.93
279.461	34.64
279.676	-12.46
279.892	-10.41
280.107	3.93
280.322	18.26
280.538	18.26
280.753	-6.31
280.969	71.51
281.184	57.17
281.399	20.31
281.615	22.36
281.83	69.46
282.045	-12.46
282.26	22.36
282.476	-18.6
282.691	3.93
282.906	1.88
283.122	-6.31
283.337	-61.61
283.552	46.93
283.767	-34.99
283.983	20.31
284.198	12.12
284.413	22.36
284.628	5.97
284.843	42.84
285.058	40.79
285.274	-63.66
285.489	10.07
285.704	77.65
285.919	-39.08
286.134	-4.27
286.349	59.22
286.564	87.89
286.779	96.08
286.995	34.64
287.21	1.88
287.425	61.27
287.64	-59.56
287.855	116.56
288.07	-37.03
288.285	55.12
288.5	46.93
288.715	32.6
288.93	-2.22
289.145	75.6
289.36	59.22
289.575	18.26
289.79	55.12
290.004	73.56
290.219	87.89
290.434	-47.27
290.649	28.5
290.864	-2.22
291.079	100.18
291.294	128.85
291.509	26.45
291.724	96.08
291.938	-6.31
292.153	110.42
292.368	-14.51
292.583	12.12
292.798	48.98
293.012	69.46
293.227	46.93
293.442	14.17
293.657	1.88
293.871	67.41
294.086	112.47
294.301	14.17
294.516	83.8
294.73	20.31
294.945	-4.27
295.16	18.26
295.374	44.88
295.589	81.75
295.804	51.03
296.018	48.98
296.233	-39.08
296.447	-12.46
296.662	40.79
296.877	12.12
297.091	77.65
297.306	51.03
297.52	1.88
297.735	51.03
297.949	65.36
298.164	67.41
298.378	14.17
298.593	-47.27
298.807	-45.23
299.022	61.27
299.236	67.41
299.451	20.31
299.665	77.65
299.88	51.03
300.094	59.22
300.309	59.22
300.523	63.32
300.737	-28.84
300.952	44.88
301.166	-18.6
301.381	32.6
301.595	-39.08
301.809	51.03
302.024	108.37
302.238	10.07
302.452	67.41
302.667	28.5
302.881	26.45
303.095	22.36
303.309	51.03
303.524	16.21
303.738	3.93
303.952	57.17
304.166	51.03
304.381	-6.31
304.595	34.64
304.809	51.03
305.023	30.55
305.237	18.26
305.452	30.55
305.666	81.75
305.88	20.31
306.094	44.88
306.308	-14.51
306.522	132.95
306.736	18.26
306.95	61.27
307.164	40.79
307.379	67.41
307.593	118.61
307.807	89.94
308.021	61.27
308.235	137.04
308.449	44.88
308.663	51.03
308.877	51.03
309.091	51.03
309.305	81.75
309.519	44.88
309.733	171.86
309.947	1.88
310.161	36.69
310.374	42.84
310.588	67.41
310.802	42.84
311.016	38.74
311.23	1.88
311.444	26.45
311.658	87.89
311.872	126.8
312.085	42.84
312.299	-55.47
312.513	34.64
312.727	44.88
312.941	10.07
313.154	-55.47
313.368	46.93
313.582	59.22
313.796	28.5
314.009	44.88
314.223	20.31
314.437	-18.6
314.651	55.12
314.864	18.26
315.078	14.17
315.292	28.5
315.505	59.22
315.719	69.46
315.933	44.88
316.146	51.03
316.36	71.51
316.573	100.18
316.787	69.46
317.001	42.84
317.214	44.88
317.428	30.55
317.641	42.84
317.855	63.32
318.068	-30.89
318.282	3.93
318.495	141.14
318.709	14.17
318.922	110.42
319.136	53.08
319.349	102.23
319.563	28.5
319.776	67.41
319.99	-30.89
320.203	71.51
320.417	42.84
320.63	22.36
320.843	55.12
321.057	44.88
321.27	77.65
321.483	112.47
321.697	65.36
321.91	-12.46
322.124	22.36
322.337	65.36
322.55	63.32
322.763	26.45
322.977	10.07
323.19	-6.31
323.403	73.56
323.617	55.12
323.83	112.47
324.043	5.97
324.256	22.36
324.469	-6.31
324.683	116.56
324.896	24.4
325.109	53.08
325.322	46.93
325.535	42.84
325.748	91.99
325.962	42.84
326.175	79.7
326.388	5.97
326.601	42.84
326.814	42.84
327.027	28.5
327.24	42.84
327.453	12.12
327.666	10.07
327.879	67.41
328.092	110.42
328.305	91.99
328.518	22.36
328.731	30.55
328.944	67.41
329.157	22.36
329.37	14.17
329.583	83.8
329.796	71.51
330.009	-20.65
330.222	67.41
330.435	59.22
330.648	116.56
330.861	28.5
331.073	42.84
331.286	42.84
331.499	30.55
331.712	116.56
331.925	10.07
332.138	10.07
332.35	18.26
332.563	69.46
332.776	75.6
332.989	14.17
333.202	22.36
333.414	100.18
333.627	26.45
333.84	14.17
334.053	18.26
334.265	46.93
334.478	22.36
334.691	71.51
334.903	108.37
335.116	-30.89
335.329	-2.22
335.541	120.66
335.754	100.18
335.966	14.17
336.179	61.27
336.392	65.36
336.604	-10.41
336.817	30.55
337.029	63.32
337.242	-18.6
337.454	83.8
337.667	73.56
337.88	128.85
338.092	-10.41
338.305	75.6
338.517	18.26
338.729	22.36
338.942	145.24
339.154	10.07
339.367	8.02
339.579	102.23
339.792	10.07
340.004	89.94
340.217	22.36
340.429	55.12
340.641	-0.17
340.854	34.64
341.066	108.37
341.278	108.37
341.491	85.84
341.703	51.03
341.915	38.74
342.128	53.08
342.34	-4.27
342.552	59.22
342.764	-30.89
342.977	42.84
343.189	44.88
343.401	69.46
343.613	-6.31
343.826	61.27
344.038	-41.13
344.25	112.47
344.462	-14.51
344.674	53.08
344.886	-45.23
345.099	73.56
345.311	77.65
345.523	22.36
345.735	1.88
345.947	30.55
346.159	26.45
346.371	5.97
346.583	20.31
346.795	89.94
347.007	-59.56
347.219	128.85
347.431	71.51
347.643	65.36
347.855	75.6
348.067	102.23
348.279	53.08
348.491	12.12
348.703	63.32
348.915	51.03
349.127	57.17
349.339	110.42
349.551	-2.22
349.763	67.41
349.975	12.12
350.187	94.04
350.399	46.93
350.61	40.79
350.822	61.27
351.034	30.55
351.246	83.8
351.458	51.03
351.669	-8.36
351.881	77.65
352.093	104.28
352.305	63.32
352.517	63.32
352.728	-6.31
352.94	75.6
353.152	61.27
353.363	-80.04
353.575	12.12
353.787	190.29
353.999	85.84
354.21	122.71
354.422	53.08
354.633	14.17
354.845	-20.65
355.057	57.17
355.268	22.36
355.48	61.27
355.692	42.84
355.903	34.64
356.115	-26.79
356.326	-10.41
356.538	102.23
356.749	46.93
356.961	94.04
357.172	63.32
357.384	10.07
357.595	51.03
357.807	104.28
358.018	8.02
358.23	-2.22
358.441	85.84
358.653	42.84
358.864	-43.18
359.075	91.99
359.287	46.93
359.498	124.76
359.709	63.32
359.921	100.18
360.132	-6.31
360.344	26.45
360.555	53.08
360.766	42.84
360.977	-10.41
361.189	18.26
361.4	12.12
361.611	51.03
361.823	34.64
362.034	59.22
362.245	8.02
362.456	20.31
362.667	-14.51
362.879	81.75
363.09	79.7
363.301	65.36
363.512	34.64
363.723	12.12
363.935	-43.18
364.146	98.13
364.357	-22.7
364.568	73.56
364.779	42.84
364.99	26.45
365.201	112.47
365.412	141.14
365.623	3.93
365.834	61.27
366.045	102.23
366.256	126.8
366.467	16.21
366.678	61.27
366.889	34.64
367.1	-10.41
367.311	94.04
367.522	63.32
367.733	26.45
367.944	96.08
368.155	14.17
368.366	42.84
368.577	63.32
368.788	-6.31
368.999	-4.27
369.209	28.5
369.42	55.12
369.631	83.8
369.842	59.22
370.053	26.45
370.264	42.84
370.474	-12.46
370.685	-24.75
370.896	67.41
371.107	75.6
371.317	42.84
371.528	42.84
371.739	30.55
371.95	-47.27
372.16	100.18
372.371	20.31
372.582	83.8
372.792	36.69
373.003	67.41
373.214	26.45
373.424	77.65
373.635	36.69
373.846	67.41
374.056	-12.46
374.267	85.84
374.477	-20.65
374.688	-37.03
374.898	85.84
375.109	83.8
375.319	-20.65
375.53	51.03
375.74	182.1
375.951	44.88
376.161	53.08
376.372	42.84
376.582	85.84
376.793	114.52
377.003	28.5
377.214	100.18
377.424	-22.7
377.635	51.03
377.845	28.5
378.055	104.28
378.266	55.12
378.476	42.84
378.686	63.32
378.897	75.6
379.107	14.17
379.317	165.71
379.528	63.32
379.738	59.22
379.948	28.5
380.158	69.46
380.369	-6.31
380.579	59.22
380.789	-4.27
380.999	75.6
381.21	67.41
381.42	110.42
381.63	63.32
381.84	75.6
382.05	59.22
382.261	141.14
382.471	67.41
382.681	94.04
382.891	100.18
383.101	91.99
383.311	-4.27
383.521	73.56
383.731	87.89
383.941	65.36
384.151	18.26
384.361	16.21
384.571	65.36
384.781	85.84
384.991	130.9
385.201	120.66
385.411	87.89
385.621	67.41
385.831	79.7
386.041	59.22
386.251	71.51
386.461	69.46
386.671	114.52
386.881	67.41
387.091	42.84
387.301	8.02
387.511	67.41
387.72	83.8
387.93	10.07
388.14	51.03
388.35	30.55
388.56	67.41
388.769	55.12
388.979	-12.46
389.189	51.03
389.399	143.19
389.609	124.76
389.818	63.32
390.028	122.71
390.238	141.14
390.447	18.26
390.657	79.7
390.867	3.93
391.076	-30.89
391.286	77.65
391.496	38.74
391.705	75.6
391.915	75.6
392.125	85.84
392.334	32.6
392.544	51.03
392.753	18.26
392.963	10.07
393.172	100.18
393.382	67.41
393.591	149.33
393.801	108.37
394.01	165.71
394.22	85.84
394.429	87.89
394.639	59.22
394.848	114.52
395.058	40.79
395.267	112.47
395.477	124.76
395.686	57.17
395.895	139.09
396.105	216.91
396.314	79.7
396.524	55.12
396.733	73.56
396.942	128.85
397.152	91.99
397.361	167.76
397.57	69.46
397.78	71.51
397.989	124.76
398.198	194.39
398.407	77.65
398.617	112.47
398.826	132.95
399.035	102.23
399.244	165.71
399.453	81.75
399.663	44.88
399.872	126.8
400.081	61.27
400.29	216.91
400.499	122.71
400.708	132.95
400.917	118.61
401.127	126.8
401.336	46.93
401.545	171.86
401.754	149.33
401.963	169.81
402.172	-14.51
402.381	102.23
402.59	53.08
402.799	118.61
403.008	126.8
403.217	63.32
403.426	98.13
403.635	87.89
403.844	100.18
404.053	91.99
404.262	151.38
404.471	184.15
404.68	141.14
404.888	173.91
405.097	128.85
405.306	247.63
405.515	173.91
405.724	110.42
405.933	167.76
406.142	141.14
406.35	227.15
406.559	198.48
406.768	143.19
406.977	190.29
407.185	190.29
407.394	167.76
407.603	165.71
407.812	208.72
408.02	264.02
408.229	266.07
408.438	178
408.646	212.82
408.855	239.44
409.064	206.67
409.272	184.15
409.481	313.17
409.69	268.11
409.898	313.17
410.107	325.46
410.315	266.07
410.524	331.6
410.733	339.79
410.941	288.59
411.15	380.75
411.358	409.42
411.567	354.13
411.775	339.79
411.984	413.52
412.192	442.19
412.401	452.43
412.609	509.77
412.818	487.25
413.026	444.24
413.234	460.62
413.443	563.02
413.651	593.74
413.86	495.44
414.068	610.12
414.276	608.08
414.485	624.46
414.693	653.13
414.901	694.09
415.11	689.99
415.318	751.43
415.526	636.75
415.734	751.43
415.943	806.73
416.151	823.11
416.359	806.73
416.567	907.08
416.776	796.49
416.984	997.19
417.192	907.08
417.4	966.47
417.608	993.09
417.817	1058.63
418.025	1068.87
418.233	1136.45
418.441	1101.64
418.649	1197.89
418.857	1232.71
419.065	1345.34
419.273	1255.23
419.481	1386.3
419.689	1341.25
419.897	1423.17
420.105	1482.56
420.313	1578.81
420.521	1541.95
420.729	1650.49
420.937	1677.12
421.145	1730.36
421.353	1914.68
421.561	1969.98
421.769	1945.4
421.977	1820.47
422.185	1894.2
422.393	2205.49
422.601	2223.92
422.809	2166.58
423.017	2207.54
423.224	2350.9
423.432	2498.35
423.64	2463.54
423.848	2787.11
424.056	2467.63
424.263	2778.92
424.471	2731.82
424.679	2850.6
424.887	3051.3
425.094	2981.67
425.302	3024.68
425.51	3096.36
425.718	3368.74
425.925	3397.41
426.133	3612.45
426.341	3712.8
426.548	3794.72
426.756	3925.79
426.964	3901.21
427.171	4157.21
427.379	4110.1
427.586	4263.7
427.794	4302.61
428.001	4718.35
428.209	4851.47
428.417	4626.19
428.624	5050.12
428.832	4900.62
429.039	5105.42
429.247	5144.33
429.454	5537.54
429.662	5947.13
429.869	5476.1
430.076	5893.88
430.284	5748.48
430.491	5951.23
430.699	6405.88
430.906	6434.55
431.114	6313.72
431.321	6614.77
431.528	6670.06
431.736	7259.88
431.943	7409.38
432.15	7259.88
432.358	7325.41
432.565	7722.72
432.772	7802.59
432.979	8206.04
433.187	8185.56
433.394	8361.69
433.601	8754.9
433.808	8881.87
434.016	8898.25
434.223	9062.09
434.43	9670.34
434.637	9563.84
434.844	10110.65
435.052	10391.22
435.259	10292.92
435.466	10292.92
435.673	10327.74
435.88	10731.19
436.087	11472.55
436.294	11380.39
436.501	11255.47
436.708	11335.34
436.915	11945.63
437.122	12369.56
437.329	12117.66
437.537	12519.06
437.743	12916.37
437.95	12652.18
438.157	13661.83
438.364	13880.96
438.571	13801.09
438.778	13903.49
438.985	15019.63
439.192	14632.57
439.399	14962.29
439.606	14728.82
439.813	15519.34
440.02	16285.28
440.227	16035.42
440.433	16135.78
440.64	16395.87
440.847	16461.4
441.054	16762.45
441.261	17878.6
441.467	17722.95
441.674	17931.84
441.881	18703.93
442.088	18495.04
442.294	18593.34
442.501	19150.39
442.708	19308.08
442.914	19992.1
443.121	20928.02
443.328	20469.28
443.534	21800.46
443.741	21376.53
443.948	20827.67
444.154	22281.73
444.361	22392.32
444.568	22509.05
444.774	22345.22
444.981	22521.34
445.187	23336.43
445.394	24194.53
445.6	24311.27
445.807	26066.38
446.013	25021.91
446.22	25533.9
446.426	26308.04
446.633	26613.18
446.839	27542.96
447.046	26392
447.252	28341.67
447.459	27864.49
447.665	27712.94
447.871	29169.05
448.078	30725.5
448.284	28956.06
448.491	29855.12
448.697	30686.59
448.903	31378.81
449.11	31288.7
449.316	30924.16
449.522	31206.78
449.728	32564.58
449.935	32497
450.141	32378.22
450.347	33473.88
450.553	32171.37
450.76	32701.79
450.966	33811.79
451.172	33574.23
451.378	34209.1
451.584	33346.9
451.791	34477.38
451.997	34364.74
452.203	34614.6
452.409	34835.78
452.615	34346.31
452.821	33236.31
453.027	32816.48
453.233	34499.91
453.44	32990.56
453.646	33723.73
453.852	33627.48
454.058	34368.84
454.264	33125.72
454.47	33865.04
454.676	32910.69
454.882	34254.15
455.088	31188.35
455.294	31526.26
455.5	32269.67
455.705	32458.09
455.911	31233.4
456.117	30707.07
456.323	30102.92
456.529	28788.13
456.735	29709.71
456.941	29123.99
457.147	28523.94
457.352	27737.52
457.558	27135.42
457.764	27522.48
457.97	26883.52
458.176	26252.74
458.381	26021.32
458.587	24907.23
458.793	24882.65
458.999	23307.76
459.204	25288.15
459.41	24352.23
459.616	23121.4
459.821	22818.3
460.027	22722.04
460.233	22263.3
460.438	21558.8
460.644	21677.58
460.85	20448.8
461.055	19772.97
461.261	19783.21
461.466	18310.72
461.672	17759.81
461.878	19342.89
462.083	17978.95
462.289	17786.44
462.494	17585.74
462.7	16885.33
462.905	16148.06
463.111	16539.22
463.316	16856.66
463.522	16754.26
463.727	16662.1
463.932	16647.77
464.138	16336.48
464.343	16334.43
464.549	15902.31
464.754	16502.36
464.959	16287.32
465.165	16135.78
465.37	15408.75
465.575	15107.69
465.781	15640.17
465.986	15881.83
466.191	15343.21
466.397	14880.37
466.602	14270.08
466.807	14741.11
467.012	14618.23
467.218	14610.04
467.423	14108.29
467.628	14569.08
467.833	15183.47
468.038	14544.5
468.244	14216.83
468.449	14530.17
468.654	14263.93
468.859	13966.98
469.064	13807.23
469.269	13416.07
469.474	13706.88
469.679	13862.53
469.885	13487.75
470.09	13512.33
470.295	13500.04
470.5	13252.24
470.705	13444.74
470.91	12727.96
471.115	12635.8
471.32	13182.6
471.525	13047.44
471.73	12543.64
471.935	12664.47
472.139	12129.95
472.344	12250.78
472.549	12129.95
472.754	11966.11
472.959	11949.73
473.164	11693.73
473.369	11548.33
473.574	11820.7
473.778	11685.54
473.983	11394.73
474.188	11488.93
474.393	11056.81
474.598	10985.13
474.802	10825.39
475.007	10845.87
475.212	10954.41
475.417	10585.78
475.621	10462.9
475.826	10405.56
476.031	10440.37
476.235	10176.19
476.44	10208.95
476.645	10114.75
476.849	10055.36
477.054	9963.2
477.259	9766.59
477.463	9985.72
477.668	9563.84
477.872	9770.69
478.077	9324.23
478.282	9289.42
478.486	9414.34
478.691	9393.86
478.895	9144.01
479.1	9139.91
479.304	9170.63
479.509	8894.16
479.713	9133.77
479.918	9017.04
480.122	8666.83
480.326	8771.28
480.531	8898.25
480.735	8695.5
480.94	8546
481.144	8918.73
481.348	8498.9
481.553	8648.4
481.757	8279.77
481.961	8439.51
482.166	8607.44
482.37	8765.14
482.574	8296.15
482.778	8480.47
482.983	8705.74
483.187	8650.45
483.391	8431.32
483.595	8496.85
483.8	8394.45
484.004	8705.74
484.208	8607.44
484.412	8486.61
484.616	8470.23
484.821	8484.56
485.025	8251.1
485.229	8464.08
485.433	8308.44
485.637	8294.1
485.841	8349.4
486.045	8296.15
486.249	8265.43
486.453	8177.37
486.657	8138.46
486.861	8359.64
487.065	8165.08
487.269	8429.27
487.473	8130.27
487.677	8380.12
487.881	8451.8
488.085	8464.08
488.289	8427.22
488.493	8419.03
488.697	8439.51
488.901	8531.67
489.105	8556.24
489.309	8496.85
489.512	8603.35
489.716	8537.81
489.92	8406.74
490.124	8470.23
490.328	8650.45
490.531	8423.12
490.735	8554.19
490.939	8650.45
491.143	8423.12
491.346	8742.61
491.55	8728.27
491.754	8531.67
491.958	8615.63
492.161	8722.13
492.365	8734.42
492.569	8830.67
492.772	8824.53
492.976	8738.51
493.18	8883.92
493.383	9043.66
493.587	8857.29
493.79	9189.07
493.994	8982.22
494.197	9168.59
494.401	9277.13
494.605	9080.52
494.808	9436.87
495.012	9496.26
495.215	9359.05
495.419	9397.96
495.622	9297.61
495.825	9402.05
496.029	9455.3
496.232	9672.39
496.436	9600.71
496.639	9916.09
496.843	9948.86
497.046	9998.01
497.249	10340.02
497.453	10415.8
497.656	10331.83
497.859	10393.27
498.063	10395.32
498.266	10792.62
498.469	10761.91
498.673	10616.5
498.876	10923.69
499.079	10831.54
499.282	10880.69
499.485	11120.3
499.689	11234.99
499.892	11210.41
500.095	11376.3
500.298	11757.22
500.501	11415.21
500.705	11865.76
500.908	11972.25
501.111	11994.78
501.314	12074.65
501.517	12185.24
501.72	12254.87
501.923	12531.35
502.126	12684.95
502.329	12840.59
502.532	12867.22
502.735	12983.95
502.938	13227.66
503.141	13153.93
503.344	13495.94
503.547	13741.7
503.75	13448.84
503.953	13930.11
504.156	14012.03
504.359	14059.13
504.562	14227.07
504.765	14388.86
504.968	14460.54
505.17	14411.39
505.373	14956.15
505.576	14999.15
505.779	14878.32
505.982	14976.62
506.185	15478.38
506.387	15545.96
506.59	15705.7
506.793	16094.82
506.996	15822.44
507.198	16477.79
507.401	16133.73
507.604	16479.83
507.807	16733.78
508.009	16744.02
508.212	16879.19
508.415	17213.01
508.617	17385.04
508.82	17311.31
509.022	17391.18
509.225	17929.8
509.428	17997.38
509.63	18148.93
509.833	17917.51
510.035	18542.14
510.238	18726.46
510.44	18898.48
510.643	18542.14
510.845	19023.41
511.048	19019.32
511.25	19723.82
511.453	19580.46
511.655	20266.53
511.858	19922.47
512.06	20160.03
512.262	20268.58
512.465	20284.96
512.667	20655.64
512.87	20751.9
513.072	20567.58
513.274	21251.6
513.477	21542.41
513.679	21636.62
513.881	21646.86
514.084	21941.77
514.286	22345.22
514.488	22115.84
514.69	22795.77
514.893	22728.19
515.095	22693.37
515.297	23221.75
515.499	23332.34
515.701	23621.1
515.904	23727.6
516.106	23926.25
516.308	23961.06
516.51	24258.02
516.712	24405.47
516.914	24761.82
517.116	24651.23
517.318	25146.84
517.52	24864.22
517.722	25390.55
517.925	25538
518.127	25765.32
518.329	25849.29
518.531	25587.15
518.733	26228.17
518.935	26621.38
519.136	26516.93
519.338	26418.63
519.54	26779.07
519.742	26973.63
519.944	27448.75
520.146	27872.68
520.348	27614.64
520.55	27618.74
520.752	28161.45
520.954	28032.43
521.155	28116.39
521.357	28470.69
521.559	28775.84
521.761	28978.59
521.963	28741.02
522.164	28890.52
522.366	29126.04
522.568	29218.2
522.77	29283.73
522.971	29808.01
523.173	29521.3
523.375	29994.38
523.576	29945.23
523.778	30035.34
523.98	30145.93
524.181	30348.68
524.383	30381.45
524.584	30446.98
524.786	30672.26
524.988	30395.78
525.189	30950.78
525.391	30948.73
525.592	31128.95
525.794	31096.19
525.995	31286.65
526.197	31286.65
526.398	30899.58
526.6	31186.3
526.801	31161.72
527.003	31520.12
527.204	31460.73
527.406	31432.05
527.607	31356.28
527.808	31999.34
528.01	31104.38
528.211	31343.99
528.412	31925.61
528.614	31741.3
528.815	31530.36
529.016	31710.58
529.218	31565.17
529.419	31767.92
529.62	31655.28
529.822	31772.02
530.023	32093.55
530.224	31642.99
530.425	31563.12
530.626	31638.9
530.828	31479.16
531.029	32232.81
531.23	31823.22
531.431	31677.81
531.632	31772.02
531.833	31550.84
532.035	31901.04
532.236	31622.51
532.437	31706.48
532.638	31638.9
532.839	31352.18
533.04	31690.1
533.241	31356.28
533.442	31884.65
533.643	31577.46
533.844	31624.56
534.045	31731.06
534.246	31018.36
534.447	31387
534.648	31069.56
534.849	31911.28
535.05	31249.78
535.251	31473.01
535.451	31120.76
535.652	31724.91
535.853	31194.49
536.054	31518.07
536.255	31319.42
536.456	30727.55
536.657	31606.13
536.857	30995.84
537.058	30799.23
537.259	31464.82
537.46	31184.25
537.66	30971.26
537.861	31006.08
538.062	31100.28
538.263	31014.27
538.463	30885.25
538.664	31049.08
538.865	31038.84
539.065	31219.06
539.266	30895.49
539.466	31430.01
539.667	30752.13
539.868	31077.76
540.068	31141.24
540.269	30576
540.469	31124.86
540.67	30412.17
540.87	30518.66
541.071	30473.6
541.271	30817.66
541.472	30838.14
541.672	30649.73
541.873	30465.41
542.073	30201.22
542.274	30836.09
542.474	30547.33
542.675	30676.35
542.875	30459.27
543.075	30592.39
543.276	29959.56
543.476	30924.16
543.676	30322.05
543.877	30610.82
544.077	30551.43
544.277	30625.15
544.478	30121.35
544.678	30760.32
544.878	30203.27
545.078	30463.36
545.279	30244.23
545.479	30453.12
545.679	30621.06
545.879	30444.93
546.079	30117.26
546.28	30315.91
546.48	30094.73
546.68	30223.75
546.88	30463.36
547.08	30653.83
547.28	30274.95
547.48	29937.04
547.68	30274.95
547.88	30033.29
548.081	30446.98
548.281	30524.8
548.481	30217.61
548.681	30506.37
548.881	30424.45
549.081	30309.77
549.28	30205.32
549.48	30168.46
549.68	30367.11
549.88	30672.26
550.08	30473.6
550.28	30707.07
550.48	30625.15
550.68	30604.67
550.88	30320.01
551.08	30043.53
551.279	30549.38
551.479	30260.62
551.679	30614.91
551.879	30223.75
552.079	30547.33
552.278	30344.58
552.478	30397.83
552.678	30238.09
552.878	30682.5
553.077	30633.35
553.277	30528.9
553.477	30899.58
553.676	30231.94
553.876	30889.34
554.076	30170.5
554.275	30530.95
554.475	30236.04
554.674	30817.66
554.874	30526.85
555.074	30549.38
555.273	30303.62
555.473	30539.14
555.672	30375.3
555.872	30774.66
556.071	30414.21
556.271	30997.88
556.47	30336.39
556.67	30678.4
556.869	30344.58
557.068	30569.86
557.268	30371.21
557.467	30504.32
557.667	30504.32
557.866	30674.31
558.065	30811.52
558.265	30352.77
558.464	30328.2
558.663	30866.81
558.863	30225.8
559.062	30952.83
559.261	30440.84
559.461	31006.08
559.66	30229.9
559.859	30576
560.058	30549.38
560.258	30809.47
560.457	30283.14
560.656	30801.28
560.855	30784.9
561.054	30788.99
561.253	30350.73
561.453	30694.78
561.652	30879.1
561.851	30477.7
562.05	30512.52
562.249	30506.37
562.448	30813.57
562.647	30498.18
562.846	30629.25
563.045	30330.25
563.244	30205.32
563.443	30537.09
563.642	30219.66
563.841	30645.63
564.04	30231.94
564.239	30614.91
564.438	30035.34
564.637	30162.31
564.836	30371.21
565.035	29957.52
565.234	30123.4
565.432	30260.62
565.631	29846.93
565.83	30139.79
566.029	29914.51
566.228	29769.1
566.427	29871.5
566.625	29814.16
566.824	29695.38
567.023	30014.86
567.222	29531.54
567.42	29967.76
567.619	29730.19
567.818	29785.49
568.016	29500.82
568.215	29951.37
568.414	29515.15
568.612	29883.79
568.811	29326.74
569.01	29607.31
569.208	29224.34
569.407	29552.02
569.605	29062.55
569.804	29574.55
570.002	29138.33
570.201	29113.75
570.4	29103.51
570.598	29144.47
570.797	28706.21
570.995	28919.2
571.193	28650.91
571.392	29005.21
571.59	28755.36
571.789	28861.85
571.987	28732.83
572.186	28497.31
572.384	28265.89
572.582	28716.45
572.781	28728.73
572.979	27731.37
573.177	28290.47
573.376	28593.57
573.574	28028.33
573.772	28181.93
573.971	27975.08
574.169	27905.45
574.367	27876.78
574.565	28288.42
574.763	27235.77
574.962	27559.34
575.16	27557.3
575.358	27706.8
575.556	27112.89
575.754	27633.07
575.952	27530.67
576.151	27667.89
576.349	27336.12
576.547	27241.91
576.745	27360.69
576.943	27233.72
577.141	27063.74
577.339	27274.68
577.537	26762.68
577.735	26662.33
577.933	26731.97
578.131	26836.41
578.329	26561.98
578.527	26602.94
578.725	26432.96
578.923	26693.05
579.121	26240.45
579.319	26320.32
579.516	26637.76
579.714	26502.59
579.912	26277.32
580.11	26125.77
580.308	25998.79
580.506	26197.45
580.704	25810.38
580.901	25980.36
581.099	25988.55
581.297	26004.94
581.495	25904.59
581.692	25724.36
581.89	25398.74
582.088	25863.63
582.285	25576.91
582.483	25327.06
582.681	25595.34
582.878	25222.61
583.076	24948.18
583.274	25134.55
583.471	25007.58
583.669	24995.29
583.866	24978.9
584.064	25181.65
584.262	24755.68
584.459	24847.83
584.657	24804.83
584.854	24927.7
585.052	24737.24
585.249	24679.9
585.447	24669.66
585.644	24167.91
585.841	24421.86
586.039	24440.29
586.236	24255.97
586.434	24212.96
586.631	24206.82
586.828	24085.99
587.026	24290.79
587.223	23930.34
587.42	23746.03
587.618	23944.68
587.815	23725.55
588.012	23977.45
588.21	23868.91
588.407	24016.36
588.604	23465.46
588.801	23703.02
588.999	23703.02
589.196	23457.26
589.393	23676.4
589.59	23447.02
589.787	23137.78
589.984	23549.42
590.182	23238.13
590.379	23336.43
590.576	23358.96
590.773	23268.85
590.97	22924.79
591.167	23039.48
591.364	22906.36
591.561	23289.33
591.758	23084.53
591.955	22773.24
592.152	23125.49
592.349	22701.56
592.546	22789.63
592.743	22545.92
592.94	22314.5
593.137	22541.82
593.334	22504.96
593.531	22420.99
593.727	22691.32
593.924	22406.66
594.121	22324.74
594.318	22468.09
594.515	22283.78
594.712	22433.28
594.908	22351.36
595.105	22314.5
595.302	22187.52
595.499	22302.21
595.696	22263.3
595.892	21960.2
596.089	21945.86
596.286	22179.33
596.482	22158.85
596.679	22107.65
596.876	21962.25
597.072	21923.33
597.269	21788.17
597.466	21696.01
597.662	21804.55
597.859	21716.49
598.055	21618.19
598.252	21468.69
598.448	21722.63
598.645	21689.87
598.841	21403.15
599.038	21810.7
599.234	21612.04
599.431	21534.22
599.627	21292.56
599.824	21665.29
600.02	21460.49
600.217	21435.92
600.413	21548.56
600.609	21718.54
600.806	21282.32
601.002	21663.24
601.198	21435.92
601.395	21564.94
601.591	21630.48
601.787	21503.5
601.984	21138.96
602.18	21659.15
602.376	21528.08
602.572	21562.89
602.769	21218.83
602.965	21487.12
603.161	21337.62
603.357	21200.4
603.553	21454.35
603.75	21575.18
603.946	21272.08
604.142	21755.4
604.338	21485.07
604.534	21509.65
604.73	21413.39
604.926	21245.46
605.122	21386.77
605.318	21341.71
605.514	21153.3
605.71	21470.73
605.906	21159.44
606.102	21149.2
606.298	21423.63
606.494	21587.47
606.69	21370.38
606.886	21505.55
607.082	21104.15
607.278	21450.25
607.474	21278.22
607.67	21356.05
607.866	21368.34
608.062	21693.96
608.257	21317.14
608.453	21474.83
608.649	21749.26
608.845	21460.49
609.041	21810.7
609.236	21845.51
609.432	21523.98
609.628	21657.1
609.824	21466.64
610.019	21675.53
610.215	21317.14
610.411	21777.93
610.606	21804.55
610.802	21583.37
610.998	21640.72
611.193	21753.35
611.389	21698.06
611.584	21548.56
611.78	21650.95
611.976	21659.15
612.171	21818.89
612.367	21773.83
612.562	21882.38
612.758	21526.03
612.953	21562.89
613.149	21730.83
613.344	21712.39
613.539	21896.71
613.735	21718.54
613.93	22042.12
614.126	21433.87
614.321	21995.01
614.517	21825.03
614.712	21929.48
614.907	21739.02
615.103	22087.17
615.298	21943.81
615.493	21974.53
615.688	21517.84
615.884	22165
616.079	21542.41
616.274	21970.44
616.47	21784.07
616.665	22027.78
616.86	22052.36
617.055	21808.65
617.25	21675.53
617.445	22093.32
617.641	21507.6
617.836	21982.73
618.031	21454.35
618.226	21739.02
618.421	21794.31
618.616	21999.11
618.811	21202.45
619.006	22013.45
619.201	21394.96
619.396	21663.24
619.591	21095.96
619.786	21437.97
619.981	20891.16
620.176	21251.6
620.371	21128.72
620.566	21050.9
620.761	20946.45
620.956	20827.67
621.151	20844.06
621.346	21057.04
621.541	20624.92
621.735	21091.86
621.93	20327.97
622.125	20620.83
622.32	20270.62
622.515	20596.25
622.709	20196.9
622.904	19992.1
623.099	20411.93
623.294	20258.34
623.488	19992.1
623.683	20172.32
623.878	19971.62
624.072	19818.02
624.267	19662.38
624.462	19654.19
624.656	19269.17
624.851	19566.12
625.046	19297.84
625.24	19134
625.435	19123.76
625.629	18964.02
625.824	19148.34
626.018	18773.56
626.213	18695.74
626.407	18884.15
626.602	18404.92
626.796	18390.59
626.991	18466.36
627.185	18388.54
627.38	18656.82
627.574	18130.5
627.768	18247.23
627.963	18224.7
628.157	17925.7
628.352	18015.81
628.546	17649.22
628.74	17901.12
628.935	17681.99
629.129	17804.87
629.323	17393.23
629.517	17432.14
629.712	17288.78
629.906	17436.24
630.1	17163.86
630.294	17141.33
630.489	16860.76
630.683	17000.02
630.877	16694.87
631.071	16623.19
631.265	16774.74
631.459	16488.03
631.653	16830.04
631.848	16723.54
632.042	16135.78
632.236	16426.59
632.43	16279.13
632.624	16174.69
632.818	16146.01
633.012	16086.62
633.206	15896.16
633.4	16025.18
633.594	15742.57
633.788	15707.75
633.982	15801.96
634.176	15840.87
634.369	15494.76
634.563	15502.95
634.757	15316.59
634.951	15322.73
635.145	15339.12
635.339	15357.55
635.533	15060.59
635.726	15023.73
635.92	14714.48
636.114	14904.95
636.308	14767.73
636.501	14794.36
636.695	14796.4
636.889	14388.86
637.083	14184.06
637.276	14143.1
637.47	14321.27
637.664	14061.18
637.857	14208.64
638.051	14222.97
638.244	13971.07
638.438	14061.18
638.632	13964.93
638.825	13710.98
639.019	13715.08
639.212	13612.68
639.406	13573.77
639.599	13528.71
639.793	13600.39
639.986	13201.04
640.18	13377.16
640.373	13262.47
640.567	13108.88
640.76	13141.64
640.954	12906.13
641.147	12768.91
641.34	12908.18
641.534	12945.04
641.727	12748.43
641.92	12631.7
642.114	12547.73
642.307	12633.75
642.5	12506.77
642.694	12154.52
642.887	12142.24
643.08	12451.48
643.273	12166.81
643.467	11927.2
643.66	12025.5
643.853	11986.59
644.046	11945.63
644.239	11640.48
644.432	11554.47
644.626	11593.38
644.819	11470.5
645.012	11454.12
645.205	11396.78
645.398	11286.19
645.591	11294.38
645.784	11318.95
645.977	11048.62
646.17	11075.24
646.363	11013.81
646.556	10888.88
646.749	10823.34
646.942	10903.21
647.135	10905.26
647.328	10882.74
647.521	10839.73
647.714	10645.17
647.907	10481.33
648.099	10475.19
648.292	10602.16
648.485	10524.34
648.678	10151.61
648.871	10311.35
649.064	10262.2
649.256	10432.18
649.449	10098.36
649.642	9977.53
649.835	9862.85
650.027	10073.79
650.22	9946.81
650.413	9821.89
650.605	9860.8
650.798	9643.71
650.991	9580.23
651.183	9379.53
651.376	9529.03
651.568	9660.1
651.761	9381.57
651.954	9455.3
652.146	9299.66
652.339	9520.84
652.531	9242.31
652.724	9230.02
652.916	8914.64
653.109	9201.35
653.301	9209.54
653.494	9086.67
653.686	8842.96
653.879	9162.44
654.071	8781.52
654.263	8677.07
654.456	8918.73
654.648	8804.05
654.84	8578.77
655.033	8435.41
655.225	8488.66
655.417	8685.26
655.61	8546
655.802	8648.4
655.994	8380.12
656.186	8380.12
656.379	8343.25
656.571	8226.52
656.763	8146.65
656.955	8130.27
657.148	8062.68
657.34	8158.94
657.532	8046.3
657.724	8107.74
657.916	8036.06
658.108	7919.32
658.3	7950.04
658.492	8034.01
658.684	7616.23
658.876	7794.4
659.068	7853.79
659.26	7759.58
659.452	7452.39
659.644	7489.25
659.836	7581.41
660.028	7562.98
660.22	7327.46
660.412	7456.48
660.604	7169.77
660.796	7474.92
660.988	7489.25
661.18	7182.06
661.372	7186.15
661.563	7100.14
661.755	7071.47
661.947	7274.21
662.139	7132.9
662.331	6964.97
662.522	6735.6
662.714	7067.37
662.906	6885.1
663.097	6985.45
663.289	7020.27
663.481	6704.88
663.673	6715.12
663.864	6672.11
664.056	6485.75
664.247	6698.74
664.439	6678.26
664.631	6629.1
664.822	6520.56
665.014	6631.15
665.205	6475.51
665.397	6465.27
665.588	6459.12
665.78	6428.4
665.971	6375.16
666.163	6354.68
666.354	6305.53
666.546	6229.75
666.737	6121.21
666.929	6158.07
667.12	6307.57
667.311	6131.45
667.503	5975.8
667.694	5926.65
667.885	5983.99
668.077	6086.39
668.268	5828.35
668.459	5902.08
668.651	5877.5
668.842	5801.72
669.033	5656.32
669.224	5742.33
669.416	5834.49
669.607	5775.1
669.798	5719.81
669.989	5605.12
670.18	5756.67
670.371	5441.28
670.563	5588.74
670.754	5641.98
670.945	5553.92
671.136	5555.97
671.327	5390.08
671.518	5283.59
671.709	5336.84
671.9	5414.66
672.091	5535.49
672.282	5281.54
672.473	5308.16
672.664	5314.31
672.855	5310.21
673.046	5396.23
673.237	5396.23
673.428	5220.1
673.619	5199.62
673.809	5146.37
674	5142.28
674.191	5179.14
674.382	5052.17
674.573	5207.81
674.764	5060.36
674.954	5187.33
675.145	5046.02
675.336	4976.39
675.527	4888.33
675.717	4923.15
675.908	5021.45
676.099	4933.39
676.289	5015.3
676.48	4996.87
676.671	4968.2
676.861	4771.6
677.052	4841.23
677.243	4900.62
677.433	4626.19
677.624	4894.47
677.814	4843.28
678.005	4804.36
678.195	4884.23
678.386	4763.4
678.576	4597.52
678.767	4583.18
678.957	4712.21
679.148	4560.66
679.338	4728.59
679.529	4568.85
679.719	4597.52
679.909	4646.67
680.1	4581.14
680.29	4554.51
680.481	4695.82
680.671	4589.33
680.861	4574.99
681.052	4433.68
681.242	4470.55
681.432	4572.94
681.622	4476.69
681.813	4482.83
682.003	4372.24
682.193	4364.05
682.383	4542.22
682.573	4372.24
682.764	4384.53
682.954	4323.09
683.144	4431.63
683.334	4286.23
683.524	4392.72
683.714	4310.8
683.904	4382.48
684.094	4245.27
684.284	4169.49
684.474	4402.96
684.664	4294.42
684.854	4163.35
685.044	4175.64
685.234	4206.36
685.424	4103.96
685.614	4220.69
685.804	4108.05
685.994	4237.08
686.184	4251.41
686.374	4146.97
686.564	4157.21
686.753	4278.04
686.943	4171.54
687.133	4036.38
687.323	4200.21
687.513	4038.42
687.702	4067.1
687.892	4196.12
688.082	4015.9
688.272	4097.81
688.461	4159.25
688.651	4124.44
688.841	4007.7
689.03	4050.71
689.22	3966.74
689.41	4079.38
689.599	3895.07
689.789	3901.21
689.979	3747.61
690.168	3827.48
690.358	3829.53
690.547	3829.53
690.737	3921.69
690.926	3938.07
691.116	3825.43
691.305	3845.91
691.495	3929.88
691.684	3610.4
691.874	3856.15
692.063	3723.04
692.252	3884.83
692.442	3860.25
692.631	3700.51
692.82	3804.96
693.01	3671.84
693.199	3766.04
693.388	3780.38
693.578	3630.88
693.767	3641.12
693.956	3575.58
694.146	3751.71
694.335	3557.15
694.524	3569.44
694.713	3671.84
694.902	3702.56
695.092	3639.07
695.281	3618.59
695.47	3548.96
695.659	3530.53
695.848	3520.29
696.037	3671.84
696.226	3438.37
696.415	3491.62
696.604	3548.96
696.793	3436.32
696.982	3491.62
697.171	3512.1
697.36	3589.92
697.549	3419.94
697.738	3456.8
697.927	3315.49
698.116	3331.87
698.305	3432.22
698.494	3346.21
698.683	3395.36
698.872	3421.99
699.061	3346.21
699.25	3491.62
699.438	3344.16
699.627	3360.55
699.816	3426.08
700.005	3471.14
700.193	3417.89
700.382	3475.23
700.571	3231.52
700.76	3323.68
700.948	3194.66
701.137	3245.86
701.326	3213.09
701.514	3184.42
701.703	3266.34
701.892	3323.68
702.08	3239.72
702.269	3280.68
702.457	3264.29
702.646	3172.13
702.834	3245.86
703.023	3061.54
703.212	3163.94
703.4	3104.55
703.589	3045.16
703.777	3180.32
703.965	3053.35
704.154	2959.14
704.342	3122.98
704.531	2983.72
704.719	3002.15
704.907	3192.61
705.096	2996.01
705.284	3067.69
705.472	3057.45
705.661	3008.3
705.849	3090.21
706.037	2930.47
706.226	3016.49
706.414	3069.73
706.602	2985.77
706.79	2934.57
706.979	2881.32
707.167	2909.99
707.355	2918.18
707.543	2955.05
707.731	2862.89
707.919	2819.88
708.107	2895.66
708.296	2991.91
708.484	2762.54
708.672	2836.27
708.86	2848.55
709.048	2742.06
709.236	2766.64
709.424	2879.27
709.612	2791.21
709.8	2778.92
709.988	2664.24
710.176	2844.46
710.364	2713.39
710.551	2791.21
710.739	2737.96
710.927	2713.39
711.115	2705.2
711.303	2694.96
711.491	2610.99
711.679	2713.39
711.866	2748.2
712.054	2729.77
712.242	2836.27
712.43	2635.57
712.617	2643.76
712.805	2684.72
712.993	2557.74
713.181	2639.66
713.368	2658.09
713.556	2647.85
713.744	2586.41
713.931	2701.1
714.119	2602.8
714.306	2658.09
714.494	2475.82
714.682	2537.26
714.869	2574.13
715.057	2613.04
715.244	2467.63
715.432	2574.13
715.619	2463.54
715.807	2303.79
715.994	2445.1
716.182	2496.3
716.369	2537.26
716.556	2477.87
716.744	2402.1
716.931	2500.4
717.119	2395.95
717.306	2426.67
717.493	2279.22
717.681	2414.38
717.868	2332.47
718.055	2330.42
718.242	2490.16
718.43	2371.38
718.617	2418.48
718.804	2434.86
718.991	2383.66
719.179	2400.05
719.366	2336.56
719.553	2195.25
719.74	2254.64
719.927	2283.31
720.114	2262.83
720.301	2385.71
720.488	2248.5
720.676	2264.88
720.863	2287.41
721.05	2232.12
721.237	2234.16
721.424	2385.71
721.611	2217.78
721.798	2139.96
721.985	2221.88
722.172	2144.05
722.358	2131.76
722.545	2103.09
722.732	2209.59
722.919	2103.09
723.106	2152.24
723.293	2139.96
723.48	2180.92
723.667	2117.43
723.853	2137.91
724.04	2180.92
724.227	2187.06
724.414	2109.24
724.6	2094.9
724.787	2172.72
724.974	2088.76
725.161	2049.85
725.347	2008.89
725.534	2017.08
725.72	2037.56
725.907	2092.85
726.094	2074.42
726.28	2023.22
726.467	2029.37
726.653	2012.98
726.84	1984.31
727.027	1984.31
727.213	2076.47
727.4	1967.93
727.586	2021.17
727.773	2017.08
727.959	1908.54
728.145	1945.4
728.332	1953.59
728.518	1879.86
728.705	1865.53
728.891	1840.95
729.077	1888.06
729.264	1914.68
729.45	1978.17
729.636	1918.78
729.823	1959.74
730.009	1828.67
730.195	1890.1
730.382	1967.93
730.568	1748.79
730.754	1914.68
730.94	1847.1
731.126	1972.02
731.313	1779.51
731.499	1863.48
731.685	1847.1
731.871	1828.67
732.057	1843
732.243	1945.4
732.429	1763.13
732.615	1769.27
732.801	1769.27
732.987	1779.51
733.173	1861.43
733.359	1869.62
733.545	1861.43
733.731	1828.67
733.917	1836.86
734.103	1787.71
734.289	1738.55
734.475	1797.95
734.661	1820.47
734.847	1734.46
735.033	1675.07
735.219	1642.3
735.404	1756.99
735.59	1705.79
735.776	1703.74
735.962	1625.92
736.148	1625.92
736.333	1750.84
736.519	1658.68
736.705	1689.4
736.89	1697.6
737.076	1656.64
737.262	1599.29
737.447	1615.68
737.633	1691.45
737.819	1679.16
738.004	1660.73
738.19	1646.4
738.375	1636.16
738.561	1726.27
738.747	1515.33
738.932	1548.09
739.118	1707.84
739.303	1634.11
739.489	1558.33
739.674	1623.87
739.859	1474.37
740.045	1554.24
740.23	1625.92
740.416	1498.94
740.601	1615.68
740.786	1533.76
740.972	1460.03
741.157	1457.98
741.342	1326.91
741.528	1476.41
741.713	1484.61
741.898	1529.66
742.084	1404.74
742.269	1466.17
742.454	1427.26
742.639	1509.18
742.824	1462.08
743.01	1523.52
743.195	1363.78
743.38	1421.12
743.565	1427.26
743.75	1435.46
743.935	1488.7
744.12	1494.85
744.305	1445.7
744.49	1312.58
744.675	1443.65
744.86	1339.2
745.045	1396.54
745.23	1421.12
745.415	1443.65
745.6	1308.48
745.785	1337.15
745.97	1292.1
746.155	1308.48
746.34	1337.15
746.525	1324.87
746.71	1212.23
746.895	1279.81
747.079	1169.22
747.264	1333.06
747.449	1273.67
747.634	1363.78
747.819	1353.54
748.003	1240.9
748.188	1247.04
748.373	1169.22
748.557	1294.15
748.742	1156.93
748.927	1187.65
749.111	1146.69
749.296	1167.17
749.481	1165.12
749.665	1216.32
749.85	1216.32
750.034	1255.23
750.219	1152.84
750.404	1109.83
750.588	1140.55
750.773	1068.87
750.957	1152.84
751.141	1132.36
751.326	1214.27
751.51	1152.84
751.695	1064.77
751.879	1107.78
752.064	1075.01
752.248	1140.55
752.432	1175.36
752.617	1062.73
752.801	1068.87
752.985	1025.86
753.17	1075.01
753.354	1068.87
753.538	1058.63
753.722	1011.53
753.907	980.81
754.091	964.42
754.275	1034.05
754.459	1044.29
754.643	943.94
754.828	989
755.012	978.76
755.196	968.52
755.38	898.89
755.564	913.22
755.748	894.79
755.932	970.57
756.116	995.14
756.3	902.98
756.484	976.71
756.668	913.22
756.852	823.11
757.036	933.7
757.22	845.64
757.404	864.07
757.588	954.18
757.772	804.68
757.956	997.19
758.14	921.42
758.323	796.49
758.507	890.7
758.691	788.3
758.875	894.79
759.059	855.88
759.242	829.26
759.426	808.78
759.61	857.93
759.794	763.72
759.977	784.2
760.161	851.78
760.345	788.3
760.528	931.66
760.712	782.15
760.895	755.53
761.079	759.63
761.263	907.08
761.446	825.16
761.63	745.29
761.813	724.81
761.997	655.18
762.18	839.5
762.364	747.34
762.547	776.01
762.731	708.43
762.914	821.06
763.098	757.58
763.281	747.34
763.464	798.54
763.648	759.63
763.831	681.8
764.015	653.13
764.198	657.23
764.381	649.04
764.564	714.57
764.748	806.73
764.931	722.76
765.114	722.76
765.297	771.91
765.481	673.61
765.664	683.85
765.847	591.69
766.03	724.81
766.213	706.38
766.397	708.43
766.58	653.13
766.763	741.19
766.946	673.61
767.129	675.66
767.312	685.9
767.495	679.75
767.678	653.13
767.861	681.8
768.044	599.88
768.227	661.32
768.41	726.86
768.593	634.7
768.776	616.27
768.959	659.28
769.142	710.47
769.324	685.9
769.507	681.8
769.69	612.17
769.873	569.16
770.056	710.47
770.239	628.56
770.421	657.23
770.604	710.47
770.787	618.32
770.97	669.52
771.152	630.6
771.335	575.31
771.518	587.6
771.7	665.42
771.883	591.69
772.066	579.4
772.248	599.88
772.431	601.93
772.613	589.64
772.796	532.3
772.978	616.27
773.161	591.69
773.343	554.83
773.526	552.78
773.708	503.63
773.891	544.59
774.073	550.73
774.256	528.21
774.438	608.08
774.621	599.88
774.803	579.4
774.985	591.69
775.168	526.16
775.35	530.25
775.532	573.26
775.715	483.15
775.897	483.15
776.079	474.96
776.261	493.39
776.444	417.61
776.626	489.29
776.808	556.88
776.99	446.29
777.173	522.06
777.355	460.62
777.537	528.21
777.719	661.32
777.901	565.07
778.083	413.52
778.265	534.35
778.447	599.88
778.629	477.01
778.811	474.96
778.993	413.52
779.175	558.92
779.357	540.49
779.539	495.44
779.721	530.25
779.903	532.3
780.085	378.7
780.267	464.72
780.449	421.71
780.631	501.58
780.812	509.77
780.994	423.76
781.176	423.76
781.358	317.26
781.54	427.85
781.721	370.51
781.903	415.57
782.085	444.24
782.267	393.04
782.448	421.71
782.63	370.51
782.812	452.43
782.993	415.57
783.175	343.89
783.357	292.69
783.538	415.57
783.72	438.09
783.901	427.85
784.083	339.79
784.264	427.85
784.446	354.13
784.627	356.18
784.809	364.37
784.99	307.02
785.172	329.55
785.353	384.85
785.535	372.56
785.716	280.4
785.897	366.42
786.079	321.36
786.26	345.94
786.441	350.03
786.623	313.17
786.804	329.55
786.985	329.55
787.167	290.64
787.348	345.94
787.529	309.07
787.71	337.74
787.891	341.84
788.073	300.88
788.254	241.49
788.435	370.51
788.616	313.17
788.797	315.22
788.978	329.55
789.159	274.26
789.34	284.5
789.522	294.74
789.703	307.02
789.884	268.11
790.065	290.64
790.246	268.11
790.427	257.87
790.607	341.84
790.788	309.07
790.969	261.97
791.15	298.83
791.331	309.07
791.512	239.44
791.693	229.2
791.874	264.02
792.054	284.5
792.235	247.63
792.416	266.07
792.597	206.67
792.778	245.59
792.958	249.68
793.139	292.69
793.32	288.59
793.5	264.02
793.681	313.17
793.862	255.83
794.042	227.15
794.223	173.91
794.404	239.44
794.584	184.15
794.765	169.81
794.945	204.63
795.126	157.52
795.306	272.21
795.487	296.78
795.667	173.91
795.848	194.39
796.028	182.1
796.209	243.54
796.389	198.48
796.57	233.3
796.75	266.07
796.93	255.83
797.111	223.06
797.291	184.15
797.471	186.19
797.652	241.49
797.832	178
798.012	210.77
798.192	143.19
798.373	157.52
798.553	188.24
798.733	208.72
798.913	161.62
799.093	227.15
799.274	126.8
799.454	192.34
799.634	237.39
799.814	216.91
799.994	169.81
800.174	210.77
800.354	175.95
800.534	229.2
800.714	198.48
800.894	102.23
801.074	186.19
801.254	223.06
801.434	231.25
801.614	137.04
801.794	175.95
801.974	952.13
802.154	69.46
802.334	161.62
802.514	137.04
802.693	132.95
802.873	206.67
803.053	231.25
803.233	157.52
803.413	210.77
803.592	143.19
803.772	175.95
803.952	206.67
804.131	157.52
804.311	175.95
804.491	272.21
804.67	128.85
804.85	149.33
805.03	141.14
805.209	235.35
805.389	190.29
805.568	223.06
805.748	182.1
805.928	165.71
806.107	206.67
806.287	194.39
806.466	180.05
806.646	167.76
806.825	116.56
807.004	114.52
807.184	190.29
807.363	155.47
807.543	126.8
807.722	69.46
807.901	104.28
808.081	178
808.26	120.66
808.439	135
808.619	63.32
808.798	87.89
808.977	210.77
809.156	171.86
809.336	126.8
809.515	126.8
809.694	135
809.873	116.56
810.052	116.56
810.231	143.19
810.411	118.61
810.59	128.85
810.769	89.94
810.948	186.19
811.127	77.65
811.306	94.04
811.485	59.22
811.664	137.04
811.843	108.37
812.022	94.04
812.201	200.53
812.38	100.18
812.559	85.84
812.737	182.1
812.916	104.28
813.095	59.22
813.274	165.71
813.453	128.85
813.632	67.41
813.811	145.24
813.989	55.12
814.168	145.24
814.347	46.93
814.526	145.24
814.704	141.14
814.883	104.28
815.062	100.18
815.24	118.61
815.419	112.47
815.598	161.62
815.776	77.65
815.955	223.06
816.133	32.6
816.312	116.56
816.49	141.14
816.669	91.99
816.847	159.57
817.026	141.14
817.204	96.08
817.383	141.14
817.561	61.27
817.74	83.8
817.918	124.76
818.097	141.14
818.275	128.85
818.453	100.18
818.632	91.99
818.81	94.04
818.988	73.56
819.167	110.42
819.345	59.22
819.523	36.69
819.701	42.84
819.879	157.52
820.058	38.74
820.236	112.47
820.414	126.8
820.592	73.56
820.77	67.41
820.948	143.19
821.127	81.75
821.305	34.64
821.483	61.27
821.661	69.46
821.839	69.46
822.017	-18.6
822.195	108.37
822.373	124.76
822.551	89.94
822.729	73.56
822.907	12.12
823.085	51.03
823.262	61.27
823.44	10.07
823.618	51.03
823.796	83.8
823.974	51.03
824.152	46.93
824.329	85.84
824.507	63.32
824.685	87.89
824.863	79.7
825.04	87.89
825.218	157.52
825.396	132.95
825.574	75.6
825.751	10.07
825.929	75.6
826.107	91.99
826.284	57.17
826.462	100.18
826.639	55.12
826.817	79.7
826.994	83.8
827.172	40.79
827.349	145.24
827.527	48.98
827.704	16.21
827.882	157.52
828.059	81.75
828.237	22.36
828.414	120.66
828.591	51.03
828.769	122.71
828.946	14.17
829.124	157.52
829.301	100.18
829.478	30.55
829.655	71.51
829.833	141.14
830.01	-20.65
830.187	110.42
830.364	59.22
830.542	89.94
830.719	116.56
830.896	77.65
831.073	38.74
831.25	147.28
831.427	132.95
831.604	22.36
831.782	63.32
831.959	91.99
832.136	79.7
832.313	42.84
832.49	12.12
832.667	83.8
832.844	59.22
833.021	132.95
833.198	100.18
833.374	63.32
833.551	28.5
833.728	69.46
833.905	83.8
834.082	18.26
834.259	44.88
834.436	51.03
834.612	8.02
834.789	104.28
834.966	96.08
835.143	14.17
835.319	71.51
835.496	149.33
835.673	63.32
835.85	83.8
836.026	91.99
836.203	75.6
836.38	67.41
836.556	36.69
836.733	40.79
836.909	69.46
837.086	59.22
837.262	5.97
837.439	53.08
837.616	-30.89
837.792	69.46
837.968	1.88
838.145	-37.03
838.321	20.31
838.498	96.08
838.674	1.88
838.851	26.45
839.027	100.18
839.203	28.5
839.38	24.4
839.556	94.04
839.732	38.74
839.909	67.41
840.085	69.46
840.261	-6.31
840.437	30.55
840.614	14.17
840.79	36.69
840.966	12.12
841.142	59.22
841.318	12.12
841.494	124.76
841.671	151.38
841.847	10.07
842.023	18.26
842.199	67.41
842.375	1.88
842.551	20.31
842.727	14.17
842.903	118.61
843.079	-22.7
843.255	96.08
843.431	69.46
843.607	51.03
843.783	3.93
843.959	38.74
844.134	3.93
844.31	83.8
844.486	30.55
844.662	40.79
844.838	44.88
845.013	-39.08
845.189	104.28
845.365	100.18
845.541	32.6
845.716	-4.27
845.892	77.65
846.068	1.88
846.244	-14.51
846.419	100.18
846.595	87.89
846.77	-61.61
846.946	122.71
847.122	28.5
847.297	96.08
847.473	130.9
847.648	81.75
847.824	42.84
847.999	-45.23
848.175	46.93
848.35	75.6
848.526	46.93
848.701	34.64
848.876	77.65
849.052	46.93
849.227	118.61
849.403	-12.46
849.578	69.46
849.753	91.99
849.929	63.32
850.104	-12.46
850.279	-30.89
850.454	42.84
850.63	51.03
850.805	26.45
850.98	55.12
851.155	34.64
851.33	-41.13
851.505	18.26
851.681	165.71
851.856	1.88
852.031	36.69
852.206	-4.27
852.381	83.8
852.556	28.5
852.731	36.69
852.906	51.03
853.081	75.6
853.256	42.84
853.431	20.31
853.606	3.93
853.781	100.18
853.956	-51.37
854.131	18.26
854.305	-20.65
854.48	69.46
854.655	18.26
854.83	-10.41
855.005	-51.37
855.18	51.03
855.354	-2.22
855.529	-47.27
855.704	3.93
855.879	32.6
856.053	-16.55
856.228	75.6
856.403	-22.7
856.577	42.84
856.752	75.6
856.926	3.93
857.101	10.07
857.276	-6.31
857.45	141.14
857.625	10.07
857.799	-49.32
857.974	-14.51
858.148	-20.65
858.323	-14.51
858.497	34.64
858.672	85.84
858.846	-28.84
859.02	77.65
859.195	-69.8
859.369	10.07
859.543	-22.7
859.718	44.88
859.892	26.45
860.066	-8.36
860.241	-2.22
860.415	-20.65
860.589	-39.08
860.763	12.12
860.938	3.93
861.112	28.5
861.286	100.18
861.46	102.23
861.634	38.74
861.808	61.27
861.982	-22.7
862.157	40.79
862.331	-0.17
862.505	5.97
862.679	-26.79
862.853	-28.84
863.027	-10.41
863.201	-12.46
863.375	10.07
863.549	30.55
863.722	67.41
863.896	10.07
864.07	-37.03
864.244	63.32
864.418	28.5
864.592	-0.17
864.766	-16.55
864.939	-4.27
865.113	-14.51
865.287	104.28
865.461	-20.65
865.634	30.55
865.808	5.97
865.982	36.69
866.156	59.22
866.329	34.64
866.503	-34.99
866.676	1.88
866.85	22.36
867.024	28.5
867.197	18.26
867.371	81.75
867.544	30.55
867.718	10.07
867.891	30.55
868.065	-2.22
868.238	46.93
868.412	71.51
868.585	26.45
868.759	36.69
868.932	26.45
869.105	-6.31
869.279	16.21
869.452	-14.51
869.625	-30.89
869.799	5.97
869.972	42.84
870.145	-18.6
870.319	61.27
870.492	-12.46
870.665	-6.31
870.838	51.03
871.011	-92.33
871.185	16.21
871.358	42.84
871.531	51.03
871.704	-30.89
871.877	59.22
872.05	1.88
872.223	-20.65
872.396	51.03
872.569	36.69
872.742	14.17
872.915	-22.7
873.088	-55.47
873.261	44.88
873.434	1.88
873.607	91.99
873.78	34.64
873.953	20.31
874.126	12.12
874.299	57.17
874.471	61.27
874.644	-14.51
874.817	28.5
874.99	-63.66
875.163	-45.23
875.335	10.07
875.508	-14.51
875.681	44.88
875.853	42.84
876.026	-28.84
876.199	42.84
876.371	63.32
876.544	1.88
876.717	-30.89
876.889	30.55
877.062	-0.17
877.234	-12.46
877.407	26.45
877.579	48.98
877.752	8.02
877.924	61.27
878.097	59.22
878.269	-30.89
878.442	-28.84
878.614	71.51
878.786	38.74
878.959	26.45
879.131	-47.27
879.303	20.31
879.476	65.36
879.648	63.32
879.82	69.46
879.993	-10.41
880.165	-37.03
880.337	75.6
880.509	12.12
880.681	-98.47
880.854	67.41
881.026	-2.22
881.198	120.66
881.37	-10.41
881.542	-10.41
881.714	91.99
881.886	3.93
882.058	-6.31
882.23	38.74
882.402	20.31
882.574	51.03
882.746	57.17
882.918	61.27
883.09	5.97
883.262	3.93
883.434	-22.7
883.606	16.21
883.778	14.17
883.95	51.03
884.122	30.55
884.293	48.98
884.465	-2.22
884.637	1.88
884.809	40.79
884.98	34.64
885.152	5.97
885.324	100.18
885.496	-34.99
885.667	67.41
885.839	83.8
886.011	51.03
886.182	-6.31
886.354	-8.36
886.525	14.17
886.697	14.17
886.869	10.07
887.04	85.84
887.212	16.21
887.383	28.5
887.555	63.32
887.726	3.93
887.897	-69.8
888.069	-8.36
888.24	-12.46
888.412	10.07
888.583	5.97
888.754	46.93
888.926	-77.99
889.097	3.93
889.268	-47.27
889.44	135
889.611	26.45
889.782	-37.03
889.953	-71.85
890.125	126.8
890.296	-55.47
890.467	-22.7
890.638	-49.32
890.809	16.21
890.98	42.84
891.151	46.93
891.323	46.93
891.494	-14.51
891.665	-28.84
891.836	18.26
892.007	-43.18
892.178	-55.47
892.349	18.26
892.52	-65.71
892.691	-28.84
892.862	-14.51
893.032	-59.56
893.203	53.08
893.374	53.08
893.545	42.84
893.716	-69.8
893.887	18.26
894.057	-20.65
894.228	-16.55
894.399	-18.6
894.57	14.17
894.74	-37.03
894.911	30.55
895.082	-61.61
895.253	26.45
895.423	5.97
895.594	-12.46
895.764	44.88
895.935	12.12
896.106	83.8
896.276	14.17
896.447	-53.42
896.617	42.84
896.788	30.55
896.958	-8.36
897.129	-6.31
897.299	3.93
897.47	122.71
897.64	85.84
897.81	28.5
897.981	10.07
898.151	-55.47
898.322	53.08
898.492	-4.27
898.662	-30.89
898.832	10.07
899.003	26.45
899.173	20.31
899.343	-28.84
899.513	-67.75
