Data from USB4F104151__251__14-34-15-934.txt Node

Date: Thu Mar 13 14:34:15 EDT 2025
User: louis
Spectrometer: USB4F10415
Trigger mode: 4
Integration Time (sec): 2.500000E-2
Scans to average: 1
Electric dark correction enabled: true
Nonlinearity correction enabled: false
Boxcar width: 0
XAxis mode: Wavelengths
Number of Pixels in Spectrum: 3648
>>>>>Begin Spectral Data<<<<<
178.204	-146.94
178.424	-146.94
178.644	-146.94
178.864	-167.42
179.084	-210.43
179.304	47.62
179.524	-22.02
179.744	-11.78
179.964	18.94
180.184	-36.35
180.404	68.09
180.624	39.42
180.844	27.14
181.064	-36.35
181.283	27.14
181.503	-67.07
181.723	-54.78
181.943	-81.41
182.163	125.44
182.383	-17.92
182.602	8.7
182.822	45.57
183.042	-22.02
183.262	18.94
183.482	8.7
183.701	0.51
183.921	74.24
184.141	-7.68
184.361	45.57
184.58	-54.78
184.8	41.47
185.02	41.47
185.239	66.05
185.459	8.7
185.679	-38.4
185.898	-13.82
186.118	-3.58
186.338	8.7
186.557	119.29
186.777	-60.93
186.997	57.86
187.216	16.9
187.436	66.05
187.655	0.51
187.875	16.9
188.095	2.56
188.314	6.66
188.534	25.09
188.753	-24.06
188.973	49.66
189.192	0.51
189.412	4.61
189.631	-9.73
189.851	66.05
190.07	68.09
190.29	12.8
190.509	33.28
190.729	37.38
190.948	72.19
191.168	164.35
191.387	0.51
191.607	27.14
191.826	29.18
192.045	-13.82
192.265	4.61
192.484	31.23
192.704	10.75
192.923	-32.26
193.142	41.47
193.362	2.56
193.581	96.77
193.8	31.23
194.02	35.33
194.239	6.66
194.458	35.33
194.678	57.86
194.897	-40.45
195.116	4.61
195.335	68.09
195.555	98.81
195.774	-30.21
195.993	33.28
196.212	84.48
196.432	49.66
196.651	-7.68
196.87	0.51
197.089	139.77
197.308	-7.68
197.528	10.75
197.747	-46.59
197.966	70.14
198.185	41.47
198.404	-7.68
198.623	45.57
198.842	-1.54
199.062	57.86
199.281	66.05
199.5	16.9
199.719	59.9
199.938	25.09
200.157	35.33
200.376	2.56
200.595	90.62
200.814	43.52
201.033	-54.78
201.252	115.2
201.471	-9.73
201.69	12.8
201.909	37.38
202.128	23.04
202.347	-32.26
202.566	-5.63
202.785	27.14
203.004	-40.45
203.223	82.43
203.442	61.95
203.661	41.47
203.879	12.8
204.098	68.09
204.317	68.09
204.536	25.09
204.755	33.28
204.974	16.9
205.193	94.72
205.411	70.14
205.63	45.57
205.849	47.62
206.068	-46.59
206.287	53.76
206.505	45.57
206.724	33.28
206.943	51.71
207.162	-28.16
207.381	84.48
207.599	66.05
207.818	0.51
208.037	25.09
208.255	16.9
208.474	74.24
208.693	-44.54
208.911	61.95
209.13	33.28
209.349	35.33
209.567	0.51
209.786	76.29
210.005	27.14
210.223	45.57
210.442	-28.16
210.661	59.9
210.879	8.7
211.098	37.38
211.316	76.29
211.535	43.52
211.753	-48.64
211.972	14.85
212.191	-89.6
212.409	-15.87
212.628	51.71
212.846	61.95
213.065	10.75
213.283	86.53
213.502	18.94
213.72	61.95
213.938	-24.06
214.157	-3.58
214.375	31.23
214.594	-7.68
214.812	-13.82
215.031	94.72
215.249	53.76
215.467	37.38
215.686	25.09
215.904	135.68
216.122	47.62
216.341	49.66
216.559	66.05
216.778	16.9
216.996	37.38
217.214	-15.87
217.432	-40.45
217.651	-30.21
217.869	51.71
218.087	61.95
218.306	18.94
218.524	8.7
218.742	-30.21
218.96	41.47
219.179	-5.63
219.397	74.24
219.615	25.09
219.833	-38.4
220.051	-42.5
220.27	14.85
220.488	10.75
220.706	61.95
220.924	-28.16
221.142	-3.58
221.36	10.75
221.578	0.51
221.796	-5.63
222.015	18.94
222.233	18.94
222.451	43.52
222.669	-56.83
222.887	27.14
223.105	-19.97
223.323	-34.3
223.541	-22.02
223.759	29.18
223.977	16.9
224.195	27.14
224.413	82.43
224.631	45.57
224.849	47.62
225.067	109.05
225.285	33.28
225.503	-13.82
225.721	-54.78
225.939	39.42
226.157	2.56
226.375	59.9
226.592	-30.21
226.81	57.86
227.028	86.53
227.246	76.29
227.464	41.47
227.682	12.8
227.9	25.09
228.117	-38.4
228.335	16.9
228.553	-69.12
228.771	0.51
228.989	59.9
229.206	49.66
229.424	-60.93
229.642	-32.26
229.86	12.8
230.077	-40.45
230.295	45.57
230.513	14.85
230.731	33.28
230.948	68.09
231.166	139.77
231.384	0.51
231.601	-15.87
231.819	86.53
232.037	-52.74
232.254	-7.68
232.472	53.76
232.689	-85.5
232.907	0.51
233.125	-15.87
233.342	12.8
233.56	57.86
233.777	-22.02
233.995	14.85
234.213	-17.92
234.43	90.62
234.648	12.8
234.865	-1.54
235.083	59.9
235.3	102.91
235.518	102.91
235.735	33.28
235.953	2.56
236.17	107.01
236.388	35.33
236.605	8.7
236.822	8.7
237.04	18.94
237.257	33.28
237.475	-30.21
237.692	90.62
237.909	12.8
238.127	-32.26
238.344	53.76
238.562	33.28
238.779	35.33
238.996	37.38
239.214	0.51
239.431	82.43
239.648	51.71
239.865	49.66
240.083	57.86
240.3	41.47
240.517	53.76
240.735	49.66
240.952	123.39
241.169	57.86
241.386	-38.4
241.603	-34.3
241.821	12.8
242.038	12.8
242.255	59.9
242.472	-62.98
242.689	49.66
242.907	0.51
243.124	-7.68
243.341	-15.87
243.558	-24.06
243.775	-24.06
243.992	-62.98
244.209	-3.58
244.426	129.53
244.643	43.52
244.86	16.9
245.078	74.24
245.295	100.86
245.512	25.09
245.729	-15.87
245.946	49.66
246.163	8.7
246.38	41.47
246.597	86.53
246.814	107.01
247.031	-28.16
247.248	-7.68
247.464	-15.87
247.681	8.7
247.898	35.33
248.115	-44.54
248.332	-5.63
248.549	57.86
248.766	39.42
248.983	16.9
249.2	-7.68
249.417	72.19
249.633	-11.78
249.85	-22.02
250.067	59.9
250.284	-48.64
250.501	61.95
250.717	57.86
250.934	33.28
251.151	10.75
251.368	-11.78
251.585	-7.68
251.801	-30.21
252.018	29.18
252.235	86.53
252.451	-13.82
252.668	-7.68
252.885	119.29
253.102	-15.87
253.318	0.51
253.535	-5.63
253.752	25.09
253.968	25.09
254.185	-17.92
254.401	-38.4
254.618	12.8
254.835	-24.06
255.051	10.75
255.268	41.47
255.484	-11.78
255.701	20.99
255.917	59.9
256.134	20.99
256.351	49.66
256.567	-1.54
256.784	33.28
257	-87.55
257.217	27.14
257.433	16.9
257.65	8.7
257.866	92.67
258.082	4.61
258.299	37.38
258.515	0.51
258.732	-38.4
258.948	-15.87
259.165	20.99
259.381	37.38
259.597	-19.97
259.814	-11.78
260.03	10.75
260.246	76.29
260.463	33.28
260.679	43.52
260.895	0.51
261.112	100.86
261.328	47.62
261.544	25.09
261.761	49.66
261.977	59.9
262.193	-22.02
262.409	55.81
262.626	66.05
262.842	-19.97
263.058	4.61
263.274	27.14
263.49	55.81
263.707	-15.87
263.923	90.62
264.139	12.8
264.355	-30.21
264.571	94.72
264.787	49.66
265.004	70.14
265.22	70.14
265.436	10.75
265.652	-60.93
265.868	25.09
266.084	-5.63
266.3	51.71
266.516	-13.82
266.732	27.14
266.948	12.8
267.164	-24.06
267.38	66.05
267.596	43.52
267.812	53.76
268.028	0.51
268.244	-7.68
268.46	6.66
268.676	57.86
268.892	6.66
269.108	-7.68
269.324	-48.64
269.54	8.7
269.756	72.19
269.972	-73.21
270.188	-22.02
270.403	35.33
270.619	43.52
270.835	12.8
271.051	49.66
271.267	0.51
271.483	8.7
271.698	0.51
271.914	49.66
272.13	8.7
272.346	-52.74
272.562	-44.54
272.777	4.61
272.993	-3.58
273.209	25.09
273.425	2.56
273.64	4.61
273.856	90.62
274.072	-19.97
274.287	-30.21
274.503	57.86
274.719	-7.68
274.934	66.05
275.15	-15.87
275.366	-52.74
275.581	37.38
275.797	-40.45
276.012	8.7
276.228	-15.87
276.444	20.99
276.659	43.52
276.875	8.7
277.09	-7.68
277.306	29.18
277.521	8.7
277.737	20.99
277.952	-24.06
278.168	35.33
278.383	12.8
278.599	-34.3
278.814	20.99
279.03	-22.02
279.245	12.8
279.461	25.09
279.676	139.77
279.892	-32.26
280.107	-48.64
280.322	2.56
280.538	2.56
280.753	33.28
280.969	8.7
281.184	6.66
281.399	-19.97
281.615	-15.87
281.83	12.8
282.045	33.28
282.26	8.7
282.476	119.29
282.691	43.52
282.906	8.7
283.122	-24.06
283.337	-40.45
283.552	39.42
283.767	-22.02
283.983	35.33
284.198	53.76
284.413	76.29
284.628	-44.54
284.843	0.51
285.058	0.51
285.274	33.28
285.489	27.14
285.704	-7.68
285.919	-11.78
286.134	-52.74
286.349	2.56
286.564	-44.54
286.779	121.34
286.995	-46.59
287.21	-7.68
287.425	102.91
287.64	-11.78
287.855	70.14
288.07	0.51
288.285	104.96
288.5	57.86
288.715	51.71
288.93	-13.82
289.145	-5.63
289.36	57.86
289.575	90.62
289.79	37.38
290.004	27.14
290.219	-15.87
290.434	98.81
290.649	0.51
290.864	8.7
291.079	-5.63
291.294	-30.21
291.509	47.62
291.724	33.28
291.938	35.33
292.153	-28.16
292.368	0.51
292.583	45.57
292.798	37.38
293.012	66.05
293.227	41.47
293.442	-13.82
293.657	86.53
293.871	107.01
294.086	66.05
294.301	18.94
294.516	-34.3
294.73	-105.98
294.945	-40.45
295.16	2.56
295.374	121.34
295.589	37.38
295.804	70.14
296.018	29.18
296.233	47.62
296.447	45.57
296.662	-11.78
296.877	49.66
297.091	33.28
297.306	45.57
297.52	0.51
297.735	78.33
297.949	16.9
298.164	-40.45
298.378	23.04
298.593	-44.54
298.807	-7.68
299.022	25.09
299.236	51.71
299.451	2.56
299.665	33.28
299.88	8.7
300.094	-52.74
300.309	53.76
300.523	100.86
300.737	25.09
300.952	49.66
301.166	20.99
301.381	25.09
301.595	0.51
301.809	-69.12
302.024	16.9
302.238	-40.45
302.452	18.94
302.667	-17.92
302.881	33.28
303.095	-5.63
303.309	-40.45
303.524	59.9
303.738	51.71
303.952	-93.69
304.166	-56.83
304.381	-67.07
304.595	98.81
304.809	-54.78
305.023	66.05
305.237	0.51
305.452	59.9
305.666	76.29
305.88	-24.06
306.094	-3.58
306.308	86.53
306.522	45.57
306.736	-52.74
306.95	-7.68
307.164	8.7
307.379	59.9
307.593	164.35
307.807	66.05
308.021	43.52
308.235	16.9
308.449	-22.02
308.663	74.24
308.877	59.9
309.091	-54.78
309.305	33.28
309.519	-65.02
309.733	94.72
309.947	-17.92
310.161	25.09
310.374	70.14
310.588	18.94
310.802	-58.88
311.016	33.28
311.23	-13.82
311.444	-28.16
311.658	10.75
311.872	121.34
312.085	45.57
312.299	86.53
312.513	33.28
312.727	25.09
312.941	0.51
313.154	53.76
313.368	-1.54
313.582	23.04
313.796	-40.45
314.009	88.57
314.223	-34.3
314.437	29.18
314.651	-13.82
314.864	-22.02
315.078	-13.82
315.292	27.14
315.505	-7.68
315.719	57.86
315.933	-5.63
316.146	-36.35
316.36	27.14
316.573	66.05
316.787	0.51
317.001	-36.35
317.214	39.42
317.428	-5.63
317.641	49.66
317.855	84.48
318.068	2.56
318.282	-3.58
318.495	90.62
318.709	16.9
318.922	41.47
319.136	59.9
319.349	72.19
319.563	8.7
319.776	37.38
319.99	25.09
320.203	51.71
320.417	55.81
320.63	41.47
320.843	78.33
321.057	16.9
321.27	-11.78
321.483	18.94
321.697	-11.78
321.91	115.2
322.124	98.81
322.337	10.75
322.55	-77.31
322.763	70.14
322.977	35.33
323.19	-11.78
323.403	27.14
323.617	86.53
323.83	37.38
324.043	-7.68
324.256	27.14
324.469	27.14
324.683	66.05
324.896	76.29
325.109	82.43
325.322	-1.54
325.535	80.38
325.748	53.76
325.962	4.61
326.175	29.18
326.388	-15.87
326.601	78.33
326.814	27.14
327.027	41.47
327.24	8.7
327.453	12.8
327.666	43.52
327.879	16.9
328.092	66.05
328.305	33.28
328.518	27.14
328.731	74.24
328.944	43.52
329.157	82.43
329.37	-13.82
329.583	66.05
329.796	-13.82
330.009	35.33
330.222	41.47
330.435	123.39
330.648	-69.12
330.861	-28.16
331.073	-30.21
331.286	16.9
331.499	-75.26
331.712	35.33
331.925	-1.54
332.138	8.7
332.35	59.9
332.563	16.9
332.776	82.43
332.989	-32.26
333.202	33.28
333.414	41.47
333.627	-11.78
333.84	-15.87
334.053	80.38
334.265	-48.64
334.478	-5.63
334.691	70.14
334.903	59.9
335.116	16.9
335.329	20.99
335.541	61.95
335.754	53.76
335.966	4.61
336.179	35.33
336.392	-19.97
336.604	4.61
336.817	59.9
337.029	8.7
337.242	2.56
337.454	23.04
337.667	86.53
337.88	88.57
338.092	-24.06
338.305	76.29
338.517	57.86
338.729	96.77
338.942	109.05
339.154	-15.87
339.367	-60.93
339.579	92.67
339.792	-44.54
340.004	139.77
340.217	8.7
340.429	39.42
340.641	-22.02
340.854	25.09
341.066	-30.21
341.278	-13.82
341.491	88.57
341.703	27.14
341.915	37.38
342.128	66.05
342.34	27.14
342.552	47.62
342.764	-46.59
342.977	-32.26
343.189	25.09
343.401	8.7
343.613	-52.74
343.826	0.51
344.038	20.99
344.25	-7.68
344.462	-32.26
344.674	66.05
344.886	0.51
345.099	61.95
345.311	-65.02
345.523	-22.02
345.735	-60.93
345.947	37.38
346.159	33.28
346.371	4.61
346.583	0.51
346.795	78.33
347.007	16.9
347.219	31.23
347.431	57.86
347.643	41.47
347.855	33.28
348.067	-5.63
348.279	33.28
348.491	16.9
348.703	61.95
348.915	8.7
349.127	-15.87
349.339	74.24
349.551	-56.83
349.763	37.38
349.975	41.47
350.187	90.62
350.399	-42.5
350.61	109.05
350.822	20.99
351.034	86.53
351.246	53.76
351.458	90.62
351.669	27.14
351.881	-15.87
352.093	57.86
352.305	41.47
352.517	29.18
352.728	74.24
352.94	41.47
353.152	4.61
353.363	2.56
353.575	25.09
353.787	123.39
353.999	59.9
354.21	125.44
354.422	-15.87
354.633	33.28
354.845	45.57
355.057	61.95
355.268	41.47
355.48	0.51
355.692	78.33
355.903	16.9
356.115	45.57
356.326	-81.41
356.538	84.48
356.749	-11.78
356.961	98.81
357.172	-28.16
357.384	-22.02
357.595	88.57
357.807	-36.35
358.018	43.52
358.23	39.42
358.441	2.56
358.653	61.95
358.864	100.86
359.075	-42.5
359.287	-32.26
359.498	41.47
359.709	33.28
359.921	51.71
360.132	16.9
360.344	41.47
360.555	-24.06
360.766	66.05
360.977	57.86
361.189	113.15
361.4	6.66
361.611	107.01
361.823	33.28
362.034	25.09
362.245	-32.26
362.456	57.86
362.667	90.62
362.879	49.66
363.09	47.62
363.301	98.81
363.512	55.81
363.723	27.14
363.935	41.47
364.146	39.42
364.357	-13.82
364.568	29.18
364.779	-69.12
364.99	53.76
365.201	53.76
365.412	47.62
365.623	-62.98
365.834	25.09
366.045	76.29
366.256	41.47
366.467	45.57
366.678	-13.82
366.889	29.18
367.1	51.71
367.311	10.75
367.522	-9.73
367.733	117.25
367.944	4.61
368.155	72.19
368.366	20.99
368.577	49.66
368.788	10.75
368.999	-22.02
369.209	109.05
369.42	92.67
369.631	107.01
369.842	84.48
370.053	-5.63
370.264	20.99
370.474	33.28
370.685	98.81
370.896	59.9
371.107	102.91
371.317	100.86
371.528	2.56
371.739	18.94
371.95	4.61
372.16	0.51
372.371	82.43
372.582	-22.02
372.792	10.75
373.003	25.09
373.214	68.09
373.424	59.9
373.635	10.75
373.846	20.99
374.056	4.61
374.267	49.66
374.477	41.47
374.688	-13.82
374.898	27.14
375.109	0.51
375.319	47.62
375.53	-7.68
375.74	29.18
375.951	-46.59
376.161	84.48
376.372	61.95
376.582	-40.45
376.793	82.43
377.003	-11.78
377.214	10.75
377.424	-28.16
377.635	59.9
377.845	10.75
378.055	-1.54
378.266	-1.54
378.476	57.86
378.686	-28.16
378.897	-22.02
379.107	16.9
379.317	33.28
379.528	-44.54
379.738	66.05
379.948	2.56
380.158	37.38
380.369	33.28
380.579	25.09
380.789	10.75
380.999	82.43
381.21	160.25
381.42	49.66
381.63	27.14
381.84	43.52
382.05	-17.92
382.261	92.67
382.471	111.1
382.681	-15.87
382.891	51.71
383.101	57.86
383.311	-3.58
383.521	78.33
383.731	-32.26
383.941	49.66
384.151	133.63
384.361	16.9
384.571	66.05
384.781	2.56
384.991	49.66
385.201	158.21
385.411	70.14
385.621	51.71
385.831	84.48
386.041	41.47
386.251	33.28
386.461	84.48
386.671	31.23
386.881	25.09
387.091	-28.16
387.301	70.14
387.511	-15.87
387.72	86.53
387.93	41.47
388.14	43.52
388.35	35.33
388.56	113.15
388.769	29.18
388.979	12.8
389.189	45.57
389.399	70.14
389.609	64
389.818	94.72
390.028	20.99
390.238	2.56
390.447	55.81
390.657	96.77
390.867	115.2
391.076	109.05
391.286	76.29
391.496	37.38
391.705	25.09
391.915	-9.73
392.125	82.43
392.334	41.47
392.544	72.19
392.753	139.77
392.963	102.91
393.172	127.49
393.382	57.86
393.591	131.58
393.801	0.51
394.01	90.62
394.22	53.76
394.429	107.01
394.639	49.66
394.848	82.43
395.058	84.48
395.267	125.44
395.477	76.29
395.686	57.86
395.895	111.1
396.105	119.29
396.314	78.33
396.524	82.43
396.733	129.53
396.942	147.97
397.152	104.96
397.361	80.38
397.57	53.76
397.78	33.28
397.989	74.24
398.198	156.16
398.407	133.63
398.617	123.39
398.826	66.05
399.035	92.67
399.244	107.01
399.453	76.29
399.663	57.86
399.872	86.53
400.081	143.87
400.29	164.35
400.499	84.48
400.708	186.88
400.917	123.39
401.127	115.2
401.336	145.92
401.545	215.55
401.754	115.2
401.963	92.67
402.172	145.92
402.381	66.05
402.59	55.81
402.799	98.81
403.008	152.06
403.217	82.43
403.426	107.01
403.635	160.25
403.844	147.97
404.053	141.82
404.262	49.66
404.471	217.6
404.68	115.2
404.888	127.49
405.097	188.93
405.306	156.16
405.515	137.73
405.724	158.21
405.933	160.25
406.142	168.45
406.35	174.59
406.559	139.77
406.768	190.97
406.977	246.27
407.185	238.08
407.394	172.54
407.603	248.32
407.812	274.94
408.02	238.08
408.229	233.98
408.438	223.74
408.646	225.79
408.855	295.42
409.064	238.08
409.272	221.69
409.481	328.19
409.69	227.84
409.898	264.7
410.107	352.76
410.315	377.34
410.524	266.75
410.733	297.47
410.941	373.24
411.15	393.72
411.358	381.43
411.567	467.45
411.775	451.07
411.984	461.3
412.192	457.21
412.401	565.75
412.609	559.61
412.818	553.46
413.026	541.18
413.234	532.98
413.443	532.98
413.651	551.42
413.86	619
414.068	688.63
414.276	707.06
414.485	678.39
414.693	696.82
414.901	864.75
415.11	733.68
415.318	815.6
415.526	815.6
415.734	901.62
415.943	934.39
416.151	909.81
416.359	860.66
416.567	975.35
416.776	973.3
416.984	1126.89
417.192	1044.98
417.4	1075.7
417.608	1083.89
417.817	1200.62
418.025	1135.09
418.233	1352.17
418.441	1237.49
418.649	1438.19
418.857	1452.52
419.065	1477.1
419.273	1458.67
419.481	1534.44
419.689	1579.5
419.897	1690.09
420.105	1634.79
420.313	1737.19
420.521	1878.5
420.729	1851.88
420.937	1878.5
421.145	1935.84
421.353	2122.21
421.561	2210.27
421.769	2224.61
421.977	2353.63
422.185	2171.36
422.393	2429.4
422.601	2560.47
422.809	2519.51
423.017	2587.1
423.224	2701.78
423.432	2865.62
423.64	2656.73
423.848	3035.6
424.056	2902.48
424.263	3236.3
424.471	3178.96
424.679	3264.97
424.887	3422.67
425.094	3490.25
425.302	3539.4
425.51	3723.72
425.718	3916.23
425.925	3748.29
426.133	3842.5
426.341	4213.18
426.548	4325.82
426.756	4350.4
426.964	4458.94
427.171	4688.31
427.379	4893.11
427.586	4823.48
427.794	4977.08
428.001	5169.59
428.209	5364.14
428.417	5425.58
428.624	5968.29
428.832	5695.91
429.039	5771.69
429.247	5740.97
429.454	6373.79
429.662	6701.47
429.869	6279.58
430.076	6607.26
430.284	6570.4
430.491	6709.66
430.699	7131.54
430.906	7092.63
431.114	7432.59
431.321	7555.47
431.528	7987.59
431.736	8161.67
431.943	8700.28
432.15	8438.14
432.358	8405.38
432.565	8851.83
432.772	8796.54
432.979	9199.99
433.187	9548.14
433.394	9617.77
433.601	9953.64
433.808	10166.63
434.016	10039.65
434.223	10514.78
434.43	11075.93
434.637	10969.43
434.844	11485.52
435.052	11735.37
435.259	11768.14
435.466	11614.54
435.673	11708.75
435.88	12366.15
436.087	13080.89
436.294	12931.39
436.501	12585.28
436.708	12994.87
436.915	13523.25
437.122	14186.79
437.329	14004.52
437.537	14584.1
437.743	14477.6
437.95	14620.96
438.157	15606.03
438.364	15849.74
438.571	15962.38
438.778	15728.91
438.985	17137.91
439.192	16634.11
439.399	17244.41
439.606	16918.78
439.813	17631.47
440.02	18716.9
440.227	18575.59
440.433	18260.2
440.64	18860.26
440.847	18677.99
441.054	19198.17
441.261	20521.16
441.467	19857.62
441.674	20553.93
441.881	21328.06
442.088	21098.69
442.294	20922.56
442.501	21602.49
442.708	21956.78
442.914	23064.74
443.121	24000.66
443.328	23038.11
443.534	24940.68
443.741	23984.27
443.948	23945.36
444.154	25723
444.361	25440.38
444.568	25577.59
444.774	25221.25
444.981	25778.29
445.187	26574.95
445.394	27762.78
445.6	27250.78
445.807	30033.97
446.013	28713.03
446.22	29218.88
446.426	30206
446.633	30765.1
446.839	31641.63
447.046	30240.82
447.252	32440.34
447.459	32020.5
447.665	32024.6
447.871	33196.04
448.078	34295.8
448.284	33177.61
448.491	33998.84
448.697	35317.73
448.903	35649.5
449.11	36147.16
449.316	35188.71
449.522	36124.63
449.728	37158.86
449.935	37439.43
450.141	37197.77
450.347	38105.02
450.553	37185.48
450.76	37402.57
450.966	38416.31
451.172	38111.16
451.378	39258.02
451.584	38422.45
451.791	39440.29
451.997	38993.84
452.203	39884.7
452.409	39993.25
452.615	39544.74
452.821	38078.39
453.027	37619.65
453.233	39776.16
453.44	38193.08
453.646	38590.39
453.852	38436.79
454.058	39417.77
454.264	38180.79
454.47	38893.49
454.676	38047.68
454.882	39499.69
455.088	36024.28
455.294	36413.4
455.5	37093.32
455.705	37240.78
455.911	36065.24
456.117	35604.45
456.323	34785.26
456.529	33091.59
456.735	34689.01
456.941	33574.91
457.147	32913.42
457.352	32043.03
457.558	31619.1
457.764	31612.96
457.97	30857.26
458.176	30464.05
458.381	30468.14
458.587	28995.65
458.793	28872.78
458.999	27619.42
459.204	29376.58
459.41	28868.68
459.616	26689.64
459.821	26802.28
460.027	26675.3
460.233	26284.14
460.438	25151.62
460.644	24887.43
460.85	23914.64
461.055	23269.53
461.261	23318.68
461.466	21530.81
461.672	20791.49
461.878	22454.44
462.083	20908.22
462.289	20615.37
462.494	20312.27
462.7	19448.02
462.905	18725.09
463.111	19634.39
463.316	19640.53
463.522	18964.7
463.727	19189.98
463.932	19097.82
464.138	18835.68
464.343	19024.09
464.549	18485.48
464.754	18813.15
464.959	18841.82
465.165	18544.87
465.37	17817.84
465.575	17199.35
465.781	18022.64
465.986	18147.56
466.191	17463.54
466.397	16836.86
466.602	16245
466.807	17006.84
467.012	16689.41
467.218	16802.05
467.423	16339.21
467.628	16662.79
467.833	17166.59
468.038	16513.28
468.244	16120.07
468.449	16566.53
468.654	16300.3
468.859	15913.23
469.064	15950.09
469.269	15391
469.474	15450.39
469.679	15550.74
469.885	15182.1
470.09	15290.65
470.295	15460.63
470.5	15008.03
470.705	15180.06
470.91	14692.64
471.115	14475.56
471.32	14600.48
471.525	14711.07
471.73	14334.25
471.935	14375.2
472.139	13715.76
472.344	13732.14
472.549	13869.36
472.754	13744.43
472.959	13300.02
473.164	13285.69
473.369	13025.59
473.574	13388.08
473.778	13361.46
473.983	13095.22
474.188	13373.75
474.393	12572.99
474.598	12792.12
474.802	12644.67
475.007	12296.52
475.212	12224.84
475.417	11796.81
475.621	11958.6
475.826	12017.99
476.031	11766.09
476.235	11323.73
476.44	11737.42
476.645	11506
476.849	11493.71
477.054	11313.49
477.259	11086.17
477.463	11186.52
477.668	10598.75
477.872	10893.66
478.077	11028.82
478.282	10635.61
478.486	10348.9
478.691	10490.21
478.895	10332.51
479.1	10529.12
479.304	10355.04
479.509	9982.31
479.713	10062.18
479.918	9806.19
480.122	9787.75
480.326	9939.3
480.531	9986.41
480.735	9875.82
480.94	9742.7
481.144	9957.74
481.348	9634.16
481.553	9689.45
481.757	9367.92
481.961	9472.37
482.166	9683.31
482.37	9630.06
482.574	9488.75
482.778	9439.6
482.983	9777.51
483.187	9490.8
483.391	9517.42
483.595	9275.76
483.8	9322.87
484.004	9605.49
484.208	9496.94
484.412	9355.63
484.616	9304.43
484.821	9554.29
485.025	9251.19
485.229	9529.71
485.433	9410.93
485.637	9439.6
485.841	9165.17
486.045	9269.62
486.249	9609.58
486.453	9300.34
486.657	9349.49
486.861	9259.38
487.065	9181.56
487.269	9339.25
487.473	9259.38
487.677	9527.66
487.881	9521.52
488.085	9335.15
488.289	9261.43
488.493	9322.87
488.697	9279.86
488.901	9458.03
489.105	9480.56
489.309	9533.81
489.512	9208.18
489.716	9400.69
489.92	9374.06
490.124	9359.73
490.328	9550.19
490.531	9267.57
490.735	9439.6
490.939	9466.22
491.143	9316.72
491.346	9265.52
491.55	9482.61
491.754	9668.97
491.958	9752.94
492.161	9548.14
492.365	9748.84
492.569	9709.93
492.772	9675.12
492.976	9709.93
493.18	9881.96
493.383	9806.19
493.587	9791.85
493.79	10019.18
493.994	9884.01
494.197	10146.15
494.401	10053.99
494.605	9953.64
494.808	10119.53
495.012	10256.74
495.215	10119.53
495.419	10279.27
495.622	10436.96
495.825	10379.62
496.029	10430.82
496.232	10742.11
496.436	10408.29
496.639	10965.34
496.843	11022.68
497.046	11045.21
497.249	10879.32
497.453	11137.37
497.656	11374.93
497.859	11290.96
498.063	11424.08
498.266	11669.84
498.469	11598.16
498.673	11673.93
498.876	11899.21
499.079	11891.02
499.282	11768.14
499.485	12224.84
499.689	12030.28
499.892	12308.8
500.095	12329.28
500.298	12611.9
500.501	12646.72
500.705	12863.8
500.908	12960.06
501.111	13142.33
501.314	13150.52
501.517	13449.52
501.72	13478.19
501.923	13365.56
502.126	13656.37
502.329	13828.4
502.532	14131.5
502.735	14033.19
502.938	14510.37
503.141	14272.81
503.344	14493.99
503.547	14788.89
503.75	14901.53
503.953	15034.65
504.156	15239.45
504.359	15233.3
504.562	15237.4
504.765	15417.62
504.968	15679.76
505.17	15716.62
505.373	15956.24
505.576	16328.97
505.779	16423.17
505.982	16318.73
506.185	16584.96
506.387	16937.21
506.59	17072.38
506.793	17191.16
506.996	17129.72
507.198	17795.31
507.401	17443.06
507.604	17690.87
507.807	18280.68
508.009	18245.87
508.212	18311.4
508.415	18540.77
508.617	18976.99
508.82	18989.28
509.022	18761.95
509.225	19511.51
509.428	19685.59
509.63	19517.65
509.833	19740.88
510.035	19935.44
510.238	20009.17
510.44	20109.52
510.643	20598.98
510.845	20822.21
511.048	20814.02
511.25	21151.93
511.453	21209.28
511.655	21840.05
511.858	21604.53
512.06	21698.74
512.262	21909.68
512.465	22104.24
512.667	22773.92
512.87	22874.27
513.072	22759.59
513.274	23388.32
513.477	23238.81
513.679	23607.45
513.881	23789.72
514.084	23883.92
514.286	23756.95
514.488	23836.82
514.69	24987.78
514.893	24770.69
515.095	24995.97
515.297	25550.97
515.499	25028.74
515.701	25526.39
515.904	25600.12
516.106	25933.94
516.308	26181.74
516.51	26337.39
516.712	26329.2
516.914	26935.4
517.116	27277.41
517.318	27523.16
517.52	27336.8
517.722	27285.6
517.925	27840.6
518.127	28051.54
518.329	28422.22
518.531	27920.47
518.733	28751.95
518.935	28588.11
519.136	28999.75
519.338	29235.27
519.54	29206.59
519.742	29714.49
519.944	29788.22
520.146	30234.67
520.348	30222.39
520.55	30306.35
520.752	30658.6
520.954	30892.07
521.155	30513.2
521.357	31272.99
521.559	31062.05
521.761	32165.91
521.963	31676.44
522.164	31821.85
522.366	31760.41
522.568	31979.54
522.77	31938.58
522.971	32725
523.173	32186.39
523.375	32733.2
523.576	32716.81
523.778	32595.98
523.98	33019.91
524.181	32886.79
524.383	32821.26
524.584	33263.62
524.786	33544.19
524.988	32841.74
525.189	33464.32
525.391	34152.44
525.592	33728.51
525.794	34019.32
525.995	34023.42
526.197	33908.73
526.398	33861.63
526.6	33992.7
526.801	34269.17
527.003	34258.93
527.204	34193.4
527.406	34263.03
527.607	34701.29
527.808	34736.11
528.01	33992.7
528.211	34410.48
528.412	35057.64
528.614	34437.11
528.815	34707.44
529.016	35170.28
529.218	34383.86
529.419	34742.25
529.62	34658.29
529.822	34654.19
530.023	34390
530.224	34402.29
530.425	34623.47
530.626	34379.76
530.828	34238.45
531.029	34891.76
531.23	34050.04
531.431	33908.73
531.632	34555.89
531.833	34494.45
532.035	34457.59
532.236	34480.11
532.437	34641.9
532.638	34160.63
532.839	34478.07
533.04	34584.56
533.241	34047.99
533.442	34598.9
533.643	34115.58
533.844	33914.87
534.045	34529.27
534.246	34371.57
534.447	34277.36
534.648	34062.33
534.849	34150.39
535.05	33849.34
535.251	33648.64
535.451	34064.38
535.652	33665.02
535.853	33699.84
536.054	33507.33
536.255	33812.48
536.456	33511.42
536.657	34056.18
536.857	33591.3
537.058	33277.96
537.259	33679.36
537.46	33380.35
537.66	33099.78
537.861	33214.47
538.062	33062.92
538.263	33443.84
538.463	33183.75
538.664	33050.63
538.865	33390.59
539.065	33228.8
539.266	32843.79
539.466	33421.31
539.667	32622.61
539.868	33226.76
540.068	32972.81
540.269	32868.36
540.469	33316.87
540.67	32847.88
540.87	32854.03
541.071	32694.29
541.271	32632.85
541.472	32954.38
541.672	32626.7
541.873	32565.26
542.073	32393.23
542.274	32661.52
542.474	32706.57
542.675	32663.57
542.875	32493.58
543.075	32172.05
543.276	32223.25
543.476	32727.05
543.676	32342.03
543.877	32395.28
544.077	32311.31
544.277	32200.72
544.478	32526.35
544.678	32387.09
544.878	32684.05
545.078	32454.67
545.279	32380.95
545.479	31973.4
545.679	32376.85
545.879	32487.44
546.079	32069.65
546.28	32024.6
546.48	32266.26
546.68	32641.04
546.88	32176.15
547.08	32477.2
547.28	32206.87
547.48	31811.61
547.68	32213.01
547.88	32278.55
548.081	32399.38
548.281	32059.41
548.481	32243.73
548.681	32489.49
548.881	32483.34
549.081	32348.18
549.28	32317.46
549.48	32452.62
549.68	32366.61
549.88	32743.44
550.08	32309.27
550.28	32405.52
550.48	32376.85
550.68	32616.46
550.88	32196.63
551.08	32632.85
551.279	32495.63
551.479	32321.55
551.679	32520.21
551.879	32364.56
552.079	32598.03
552.278	32378.9
552.478	32714.76
552.678	32526.35
552.878	32802.83
553.077	32426
553.277	32483.34
553.477	33003.53
553.676	32419.86
553.876	32747.53
554.076	32761.87
554.275	32788.49
554.475	32509.97
554.674	32608.27
554.874	32831.5
555.074	32589.84
555.273	32925.71
555.473	33087.5
555.672	32690.19
555.872	32698.38
556.071	32948.23
556.271	33060.87
556.47	32679.95
556.67	32610.32
556.869	32647.18
557.068	32749.58
557.268	33073.16
557.467	32966.66
557.667	33011.72
557.866	33099.78
558.065	33091.59
558.265	32892.94
558.464	32800.78
558.663	32911.37
558.863	32569.36
559.062	33363.97
559.261	32630.8
559.461	33472.51
559.66	32888.84
559.859	33067.02
560.058	32632.85
560.258	33150.98
560.457	32970.76
560.656	33107.97
560.855	32684.05
561.054	32940.04
561.253	32643.09
561.453	33112.07
561.652	33013.77
561.851	33069.06
562.05	32901.13
562.249	32712.72
562.448	33320.96
562.647	32978.95
562.846	32919.56
563.045	32950.28
563.244	32563.22
563.443	33193.99
563.642	32776.2
563.841	32536.59
564.04	32815.12
564.239	32673.81
564.438	32626.7
564.637	32878.6
564.836	32675.85
565.035	32323.6
565.234	33079.3
565.432	32483.34
565.631	32477.2
565.83	32544.78
566.029	32487.44
566.228	32428.05
566.427	32141.33
566.625	32077.85
566.824	32061.46
567.023	32329.75
567.222	31805.47
567.42	32411.67
567.619	32221.2
567.818	31846.43
568.016	32186.39
568.215	32444.43
568.414	31875.1
568.612	32210.96
568.811	31535.13
569.01	31815.71
569.208	31471.65
569.407	31608.86
569.605	31594.53
569.804	31881.24
570.002	31361.06
570.201	31553.57
570.4	31051.81
570.598	31326.24
570.797	30742.57
570.995	30910.5
571.193	30484.53
571.392	31029.29
571.59	30548.01
571.789	30449.71
571.987	30761
572.186	30670.89
572.384	30711.85
572.582	30611.5
572.781	30466.1
572.979	30003.25
573.177	30646.32
573.376	30046.26
573.574	30226.48
573.772	30169.14
573.971	29890.62
574.169	29917.24
574.367	29700.15
574.565	29812.79
574.763	29616.19
574.962	29462.59
575.16	29425.73
575.358	29544.51
575.556	28790.86
575.754	29440.06
575.952	29081.67
576.151	29298.75
576.349	28842.06
576.547	28973.13
576.745	28833.86
576.943	28751.95
577.141	28667.98
577.339	28717.13
577.537	28717.13
577.735	28524.62
577.933	28219.47
578.131	28383.31
578.329	27846.74
578.527	28368.98
578.725	28141.65
578.923	27977.81
579.121	28041.3
579.319	27734.1
579.516	28029.01
579.714	27742.3
579.912	27482.2
580.11	27631.71
580.308	27687
580.506	27119.71
580.704	27248.74
580.901	27476.06
581.099	27277.41
581.297	27078.75
581.495	27242.59
581.692	27175.01
581.89	26861.67
582.088	27052.13
582.285	26650.73
582.483	26876.01
582.681	26572.91
582.878	26693.74
583.076	26099.83
583.274	26525.8
583.471	26112.11
583.669	26212.46
583.866	26128.5
584.064	26486.89
584.262	25997.43
584.459	26384.49
584.657	25942.13
584.854	26415.21
585.052	25555.07
585.249	26103.92
585.447	26183.79
585.644	25524.35
585.841	25675.9
586.039	25913.46
586.236	25444.48
586.434	25342.08
586.631	25090.18
586.828	25184.38
587.026	25483.39
587.223	25368.7
587.42	24875.14
587.618	25319.55
587.815	25077.89
588.012	24823.94
588.21	24891.52
588.407	25223.3
588.604	24559.75
588.801	24469.64
588.999	24496.27
589.196	24504.46
589.393	24690.82
589.59	24641.67
589.787	24494.22
589.984	24086.67
590.182	24152.21
590.379	24789.13
590.576	24533.13
590.773	24223.89
590.97	24174.74
591.167	24187.02
591.364	23865.49
591.561	24277.13
591.758	23830.68
591.955	23963.79
592.152	24314
592.349	23875.73
592.546	24080.53
592.743	24205.45
592.94	23771.29
593.137	24025.23
593.334	23965.84
593.531	23236.77
593.727	23783.57
593.924	23586.97
594.121	23681.17
594.318	23861.4
594.515	23560.34
594.712	23668.89
594.908	23351.45
595.105	23623.83
595.302	23560.34
595.499	23550.1
595.696	23261.34
595.892	23197.85
596.089	23486.62
596.286	23373.98
596.482	23183.52
596.679	23435.42
596.876	23638.17
597.072	23275.68
597.269	23388.32
597.466	23265.44
597.662	23275.68
597.859	23441.56
598.055	23034.02
598.252	23158.94
598.448	23144.61
598.645	23183.52
598.841	23128.22
599.038	23320.73
599.234	23193.76
599.431	23160.99
599.627	23091.36
599.824	23304.35
600.02	22939.81
600.217	23287.96
600.413	23396.51
600.609	23068.83
600.806	23244.96
601.002	23470.23
601.198	23187.61
601.395	23126.18
601.591	23496.86
601.787	23347.36
601.984	23201.95
602.18	23384.22
602.376	23308.44
602.572	23097.5
602.769	23171.23
602.965	22737.06
603.161	23513.24
603.357	23253.15
603.553	23328.92
603.75	23310.49
603.946	23195.81
604.142	23656.6
604.338	23398.55
604.534	23582.87
604.73	23181.47
604.926	23597.21
605.122	23380.12
605.318	23298.2
605.514	23232.67
605.71	23255.2
605.906	23591.06
606.102	23361.69
606.298	23621.78
606.494	23748.76
606.69	23767.19
606.886	23838.87
607.082	23513.24
607.278	23994.51
607.474	23746.71
607.67	23898.26
607.866	23296.16
608.062	24201.36
608.257	23646.36
608.453	23769.24
608.649	24162.45
608.845	23548.06
609.041	24109.2
609.236	24098.96
609.432	23910.55
609.628	24043.67
609.824	24230.03
610.019	24078.48
610.215	24109.2
610.411	24053.9
610.606	24230.03
610.802	24019.09
610.998	24270.99
611.193	24389.77
611.389	24037.52
611.584	24037.52
611.78	23935.12
611.976	24270.99
612.171	24436.88
612.367	24250.51
612.562	24633.48
612.758	24170.64
612.953	24023.19
613.149	24782.98
613.344	24328.33
613.539	24664.2
613.735	24582.28
613.93	24467.59
614.126	24209.55
614.321	24715.4
614.517	24766.6
614.712	24926.34
614.907	24447.11
615.103	24627.34
615.298	24350.86
615.493	24965.25
615.688	24287.37
615.884	25137.28
616.079	24238.22
616.274	24606.86
616.47	24813.7
616.665	24744.07
616.86	24563.85
617.055	24467.59
617.25	24395.92
617.445	24742.02
617.641	24098.96
617.836	24434.83
618.031	24080.53
618.226	24807.56
618.421	24207.5
618.616	24631.43
618.811	24199.31
619.006	24539.27
619.201	23855.25
619.396	24131.73
619.591	24141.97
619.786	24187.02
619.981	23554.2
620.176	24170.64
620.371	23666.84
620.566	23978.13
620.761	23732.37
620.956	24010.9
621.151	23464.09
621.346	23738.52
621.541	22966.43
621.735	23554.2
621.93	22835.36
622.125	23025.82
622.32	23095.46
622.515	23029.92
622.709	22892.71
622.904	23034.02
623.099	22696.1
623.294	22468.78
623.488	22409.39
623.683	22710.44
623.878	22214.83
624.072	22393
624.267	22524.07
624.462	22331.56
624.656	21803.19
624.851	22116.53
625.046	21973.17
625.24	21665.97
625.435	21743.8
625.629	21555.38
625.824	21352.63
626.018	21528.76
626.213	21045.44
626.407	21182.65
626.602	21158.08
626.796	21145.79
626.991	20943.04
627.185	20771.01
627.38	20719.81
627.574	20515.01
627.768	20398.28
627.963	20394.18
628.157	20213.96
628.352	20461.77
628.546	20207.82
628.74	20156.62
628.935	19726.55
629.129	20068.56
629.323	19630.29
629.517	19701.97
629.712	19591.38
629.906	19419.35
630.1	19063.01
630.294	19173.6
630.489	19282.14
630.683	19216.6
630.877	18929.89
631.071	19054.81
631.265	18841.82
631.459	18815.2
631.653	18723.04
631.848	18393.32
632.042	18712.8
632.236	18514.15
632.43	18295.02
632.624	18323.69
632.818	18172.14
633.012	18036.97
633.206	17979.63
633.4	18002.16
633.594	17623.28
633.788	17651.95
633.982	17719.54
634.176	17615.09
634.369	17236.22
634.563	17436.92
634.757	17154.3
634.951	17516.79
635.145	17324.28
635.339	17307.9
635.533	16689.41
635.726	17027.32
635.92	16662.79
636.114	16713.98
636.308	16515.33
636.501	16429.32
636.695	16593.15
636.889	16574.72
637.083	16408.84
637.276	16326.92
637.47	16179.47
637.664	15876.37
637.857	15870.22
638.051	15913.23
638.244	15900.94
638.438	15427.86
638.632	15821.07
638.825	15601.94
639.019	15216.92
639.212	15286.55
639.406	15182.1
639.599	15272.21
639.793	15360.28
639.986	14805.28
640.18	15051.03
640.373	14723.36
640.567	14485.79
640.76	14838.05
640.954	14477.6
641.147	14291.24
641.34	14436.64
641.534	14299.43
641.727	14369.06
641.92	14289.19
642.114	14182.7
642.307	13981.99
642.5	14027.05
642.694	13809.97
642.887	13926.7
643.08	13834.54
643.273	13838.64
643.467	13703.47
643.66	13291.83
643.853	13302.07
644.046	13154.62
644.239	13224.25
644.432	13154.62
644.626	12851.52
644.819	13023.55
645.012	12794.17
645.205	12751.17
645.398	12613.95
645.591	12499.27
645.784	12493.12
645.977	12501.31
646.17	12765.5
646.363	12446.02
646.556	12089.67
646.749	12265.8
646.942	12173.64
647.135	12087.62
647.328	12020.04
647.521	11839.82
647.714	11901.26
647.907	11841.87
648.099	11643.21
648.292	11888.97
648.485	11682.13
648.678	11426.13
648.871	11573.58
649.064	11606.35
649.256	11364.69
649.449	11432.27
649.642	11163.99
649.835	11069.78
650.027	10953.05
650.22	11231.57
650.413	10717.53
650.605	11018.58
650.798	10791.26
650.991	10682.72
651.183	10883.42
651.376	10451.3
651.568	10785.12
651.761	10457.44
651.954	10463.58
652.146	10611.04
652.339	10305.89
652.531	10314.08
652.724	10152.29
652.916	10109.29
653.109	10064.23
653.301	10183.01
653.494	10223.97
653.686	9693.55
653.879	10174.82
654.071	9720.17
654.263	9843.05
654.456	9740.65
654.648	9800.04
654.84	9699.69
655.033	9623.92
655.225	9451.89
655.417	9550.19
655.61	9372.02
655.802	9372.02
655.994	9322.87
656.186	9320.82
656.379	9218.42
656.571	9265.52
656.763	9193.84
656.955	9240.95
657.148	9191.8
657.34	9023.86
657.532	8941.94
657.724	9060.73
657.916	8839.55
658.108	8943.99
658.3	8864.12
658.492	8692.09
658.684	8712.57
658.876	8460.67
659.068	8554.88
659.26	8577.41
659.452	8595.84
659.644	8503.68
659.836	8239.49
660.028	8495.49
660.22	8118.66
660.412	8237.44
660.604	8233.35
660.796	8288.64
660.988	8003.97
661.18	8155.52
661.372	8012.17
661.563	7999.88
661.755	7963.01
661.947	7977.35
662.139	7770.51
662.331	7678.35
662.522	7584.14
662.714	7567.76
662.906	7598.48
663.097	7504.27
663.289	7649.68
663.481	7332.24
663.673	7586.19
663.864	7377.3
664.056	7332.24
664.247	7397.78
664.439	7262.61
664.631	7283.09
664.822	7328.14
665.014	7315.86
665.205	7213.46
665.397	6994.33
665.588	7039.38
665.78	7102.87
665.971	7160.21
666.163	7111.06
666.354	7041.43
666.546	6818.2
666.737	6826.39
666.929	6728.09
667.12	6785.43
667.311	6705.56
667.503	6635.93
667.694	6726.04
667.885	6635.93
668.077	6590.88
668.268	6586.78
668.459	6416.8
668.651	6480.29
668.842	6697.37
669.033	6291.87
669.224	6322.59
669.416	6478.24
669.607	6351.26
669.798	6351.26
669.989	6250.91
670.18	6255.01
670.371	6246.82
670.563	6205.86
670.754	6240.67
670.945	6007.2
671.136	6136.23
671.327	6121.89
671.518	6035.88
671.709	5974.44
671.9	6039.97
672.091	5945.77
672.282	6019.49
672.473	5816.74
672.664	6011.3
672.855	5824.94
673.046	5947.81
673.237	5921.19
673.428	5964.2
673.619	5728.68
673.809	5745.06
674	5738.92
674.191	5804.46
674.382	5652.91
674.573	5755.3
674.764	5636.52
674.954	5814.7
675.145	5667.24
675.336	5546.41
675.527	5708.2
675.717	5556.65
675.908	5448.11
676.099	5452.2
676.289	5570.99
676.48	5628.33
676.671	5384.62
676.861	5654.95
677.052	5579.18
677.243	5333.42
677.433	5515.69
677.624	5417.39
677.814	5464.49
678.005	5372.33
678.195	5484.97
678.386	5384.62
678.576	5321.13
678.767	5392.81
678.957	5317.04
679.148	5333.42
679.338	5237.17
679.529	5378.48
679.719	5153.2
679.909	5398.96
680.1	5208.5
680.29	5345.71
680.481	5263.79
680.671	5153.2
680.861	5267.89
681.052	5317.04
681.242	5177.78
681.432	5278.13
681.622	5054.9
681.813	5173.68
682.003	5007.8
682.193	5110.19
682.383	5202.35
682.573	5093.81
682.764	5220.78
682.954	5099.95
683.144	4868.53
683.334	5038.52
683.524	5095.86
683.714	5061.04
683.904	5108.15
684.094	5001.65
684.284	5038.52
684.474	5038.52
684.664	5001.65
684.854	4917.68
685.044	4981.17
685.234	4972.98
685.424	4989.36
685.614	4970.93
685.804	4895.16
685.994	5099.95
686.184	5040.56
686.374	4860.34
686.564	4876.73
686.753	4870.58
686.943	4932.02
687.133	4899.25
687.323	4776.38
687.513	4866.49
687.702	4874.68
687.892	4696.5
688.082	4723.13
688.272	4841.91
688.461	4712.89
688.651	4753.85
688.841	4598.2
689.03	4614.59
689.22	4839.86
689.41	4778.42
689.599	4504
689.789	4686.26
689.979	4663.74
690.168	4592.06
690.358	4530.62
690.547	4506.04
690.737	4571.58
690.926	4399.55
691.116	4547
691.305	4698.55
691.495	4460.99
691.684	4409.79
691.874	4616.63
692.063	4385.21
692.252	4411.84
692.442	4491.71
692.631	4276.67
692.82	4401.6
693.01	4377.02
693.199	4544.95
693.388	4348.35
693.578	4440.51
693.767	4428.22
693.956	4356.54
694.146	4170.18
694.335	4346.3
694.524	4309.44
694.713	4211.14
694.902	4252.1
695.092	4346.3
695.281	4340.16
695.47	4428.22
695.659	4252.1
695.848	4286.91
696.037	4288.96
696.226	4207.04
696.415	4145.6
696.604	4311.49
696.793	4116.93
696.982	4194.75
697.171	4268.48
697.36	4139.46
697.549	4067.78
697.738	4129.22
697.927	4082.11
698.116	4133.31
698.305	4022.72
698.494	4063.68
698.683	4118.98
698.872	4188.61
699.061	4088.26
699.25	4172.22
699.438	3969.48
699.627	4030.91
699.816	4180.42
700.005	4121.03
700.193	4055.49
700.382	4088.26
700.571	3920.32
700.76	3951.04
700.948	3908.04
701.137	3938.76
701.326	4002.24
701.514	3805.64
701.703	3910.08
701.892	3930.56
702.08	4041.15
702.269	3867.08
702.457	3873.22
702.646	3879.36
702.834	3811.78
703.023	3908.04
703.212	3875.27
703.4	3867.08
703.589	3754.44
703.777	3760.58
703.965	3807.69
704.154	3719.62
704.342	3776.97
704.531	3785.16
704.719	3721.67
704.907	3779.01
705.096	3715.53
705.284	3779.01
705.472	3629.51
705.661	3779.01
705.849	3776.97
706.037	3731.91
706.226	3705.29
706.414	3662.28
706.602	3563.98
706.79	3613.13
706.979	3508.68
707.167	3656.14
707.355	3531.21
707.543	3682.76
707.731	3623.37
707.919	3492.3
708.107	3506.63
708.296	3658.18
708.484	3490.25
708.672	3432.91
708.86	3367.37
709.048	3465.68
709.236	3484.11
709.424	3563.98
709.612	3531.21
709.8	3492.3
709.988	3320.27
710.176	3357.13
710.364	3453.39
710.551	3293.65
710.739	3398.09
710.927	3404.24
711.115	3381.71
711.303	3355.08
711.491	3389.9
711.679	3346.89
711.866	3373.52
712.054	3400.14
712.242	3301.84
712.43	3396.04
712.617	3297.74
712.805	3236.3
712.993	3322.32
713.181	3320.27
713.368	3287.5
713.556	3221.97
713.744	3121.62
713.931	3355.08
714.119	3269.07
714.306	3146.19
714.494	3199.44
714.682	3240.4
714.869	3166.67
715.057	3170.77
715.244	3203.54
715.432	3166.67
715.619	3097.04
715.807	3113.42
715.994	3039.7
716.182	3174.86
716.369	3150.29
716.556	3076.56
716.744	3015.12
716.931	3008.98
717.119	3097.04
717.306	3043.79
717.493	2998.74
717.681	3121.62
717.868	2900.44
718.055	3129.81
718.242	3002.83
718.43	2951.63
718.617	3031.51
718.804	2863.57
718.991	3039.7
719.179	2933.2
719.366	2877.91
719.553	2957.78
719.74	2990.55
719.927	2931.16
720.114	2959.83
720.301	2974.16
720.488	2900.44
720.676	2736.6
720.863	2814.42
721.05	2974.16
721.237	2847.19
721.424	2812.37
721.611	2869.72
721.798	2761.17
721.985	2814.42
722.172	2806.23
722.358	2818.52
722.545	2791.89
722.732	2755.03
722.919	2791.89
723.106	2781.65
723.293	2789.85
723.48	2705.88
723.667	2730.45
723.853	2699.73
724.04	2705.88
724.227	2687.45
724.414	2748.89
724.6	2654.68
724.787	2695.64
724.974	2599.38
725.161	2640.34
725.347	2763.22
725.534	2712.02
725.72	2697.69
725.907	2765.27
726.094	2689.49
726.28	2628.06
726.467	2605.53
726.653	2671.06
726.84	2632.15
727.027	2732.5
727.213	2634.2
727.4	2664.92
727.586	2578.9
727.773	2666.97
727.959	2601.43
728.145	2599.38
728.332	2554.33
728.518	2460.12
728.705	2548.19
728.891	2437.59
729.077	2501.08
729.264	2542.04
729.45	2482.65
729.636	2595.29
729.823	2451.93
730.009	2552.28
730.195	2533.85
730.382	2560.47
730.568	2439.64
730.754	2539.99
730.94	2378.2
731.126	2400.73
731.313	2509.27
731.499	2370.01
731.685	2388.44
731.871	2413.02
732.057	2468.31
732.243	2488.79
732.429	2384.35
732.615	2378.2
732.801	2458.07
732.987	2306.52
733.173	2484.7
733.359	2281.95
733.545	2361.82
733.731	2327
733.917	2370.01
734.103	2312.67
734.289	2419.16
734.475	2236.89
734.661	2406.88
734.847	2314.72
735.033	2224.61
735.219	2404.83
735.404	2370.01
735.59	2349.53
735.776	2259.42
735.962	2265.57
736.148	2333.15
736.333	2429.4
736.519	2245.09
736.705	2288.09
736.89	2163.17
737.076	2232.8
737.262	2251.23
737.447	2269.66
737.633	2236.89
737.819	2220.51
738.004	2173.41
738.19	2171.36
738.375	2157.02
738.561	2183.65
738.747	2083.3
738.932	2150.88
739.118	2261.47
739.303	2214.37
739.489	2073.06
739.674	2058.72
739.859	2042.34
740.045	2157.02
740.23	2247.13
740.416	2105.82
740.601	2066.91
740.786	1991.14
740.972	2034.14
741.157	2064.86
741.342	2079.2
741.528	2091.49
741.713	2122.21
741.898	2056.67
742.084	2118.11
742.269	1909.22
742.454	1901.03
742.639	1931.75
742.824	1962.47
743.01	2005.47
743.195	1968.61
743.38	2011.62
743.565	1950.18
743.75	2011.62
743.935	2073.06
744.12	1950.18
744.305	1909.22
744.49	1872.36
744.675	1911.27
744.86	1966.56
745.045	1878.5
745.23	1874.4
745.415	1843.68
745.6	1819.11
745.785	1911.27
745.97	1790.44
746.155	1860.07
746.34	1765.86
746.525	1802.72
746.71	1894.88
746.895	1708.52
747.079	1731.05
747.264	1704.42
747.449	1862.12
747.634	1757.67
747.819	1802.72
748.003	1749.48
748.188	1731.05
748.373	1729
748.557	1763.81
748.742	1659.37
748.927	1681.89
749.111	1706.47
749.296	1694.18
749.481	1532.39
749.665	1579.5
749.85	1475.05
750.034	1573.35
750.219	1599.98
750.404	1583.59
750.588	1610.22
750.773	1550.82
750.957	1610.22
751.141	1548.78
751.326	1477.1
751.51	1497.58
751.695	1538.54
751.879	1450.47
752.064	1552.87
752.248	1452.52
752.432	1587.69
752.617	1466.86
752.801	1444.33
752.985	1409.51
753.17	1485.29
753.354	1409.51
753.538	1450.47
753.722	1487.34
753.907	1368.56
754.091	1343.98
754.275	1339.88
754.459	1270.25
754.643	1305.07
754.828	1368.56
755.012	1288.68
755.196	1331.69
755.38	1395.18
755.564	1327.6
755.748	1206.77
755.932	1354.22
756.116	1384.94
756.3	1212.91
756.484	1165.81
756.668	1241.58
756.852	1163.76
757.036	1214.96
757.22	1262.06
757.404	1221.1
757.588	1165.81
757.772	1200.62
757.956	1212.91
758.14	1198.57
758.323	1190.38
758.507	1167.85
758.691	1098.22
758.875	1174
759.059	1153.52
759.242	1122.8
759.426	1149.42
759.61	1092.08
759.794	1155.57
759.977	1106.42
760.161	1167.85
760.345	1049.07
760.528	1092.08
760.712	1130.99
760.895	1085.94
761.079	1081.84
761.263	1008.11
761.446	1108.46
761.63	1051.12
761.813	1012.21
761.997	1016.3
762.18	999.92
762.364	1061.36
762.547	1126.89
762.731	1059.31
762.914	1059.31
763.098	1038.83
763.281	979.44
763.464	897.52
763.648	934.39
763.831	963.06
764.015	973.3
764.198	938.48
764.381	942.58
764.564	1018.35
764.748	928.24
764.931	1028.59
765.114	991.73
765.297	987.63
765.481	930.29
765.664	903.67
765.847	993.78
766.03	967.15
766.213	846.32
766.397	928.24
766.58	942.58
766.763	926.19
766.946	920.05
767.129	870.9
767.312	862.71
767.495	885.23
767.678	770.55
767.861	897.52
768.044	918
768.227	903.67
768.41	748.02
768.593	868.85
768.776	895.47
768.959	856.56
769.142	909.81
769.324	788.98
769.507	893.43
769.69	846.32
769.873	803.32
770.056	885.23
770.239	807.41
770.421	868.85
770.604	848.37
770.787	780.79
770.97	797.17
771.152	756.21
771.335	862.71
771.518	786.93
771.7	893.43
771.883	819.7
772.066	745.97
772.248	850.42
772.431	768.5
772.613	805.36
772.796	719.35
772.978	780.79
773.161	836.08
773.343	852.47
773.526	623.09
773.708	682.49
773.891	637.43
774.073	776.69
774.256	770.55
774.438	852.47
774.621	764.4
774.803	860.66
774.985	782.84
775.168	666.1
775.35	715.25
775.532	729.59
775.715	670.2
775.897	696.82
776.079	725.49
776.261	643.57
776.444	635.38
776.626	666.1
776.808	639.48
776.99	610.81
777.173	639.48
777.355	635.38
777.537	754.16
777.719	590.33
777.901	670.2
778.083	565.75
778.265	547.32
778.447	651.77
778.629	586.23
778.811	647.67
778.993	594.42
779.175	557.56
779.357	592.37
779.539	573.94
779.721	700.92
779.903	616.95
780.085	614.9
780.267	526.84
780.449	637.43
780.631	606.71
780.812	551.42
780.994	594.42
781.176	524.79
781.358	557.56
781.54	512.5
781.721	573.94
781.903	557.56
782.085	561.66
782.267	492.02
782.448	485.88
782.63	578.04
782.812	487.93
782.993	508.41
783.175	463.35
783.357	512.5
783.538	500.22
783.72	502.26
783.901	418.3
784.083	512.5
784.264	508.41
784.446	438.78
784.627	471.54
784.809	406.01
784.99	418.3
785.172	438.78
785.353	483.83
785.535	438.78
785.716	467.45
785.897	389.63
786.079	444.92
786.26	385.53
786.441	504.31
786.623	449.02
786.804	403.96
786.985	479.74
787.167	451.07
787.348	389.63
787.529	434.68
787.71	469.5
787.891	463.35
788.073	317.95
788.254	309.76
788.435	377.34
788.616	356.86
788.797	369.15
788.978	455.16
789.159	451.07
789.34	436.73
789.522	295.42
789.703	311.8
789.884	320
790.065	369.15
790.246	406.01
790.427	393.72
790.607	426.49
790.788	350.71
790.969	344.57
791.15	358.91
791.331	397.82
791.512	322.04
791.693	254.46
791.874	295.42
792.054	328.19
792.235	344.57
792.416	297.47
792.597	387.58
792.778	266.75
792.958	426.49
793.139	360.95
793.32	381.43
793.5	281.08
793.681	344.57
793.862	350.71
794.042	238.08
794.223	254.46
794.404	322.04
794.584	223.74
794.765	276.99
794.945	373.24
795.126	291.32
795.306	363
795.487	215.55
795.667	342.52
795.848	309.76
796.028	320
796.209	272.89
796.389	291.32
796.57	193.02
796.75	238.08
796.93	238.08
797.111	186.88
797.291	262.65
797.471	311.8
797.652	147.97
797.832	174.59
798.012	227.84
798.192	164.35
798.373	246.27
798.553	209.4
798.733	227.84
798.913	178.69
799.093	229.88
799.274	172.54
799.454	205.31
799.634	248.32
799.814	328.19
799.994	205.31
800.174	270.84
800.354	281.08
800.534	207.36
800.714	197.12
800.894	289.28
801.074	190.97
801.254	172.54
801.434	254.46
801.614	162.3
801.794	264.7
801.974	999.92
802.154	197.12
802.334	225.79
802.514	217.6
802.693	217.6
802.873	207.36
803.053	182.78
803.233	291.32
803.413	207.36
803.592	240.12
803.772	213.5
803.952	254.46
804.131	180.73
804.311	217.6
804.491	270.84
804.67	82.43
804.85	221.69
805.03	238.08
805.209	182.78
805.389	174.59
805.568	139.77
805.748	152.06
805.928	168.45
806.107	131.58
806.287	203.26
806.466	180.73
806.646	201.21
806.825	98.81
807.004	193.02
807.184	188.93
807.363	256.51
807.543	213.5
807.722	164.35
807.901	250.36
808.081	270.84
808.26	98.81
808.439	184.83
808.619	115.2
808.798	199.16
808.977	242.17
809.156	225.79
809.336	193.02
809.515	197.12
809.694	125.44
809.873	229.88
810.052	160.25
810.231	180.73
810.411	250.36
810.59	213.5
810.769	109.05
810.948	164.35
811.127	109.05
811.306	100.86
811.485	111.1
811.664	172.54
811.843	98.81
812.022	141.82
812.201	94.72
812.38	184.83
812.559	152.06
812.737	131.58
812.916	66.05
813.095	125.44
813.274	145.92
813.453	143.87
813.632	203.26
813.811	125.44
813.989	66.05
814.168	107.01
814.347	82.43
814.526	98.81
814.704	174.59
814.883	156.16
815.062	70.14
815.24	133.63
815.419	137.73
815.598	92.67
815.776	121.34
815.955	131.58
816.133	102.91
816.312	104.96
816.49	92.67
816.669	0.51
816.847	143.87
817.026	170.49
817.204	86.53
817.383	90.62
817.561	123.39
817.74	123.39
817.918	111.1
818.097	27.14
818.275	131.58
818.453	131.58
818.632	76.29
818.81	141.82
818.988	49.66
819.167	172.54
819.345	78.33
819.523	94.72
819.701	107.01
819.879	139.77
820.058	43.52
820.236	113.15
820.414	33.28
820.592	96.77
820.77	72.19
820.948	115.2
821.127	53.76
821.305	109.05
821.483	86.53
821.661	109.05
821.839	86.53
822.017	57.86
822.195	66.05
822.373	158.21
822.551	131.58
822.729	156.16
822.907	113.15
823.085	125.44
823.262	121.34
823.44	100.86
823.618	35.33
823.796	8.7
823.974	61.95
824.152	78.33
824.329	70.14
824.507	82.43
824.685	66.05
824.863	49.66
825.04	94.72
825.218	158.21
825.396	82.43
825.574	107.01
825.751	66.05
825.929	45.57
826.107	135.68
826.284	137.73
826.462	66.05
826.639	53.76
826.817	35.33
826.994	94.72
827.172	35.33
827.349	123.39
827.527	107.01
827.704	72.19
827.882	96.77
828.059	41.47
828.237	45.57
828.414	107.01
828.591	4.61
828.769	41.47
828.946	51.71
829.124	147.97
829.301	84.48
829.478	43.52
829.655	86.53
829.833	29.18
830.01	39.42
830.187	57.86
830.364	107.01
830.542	61.95
830.719	90.62
830.896	20.99
831.073	135.68
831.25	0.51
831.427	133.63
831.604	2.56
831.782	41.47
831.959	74.24
832.136	100.86
832.313	39.42
832.49	-1.54
832.667	76.29
832.844	135.68
833.021	70.14
833.198	90.62
833.374	49.66
833.551	80.38
833.728	45.57
833.905	119.29
834.082	-7.68
834.259	12.8
834.436	107.01
834.612	66.05
834.789	82.43
834.966	0.51
835.143	49.66
835.319	0.51
835.496	125.44
835.673	35.33
835.85	-15.87
836.026	127.49
836.203	123.39
836.38	49.66
836.556	70.14
836.733	25.09
836.909	90.62
837.086	80.38
837.262	4.61
837.439	59.9
837.616	57.86
837.792	57.86
837.968	-40.45
838.145	25.09
838.321	59.9
838.498	66.05
838.674	66.05
838.851	10.75
839.027	0.51
839.203	66.05
839.38	39.42
839.556	33.28
839.732	76.29
839.909	20.99
840.085	39.42
840.261	16.9
840.437	27.14
840.614	10.75
840.79	94.72
840.966	59.9
841.142	78.33
841.318	68.09
841.494	55.81
841.671	-75.26
841.847	-36.35
842.023	31.23
842.199	90.62
842.375	82.43
842.551	-54.78
842.727	-52.74
842.903	76.29
843.079	0.51
843.255	43.52
843.431	37.38
843.607	98.81
843.783	12.8
843.959	74.24
844.134	102.91
844.31	76.29
844.486	20.99
844.662	-13.82
844.838	66.05
845.013	16.9
845.189	0.51
845.365	70.14
845.541	8.7
845.716	90.62
845.892	107.01
846.068	-15.87
846.244	10.75
846.419	-30.21
846.595	14.85
846.77	18.94
846.946	33.28
847.122	57.86
847.297	-3.58
847.473	100.86
847.648	37.38
847.824	49.66
847.999	-15.87
848.175	37.38
848.35	-28.16
848.526	109.05
848.701	33.28
848.876	59.9
849.052	68.09
849.227	84.48
849.403	25.09
849.578	-3.58
849.753	-7.68
849.929	41.47
850.104	-71.17
850.279	57.86
850.454	25.09
850.63	82.43
850.805	33.28
850.98	53.76
851.155	35.33
851.33	2.56
851.505	-19.97
851.681	86.53
851.856	-83.45
852.031	16.9
852.206	41.47
852.381	8.7
852.556	-40.45
852.731	68.09
852.906	-40.45
853.081	43.52
853.256	107.01
853.431	-11.78
853.606	4.61
853.781	0.51
853.956	8.7
854.131	23.04
854.305	-112.13
854.48	29.18
854.655	76.29
854.83	0.51
855.005	-85.5
855.18	76.29
855.354	16.9
855.529	41.47
855.704	35.33
855.879	16.9
856.053	16.9
856.228	10.75
856.403	43.52
856.577	94.72
856.752	-26.11
856.926	35.33
857.101	20.99
857.276	-24.06
857.45	-36.35
857.625	-5.63
857.799	-1.54
857.974	29.18
858.148	-60.93
858.323	-46.59
858.497	-38.4
858.672	66.05
858.846	-24.06
859.02	16.9
859.195	-65.02
859.369	-13.82
859.543	-62.98
859.718	27.14
859.892	-13.82
860.066	49.66
860.241	-85.5
860.415	-24.06
860.589	-3.58
860.763	51.71
860.938	-5.63
861.112	27.14
861.286	-1.54
861.46	41.47
861.634	59.9
861.808	47.62
861.982	-19.97
862.157	-65.02
862.331	-60.93
862.505	-44.54
862.679	25.09
862.853	16.9
863.027	-30.21
863.201	4.61
863.375	-40.45
863.549	-52.74
863.722	-3.58
863.896	123.39
864.07	-38.4
864.244	-13.82
864.418	53.76
864.592	47.62
864.766	20.99
864.939	37.38
865.113	-15.87
865.287	14.85
865.461	-36.35
865.634	6.66
865.808	8.7
865.982	-32.26
866.156	-5.63
866.329	18.94
866.503	-40.45
866.676	16.9
866.85	-32.26
867.024	-15.87
867.197	14.85
867.371	10.75
867.544	27.14
867.718	-71.17
867.891	74.24
868.065	-54.78
868.238	-40.45
868.412	14.85
868.585	-24.06
868.759	-44.54
868.932	-38.4
869.105	-44.54
869.279	61.95
869.452	51.71
869.625	-26.11
869.799	-15.87
869.972	-44.54
870.145	0.51
870.319	-15.87
870.492	-65.02
870.665	10.75
870.838	-46.59
871.011	-5.63
871.185	-48.64
871.358	-7.68
871.531	-22.02
871.704	-101.89
871.877	86.53
872.05	-19.97
872.223	-11.78
872.396	-13.82
872.569	53.76
872.742	-50.69
872.915	-69.12
873.088	2.56
873.261	-40.45
873.434	-40.45
873.607	-38.4
873.78	-7.68
873.953	-32.26
874.126	0.51
874.299	-5.63
874.471	-60.93
874.644	-56.83
874.817	-60.93
874.99	-7.68
875.163	-15.87
875.335	61.95
875.508	-44.54
875.681	-24.06
875.853	-44.54
876.026	4.61
876.199	-5.63
876.371	-32.26
876.544	0.51
876.717	0.51
876.889	-97.79
877.062	57.86
877.234	-36.35
877.407	14.85
877.579	-44.54
877.752	25.09
877.924	16.9
878.097	-36.35
878.269	-15.87
878.442	4.61
878.614	57.86
878.786	41.47
878.959	-58.88
879.131	0.51
879.303	-62.98
879.476	-65.02
879.648	33.28
879.82	6.66
879.993	8.7
880.165	18.94
880.337	14.85
880.509	-40.45
880.681	-32.26
880.854	0.51
881.026	23.04
881.198	35.33
881.37	-3.58
881.542	-40.45
881.714	-11.78
881.886	-24.06
882.058	10.75
882.23	16.9
882.402	4.61
882.574	37.38
882.746	51.71
882.918	66.05
883.09	-56.83
883.262	12.8
883.434	-15.87
883.606	12.8
883.778	-28.16
883.95	41.47
884.122	-28.16
884.293	66.05
884.465	41.47
884.637	4.61
884.809	4.61
884.98	25.09
885.152	84.48
885.324	37.38
885.496	-73.21
885.667	8.7
885.839	-77.31
886.011	18.94
886.182	55.81
886.354	27.14
886.525	16.9
886.697	-5.63
886.869	8.7
887.04	27.14
887.212	16.9
887.383	74.24
887.555	-28.16
887.726	12.8
887.897	-24.06
888.069	2.56
888.24	20.99
888.412	4.61
888.583	-69.12
888.754	-40.45
888.926	-40.45
889.097	8.7
889.268	-65.02
889.44	-42.5
889.611	-32.26
889.782	4.61
889.953	-126.46
890.125	35.33
890.296	-56.83
890.467	8.7
890.638	-3.58
890.809	-11.78
890.98	-3.58
891.151	-54.78
891.323	-32.26
891.494	-30.21
891.665	18.94
891.836	0.51
892.007	-46.59
892.178	-38.4
892.349	-65.02
892.52	-13.82
892.691	-1.54
892.862	-7.68
893.032	-19.97
893.203	20.99
893.374	-52.74
893.545	98.81
893.716	-36.35
893.887	41.47
894.057	-65.02
894.228	-48.64
894.399	-62.98
894.57	-7.68
894.74	-42.5
894.911	-36.35
895.082	-15.87
895.253	-36.35
895.423	35.33
895.594	-32.26
895.764	16.9
895.935	-32.26
896.106	-40.45
896.276	-50.69
896.447	-40.45
896.617	-32.26
896.788	-89.6
896.958	-48.64
897.129	-7.68
897.299	-62.98
897.47	49.66
897.64	8.7
897.81	-24.06
897.981	25.09
898.151	-101.89
898.322	27.14
898.492	14.85
898.662	-108.03
898.832	-56.83
899.003	-54.78
899.173	20.99
899.343	-120.32
899.513	-52.74
