Data from USB4F104151__274__14-34-39-827.txt Node

Date: Thu Mar 13 14:34:39 EDT 2025
User: louis
Spectrometer: USB4F10415
Trigger mode: 4
Integration Time (sec): 2.500000E-2
Scans to average: 1
Electric dark correction enabled: true
Nonlinearity correction enabled: false
Boxcar width: 0
XAxis mode: Wavelengths
Number of Pixels in Spectrum: 3648
>>>>>Begin Spectral Data<<<<<
178.204	-114.86
178.424	-114.86
178.644	-114.86
178.864	-127.14
179.084	-192.68
179.304	3.93
179.524	14.17
179.744	-20.65
179.964	-41.13
180.184	3.93
180.404	-8.36
180.624	5.97
180.844	36.69
181.064	-55.47
181.283	-24.75
181.503	40.79
181.723	44.88
181.943	-10.41
182.163	63.32
182.383	44.88
182.602	61.27
182.822	40.79
183.042	10.07
183.262	110.42
183.482	-2.22
183.701	-37.03
183.921	51.03
184.141	-45.23
184.361	38.74
184.58	114.52
184.8	151.38
185.02	-20.65
185.239	40.79
185.459	98.13
185.679	69.46
185.898	-37.03
186.118	63.32
186.338	40.79
186.557	44.88
186.777	-4.27
186.997	30.55
187.216	63.32
187.436	102.23
187.655	46.93
187.875	102.23
188.095	28.5
188.314	22.36
188.534	116.56
188.753	-37.03
188.973	104.28
189.192	30.55
189.412	18.26
189.631	20.31
189.851	79.7
190.07	46.93
190.29	28.5
190.509	-2.22
190.729	61.27
190.948	126.8
191.168	214.87
191.387	53.08
191.607	46.93
191.826	32.6
192.045	85.84
192.265	30.55
192.484	24.4
192.704	22.36
192.923	-43.18
193.142	32.6
193.362	63.32
193.581	32.6
193.8	69.46
194.02	135
194.239	-4.27
194.458	-102.57
194.678	42.84
194.897	14.17
195.116	-20.65
195.335	81.75
195.555	77.65
195.774	12.12
195.993	12.12
196.212	61.27
196.432	53.08
196.651	3.93
196.87	-20.65
197.089	77.65
197.308	124.76
197.528	38.74
197.747	5.97
197.966	22.36
198.185	53.08
198.404	44.88
198.623	-4.27
198.842	110.42
199.062	137.04
199.281	48.98
199.5	-2.22
199.719	100.18
199.938	-4.27
200.157	8.02
200.376	65.36
200.595	53.08
200.814	-28.84
201.033	30.55
201.252	28.5
201.471	8.02
201.69	-6.31
201.909	30.55
202.128	44.88
202.347	85.84
202.566	8.02
202.785	-20.65
203.004	28.5
203.223	69.46
203.442	24.4
203.661	36.69
203.879	-32.94
204.098	112.47
204.317	14.17
204.536	122.71
204.755	51.03
204.974	85.84
205.193	24.4
205.411	163.67
205.63	5.97
205.849	-28.84
206.068	102.23
206.287	3.93
206.505	77.65
206.724	-8.36
206.943	-8.36
207.162	-20.65
207.381	149.33
207.599	-49.32
207.818	44.88
208.037	40.79
208.255	36.69
208.474	94.04
208.693	40.79
208.911	18.26
209.13	30.55
209.349	40.79
209.567	122.71
209.786	122.71
210.005	110.42
210.223	44.88
210.442	-84.14
210.661	12.12
210.879	38.74
211.098	40.79
211.316	48.98
211.535	135
211.753	12.12
211.972	36.69
212.191	20.31
212.409	20.31
212.628	61.27
212.846	-37.03
213.065	53.08
213.283	89.94
213.502	-12.46
213.72	36.69
213.938	-12.46
214.157	1.88
214.375	87.89
214.594	-69.8
214.812	38.74
215.031	-16.55
215.249	20.31
215.467	42.84
215.686	79.7
215.904	77.65
216.122	16.21
216.341	77.65
216.559	89.94
216.778	130.9
216.996	110.42
217.214	24.4
217.432	30.55
217.651	3.93
217.869	59.22
218.087	16.21
218.306	63.32
218.524	12.12
218.742	-10.41
218.96	85.84
219.179	69.46
219.397	145.24
219.615	61.27
219.833	85.84
220.051	-22.7
220.27	71.51
220.488	63.32
220.706	34.64
220.924	32.6
221.142	14.17
221.36	42.84
221.578	24.4
221.796	22.36
222.015	36.69
222.233	51.03
222.451	53.08
222.669	-8.36
222.887	-20.65
223.105	-28.84
223.323	44.88
223.541	-26.79
223.759	77.65
223.977	73.56
224.195	53.08
224.413	32.6
224.631	12.12
224.849	-20.65
225.067	69.46
225.285	32.6
225.503	53.08
225.721	-2.22
225.939	-20.65
226.157	40.79
226.375	118.61
226.592	24.4
226.81	24.4
227.028	73.56
227.246	130.9
227.464	67.41
227.682	55.12
227.9	65.36
228.117	44.88
228.335	28.5
228.553	12.12
228.771	112.47
228.989	55.12
229.206	83.8
229.424	28.5
229.642	24.4
229.86	22.36
230.077	61.27
230.295	40.79
230.513	126.8
230.731	69.46
230.948	94.04
231.166	48.98
231.384	34.64
231.601	28.5
231.819	16.21
232.037	32.6
232.254	-69.8
232.472	40.79
232.689	-61.61
232.907	112.47
233.125	65.36
233.342	20.31
233.56	5.97
233.777	24.4
233.995	59.22
234.213	120.66
234.43	94.04
234.648	-0.17
234.865	61.27
235.083	34.64
235.3	65.36
235.518	44.88
235.735	51.03
235.953	83.8
236.17	24.4
236.388	77.65
236.605	71.51
236.822	87.89
237.04	24.4
237.257	79.7
237.475	79.7
237.692	79.7
237.909	1.88
238.127	22.36
238.344	53.08
238.562	38.74
238.779	3.93
238.996	48.98
239.214	1.88
239.431	53.08
239.648	38.74
239.865	20.31
240.083	34.64
240.3	38.74
240.517	-16.55
240.735	12.12
240.952	73.56
241.169	128.85
241.386	63.32
241.603	-4.27
241.821	30.55
242.038	149.33
242.255	48.98
242.472	-4.27
242.689	116.56
242.907	14.17
243.124	20.31
243.341	36.69
243.558	-20.65
243.775	46.93
243.992	-14.51
244.209	102.23
244.426	77.65
244.643	20.31
244.86	67.41
245.078	77.65
245.295	44.88
245.512	32.6
245.729	14.17
245.946	32.6
246.163	77.65
246.38	32.6
246.597	48.98
246.814	73.56
247.031	48.98
247.248	55.12
247.464	1.88
247.681	28.5
247.898	102.23
248.115	61.27
248.332	-28.84
248.549	69.46
248.766	63.32
248.983	51.03
249.2	26.45
249.417	36.69
249.633	-49.32
249.85	51.03
250.067	3.93
250.284	61.27
250.501	28.5
250.717	89.94
250.934	34.64
251.151	-0.17
251.368	8.02
251.585	44.88
251.801	24.4
252.018	12.12
252.235	40.79
252.451	149.33
252.668	-2.22
252.885	32.6
253.102	8.02
253.318	24.4
253.535	44.88
253.752	61.27
253.968	28.5
254.185	24.4
254.401	-0.17
254.618	59.22
254.835	71.51
255.051	65.36
255.268	73.56
255.484	104.28
255.701	28.5
255.917	114.52
256.134	44.88
256.351	28.5
256.567	79.7
256.784	30.55
257	-43.18
257.217	57.17
257.433	135
257.65	85.84
257.866	145.24
258.082	5.97
258.299	61.27
258.515	94.04
258.732	3.93
258.948	-26.79
259.165	65.36
259.381	8.02
259.597	71.51
259.814	53.08
260.03	3.93
260.246	22.36
260.463	120.66
260.679	53.08
260.895	28.5
261.112	18.26
261.328	16.21
261.544	-37.03
261.761	159.57
261.977	22.36
262.193	28.5
262.409	32.6
262.626	-45.23
262.842	53.08
263.058	30.55
263.274	61.27
263.49	69.46
263.707	65.36
263.923	85.84
264.139	8.02
264.355	102.23
264.571	61.27
264.787	46.93
265.004	94.04
265.22	63.32
265.436	55.12
265.652	85.84
265.868	48.98
266.084	36.69
266.3	36.69
266.516	3.93
266.732	79.7
266.948	-18.6
267.164	26.45
267.38	147.28
267.596	5.97
267.812	98.13
268.028	22.36
268.244	67.41
268.46	69.46
268.676	44.88
268.892	77.65
269.108	104.28
269.324	44.88
269.54	5.97
269.756	-18.6
269.972	44.88
270.188	81.75
270.403	16.21
270.619	40.79
270.835	14.17
271.051	44.88
271.267	38.74
271.483	81.75
271.698	118.61
271.914	46.93
272.13	8.02
272.346	22.36
272.562	-12.46
272.777	36.69
272.993	44.88
273.209	22.36
273.425	20.31
273.64	30.55
273.856	28.5
274.072	12.12
274.287	-34.99
274.503	20.31
274.719	-10.41
274.934	28.5
275.15	-4.27
275.366	57.17
275.581	28.5
275.797	110.42
276.012	5.97
276.228	-20.65
276.444	-0.17
276.659	71.51
276.875	-24.75
277.09	53.08
277.306	16.21
277.521	79.7
277.737	16.21
277.952	94.04
278.168	28.5
278.383	44.88
278.599	-51.37
278.814	16.21
279.03	-26.79
279.245	79.7
279.461	22.36
279.676	22.36
279.892	12.12
280.107	-4.27
280.322	-4.27
280.538	28.5
280.753	28.5
280.969	36.69
281.184	-32.94
281.399	36.69
281.615	-2.22
281.83	55.12
282.045	-18.6
282.26	20.31
282.476	12.12
282.691	89.94
282.906	44.88
283.122	36.69
283.337	12.12
283.552	73.56
283.767	38.74
283.983	53.08
284.198	44.88
284.413	48.98
284.628	-16.55
284.843	75.6
285.058	87.89
285.274	14.17
285.489	20.31
285.704	12.12
285.919	53.08
286.134	112.47
286.349	71.51
286.564	77.65
286.779	110.42
286.995	3.93
287.21	46.93
287.425	73.56
287.64	24.4
287.855	5.97
288.07	-10.41
288.285	139.09
288.5	85.84
288.715	53.08
288.93	-4.27
289.145	40.79
289.36	153.43
289.575	102.23
289.79	-10.41
290.004	46.93
290.219	104.28
290.434	79.7
290.649	-61.61
290.864	22.36
291.079	-16.55
291.294	77.65
291.509	40.79
291.724	69.46
291.938	14.17
292.153	12.12
292.368	-14.51
292.583	12.12
292.798	69.46
293.012	26.45
293.227	79.7
293.442	30.55
293.657	87.89
293.871	89.94
294.086	55.12
294.301	81.75
294.516	81.75
294.73	59.22
294.945	20.31
295.16	30.55
295.374	44.88
295.589	79.7
295.804	69.46
296.018	65.36
296.233	73.56
296.447	40.79
296.662	59.22
296.877	110.42
297.091	102.23
297.306	-2.22
297.52	-8.36
297.735	65.36
297.949	34.64
298.164	40.79
298.378	24.4
298.593	12.12
298.807	-4.27
299.022	3.93
299.236	36.69
299.451	65.36
299.665	77.65
299.88	85.84
300.094	-53.42
300.309	-26.79
300.523	137.04
300.737	71.51
300.952	46.93
301.166	112.47
301.381	16.21
301.595	53.08
301.809	3.93
302.024	57.17
302.238	-28.84
302.452	94.04
302.667	63.32
302.881	87.89
303.095	108.37
303.309	69.46
303.524	85.84
303.738	79.7
303.952	-30.89
304.166	40.79
304.381	-22.7
304.595	139.09
304.809	24.4
305.023	30.55
305.237	48.98
305.452	-8.36
305.666	67.41
305.88	65.36
306.094	83.8
306.308	112.47
306.522	48.98
306.736	40.79
306.95	67.41
307.164	24.4
307.379	61.27
307.593	57.17
307.807	30.55
308.021	77.65
308.235	89.94
308.449	-2.22
308.663	83.8
308.877	73.56
309.091	36.69
309.305	96.08
309.519	-61.61
309.733	130.9
309.947	55.12
310.161	104.28
310.374	102.23
310.588	32.6
310.802	-34.99
311.016	48.98
311.23	96.08
311.444	22.36
311.658	30.55
311.872	44.88
312.085	46.93
312.299	122.71
312.513	81.75
312.727	28.5
312.941	28.5
313.154	102.23
313.368	75.6
313.582	110.42
313.796	44.88
314.009	44.88
314.223	-2.22
314.437	20.31
314.651	61.27
314.864	20.31
315.078	77.65
315.292	-18.6
315.505	36.69
315.719	-16.55
315.933	81.75
316.146	-28.84
316.36	-20.65
316.573	73.56
316.787	53.08
317.001	63.32
317.214	-28.84
317.428	28.5
317.641	22.36
317.855	12.12
318.068	22.36
318.282	5.97
318.495	116.56
318.709	65.36
318.922	65.36
319.136	110.42
319.349	151.38
319.563	55.12
319.776	53.08
319.99	1.88
320.203	34.64
320.417	24.4
320.63	130.9
320.843	71.51
321.057	24.4
321.27	5.97
321.483	57.17
321.697	104.28
321.91	32.6
322.124	73.56
322.337	-37.03
322.55	5.97
322.763	57.17
322.977	30.55
323.19	-20.65
323.403	102.23
323.617	55.12
323.83	71.51
324.043	22.36
324.256	94.04
324.469	-24.75
324.683	28.5
324.896	18.26
325.109	71.51
325.322	38.74
325.535	48.98
325.748	96.08
325.962	73.56
326.175	61.27
326.388	106.32
326.601	53.08
326.814	53.08
327.027	61.27
327.24	128.85
327.453	-6.31
327.666	63.32
327.879	77.65
328.092	137.04
328.305	1.88
328.518	42.84
328.731	-8.36
328.944	63.32
329.157	16.21
329.37	44.88
329.583	139.09
329.796	24.4
330.009	40.79
330.222	44.88
330.435	5.97
330.648	34.64
330.861	85.84
331.073	143.19
331.286	94.04
331.499	48.98
331.712	-37.03
331.925	38.74
332.138	28.5
332.35	40.79
332.563	28.5
332.776	112.47
332.989	77.65
333.202	48.98
333.414	20.31
333.627	16.21
333.84	55.12
334.053	38.74
334.265	-12.46
334.478	96.08
334.691	26.45
334.903	40.79
335.116	61.27
335.329	20.31
335.541	79.7
335.754	65.36
335.966	16.21
336.179	69.46
336.392	79.7
336.604	1.88
336.817	51.03
337.029	118.61
337.242	71.51
337.454	89.94
337.667	3.93
337.88	137.04
338.092	98.13
338.305	24.4
338.517	18.26
338.729	24.4
338.942	61.27
339.154	71.51
339.367	53.08
339.579	40.79
339.792	-4.27
340.004	75.6
340.217	22.36
340.429	42.84
340.641	-37.03
340.854	-2.22
341.066	12.12
341.278	65.36
341.491	110.42
341.703	40.79
341.915	-14.51
342.128	83.8
342.34	42.84
342.552	-28.84
342.764	165.71
342.977	3.93
343.189	188.24
343.401	53.08
343.613	46.93
343.826	8.02
344.038	48.98
344.25	32.6
344.462	30.55
344.674	96.08
344.886	-10.41
345.099	65.36
345.311	20.31
345.523	12.12
345.735	3.93
345.947	51.03
346.159	48.98
346.371	10.07
346.583	85.84
346.795	57.17
347.007	53.08
347.219	83.8
347.431	53.08
347.643	55.12
347.855	38.74
348.067	110.42
348.279	8.02
348.491	30.55
348.703	91.99
348.915	77.65
349.127	46.93
349.339	53.08
349.551	48.98
349.763	44.88
349.975	-10.41
350.187	73.56
350.399	139.09
350.61	18.26
350.822	14.17
351.034	36.69
351.246	85.84
351.458	61.27
351.669	63.32
351.881	38.74
352.093	128.85
352.305	102.23
352.517	38.74
352.728	-2.22
352.94	65.36
353.152	63.32
353.363	87.89
353.575	26.45
353.787	139.09
353.999	24.4
354.21	85.84
354.422	51.03
354.633	-39.08
354.845	38.74
355.057	91.99
355.268	36.69
355.48	65.36
355.692	79.7
355.903	-22.7
356.115	44.88
356.326	-8.36
356.538	153.43
356.749	44.88
356.961	20.31
357.172	48.98
357.384	102.23
357.595	104.28
357.807	85.84
358.018	104.28
358.23	63.32
358.441	135
358.653	30.55
358.864	-28.84
359.075	-28.84
359.287	61.27
359.498	118.61
359.709	104.28
359.921	81.75
360.132	85.84
360.344	71.51
360.555	53.08
360.766	22.36
360.977	91.99
361.189	94.04
361.4	110.42
361.611	53.08
361.823	55.12
362.034	120.66
362.245	16.21
362.456	38.74
362.667	114.52
362.879	53.08
363.09	20.31
363.301	69.46
363.512	153.43
363.723	28.5
363.935	36.69
364.146	55.12
364.357	71.51
364.568	61.27
364.779	3.93
364.99	61.27
365.201	8.02
365.412	77.65
365.623	48.98
365.834	81.75
366.045	63.32
366.256	42.84
366.467	94.04
366.678	-0.17
366.889	42.84
367.1	34.64
367.311	77.65
367.522	12.12
367.733	102.23
367.944	53.08
368.155	63.32
368.366	91.99
368.577	104.28
368.788	-18.6
368.999	-4.27
369.209	46.93
369.42	73.56
369.631	100.18
369.842	-69.8
370.053	24.4
370.264	151.38
370.474	-32.94
370.685	104.28
370.896	42.84
371.107	44.88
371.317	141.14
371.528	-20.65
371.739	81.75
371.95	59.22
372.16	87.89
372.371	48.98
372.582	32.6
372.792	65.36
373.003	124.76
373.214	-12.46
373.424	83.8
373.635	-26.79
373.846	89.94
374.056	5.97
374.267	69.46
374.477	22.36
374.688	63.32
374.898	77.65
375.109	102.23
375.319	57.17
375.53	73.56
375.74	71.51
375.951	55.12
376.161	87.89
376.372	71.51
376.582	48.98
376.793	69.46
377.003	-0.17
377.214	77.65
377.424	112.47
377.635	77.65
377.845	48.98
378.055	69.46
378.266	-20.65
378.476	65.36
378.686	24.4
378.897	14.17
379.107	98.13
379.317	102.23
379.528	48.98
379.738	94.04
379.948	20.31
380.158	108.37
380.369	-18.6
380.579	67.41
380.789	32.6
380.999	69.46
381.21	34.64
381.42	85.84
381.63	53.08
381.84	44.88
382.05	79.7
382.261	69.46
382.471	161.62
382.681	73.56
382.891	110.42
383.101	36.69
383.311	16.21
383.521	-4.27
383.731	135
383.941	112.47
384.151	32.6
384.361	77.65
384.571	73.56
384.781	38.74
384.991	147.28
385.201	137.04
385.411	12.12
385.621	102.23
385.831	53.08
386.041	53.08
386.251	53.08
386.461	143.19
386.671	-41.13
386.881	8.02
387.091	57.17
387.301	118.61
387.511	130.9
387.72	81.75
387.93	67.41
388.14	22.36
388.35	61.27
388.56	53.08
388.769	94.04
388.979	102.23
389.189	73.56
389.399	63.32
389.609	130.9
389.818	38.74
390.028	71.51
390.238	65.36
390.447	89.94
390.657	104.28
390.867	36.69
391.076	61.27
391.286	94.04
391.496	-12.46
391.705	71.51
391.915	143.19
392.125	46.93
392.334	36.69
392.544	143.19
392.753	20.31
392.963	48.98
393.172	153.43
393.382	81.75
393.591	114.52
393.801	83.8
394.01	135
394.22	69.46
394.429	44.88
394.639	44.88
394.848	44.88
395.058	36.69
395.267	96.08
395.477	87.89
395.686	132.95
395.895	184.15
396.105	208.72
396.314	69.46
396.524	135
396.733	28.5
396.942	145.24
397.152	96.08
397.361	79.7
397.57	85.84
397.78	106.32
397.989	147.28
398.198	175.95
398.407	40.79
398.617	159.57
398.826	135
399.035	61.27
399.244	139.09
399.453	53.08
399.663	91.99
399.872	192.34
400.081	38.74
400.29	85.84
400.499	77.65
400.708	175.95
400.917	75.6
401.127	124.76
401.336	34.64
401.545	118.61
401.754	141.14
401.963	106.32
402.172	75.6
402.381	61.27
402.59	98.13
402.799	130.9
403.008	85.84
403.217	143.19
403.426	141.14
403.635	79.7
403.844	151.38
404.053	147.28
404.262	143.19
404.471	200.53
404.68	178
404.888	190.29
405.097	143.19
405.306	180.05
405.515	216.91
405.724	190.29
405.933	184.15
406.142	143.19
406.35	204.63
406.559	239.44
406.768	132.95
406.977	253.78
407.185	135
407.394	266.07
407.603	137.04
407.812	264.02
408.02	175.95
408.229	292.69
408.438	208.72
408.646	259.92
408.855	218.96
409.064	274.26
409.272	208.72
409.481	284.5
409.69	266.07
409.898	241.49
410.107	347.98
410.315	347.98
410.524	278.35
410.733	372.56
410.941	241.49
411.15	366.42
411.358	393.04
411.567	438.09
411.775	343.89
411.984	431.95
412.192	487.25
412.401	405.33
412.609	526.16
412.818	485.2
413.026	417.61
413.234	425.81
413.443	489.29
413.651	507.73
413.86	577.36
414.068	585.55
414.276	593.74
414.485	487.25
414.693	622.41
414.901	587.6
415.11	642.89
415.318	679.75
415.526	716.62
415.734	749.39
415.943	765.77
416.151	831.3
416.359	708.43
416.567	896.84
416.776	839.5
416.984	929.61
417.192	962.37
417.4	978.76
417.608	970.57
417.817	1036.1
418.025	1050.44
418.233	1134.4
418.441	1077.06
418.649	1187.65
418.857	1257.28
419.065	1201.99
419.273	1122.12
419.481	1302.34
419.689	1322.82
419.897	1316.67
420.105	1480.51
420.313	1478.46
420.521	1412.93
420.729	1589.05
420.937	1650.49
421.145	1718.08
421.353	1605.44
421.561	1732.41
421.769	1840.95
421.977	1912.63
422.185	2015.03
422.393	1908.54
422.601	2252.59
422.809	2154.29
423.017	2162.48
423.224	2211.64
423.432	2344.75
423.64	2311.99
423.848	2518.83
424.056	2445.1
424.263	2668.33
424.471	2643.76
424.679	2674.48
424.887	2858.79
425.094	2993.96
425.302	2832.17
425.51	3059.49
425.718	3045.16
425.925	3196.71
426.133	3356.45
426.341	3612.45
426.548	3680.03
426.756	3692.32
426.964	3731.23
427.171	3833.63
427.379	3845.91
427.586	3944.22
427.794	4169.49
428.001	4284.18
428.209	4468.5
428.417	4439.83
428.624	4722.45
428.832	4667.15
429.039	4880.14
429.247	4701.97
429.454	5246.73
429.662	5461.76
429.869	5072.65
430.076	5459.71
430.284	5349.12
430.491	5592.83
430.699	5793.53
430.906	5791.48
431.114	5857.02
431.321	6168.31
431.528	6362.87
431.736	6602.48
431.943	7007.98
432.15	6725.36
432.358	6846.19
432.565	7122.66
432.772	7186.15
432.979	7708.38
433.187	7724.77
433.394	7724.77
433.601	8214.23
433.808	8367.83
434.016	8261.34
434.223	8660.69
434.43	9273.03
434.637	9006.8
434.844	9385.67
435.052	9443.01
435.259	9572.04
435.466	9612.99
435.673	9432.77
435.88	10090.17
436.087	10878.64
436.294	10514.1
436.501	10360.5
436.708	10577.59
436.915	11140.78
437.122	11620
437.329	11425.45
437.537	11908.77
437.743	12033.69
437.95	12017.31
438.157	12424.86
438.364	12734.1
438.571	12867.22
438.778	12961.42
438.985	14270.08
439.192	13778.56
439.399	14007.94
439.606	13651.59
439.813	14423.67
440.02	15150.7
440.227	15183.47
440.433	15011.44
440.64	15308.4
440.847	15232.62
441.054	15414.89
441.261	16866.9
441.467	16365.15
441.674	16805.46
441.881	17354.32
442.088	17055.31
442.294	17294.93
442.501	17595.98
442.708	18232.9
442.914	18705.98
443.121	19609.13
443.328	18744.89
443.534	19977.76
443.741	19494.44
443.948	19217.97
444.154	20790.81
444.361	20706.84
444.568	20934.17
444.774	20686.36
444.981	20866.58
445.187	21589.52
445.394	22400.51
445.6	22545.92
445.807	24176.1
446.013	23223.79
446.22	23463.41
446.426	24784.35
446.633	24776.16
446.839	25916.87
447.046	24647.13
447.252	25959.88
447.459	26093
447.665	25843.15
447.871	27375.03
448.078	28458.4
448.284	26891.71
448.491	27596.21
448.697	28765.6
448.903	29009.31
449.11	29238.68
449.316	29064.6
449.522	29431.19
449.728	30352.77
449.935	30600.58
450.141	30745.98
450.347	31032.7
450.553	30268.81
450.76	30444.93
450.966	31661.43
451.172	30858.62
451.378	31954.29
451.584	31274.36
451.791	32249.19
451.997	31884.65
452.203	32673.12
452.409	32286.06
452.615	32193.9
452.821	31190.39
453.027	30768.51
453.233	32378.22
453.44	30793.09
453.646	31407.48
453.852	31505.78
454.058	32122.22
454.264	31038.84
454.47	31890.8
454.676	31010.17
454.882	32105.84
455.088	29101.47
455.294	29326.74
455.5	29961.61
455.705	30526.85
455.911	29234.58
456.117	28564.9
456.323	28413.35
456.529	26822.08
456.735	27758
456.941	26881.47
457.147	27004.35
457.352	25986.5
457.558	25402.83
457.764	25927.11
457.97	24976.86
458.176	24620.51
458.381	24540.64
458.587	23524.85
458.793	23334.39
458.999	22298.11
459.204	23522.8
459.41	23096.82
459.616	21466.64
459.821	21272.08
460.027	21325.33
460.233	21081.62
460.438	20069.92
460.644	20020.77
460.85	19009.08
461.055	18699.83
461.261	18978.36
461.466	17317.45
461.672	16850.52
461.878	18116.16
462.083	16932.43
462.289	16442.97
462.494	16010.85
462.7	15488.62
462.905	15064.69
463.111	15535.72
463.316	15674.98
463.522	15191.66
463.727	15406.7
463.932	15230.57
464.138	15128.17
464.343	15076.98
464.549	14835.31
464.754	15410.79
464.959	15007.34
465.165	14872.18
465.37	14114.43
465.575	13710.98
465.781	14636.66
465.986	14388.86
466.191	13887.11
466.397	13745.8
466.602	13137.55
466.807	13596.29
467.012	13346.44
467.218	13377.16
467.423	13282.95
467.628	13389.45
467.833	14063.23
468.038	13264.52
468.244	13088.4
468.449	13315.72
468.654	12971.66
468.859	12836.5
469.064	12488.34
469.269	12308.12
469.474	12367.51
469.679	12643.99
469.885	12222.11
470.09	12537.49
470.295	12310.17
470.5	11824.8
470.705	12205.72
470.91	11730.59
471.115	11736.74
471.32	12029.6
471.525	11699.87
471.73	11443.88
471.935	11499.17
472.139	11155.12
472.344	11122.35
472.549	11251.37
472.754	10981.04
472.959	10747.57
473.164	10514.1
473.369	10532.53
473.574	10780.34
473.778	10653.36
473.983	10475.19
474.188	10317.5
474.393	9998.01
474.598	9918.14
474.802	9871.04
475.007	9801.41
475.212	9936.57
475.417	9449.16
475.621	9508.55
475.826	9535.17
476.031	9301.7
476.235	9172.68
476.44	9270.98
476.645	9027.28
476.849	9252.55
477.054	9109.19
477.259	9025.23
477.463	8857.29
477.668	8748.75
477.872	8881.87
478.077	8711.89
478.282	8386.26
478.486	8277.72
478.691	8115.93
478.895	8220.38
479.1	8093.4
479.304	8322.77
479.509	8091.35
479.713	8066.78
479.918	7835.36
480.122	7943.9
480.326	8031.96
480.531	8136.41
480.735	7859.93
480.94	7853.79
481.144	8089.31
481.348	7479.01
481.553	7778.01
481.757	7427.81
481.961	7757.53
482.166	7778.01
482.37	7603.94
482.574	7489.25
482.778	7599.84
482.983	7814.88
483.187	7556.83
483.391	7671.52
483.595	7626.46
483.8	7605.99
484.004	7655.14
484.208	7679.71
484.412	7638.75
484.616	7663.33
484.821	7696.1
485.025	7401.19
485.229	7483.11
485.433	7407.33
485.637	7493.35
485.841	7622.37
486.045	7327.46
486.249	7620.32
486.453	7427.81
486.657	7532.26
486.861	7583.46
487.065	7597.79
487.269	7417.57
487.473	7302.89
487.677	7657.18
487.881	7651.04
488.085	7519.97
488.289	7515.87
488.493	7347.94
488.697	7452.39
488.901	7515.87
489.105	7442.15
489.309	7497.44
489.512	7679.71
489.716	7597.79
489.92	7558.88
490.124	7507.68
490.328	7425.76
490.531	7440.1
490.735	7669.47
490.939	7483.11
491.143	7651.04
491.346	7476.96
491.55	7601.89
491.754	7626.46
491.958	7624.42
492.161	7491.3
492.365	7788.25
492.569	7696.1
492.772	7581.41
492.976	7747.3
493.18	7749.34
493.383	7845.6
493.587	7917.28
493.79	7878.37
493.994	7884.51
494.197	7888.6
494.401	8122.07
494.605	7933.66
494.808	8056.54
495.012	8203.99
495.215	8218.33
495.419	8287.96
495.622	8337.11
495.825	8365.78
496.029	8074.97
496.232	8402.65
496.436	8357.59
496.639	8564.43
496.843	8478.42
497.046	8793.81
497.249	8697.55
497.453	8785.62
497.656	8953.55
497.859	8853.2
498.063	8967.88
498.266	9240.26
498.469	9125.58
498.673	9195.21
498.876	9455.3
499.079	9336.52
499.282	9653.95
499.485	9615.04
499.689	9703.11
499.892	9756.35
500.095	9768.64
500.298	9981.63
500.501	9858.75
500.705	10043.07
500.908	10096.32
501.111	10256.06
501.314	10475.19
501.517	10688.18
501.72	10505.91
501.923	10493.62
502.126	10743.47
502.329	10833.58
502.532	11226.79
502.735	10972.85
502.938	11220.65
503.141	11202.22
503.344	11478.69
503.547	11480.74
503.75	11562.66
503.953	11740.83
504.156	11906.72
504.359	11873.95
504.562	12041.89
504.765	12220.06
504.968	12521.11
505.17	12498.58
505.373	12304.03
505.576	12693.14
505.779	13029.01
505.982	12967.57
506.185	12951.18
506.387	13086.35
506.59	13414.02
506.793	13559.43
506.996	13643.4
507.198	14118.53
507.401	13790.85
507.604	14055.04
507.807	14311.03
508.009	14423.67
508.212	14605.94
508.415	14499.45
508.617	14667.38
508.82	14888.56
509.022	14896.75
509.225	15285.87
509.428	15347.31
509.63	15396.46
509.833	15517.29
510.035	15883.87
510.238	15822.44
510.44	15701.61
510.643	16109.15
510.845	16408.15
511.048	16316
511.25	16516.7
511.453	16414.3
511.655	17313.36
511.858	16920.15
512.06	17217.1
512.262	17335.88
512.465	17399.37
512.667	17577.55
512.87	17571.4
513.072	18019.91
513.274	18050.63
513.477	18298.43
513.679	18384.44
513.881	18890.29
514.084	19168.82
514.286	18538.04
514.488	19199.54
514.69	19641.9
514.893	19459.63
515.095	19945
515.297	19908.13
515.499	20033.06
515.701	20336.16
515.904	20221.47
516.106	20502.04
516.308	21020.18
516.51	20891.16
516.712	20870.68
516.914	21128.72
517.116	21399.05
517.318	21388.81
517.52	21536.27
517.722	21782.02
517.925	21800.46
518.127	22232.58
518.329	22396.42
518.531	22218.24
518.733	22648.32
518.935	23096.82
519.136	22711.8
519.338	23137.78
519.54	23234.03
519.742	23311.86
519.944	23559.66
520.146	23596.53
520.348	23608.81
520.55	23866.86
520.752	24069.61
520.954	24540.64
521.155	24167.91
521.357	24759.77
521.559	24712.67
521.761	25241.04
521.963	24923.61
522.164	25261.52
522.366	25368.02
522.568	25408.98
522.77	25722.32
522.971	25968.07
523.173	25466.32
523.375	26076.62
523.576	25595.34
523.778	25492.94
523.98	26109.38
524.181	26299.84
524.383	26076.62
524.584	26377.67
524.786	26400.19
524.988	26142.15
525.189	26561.98
525.391	26428.87
525.592	26840.51
525.794	26498.5
525.995	26305.99
526.197	26846.65
526.398	26598.85
526.6	26791.36
526.801	26676.67
527.003	26510.78
527.204	26887.61
527.406	26799.55
527.607	26734.01
527.808	27155.89
528.01	26572.22
528.211	27012.54
528.412	27346.36
528.614	26916.28
528.815	27090.36
529.016	26963.39
529.218	26701.25
529.419	26813.88
529.62	27055.54
529.822	26932.67
530.023	27170.23
530.224	26895.8
530.425	27063.74
530.626	26693.05
530.828	26729.92
531.029	26914.23
531.23	27219.38
531.431	26836.41
531.632	26901.95
531.833	26926.52
532.035	26809.79
532.236	26764.73
532.437	26754.49
532.638	26596.8
532.839	26942.91
533.04	26748.35
533.241	26396.1
533.442	26994.11
533.643	26402.24
533.844	26482.11
534.045	26676.67
534.246	26125.77
534.447	26537.41
534.648	26088.9
534.849	26381.76
535.05	25898.44
535.251	26187.21
535.451	26299.84
535.652	26238.4
535.853	26219.97
536.054	26174.92
536.255	26189.25
536.456	25701.84
536.657	26226.12
536.857	25724.36
537.058	25871.82
537.259	26113.48
537.46	25771.47
537.66	25748.94
537.861	26033.61
538.062	25701.84
538.263	25642.45
538.463	25980.36
538.664	25570.77
538.865	25736.65
539.065	25484.75
539.266	25284.05
539.466	25554.38
539.667	25320.91
539.868	25509.33
540.068	25304.53
540.269	25451.98
540.469	25451.98
540.67	25433.55
540.87	25325.01
541.071	25042.39
541.271	25628.11
541.472	25286.1
541.672	25073.11
541.873	24978.9
542.073	24954.33
542.274	25134.55
542.474	25128.41
542.675	24847.83
542.875	24835.55
543.075	25185.75
543.276	24770.01
543.476	25425.36
543.676	24923.61
543.877	25077.21
544.077	24876.51
544.277	24894.94
544.478	25093.59
544.678	24903.13
544.878	25085.4
545.078	24784.35
545.279	24817.11
545.479	24739.29
545.679	25054.68
545.879	24927.7
546.079	24958.42
546.28	24954.33
546.48	24616.41
546.68	24507.87
546.88	25023.96
547.08	25118.17
547.28	24884.7
547.48	24722.91
547.68	24888.79
547.88	24827.35
548.081	25177.56
548.281	24860.12
548.481	24831.45
548.681	24923.61
548.881	25103.83
549.081	24978.9
549.28	24909.27
549.48	25081.3
549.68	24862.17
549.88	25251.28
550.08	24983
550.28	25005.53
550.48	24944.09
550.68	25232.85
550.88	24774.11
551.08	24780.25
551.279	25187.8
551.479	24896.99
551.679	24915.42
551.879	24837.59
552.079	25302.48
552.278	24983
552.478	24944.09
552.678	24958.42
552.878	25572.82
553.077	25236.95
553.277	25099.73
553.477	25763.28
553.676	25083.35
553.876	25163.22
554.076	25052.63
554.275	25609.68
554.475	24997.34
554.674	25292.24
554.874	25585.1
555.074	25411.03
555.273	25732.56
555.473	25609.68
555.672	25595.34
555.872	25417.17
556.071	25370.07
556.271	25581.01
556.47	25349.59
556.67	25257.43
556.869	25566.67
557.068	25953.74
557.268	25507.28
557.467	25664.97
557.667	25804.24
557.866	25540.05
558.065	25427.41
558.265	25611.73
558.464	25464.27
558.663	25980.36
558.863	25593.29
559.062	25857.48
559.261	25863.63
559.461	25771.47
559.66	25847.24
559.859	25679.31
560.058	25581.01
560.258	25918.92
560.457	25466.32
560.656	25808.33
560.855	26160.58
561.054	25849.29
561.253	25990.6
561.453	25646.54
561.652	25994.7
561.851	26312.13
562.05	25798.09
562.249	25660.88
562.448	26136.01
562.647	25830.86
562.846	25929.16
563.045	26011.08
563.244	25759.18
563.443	26140.1
563.642	25722.32
563.841	25814.48
564.04	25550.29
564.239	25982.41
564.438	25509.33
564.637	25699.79
564.836	25679.31
565.035	25378.26
565.234	25791.95
565.432	25646.54
565.631	25460.18
565.83	25630.16
566.029	25277.91
566.228	25142.74
566.427	25365.97
566.625	25173.46
566.824	24915.42
567.023	25736.65
567.222	24782.3
567.42	25284.05
567.619	25193.94
567.818	25163.22
568.016	24962.52
568.215	25472.46
568.414	24724.96
568.612	24815.07
568.811	24901.08
569.01	25189.84
569.208	24491.49
569.407	24999.38
569.605	24727
569.804	24518.11
570.002	24333.79
570.201	24765.92
570.4	24346.08
570.598	24434.14
570.797	24120.81
570.995	24507.87
571.193	23690.73
571.392	24491.49
571.59	23772.65
571.789	23985.64
571.987	23780.84
572.186	23899.62
572.384	23696.88
572.582	23862.76
572.781	23522.8
572.979	23399.92
573.177	23692.78
573.376	23649.77
573.574	23254.51
573.772	23490.03
573.971	23129.59
574.169	23066.1
574.367	22930.94
574.565	23315.95
574.763	23004.66
574.962	23123.44
575.16	22969.85
575.358	22906.36
575.556	22480.38
575.754	23055.86
575.952	22523.39
576.151	22883.83
576.349	22220.29
576.547	22375.94
576.745	22584.83
576.943	22367.74
577.141	22212.1
577.339	22222.34
577.537	21984.77
577.735	22056.45
577.933	21741.07
578.131	21648.91
578.329	21771.79
578.527	21597.71
578.725	21503.5
578.923	21751.31
579.121	21401.1
579.319	21286.42
579.516	21460.49
579.714	21753.35
579.912	21308.94
580.11	21083.67
580.308	21224.98
580.506	20981.27
580.704	21073.43
580.901	21239.31
581.099	21331.47
581.297	20590.11
581.495	20614.68
581.692	20952.6
581.89	20485.66
582.088	21091.86
582.285	20743.7
582.483	20901.4
582.681	20450.85
582.878	20534.81
583.076	20315.68
583.274	20428.32
583.471	20045.35
583.669	20237.86
583.866	20055.59
584.064	20276.77
584.262	19893.8
584.459	20364.83
584.657	19863.08
584.854	20131.36
585.052	19836.45
585.249	19682.86
585.447	20069.92
585.644	19523.12
585.841	19926.57
586.039	19748.39
586.236	19435.05
586.434	19627.56
586.631	19402.29
586.828	19414.57
587.026	19797.54
587.223	19387.95
587.42	19377.71
587.618	19244.59
587.815	19205.68
588.012	19131.95
588.21	18974.26
588.407	19181.1
588.604	19211.82
588.801	18947.64
588.999	19295.79
589.196	19111.47
589.393	18968.12
589.59	18992.69
589.787	19078.71
589.984	18986.55
590.182	18601.53
590.379	18693.69
590.576	18515.51
590.773	18689.59
590.97	18529.85
591.167	18775.61
591.364	18392.64
591.561	18824.76
591.758	18527.8
591.955	18732.6
592.152	18591.29
592.349	18474.56
592.546	18456.12
592.743	18548.28
592.94	18193.98
593.137	18579
593.334	18497.08
593.531	18308.67
593.727	18392.64
593.924	18576.95
594.121	18087.49
594.318	18464.32
594.515	18366.01
594.712	18196.03
594.908	18513.47
595.105	18230.85
595.302	18388.54
595.499	18280
595.696	18054.72
595.892	18357.82
596.089	18327.1
596.286	18245.18
596.482	18411.07
596.679	18144.83
596.876	18503.23
597.072	18273.85
597.269	18351.68
597.466	18267.71
597.662	18310.72
597.859	18120.26
598.055	18142.78
598.252	18128.45
598.448	18527.8
598.645	18280
598.841	18179.65
599.038	18488.89
599.234	18241.09
599.431	18325.05
599.627	18253.37
599.824	18263.61
600.02	18173.5
600.217	18306.62
600.413	18349.63
600.609	18533.95
600.806	18490.94
601.002	18501.18
601.198	18302.53
601.395	18634.3
601.591	18673.21
601.787	18622.01
601.984	18290.24
602.18	18916.92
602.376	18447.93
602.572	18540.09
602.769	18654.78
602.965	18550.33
603.161	19037.75
603.357	18761.27
603.553	18783.8
603.75	18900.53
603.946	18767.41
604.142	18880.05
604.338	18886.2
604.534	19045.94
604.73	18736.7
604.926	19109.43
605.122	18988.6
605.318	19027.51
605.514	19060.27
605.71	19115.57
605.906	19117.62
606.102	19320.37
606.298	19234.35
606.494	19238.45
606.69	19215.92
606.886	19551.79
607.082	19117.62
607.278	19729.96
607.474	19312.17
607.67	19557.93
607.866	19631.66
608.062	19875.37
608.257	19729.96
608.453	19705.38
608.649	20026.92
608.845	19818.02
609.041	19695.14
609.236	19779.11
609.432	19977.76
609.628	19764.78
609.824	20031.01
610.019	19985.96
610.215	20323.87
610.411	20305.44
610.606	19959.33
610.802	20268.58
610.998	20338.21
611.193	20450.85
611.389	20653.59
611.584	20424.22
611.78	20260.38
611.976	20137.51
612.171	20792.86
612.367	20540.96
612.562	20610.59
612.758	20092.45
612.953	20407.84
613.149	20723.23
613.344	20559.39
613.539	20805.14
613.735	20739.61
613.93	20688.41
614.126	20454.94
614.321	20672.03
614.517	20612.63
614.712	20899.35
614.907	20608.54
615.103	21122.58
615.298	20971.03
615.493	21024.28
615.688	20790.81
615.884	21120.53
616.079	20657.69
616.274	20973.08
616.47	21171.73
616.665	21050.9
616.86	20612.63
617.055	20735.51
617.25	20631.07
617.445	20758.04
617.641	20674.07
617.836	20663.83
618.031	20733.46
618.226	20903.45
618.421	20614.68
618.616	21003.8
618.811	20522.52
619.006	21050.9
619.201	20176.42
619.396	20721.18
619.591	20444.7
619.786	20897.3
619.981	20565.53
620.176	20651.55
620.371	19904.04
620.566	20348.45
620.761	20465.18
620.956	20246.05
621.151	20108.83
621.346	20184.61
621.541	19967.52
621.735	20360.73
621.93	19570.22
622.125	19795.5
622.32	19600.94
622.515	19729.96
622.709	19748.39
622.904	19631.66
623.099	19523.12
623.294	19416.62
623.488	19322.41
623.683	19316.27
623.878	18996.79
624.072	19295.79
624.267	19152.43
624.462	18875.96
624.656	18765.37
624.851	18839.09
625.046	18738.74
625.24	18730.55
625.435	18464.32
625.629	18480.7
625.824	18273.85
626.018	18404.92
626.213	18044.48
626.407	18458.17
626.602	17870.4
626.796	18267.71
626.991	18091.59
627.185	17847.88
627.38	17669.7
627.574	17557.07
627.768	17575.5
627.963	17536.59
628.157	17368.65
628.352	17405.52
628.546	17231.44
628.74	17208.91
628.935	17122.9
629.129	17043.03
629.323	16948.82
629.517	16727.64
629.712	16789.08
629.906	16938.58
630.1	16373.34
630.294	16762.45
630.489	16465.5
630.683	16561.75
630.877	16350.81
631.071	16240.22
631.265	16313.95
631.459	15890.02
631.653	16074.34
631.848	15957.6
632.042	15941.22
632.236	15894.11
632.43	15535.72
632.624	15832.68
632.818	15488.62
633.012	15406.7
633.206	15513.19
633.4	15418.99
633.594	15322.73
633.788	15242.86
633.982	15109.74
634.176	15150.7
634.369	14986.86
634.563	15081.07
634.757	14855.79
634.951	14982.77
635.145	14911.09
635.339	14573.17
635.533	14497.4
635.726	14700.15
635.92	14130.81
636.114	14253.69
636.308	14214.78
636.501	14235.26
636.695	14100.09
636.889	14005.89
637.083	14046.85
637.276	13952.64
637.47	13776.52
637.664	13794.95
637.857	13555.33
638.051	13633.16
638.244	13291.15
638.438	13225.61
638.632	13315.72
638.825	13201.04
639.019	13268.62
639.212	12961.42
639.406	13090.45
639.599	12918.42
639.793	12873.36
639.986	12570.26
640.18	12799.63
640.373	12762.77
640.567	12576.41
640.76	12340.89
640.954	12328.6
641.147	12418.71
641.34	12101.28
641.534	12234.39
641.727	12088.99
641.92	11863.71
642.114	11980.45
642.307	11914.91
642.5	11759.27
642.694	11724.45
642.887	11765.41
643.08	11644.58
643.273	11660.96
643.467	11409.06
643.66	11341.48
643.853	11482.79
644.046	11157.16
644.239	11062.96
644.432	11097.77
644.626	10935.98
644.819	11030.19
645.012	10970.8
645.205	10809.01
645.398	10915.5
645.591	10387.13
645.784	10849.97
645.977	10456.76
646.17	10481.33
646.363	10315.45
646.556	10518.2
646.749	10337.98
646.942	10229.43
647.135	10219.19
647.328	10172.09
647.521	10167.99
647.714	9862.85
647.907	10014.4
648.099	9830.08
648.292	9909.95
648.485	9912
648.678	9592.51
648.871	9619.14
649.064	9344.71
649.256	9531.08
649.449	9453.25
649.642	9375.43
649.835	9459.4
650.027	9289.42
650.22	9238.22
650.413	9227.98
650.605	9101
650.798	8965.84
650.991	9080.52
651.183	9060.04
651.376	8871.63
651.568	8928.97
651.761	8769.23
651.954	8687.31
652.146	8724.18
652.339	8724.18
652.531	8648.4
652.724	8603.35
652.916	8509.14
653.109	8500.95
653.301	8529.62
653.494	8486.61
653.686	8439.51
653.879	8386.26
654.071	8388.31
654.263	8146.65
654.456	8408.79
654.648	8312.53
654.84	7874.27
655.033	7913.18
655.225	8042.2
655.417	7995.1
655.61	7861.98
655.802	7876.32
655.994	7845.6
656.186	7720.67
656.379	7718.62
656.571	7640.8
656.763	7737.06
656.955	7735.01
657.148	7585.51
657.34	7663.33
657.532	7603.94
657.724	7616.23
657.916	7390.95
658.108	7466.72
658.3	7417.57
658.492	7272.17
658.684	7214.82
658.876	7110.38
659.068	7155.43
659.26	7048.94
659.452	7204.58
659.644	7141.1
659.836	6964.97
660.028	7167.72
660.22	6897.39
660.412	7050.99
660.604	6799.09
660.796	6862.57
660.988	6934.25
661.18	6680.3
661.372	6747.89
661.563	6563.57
661.755	6551.28
661.947	6766.32
662.139	6555.38
662.331	6588.14
662.522	6444.79
662.714	6424.31
662.906	6381.3
663.097	6264.57
663.289	6356.72
663.481	6190.84
663.673	6319.86
663.864	6008.57
664.056	6211.32
664.247	6182.65
664.439	5846.78
664.631	6100.73
664.822	5938.94
665.014	6090.49
665.205	5924.6
665.397	5959.42
665.588	5940.99
665.78	5877.5
665.971	5881.6
666.163	5830.4
666.354	5979.9
666.546	5736.19
666.737	5601.02
666.929	5730.05
667.12	5682.94
667.311	5607.17
667.503	5564.16
667.694	5615.36
667.885	5615.36
668.077	5641.98
668.268	5564.16
668.459	5414.66
668.651	5406.47
668.842	5435.14
669.033	5369.6
669.224	5334.79
669.416	5451.52
669.607	5216.01
669.798	5459.71
669.989	5447.43
670.18	5230.34
670.371	5228.29
670.563	5136.13
670.754	5070.6
670.945	5050.12
671.136	5093.13
671.327	5304.07
671.518	5162.76
671.709	5295.88
671.9	5228.29
672.091	4990.73
672.282	4992.78
672.473	5148.42
672.664	4960.01
672.855	5029.64
673.046	4962.06
673.237	4986.63
673.428	5021.45
673.619	4960.01
673.809	4955.91
674	4921.1
674.191	5062.41
674.382	4798.22
674.573	4910.86
674.764	4865.8
674.954	4853.52
675.145	4837.13
675.336	4796.17
675.527	4886.28
675.717	4951.82
675.908	4652.81
676.099	4650.77
676.289	4931.34
676.48	4888.33
676.671	4769.55
676.861	4804.36
677.052	4648.72
677.243	4755.21
677.433	4654.86
677.624	4730.64
677.814	4618
678.005	4716.3
678.195	4763.4
678.386	4775.69
678.576	4677.39
678.767	4476.69
678.957	4566.8
679.148	4687.63
679.338	4732.69
679.529	4550.42
679.719	4708.11
679.909	4648.72
680.1	4693.77
680.29	4648.72
680.481	4624.14
680.671	4675.34
680.861	4505.36
681.052	4517.65
681.242	4697.87
681.432	4648.72
681.622	4634.38
681.813	4529.94
682.003	4701.97
682.193	4501.26
682.383	4601.62
682.573	4673.29
682.764	4644.62
682.954	4540.18
683.144	4448.02
683.334	4405.01
683.524	4572.94
683.714	4574.99
683.904	4470.55
684.094	4484.88
684.284	4615.95
684.474	4441.87
684.664	4484.88
684.854	4505.36
685.044	4527.89
685.234	4405.01
685.424	4435.73
685.614	4382.48
685.804	4405.01
685.994	4484.88
686.184	4462.35
686.374	4472.59
686.564	4355.86
686.753	4368.15
686.943	4402.96
687.133	4415.25
687.323	4355.86
687.513	4370.19
687.702	4337.43
687.892	4185.88
688.082	4282.13
688.272	4337.43
688.461	4429.59
688.651	4359.95
688.841	4181.78
689.03	4226.84
689.22	4271.89
689.41	4259.6
689.599	4226.84
689.789	4198.17
689.979	4216.6
690.168	4460.31
690.358	4181.78
690.547	4159.25
690.737	4192.02
690.926	4196.12
691.116	4161.3
691.305	4251.41
691.495	4142.87
691.684	4067.1
691.874	4175.64
692.063	4099.86
692.252	4075.29
692.442	4200.21
692.631	4103.96
692.82	4017.94
693.01	4142.87
693.199	4042.52
693.388	4069.14
693.578	4130.58
693.767	4128.53
693.956	4101.91
694.146	3925.79
694.335	4046.62
694.524	4063
694.713	4001.56
694.902	3976.98
695.092	4112.15
695.281	3985.18
695.47	3995.42
695.659	3780.38
695.848	3993.37
696.037	3919.64
696.226	3936.03
696.415	3829.53
696.604	4003.61
696.793	3776.28
696.982	3800.86
697.171	3952.41
697.36	3944.22
697.549	4007.7
697.738	3839.77
697.927	3796.76
698.116	3919.64
698.305	3997.46
698.494	3821.34
698.683	3884.83
698.872	3942.17
699.061	3880.73
699.25	3856.15
699.438	3927.83
699.627	3864.35
699.816	3675.93
700.005	3813.15
700.193	3854.11
700.382	3727.13
700.571	3610.4
700.76	3829.53
700.948	3823.39
701.137	3698.46
701.326	3782.43
701.514	3692.32
701.703	3757.85
701.892	3739.42
702.08	3725.08
702.269	3682.08
702.457	3632.93
702.646	3688.22
702.834	3503.9
703.023	3657.5
703.212	3659.55
703.4	3598.11
703.589	3655.45
703.777	3639.07
703.965	3524.38
704.154	3426.08
704.342	3559.2
704.531	3516.19
704.719	3620.64
704.907	3634.97
705.096	3538.72
705.284	3518.24
705.472	3520.29
705.661	3432.22
705.849	3565.34
706.037	3520.29
706.226	3407.65
706.414	3577.63
706.602	3405.6
706.79	3542.82
706.979	3335.97
707.167	3583.77
707.355	3370.79
707.543	3456.8
707.731	3442.46
707.919	3348.26
708.107	3561.25
708.296	3292.96
708.484	3290.92
708.672	3436.32
708.86	3264.29
709.048	3356.45
709.236	3331.87
709.424	3239.72
709.612	3305.25
709.8	3315.49
709.988	3116.84
710.176	3344.16
710.364	3274.53
710.551	3231.52
710.739	3252
710.927	3219.24
711.115	3284.77
711.303	3272.48
711.491	3223.33
711.679	3290.92
711.866	3131.17
712.054	3229.48
712.242	3266.34
712.43	3186.47
712.617	3233.57
712.805	3235.62
712.993	3108.65
713.181	3012.39
713.368	3139.37
713.556	3039.01
713.744	2967.34
713.931	3159.85
714.119	3141.41
714.306	3192.61
714.494	3069.73
714.682	3157.8
714.869	3018.54
715.057	3092.26
715.244	2895.66
715.432	3094.31
715.619	3077.93
715.807	2996.01
715.994	2961.19
716.182	2985.77
716.369	3030.82
716.556	3086.12
716.744	2883.37
716.931	3020.58
717.119	2928.42
717.306	2901.8
717.493	2912.04
717.681	2774.83
717.868	2854.7
718.055	2873.13
718.242	2979.62
718.43	2897.71
718.617	2879.27
718.804	2834.22
718.991	2889.51
719.179	2928.42
719.366	2846.51
719.553	2879.27
719.74	2721.58
719.927	2905.9
720.114	2828.07
720.301	2797.35
720.488	2834.22
720.676	2709.29
720.863	2860.84
721.05	2842.41
721.237	2787.11
721.424	2832.17
721.611	2817.83
721.798	2637.61
721.985	2690.86
722.172	2633.52
722.358	2717.48
722.545	2793.26
722.732	2709.29
722.919	2770.73
723.106	2682.67
723.293	2619.18
723.48	2610.99
723.667	2582.32
723.853	2520.88
724.04	2615.09
724.227	2539.31
724.414	2668.33
724.6	2606.89
724.787	2680.62
724.974	2744.11
725.161	2551.6
725.347	2449.2
725.534	2567.98
725.72	2502.45
725.907	2692.91
726.094	2588.46
726.28	2422.58
726.467	2580.27
726.653	2438.96
726.84	2471.73
727.027	2580.27
727.213	2608.94
727.4	2459.44
727.586	2524.97
727.773	2469.68
727.959	2531.12
728.145	2588.46
728.332	2406.19
728.518	2441.01
728.705	2441.01
728.891	2387.76
729.077	2600.75
729.264	2512.69
729.45	2453.3
729.636	2453.3
729.823	2377.52
730.009	2324.27
730.195	2465.58
730.382	2447.15
730.568	2340.66
730.754	2273.07
730.94	2406.19
731.126	2311.99
731.313	2404.14
731.499	2346.8
731.685	2434.86
731.871	2258.74
732.057	2330.42
732.243	2350.9
732.429	2416.43
732.615	2330.42
732.801	2346.8
732.987	2348.85
733.173	2332.47
733.359	2223.92
733.545	2383.66
733.731	2189.11
733.917	2357.04
734.103	2416.43
734.289	2236.21
734.475	2311.99
734.661	2295.6
734.847	2273.07
735.033	2215.73
735.219	2332.47
735.404	2105.14
735.59	2191.16
735.776	2191.16
735.962	2185.01
736.148	2236.21
736.333	2150.2
736.519	2193.2
736.705	2082.61
736.89	2158.39
737.076	2092.85
737.262	2178.87
737.447	2195.25
737.633	2111.29
737.819	2082.61
738.004	2062.13
738.19	2117.43
738.375	2070.33
738.561	2137.91
738.747	2178.87
738.932	1965.88
739.118	2146.1
739.303	2160.44
739.489	2125.62
739.674	2021.17
739.859	2078.52
740.045	2158.39
740.23	2113.33
740.416	1965.88
740.601	2070.33
740.786	1963.83
740.972	2019.13
741.157	1963.83
741.342	1945.4
741.528	2060.09
741.713	1953.59
741.898	1937.21
742.084	1955.64
742.269	1955.64
742.454	1980.22
742.639	2010.93
742.824	1896.25
743.01	1900.34
743.195	1982.26
743.38	2080.57
743.565	1883.96
743.75	1816.38
743.935	1916.73
744.12	1883.96
744.305	1740.6
744.49	1802.04
744.675	1779.51
744.86	1978.17
745.045	1834.81
745.23	1808.19
745.415	1785.66
745.6	1879.86
745.785	1765.18
745.97	1740.6
746.155	1736.51
746.34	1771.32
746.525	1709.88
746.71	1736.51
746.895	1730.36
747.079	1683.26
747.264	1687.36
747.449	1838.91
747.634	1730.36
747.819	1705.79
748.003	1546.05
748.188	1699.64
748.373	1642.3
748.557	1781.56
748.742	1642.3
748.927	1605.44
749.111	1640.25
749.296	1584.96
749.481	1584.96
749.665	1593.15
749.85	1474.37
750.034	1527.61
750.219	1568.57
750.404	1507.13
750.588	1421.12
750.773	1412.93
750.957	1507.13
751.141	1482.56
751.326	1521.47
751.51	1445.7
751.695	1453.89
751.879	1447.74
752.064	1494.85
752.248	1492.8
752.432	1398.59
752.617	1388.35
752.801	1417.02
752.985	1460.03
753.17	1308.48
753.354	1406.78
753.538	1314.63
753.722	1402.69
753.907	1285.95
754.091	1269.57
754.275	1335.1
754.459	1290.05
754.643	1302.34
754.828	1249.09
755.012	1216.32
755.196	1267.52
755.38	1183.56
755.564	1214.27
755.748	1199.94
755.932	1236.8
756.116	1201.99
756.3	1204.03
756.484	1158.98
756.668	1208.13
756.852	1161.03
757.036	1208.13
757.22	1136.45
757.404	1156.93
757.588	1130.31
757.772	1236.8
757.956	1142.6
758.14	1138.5
758.323	1118.02
758.507	1097.54
758.691	1181.51
758.875	1089.35
759.059	1165.12
759.242	1179.46
759.426	1158.98
759.61	997.19
759.794	1027.91
759.977	1126.21
760.161	1036.1
760.345	1099.59
760.528	1130.31
760.712	1005.38
760.895	1060.68
761.079	1124.16
761.263	1029.96
761.446	964.42
761.63	1054.53
761.813	1021.77
761.997	1001.29
762.18	1029.96
762.364	962.37
762.547	952.13
762.731	954.18
762.914	954.18
763.098	900.94
763.281	1003.33
763.464	888.65
763.648	956.23
763.831	950.09
764.015	968.52
764.198	1005.38
764.381	925.51
764.564	962.37
764.748	894.79
764.931	939.85
765.114	921.42
765.297	921.42
765.481	880.46
765.664	905.03
765.847	999.24
766.03	900.94
766.213	915.27
766.397	923.46
766.58	857.93
766.763	888.65
766.946	907.08
767.129	907.08
767.312	814.92
767.495	814.92
767.678	685.9
767.861	814.92
768.044	849.74
768.227	872.26
768.41	853.83
768.593	753.48
768.776	737.1
768.959	808.78
769.142	802.63
769.324	814.92
769.507	825.16
769.69	812.87
769.873	808.78
770.056	855.88
770.239	884.55
770.421	917.32
770.604	800.59
770.787	806.73
770.97	759.63
771.152	849.74
771.335	839.5
771.518	769.87
771.7	724.81
771.883	792.39
772.066	802.63
772.248	784.2
772.431	898.89
772.613	726.86
772.796	689.99
772.978	765.77
773.161	827.21
773.343	757.58
773.526	765.77
773.708	651.08
773.891	726.86
774.073	687.95
774.256	747.34
774.438	759.63
774.621	694.09
774.803	669.52
774.985	612.17
775.168	716.62
775.35	696.14
775.532	671.56
775.715	718.67
775.897	667.47
776.079	685.9
776.261	618.32
776.444	634.7
776.626	714.57
776.808	718.67
776.99	597.84
777.173	679.75
777.355	661.32
777.537	622.41
777.719	724.81
777.901	636.75
778.083	540.49
778.265	612.17
778.447	622.41
778.629	608.08
778.811	579.4
778.993	640.84
779.175	571.21
779.357	546.64
779.539	587.6
779.721	593.74
779.903	577.36
780.085	544.59
780.267	509.77
780.449	528.21
780.631	612.17
780.812	606.03
780.994	520.01
781.176	528.21
781.358	413.52
781.54	495.44
781.721	505.68
781.903	515.92
782.085	462.67
782.267	522.06
782.448	474.96
782.63	526.16
782.812	503.63
782.993	495.44
783.175	495.44
783.357	423.76
783.538	454.48
783.72	474.96
783.901	401.23
784.083	470.86
784.264	477.01
784.446	388.94
784.627	423.76
784.809	511.82
784.99	462.67
785.172	440.14
785.353	464.72
785.535	415.57
785.716	427.85
785.897	454.48
786.079	356.18
786.26	407.38
786.441	434
786.623	429.9
786.804	315.22
786.985	413.52
787.167	442.19
787.348	358.22
787.529	386.9
787.71	403.28
787.891	450.38
788.073	313.17
788.254	405.33
788.435	431.95
788.616	366.42
788.797	347.98
788.978	325.46
789.159	364.37
789.34	458.57
789.522	380.75
789.703	270.16
789.884	405.33
790.065	366.42
790.246	372.56
790.427	372.56
790.607	345.94
790.788	366.42
790.969	356.18
791.15	292.69
791.331	382.8
791.512	323.41
791.693	337.74
791.874	341.84
792.054	409.42
792.235	341.84
792.416	339.79
792.597	284.5
792.778	356.18
792.958	335.7
793.139	274.26
793.32	268.11
793.5	257.87
793.681	413.52
793.862	329.55
794.042	341.84
794.223	266.07
794.404	257.87
794.584	284.5
794.765	284.5
794.945	270.16
795.126	266.07
795.306	290.64
795.487	323.41
795.667	266.07
795.848	286.54
796.028	241.49
796.209	264.02
796.389	331.6
796.57	243.54
796.75	270.16
796.93	192.34
797.111	221.01
797.291	339.79
797.471	184.15
797.652	175.95
797.832	229.2
798.012	282.45
798.192	323.41
798.373	237.39
798.553	237.39
798.733	333.65
798.913	272.21
799.093	218.96
799.274	257.87
799.454	245.59
799.634	235.35
799.814	249.68
799.994	276.31
800.174	259.92
800.354	249.68
800.534	268.11
800.714	241.49
800.894	221.01
801.074	225.11
801.254	145.24
801.434	284.5
801.614	266.07
801.794	159.57
801.974	966.47
802.154	216.91
802.334	243.54
802.514	153.43
802.693	194.39
802.873	147.28
803.053	292.69
803.233	243.54
803.413	233.3
803.592	206.67
803.772	184.15
803.952	147.28
804.131	163.67
804.311	268.11
804.491	241.49
804.67	184.15
804.85	163.67
805.03	261.97
805.209	216.91
805.389	141.14
805.568	202.58
805.748	229.2
805.928	175.95
806.107	249.68
806.287	247.63
806.466	159.57
806.646	221.01
806.825	194.39
807.004	159.57
807.184	161.62
807.363	208.72
807.543	135
807.722	139.09
807.901	178
808.081	247.63
808.26	87.89
808.439	204.63
808.619	169.81
808.798	143.19
808.977	178
809.156	223.06
809.336	257.87
809.515	241.49
809.694	118.61
809.873	112.47
810.052	182.1
810.231	218.96
810.411	157.52
810.59	251.73
810.769	225.11
810.948	272.21
811.127	91.99
811.306	180.05
811.485	126.8
811.664	241.49
811.843	147.28
812.022	137.04
812.201	175.95
812.38	153.43
812.559	106.32
812.737	227.15
812.916	69.46
813.095	188.24
813.274	157.52
813.453	135
813.632	81.75
813.811	141.14
813.989	67.41
814.168	169.81
814.347	91.99
814.526	159.57
814.704	104.28
814.883	202.58
815.062	130.9
815.24	167.76
815.419	135
815.598	227.15
815.776	98.13
815.955	61.27
816.133	85.84
816.312	135
816.49	130.9
816.669	153.43
816.847	94.04
817.026	65.36
817.204	118.61
817.383	128.85
817.561	98.13
817.74	192.34
817.918	102.23
818.097	130.9
818.275	104.28
818.453	159.57
818.632	118.61
818.81	130.9
818.988	147.28
819.167	153.43
819.345	81.75
819.523	114.52
819.701	184.15
819.879	208.72
820.058	85.84
820.236	75.6
820.414	61.27
820.592	147.28
820.77	194.39
820.948	110.42
821.127	110.42
821.305	98.13
821.483	81.75
821.661	85.84
821.839	151.38
822.017	122.71
822.195	180.05
822.373	116.56
822.551	153.43
822.729	79.7
822.907	159.57
823.085	143.19
823.262	20.31
823.44	143.19
823.618	102.23
823.796	73.56
823.974	114.52
824.152	63.32
824.329	55.12
824.507	145.24
824.685	200.53
824.863	85.84
825.04	102.23
825.218	204.63
825.396	28.5
825.574	184.15
825.751	118.61
825.929	157.52
826.107	63.32
826.284	104.28
826.462	186.19
826.639	87.89
826.817	24.4
826.994	89.94
827.172	44.88
827.349	198.48
827.527	153.43
827.704	112.47
827.882	98.13
828.059	167.76
828.237	36.69
828.414	91.99
828.591	12.12
828.769	53.08
828.946	112.47
829.124	147.28
829.301	128.85
829.478	130.9
829.655	137.04
829.833	130.9
830.01	48.98
830.187	114.52
830.364	85.84
830.542	169.81
830.719	155.47
830.896	135
831.073	184.15
831.25	137.04
831.427	126.8
831.604	69.46
831.782	-8.36
831.959	87.89
832.136	118.61
832.313	46.93
832.49	34.64
832.667	100.18
832.844	51.03
833.021	167.76
833.198	44.88
833.374	16.21
833.551	81.75
833.728	28.5
833.905	77.65
834.082	73.56
834.259	61.27
834.436	118.61
834.612	61.27
834.789	112.47
834.966	85.84
835.143	85.84
835.319	40.79
835.496	114.52
835.673	61.27
835.85	151.38
836.026	114.52
836.203	104.28
836.38	36.69
836.556	79.7
836.733	3.93
836.909	165.71
837.086	59.22
837.262	28.5
837.439	53.08
837.616	110.42
837.792	69.46
837.968	102.23
838.145	89.94
838.321	135
838.498	14.17
838.674	116.56
838.851	137.04
839.027	53.08
839.203	108.37
839.38	110.42
839.556	98.13
839.732	130.9
839.909	-53.42
840.085	110.42
840.261	5.97
840.437	73.56
840.614	-2.22
840.79	57.17
840.966	53.08
841.142	126.8
841.318	118.61
841.494	-32.94
841.671	87.89
841.847	20.31
842.023	14.17
842.199	53.08
842.375	89.94
842.551	44.88
842.727	69.46
842.903	24.4
843.079	14.17
843.255	118.61
843.431	85.84
843.607	24.4
843.783	-39.08
843.959	59.22
844.134	28.5
844.31	137.04
844.486	75.6
844.662	108.37
844.838	8.02
845.013	81.75
845.189	55.12
845.365	81.75
845.541	98.13
845.716	106.32
845.892	77.65
846.068	10.07
846.244	61.27
846.419	112.47
846.595	-16.55
846.77	24.4
846.946	96.08
847.122	46.93
847.297	57.17
847.473	69.46
847.648	-8.36
847.824	94.04
847.999	36.69
848.175	108.37
848.35	24.4
848.526	44.88
848.701	126.8
848.876	175.95
849.052	48.98
849.227	81.75
849.403	48.98
849.578	104.28
849.753	53.08
849.929	59.22
850.104	-12.46
850.279	28.5
850.454	24.4
850.63	102.23
850.805	3.93
850.98	106.32
851.155	10.07
851.33	12.12
851.505	38.74
851.681	85.84
851.856	-12.46
852.031	139.09
852.206	65.36
852.381	57.17
852.556	20.31
852.731	98.13
852.906	69.46
853.081	3.93
853.256	153.43
853.431	36.69
853.606	28.5
853.781	5.97
853.956	5.97
854.131	16.21
854.305	48.98
854.48	89.94
854.655	20.31
854.83	75.6
855.005	-14.51
855.18	46.93
855.354	36.69
855.529	36.69
855.704	32.6
855.879	71.51
856.053	59.22
856.228	12.12
856.403	-20.65
856.577	20.31
856.752	-28.84
856.926	71.51
857.101	79.7
857.276	96.08
857.45	30.55
857.625	98.13
857.799	36.69
857.974	-18.6
858.148	36.69
858.323	1.88
858.497	118.61
858.672	53.08
858.846	24.4
859.02	-2.22
859.195	-4.27
859.369	77.65
859.543	44.88
859.718	24.4
859.892	69.46
860.066	26.45
860.241	-0.17
860.415	-37.03
860.589	-0.17
860.763	94.04
860.938	55.12
861.112	81.75
861.286	44.88
861.46	20.31
861.634	-37.03
861.808	53.08
861.982	3.93
862.157	26.45
862.331	3.93
862.505	-6.31
862.679	-43.18
862.853	65.36
863.027	48.98
863.201	89.94
863.375	-37.03
863.549	77.65
863.722	51.03
863.896	71.51
864.07	-8.36
864.244	53.08
864.418	-2.22
864.592	28.5
864.766	-37.03
864.939	14.17
865.113	-24.75
865.287	71.51
865.461	-59.56
865.634	36.69
865.808	-34.99
865.982	5.97
866.156	26.45
866.329	-24.75
866.503	8.02
866.676	94.04
866.85	26.45
867.024	-4.27
867.197	44.88
867.371	71.51
867.544	71.51
867.718	3.93
867.891	53.08
868.065	46.93
868.238	28.5
868.412	161.62
868.585	-20.65
868.759	67.41
868.932	-26.79
869.105	67.41
869.279	-22.7
869.452	20.31
869.625	-28.84
869.799	73.56
869.972	-32.94
870.145	48.98
870.319	55.12
870.492	36.69
870.665	36.69
870.838	-20.65
871.011	46.93
871.185	-0.17
871.358	-10.41
871.531	75.6
871.704	61.27
871.877	96.08
872.05	36.69
872.223	5.97
872.396	-28.84
872.569	44.88
872.742	-69.8
872.915	20.31
873.088	18.26
873.261	16.21
873.434	34.64
873.607	20.31
873.78	48.98
873.953	-16.55
874.126	-49.32
874.299	53.08
874.471	44.88
874.644	20.31
874.817	55.12
874.99	98.13
875.163	69.46
875.335	5.97
875.508	57.17
875.681	69.46
875.853	-2.22
876.026	28.5
876.199	-20.65
876.371	22.36
876.544	-82.09
876.717	53.08
876.889	44.88
877.062	22.36
877.234	14.17
877.407	-67.75
877.579	16.21
877.752	10.07
877.924	112.47
878.097	20.31
878.269	20.31
878.442	73.56
878.614	46.93
878.786	75.6
878.959	-80.04
879.131	57.17
879.303	-32.94
879.476	81.75
879.648	26.45
879.82	40.79
879.993	-6.31
880.165	3.93
880.337	22.36
880.509	16.21
880.681	-49.32
880.854	-10.41
881.026	85.84
881.198	118.61
881.37	14.17
881.542	-0.17
881.714	65.36
881.886	14.17
882.058	-65.71
882.23	-16.55
882.402	-12.46
882.574	14.17
882.746	44.88
882.918	20.31
883.09	-20.65
883.262	-43.18
883.434	3.93
883.606	8.02
883.778	-20.65
883.95	61.27
884.122	18.26
884.293	57.17
884.465	3.93
884.637	157.52
884.809	12.12
884.98	38.74
885.152	-20.65
885.324	5.97
885.496	1.88
885.667	46.93
885.839	20.31
886.011	85.84
886.182	26.45
886.354	112.47
886.525	-57.51
886.697	14.17
886.869	28.5
887.04	36.69
887.212	61.27
887.383	141.14
887.555	-0.17
887.726	14.17
887.897	-45.23
888.069	12.12
888.24	44.88
888.412	44.88
888.583	53.08
888.754	85.84
888.926	-82.09
889.097	-57.51
889.268	-57.51
889.44	12.12
889.611	-104.62
889.782	-8.36
889.953	-32.94
890.125	1.88
890.296	-12.46
890.467	-18.6
890.638	16.21
890.809	12.12
890.98	12.12
891.151	22.36
891.323	77.65
891.494	3.93
891.665	24.4
891.836	5.97
892.007	30.55
892.178	-18.6
892.349	53.08
892.52	-30.89
892.691	12.12
892.862	-32.94
893.032	-57.51
893.203	55.12
893.374	-8.36
893.545	63.32
893.716	28.5
893.887	65.36
894.057	-4.27
894.228	20.31
894.399	-4.27
894.57	79.7
894.74	55.12
894.911	28.5
895.082	44.88
895.253	-28.84
895.423	79.7
895.594	178
895.764	8.02
895.935	-53.42
896.106	22.36
896.276	73.56
896.447	12.12
896.617	63.32
896.788	-24.75
896.958	8.02
897.129	-28.84
897.299	16.21
897.47	96.08
897.64	38.74
897.81	46.93
897.981	-16.55
898.151	28.5
898.322	36.69
898.492	67.41
898.662	-18.6
898.832	-2.22
899.003	-73.9
899.173	32.6
899.343	-49.32
899.513	-57.51
