Data from USB4F104151__185__14-32-57-156.txt Node

Date: Thu Mar 13 14:32:57 EDT 2025
User: louis
Spectrometer: USB4F10415
Trigger mode: 4
Integration Time (sec): 2.500000E-2
Scans to average: 1
Electric dark correction enabled: true
Nonlinearity correction enabled: false
Boxcar width: 0
XAxis mode: Wavelengths
Number of Pixels in Spectrum: 3648
>>>>>Begin Spectral Data<<<<<
178.204	-209.06
178.424	-209.06
178.644	-209.06
178.864	-188.58
179.084	-106.67
179.304	-6.31
179.524	26.45
179.744	-57.51
179.964	-0.17
180.184	12.12
180.404	-8.36
180.624	12.12
180.844	-0.17
181.064	-32.94
181.283	-45.23
181.503	-8.36
181.723	108.37
181.943	-20.65
182.163	98.13
182.383	24.4
182.602	36.69
182.822	48.98
183.042	-26.79
183.262	-55.47
183.482	-0.17
183.701	20.31
183.921	-32.94
184.141	-39.08
184.361	8.02
184.58	-8.36
184.8	-26.79
185.02	-39.08
185.239	48.98
185.459	-24.75
185.679	22.36
185.898	-28.84
186.118	98.13
186.338	-55.47
186.557	-30.89
186.777	-8.36
186.997	10.07
187.216	26.45
187.436	-8.36
187.655	18.26
187.875	91.99
188.095	-10.41
188.314	-12.46
188.534	69.46
188.753	-75.95
188.973	69.46
189.192	59.22
189.412	53.08
189.631	40.79
189.851	40.79
190.07	40.79
190.29	-41.13
190.509	40.79
190.729	-22.7
190.948	32.6
191.168	81.75
191.387	40.79
191.607	20.31
191.826	-0.17
192.045	26.45
192.265	53.08
192.484	96.08
192.704	32.6
192.923	10.07
193.142	120.66
193.362	16.21
193.581	20.31
193.8	53.08
194.02	57.17
194.239	48.98
194.458	-8.36
194.678	20.31
194.897	8.02
195.116	44.88
195.335	57.17
195.555	-14.51
195.774	16.21
195.993	51.03
196.212	-2.22
196.432	16.21
196.651	18.26
196.87	-37.03
197.089	106.32
197.308	16.21
197.528	59.22
197.747	38.74
197.966	36.69
198.185	114.52
198.404	-10.41
198.623	61.27
198.842	116.56
199.062	59.22
199.281	32.6
199.5	20.31
199.719	40.79
199.938	-2.22
200.157	32.6
200.376	71.51
200.595	73.56
200.814	-14.51
201.033	-8.36
201.252	98.13
201.471	34.64
201.69	26.45
201.909	48.98
202.128	94.04
202.347	12.12
202.566	-22.7
202.785	20.31
203.004	26.45
203.223	73.56
203.442	69.46
203.661	14.17
203.879	18.26
204.098	44.88
204.317	57.17
204.536	65.36
204.755	36.69
204.974	-20.65
205.193	69.46
205.411	104.28
205.63	53.08
205.849	59.22
206.068	-20.65
206.287	53.08
206.505	98.13
206.724	36.69
206.943	1.88
207.162	-6.31
207.381	44.88
207.599	28.5
207.818	73.56
208.037	-47.27
208.255	-0.17
208.474	67.41
208.693	67.41
208.911	16.21
209.13	44.88
209.349	16.21
209.567	48.98
209.786	-8.36
210.005	51.03
210.223	-10.41
210.442	-55.47
210.661	3.93
210.879	-0.17
211.098	53.08
211.316	42.84
211.535	48.98
211.753	32.6
211.972	18.26
212.191	-10.41
212.409	83.8
212.628	57.17
212.846	26.45
213.065	77.65
213.283	106.32
213.502	18.26
213.72	-34.99
213.938	69.46
214.157	53.08
214.375	40.79
214.594	32.6
214.812	20.31
215.031	3.93
215.249	-6.31
215.467	10.07
215.686	81.75
215.904	81.75
216.122	-24.75
216.341	26.45
216.559	12.12
216.778	24.4
216.996	46.93
217.214	34.64
217.432	-26.79
217.651	24.4
217.869	-24.75
218.087	-4.27
218.306	20.31
218.524	57.17
218.742	28.5
218.96	32.6
219.179	-32.94
219.397	57.17
219.615	3.93
219.833	67.41
220.051	32.6
220.27	28.5
220.488	30.55
220.706	51.03
220.924	32.6
221.142	-110.76
221.36	-32.94
221.578	-12.46
221.796	-24.75
222.015	-0.17
222.233	40.79
222.451	-63.66
222.669	-45.23
222.887	73.56
223.105	24.4
223.323	57.17
223.541	12.12
223.759	51.03
223.977	8.02
224.195	20.31
224.413	3.93
224.631	16.21
224.849	8.02
225.067	120.66
225.285	8.02
225.503	16.21
225.721	-16.55
225.939	81.75
226.157	8.02
226.375	83.8
226.592	-53.42
226.81	28.5
227.028	-24.75
227.246	-16.55
227.464	20.31
227.682	67.41
227.9	65.36
228.117	28.5
228.335	-6.31
228.553	69.46
228.771	-16.55
228.989	-8.36
229.206	18.26
229.424	16.21
229.642	-12.46
229.86	81.75
230.077	98.13
230.295	24.4
230.513	63.32
230.731	46.93
230.948	-0.17
231.166	114.52
231.384	57.17
231.601	8.02
231.819	40.79
232.037	32.6
232.254	18.26
232.472	-24.75
232.689	8.02
232.907	67.41
233.125	42.84
233.342	30.55
233.56	48.98
233.777	-22.7
233.995	24.4
234.213	73.56
234.43	-34.99
234.648	8.02
234.865	79.7
235.083	24.4
235.3	-2.22
235.518	1.88
235.735	26.45
235.953	40.79
236.17	-57.51
236.388	-63.66
236.605	-14.51
236.822	51.03
237.04	-8.36
237.257	28.5
237.475	-32.94
237.692	24.4
237.909	-24.75
238.127	-24.75
238.344	18.26
238.562	16.21
238.779	-30.89
238.996	59.22
239.214	8.02
239.431	73.56
239.648	18.26
239.865	65.36
240.083	5.97
240.3	38.74
240.517	-6.31
240.735	-45.23
240.952	36.69
241.169	32.6
241.386	48.98
241.603	132.95
241.821	-61.61
242.038	57.17
242.255	-20.65
242.472	40.79
242.689	94.04
242.907	32.6
243.124	10.07
243.341	-16.55
243.558	51.03
243.775	1.88
243.992	-49.32
244.209	67.41
244.426	32.6
244.643	59.22
244.86	-41.13
245.078	51.03
245.295	75.6
245.512	38.74
245.729	-71.85
245.946	-6.31
246.163	8.02
246.38	81.75
246.597	24.4
246.814	-20.65
247.031	57.17
247.248	-0.17
247.464	59.22
247.681	63.32
247.898	73.56
248.115	26.45
248.332	32.6
248.549	18.26
248.766	65.36
248.983	18.26
249.2	20.31
249.417	57.17
249.633	79.7
249.85	28.5
250.067	98.13
250.284	24.4
250.501	108.37
250.717	28.5
250.934	-34.99
251.151	-57.51
251.368	-12.46
251.585	38.74
251.801	10.07
252.018	-6.31
252.235	36.69
252.451	48.98
252.668	20.31
252.885	-16.55
253.102	65.36
253.318	8.02
253.535	-24.75
253.752	-4.27
253.968	77.65
254.185	-28.84
254.401	44.88
254.618	65.36
254.835	28.5
255.051	44.88
255.268	24.4
255.484	32.6
255.701	16.21
255.917	24.4
256.134	-108.71
256.351	-0.17
256.567	5.97
256.784	32.6
257	-57.51
257.217	83.8
257.433	81.75
257.65	34.64
257.866	46.93
258.082	1.88
258.299	1.88
258.515	42.84
258.732	-37.03
258.948	-16.55
259.165	61.27
259.381	-16.55
259.597	96.08
259.814	1.88
260.03	59.22
260.246	1.88
260.463	24.4
260.679	114.52
260.895	10.07
261.112	94.04
261.328	-0.17
261.544	-22.7
261.761	132.95
261.977	-16.55
262.193	51.03
262.409	57.17
262.626	28.5
262.842	-41.13
263.058	-53.42
263.274	24.4
263.49	12.12
263.707	94.04
263.923	3.93
264.139	5.97
264.355	-61.61
264.571	59.22
264.787	-4.27
265.004	57.17
265.22	-10.41
265.436	69.46
265.652	40.79
265.868	26.45
266.084	44.88
266.3	24.4
266.516	-32.94
266.732	48.98
266.948	18.26
267.164	24.4
267.38	46.93
267.596	24.4
267.812	96.08
268.028	67.41
268.244	-0.17
268.46	30.55
268.676	55.12
268.892	53.08
269.108	-16.55
269.324	28.5
269.54	-8.36
269.756	42.84
269.972	34.64
270.188	12.12
270.403	65.36
270.619	98.13
270.835	-14.51
271.051	-53.42
271.267	1.88
271.483	24.4
271.698	44.88
271.914	32.6
272.13	-32.94
272.346	57.17
272.562	-24.75
272.777	-41.13
272.993	-55.47
273.209	91.99
273.425	-43.18
273.64	-12.46
273.856	51.03
274.072	-18.6
274.287	-10.41
274.503	57.17
274.719	28.5
274.934	46.93
275.15	-8.36
275.366	63.32
275.581	8.02
275.797	67.41
276.012	-14.51
276.228	53.08
276.444	42.84
276.659	120.66
276.875	-32.94
277.09	59.22
277.306	-14.51
277.521	3.93
277.737	40.79
277.952	12.12
278.168	30.55
278.383	40.79
278.599	48.98
278.814	10.07
279.03	53.08
279.245	-16.55
279.461	16.21
279.676	8.02
279.892	-73.9
280.107	16.21
280.322	-2.22
280.538	-57.51
280.753	-0.17
280.969	-37.03
281.184	3.93
281.399	57.17
281.615	-0.17
281.83	100.18
282.045	20.31
282.26	-32.94
282.476	42.84
282.691	32.6
282.906	-22.7
283.122	51.03
283.337	12.12
283.552	53.08
283.767	14.17
283.983	32.6
284.198	100.18
284.413	63.32
284.628	-32.94
284.843	59.22
285.058	157.52
285.274	-6.31
285.489	-30.89
285.704	51.03
285.919	-6.31
286.134	73.56
286.349	18.26
286.564	3.93
286.779	69.46
286.995	12.12
287.21	-43.18
287.425	20.31
287.64	-71.85
287.855	69.46
288.07	24.4
288.285	57.17
288.5	46.93
288.715	51.03
288.93	-8.36
289.145	24.4
289.36	65.36
289.575	75.6
289.79	65.36
290.004	38.74
290.219	69.46
290.434	-61.61
290.649	-0.17
290.864	44.88
291.079	-24.75
291.294	98.13
291.509	12.12
291.724	-0.17
291.938	18.26
292.153	-8.36
292.368	-16.55
292.583	10.07
292.798	42.84
293.012	-6.31
293.227	81.75
293.442	18.26
293.657	40.79
293.871	85.84
294.086	63.32
294.301	102.23
294.516	32.6
294.73	48.98
294.945	8.02
295.16	3.93
295.374	59.22
295.589	16.21
295.804	-12.46
296.018	26.45
296.233	71.51
296.447	40.79
296.662	32.6
296.877	46.93
297.091	65.36
297.306	22.36
297.52	75.6
297.735	48.98
297.949	28.5
298.164	91.99
298.378	-22.7
298.593	67.41
298.807	8.02
299.022	145.24
299.236	65.36
299.451	40.79
299.665	34.64
299.88	-37.03
300.094	10.07
300.309	42.84
300.523	81.75
300.737	32.6
300.952	75.6
301.166	-10.41
301.381	46.93
301.595	67.41
301.809	14.17
302.024	42.84
302.238	3.93
302.452	81.75
302.667	-14.51
302.881	40.79
303.095	40.79
303.309	46.93
303.524	69.46
303.738	-12.46
303.952	-8.36
304.166	42.84
304.381	-69.8
304.595	18.26
304.809	32.6
305.023	40.79
305.237	-24.75
305.452	53.08
305.666	57.17
305.88	59.22
306.094	61.27
306.308	8.02
306.522	32.6
306.736	100.18
306.95	44.88
307.164	-16.55
307.379	32.6
307.593	87.89
307.807	-12.46
308.021	20.31
308.235	48.98
308.449	-45.23
308.663	36.69
308.877	57.17
309.091	22.36
309.305	85.84
309.519	-16.55
309.733	-8.36
309.947	-53.42
310.161	67.41
310.374	30.55
310.588	51.03
310.802	-57.51
311.016	20.31
311.23	42.84
311.444	1.88
311.658	65.36
311.872	75.6
312.085	-2.22
312.299	38.74
312.513	32.6
312.727	24.4
312.941	-2.22
313.154	34.64
313.368	42.84
313.582	46.93
313.796	57.17
314.009	12.12
314.223	98.13
314.437	10.07
314.651	83.8
314.864	42.84
315.078	-0.17
315.292	-22.7
315.505	63.32
315.719	61.27
315.933	51.03
316.146	81.75
316.36	-22.7
316.573	40.79
316.787	81.75
317.001	3.93
317.214	-32.94
317.428	53.08
317.641	-16.55
317.855	16.21
318.068	40.79
318.282	69.46
318.495	53.08
318.709	48.98
318.922	44.88
319.136	91.99
319.349	-16.55
319.563	53.08
319.776	-8.36
319.99	-88.23
320.203	53.08
320.417	-6.31
320.63	137.04
320.843	59.22
321.057	91.99
321.27	38.74
321.483	24.4
321.697	28.5
321.91	26.45
322.124	-6.31
322.337	46.93
322.55	12.12
322.763	16.21
322.977	59.22
323.19	-12.46
323.403	40.79
323.617	-4.27
323.83	63.32
324.043	24.4
324.256	20.31
324.469	8.02
324.683	16.21
324.896	-16.55
325.109	18.26
325.322	-32.94
325.535	42.84
325.748	20.31
325.962	16.21
326.175	14.17
326.388	24.4
326.601	106.32
326.814	10.07
327.027	-24.75
327.24	20.31
327.453	-65.71
327.666	-39.08
327.879	36.69
328.092	-24.75
328.305	55.12
328.518	81.75
328.731	20.31
328.944	55.12
329.157	48.98
329.37	59.22
329.583	118.61
329.796	132.95
330.009	-49.32
330.222	42.84
330.435	77.65
330.648	10.07
330.861	42.84
331.073	20.31
331.286	81.75
331.499	26.45
331.712	42.84
331.925	59.22
332.138	-34.99
332.35	89.94
332.563	-26.79
332.776	3.93
332.989	65.36
333.202	-2.22
333.414	55.12
333.627	10.07
333.84	26.45
334.053	51.03
334.265	57.17
334.478	65.36
334.691	-71.85
334.903	81.75
335.116	-8.36
335.329	16.21
335.541	98.13
335.754	81.75
335.966	46.93
336.179	65.36
336.392	42.84
336.604	108.37
336.817	24.4
337.029	57.17
337.242	32.6
337.454	10.07
337.667	-8.36
337.88	75.6
338.092	1.88
338.305	-4.27
338.517	8.02
338.729	67.41
338.942	40.79
339.154	-0.17
339.367	-32.94
339.579	73.56
339.792	-6.31
340.004	81.75
340.217	57.17
340.429	42.84
340.641	48.98
340.854	-6.31
341.066	10.07
341.278	65.36
341.491	18.26
341.703	1.88
341.915	-6.31
342.128	85.84
342.34	57.17
342.552	65.36
342.764	38.74
342.977	18.26
343.189	16.21
343.401	-26.79
343.613	-32.94
343.826	73.56
344.038	-49.32
344.25	69.46
344.462	63.32
344.674	24.4
344.886	-18.6
345.099	16.21
345.311	32.6
345.523	8.02
345.735	-20.65
345.947	28.5
346.159	83.8
346.371	12.12
346.583	-0.17
346.795	112.47
347.007	-4.27
347.219	32.6
347.431	57.17
347.643	132.95
347.855	8.02
348.067	30.55
348.279	-47.27
348.491	-6.31
348.703	61.27
348.915	20.31
349.127	-28.84
349.339	51.03
349.551	143.19
349.763	65.36
349.975	-6.31
350.187	108.37
350.399	24.4
350.61	10.07
350.822	8.02
351.034	8.02
351.246	69.46
351.458	16.21
351.669	26.45
351.881	53.08
352.093	94.04
352.305	5.97
352.517	79.7
352.728	59.22
352.94	32.6
353.152	83.8
353.363	14.17
353.575	1.88
353.787	38.74
353.999	34.64
354.21	26.45
354.422	-12.46
354.633	-0.17
354.845	40.79
355.057	3.93
355.268	53.08
355.48	24.4
355.692	26.45
355.903	18.26
356.115	34.64
356.326	-2.22
356.538	-4.27
356.749	81.75
356.961	83.8
357.172	83.8
357.384	24.4
357.595	59.22
357.807	69.46
358.018	32.6
358.23	75.6
358.441	143.19
358.653	32.6
358.864	8.02
359.075	-12.46
359.287	26.45
359.498	-8.36
359.709	8.02
359.921	-14.51
360.132	57.17
360.344	40.79
360.555	32.6
360.766	61.27
360.977	18.26
361.189	40.79
361.4	48.98
361.611	87.89
361.823	14.17
362.034	73.56
362.245	-30.89
362.456	34.64
362.667	-16.55
362.879	-37.03
363.09	69.46
363.301	24.4
363.512	8.02
363.723	3.93
363.935	-55.47
364.146	100.18
364.357	32.6
364.568	44.88
364.779	-6.31
364.99	48.98
365.201	61.27
365.412	57.17
365.623	51.03
365.834	155.47
366.045	40.79
366.256	89.94
366.467	24.4
366.678	40.79
366.889	85.84
367.1	85.84
367.311	28.5
367.522	73.56
367.733	83.8
367.944	114.52
368.155	-28.84
368.366	42.84
368.577	65.36
368.788	91.99
368.999	65.36
369.209	91.99
369.42	110.42
369.631	167.76
369.842	34.64
370.053	73.56
370.264	94.04
370.474	40.79
370.685	24.4
370.896	77.65
371.107	116.56
371.317	87.89
371.528	28.5
371.739	155.47
371.95	22.36
372.16	10.07
372.371	-8.36
372.582	16.21
372.792	34.64
373.003	118.61
373.214	24.4
373.424	59.22
373.635	69.46
373.846	59.22
374.056	32.6
374.267	104.28
374.477	-16.55
374.688	3.93
374.898	55.12
375.109	24.4
375.319	73.56
375.53	32.6
375.74	51.03
375.951	67.41
376.161	81.75
376.372	98.13
376.582	24.4
376.793	57.17
377.003	16.21
377.214	8.02
377.424	98.13
377.635	24.4
377.845	67.41
378.055	77.65
378.266	87.89
378.476	-0.17
378.686	5.97
378.897	71.51
379.107	77.65
379.317	20.31
379.528	100.18
379.738	122.71
379.948	83.8
380.158	65.36
380.369	85.84
380.579	61.27
380.789	32.6
380.999	57.17
381.21	94.04
381.42	98.13
381.63	-53.42
381.84	89.94
382.05	89.94
382.261	118.61
382.471	53.08
382.681	36.69
382.891	42.84
383.101	24.4
383.311	-20.65
383.521	26.45
383.731	83.8
383.941	48.98
384.151	18.26
384.361	12.12
384.571	26.45
384.781	48.98
384.991	85.84
385.201	106.32
385.411	130.9
385.621	40.79
385.831	89.94
386.041	85.84
386.251	32.6
386.461	114.52
386.671	10.07
386.881	34.64
387.091	-80.04
387.301	130.9
387.511	59.22
387.72	89.94
387.93	32.6
388.14	8.02
388.35	8.02
388.56	75.6
388.769	40.79
388.979	-6.31
389.189	73.56
389.399	51.03
389.609	69.46
389.818	116.56
390.028	178
390.238	91.99
390.447	-14.51
390.657	75.6
390.867	-20.65
391.076	71.51
391.286	100.18
391.496	81.75
391.705	26.45
391.915	83.8
392.125	200.53
392.334	48.98
392.544	57.17
392.753	65.36
392.963	-0.17
393.172	91.99
393.382	32.6
393.591	94.04
393.801	65.36
394.01	116.56
394.22	44.88
394.429	16.21
394.639	-24.75
394.848	-0.17
395.058	5.97
395.267	61.27
395.477	98.13
395.686	57.17
395.895	135
396.105	167.76
396.314	61.27
396.524	40.79
396.733	-0.17
396.942	106.32
397.152	116.56
397.361	32.6
397.57	122.71
397.78	57.17
397.989	89.94
398.198	81.75
398.407	42.84
398.617	151.38
398.826	-84.14
399.035	32.6
399.244	135
399.453	83.8
399.663	114.52
399.872	147.28
400.081	65.36
400.29	147.28
400.499	102.23
400.708	147.28
400.917	112.47
401.127	83.8
401.336	91.99
401.545	200.53
401.754	91.99
401.963	175.95
402.172	59.22
402.381	44.88
402.59	73.56
402.799	34.64
403.008	139.09
403.217	149.33
403.426	65.36
403.635	51.03
403.844	106.32
404.053	216.91
404.262	69.46
404.471	247.63
404.68	124.76
404.888	216.91
405.097	81.75
405.306	132.95
405.515	153.43
405.724	122.71
405.933	139.09
406.142	163.67
406.35	173.91
406.559	96.08
406.768	159.57
406.977	212.82
407.185	173.91
407.394	233.3
407.603	223.06
407.812	196.43
408.02	239.44
408.229	216.91
408.438	182.1
408.646	241.49
408.855	180.05
409.064	229.2
409.272	221.01
409.481	276.31
409.69	319.31
409.898	274.26
410.107	296.78
410.315	327.5
410.524	298.83
410.733	331.6
410.941	270.16
411.15	429.9
411.358	401.23
411.567	442.19
411.775	425.81
411.984	450.38
412.192	460.62
412.401	399.18
412.609	427.85
412.818	567.12
413.026	497.49
413.234	477.01
413.443	544.59
413.651	495.44
413.86	534.35
414.068	558.92
414.276	589.64
414.485	608.08
414.693	659.28
414.901	733
415.11	687.95
415.318	663.37
415.526	798.54
415.734	767.82
415.943	687.95
416.151	786.25
416.359	814.92
416.567	892.74
416.776	884.55
416.984	917.32
417.192	982.85
417.4	966.47
417.608	950.09
417.817	1048.39
418.025	1140.55
418.233	1132.36
418.441	966.47
418.649	1048.39
418.857	1244.99
419.065	1343.3
419.273	1312.58
419.481	1353.54
419.689	1480.51
419.897	1544
420.105	1519.42
420.313	1484.61
420.521	1634.11
420.729	1687.36
420.937	1668.92
421.145	1734.46
421.353	1814.33
421.561	1859.38
421.769	1941.3
421.977	2080.57
422.185	1974.07
422.393	2150.2
422.601	2211.64
422.809	2230.07
423.017	2252.59
423.224	2303.79
423.432	2629.42
423.64	2500.4
423.848	2762.54
424.056	2649.9
424.263	2901.8
424.471	2713.39
424.679	2858.79
424.887	2926.38
425.094	3180.32
425.302	3088.17
425.51	3145.51
425.718	3485.47
425.925	3317.54
426.133	3604.25
426.341	3870.49
426.548	3964.7
426.756	3968.79
426.964	3899.16
427.171	4173.59
427.379	4235.03
427.586	4357.91
427.794	4427.54
428.001	4601.62
428.209	4908.81
428.417	4783.88
428.624	5259.01
428.832	5173
429.039	5076.74
429.247	5187.33
429.454	5603.07
429.662	5955.32
429.869	5611.26
430.076	6143.74
430.284	5857.02
430.491	6143.74
430.699	6547.19
430.906	6403.83
431.114	6598.38
431.321	6788.85
431.528	6893.29
431.736	7235.3
431.943	7552.74
432.15	7497.44
432.358	7626.46
432.565	7929.56
432.772	7726.82
432.979	8238.81
433.187	8298.2
433.394	8459.99
433.601	9021.13
433.808	9068.23
434.016	8974.03
434.223	9182.92
434.43	9848.51
434.637	9748.16
434.844	10133.18
435.052	10352.31
435.259	10299.06
435.466	10462.9
435.673	10376.89
435.88	11130.54
436.087	11519.65
436.294	11669.16
436.501	11161.26
436.708	11431.59
436.915	11919.01
437.122	12541.59
437.329	12463.77
437.537	12902.03
437.743	13223.56
437.95	12824.21
438.157	13661.83
438.364	14175.87
438.571	13885.06
438.778	13971.07
438.985	15505
439.192	14739.06
439.399	15265.39
439.606	15201.9
439.813	15722.09
440.02	16746.07
440.227	16363.1
440.433	16352.86
440.64	16914
440.847	16662.1
441.054	17129.04
441.261	18347.58
441.467	17956.42
441.674	18396.73
441.881	19041.84
442.088	18941.49
442.294	18894.39
442.501	19232.3
442.708	19750.44
442.914	20342.3
443.121	21077.52
443.328	20930.07
443.534	22337.02
443.741	21415.44
443.948	21339.66
444.154	22773.24
444.361	22826.49
444.568	23096.82
444.774	22795.77
444.981	22875.64
445.187	23780.84
445.394	24577.5
445.6	24468.96
445.807	26887.61
446.013	25232.85
446.22	25951.69
446.426	26901.95
446.633	27530.67
446.839	28196.26
447.046	27016.63
447.252	28538.27
447.459	28571.04
447.665	28530.08
447.871	29611.41
448.078	31063.42
448.284	29273.49
448.491	30180.74
448.697	31196.54
448.903	31894.89
449.11	31855.98
449.316	31255.93
449.522	31747.44
449.728	32886.11
449.935	33226.07
450.141	33156.44
450.347	33647.96
450.553	32939.36
450.76	33371.48
450.966	33920.34
451.172	33932.62
451.378	34577.73
451.584	34028.88
451.791	34866.5
451.997	34850.11
452.203	35220.8
452.409	35351.87
452.615	35302.71
452.821	34035.02
453.027	33219.93
453.233	35589.43
453.44	33756.5
453.646	34010.45
453.852	34139.47
454.058	34915.65
454.264	33635.67
454.47	34510.15
454.676	33746.26
454.882	34835.78
455.088	31870.32
455.294	32304.49
455.5	32267.62
455.705	32445.8
455.911	31458.68
456.117	30770.56
456.323	30412.17
456.529	28814.75
456.735	30141.83
456.941	29590.93
457.147	28792.22
457.352	28145.06
457.558	27760.05
457.764	28016.04
457.97	27626.93
458.176	26824.12
458.381	26543.55
458.587	25400.79
458.793	25443.79
458.999	23924.2
459.204	25699.79
459.41	25312.72
459.616	23377.39
459.821	23358.96
460.027	23449.07
460.233	23029.24
460.438	21659.15
460.644	21663.24
460.85	20831.77
461.055	20545.05
461.261	20600.35
461.466	19115.57
461.672	18456.12
461.878	19430.96
462.083	18445.88
462.289	17872.45
462.494	17710.66
462.7	17213.01
462.905	16414.3
463.111	17188.43
463.316	17294.93
463.522	16678.49
463.727	16760.41
463.932	16662.1
464.138	16465.5
464.343	16703.06
464.549	16207.45
464.754	16983.63
464.959	16528.99
465.165	16639.58
465.37	15873.64
465.575	15378.03
465.781	16006.75
465.986	16070.24
466.191	15588.97
466.397	15031.92
466.602	14358.14
466.807	15109.74
467.012	15224.43
467.218	14931.57
467.423	14536.31
467.628	14698.1
467.833	15345.26
468.038	14724.72
468.244	14411.39
468.449	14941.81
468.654	14302.84
468.859	14257.79
469.064	14378.62
469.269	13766.28
469.474	13807.23
469.679	14188.16
469.885	13794.95
470.09	13835.91
470.295	13700.74
470.5	13307.53
470.705	13524.61
470.91	13403.78
471.115	13272.71
471.32	13246.09
471.525	13254.28
471.73	13000.33
471.935	12998.29
472.139	12383.9
472.344	12535.45
472.549	12398.23
472.754	12097.18
472.959	12140.19
473.164	11755.17
473.369	11714.21
473.574	12189.34
473.778	11888.29
473.983	11732.64
474.188	11615.91
474.393	11460.26
474.598	11275.95
474.802	11312.81
475.007	11077.29
475.212	11157.16
475.417	10460.85
475.621	10819.25
475.826	10481.33
476.031	10512.05
476.235	10340.02
476.44	10473.14
476.645	10223.29
476.849	10149.56
477.054	10069.69
477.259	10059.45
477.463	9952.96
477.668	9635.52
477.872	9776.83
478.077	9684.67
478.282	9445.06
478.486	9397.96
478.691	9338.57
478.895	9215.69
479.1	9203.4
479.304	9113.29
479.509	9125.58
479.713	9297.61
479.918	9215.69
480.122	8906.45
480.326	9209.54
480.531	8992.46
480.735	8922.83
480.94	8947.4
481.144	9234.12
481.348	8758.99
481.553	8683.22
481.757	8498.9
481.961	8857.29
482.166	8769.23
482.37	8564.43
482.574	8457.94
482.778	8556.24
482.983	8758.99
483.187	8601.3
483.391	8765.14
483.595	8535.76
483.8	8416.98
484.004	8529.62
484.208	8720.08
484.412	8605.39
484.616	8664.79
484.821	8699.6
485.025	8359.64
485.229	8693.46
485.433	8455.89
485.637	8503
485.841	8556.24
486.045	8480.47
486.249	8558.29
486.453	8398.55
486.657	8568.53
486.861	8429.27
487.065	8081.11
487.269	8453.84
487.473	8400.6
487.677	8603.35
487.881	8752.85
488.085	8390.36
488.289	8589.01
488.493	8472.28
488.697	8496.85
488.901	8621.78
489.105	8486.61
489.309	8632.02
489.512	8496.85
489.716	8580.82
489.92	8609.49
490.124	8474.32
490.328	8711.89
490.531	8521.43
490.735	8726.22
490.939	8732.37
491.143	8797.9
491.346	8689.36
491.55	8845.01
491.754	8744.66
491.958	8773.33
492.161	8845.01
492.365	8693.46
492.569	8838.86
492.772	8947.4
492.976	8945.36
493.18	8957.64
493.383	9217.74
493.587	9066.19
493.79	9426.63
493.994	8998.6
494.197	9180.87
494.401	9354.95
494.605	9379.53
494.808	9461.44
495.012	9600.71
495.215	9518.79
495.419	9690.82
495.622	9660.1
495.825	9524.93
496.029	9760.45
496.232	10067.64
496.436	9809.6
496.639	9914.05
496.843	9938.62
497.046	10120.89
497.249	10256.06
497.453	10505.91
497.656	10413.75
497.859	10464.95
498.063	10643.12
498.266	10798.77
498.469	10675.89
498.673	10716.85
498.876	11001.52
499.079	11206.31
499.282	11052.72
499.485	11458.21
499.689	11425.45
499.892	11738.79
500.095	11583.14
500.298	11771.55
500.501	11566.76
500.705	12060.32
500.908	12238.49
501.111	12066.46
501.314	12402.33
501.517	12492.44
501.72	12639.89
501.923	12691.09
502.126	12988.05
502.329	13129.36
502.532	13147.79
502.735	13196.94
502.938	13278.86
503.141	13532.81
503.344	13483.66
503.547	13457.03
503.75	13876.87
503.953	14003.84
504.156	14231.16
504.359	14284.41
504.562	14315.13
504.765	14761.59
504.968	14917.23
505.17	14833.27
505.373	15218.29
505.576	15433.32
505.779	15494.76
505.982	15488.62
506.185	15969.89
506.387	15607.4
506.59	15982.18
506.793	16211.55
506.996	16348.76
507.198	16807.51
507.401	16422.49
507.604	16666.2
507.807	16961.11
508.009	17112.66
508.212	17317.45
508.415	17595.98
508.617	17585.74
508.82	17901.12
509.022	17763.91
509.225	18030.15
509.428	18378.3
509.63	18523.71
509.833	18546.23
510.035	19134
510.238	18941.49
510.44	18984.5
510.643	19269.17
510.845	19611.18
511.048	19541.55
511.25	19562.03
511.453	19996.2
511.655	20590.11
511.858	20530.72
512.06	20264.48
512.262	20694.55
512.465	20755.99
512.667	21128.72
512.87	21061.14
513.072	21265.94
513.274	22087.17
513.477	21913.09
513.679	21966.34
513.881	22193.67
514.084	22375.94
514.286	22322.69
514.488	22464
514.69	23490.03
514.893	23191.03
515.095	23109.11
515.297	23680.49
515.499	23819.75
515.701	23969.26
515.904	24190.44
516.106	24276.45
516.308	24346.08
516.51	24966.62
516.712	24757.72
516.914	25204.18
517.116	25451.98
517.318	25300.44
517.52	25595.34
517.722	25642.45
517.925	25945.55
518.127	26312.13
518.329	26564.03
518.531	26205.64
518.733	27020.73
518.935	26752.45
519.136	26713.53
519.338	27659.7
519.54	27368.88
519.742	27858.35
519.944	27606.45
520.146	28401.06
520.348	28345.76
520.55	28376.48
520.752	28089.77
520.954	28650.91
521.155	28544.42
521.357	28798.37
521.559	29164.95
521.761	29648.27
521.963	29316.5
522.164	29648.27
522.366	29644.18
522.568	29736.34
522.77	30076.3
522.971	30070.15
523.173	29941.13
523.375	30262.66
523.576	30285.19
523.778	30414.21
523.98	30909.82
524.181	30748.03
524.383	31163.77
524.584	31257.98
524.786	31595.89
524.988	31024.51
525.189	31776.11
525.391	31518.07
525.592	31686
525.794	31673.71
525.995	31817.07
526.197	31683.95
526.398	31495.54
526.6	31831.41
526.801	31829.36
527.003	31837.55
527.204	31587.7
527.406	31898.99
527.607	31659.38
527.808	32662.88
528.01	31688.05
528.211	32046.44
528.412	32537.96
528.614	32542.05
528.815	32466.28
529.016	32521.57
529.218	32134.51
529.419	32423.27
529.62	32531.81
529.822	32425.32
530.023	32722.27
530.224	32501.09
530.425	32238.95
530.626	32001.39
530.828	32173.42
531.029	32413.03
531.23	32255.34
531.431	32124.27
531.632	31956.33
531.833	32367.98
532.035	31937.9
532.236	32492.9
532.437	32511.33
532.638	32157.03
532.839	32210.28
533.04	32701.79
533.241	32032.11
533.442	32488.81
533.643	32312.68
533.844	32140.65
534.045	32269.67
534.246	31524.21
534.447	32005.48
534.648	31888.75
534.849	31909.23
535.05	31964.53
535.251	32130.41
535.451	32206.19
535.652	31829.36
535.853	31767.92
536.054	31976.81
536.255	31911.28
536.456	31333.75
536.657	32060.78
536.857	31810.93
537.058	31700.34
537.259	31708.53
537.46	31804.78
537.66	31415.67
537.861	31499.64
538.062	31647.09
538.263	31812.98
538.463	31569.27
538.664	31477.11
538.865	31612.27
539.065	31577.46
539.266	31374.71
539.466	31769.97
539.667	31247.74
539.868	31559.03
540.068	31174.01
540.269	31366.52
540.469	31516.02
540.67	31225.21
540.87	31229.3
541.071	31436.15
541.271	31554.93
541.472	31053.18
541.672	31022.46
541.873	31063.42
542.073	30848.38
542.274	31210.87
542.474	31188.35
542.675	31073.66
542.875	31561.08
543.075	31176.06
543.276	30680.45
543.476	31565.17
543.676	30918.01
543.877	31092.09
544.077	31106.43
544.277	31014.27
544.478	30854.53
544.678	31296.89
544.878	31151.48
545.078	31163.77
545.279	30633.35
545.479	31122.81
545.679	31235.45
545.879	31096.19
546.079	31135.1
546.28	31159.67
546.48	30795.14
546.68	31081.85
546.88	31528.31
547.08	30934.4
547.28	30854.53
547.48	30844.29
547.68	30752.13
547.88	30533
548.081	31038.84
548.281	30702.98
548.481	31026.56
548.681	30915.97
548.881	31010.17
549.081	31102.33
549.28	30608.77
549.48	31061.37
549.68	30963.07
549.88	31608.18
550.08	30965.12
550.28	30868.86
550.48	31225.21
550.68	30807.42
550.88	31339.9
551.08	30954.88
551.279	31081.85
551.479	31034.75
551.679	31071.61
551.879	30821.76
552.079	31077.76
552.278	31047.04
552.478	31133.05
552.678	30944.64
552.878	30825.85
553.077	31333.75
553.277	30969.21
553.477	31141.24
553.676	31171.96
553.876	30926.21
554.076	31204.73
554.275	31174.01
554.475	30887.29
554.674	30997.88
554.874	30993.79
555.074	31024.51
555.273	30881.15
555.473	31352.18
555.672	31036.8
555.872	30879.1
556.071	31147.39
556.271	31458.68
556.47	31079.8
556.67	30985.6
556.869	31008.12
557.068	31595.89
557.268	31174.01
557.467	31284.6
557.667	31065.47
557.866	31212.92
558.065	31116.67
558.265	30838.14
558.464	30997.88
558.663	31341.94
558.863	31034.75
559.062	31362.42
559.261	30913.92
559.461	31333.75
559.66	30838.14
559.859	31028.6
560.058	30907.77
560.258	31167.87
560.457	30911.87
560.656	31233.4
560.855	31294.84
561.054	31425.91
561.253	30786.94
561.453	31370.61
561.652	31135.1
561.851	31282.55
562.05	30854.53
562.249	31053.18
562.448	30940.54
562.647	30858.62
562.846	30856.57
563.045	31006.08
563.244	30881.15
563.443	31313.27
563.642	30795.14
563.841	30842.24
564.04	30752.13
564.239	31059.32
564.438	30944.64
564.637	31016.32
564.836	31264.12
565.035	30518.66
565.234	30758.27
565.432	30725.5
565.631	30680.45
565.83	30647.68
566.029	30823.81
566.228	30629.25
566.427	30573.95
566.625	30287.24
566.824	30223.75
567.023	30535.04
567.222	30010.76
567.42	30430.6
567.619	30242.18
567.818	30111.11
568.016	30129.55
568.215	30459.27
568.414	30178.7
568.612	30403.97
568.811	30190.98
569.01	30141.83
569.208	30082.44
569.407	30483.84
569.605	29701.52
569.804	29824.4
570.002	29810.06
570.201	29621.65
570.4	29543.83
570.598	29713.81
570.797	29414.8
570.995	29863.31
571.193	29177.24
571.392	29336.98
571.59	29089.18
571.789	29230.49
571.987	29007.26
572.186	29195.67
572.384	29015.45
572.582	28941.72
572.781	29175.19
572.979	29167
573.177	29050.27
573.376	29119.9
573.574	28880.28
573.772	28894.62
573.971	28403.11
574.169	28409.25
574.367	28515.75
574.565	28437.92
574.763	28159.4
574.962	28071.34
575.16	27979.18
575.358	28315.05
575.556	27753.9
575.754	28366.24
575.952	27788.72
576.151	28186.02
576.349	27809.2
576.547	27778.48
576.745	27932.08
576.943	27950.51
577.141	27076.02
577.339	27602.35
577.537	27360.69
577.735	27553.2
577.933	27272.63
578.131	27463.09
578.329	26899.9
578.527	26920.38
578.725	27383.22
578.923	26860.99
579.121	27174.33
579.319	26820.03
579.516	26920.38
579.714	26924.47
579.912	26691.01
580.11	26934.71
580.308	26742.21
580.506	26418.63
580.704	26031.56
580.901	26449.35
581.099	26322.37
581.297	25896.39
581.495	26181.06
581.692	26084.81
581.89	25935.31
582.088	26205.64
582.285	25839.05
582.483	26508.74
582.681	25990.6
582.878	25890.25
583.076	25433.55
583.274	25740.75
583.471	25556.43
583.669	25716.17
583.866	25445.84
584.064	25734.6
584.262	25028.06
584.459	25431.51
584.657	25122.26
584.854	25365.97
585.052	24987.1
585.249	25208.28
585.447	25005.53
585.644	24751.58
585.841	24942.04
586.039	25081.3
586.236	24403.42
586.434	24581.6
586.631	24311.27
586.828	24595.93
587.026	24714.72
587.223	24587.74
587.42	24643.04
587.618	24589.79
587.815	24319.46
588.012	24063.46
588.21	24118.76
588.407	24511.97
588.604	23815.66
588.801	24059.37
588.999	24247.78
589.196	24049.13
589.393	23889.38
589.59	23606.77
589.787	23891.43
589.984	23866.86
590.182	23727.6
590.379	23582.19
590.576	23764.46
590.773	23342.58
590.97	23592.43
591.167	23348.72
591.364	23584.24
591.561	23539.18
591.758	23152.12
591.955	23160.31
592.152	23436.78
592.349	23164.4
592.546	23207.41
592.743	22973.94
592.94	22797.82
593.137	22789.63
593.334	23236.08
593.531	22447.61
593.727	22855.16
593.924	22822.39
594.121	22562.3
594.318	22851.06
594.515	22707.71
594.712	22885.88
594.908	22703.61
595.105	22816.25
595.302	22486.53
595.499	22535.68
595.696	22539.77
595.892	22423.04
596.089	22519.29
596.286	22595.07
596.482	22552.06
596.679	22474.24
596.876	22363.65
597.072	22294.02
597.269	22285.83
597.466	22087.17
597.662	22230.53
597.859	22210.05
598.055	22226.43
598.252	22097.41
598.448	22183.43
598.645	22218.24
598.841	21933.57
599.038	22257.15
599.234	22160.9
599.431	21747.21
599.627	21822.98
599.824	22062.6
600.02	22091.27
600.217	22070.79
600.413	21939.72
600.609	21943.81
600.806	21593.61
601.002	22009.35
601.198	21751.31
601.395	21796.36
601.591	21949.96
601.787	21865.99
601.984	21579.28
602.18	22165
602.376	21767.69
602.572	21906.95
602.769	22081.03
602.965	21648.91
603.161	21814.79
603.357	21696.01
603.553	21767.69
603.75	21802.5
603.946	22029.83
604.142	22130.18
604.338	21675.53
604.534	21884.42
604.73	21661.19
604.926	21829.13
605.122	21734.92
605.318	21958.15
605.514	21564.94
605.71	21569.04
605.906	21810.7
606.102	21693.96
606.298	21835.27
606.494	21700.11
606.69	21825.03
606.886	21962.25
607.082	21562.89
607.278	21812.74
607.474	21472.78
607.67	21974.53
607.866	21583.37
608.062	22261.25
608.257	22078.98
608.453	21788.17
608.649	22003.21
608.845	21720.59
609.041	21802.5
609.236	22154.76
609.432	22013.45
609.628	21964.29
609.824	21929.48
610.019	21978.63
610.215	21865.99
610.411	22072.84
610.606	22158.85
610.802	22011.4
610.998	22095.36
611.193	22038.02
611.389	21921.29
611.584	22158.85
611.78	22177.28
611.976	22121.99
612.171	22261.25
612.367	22488.57
612.562	22017.54
612.758	21999.11
612.953	21646.86
613.149	22437.37
613.344	21812.74
613.539	22203.91
613.735	21911.05
613.93	22328.83
614.126	22144.52
614.321	22302.21
614.517	22484.48
614.712	22040.07
614.907	22408.7
615.103	22132.23
615.298	22107.65
615.493	22359.55
615.688	22103.56
615.884	22496.77
616.079	22337.02
616.274	22570.49
616.47	22257.15
616.665	21970.44
616.86	21880.33
617.055	22267.39
617.25	21952.01
617.445	22121.99
617.641	21777.93
617.836	22048.26
618.031	22140.42
618.226	22251.01
618.421	22281.73
618.616	22382.08
618.811	21825.03
619.006	21843.46
619.201	21478.93
619.396	22029.83
619.591	21693.96
619.786	21941.77
619.981	21261.84
620.176	21591.56
620.371	21321.23
620.566	21673.48
620.761	21231.12
620.956	21347.86
621.151	21220.88
621.346	21298.7
621.541	20864.53
621.735	21122.58
621.93	20948.5
622.125	21024.28
622.32	20547.1
622.515	21005.84
622.709	20487.71
622.904	20551.2
623.099	20602.39
623.294	20450.85
623.488	20366.88
623.683	20461.09
623.878	19897.89
624.072	20162.08
624.267	20502.04
624.462	20010.53
624.656	19564.07
624.851	19795.5
625.046	19713.58
625.24	19732.01
625.435	19521.07
625.629	19430.96
625.824	19226.16
626.018	19433
626.213	18951.73
626.407	18964.02
626.602	18554.43
626.796	18914.87
626.991	18878.01
627.185	18808.37
627.38	18531.9
627.574	18732.6
627.768	18480.7
627.963	18349.63
628.157	18222.66
628.352	18406.97
628.546	18026.05
628.74	18163.26
628.935	17964.61
629.129	17980.99
629.323	17774.15
629.517	17686.09
629.712	17827.4
629.906	17665.61
630.1	17524.3
630.294	17567.31
630.489	17329.74
630.683	17321.55
630.877	17163.86
631.071	17135.18
631.265	16987.73
631.459	16932.43
631.653	16813.65
631.848	16701.01
632.042	16598.62
632.236	16662.1
632.43	16596.57
632.624	16729.69
632.818	16359
633.012	16490.07
633.206	16227.93
633.4	16215.65
633.594	15973.99
633.788	16162.4
633.982	15838.82
634.176	15922.79
634.369	15650.41
634.563	15617.64
634.757	15445.61
634.951	15361.64
635.145	15414.89
635.339	15521.38
635.533	15378.03
635.726	15265.39
635.92	15273.58
636.114	15130.22
636.308	15064.69
636.501	15115.89
636.695	14677.62
636.889	14689.91
637.083	14622.33
637.276	14517.88
637.47	14546.55
637.664	14349.95
637.857	14362.23
638.051	14212.73
638.244	14163.58
638.438	14184.06
638.632	14118.53
638.825	13911.68
639.019	14130.81
639.212	13790.85
639.406	13825.67
639.599	13670.02
639.793	13723.27
639.986	13487.75
640.18	13633.16
640.373	13430.41
640.567	13364.87
640.76	13184.65
640.954	13053.58
641.147	13166.22
641.34	13110.93
641.534	12994.19
641.727	12848.79
641.92	12846.74
642.114	12549.78
642.307	12652.18
642.5	12789.39
642.694	12467.86
642.887	12410.52
643.08	12506.77
643.273	12390.04
643.467	12234.39
643.66	12052.13
643.853	12064.41
644.046	11943.58
644.239	11880.1
644.432	11851.42
644.626	11888.29
644.819	11789.99
645.012	11726.5
645.205	11585.19
645.398	11574.95
645.591	11566.76
645.784	11460.26
645.977	11472.55
646.17	11329.19
646.363	11392.68
646.556	11085.48
646.749	11013.81
646.942	10960.56
647.135	10858.16
647.328	10954.41
647.521	10964.65
647.714	10739.38
647.907	10782.38
648.099	10632.88
648.292	10436.28
648.485	10483.38
648.678	10510
648.871	10258.1
649.064	10430.13
649.256	10583.73
649.449	10088.12
649.642	10161.85
649.835	10149.56
650.027	10270.39
650.22	10059.45
650.413	10108.6
650.605	9973.44
650.798	9987.77
650.991	9770.69
651.183	9856.7
651.376	9574.08
651.568	9625.28
651.761	9637.57
651.954	9633.47
652.146	9518.79
652.339	9397.96
652.531	9539.27
652.724	9301.7
652.916	9084.62
653.109	9379.53
653.301	9242.31
653.494	9187.02
653.686	9260.74
653.879	9029.32
654.071	9154.25
654.263	8969.93
654.456	8931.02
654.648	8797.9
654.84	8797.9
655.033	8748.75
655.225	8779.47
655.417	8742.61
655.61	8793.81
655.802	8599.25
655.994	8601.3
656.186	8562.39
656.379	8543.95
656.571	8367.83
656.763	8341.21
656.955	8158.94
657.148	8265.43
657.34	8277.72
657.532	8122.07
657.724	8148.7
657.916	8142.55
658.108	8136.41
658.3	8101.59
658.492	7986.91
658.684	7659.23
658.876	7929.56
659.068	7759.58
659.26	7714.53
659.452	7778.01
659.644	7663.33
659.836	7511.78
660.028	7706.34
660.22	7487.2
660.412	7630.56
660.604	7558.88
660.796	7433.96
660.988	7374.56
661.18	7298.79
661.372	7382.76
661.563	7380.71
661.755	7266.02
661.947	7233.25
662.139	7173.86
662.331	7143.14
662.522	7053.03
662.714	7003.88
662.906	7134.95
663.097	7053.03
663.289	6850.28
663.481	6825.71
663.673	6833.9
663.864	6907.63
664.056	6737.65
664.247	6831.85
664.439	6708.97
664.631	6651.63
664.822	6618.86
665.014	6672.11
665.205	6483.7
665.397	6414.07
665.588	6758.13
665.78	6334.2
665.971	6348.53
666.163	6461.17
666.354	6346.48
666.546	6260.47
666.737	6328.05
666.929	6326
667.12	6391.54
667.311	6278.9
667.503	6088.44
667.694	6033.15
667.885	5973.75
668.077	5992.19
668.268	6227.7
668.459	5967.61
668.651	5971.71
668.842	5906.17
669.033	5844.73
669.224	5752.57
669.416	5928.7
669.607	5725.95
669.798	5717.76
669.989	5723.9
670.18	5750.53
670.371	5777.15
670.563	5631.74
670.754	5760.77
670.945	5617.41
671.136	5545.73
671.327	5656.32
671.518	5525.25
671.709	5400.32
671.9	5508.87
672.091	5586.69
672.282	5357.32
672.473	5375.75
672.664	5179.14
672.855	5349.12
673.046	5381.89
673.237	5453.57
673.428	5406.47
673.619	5263.11
673.809	5144.33
674	5261.06
674.191	5211.91
674.382	4996.87
674.573	5254.92
674.764	5211.91
674.954	5166.85
675.145	5013.26
675.336	5039.88
675.527	5003.02
675.717	5218.05
675.908	4876.04
676.099	5011.21
676.289	5072.65
676.48	4917
676.671	5007.11
676.861	5123.85
677.052	4833.04
677.243	4861.71
677.433	4933.39
677.624	4933.39
677.814	4824.84
678.005	4878.09
678.195	4849.42
678.386	5005.06
678.576	4810.51
678.767	4759.31
678.957	4661.01
679.148	4718.35
679.338	4804.36
679.529	4618
679.719	4787.98
679.909	4742.92
680.1	4480.78
680.29	4697.87
680.481	4722.45
680.671	4826.89
680.861	4611.85
681.052	4570.9
681.242	4710.16
681.432	4529.94
681.622	4574.99
681.813	4439.83
682.003	4603.66
682.193	4484.88
682.383	4531.98
682.573	4267.8
682.764	4333.33
682.954	4501.26
683.144	4550.42
683.334	4382.48
683.524	4497.17
683.714	4331.28
683.904	4263.7
684.094	4384.53
684.284	4456.21
684.474	4513.55
684.664	4456.21
684.854	4409.11
685.044	4355.86
685.234	4235.03
685.424	4450.07
685.614	4255.51
685.804	4280.08
685.994	4312.85
686.184	4237.08
686.374	4189.97
686.564	4341.52
686.753	4224.79
686.943	4079.38
687.133	4095.77
687.323	4214.55
687.513	4208.41
687.702	4259.6
687.892	4017.94
688.082	4239.12
688.272	4034.33
688.461	4001.56
688.651	4108.05
688.841	3995.42
689.03	3976.98
689.22	4091.67
689.41	4163.35
689.599	4073.24
689.789	4017.94
689.979	3993.37
690.168	3983.13
690.358	3997.46
690.547	3942.17
690.737	3860.25
690.926	4007.7
691.116	3837.72
691.305	3882.78
691.495	3966.74
691.684	3915.55
691.874	3866.39
692.063	3948.31
692.252	3907.35
692.442	3792.67
692.631	3757.85
692.82	3807
693.01	3764
693.199	3780.38
693.388	3759.9
693.578	3739.42
693.767	3796.76
693.956	3735.32
694.146	3710.75
694.335	3659.55
694.524	3850.01
694.713	3790.62
694.902	3686.17
695.092	3600.16
695.281	3575.58
695.47	3784.48
695.659	3677.98
695.848	3612.45
696.037	3591.97
696.226	3604.25
696.415	3532.58
696.604	3626.78
696.793	3516.19
696.982	3565.34
697.171	3567.39
697.36	3591.97
697.549	3522.34
697.738	3483.42
697.927	3551.01
698.116	3530.53
698.305	3503.9
698.494	3512.1
698.683	3417.89
698.872	3614.49
699.061	3477.28
699.25	3389.22
699.438	3372.83
699.627	3426.08
699.816	3383.07
700.005	3342.11
700.193	3325.73
700.382	3403.55
700.571	3501.86
700.76	3415.84
700.948	3342.11
701.137	3366.69
701.326	3383.07
701.514	3399.46
701.703	3231.52
701.892	3211.04
702.08	3426.08
702.269	3436.32
702.457	3252
702.646	3235.62
702.834	3297.06
703.023	3260.2
703.212	3178.28
703.4	3112.74
703.589	3100.45
703.777	3125.03
703.965	3098.41
704.154	3157.8
704.342	3082.02
704.531	3239.72
704.719	3120.93
704.907	3104.55
705.096	3063.59
705.284	3112.74
705.472	3039.01
705.661	3094.31
705.849	3149.61
706.037	3071.78
706.226	2955.05
706.414	3026.73
706.602	3075.88
706.79	2953
706.979	2879.27
707.167	3055.4
707.355	2729.77
707.543	3041.06
707.731	3030.82
707.919	3020.58
708.107	2891.56
708.296	2854.7
708.484	2787.11
708.672	3014.44
708.86	2975.53
709.048	2971.43
709.236	2862.89
709.424	2932.52
709.612	2883.37
709.8	2905.9
709.988	2719.53
710.176	2856.75
710.364	2942.76
710.551	2762.54
710.739	2793.26
710.927	2748.2
711.115	2766.64
711.303	2783.02
711.491	2856.75
711.679	2664.24
711.866	2623.28
712.054	2692.91
712.242	2826.03
712.43	2748.2
712.617	2613.04
712.805	2733.87
712.993	2637.61
713.181	2629.42
713.368	2723.63
713.556	2686.76
713.744	2527.02
713.931	2586.41
714.119	2510.64
714.306	2670.38
714.494	2670.38
714.682	2613.04
714.869	2522.93
715.057	2592.56
715.244	2494.26
715.432	2590.51
715.619	2533.17
715.807	2522.93
715.994	2473.78
716.182	2496.3
716.369	2524.97
716.556	2481.97
716.744	2514.73
716.931	2508.59
717.119	2461.49
717.306	2391.86
717.493	2346.8
717.681	2400.05
717.868	2342.71
718.055	2408.24
718.242	2438.96
718.43	2465.58
718.617	2346.8
718.804	2383.66
718.991	2367.28
719.179	2338.61
719.366	2383.66
719.553	2389.81
719.74	2320.18
719.927	2211.64
720.114	2303.79
720.301	2285.36
720.488	2279.22
720.676	2217.78
720.863	2260.79
721.05	2309.94
721.237	2275.12
721.424	2228.02
721.611	2189.11
721.798	2230.07
721.985	2236.21
722.172	2215.73
722.358	2101.05
722.545	2314.03
722.732	2168.63
722.919	2195.25
723.106	2137.91
723.293	2105.14
723.48	2123.57
723.667	2121.52
723.853	2125.62
724.04	2309.94
724.227	2113.33
724.414	2021.17
724.6	2119.48
724.787	2107.19
724.974	2017.08
725.161	1988.41
725.347	2060.09
725.534	2090.81
725.72	2060.09
725.907	1982.26
726.094	2146.1
726.28	2023.22
726.467	2137.91
726.653	1933.11
726.84	1984.31
727.027	2055.99
727.213	1935.16
727.4	2074.42
727.586	1959.74
727.773	2092.85
727.959	1890.1
728.145	1959.74
728.332	1888.06
728.518	1920.82
728.705	1992.5
728.891	1933.11
729.077	1986.36
729.264	1941.3
729.45	1982.26
729.636	1992.5
729.823	1906.49
730.009	2015.03
730.195	1908.54
730.382	1863.48
730.568	1857.34
730.754	1830.71
730.94	1947.45
731.126	1937.21
731.313	1886.01
731.499	1765.18
731.685	1851.19
731.871	1851.19
732.057	1713.98
732.243	1830.71
732.429	1982.26
732.615	1892.15
732.801	1789.75
732.987	1836.86
733.173	1720.12
733.359	1787.71
733.545	1822.52
733.731	1867.58
733.917	1826.62
734.103	1834.81
734.289	1902.39
734.475	1742.65
734.661	1781.56
734.847	1711.93
735.033	1732.41
735.219	1689.4
735.404	1777.47
735.59	1730.36
735.776	1720.12
735.962	1806.14
736.148	1728.31
736.333	1763.13
736.519	1679.16
736.705	1701.69
736.89	1673.02
737.076	1728.31
737.262	1572.67
737.447	1670.97
737.633	1654.59
737.819	1687.36
738.004	1679.16
738.19	1615.68
738.375	1613.63
738.561	1695.55
738.747	1535.81
738.932	1611.58
739.118	1615.68
739.303	1627.96
739.489	1640.25
739.674	1566.53
739.859	1505.09
740.045	1564.48
740.23	1630.01
740.416	1556.29
740.601	1570.62
740.786	1595.2
740.972	1595.2
741.157	1591.1
741.342	1531.71
741.528	1455.94
741.713	1470.27
741.898	1517.37
742.084	1556.29
742.269	1560.38
742.454	1574.72
742.639	1527.61
742.824	1533.76
743.01	1517.37
743.195	1457.98
743.38	1417.02
743.565	1468.22
743.75	1460.03
743.935	1392.45
744.12	1478.46
744.305	1351.49
744.49	1423.17
744.675	1371.97
744.86	1351.49
745.045	1369.92
745.23	1374.02
745.415	1380.16
745.6	1324.87
745.785	1257.28
745.97	1378.11
746.155	1371.97
746.34	1355.58
746.525	1253.19
746.71	1345.34
746.895	1314.63
747.079	1261.38
747.264	1281.86
747.449	1351.49
747.634	1228.61
747.819	1300.29
748.003	1228.61
748.188	1302.34
748.373	1279.81
748.557	1290.05
748.742	1312.58
748.927	1216.32
749.111	1269.57
749.296	1238.85
749.481	1249.09
749.665	1136.45
749.85	1148.74
750.034	1212.23
750.219	1156.93
750.404	1175.36
750.588	1181.51
750.773	1113.92
750.957	1171.27
751.141	1134.4
751.326	1154.88
751.51	1040.2
751.695	1122.12
751.879	1130.31
752.064	1085.25
752.248	1089.35
752.432	1091.4
752.617	1122.12
752.801	1124.16
752.985	997.19
753.17	1093.44
753.354	1126.21
753.538	1111.88
753.722	935.75
753.907	1056.58
754.091	999.24
754.275	1064.77
754.459	1072.96
754.643	1036.1
754.828	993.09
755.012	1068.87
755.196	847.69
755.38	999.24
755.564	958.28
755.748	999.24
755.932	909.13
756.116	911.18
756.3	954.18
756.484	962.37
756.668	993.09
756.852	876.36
757.036	866.12
757.22	911.18
757.404	880.46
757.588	892.74
757.772	876.36
757.956	978.76
758.14	902.98
758.323	921.42
758.507	886.6
758.691	812.87
758.875	862.02
759.059	878.41
759.242	773.96
759.426	804.68
759.61	706.38
759.794	847.69
759.977	921.42
760.161	876.36
760.345	831.3
760.528	862.02
760.712	876.36
760.895	741.19
761.079	839.5
761.263	755.53
761.446	714.57
761.63	763.72
761.813	794.44
761.997	859.98
762.18	753.48
762.364	780.11
762.547	757.58
762.731	806.73
762.914	823.11
763.098	786.25
763.281	757.58
763.464	704.33
763.648	767.82
763.831	710.47
764.015	745.29
764.198	704.33
764.381	671.56
764.564	759.63
764.748	720.71
764.931	655.18
765.114	745.29
765.297	778.06
765.481	749.39
765.664	663.37
765.847	669.52
766.03	753.48
766.213	728.91
766.397	724.81
766.58	696.14
766.763	661.32
766.946	726.86
767.129	679.75
767.312	692.04
767.495	616.27
767.678	577.36
767.861	683.85
768.044	642.89
768.227	632.65
768.41	628.56
768.593	649.04
768.776	737.1
768.959	646.99
769.142	698.19
769.324	665.42
769.507	634.7
769.69	624.46
769.873	597.84
770.056	663.37
770.239	612.17
770.421	706.38
770.604	671.56
770.787	698.19
770.97	657.23
771.152	595.79
771.335	624.46
771.518	606.03
771.7	671.56
771.883	573.26
772.066	634.7
772.248	675.66
772.431	649.04
772.613	692.04
772.796	550.73
772.978	657.23
773.161	616.27
773.343	603.98
773.526	618.32
773.708	565.07
773.891	595.79
774.073	548.68
774.256	569.16
774.438	583.5
774.621	649.04
774.803	442.19
774.985	528.21
775.168	597.84
775.35	513.87
775.532	474.96
775.715	485.2
775.897	538.45
776.079	528.21
776.261	524.11
776.444	491.34
776.626	560.97
776.808	528.21
776.99	450.38
777.173	485.2
777.355	515.92
777.537	565.07
777.719	483.15
777.901	563.02
778.083	501.58
778.265	364.37
778.447	515.92
778.629	466.77
778.811	550.73
778.993	515.92
779.175	462.67
779.357	421.71
779.539	444.24
779.721	409.42
779.903	509.77
780.085	448.33
780.267	493.39
780.449	477.01
780.631	509.77
780.812	370.51
780.994	421.71
781.176	450.38
781.358	458.57
781.54	368.46
781.721	423.76
781.903	327.5
782.085	444.24
782.267	417.61
782.448	438.09
782.63	401.23
782.812	401.23
782.993	354.13
783.175	345.94
783.357	388.94
783.538	436.05
783.72	421.71
783.901	315.22
784.083	337.74
784.264	393.04
784.446	388.94
784.627	368.46
784.809	409.42
784.99	360.27
785.172	395.09
785.353	366.42
785.535	368.46
785.716	362.32
785.897	362.32
786.079	366.42
786.26	393.04
786.441	321.36
786.623	352.08
786.804	319.31
786.985	364.37
787.167	313.17
787.348	300.88
787.529	290.64
787.71	352.08
787.891	337.74
788.073	331.6
788.254	223.06
788.435	300.88
788.616	282.45
788.797	204.63
788.978	335.7
789.159	311.12
789.34	302.93
789.522	249.68
789.703	280.4
789.884	268.11
790.065	323.41
790.246	296.78
790.427	329.55
790.607	339.79
790.788	296.78
790.969	280.4
791.15	286.54
791.331	294.74
791.512	221.01
791.693	280.4
791.874	302.93
792.054	247.63
792.235	278.35
792.416	178
792.597	317.26
792.778	286.54
792.958	302.93
793.139	282.45
793.32	294.74
793.5	202.58
793.681	282.45
793.862	208.72
794.042	278.35
794.223	264.02
794.404	245.59
794.584	147.28
794.765	282.45
794.945	192.34
795.126	325.46
795.306	204.63
795.487	231.25
795.667	229.2
795.848	171.86
796.028	261.97
796.209	227.15
796.389	235.35
796.57	155.47
796.75	212.82
796.93	247.63
797.111	206.67
797.291	278.35
797.471	247.63
797.652	132.95
797.832	198.48
798.012	200.53
798.192	165.71
798.373	243.54
798.553	118.61
798.733	180.05
798.913	143.19
799.093	249.68
799.274	132.95
799.454	147.28
799.634	192.34
799.814	270.16
799.994	180.05
800.174	124.76
800.354	214.87
800.534	233.3
800.714	167.76
800.894	167.76
801.074	91.99
801.254	171.86
801.434	147.28
801.614	141.14
801.794	132.95
801.974	1015.62
802.154	147.28
802.334	231.25
802.514	188.24
802.693	106.32
802.873	180.05
803.053	163.67
803.233	186.19
803.413	175.95
803.592	126.8
803.772	167.76
803.952	137.04
804.131	114.52
804.311	145.24
804.491	198.48
804.67	139.09
804.85	130.9
805.03	182.1
805.209	184.15
805.389	157.52
805.568	141.14
805.748	159.57
805.928	190.29
806.107	100.18
806.287	182.1
806.466	153.43
806.646	155.47
806.825	153.43
807.004	116.56
807.184	122.71
807.363	143.19
807.543	143.19
807.722	212.82
807.901	106.32
808.081	132.95
808.26	137.04
808.439	126.8
808.619	96.08
808.798	173.91
808.977	151.38
809.156	122.71
809.336	194.39
809.515	204.63
809.694	51.03
809.873	57.17
810.052	106.32
810.231	139.09
810.411	165.71
810.59	157.52
810.769	106.32
810.948	112.47
811.127	100.18
811.306	61.27
811.485	188.24
811.664	165.71
811.843	128.85
812.022	71.51
812.201	81.75
812.38	130.9
812.559	104.28
812.737	102.23
812.916	94.04
813.095	53.08
813.274	192.34
813.453	106.32
813.632	122.71
813.811	110.42
813.989	40.79
814.168	182.1
814.347	75.6
814.526	114.52
814.704	108.37
814.883	135
815.062	114.52
815.24	114.52
815.419	85.84
815.598	147.28
815.776	48.98
815.955	5.97
816.133	-30.89
816.312	130.9
816.49	85.84
816.669	46.93
816.847	89.94
817.026	75.6
817.204	79.7
817.383	147.28
817.561	24.4
817.74	69.46
817.918	135
818.097	69.46
818.275	65.36
818.453	26.45
818.632	149.33
818.81	53.08
818.988	75.6
819.167	57.17
819.345	94.04
819.523	130.9
819.701	98.13
819.879	147.28
820.058	65.36
820.236	106.32
820.414	94.04
820.592	59.22
820.77	22.36
820.948	26.45
821.127	10.07
821.305	98.13
821.483	67.41
821.661	89.94
821.839	81.75
822.017	36.69
822.195	48.98
822.373	81.75
822.551	40.79
822.729	67.41
822.907	-22.7
823.085	102.23
823.262	69.46
823.44	79.7
823.618	65.36
823.796	124.76
823.974	69.46
824.152	28.5
824.329	-0.17
824.507	69.46
824.685	100.18
824.863	112.47
825.04	122.71
825.218	46.93
825.396	40.79
825.574	124.76
825.751	106.32
825.929	85.84
826.107	24.4
826.284	-39.08
826.462	89.94
826.639	8.02
826.817	12.12
826.994	77.65
827.172	30.55
827.349	159.57
827.527	8.02
827.704	24.4
827.882	18.26
828.059	34.64
828.237	69.46
828.414	59.22
828.591	-32.94
828.769	77.65
828.946	42.84
829.124	81.75
829.301	124.76
829.478	57.17
829.655	18.26
829.833	135
830.01	36.69
830.187	98.13
830.364	26.45
830.542	32.6
830.719	135
830.896	141.14
831.073	48.98
831.25	61.27
831.427	48.98
831.604	108.37
831.782	118.61
831.959	120.66
832.136	-20.65
832.313	91.99
832.49	38.74
832.667	91.99
832.844	48.98
833.021	98.13
833.198	38.74
833.374	57.17
833.551	69.46
833.728	-26.79
833.905	65.36
834.082	-2.22
834.259	89.94
834.436	59.22
834.612	3.93
834.789	57.17
834.966	48.98
835.143	106.32
835.319	18.26
835.496	20.31
835.673	89.94
835.85	98.13
836.026	159.57
836.203	24.4
836.38	16.21
836.556	104.28
836.733	32.6
836.909	87.89
837.086	10.07
837.262	3.93
837.439	116.56
837.616	24.4
837.792	57.17
837.968	8.02
838.145	-16.55
838.321	132.95
838.498	67.41
838.674	8.02
838.851	26.45
839.027	24.4
839.203	40.79
839.38	-14.51
839.556	1.88
839.732	-24.75
839.909	12.12
840.085	81.75
840.261	16.21
840.437	57.17
840.614	26.45
840.79	89.94
840.966	-12.46
841.142	-0.17
841.318	36.69
841.494	55.12
841.671	-28.84
841.847	14.17
842.023	69.46
842.199	3.93
842.375	46.93
842.551	34.64
842.727	18.26
842.903	94.04
843.079	40.79
843.255	100.18
843.431	-90.28
843.607	75.6
843.783	-32.94
843.959	-24.75
844.134	-8.36
844.31	98.13
844.486	40.79
844.662	55.12
844.838	-16.55
845.013	94.04
845.189	89.94
845.365	42.84
845.541	81.75
845.716	32.6
845.892	81.75
846.068	34.64
846.244	-2.22
846.419	81.75
846.595	48.98
846.77	-2.22
846.946	40.79
847.122	63.32
847.297	18.26
847.473	106.32
847.648	-65.71
847.824	44.88
847.999	-14.51
848.175	40.79
848.35	1.88
848.526	102.23
848.701	77.65
848.876	71.51
849.052	67.41
849.227	-2.22
849.403	16.21
849.578	65.36
849.753	-24.75
849.929	28.5
850.104	61.27
850.279	-6.31
850.454	34.64
850.63	100.18
850.805	91.99
850.98	26.45
851.155	20.31
851.33	42.84
851.505	-6.31
851.681	96.08
851.856	48.98
852.031	57.17
852.206	16.21
852.381	36.69
852.556	-51.37
852.731	26.45
852.906	3.93
853.081	63.32
853.256	42.84
853.431	61.27
853.606	18.26
853.781	42.84
853.956	1.88
854.131	-6.31
854.305	-4.27
854.48	12.12
854.655	-39.08
854.83	-8.36
855.005	20.31
855.18	16.21
855.354	26.45
855.529	69.46
855.704	-0.17
855.879	118.61
856.053	-10.41
856.228	100.18
856.403	-73.9
856.577	20.31
856.752	12.12
856.926	16.21
857.101	73.56
857.276	81.75
857.45	42.84
857.625	32.6
857.799	40.79
857.974	8.02
858.148	-28.84
858.323	-32.94
858.497	26.45
858.672	28.5
858.846	-37.03
859.02	-28.84
859.195	42.84
859.369	1.88
859.543	8.02
859.718	32.6
859.892	-0.17
860.066	-22.7
860.241	67.41
860.415	53.08
860.589	42.84
860.763	67.41
860.938	8.02
861.112	-6.31
861.286	-32.94
861.46	-16.55
861.634	-41.13
861.808	8.02
861.982	36.69
862.157	-49.32
862.331	28.5
862.505	14.17
862.679	98.13
862.853	155.47
863.027	81.75
863.201	122.71
863.375	16.21
863.549	24.4
863.722	3.93
863.896	-8.36
864.07	1.88
864.244	-32.94
864.418	40.79
864.592	48.98
864.766	75.6
864.939	26.45
865.113	16.21
865.287	87.89
865.461	-0.17
865.634	34.64
865.808	-8.36
865.982	38.74
866.156	20.31
866.329	-55.47
866.503	1.88
866.676	18.26
866.85	14.17
867.024	38.74
867.197	59.22
867.371	28.5
867.544	-10.41
867.718	-4.27
867.891	-28.84
868.065	61.27
868.238	57.17
868.412	40.79
868.585	16.21
868.759	-37.03
868.932	-20.65
869.105	-39.08
869.279	-80.04
869.452	-49.32
869.625	94.04
869.799	-98.47
869.972	-26.79
870.145	20.31
870.319	32.6
870.492	40.79
870.665	10.07
870.838	28.5
871.011	8.02
871.185	-8.36
871.358	-39.08
871.531	-12.46
871.704	-0.17
871.877	12.12
872.05	-0.17
872.223	-65.71
872.396	3.93
872.569	28.5
872.742	-71.85
872.915	-2.22
873.088	-37.03
873.261	-16.55
873.434	81.75
873.607	-41.13
873.78	38.74
873.953	-24.75
874.126	67.41
874.299	-16.55
874.471	20.31
874.644	-73.9
874.817	32.6
874.99	26.45
875.163	-0.17
875.335	-8.36
875.508	48.98
875.681	42.84
875.853	16.21
876.026	-82.09
876.199	-28.84
876.371	75.6
876.544	-8.36
876.717	-37.03
876.889	36.69
877.062	102.23
877.234	8.02
877.407	10.07
877.579	-12.46
877.752	48.98
877.924	81.75
878.097	32.6
878.269	12.12
878.442	26.45
878.614	26.45
878.786	12.12
878.959	22.36
879.131	-26.79
879.303	-88.23
879.476	-53.42
879.648	53.08
879.82	-0.17
879.993	-16.55
880.165	-22.7
880.337	-34.99
880.509	-65.71
880.681	-8.36
880.854	51.03
881.026	-37.03
881.198	40.79
881.37	24.4
881.542	44.88
881.714	-26.79
881.886	40.79
882.058	-63.66
882.23	46.93
882.402	5.97
882.574	59.22
882.746	26.45
882.918	67.41
883.09	51.03
883.262	30.55
883.434	59.22
883.606	-10.41
883.778	-49.32
883.95	32.6
884.122	40.79
884.293	42.84
884.465	-2.22
884.637	8.02
884.809	-2.22
884.98	44.88
885.152	38.74
885.324	36.69
885.496	16.21
885.667	-8.36
885.839	69.46
886.011	89.94
886.182	-37.03
886.354	55.12
886.525	-16.55
886.697	-20.65
886.869	-18.6
887.04	28.5
887.212	51.03
887.383	8.02
887.555	61.27
887.726	-12.46
887.897	-41.13
888.069	3.93
888.24	44.88
888.412	81.75
888.583	26.45
888.754	75.6
888.926	-53.42
889.097	26.45
889.268	-80.04
889.44	48.98
889.611	-28.84
889.782	10.07
889.953	-6.31
890.125	14.17
890.296	-57.51
890.467	-16.55
890.638	-47.27
890.809	32.6
890.98	65.36
891.151	73.56
891.323	36.69
891.494	-61.61
891.665	-43.18
891.836	32.6
892.007	-47.27
892.178	28.5
892.349	-47.27
892.52	3.93
892.691	-41.13
892.862	-22.7
893.032	-30.89
893.203	14.17
893.374	-32.94
893.545	94.04
893.716	-0.17
893.887	16.21
894.057	8.02
894.228	-45.23
894.399	-4.27
894.57	8.02
894.74	-32.94
894.911	63.32
895.082	-18.6
895.253	-73.9
895.423	-22.7
895.594	36.69
895.764	65.36
895.935	-28.84
896.106	24.4
896.276	32.6
896.447	-34.99
896.617	59.22
896.788	18.26
896.958	26.45
897.129	57.17
897.299	-88.23
897.47	16.21
897.64	44.88
897.81	-63.66
897.981	-71.85
898.151	-41.13
898.322	32.6
898.492	94.04
898.662	24.4
898.832	-0.17
899.003	-65.71
899.173	18.26
899.343	-114.86
899.513	-22.7
