Data from USB4F104151__77__14-30-29-798.txt Node

Date: Thu Mar 13 14:30:29 EDT 2025
User: louis
Spectrometer: USB4F10415
Trigger mode: 4
Integration Time (sec): 2.500000E-2
Scans to average: 1
Electric dark correction enabled: true
Nonlinearity correction enabled: false
Boxcar width: 0
XAxis mode: Wavelengths
Number of Pixels in Spectrum: 3648
>>>>>Begin Spectral Data<<<<<
178.204	-205.31
178.424	-205.31
178.644	-205.31
178.864	-141.82
179.084	-172.54
179.304	46.59
179.524	34.3
179.744	15.87
179.964	26.11
180.184	-0.51
180.404	7.68
180.624	-39.42
180.844	17.92
181.064	-29.18
181.283	-16.9
181.503	-25.09
181.723	-37.38
181.943	-84.48
182.163	85.5
182.383	-33.28
182.602	118.27
182.822	56.83
183.042	7.68
183.262	11.78
183.482	-2.56
183.701	17.92
183.921	48.64
184.141	-57.86
184.361	44.54
184.58	44.54
184.8	-0.51
185.02	-23.04
185.239	114.17
185.459	48.64
185.679	28.16
185.898	-33.28
186.118	17.92
186.338	-6.66
186.557	83.45
186.777	-41.47
186.997	-20.99
187.216	-43.52
187.436	69.12
187.655	46.59
187.875	91.65
188.095	-43.52
188.314	11.78
188.534	36.35
188.753	9.73
188.973	7.68
189.192	56.83
189.412	-6.66
189.631	36.35
189.851	19.97
190.07	-35.33
190.29	15.87
190.509	-16.9
190.729	48.64
190.948	9.73
191.168	132.61
191.387	11.78
191.607	32.26
191.826	58.88
192.045	-6.66
192.265	81.41
192.484	-16.9
192.704	-8.7
192.923	5.63
193.142	-16.9
193.362	81.41
193.581	77.31
193.8	-14.85
194.02	34.3
194.239	-25.09
194.458	-61.95
194.678	-39.42
194.897	32.26
195.116	-25.09
195.335	-4.61
195.555	-6.66
195.774	95.74
195.993	15.87
196.212	-12.8
196.432	-49.66
196.651	-20.99
196.87	24.06
197.089	42.5
197.308	-8.7
197.528	81.41
197.747	-39.42
197.966	11.78
198.185	151.04
198.404	-66.05
198.623	50.69
198.842	15.87
199.062	40.45
199.281	11.78
199.5	-2.56
199.719	3.58
199.938	-2.56
200.157	44.54
200.376	48.64
200.595	69.12
200.814	42.5
201.033	36.35
201.252	132.61
201.471	24.06
201.69	75.26
201.909	-33.28
202.128	116.22
202.347	67.07
202.566	-14.85
202.785	28.16
203.004	-16.9
203.223	65.02
203.442	-16.9
203.661	32.26
203.879	48.64
204.098	32.26
204.317	-20.99
204.536	24.06
204.755	24.06
204.974	77.31
205.193	-20.99
205.411	134.65
205.63	56.83
205.849	24.06
206.068	-41.47
206.287	40.45
206.505	97.79
206.724	73.21
206.943	9.73
207.162	-31.23
207.381	108.03
207.599	9.73
207.818	-2.56
208.037	-25.09
208.255	-16.9
208.474	97.79
208.693	-12.8
208.911	34.3
209.13	15.87
209.349	58.88
209.567	40.45
209.786	42.5
210.005	28.16
210.223	-8.7
210.442	22.02
210.661	48.64
210.879	-0.51
211.098	26.11
211.316	-10.75
211.535	42.5
211.753	-8.7
211.972	40.45
212.191	40.45
212.409	7.68
212.628	13.82
212.846	3.58
213.065	105.98
213.283	99.84
213.502	24.06
213.72	-12.8
213.938	67.07
214.157	-45.57
214.375	77.31
214.594	48.64
214.812	50.69
215.031	50.69
215.249	19.97
215.467	17.92
215.686	-51.71
215.904	42.5
216.122	26.11
216.341	83.45
216.559	44.54
216.778	-12.8
216.996	15.87
217.214	24.06
217.432	48.64
217.651	3.58
217.869	56.83
218.087	-16.9
218.306	28.16
218.524	32.26
218.742	-33.28
218.96	-23.04
219.179	44.54
219.397	3.58
219.615	105.98
219.833	15.87
220.051	36.35
220.27	65.02
220.488	38.4
220.706	91.65
220.924	-39.42
221.142	52.74
221.36	28.16
221.578	17.92
221.796	-14.85
222.015	1.54
222.233	-41.47
222.451	48.64
222.669	-90.62
222.887	67.07
223.105	42.5
223.323	36.35
223.541	-31.23
223.759	-41.47
223.977	3.58
224.195	48.64
224.413	97.79
224.631	24.06
224.849	17.92
225.067	-4.61
225.285	-25.09
225.503	-43.52
225.721	-82.43
225.939	69.12
226.157	19.97
226.375	122.37
226.592	-10.75
226.81	-25.09
227.028	67.07
227.246	50.69
227.464	36.35
227.682	15.87
227.9	24.06
228.117	52.74
228.335	24.06
228.553	17.92
228.771	19.97
228.989	40.45
229.206	44.54
229.424	34.3
229.642	-25.09
229.86	-45.57
230.077	-39.42
230.295	99.84
230.513	81.41
230.731	81.41
230.948	7.68
231.166	-0.51
231.384	38.4
231.601	-16.9
231.819	114.17
232.037	1.54
232.254	-53.76
232.472	48.64
232.689	-18.94
232.907	7.68
233.125	42.5
233.342	1.54
233.56	-88.57
233.777	-4.61
233.995	13.82
234.213	75.26
234.43	46.59
234.648	24.06
234.865	85.5
235.083	71.17
235.3	28.16
235.518	36.35
235.735	24.06
235.953	17.92
236.17	71.17
236.388	26.11
236.605	28.16
236.822	22.02
237.04	44.54
237.257	15.87
237.475	-33.28
237.692	26.11
237.909	-41.47
238.127	-68.09
238.344	73.21
238.562	30.21
238.779	1.54
238.996	-0.51
239.214	19.97
239.431	24.06
239.648	-51.71
239.865	-20.99
240.083	122.37
240.3	54.78
240.517	11.78
240.735	81.41
240.952	52.74
241.169	83.45
241.386	48.64
241.603	52.74
241.821	30.21
242.038	46.59
242.255	60.93
242.472	30.21
242.689	32.26
242.907	60.93
243.124	7.68
243.341	-41.47
243.558	-113.15
243.775	-29.18
243.992	15.87
244.209	3.58
244.426	112.13
244.643	26.11
244.86	50.69
245.078	48.64
245.295	67.07
245.512	-0.51
245.729	3.58
245.946	40.45
246.163	34.3
246.38	126.46
246.597	97.79
246.814	36.35
247.031	50.69
247.248	34.3
247.464	15.87
247.681	-25.09
247.898	-8.7
248.115	69.12
248.332	24.06
248.549	30.21
248.766	40.45
248.983	65.02
249.2	28.16
249.417	26.11
249.633	-41.47
249.85	15.87
250.067	-25.09
250.284	50.69
250.501	65.02
250.717	34.3
250.934	34.3
251.151	36.35
251.368	15.87
251.585	58.88
251.801	-16.9
252.018	32.26
252.235	32.26
252.451	7.68
252.668	-8.7
252.885	40.45
253.102	22.02
253.318	-12.8
253.535	22.02
253.752	15.87
253.968	58.88
254.185	17.92
254.401	24.06
254.618	32.26
254.835	-33.28
255.051	-20.99
255.268	-27.14
255.484	34.3
255.701	77.31
255.917	15.87
256.134	-12.8
256.351	46.59
256.567	-53.76
256.784	28.16
257	-53.76
257.217	75.26
257.433	67.07
257.65	101.89
257.866	28.16
258.082	-27.14
258.299	7.68
258.515	-0.51
258.732	-33.28
258.948	42.5
259.165	73.21
259.381	-20.99
259.597	75.26
259.814	32.26
260.03	67.07
260.246	-33.28
260.463	40.45
260.679	67.07
260.895	-29.18
261.112	79.36
261.328	32.26
261.544	-31.23
261.761	32.26
261.977	46.59
262.193	-29.18
262.409	89.6
262.626	-4.61
262.842	42.5
263.058	42.5
263.274	44.54
263.49	15.87
263.707	24.06
263.923	11.78
264.139	-16.9
264.355	32.26
264.571	48.64
264.787	26.11
265.004	-35.33
265.22	-10.75
265.436	30.21
265.652	15.87
265.868	40.45
266.084	62.98
266.3	101.89
266.516	-20.99
266.732	26.11
266.948	32.26
267.164	11.78
267.38	26.11
267.596	93.69
267.812	83.45
268.028	36.35
268.244	7.68
268.46	75.26
268.676	-6.66
268.892	40.45
269.108	-29.18
269.324	-18.94
269.54	32.26
269.756	11.78
269.972	-2.56
270.188	-25.09
270.403	-57.86
270.619	40.45
270.835	3.58
271.051	40.45
271.267	-20.99
271.483	-23.04
271.698	1.54
271.914	46.59
272.13	48.64
272.346	15.87
272.562	50.69
272.777	-6.66
272.993	75.26
273.209	-12.8
273.425	56.83
273.64	-4.61
273.856	-33.28
274.072	26.11
274.287	-41.47
274.503	93.69
274.719	73.21
274.934	-33.28
275.15	7.68
275.366	105.98
275.581	-8.7
275.797	-82.43
276.012	38.4
276.228	32.26
276.444	48.64
276.659	140.8
276.875	-43.52
277.09	15.87
277.306	69.12
277.521	5.63
277.737	48.64
277.952	60.93
278.168	-4.61
278.383	7.68
278.599	40.45
278.814	83.45
279.03	32.26
279.245	50.69
279.461	-6.66
279.676	15.87
279.892	-0.51
280.107	-8.7
280.322	7.68
280.538	17.92
280.753	17.92
280.969	-0.51
281.184	-6.66
281.399	87.55
281.615	-33.28
281.83	36.35
282.045	-55.81
282.26	58.88
282.476	73.21
282.691	5.63
282.906	-53.76
283.122	62.98
283.337	1.54
283.552	-4.61
283.767	-64
283.983	48.64
284.198	-31.23
284.413	95.74
284.628	19.97
284.843	1.54
285.058	-12.8
285.274	-16.9
285.489	-33.28
285.704	50.69
285.919	19.97
286.134	1.54
286.349	32.26
286.564	7.68
286.779	65.02
286.995	32.26
287.21	15.87
287.425	26.11
287.64	110.08
287.855	40.45
288.07	-59.9
288.285	65.02
288.5	13.82
288.715	40.45
288.93	67.07
289.145	17.92
289.36	19.97
289.575	48.64
289.79	-4.61
290.004	42.5
290.219	73.21
290.434	-6.66
290.649	-57.86
290.864	7.68
291.079	24.06
291.294	38.4
291.509	-18.94
291.724	9.73
291.938	56.83
292.153	36.35
292.368	19.97
292.583	81.41
292.798	48.64
293.012	13.82
293.227	38.4
293.442	13.82
293.657	97.79
293.871	108.03
294.086	58.88
294.301	50.69
294.516	40.45
294.73	1.54
294.945	-39.42
295.16	24.06
295.374	81.41
295.589	32.26
295.804	42.5
296.018	1.54
296.233	50.69
296.447	89.6
296.662	50.69
296.877	15.87
297.091	83.45
297.306	26.11
297.52	-76.29
297.735	40.45
297.949	-49.66
298.164	-0.51
298.378	36.35
298.593	-31.23
298.807	-10.75
299.022	22.02
299.236	69.12
299.451	28.16
299.665	15.87
299.88	11.78
300.094	110.08
300.309	34.3
300.523	-0.51
300.737	1.54
300.952	17.92
301.166	40.45
301.381	-25.09
301.595	-33.28
301.809	9.73
302.024	-68.09
302.238	9.73
302.452	73.21
302.667	1.54
302.881	32.26
303.095	15.87
303.309	28.16
303.524	48.64
303.738	15.87
303.952	13.82
304.166	60.93
304.381	-6.66
304.595	32.26
304.809	19.97
305.023	34.3
305.237	-6.66
305.452	1.54
305.666	9.73
305.88	73.21
306.094	52.74
306.308	44.54
306.522	91.65
306.736	-14.85
306.95	24.06
307.164	15.87
307.379	-6.66
307.593	124.41
307.807	69.12
308.021	1.54
308.235	67.07
308.449	32.26
308.663	11.78
308.877	42.5
309.091	77.31
309.305	34.3
309.519	-57.86
309.733	9.73
309.947	-94.72
310.161	28.16
310.374	7.68
310.588	89.6
310.802	34.3
311.016	32.26
311.23	34.3
311.444	124.41
311.658	-12.8
311.872	50.69
312.085	60.93
312.299	83.45
312.513	56.83
312.727	34.3
312.941	9.73
313.154	-8.7
313.368	40.45
313.582	50.69
313.796	60.93
314.009	73.21
314.223	32.26
314.437	93.69
314.651	91.65
314.864	-74.24
315.078	-10.75
315.292	58.88
315.505	-31.23
315.719	91.65
315.933	40.45
316.146	-14.85
316.36	34.3
316.573	110.08
316.787	28.16
317.001	32.26
317.214	22.02
317.428	30.21
317.641	-31.23
317.855	1.54
318.068	32.26
318.282	11.78
318.495	81.41
318.709	73.21
318.922	40.45
319.136	50.69
319.349	42.5
319.563	48.64
319.776	5.63
319.99	-47.62
320.203	81.41
320.417	52.74
320.63	52.74
320.843	132.61
321.057	71.17
321.27	19.97
321.483	38.4
321.697	46.59
321.91	19.97
322.124	17.92
322.337	-8.7
322.55	-45.57
322.763	19.97
322.977	36.35
323.19	17.92
323.403	-8.7
323.617	67.07
323.83	128.51
324.043	65.02
324.256	46.59
324.469	32.26
324.683	75.26
324.896	101.89
325.109	28.16
325.322	9.73
325.535	58.88
325.748	32.26
325.962	24.06
326.175	26.11
326.388	26.11
326.601	50.69
326.814	7.68
327.027	83.45
327.24	44.54
327.453	-12.8
327.666	-35.33
327.879	99.84
328.092	-4.61
328.305	9.73
328.518	15.87
328.731	75.26
328.944	42.5
329.157	81.41
329.37	56.83
329.583	97.79
329.796	132.61
330.009	-12.8
330.222	128.51
330.435	67.07
330.648	-16.9
330.861	-8.7
331.073	32.26
331.286	136.7
331.499	77.31
331.712	-23.04
331.925	81.41
332.138	42.5
332.35	75.26
332.563	-86.53
332.776	89.6
332.989	-25.09
333.202	40.45
333.414	-18.94
333.627	60.93
333.84	-6.66
334.053	-33.28
334.265	-29.18
334.478	17.92
334.691	89.6
334.903	42.5
335.116	9.73
335.329	54.78
335.541	-6.66
335.754	105.98
335.966	-47.62
336.179	-12.8
336.392	24.06
336.604	75.26
336.817	60.93
337.029	3.58
337.242	30.21
337.454	50.69
337.667	1.54
337.88	54.78
338.092	34.3
338.305	60.93
338.517	1.54
338.729	56.83
338.942	56.83
339.154	28.16
339.367	-23.04
339.579	56.83
339.792	15.87
340.004	103.93
340.217	69.12
340.429	50.69
340.641	-6.66
340.854	26.11
341.066	56.83
341.278	44.54
341.491	192
341.703	40.45
341.915	81.41
342.128	7.68
342.34	15.87
342.552	85.5
342.764	-2.56
342.977	3.58
343.189	32.26
343.401	34.3
343.613	69.12
343.826	85.5
344.038	50.69
344.25	3.58
344.462	44.54
344.674	-43.52
344.886	17.92
345.099	73.21
345.311	11.78
345.523	-16.9
345.735	-39.42
345.947	-33.28
346.159	67.07
346.371	26.11
346.583	26.11
346.795	105.98
347.007	65.02
347.219	40.45
347.431	95.74
347.643	75.26
347.855	32.26
348.067	19.97
348.279	48.64
348.491	24.06
348.703	44.54
348.915	30.21
349.127	89.6
349.339	17.92
349.551	7.68
349.763	15.87
349.975	58.88
350.187	28.16
350.399	65.02
350.61	48.64
350.822	34.3
351.034	22.02
351.246	52.74
351.458	36.35
351.669	40.45
351.881	42.5
352.093	67.07
352.305	69.12
352.517	67.07
352.728	34.3
352.94	17.92
353.152	87.55
353.363	-29.18
353.575	52.74
353.787	58.88
353.999	26.11
354.21	116.22
354.422	89.6
354.633	17.92
354.845	42.5
355.057	-16.9
355.268	73.21
355.48	50.69
355.692	-41.47
355.903	79.36
356.115	32.26
356.326	-70.14
356.538	32.26
356.749	89.6
356.961	40.45
357.172	75.26
357.384	-16.9
357.595	62.98
357.807	-20.99
358.018	81.41
358.23	75.26
358.441	-20.99
358.653	44.54
358.864	-8.7
359.075	-14.85
359.287	65.02
359.498	52.74
359.709	73.21
359.921	-29.18
360.132	65.02
360.344	-41.47
360.555	3.58
360.766	93.69
360.977	-37.38
361.189	89.6
361.4	26.11
361.611	91.65
361.823	48.64
362.034	56.83
362.245	-12.8
362.456	40.45
362.667	101.89
362.879	24.06
363.09	5.63
363.301	105.98
363.512	44.54
363.723	17.92
363.935	67.07
364.146	52.74
364.357	19.97
364.568	19.97
364.779	-33.28
364.99	5.63
365.201	15.87
365.412	138.75
365.623	-33.28
365.834	-41.47
366.045	56.83
366.256	56.83
366.467	81.41
366.678	46.59
366.889	-43.52
367.1	-4.61
367.311	65.02
367.522	-64
367.733	1.54
367.944	13.82
368.155	81.41
368.366	65.02
368.577	65.02
368.788	13.82
368.999	17.92
369.209	34.3
369.42	52.74
369.631	28.16
369.842	69.12
370.053	44.54
370.264	95.74
370.474	-25.09
370.685	56.83
370.896	-23.04
371.107	38.4
371.317	79.36
371.528	42.5
371.739	56.83
371.95	85.5
372.16	67.07
372.371	58.88
372.582	3.58
372.792	-12.8
373.003	19.97
373.214	-8.7
373.424	138.75
373.635	3.58
373.846	97.79
374.056	-0.51
374.267	-16.9
374.477	73.21
374.688	93.69
374.898	3.58
375.109	60.93
375.319	67.07
375.53	73.21
375.74	30.21
375.951	5.63
376.161	32.26
376.372	89.6
376.582	65.02
376.793	40.45
377.003	15.87
377.214	60.93
377.424	69.12
377.635	60.93
377.845	105.98
378.055	24.06
378.266	-8.7
378.476	56.83
378.686	73.21
378.897	-20.99
379.107	40.45
379.317	-16.9
379.528	40.45
379.738	3.58
379.948	40.45
380.158	28.16
380.369	15.87
380.579	91.65
380.789	-64
380.999	130.56
381.21	1.54
381.42	26.11
381.63	-31.23
381.84	26.11
382.05	32.26
382.261	69.12
382.471	99.84
382.681	9.73
382.891	148.99
383.101	67.07
383.311	36.35
383.521	75.26
383.731	89.6
383.941	73.21
384.151	65.02
384.361	65.02
384.571	28.16
384.781	58.88
384.991	130.56
385.201	120.32
385.411	58.88
385.621	58.88
385.831	122.37
386.041	67.07
386.251	56.83
386.461	99.84
386.671	-33.28
386.881	40.45
387.091	97.79
387.301	22.02
387.511	34.3
387.72	17.92
387.93	73.21
388.14	124.41
388.35	97.79
388.56	24.06
388.769	140.8
388.979	97.79
389.189	-25.09
389.399	34.3
389.609	103.93
389.818	101.89
390.028	17.92
390.238	116.22
390.447	48.64
390.657	132.61
390.867	-8.7
391.076	65.02
391.286	89.6
391.496	132.61
391.705	56.83
391.915	65.02
392.125	38.4
392.334	44.54
392.544	81.41
392.753	34.3
392.963	52.74
393.172	77.31
393.382	48.64
393.591	112.13
393.801	67.07
394.01	73.21
394.22	97.79
394.429	110.08
394.639	32.26
394.848	81.41
395.058	32.26
395.267	-16.9
395.477	56.83
395.686	69.12
395.895	118.27
396.105	171.52
396.314	105.98
396.524	56.83
396.733	71.17
396.942	42.5
397.152	40.45
397.361	77.31
397.57	105.98
397.78	99.84
397.989	24.06
398.198	122.37
398.407	77.31
398.617	44.54
398.826	118.27
399.035	105.98
399.244	105.98
399.453	118.27
399.663	58.88
399.872	81.41
400.081	140.8
400.29	153.09
400.499	108.03
400.708	97.79
400.917	97.79
401.127	75.26
401.336	48.64
401.545	155.13
401.754	99.84
401.963	46.59
402.172	81.41
402.381	155.13
402.59	196.09
402.799	110.08
403.008	124.41
403.217	155.13
403.426	132.61
403.635	138.75
403.844	187.9
404.053	179.71
404.262	126.46
404.471	157.18
404.68	161.28
404.888	167.42
405.097	85.5
405.306	208.38
405.515	181.76
405.724	142.85
405.933	222.72
406.142	192
406.35	222.72
406.559	155.13
406.768	183.81
406.977	198.14
407.185	257.53
407.394	253.44
407.603	232.96
407.812	265.72
408.02	220.67
408.229	187.9
408.438	214.52
408.646	247.29
408.855	286.2
409.064	261.63
409.272	206.33
409.481	265.72
409.69	286.2
409.898	224.76
410.107	335.35
410.315	384.51
410.524	245.24
410.733	361.98
410.941	337.4
411.15	390.65
411.358	411.13
411.567	392.7
411.775	458.23
411.984	443.9
412.192	519.67
412.401	450.04
412.609	486.9
412.818	507.38
413.026	499.19
413.234	484.86
413.443	574.97
413.651	548.34
413.86	591.35
414.068	630.26
414.276	701.94
414.485	605.69
414.693	726.52
414.901	712.18
415.11	853.49
415.318	703.99
415.526	794.1
415.734	771.57
415.943	779.76
416.151	863.73
416.359	869.87
416.567	818.68
416.776	980.47
416.984	998.9
417.192	1056.24
417.4	1056.24
417.608	966.13
417.817	966.13
418.025	1129.97
418.233	1252.84
418.441	1119.73
418.649	1256.94
418.857	1447.4
419.065	1359.34
419.273	1310.19
419.481	1416.68
419.689	1547.75
419.897	1564.14
420.105	1490.41
420.313	1635.82
420.521	1740.26
420.729	1656.29
420.937	1732.07
421.145	1820.13
421.353	1891.81
421.561	2067.94
421.769	2024.93
421.977	2248.16
422.185	2166.24
422.393	2313.69
422.601	2424.28
422.809	2301.4
423.017	2418.14
423.224	2629.08
423.432	2645.46
423.64	2665.94
423.848	2887.12
424.056	2817.49
424.263	2989.52
424.471	2901.46
424.679	3022.29
424.887	3192.27
425.094	3169.74
425.302	3243.47
425.51	3386.83
425.718	3587.53
425.925	3653.06
426.133	3651.02
426.341	3943.88
426.548	4134.34
426.756	4064.71
426.964	4048.32
427.171	4373.95
427.379	4472.25
427.586	4496.83
427.794	4773.3
428.001	4965.81
428.209	5221.81
428.417	4898.23
428.624	5287.34
428.832	5334.45
429.039	5475.76
429.247	5524.91
429.454	6008.23
429.662	6426.01
429.869	5907.88
430.076	6262.18
430.284	6208.93
430.491	6376.86
430.699	6790.55
430.906	6831.51
431.114	6851.99
431.321	7110.04
431.528	7185.81
431.736	7650.7
431.943	8062.34
432.15	7671.18
432.358	7824.78
432.565	8418.69
432.772	8088.96
432.979	8648.06
433.187	8869.24
433.394	8777.08
433.601	9364.85
433.808	9586.03
434.016	9452.91
434.223	9762.16
434.43	10304.87
434.637	10128.74
434.844	10820.95
435.052	11148.63
435.259	10992.98
435.466	11081.05
435.673	10839.39
435.88	11504.98
436.087	12287.3
436.294	12141.89
436.501	11939.15
436.708	12232.01
436.915	12621.12
437.122	13114.68
437.329	13167.93
437.537	13522.23
437.743	13661.49
437.95	13704.49
438.157	14300.45
438.364	14918.94
438.571	14837.02
438.778	14820.64
438.985	16246.02
439.192	15600.91
439.399	16057.61
439.606	15670.54
439.813	16526.6
440.02	17540.34
440.227	17257.72
440.433	16948.48
440.64	17681.65
440.847	17462.52
441.054	17939.69
441.261	19170.52
441.467	18638.05
441.674	19221.72
441.881	20147.4
442.088	19823.83
442.294	19631.32
442.501	20352.2
442.708	20810.95
442.914	21136.57
443.121	22680.74
443.328	21562.55
443.534	23434.39
443.741	22652.07
443.948	22219.95
444.154	24016.02
444.361	23968.91
444.568	23940.24
444.774	23698.58
444.981	24177.81
445.187	25035.91
445.394	25715.83
445.6	25656.44
445.807	28030.04
446.013	26436.72
446.22	27649.11
446.426	28435.53
446.633	28521.55
446.839	29340.74
447.046	28324.94
447.252	29785.15
447.459	30078.01
447.665	29705.27
447.871	31110.18
448.078	32818.19
448.284	30762.03
448.491	31761.44
448.697	33207.3
448.903	33811.45
449.11	33750.01
449.316	33027.08
449.522	33958.91
449.728	34565.1
449.935	35054.57
450.141	35238.89
450.347	35851.23
450.553	34649.07
450.76	35023.85
450.966	35984.35
451.172	35904.48
451.378	36361.17
451.584	36049.88
451.791	36572.11
451.997	36836.3
452.203	37512.13
452.409	37114.83
452.615	36989.9
452.821	35773.41
453.027	35167.21
453.233	37338.05
453.44	35560.42
453.646	36217.82
453.852	36459.48
454.058	37041.1
454.264	35683.3
454.47	36498.39
454.676	35769.31
454.882	37041.1
455.088	33475.59
455.294	33899.51
455.5	34634.74
455.705	35214.31
455.911	33573.89
456.117	33063.94
456.323	31988.76
456.529	30475.31
456.735	31976.47
456.941	31360.03
457.147	30491.69
457.352	29994.04
457.558	29776.95
457.764	29432.89
457.97	28914.76
458.176	28308.56
458.381	28234.83
458.587	26965.09
458.793	27098.21
458.999	25801.85
459.204	27348.06
459.41	26623.08
459.616	25023.62
459.821	24616.07
460.027	24900.74
460.233	24099.98
460.438	22854.82
460.644	23432.35
460.85	22066.35
461.055	21667
461.261	21431.48
461.466	20104.4
461.672	19236.06
461.878	21015.74
462.083	19516.63
462.289	18951.39
462.494	18709.73
462.7	18091.24
462.905	17548.53
463.111	18263.27
463.316	18113.77
463.522	17775.86
463.727	17966.32
463.932	17765.62
464.138	17648.88
464.343	17517.81
464.549	16932.09
464.754	17564.92
464.959	17526
465.165	17458.42
465.37	16338.18
465.575	16293.13
465.781	16839.94
465.986	16506.12
466.191	16022.8
466.397	15815.95
466.602	15138.07
466.807	15783.18
467.012	15740.18
467.218	15621.39
467.423	15605.01
467.628	15641.87
467.833	15922.45
468.038	15572.24
468.244	15017.24
468.449	15725.84
468.654	14955.8
468.859	15027.48
469.064	14994.72
469.269	14380.32
469.474	14503.2
469.679	14677.28
469.885	14452
470.09	14363.94
470.295	14576.93
470.5	13847.85
470.705	14144.81
470.91	13595.95
471.115	13428.02
471.32	13743.41
471.525	13776.17
471.73	13436.21
471.935	13233.46
472.139	12688.7
472.344	13008.19
472.549	13008.19
472.754	12768.57
472.959	12526.91
473.164	12303.68
473.369	12057.93
473.574	12631.36
473.778	12418.37
473.983	12338.5
474.188	12178.76
474.393	11773.26
474.598	11582.8
474.802	11666.77
475.007	11631.95
475.212	11453.78
475.417	10982.74
475.621	11038.04
475.826	11359.57
476.031	11017.56
476.235	10761.56
476.44	10734.94
476.645	10745.18
476.849	10814.81
477.054	10646.88
477.259	10452.32
477.463	10343.78
477.668	10038.63
477.872	10114.41
478.077	9971.05
478.282	9690.48
478.486	9567.6
478.691	9715.05
478.895	9485.68
479.1	9700.72
479.304	9721.2
479.509	9403.76
479.713	9485.68
479.918	9295.22
480.122	9059.7
480.326	8998.26
480.531	9409.9
480.735	9125.24
480.94	8877.43
481.144	9422.19
481.348	9024.89
481.553	9020.79
481.757	8912.25
481.961	8899.96
482.166	9293.17
482.37	8992.12
482.574	8904.06
482.778	8863.1
482.983	9094.52
483.187	8859
483.391	9049.46
483.595	8787.32
483.8	8764.79
484.004	8895.86
484.208	8967.54
484.412	8772.99
484.616	8852.86
484.821	8770.94
485.025	8635.77
485.229	8920.44
485.433	8625.53
485.637	8617.34
485.841	8746.36
486.045	8641.92
486.249	8863.1
486.453	8682.88
486.657	8633.72
486.861	8768.89
487.065	8406.4
487.269	8783.23
487.473	8283.52
487.677	8797.56
487.881	8887.67
488.085	8609.15
488.289	8969.59
488.493	8740.22
488.697	8652.16
488.901	8891.77
489.105	8795.51
489.309	8701.31
489.512	8693.12
489.716	8711.55
489.92	8781.18
490.124	8789.37
490.328	9008.5
490.531	8953.21
490.735	8764.79
490.939	8861.05
491.143	8959.35
491.346	8826.23
491.55	9108.85
491.754	9065.85
491.958	8940.92
492.161	8783.23
492.365	9002.36
492.569	8947.06
492.772	9012.6
492.976	9301.36
493.18	9211.25
493.383	9446.77
493.587	9117.04
493.79	9373.04
493.994	9086.33
494.197	9338.23
494.401	9342.32
494.605	9485.68
494.808	9561.45
495.012	9375.09
495.215	9592.17
495.419	9749.87
495.622	9436.53
495.825	9723.24
496.029	9864.55
496.232	9815.4
496.436	9846.12
496.639	10249.57
496.843	10159.46
497.046	10360.16
497.249	10288.48
497.453	10300.77
497.656	10491.23
497.859	10607.97
498.063	10786.14
498.266	10964.31
498.469	10648.93
498.673	10964.31
498.876	10962.26
499.079	11208.02
499.282	11124.05
499.485	11529.55
499.689	11289.94
499.892	11482.45
500.095	11627.85
500.298	11842.89
500.501	11806.03
500.705	12029.26
500.908	12229.96
501.111	12262.72
501.314	12242.25
501.517	12385.6
501.72	12537.15
501.923	12582.21
502.126	12852.54
502.329	12987.71
502.532	13137.21
502.735	13045.05
502.938	13319.48
503.141	13536.56
503.344	13806.89
503.547	13749.55
503.75	14040.36
503.953	14146.86
504.156	14114.09
504.359	14386.47
504.562	14241.06
504.765	14638.37
504.968	14742.82
505.17	15041.82
505.373	14859.55
505.576	14972.19
505.779	15181.08
505.982	15654.16
506.185	15850.77
506.387	15537.43
506.59	15947.02
506.793	16291.08
506.996	16188.68
507.198	16547.08
507.401	16530.69
507.604	16456.96
507.807	16710.91
508.009	16999.68
508.212	17116.41
508.415	17620.21
508.617	17415.41
508.82	17892.59
509.022	17745.14
509.225	18236.65
509.428	18236.65
509.63	18418.92
509.833	18425.06
510.035	18984.16
510.238	18832.61
510.44	19139.8
510.643	19512.53
510.845	19387.61
511.048	19674.32
511.25	19754.19
511.453	19987.66
511.655	20651.2
511.858	20346.06
512.06	20587.72
512.262	20655.3
512.465	20745.41
512.667	21034.18
512.87	21435.58
513.072	21238.97
513.274	21667
513.477	22115.5
513.679	22144.17
513.881	22242.48
514.084	22785.19
514.286	22674.6
514.488	22754.47
514.69	23258.27
514.893	23387.29
515.095	23618.71
515.297	23788.69
515.499	23858.32
515.701	24243.34
515.904	24067.22
516.106	24267.92
516.308	24878.21
516.51	24876.16
516.712	25097.35
516.914	25080.96
517.116	25787.51
517.318	25873.53
517.52	25756.79
517.722	26051.7
517.925	26344.56
518.127	26481.77
518.329	26870.89
518.531	26590.31
518.733	27216.99
518.935	27475.04
519.136	27323.49
519.338	27948.12
519.54	27788.38
519.742	27847.77
519.944	27968.6
520.146	28605.52
520.348	28238.93
520.55	28728.39
520.752	28859.46
520.954	29516.86
521.155	29314.11
521.357	29396.03
521.559	29322.3
521.761	29779
521.963	29807.67
522.164	29852.73
522.366	30364.72
522.568	30340.15
522.77	30229.55
522.971	31069.22
523.173	30573.61
523.375	30925.86
523.576	30823.47
523.778	30966.82
523.98	31216.68
524.181	31259.68
524.383	31190.05
524.584	31593.5
524.786	31435.81
524.988	31159.33
525.189	32125.97
525.391	31874.07
525.592	32056.34
525.794	31734.81
525.995	32259.09
526.197	31923.22
526.398	32050.2
526.6	32625.68
526.801	32414.74
527.003	32531.47
527.204	32590.86
527.406	32271.38
527.607	32218.13
527.808	32463.89
528.01	31917.08
528.211	32134.17
528.412	32658.45
528.614	32910.35
528.815	32605.2
529.016	32855.05
529.218	32334.87
529.419	32629.77
529.62	32568.34
529.822	32416.79
530.023	32365.59
530.224	32322.58
530.425	32451.6
530.626	32451.6
530.828	31925.27
531.029	32877.58
531.23	32207.89
531.431	32328.72
531.632	32527.38
531.833	32324.63
532.035	31890.46
532.236	32148.5
532.437	32443.41
532.638	32095.25
532.839	32273.43
533.04	32365.59
533.241	31829.02
533.442	32146.45
533.643	32003.1
533.844	32027.67
534.045	31974.42
534.246	31566.88
534.447	31996.95
534.648	31675.42
534.849	31575.07
535.05	31587.36
535.251	31343.65
535.451	31151.14
535.652	31601.69
535.853	31362.08
536.054	31134.76
536.255	31542.3
536.456	30714.92
536.657	31169.57
536.857	30825.51
537.058	31239.2
537.259	30983.21
537.46	30944.3
537.66	30637.1
537.861	31181.86
538.062	31085.61
538.263	30884.9
538.463	30401.58
538.664	30686.25
538.865	30868.52
539.065	30985.26
539.266	30444.59
539.466	31163.43
539.667	30176.31
539.868	30598.19
540.068	30571.57
540.269	30491.69
540.469	30694.44
540.67	30295.09
540.87	30465.07
541.071	30209.08
541.271	30327.86
541.472	30399.54
541.672	30161.97
541.873	29869.11
542.073	29838.39
542.274	30567.47
542.474	30018.61
542.675	29893.69
542.875	30499.89
543.075	29975.61
543.276	29957.17
543.476	30497.84
543.676	30153.78
543.877	29903.93
544.077	30049.33
544.277	29754.43
544.478	29862.97
544.678	29881.4
544.878	30190.64
545.078	30129.2
545.279	29813.82
545.479	29805.63
545.679	29723.71
545.879	30037.05
546.079	29774.91
546.28	29852.73
546.48	29744.19
546.68	30147.64
546.88	29987.89
547.08	29918.26
547.28	29963.32
547.48	29664.32
547.68	29766.71
547.88	29766.71
548.081	29889.59
548.281	30069.81
548.481	29762.62
548.681	30176.31
548.881	29609.02
549.081	30178.36
549.28	29619.26
549.48	30090.29
549.68	30012.47
549.88	30372.91
550.08	29815.87
550.28	30301.23
550.48	29975.61
550.68	30471.22
550.88	29967.41
551.08	29781.05
551.279	30198.84
551.479	29856.82
551.679	30381.1
551.879	30190.64
552.079	30157.88
552.278	30166.07
552.478	30483.5
552.678	30192.69
552.878	30233.65
553.077	30078.01
553.277	30405.68
553.477	30266.42
553.676	30325.81
553.876	30276.66
554.076	30178.36
554.275	30465.07
554.475	30112.82
554.674	30401.58
554.874	30659.63
555.074	30264.37
555.273	30579.76
555.473	30741.55
555.672	30669.87
555.872	30725.16
556.071	30485.55
556.271	30848.04
556.47	30774.31
556.67	30602.29
556.869	30354.48
557.068	30653.48
557.268	30565.42
557.467	30641.2
557.667	30682.16
557.866	30716.97
558.065	30563.37
558.265	30532.65
558.464	30174.26
558.663	30878.76
558.863	30897.19
559.062	31101.99
559.261	30866.47
559.461	30862.38
559.66	30807.08
559.859	30753.83
560.058	30753.83
560.258	31003.69
560.457	30643.24
560.656	31114.28
560.855	30727.21
561.054	30798.89
561.253	30774.31
561.453	30950.44
561.652	30985.26
561.851	30854.19
562.05	30884.9
562.249	30397.49
562.448	31183.91
562.647	31038.5
562.846	30872.62
563.045	31142.95
563.244	30688.3
563.443	30972.97
563.642	30399.54
563.841	30444.59
564.04	30751.79
564.239	30805.03
564.438	30653.48
564.637	30678.06
564.836	30905.38
565.035	30458.93
565.234	30411.82
565.432	30407.73
565.631	30739.5
565.83	30080.05
566.029	30182.45
566.228	30381.1
566.427	30227.51
566.625	30047.29
566.824	29809.72
567.023	30538.8
567.222	29586.49
567.42	29879.35
567.619	30213.17
567.818	29738.04
568.016	29936.7
568.215	29805.63
568.414	29768.76
568.612	30096.44
568.811	29895.74
569.01	29629.5
569.208	29328.45
569.407	29600.83
569.605	29273.15
569.804	29473.85
570.002	29011.01
570.201	29764.67
570.4	29154.37
570.598	29015.11
570.797	29068.36
570.995	29142.08
571.193	28439.63
571.392	28947.53
571.59	28826.7
571.789	28564.56
571.987	28539.98
572.186	28472.4
572.384	28488.78
572.582	28740.68
572.781	28607.56
572.979	27819.1
573.177	28224.59
573.376	28111.96
573.574	27771.99
573.772	28075.09
573.971	28042.32
574.169	27974.74
574.367	27880.53
574.565	27769.94
574.763	27669.59
574.962	27604.06
575.16	27274.34
575.358	27253.86
575.556	26995.81
575.754	27186.27
575.952	27116.64
576.151	27153.51
576.349	26719.34
576.547	26645.61
576.745	26520.68
576.943	26758.25
577.141	26494.06
577.339	26834.02
577.537	26657.9
577.735	26393.71
577.933	26131.57
578.131	26268.78
578.329	26319.98
578.527	26008.69
578.725	26260.59
578.923	25830.52
579.121	25785.46
579.319	25611.39
579.516	25891.96
579.714	25711.74
579.912	25414.78
580.11	25574.52
580.308	25533.56
580.506	25285.76
580.704	24964.23
580.901	25068.67
581.099	25328.77
581.297	24894.6
581.495	25158.78
581.692	25074.82
581.89	24974.47
582.088	24941.7
582.285	24765.57
582.483	25027.71
582.681	24476.81
582.878	24417.42
583.076	24069.26
583.274	24681.61
583.471	24310.93
583.669	24157.33
583.866	24016.02
584.064	24306.83
584.262	24155.28
584.459	24122.51
584.657	23852.18
584.854	24272.01
585.052	23907.48
585.249	23915.67
585.447	24003.73
585.644	23522.46
585.841	23712.92
586.039	24009.87
586.236	23846.04
586.434	23463.07
586.631	23479.45
586.828	23415.96
587.026	23446.68
587.223	23018.66
587.42	23125.15
587.618	23125.15
587.815	22781.09
588.012	23049.38
588.21	22969.51
588.407	23262.37
588.604	22940.83
588.801	22873.25
588.999	22772.9
589.196	22844.58
589.393	23051.42
589.59	22781.09
589.787	22494.38
589.984	22482.09
590.182	22586.54
590.379	22764.71
590.576	22213.81
590.773	22543.53
590.97	22178.99
591.167	22609.06
591.364	22318.25
591.561	22164.65
591.758	22052.02
591.955	22170.8
592.152	22330.54
592.349	21980.34
592.546	22228.14
592.743	22084.78
592.94	21904.56
593.137	22043.82
593.334	22125.74
593.531	21728.44
593.727	21920.95
593.924	22213.81
594.121	21732.53
594.318	21908.66
594.515	21548.22
594.712	22064.3
594.908	21791.92
595.105	21873.84
595.302	21617.85
595.499	21720.24
595.696	21732.53
595.892	21656.76
596.089	22092.97
596.286	21941.43
596.482	21660.85
596.679	21863.6
596.876	21963.95
597.072	21781.68
597.269	21791.92
597.466	21435.58
597.662	21763.25
597.859	21812.4
598.055	21900.47
598.252	21767.35
598.448	21724.34
598.645	21568.69
598.841	21570.74
599.038	21890.23
599.234	21951.67
599.431	21740.72
599.627	21720.24
599.824	21879.99
600.02	21824.69
600.217	22019.25
600.413	21732.53
600.609	21873.84
600.806	21851.31
601.002	21920.95
601.198	22027.44
601.395	21775.54
601.591	22191.28
601.787	22000.82
601.984	22006.96
602.18	22289.58
602.376	22074.54
602.572	22080.69
602.769	22195.37
602.965	21855.41
603.161	22432.94
603.357	22129.84
603.553	21949.62
603.75	22471.85
603.946	22230.19
604.142	22178.99
604.338	22250.67
604.534	22443.18
604.73	22273.2
604.926	22338.73
605.122	22609.06
605.318	22670.5
605.514	22445.23
605.71	22621.35
605.906	22529.19
606.102	22725.8
606.298	22690.98
606.494	22662.31
606.69	22506.66
606.886	22887.59
607.082	22617.25
607.278	23141.53
607.474	22623.4
607.67	22832.29
607.866	22711.46
608.062	22959.27
608.257	22998.18
608.453	23092.38
608.649	23166.11
608.845	23217.31
609.041	23123.1
609.236	23184.54
609.432	23258.27
609.628	23315.61
609.824	23073.95
610.019	23372.96
610.215	23592.09
610.411	23674.01
610.606	23647.38
610.802	23600.28
610.998	23575.7
611.193	23532.7
611.389	23360.67
611.584	23624.86
611.78	23346.33
611.976	23659.67
612.171	23395.48
612.367	23747.73
612.562	23561.37
612.758	23647.38
612.953	23682.2
613.149	23719.06
613.344	23725.21
613.539	23866.52
613.735	23895.19
613.93	23872.66
614.126	23889.04
614.321	24265.87
614.517	24036.5
614.712	23940.24
614.907	23968.91
615.103	23956.63
615.298	23966.87
615.493	24366.22
615.688	23780.5
615.884	24700.04
616.079	24159.38
616.274	24179.86
616.47	23997.59
616.665	24167.57
616.86	24018.07
617.055	24179.86
617.25	24104.08
617.445	24372.36
617.641	23823.51
617.836	24124.56
618.031	23827.6
618.226	24183.95
618.421	23661.72
618.616	24038.55
618.811	23674.01
619.006	24003.73
619.201	23393.44
619.396	23616.66
619.591	23266.46
619.786	23426.2
619.981	23157.92
620.176	23526.55
620.371	23291.04
620.566	23221.41
620.761	23352.48
620.956	23493.79
621.151	23047.33
621.346	23248.03
621.541	23020.7
621.735	22985.89
621.93	22690.98
622.125	22379.69
622.32	22146.22
622.515	22609.06
622.709	22422.7
622.904	22391.98
623.099	22652.07
623.294	22443.18
623.488	22138.03
623.683	21910.71
623.878	21562.55
624.072	21623.99
624.267	21900.47
624.462	21566.65
624.656	21425.34
624.851	21339.32
625.046	21357.75
625.24	21347.51
625.435	21132.48
625.629	21216.44
625.824	20964.54
626.018	20794.56
626.213	20794.56
626.407	20841.67
626.602	20516.04
626.796	20452.55
626.991	20550.85
627.185	20493.51
627.38	20149.45
627.574	20059.34
627.768	20010.19
627.963	19997.9
628.157	19696.85
628.352	19963.09
628.546	19528.92
628.74	19535.06
628.935	19418.33
629.129	19338.46
629.323	19119.32
629.517	19422.42
629.712	19004.64
629.906	18826.46
630.1	18736.35
630.294	19088.6
630.489	18713.83
630.683	18685.15
630.877	18525.41
631.071	18607.33
631.265	18566.37
631.459	18326.76
631.653	18171.11
631.848	18207.98
632.042	17947.89
632.236	18089.2
632.43	17835.25
632.624	17859.82
632.818	17794.29
633.012	17644.79
633.206	17638.64
633.4	17523.96
633.594	17321.21
633.788	17351.93
633.982	17353.98
634.176	17087.74
634.369	16811.26
634.563	16995.58
634.757	16815.36
634.951	16999.68
635.145	16622.85
635.339	16608.51
635.533	16608.51
635.726	16653.57
635.92	16174.35
636.114	16203.02
636.308	16076.04
636.501	15908.11
636.695	15975.69
636.889	15744.27
637.083	16008.46
637.276	15875.34
637.47	15543.57
637.664	15643.92
637.857	15422.74
638.051	15211.8
638.244	15240.47
638.438	14898.46
638.632	15219.99
638.825	15009.05
639.019	14900.51
639.212	14812.45
639.406	14920.99
639.599	14732.58
639.793	14769.44
639.986	14202.15
640.18	14587.17
640.373	14437.67
640.567	14105.9
640.76	14218.54
640.954	14083.37
641.147	14001.45
641.34	13854
641.534	13821.23
641.727	13737.26
641.92	13927.72
642.114	13385.01
642.307	13452.59
642.5	13507.89
642.694	13262.13
642.887	13071.67
643.08	13294.9
643.273	13081.91
643.467	12936.51
643.66	12801.34
643.853	12647.74
644.046	12541.25
644.239	12756.29
644.432	12811.58
644.626	12600.64
644.819	12365.12
645.012	12414.27
645.205	12471.62
645.398	12328.26
645.591	12092.74
645.784	11877.71
645.977	11734.35
646.17	11754.83
646.363	11867.47
646.556	11486.54
646.749	11873.61
646.942	11722.06
647.135	11500.88
647.328	11486.54
647.521	11494.74
647.714	11165.01
647.907	11318.61
648.099	11105.62
648.292	11101.53
648.485	11064.66
648.678	10913.11
648.871	10855.77
649.064	10775.9
649.256	10726.75
649.449	10788.19
649.642	10749.28
649.835	10575.2
650.027	10526.05
650.22	10468.7
650.413	10323.3
650.605	10530.14
650.798	10405.22
650.991	10214.76
651.183	10259.81
651.376	10149.22
651.568	10290.53
651.761	10306.91
651.954	10018.15
652.146	9835.88
652.339	10007.91
652.531	9733.48
652.724	9651.56
652.916	9659.76
653.109	9676.14
653.301	9551.21
653.494	9690.48
653.686	9479.54
653.879	9368.95
654.071	9284.98
654.263	9491.82
654.456	9194.87
654.648	9299.31
654.84	9031.03
655.033	9274.74
655.225	8996.21
655.417	9022.84
655.61	8979.83
655.802	8983.93
655.994	8979.83
656.186	8754.55
656.379	8805.75
656.571	8889.72
656.763	8600.96
656.955	8406.4
657.148	8592.76
657.34	8609.15
657.532	8435.07
657.724	8414.59
657.916	8357.25
658.108	8580.48
658.3	8318.34
658.492	8244.61
658.684	8250.75
658.876	8166.79
659.068	8160.64
659.26	8217.99
659.452	7814.54
659.644	7951.75
659.836	7900.55
660.028	8091.01
660.22	7896.46
660.412	7964.04
660.604	7703.95
660.796	7687.56
660.988	7636.36
661.18	7527.82
661.372	7585.16
661.563	7675.27
661.755	7507.34
661.947	7675.27
662.139	7413.13
662.331	7460.24
662.522	7345.55
662.714	7318.93
662.906	7159.19
663.097	7142.8
663.289	7058.84
663.481	7157.14
663.673	7003.54
663.864	7021.97
664.056	6919.57
664.247	6929.81
664.439	6854.04
664.631	6895
664.822	6995.35
665.014	6929.81
665.205	6899.09
665.397	6759.83
665.588	6831.51
665.78	6514.08
665.971	6677.91
666.163	6673.82
666.354	6770.07
666.546	6462.88
666.737	6618.52
666.929	6575.52
667.12	6450.59
667.311	6499.74
667.503	6178.21
667.694	6315.42
667.885	6268.32
668.077	6403.49
668.268	6264.22
668.459	5909.93
668.651	6315.42
668.842	6260.13
669.033	6120.87
669.224	6143.39
669.416	6196.64
669.607	6069.67
669.798	6063.52
669.989	6202.79
670.18	5889.45
670.371	5909.93
670.563	6038.95
670.754	6047.14
670.945	5895.59
671.136	5887.4
671.327	5926.31
671.518	5830.06
671.709	5787.05
671.9	5887.4
672.091	5627.31
672.282	5799.34
672.473	5637.55
672.664	5709.22
672.855	5506.48
673.046	5725.61
673.237	5653.93
673.428	5610.92
673.619	5545.39
673.809	5535.15
674	5584.3
674.191	5645.74
674.382	5678.51
674.573	5449.13
674.764	5365.17
674.954	5506.48
675.145	5402.03
675.336	5506.48
675.527	5569.96
675.717	5612.97
675.908	5479.85
676.099	5426.61
676.289	5402.03
676.48	5244.34
676.671	5287.34
676.861	5367.21
677.052	5111.22
677.243	5289.39
677.433	5385.65
677.624	5244.34
677.814	5258.67
678.005	5356.97
678.195	5418.41
678.386	5293.49
678.576	5244.34
678.767	5350.83
678.957	5334.45
679.148	5283.25
679.338	5418.41
679.529	5279.15
679.719	5303.73
679.909	5205.42
680.1	5152.18
680.29	5250.48
680.481	5129.65
680.671	5172.66
680.861	5240.24
681.052	5379.5
681.242	5221.81
681.432	5051.83
681.622	5057.97
681.813	5219.76
682.003	5162.42
682.193	4961.72
682.383	5047.73
682.573	5129.65
682.764	5129.65
682.954	5078.45
683.144	5211.57
683.334	5055.92
683.524	5205.42
683.714	5189.04
683.904	5117.36
684.094	5156.27
684.284	5186.99
684.474	5182.9
684.664	5074.35
684.854	5141.94
685.044	5180.85
685.234	5053.87
685.424	4861.37
685.614	4955.57
685.804	5039.54
685.994	4916.66
686.184	5002.68
686.374	5057.97
686.564	4902.33
686.753	5152.18
686.943	4980.15
687.133	5031.35
687.323	4898.23
687.513	5008.82
687.702	4791.73
687.892	4855.22
688.082	4894.13
688.272	5017.01
688.461	4986.29
688.651	5082.55
688.841	4787.64
689.03	4865.46
689.22	4693.43
689.41	4830.65
689.599	4867.51
689.789	4750.78
689.979	4750.78
690.168	4793.78
690.358	4730.3
690.547	4672.95
690.737	4734.39
690.926	4857.27
691.116	4816.31
691.305	4771.26
691.495	4718.01
691.684	4711.86
691.874	4750.78
692.063	4758.97
692.252	4730.3
692.442	4777.4
692.631	4560.31
692.82	4685.24
693.01	4689.34
693.199	4705.72
693.388	4619.71
693.578	4646.33
693.767	4685.24
693.956	4492.73
694.146	4435.39
694.335	4531.64
694.524	4449.72
694.713	4599.23
694.902	4396.48
695.092	4537.79
695.281	4488.64
695.47	4513.21
695.659	4447.68
695.848	4384.19
696.037	4388.29
696.226	4429.24
696.415	4419
696.604	4466.11
696.793	4326.85
696.982	4369.85
697.171	4568.51
697.36	4474.3
697.549	4318.65
697.738	4339.13
697.927	4263.36
698.116	4373.95
698.305	4416.96
698.494	4312.51
698.683	4267.45
698.872	4304.32
699.061	4275.65
699.25	4433.34
699.438	4289.98
699.627	4210.11
699.816	4296.13
700.005	4277.69
700.193	4165.06
700.382	4281.79
700.571	4173.25
700.76	4154.82
700.948	4222.4
701.137	4234.69
701.326	4201.92
701.514	4251.07
701.703	4163.01
701.892	4130.24
702.08	4183.49
702.269	4138.43
702.457	3993.03
702.646	4103.62
702.834	3947.97
703.023	4046.27
703.212	4087.23
703.4	4021.7
703.589	3909.06
703.777	4156.86
703.965	3972.55
704.154	4097.47
704.342	3868.1
704.531	3751.37
704.719	3941.83
704.907	4038.08
705.096	3943.88
705.284	3853.77
705.472	3915.2
705.661	3970.5
705.849	3972.55
706.037	3890.63
706.226	3898.82
706.414	3835.33
706.602	3788.23
706.79	3927.49
706.979	3704.26
707.167	3825.09
707.355	3741.13
707.543	3702.22
707.731	3712.46
707.919	3743.17
708.107	3839.43
708.296	3644.87
708.484	3614.15
708.672	3685.83
708.86	3816.9
709.048	3612.1
709.236	3655.11
709.424	3710.41
709.612	3710.41
709.8	3597.77
709.988	3587.53
710.176	3687.88
710.364	3597.77
710.551	3603.91
710.739	3538.38
710.927	3556.81
711.115	3542.47
711.303	3589.58
711.491	3458.51
711.679	3565
711.866	3466.7
712.054	3335.63
712.242	3548.62
712.43	3562.95
712.617	3343.82
712.805	3444.17
712.993	3497.42
713.181	3251.66
713.368	3372.49
713.556	3411.4
713.744	3212.75
713.931	3411.4
714.119	3345.87
714.306	3386.83
714.494	3450.32
714.682	3362.25
714.869	3229.13
715.057	3370.44
715.244	3251.66
715.432	3417.55
715.619	3253.71
715.807	3311.05
715.994	3325.39
716.182	3165.65
716.369	3227.09
716.556	3175.89
716.744	3247.57
716.931	3175.89
717.119	3204.56
717.306	3268.05
717.493	3153.36
717.681	3106.26
717.868	3169.74
718.055	3073.49
718.242	3024.34
718.43	3177.94
718.617	3046.87
718.804	2917.84
718.991	3067.35
719.179	3182.03
719.366	2983.38
719.553	3083.73
719.74	2973.14
719.927	3032.53
720.114	3120.59
720.301	2948.56
720.488	2936.28
720.676	2952.66
720.863	3012.05
721.05	2930.13
721.237	2991.57
721.424	3030.48
721.611	2876.88
721.798	2819.54
721.985	3026.39
722.172	2932.18
722.358	2958.8
722.545	3016.15
722.732	2842.07
722.919	2850.26
723.106	2846.16
723.293	2825.68
723.48	2921.94
723.667	2809.3
723.853	2880.98
724.04	2846.16
724.227	2747.86
724.414	2739.67
724.6	2704.85
724.787	2780.63
724.974	2821.59
725.161	2760.15
725.347	2719.19
725.534	2696.66
725.72	2770.39
725.907	2862.55
726.094	2711
726.28	2629.08
726.467	2612.7
726.653	2670.04
726.84	2614.74
727.027	2749.91
727.213	2618.84
727.4	2637.27
727.586	2616.79
727.773	2665.94
727.959	2641.37
728.145	2653.66
728.332	2563.54
728.518	2567.64
728.705	2653.66
728.891	2612.7
729.077	2457.05
729.264	2573.78
729.45	2573.78
729.636	2561.5
729.823	2659.8
730.009	2614.74
730.195	2549.21
730.382	2653.66
730.568	2612.7
730.754	2536.92
730.94	2498.01
731.126	2471.39
731.313	2440.67
731.499	2422.24
731.685	2393.56
731.871	2538.97
732.057	2538.97
732.243	2414.04
732.429	2418.14
732.615	2602.46
732.801	2448.86
732.987	2465.24
733.173	2420.19
733.359	2452.95
733.545	2465.24
733.731	2412
733.917	2420.19
734.103	2379.23
734.289	2426.33
734.475	2325.98
734.661	2465.24
734.847	2328.03
735.033	2285.02
735.219	2328.03
735.404	2405.85
735.59	2399.71
735.776	2362.84
735.962	2325.98
736.148	2383.32
736.333	2416.09
736.519	2319.84
736.705	2301.4
736.89	2256.35
737.076	2293.21
737.262	2178.53
737.447	2360.8
737.633	2287.07
737.819	2252.25
738.004	2260.45
738.19	2291.17
738.375	2325.98
738.561	2309.6
738.747	2170.33
738.932	2207.2
739.118	2268.64
739.303	2225.63
739.489	2162.14
739.674	2133.47
739.859	2014.69
740.045	2143.71
740.23	2121.18
740.416	2102.75
740.601	2145.76
740.786	2129.38
740.972	2100.7
741.157	2170.33
741.342	2035.17
741.528	2137.57
741.713	2051.55
741.898	1969.63
742.084	2110.94
742.269	2084.32
742.454	2096.61
742.639	2018.79
742.824	2063.84
743.01	2063.84
743.195	2043.36
743.38	1977.83
743.565	1924.58
743.75	1904.1
743.935	1908.19
744.12	1990.11
744.305	1951.2
744.49	1848.8
744.675	1932.77
744.86	1887.72
745.045	1889.76
745.23	1902.05
745.415	1863.14
745.6	1883.62
745.785	1801.7
745.97	1854.95
746.155	1871.33
746.34	1826.28
746.525	1717.73
746.71	1900
746.895	1869.28
747.079	1752.55
747.264	1732.07
747.449	1678.82
747.634	1840.61
747.819	1770.98
748.003	1752.55
748.188	1615.34
748.373	1613.29
748.557	1652.2
748.742	1652.2
748.927	1660.39
749.111	1705.45
749.296	1705.45
749.481	1652.2
749.665	1564.14
749.85	1580.52
750.034	1662.44
750.219	1521.13
750.404	1539.56
750.588	1578.47
750.773	1560.04
750.957	1549.8
751.141	1555.94
751.326	1506.79
751.51	1584.62
751.695	1541.61
751.879	1523.18
752.064	1557.99
752.248	1480.17
752.432	1527.27
752.617	1502.7
752.801	1539.56
752.985	1451.5
753.17	1465.83
753.354	1492.46
753.538	1433.07
753.722	1347.05
753.907	1359.34
754.091	1308.14
754.275	1412.59
754.459	1340.91
754.643	1316.33
754.828	1392.11
755.012	1283.56
755.196	1203.69
755.38	1285.61
755.564	1236.46
755.748	1297.9
755.932	1218.03
756.116	1269.23
756.3	1224.17
756.484	1306.09
756.668	1197.55
756.852	1150.45
757.036	1109.49
757.22	1203.69
757.404	1252.84
757.588	1199.6
757.772	1277.42
757.956	1226.22
758.14	1230.32
758.323	1166.83
758.507	1138.16
758.691	1162.73
758.875	1193.45
759.059	1203.69
759.242	1093.1
759.426	1138.16
759.61	1125.87
759.794	1015.28
759.977	1031.66
760.161	1109.49
760.345	1062.38
760.528	1107.44
760.712	1082.86
760.895	1031.66
761.079	1039.86
761.263	1009.14
761.446	1015.28
761.63	1039.86
761.813	1023.47
761.997	941.55
762.18	1023.47
762.364	1039.86
762.547	990.7
762.731	910.83
762.914	1031.66
763.098	968.18
763.281	976.37
763.464	982.51
763.648	914.93
763.831	941.55
764.015	886.26
764.198	959.99
764.381	998.9
764.564	937.46
764.748	943.6
764.931	951.79
765.114	892.4
765.297	982.51
765.481	1009.14
765.664	927.22
765.847	921.07
766.03	886.26
766.213	959.99
766.397	861.68
766.58	943.6
766.763	957.94
766.946	937.46
767.129	908.79
767.312	974.32
767.495	900.59
767.678	855.54
767.861	982.51
768.044	896.5
768.227	869.87
768.41	859.63
768.593	847.35
768.776	919.03
768.959	847.35
769.142	845.3
769.324	765.43
769.507	892.4
769.69	847.35
769.873	787.96
770.056	902.64
770.239	833.01
770.421	835.06
770.604	898.55
770.787	890.35
770.97	763.38
771.152	880.11
771.335	919.03
771.518	755.19
771.7	820.72
771.883	822.77
772.066	806.39
772.248	738.8
772.431	810.48
772.613	859.63
772.796	720.37
772.978	787.96
773.161	785.91
773.343	728.56
773.526	761.33
773.708	738.8
773.891	689.65
774.073	654.84
774.256	763.38
774.438	818.68
774.621	712.18
774.803	769.52
774.985	663.03
775.168	744.95
775.35	703.99
775.532	665.08
775.715	693.75
775.897	628.21
776.079	734.71
776.261	708.09
776.444	609.78
776.626	597.49
776.808	718.33
776.99	585.21
777.173	687.61
777.355	685.56
777.537	669.17
777.719	675.32
777.901	638.45
778.083	525.82
778.265	552.44
778.447	624.12
778.629	601.59
778.811	605.69
778.993	638.45
779.175	663.03
779.357	558.58
779.539	597.49
779.721	595.45
779.903	597.49
780.085	583.16
780.267	577.02
780.449	550.39
780.631	556.54
780.812	577.02
780.994	501.24
781.176	589.3
781.358	527.86
781.54	566.78
781.721	542.2
781.903	556.54
782.085	568.82
782.267	495.1
782.448	558.58
782.63	503.29
782.812	470.52
782.993	515.58
783.175	540.15
783.357	435.71
783.538	593.4
783.72	515.58
783.901	548.34
784.083	499.19
784.264	484.86
784.446	476.66
784.627	423.42
784.809	525.82
784.99	450.04
785.172	452.09
785.353	478.71
785.535	392.7
785.716	435.71
785.897	425.47
786.079	421.37
786.26	394.75
786.441	423.42
786.623	417.27
786.804	404.99
786.985	370.17
787.167	450.04
787.348	396.79
787.529	388.6
787.71	493.05
787.891	443.9
788.073	347.64
788.254	364.03
788.435	372.22
788.616	374.27
788.797	409.08
788.978	441.85
789.159	269.82
789.34	431.61
789.522	310.78
789.703	355.83
789.884	368.12
790.065	361.98
790.246	351.74
790.427	329.21
790.607	386.55
790.788	349.69
790.969	359.93
791.15	351.74
791.331	341.5
791.512	323.07
791.693	306.68
791.874	392.7
792.054	327.16
792.235	321.02
792.416	304.64
792.597	359.93
792.778	267.77
792.958	370.17
793.139	255.48
793.32	237.05
793.5	245.24
793.681	345.59
793.862	321.02
794.042	290.3
794.223	214.52
794.404	280.06
794.584	286.2
794.765	253.44
794.945	308.73
795.126	296.44
795.306	409.08
795.487	269.82
795.667	232.96
795.848	302.59
796.028	306.68
796.209	263.68
796.389	257.53
796.57	247.29
796.75	212.48
796.93	208.38
797.111	249.34
797.291	251.39
797.471	263.68
797.652	232.96
797.832	296.44
798.012	316.92
798.192	273.92
798.373	286.2
798.553	239.1
798.733	306.68
798.913	245.24
799.093	280.06
799.274	208.38
799.454	224.76
799.634	200.19
799.814	192
799.994	271.87
800.174	284.16
800.354	214.52
800.534	218.62
800.714	302.59
800.894	204.28
801.074	202.24
801.254	265.72
801.434	206.33
801.614	220.67
801.794	187.9
801.974	798.2
802.154	192
802.334	237.05
802.514	249.34
802.693	253.44
802.873	226.81
803.053	304.64
803.233	239.1
803.413	255.48
803.592	271.87
803.772	167.42
803.952	187.9
804.131	237.05
804.311	212.48
804.491	247.29
804.67	187.9
804.85	148.99
805.03	171.52
805.209	259.58
805.389	146.94
805.568	228.86
805.748	179.71
805.928	212.48
806.107	214.52
806.287	167.42
806.466	189.95
806.646	230.91
806.825	77.31
807.004	245.24
807.184	200.19
807.363	198.14
807.543	118.27
807.722	200.19
807.901	196.09
808.081	132.61
808.26	101.89
808.439	171.52
808.619	159.23
808.798	157.18
808.977	122.37
809.156	214.52
809.336	132.61
809.515	171.52
809.694	77.31
809.873	124.41
810.052	159.23
810.231	198.14
810.411	179.71
810.59	200.19
810.769	132.61
810.948	165.37
811.127	103.93
811.306	146.94
811.485	134.65
811.664	171.52
811.843	114.17
812.022	165.37
812.201	114.17
812.38	175.61
812.559	122.37
812.737	216.57
812.916	181.76
813.095	214.52
813.274	159.23
813.453	151.04
813.632	136.7
813.811	142.85
813.989	130.56
814.168	108.03
814.347	187.9
814.526	157.18
814.704	216.57
814.883	157.18
815.062	157.18
815.24	216.57
815.419	140.8
815.598	83.45
815.776	110.08
815.955	105.98
816.133	48.64
816.312	114.17
816.49	142.85
816.669	73.21
816.847	122.37
817.026	155.13
817.204	144.89
817.383	179.71
817.561	34.3
817.74	67.07
817.918	124.41
818.097	105.98
818.275	124.41
818.453	130.56
818.632	198.14
818.81	103.93
818.988	93.69
819.167	140.8
819.345	196.09
819.523	124.41
819.701	67.07
819.879	101.89
820.058	114.17
820.236	97.79
820.414	134.65
820.592	110.08
820.77	163.33
820.948	83.45
821.127	52.74
821.305	138.75
821.483	32.26
821.661	132.61
821.839	187.9
822.017	148.99
822.195	124.41
822.373	155.13
822.551	146.94
822.729	60.93
822.907	134.65
823.085	81.41
823.262	155.13
823.44	60.93
823.618	67.07
823.796	138.75
823.974	138.75
824.152	97.79
824.329	79.36
824.507	81.41
824.685	122.37
824.863	138.75
825.04	110.08
825.218	120.32
825.396	48.64
825.574	73.21
825.751	83.45
825.929	122.37
826.107	83.45
826.284	73.21
826.462	130.56
826.639	73.21
826.817	138.75
826.994	130.56
827.172	79.36
827.349	155.13
827.527	73.21
827.704	75.26
827.882	75.26
828.059	126.46
828.237	56.83
828.414	192
828.591	-4.61
828.769	50.69
828.946	75.26
829.124	140.8
829.301	99.84
829.478	99.84
829.655	93.69
829.833	124.41
830.01	81.41
830.187	97.79
830.364	19.97
830.542	48.64
830.719	95.74
830.896	89.6
831.073	54.78
831.25	48.64
831.427	148.99
831.604	118.27
831.782	-2.56
831.959	85.5
832.136	38.4
832.313	97.79
832.49	101.89
832.667	44.54
832.844	73.21
833.021	165.37
833.198	128.51
833.374	116.22
833.551	77.31
833.728	112.13
833.905	7.68
834.082	65.02
834.259	26.11
834.436	36.35
834.612	44.54
834.789	171.52
834.966	19.97
835.143	116.22
835.319	-33.28
835.496	114.17
835.673	56.83
835.85	36.35
836.026	83.45
836.203	136.7
836.38	1.54
836.556	-16.9
836.733	7.68
836.909	60.93
837.086	48.64
837.262	114.17
837.439	56.83
837.616	101.89
837.792	40.45
837.968	67.07
838.145	-39.42
838.321	69.12
838.498	71.17
838.674	81.41
838.851	52.74
839.027	73.21
839.203	52.74
839.38	89.6
839.556	58.88
839.732	105.98
839.909	69.12
840.085	85.5
840.261	-27.14
840.437	50.69
840.614	81.41
840.79	114.17
840.966	-0.51
841.142	17.92
841.318	36.35
841.494	69.12
841.671	60.93
841.847	-12.8
842.023	60.93
842.199	122.37
842.375	67.07
842.551	5.63
842.727	42.5
842.903	138.75
843.079	-39.42
843.255	89.6
843.431	15.87
843.607	28.16
843.783	-16.9
843.959	40.45
844.134	24.06
844.31	73.21
844.486	17.92
844.662	32.26
844.838	32.26
845.013	32.26
845.189	52.74
845.365	118.27
845.541	52.74
845.716	11.78
845.892	95.74
846.068	15.87
846.244	40.45
846.419	-4.61
846.595	-49.66
846.77	-25.09
846.946	24.06
847.122	-20.99
847.297	-41.47
847.473	40.45
847.648	-47.62
847.824	38.4
847.999	-25.09
848.175	67.07
848.35	44.54
848.526	99.84
848.701	-4.61
848.876	34.3
849.052	40.45
849.227	44.54
849.403	56.83
849.578	48.64
849.753	40.45
849.929	85.5
850.104	-98.81
850.279	7.68
850.454	99.84
850.63	69.12
850.805	42.5
850.98	22.02
851.155	42.5
851.33	22.02
851.505	-6.66
851.681	91.65
851.856	13.82
852.031	56.83
852.206	-8.7
852.381	65.02
852.556	40.45
852.731	32.26
852.906	-39.42
853.081	-41.47
853.256	44.54
853.431	15.87
853.606	19.97
853.781	32.26
853.956	-8.7
854.131	48.64
854.305	50.69
854.48	56.83
854.655	-0.51
854.83	75.26
855.005	-6.66
855.18	32.26
855.354	7.68
855.529	73.21
855.704	32.26
855.879	9.73
856.053	5.63
856.228	17.92
856.403	-14.85
856.577	34.3
856.752	48.64
856.926	30.21
857.101	73.21
857.276	42.5
857.45	-4.61
857.625	46.59
857.799	81.41
857.974	40.45
858.148	-8.7
858.323	24.06
858.497	11.78
858.672	-6.66
858.846	11.78
859.02	24.06
859.195	-4.61
859.369	-31.23
859.543	-16.9
859.718	-51.71
859.892	34.3
860.066	32.26
860.241	-0.51
860.415	60.93
860.589	-16.9
860.763	-37.38
860.938	-16.9
861.112	54.78
861.286	-16.9
861.46	-16.9
861.634	-25.09
861.808	58.88
861.982	-37.38
862.157	32.26
862.331	-37.38
862.505	-41.47
862.679	-25.09
862.853	48.64
863.027	-4.61
863.201	26.11
863.375	50.69
863.549	77.31
863.722	-49.66
863.896	56.83
864.07	58.88
864.244	26.11
864.418	9.73
864.592	34.3
864.766	32.26
864.939	-8.7
865.113	32.26
865.287	58.88
865.461	-14.85
865.634	40.45
865.808	15.87
865.982	-4.61
866.156	-53.76
866.329	-41.47
866.503	19.97
866.676	-35.33
866.85	91.65
867.024	-61.95
867.197	69.12
867.371	-41.47
867.544	-33.28
867.718	30.21
867.891	15.87
868.065	-57.86
868.238	40.45
868.412	17.92
868.585	-10.75
868.759	-55.81
868.932	-4.61
869.105	7.68
869.279	3.58
869.452	5.63
869.625	-41.47
869.799	46.59
869.972	-53.76
870.145	11.78
870.319	24.06
870.492	19.97
870.665	-8.7
870.838	-64
871.011	-90.62
871.185	-47.62
871.358	62.98
871.531	-55.81
871.704	-20.99
871.877	85.5
872.05	-0.51
872.223	87.55
872.396	17.92
872.569	-8.7
872.742	-20.99
872.915	22.02
873.088	40.45
873.261	-74.24
873.434	-10.75
873.607	77.31
873.78	15.87
873.953	-31.23
874.126	-8.7
874.299	24.06
874.471	9.73
874.644	-12.8
874.817	52.74
874.99	69.12
875.163	40.45
875.335	-16.9
875.508	-39.42
875.681	24.06
875.853	-0.51
876.026	-33.28
876.199	15.87
876.371	1.54
876.544	-41.47
876.717	-37.38
876.889	-29.18
877.062	32.26
877.234	-16.9
877.407	-2.56
877.579	15.87
877.752	67.07
877.924	-14.85
878.097	-25.09
878.269	30.21
878.442	44.54
878.614	7.68
878.786	-35.33
878.959	-12.8
879.131	-53.76
879.303	-74.24
879.476	-8.7
879.648	-4.61
879.82	50.69
879.993	-8.7
880.165	-2.56
880.337	15.87
880.509	17.92
880.681	-16.9
880.854	56.83
881.026	73.21
881.198	69.12
881.37	-49.66
881.542	73.21
881.714	-10.75
881.886	5.63
882.058	50.69
882.23	40.45
882.402	1.54
882.574	-14.85
882.746	67.07
882.918	3.58
883.09	40.45
883.262	81.41
883.434	-45.57
883.606	7.68
883.778	83.45
883.95	105.98
884.122	-80.38
884.293	97.79
884.465	7.68
884.637	58.88
884.809	-47.62
884.98	50.69
885.152	5.63
885.324	5.63
885.496	-2.56
885.667	42.5
885.839	-14.85
886.011	-16.9
886.182	9.73
886.354	17.92
886.525	3.58
886.697	40.45
886.869	-80.38
887.04	15.87
887.212	-8.7
887.383	73.21
887.555	-27.14
887.726	11.78
887.897	13.82
888.069	-39.42
888.24	-33.28
888.412	26.11
888.583	32.26
888.754	-49.66
888.926	-74.24
889.097	-41.47
889.268	3.58
889.44	11.78
889.611	11.78
889.782	22.02
889.953	-27.14
890.125	81.41
890.296	-16.9
890.467	-37.38
890.638	1.54
890.809	-0.51
890.98	15.87
891.151	-33.28
891.323	40.45
891.494	-4.61
891.665	17.92
891.836	26.11
892.007	7.68
892.178	-4.61
892.349	44.54
892.52	-8.7
892.691	-41.47
892.862	-33.28
893.032	-18.94
893.203	-4.61
893.374	34.3
893.545	19.97
893.716	-39.42
893.887	26.11
894.057	-78.33
894.228	24.06
894.399	-45.57
894.57	71.17
894.74	11.78
894.911	40.45
895.082	-0.51
895.253	73.21
895.423	-29.18
895.594	34.3
895.764	-8.7
895.935	-61.95
896.106	44.54
896.276	-4.61
896.447	46.59
896.617	-29.18
896.788	32.26
896.958	7.68
897.129	-0.51
897.299	40.45
897.47	40.45
897.64	24.06
897.81	32.26
897.981	-10.75
898.151	-25.09
898.322	7.68
898.492	54.78
898.662	-57.86
898.832	-41.47
899.003	-39.42
899.173	-61.95
899.343	7.68
899.513	-82.43
