Data from USB4F104151__265__14-34-34-928.txt Node

Date: Thu Mar 13 14:34:34 EDT 2025
User: louis
Spectrometer: USB4F10415
Trigger mode: 4
Integration Time (sec): 2.500000E-2
Scans to average: 1
Electric dark correction enabled: true
Nonlinearity correction enabled: false
Boxcar width: 0
XAxis mode: Wavelengths
Number of Pixels in Spectrum: 3648
>>>>>Begin Spectral Data<<<<<
178.204	-104.96
178.424	-104.96
178.644	-104.96
178.864	-197.12
179.084	-147.97
179.304	73.21
179.524	-66.05
179.744	-33.28
179.964	44.54
180.184	-25.09
180.404	3.58
180.624	-53.76
180.844	32.26
181.064	-20.99
181.283	9.73
181.503	-20.99
181.723	56.83
181.943	-12.8
182.163	81.41
182.383	11.78
182.602	44.54
182.822	93.69
183.042	52.74
183.262	28.16
183.482	7.68
183.701	5.63
183.921	42.5
184.141	-16.9
184.361	36.35
184.58	67.07
184.8	15.87
185.02	-51.71
185.239	44.54
185.459	34.3
185.679	65.02
185.898	-4.61
186.118	60.93
186.338	52.74
186.557	-8.7
186.777	15.87
186.997	17.92
187.216	-8.7
187.436	73.21
187.655	-78.33
187.875	73.21
188.095	60.93
188.314	19.97
188.534	65.02
188.753	91.65
188.973	48.64
189.192	58.88
189.412	-12.8
189.631	28.16
189.851	15.87
190.07	159.23
190.29	-6.66
190.509	-8.7
190.729	15.87
190.948	17.92
191.168	114.17
191.387	-25.09
191.607	28.16
191.826	11.78
192.045	48.64
192.265	-59.9
192.484	48.64
192.704	60.93
192.923	-6.66
193.142	163.33
193.362	52.74
193.581	32.26
193.8	81.41
194.02	58.88
194.239	-2.56
194.458	93.69
194.678	3.58
194.897	46.59
195.116	19.97
195.335	44.54
195.555	28.16
195.774	62.98
195.993	-16.9
196.212	46.59
196.432	24.06
196.651	85.5
196.87	-8.7
197.089	32.26
197.308	-29.18
197.528	91.65
197.747	5.63
197.966	17.92
198.185	91.65
198.404	48.64
198.623	40.45
198.842	-16.9
199.062	67.07
199.281	62.98
199.5	28.16
199.719	3.58
199.938	46.59
200.157	81.41
200.376	93.69
200.595	65.02
200.814	34.3
201.033	32.26
201.252	81.41
201.471	105.98
201.69	97.79
201.909	24.06
202.128	7.68
202.347	48.64
202.566	38.4
202.785	-16.9
203.004	-29.18
203.223	91.65
203.442	77.31
203.661	5.63
203.879	50.69
204.098	32.26
204.317	-33.28
204.536	81.41
204.755	-10.75
204.974	-0.51
205.193	-0.51
205.411	134.65
205.63	52.74
205.849	58.88
206.068	73.21
206.287	56.83
206.505	62.98
206.724	60.93
206.943	7.68
207.162	44.54
207.381	56.83
207.599	-29.18
207.818	32.26
208.037	9.73
208.255	44.54
208.474	40.45
208.693	-2.56
208.911	-61.95
209.13	32.26
209.349	-14.85
209.567	36.35
209.786	65.02
210.005	7.68
210.223	28.16
210.442	34.3
210.661	26.11
210.879	48.64
211.098	-31.23
211.316	101.89
211.535	11.78
211.753	62.98
211.972	58.88
212.191	69.12
212.409	11.78
212.628	75.26
212.846	36.35
213.065	42.5
213.283	103.93
213.502	89.6
213.72	138.75
213.938	83.45
214.157	-0.51
214.375	40.45
214.594	40.45
214.812	44.54
215.031	67.07
215.249	48.64
215.467	19.97
215.686	-6.66
215.904	110.08
216.122	34.3
216.341	-0.51
216.559	60.93
216.778	65.02
216.996	48.64
217.214	30.21
217.432	65.02
217.651	-20.99
217.869	52.74
218.087	65.02
218.306	-66.05
218.524	73.21
218.742	11.78
218.96	42.5
219.179	40.45
219.397	32.26
219.615	118.27
219.833	44.54
220.051	32.26
220.27	69.12
220.488	75.26
220.706	24.06
220.924	-31.23
221.142	-18.94
221.36	91.65
221.578	32.26
221.796	-25.09
222.015	19.97
222.233	15.87
222.451	89.6
222.669	36.35
222.887	-0.51
223.105	65.02
223.323	24.06
223.541	-6.66
223.759	83.45
223.977	-16.9
224.195	79.36
224.413	83.45
224.631	36.35
224.849	19.97
225.067	24.06
225.285	42.5
225.503	73.21
225.721	48.64
225.939	3.58
226.157	3.58
226.375	146.94
226.592	15.87
226.81	3.58
227.028	-18.94
227.246	15.87
227.464	54.78
227.682	65.02
227.9	-6.66
228.117	83.45
228.335	22.02
228.553	65.02
228.771	-25.09
228.989	97.79
229.206	-0.51
229.424	28.16
229.642	52.74
229.86	15.87
230.077	-0.51
230.295	50.69
230.513	15.87
230.731	1.54
230.948	83.45
231.166	42.5
231.384	-8.7
231.601	56.83
231.819	99.84
232.037	-12.8
232.254	-47.62
232.472	-0.51
232.689	24.06
232.907	34.3
233.125	15.87
233.342	-33.28
233.56	-12.8
233.777	-25.09
233.995	34.3
234.213	24.06
234.43	69.12
234.648	34.3
234.865	30.21
235.083	136.7
235.3	93.69
235.518	-0.51
235.735	28.16
235.953	24.06
236.17	40.45
236.388	44.54
236.605	-23.04
236.822	9.73
237.04	73.21
237.257	32.26
237.475	36.35
237.692	75.26
237.909	-14.85
238.127	26.11
238.344	40.45
238.562	60.93
238.779	-2.56
238.996	34.3
239.214	-33.28
239.431	42.5
239.648	40.45
239.865	-37.38
240.083	24.06
240.3	62.98
240.517	-61.95
240.735	44.54
240.952	148.99
241.169	36.35
241.386	44.54
241.603	95.74
241.821	77.31
242.038	138.75
242.255	136.7
242.472	46.59
242.689	1.54
242.907	48.64
243.124	-59.9
243.341	-14.85
243.558	75.26
243.775	-8.7
243.992	52.74
244.209	52.74
244.426	89.6
244.643	32.26
244.86	24.06
245.078	73.21
245.295	97.79
245.512	38.4
245.729	30.21
245.946	65.02
246.163	9.73
246.38	67.07
246.597	85.5
246.814	75.26
247.031	24.06
247.248	34.3
247.464	24.06
247.681	-53.76
247.898	103.93
248.115	1.54
248.332	48.64
248.549	24.06
248.766	65.02
248.983	65.02
249.2	83.45
249.417	108.03
249.633	-39.42
249.85	97.79
250.067	1.54
250.284	52.74
250.501	65.02
250.717	114.17
250.934	19.97
251.151	69.12
251.368	28.16
251.585	89.6
251.801	26.11
252.018	34.3
252.235	108.03
252.451	-37.38
252.668	-16.9
252.885	130.56
253.102	114.17
253.318	-0.51
253.535	58.88
253.752	-10.75
253.968	56.83
254.185	22.02
254.401	-27.14
254.618	75.26
254.835	-4.61
255.051	83.45
255.268	52.74
255.484	56.83
255.701	83.45
255.917	79.36
256.134	-33.28
256.351	58.88
256.567	-31.23
256.784	65.02
257	3.58
257.217	30.21
257.433	40.45
257.65	48.64
257.866	71.17
258.082	-82.43
258.299	-8.7
258.515	-57.86
258.732	26.11
258.948	-8.7
259.165	48.64
259.381	34.3
259.597	67.07
259.814	58.88
260.03	-55.81
260.246	114.17
260.463	148.99
260.679	101.89
260.895	60.93
261.112	101.89
261.328	77.31
261.544	-0.51
261.761	155.13
261.977	91.65
262.193	101.89
262.409	48.64
262.626	65.02
262.842	24.06
263.058	11.78
263.274	85.5
263.49	73.21
263.707	79.36
263.923	26.11
264.139	5.63
264.355	-16.9
264.571	97.79
264.787	32.26
265.004	40.45
265.22	7.68
265.436	32.26
265.652	15.87
265.868	26.11
266.084	36.35
266.3	73.21
266.516	-0.51
266.732	77.31
266.948	65.02
267.164	73.21
267.38	65.02
267.596	48.64
267.812	48.64
268.028	65.02
268.244	73.21
268.46	32.26
268.676	9.73
268.892	46.59
269.108	-4.61
269.324	-8.7
269.54	26.11
269.756	-14.85
269.972	9.73
270.188	48.64
270.403	34.3
270.619	32.26
270.835	138.75
271.051	56.83
271.267	73.21
271.483	24.06
271.698	73.21
271.914	30.21
272.13	77.31
272.346	28.16
272.562	28.16
272.777	65.02
272.993	-25.09
273.209	24.06
273.425	85.5
273.64	7.68
273.856	136.7
274.072	79.36
274.287	-0.51
274.503	-2.56
274.719	46.59
274.934	58.88
275.15	32.26
275.366	19.97
275.581	-25.09
275.797	-10.75
276.012	44.54
276.228	50.69
276.444	40.45
276.659	85.5
276.875	15.87
277.09	89.6
277.306	3.58
277.521	87.55
277.737	-25.09
277.952	97.79
278.168	15.87
278.383	48.64
278.599	17.92
278.814	15.87
279.03	1.54
279.245	110.08
279.461	-12.8
279.676	52.74
279.892	-25.09
280.107	-57.86
280.322	7.68
280.538	124.41
280.753	32.26
280.969	38.4
281.184	91.65
281.399	73.21
281.615	-0.51
281.83	73.21
282.045	-47.62
282.26	50.69
282.476	54.78
282.691	17.92
282.906	67.07
283.122	126.46
283.337	26.11
283.552	110.08
283.767	-6.66
283.983	52.74
284.198	28.16
284.413	42.5
284.628	-6.66
284.843	15.87
285.058	-8.7
285.274	-0.51
285.489	30.21
285.704	99.84
285.919	36.35
286.134	30.21
286.349	67.07
286.564	-14.85
286.779	22.02
286.995	5.63
287.21	-12.8
287.425	-12.8
287.64	11.78
287.855	81.41
288.07	-2.56
288.285	65.02
288.5	67.07
288.715	44.54
288.93	71.17
289.145	-6.66
289.36	77.31
289.575	-37.38
289.79	-33.28
290.004	-23.04
290.219	79.36
290.434	108.03
290.649	5.63
290.864	99.84
291.079	7.68
291.294	60.93
291.509	26.11
291.724	-12.8
291.938	87.55
292.153	19.97
292.368	-29.18
292.583	15.87
292.798	77.31
293.012	138.75
293.227	-14.85
293.442	50.69
293.657	7.68
293.871	15.87
294.086	30.21
294.301	52.74
294.516	44.54
294.73	73.21
294.945	-4.61
295.16	81.41
295.374	89.6
295.589	118.27
295.804	-33.28
296.018	56.83
296.233	65.02
296.447	69.12
296.662	48.64
296.877	116.22
297.091	91.65
297.306	97.79
297.52	-88.57
297.735	67.07
297.949	1.54
298.164	148.99
298.378	-14.85
298.593	-72.19
298.807	-4.61
299.022	17.92
299.236	24.06
299.451	89.6
299.665	-33.28
299.88	67.07
300.094	56.83
300.309	65.02
300.523	32.26
300.737	77.31
300.952	-6.66
301.166	-0.51
301.381	32.26
301.595	56.83
301.809	130.56
302.024	34.3
302.238	5.63
302.452	105.98
302.667	19.97
302.881	75.26
303.095	58.88
303.309	81.41
303.524	26.11
303.738	48.64
303.952	24.06
304.166	3.58
304.381	54.78
304.595	157.18
304.809	-37.38
305.023	7.68
305.237	40.45
305.452	7.68
305.666	52.74
305.88	24.06
306.094	3.58
306.308	-16.9
306.522	30.21
306.736	77.31
306.95	-29.18
307.164	-10.75
307.379	32.26
307.593	114.17
307.807	81.41
308.021	65.02
308.235	56.83
308.449	-41.47
308.663	-2.56
308.877	101.89
309.091	26.11
309.305	81.41
309.519	-64
309.733	24.06
309.947	-23.04
310.161	77.31
310.374	73.21
310.588	99.84
310.802	30.21
311.016	54.78
311.23	101.89
311.444	28.16
311.658	34.3
311.872	103.93
312.085	65.02
312.299	114.17
312.513	40.45
312.727	148.99
312.941	118.27
313.154	15.87
313.368	24.06
313.582	89.6
313.796	34.3
314.009	50.69
314.223	1.54
314.437	81.41
314.651	7.68
314.864	56.83
315.078	56.83
315.292	7.68
315.505	11.78
315.719	11.78
315.933	73.21
316.146	15.87
316.36	50.69
316.573	112.13
316.787	85.5
317.001	54.78
317.214	60.93
317.428	42.5
317.641	-16.9
317.855	-6.66
318.068	89.6
318.282	1.54
318.495	89.6
318.709	17.92
318.922	81.41
319.136	105.98
319.349	60.93
319.563	67.07
319.776	58.88
319.99	11.78
320.203	28.16
320.417	46.59
320.63	93.69
320.843	126.46
321.057	77.31
321.27	1.54
321.483	67.07
321.697	58.88
321.91	40.45
322.124	54.78
322.337	58.88
322.55	13.82
322.763	83.45
322.977	50.69
323.19	28.16
323.403	9.73
323.617	73.21
323.83	40.45
324.043	-84.48
324.256	81.41
324.469	-35.33
324.683	50.69
324.896	69.12
325.109	9.73
325.322	54.78
325.535	52.74
325.748	44.54
325.962	9.73
326.175	81.41
326.388	110.08
326.601	75.26
326.814	-4.61
327.027	28.16
327.24	122.37
327.453	9.73
327.666	48.64
327.879	58.88
328.092	93.69
328.305	67.07
328.518	-4.61
328.731	48.64
328.944	9.73
329.157	-12.8
329.37	40.45
329.583	65.02
329.796	67.07
330.009	7.68
330.222	89.6
330.435	7.68
330.648	60.93
330.861	22.02
331.073	34.3
331.286	15.87
331.499	48.64
331.712	-70.14
331.925	1.54
332.138	40.45
332.35	138.75
332.563	40.45
332.776	81.41
332.989	-31.23
333.202	60.93
333.414	15.87
333.627	46.59
333.84	40.45
334.053	24.06
334.265	-49.66
334.478	44.54
334.691	24.06
334.903	28.16
335.116	1.54
335.329	105.98
335.541	65.02
335.754	54.78
335.966	-74.24
336.179	7.68
336.392	5.63
336.604	-18.94
336.817	138.75
337.029	89.6
337.242	93.69
337.454	-14.85
337.667	85.5
337.88	71.17
338.092	48.64
338.305	73.21
338.517	-0.51
338.729	50.69
338.942	85.5
339.154	40.45
339.367	19.97
339.579	48.64
339.792	28.16
340.004	28.16
340.217	-20.99
340.429	9.73
340.641	56.83
340.854	40.45
341.066	-2.56
341.278	95.74
341.491	56.83
341.703	15.87
341.915	34.3
342.128	56.83
342.34	-16.9
342.552	67.07
342.764	89.6
342.977	71.17
343.189	83.45
343.401	7.68
343.613	7.68
343.826	40.45
344.038	-16.9
344.25	62.98
344.462	69.12
344.674	11.78
344.886	36.35
345.099	-37.38
345.311	22.02
345.523	24.06
345.735	-41.47
345.947	89.6
346.159	69.12
346.371	-41.47
346.583	67.07
346.795	151.04
347.007	15.87
347.219	50.69
347.431	40.45
347.643	73.21
347.855	34.3
348.067	17.92
348.279	-8.7
348.491	9.73
348.703	116.22
348.915	15.87
349.127	56.83
349.339	97.79
349.551	9.73
349.763	73.21
349.975	58.88
350.187	99.84
350.399	73.21
350.61	69.12
350.822	91.65
351.034	48.64
351.246	11.78
351.458	60.93
351.669	93.69
351.881	56.83
352.093	110.08
352.305	83.45
352.517	54.78
352.728	81.41
352.94	58.88
353.152	56.83
353.363	-33.28
353.575	56.83
353.787	120.32
353.999	56.83
354.21	75.26
354.422	24.06
354.633	7.68
354.845	-0.51
355.057	83.45
355.268	44.54
355.48	65.02
355.692	-6.66
355.903	34.3
356.115	17.92
356.326	-18.94
356.538	114.17
356.749	60.93
356.961	73.21
357.172	-2.56
357.384	-8.7
357.595	120.32
357.807	7.68
358.018	40.45
358.23	7.68
358.441	50.69
358.653	75.26
358.864	-41.47
359.075	26.11
359.287	124.41
359.498	-20.99
359.709	77.31
359.921	13.82
360.132	60.93
360.344	34.3
360.555	40.45
360.766	50.69
360.977	75.26
361.189	52.74
361.4	9.73
361.611	56.83
361.823	73.21
362.034	85.5
362.245	36.35
362.456	15.87
362.667	9.73
362.879	17.92
363.09	81.41
363.301	24.06
363.512	110.08
363.723	-0.51
363.935	56.83
364.146	105.98
364.357	77.31
364.568	36.35
364.779	73.21
364.99	73.21
365.201	38.4
365.412	103.93
365.623	-39.42
365.834	73.21
366.045	15.87
366.256	108.03
366.467	24.06
366.678	52.74
366.889	91.65
367.1	-8.7
367.311	38.4
367.522	28.16
367.733	79.36
367.944	48.64
368.155	28.16
368.366	-8.7
368.577	34.3
368.788	56.83
368.999	-14.85
369.209	97.79
369.42	99.84
369.631	83.45
369.842	69.12
370.053	32.26
370.264	15.87
370.474	24.06
370.685	-8.7
370.896	19.97
371.107	38.4
371.317	77.31
371.528	22.02
371.739	120.32
371.95	122.37
372.16	-6.66
372.371	26.11
372.582	99.84
372.792	99.84
373.003	118.27
373.214	83.45
373.424	105.98
373.635	52.74
373.846	105.98
374.056	-8.7
374.267	48.64
374.477	32.26
374.688	44.54
374.898	19.97
375.109	95.74
375.319	65.02
375.53	114.17
375.74	38.4
375.951	15.87
376.161	97.79
376.372	91.65
376.582	9.73
376.793	32.26
377.003	48.64
377.214	60.93
377.424	-16.9
377.635	71.17
377.845	52.74
378.055	196.09
378.266	56.83
378.476	56.83
378.686	28.16
378.897	-0.51
379.107	32.26
379.317	71.17
379.528	62.98
379.738	40.45
379.948	-10.75
380.158	48.64
380.369	-4.61
380.579	24.06
380.789	36.35
380.999	91.65
381.21	65.02
381.42	77.31
381.63	38.4
381.84	48.64
382.05	56.83
382.261	79.36
382.471	32.26
382.681	-25.09
382.891	105.98
383.101	91.65
383.311	17.92
383.521	73.21
383.731	-18.94
383.941	105.98
384.151	52.74
384.361	-8.7
384.571	163.33
384.781	32.26
384.991	93.69
385.201	75.26
385.411	34.3
385.621	56.83
385.831	52.74
386.041	48.64
386.251	69.12
386.461	155.13
386.671	89.6
386.881	105.98
387.091	-8.7
387.301	105.98
387.511	91.65
387.72	36.35
387.93	81.41
388.14	56.83
388.35	50.69
388.56	114.17
388.769	120.32
388.979	15.87
389.189	-16.9
389.399	-12.8
389.609	44.54
389.818	93.69
390.028	114.17
390.238	62.98
390.447	15.87
390.657	65.02
390.867	114.17
391.076	67.07
391.286	101.89
391.496	36.35
391.705	46.59
391.915	83.45
392.125	140.8
392.334	-0.51
392.544	118.27
392.753	75.26
392.963	67.07
393.172	85.5
393.382	48.64
393.591	148.99
393.801	138.75
394.01	36.35
394.22	36.35
394.429	48.64
394.639	214.52
394.848	116.22
395.058	65.02
395.267	28.16
395.477	118.27
395.686	44.54
395.895	136.7
396.105	163.33
396.314	112.13
396.524	-4.61
396.733	32.26
396.942	44.54
397.152	83.45
397.361	214.52
397.57	52.74
397.78	75.26
397.989	93.69
398.198	136.7
398.407	116.22
398.617	97.79
398.826	73.21
399.035	36.35
399.244	187.9
399.453	120.32
399.663	81.41
399.872	130.56
400.081	108.03
400.29	146.94
400.499	118.27
400.708	124.41
400.917	124.41
401.127	52.74
401.336	65.02
401.545	171.52
401.754	171.52
401.963	175.61
402.172	83.45
402.381	89.6
402.59	116.22
402.799	134.65
403.008	132.61
403.217	81.41
403.426	75.26
403.635	136.7
403.844	101.89
404.053	101.89
404.262	54.78
404.471	138.75
404.68	91.65
404.888	118.27
405.097	128.51
405.306	153.09
405.515	163.33
405.724	85.5
405.933	200.19
406.142	130.56
406.35	253.44
406.559	187.9
406.768	171.52
406.977	216.57
407.185	206.33
407.394	179.71
407.603	126.46
407.812	179.71
408.02	192
408.229	216.57
408.438	286.2
408.646	198.14
408.855	216.57
409.064	265.72
409.272	245.24
409.481	218.62
409.69	179.71
409.898	261.63
410.107	282.11
410.315	288.25
410.524	294.4
410.733	310.78
410.941	314.88
411.15	333.31
411.358	312.83
411.567	351.74
411.775	302.59
411.984	394.75
412.192	501.24
412.401	411.13
412.609	462.33
412.818	425.47
413.026	462.33
413.234	415.23
413.443	433.66
413.651	450.04
413.86	503.29
414.068	531.96
414.276	482.81
414.485	540.15
414.693	577.02
414.901	730.61
415.11	630.26
415.318	595.45
415.526	572.92
415.734	708.09
415.943	626.17
416.151	769.52
416.359	675.32
416.567	779.76
416.776	830.96
416.984	927.22
417.192	966.13
417.4	835.06
417.608	884.21
417.817	833.01
418.025	966.13
418.233	974.32
418.441	972.27
418.649	1082.86
418.857	1140.21
419.065	1146.35
419.273	1125.87
419.481	1220.08
419.689	1207.79
419.897	1250.8
420.105	1279.47
420.313	1369.58
420.521	1385.96
420.729	1564.14
420.937	1523.18
421.145	1424.87
421.353	1715.69
421.561	1678.82
421.769	1682.92
421.977	1842.66
422.185	1795.56
422.393	1863.14
422.601	2018.79
422.809	2076.13
423.017	2092.51
423.224	2180.57
423.432	2192.86
423.64	2141.66
423.848	2465.24
424.056	2248.16
424.263	2452.95
424.471	2344.41
424.679	2483.67
424.887	2747.86
425.094	2923.99
425.302	2907.6
425.51	2958.8
425.718	2899.41
425.925	2983.38
426.133	3112.4
426.341	3323.34
426.548	3448.27
426.756	3397.07
426.964	3567.05
427.171	3694.02
427.379	3681.74
427.586	3726.79
427.794	3900.87
428.001	4140.48
428.209	4201.92
428.417	4169.15
428.624	4500.92
428.832	4472.25
429.039	4308.41
429.247	4498.88
429.454	4814.26
429.662	5127.6
429.869	4943.28
430.076	5232.05
430.284	5158.32
430.491	5244.34
430.699	5600.68
430.906	5696.94
431.114	5668.27
431.321	5725.61
431.528	5815.72
431.736	6356.38
431.943	6499.74
432.15	6344.1
432.358	6469.02
432.565	6880.66
432.772	6866.33
432.979	7118.23
433.187	7382.42
433.394	7234.96
433.601	7900.55
433.808	7994.76
434.016	7884.17
434.223	8269.19
434.43	8682.88
434.637	8553.85
434.844	8953.21
435.052	9139.57
435.259	8879.48
435.466	9141.62
435.673	9110.9
435.88	9788.78
436.087	10331.49
436.294	10007.91
436.501	9911.66
436.708	10181.99
436.915	10452.32
437.122	10706.27
437.329	11132.25
437.537	11017.56
437.743	11404.63
437.95	11322.71
438.157	12025.16
438.364	12152.13
438.571	12150.09
438.778	12408.13
438.985	13274.42
439.192	12803.39
439.399	13178.17
439.606	13083.96
439.813	13919.53
440.02	14429.48
440.227	14306.6
440.433	14171.43
440.64	14533.92
440.847	14437.67
441.054	14757.15
441.261	15654.16
441.467	15492.37
441.674	15846.67
441.881	16182.54
442.088	16497.92
442.294	16157.96
442.501	16452.87
442.708	16946.43
442.914	17716.47
443.121	18320.62
443.328	17970.41
443.534	19156.19
443.741	18957.53
443.948	18445.54
444.154	19690.71
444.361	19563.73
444.568	19938.51
444.774	19840.21
444.981	19983.57
445.187	20643.01
445.394	21427.39
445.6	21204.16
445.807	22992.03
446.013	22363.31
446.22	22574.25
446.426	23520.41
446.633	23741.59
446.839	24194.19
447.046	23399.58
447.252	24710.28
447.459	24566.92
447.665	24546.44
447.871	25742.46
448.078	26989.67
448.284	25656.44
448.491	26338.41
448.697	27317.34
448.903	27800.66
449.11	27944.02
449.316	27298.91
449.522	27858.01
449.728	28724.3
449.935	28712.01
450.141	29027.4
450.347	29623.36
450.553	28232.79
450.76	28759.11
450.966	29905.98
451.172	29443.13
451.378	30217.27
451.584	29496.38
451.791	30313.52
451.997	29946.94
452.203	30981.16
452.409	30805.03
452.615	30231.6
452.821	29426.75
453.027	29137.99
453.233	30385.2
453.44	29379.65
453.646	29852.73
453.852	29789.24
454.058	30227.51
454.264	29690.94
454.47	30067.77
454.676	29633.6
454.882	30078.01
455.088	27683.93
455.294	28189.78
455.5	28566.6
455.705	28851.27
455.911	27661.4
456.117	27272.29
456.323	26856.55
456.529	25599.1
456.735	26340.46
456.941	25715.83
457.147	25156.74
457.352	24188.05
457.558	24251.53
457.764	24155.28
457.97	23843.99
458.176	23233.69
458.381	23073.95
458.587	22525.1
458.793	21945.52
458.999	20950.21
459.204	22486.18
459.41	21884.08
459.616	20487.37
459.821	20374.73
460.027	20137.16
460.233	19958.99
460.438	19033.31
460.644	19096.8
460.85	18289.9
461.055	17536.24
461.261	18009.33
461.466	16325.89
461.672	16143.63
461.878	16997.63
462.083	15965.45
462.289	15635.73
462.494	15334.68
462.7	14683.42
462.905	14443.81
463.111	14933.28
463.316	14779.68
463.522	14605.6
463.727	14513.44
463.932	14421.28
464.138	14165.29
464.343	14380.32
464.549	13823.28
464.754	14478.63
464.959	14097.7
465.165	14148.9
465.37	13645.1
465.575	13149.5
465.781	13630.77
465.986	13571.38
466.191	13411.64
466.397	12801.34
466.602	12391.75
466.807	12901.69
467.012	12791.1
467.218	12533.06
467.423	12664.13
467.628	12537.15
467.833	12817.72
468.038	12459.33
468.244	12031.3
468.449	12959.03
468.654	12133.7
468.859	12100.94
469.064	12164.42
469.269	11732.3
469.474	11730.25
469.679	11912.52
469.885	11597.14
470.09	11844.94
470.295	11679.05
470.5	11423.06
470.705	11261.27
470.91	11058.52
471.115	11167.06
471.32	11130.2
471.525	11117.91
471.73	10577.25
471.935	10728.8
472.139	10214.76
472.344	10431.84
472.549	10249.57
472.754	10370.4
472.959	10173.8
473.164	9839.98
473.369	9821.55
473.574	10122.6
473.778	10059.11
473.983	10083.69
474.188	9882.99
474.393	9469.3
474.598	9377.14
474.802	9383.28
475.007	9176.44
475.212	9401.71
475.417	8924.54
475.621	9123.19
475.826	9086.33
476.031	8521.09
476.235	8742.27
476.44	8959.35
476.645	8754.55
476.849	8502.65
477.054	8332.67
477.259	8322.43
477.463	8416.64
477.668	8127.88
477.872	8344.96
478.077	8002.95
478.282	7886.22
478.486	7921.03
478.691	7947.65
478.895	7826.82
479.1	8019.33
479.304	7873.93
479.509	7421.33
479.713	7783.82
479.918	7466.38
480.122	7257.49
480.326	7531.92
480.531	7413.13
480.735	7249.3
480.94	7265.68
481.144	7603.6
481.348	7175.57
481.553	7325.07
481.757	7085.46
481.961	7200.15
482.166	7392.66
482.37	7196.05
482.574	7062.93
482.778	7275.92
482.983	7237.01
483.187	7093.65
483.391	7126.42
483.595	6925.72
483.8	7026.07
484.004	7095.7
484.208	7194
484.412	7185.81
484.616	7046.55
484.821	7007.64
485.025	6987.16
485.229	7024.02
485.433	7044.5
485.637	7019.92
485.841	6944.15
486.045	6978.97
486.249	6987.16
486.453	6972.82
486.657	7042.45
486.861	7046.55
487.065	6860.18
487.269	7089.56
487.473	6929.81
487.677	6903.19
487.881	7048.6
488.085	6921.62
488.289	7019.92
488.493	6974.87
488.697	6978.97
488.901	6899.09
489.105	6997.4
489.309	7042.45
489.512	6944.15
489.716	7032.21
489.92	7079.32
490.124	6964.63
490.328	7032.21
490.531	6944.15
490.735	7107.99
490.939	7142.8
491.143	6876.57
491.346	7112.08
491.55	7118.23
491.754	7167.38
491.958	7189.91
492.161	7077.27
492.365	7204.24
492.569	7200.15
492.772	7093.65
492.976	7245.2
493.18	7259.54
493.383	7130.52
493.587	7429.52
493.79	7445.9
493.994	7294.35
494.197	7271.83
494.401	7630.22
494.605	7527.82
494.808	7628.17
495.012	7679.37
495.215	7624.08
495.419	7708.04
495.622	7648.65
495.825	7753.1
496.029	7640.46
496.232	7904.65
496.436	7871.88
496.639	7951.75
496.843	8007.05
497.046	8068.48
497.249	8166.79
497.453	8267.14
497.656	8060.29
497.859	8400.26
498.063	8205.7
498.266	8519.04
498.469	8463.74
498.673	8584.57
498.876	8736.12
499.079	8594.81
499.282	8977.78
499.485	9051.51
499.689	8920.44
499.892	9215.35
500.095	9067.89
500.298	9387.38
500.501	9219.44
500.705	9610.61
500.908	9512.3
501.111	9432.43
501.314	9534.83
501.517	9657.71
501.72	9946.47
501.923	9954.66
502.126	10050.92
502.329	10259.81
502.532	9985.38
502.735	10190.18
502.938	10661.21
503.141	10673.5
503.344	10698.08
503.547	10753.37
503.75	10837.34
503.953	10935.64
504.156	10902.87
504.359	11205.97
504.562	11322.71
504.765	11394.39
504.968	11705.68
505.17	11527.5
505.373	11595.09
505.576	11949.39
505.779	11869.51
505.982	12055.88
506.185	12293.44
506.387	12254.53
506.59	12428.61
506.793	12524.86
506.996	12520.77
507.198	12881.21
507.401	12971.32
507.604	13043
507.807	13260.09
508.009	13253.94
508.212	13468.98
508.415	13548.85
508.617	13790.51
508.82	13882.67
509.022	13675.82
509.225	14142.76
509.428	14120.23
509.63	14044.46
509.833	14374.18
510.035	14632.22
510.238	14751.01
510.44	14566.69
510.643	15101.21
510.845	15199.51
511.048	15232.28
511.25	15432.98
511.453	15392.02
511.655	16100.62
511.858	15715.6
512.06	15934.73
512.262	16260.36
512.465	16129.29
512.667	16268.55
512.87	16409.86
513.072	16741.63
513.274	17214.71
513.477	16987.39
513.679	17028.35
513.881	17530.1
514.084	17435.89
514.286	17579.25
514.488	17591.54
514.69	17988.85
514.893	18250.99
515.095	18441.45
515.297	18435.3
515.499	18482.41
515.701	18590.95
515.904	18978.01
516.106	19133.66
516.308	19252.44
516.51	19621.08
516.712	19457.24
516.914	19748.05
517.116	20063.44
517.318	20212.94
517.52	20079.82
517.722	20319.43
517.925	20614.34
518.127	20602.05
518.329	21019.84
518.531	20722.88
518.733	21245.12
518.935	21445.82
519.136	21544.12
519.338	21679.29
519.54	21462.2
519.742	22099.12
519.944	21988.53
520.146	22445.23
520.348	22332.59
520.55	22219.95
520.752	22494.38
520.954	22690.98
521.155	22502.57
521.357	22998.18
521.559	23108.77
521.761	23606.42
521.963	23487.64
522.164	23442.59
522.366	23813.27
522.568	23772.31
522.77	23856.28
522.971	24155.28
523.173	23911.57
523.375	23987.35
523.576	24034.45
523.778	24298.64
523.98	24388.75
524.181	24630.41
524.383	24386.7
524.584	24554.63
524.786	24558.73
524.988	24525.96
525.189	24849.54
525.391	24734.85
525.592	24745.09
525.794	24790.15
525.995	24581.26
526.197	24763.53
526.398	24786.05
526.6	24853.64
526.801	25148.54
527.003	25066.63
527.204	25001.09
527.406	25123.97
527.607	25214.08
527.808	25238.65
528.01	24888.45
528.211	25033.86
528.412	25351.29
528.614	25384.06
528.815	25283.71
529.016	25562.23
529.218	25205.89
529.419	25031.81
529.62	25343.1
529.822	25322.62
530.023	24990.85
530.224	24982.66
530.425	25142.4
530.626	24945.8
530.828	24779.91
531.029	25336.96
531.23	24984.71
531.431	24755.33
531.632	24956.04
531.833	24892.55
532.035	24884.36
532.236	24888.45
532.437	24741
532.638	24749.19
532.839	24784.01
533.04	24603.78
533.241	24433.8
533.442	24796.29
533.643	24442
533.844	24540.3
534.045	24519.82
534.246	24175.76
534.447	24435.85
534.648	24272.01
534.849	24159.38
535.05	24243.34
535.251	24265.87
535.451	23874.71
535.652	23927.95
535.853	24036.5
536.054	23950.48
536.255	24001.68
536.456	23489.69
536.657	23887
536.857	23624.86
537.058	23422.11
537.259	24145.04
537.46	23622.81
537.66	23655.58
537.861	23315.61
538.062	23606.42
538.263	23645.34
538.463	23561.37
538.664	23477.4
538.865	23540.89
539.065	23657.62
539.266	23170.21
539.466	23282.84
539.667	22799.52
539.868	23463.07
540.068	23225.5
540.269	23424.15
540.469	23254.17
540.67	23268.51
540.87	23080.1
541.071	23155.87
541.271	23076
541.472	23108.77
541.672	23133.34
541.873	22746.28
542.073	22525.1
542.274	23276.7
542.474	22918.31
542.675	22758.56
542.875	22881.44
543.075	23125.15
543.276	22475.95
543.476	23090.34
543.676	23032.99
543.877	22637.73
544.077	22586.54
544.277	22811.81
544.478	22592.68
544.678	22895.78
544.878	22762.66
545.078	22914.21
545.279	22375.59
545.479	22838.44
545.679	22582.44
545.879	22697.13
546.079	22609.06
546.28	22891.68
546.48	22314.16
546.68	22668.45
546.88	22830.24
547.08	22934.69
547.28	22437.03
547.48	22414.51
547.68	22754.47
547.88	22617.25
548.081	23084.19
548.281	22650.02
548.481	22731.94
548.681	22703.27
548.881	22838.44
549.081	23024.8
549.28	22756.52
549.48	23051.42
549.68	22568.1
549.88	23020.7
550.08	22869.16
550.28	22676.65
550.48	22838.44
550.68	23092.38
550.88	22676.65
551.08	22969.51
551.279	23092.38
551.479	22926.5
551.679	22934.69
551.879	22815.91
552.079	23059.62
552.278	22951.07
552.478	23168.16
552.678	23096.48
552.878	23301.28
553.077	23102.62
553.277	22987.94
553.477	23655.58
553.676	22854.82
553.876	23002.27
554.076	23086.24
554.275	22983.84
554.475	23082.14
554.674	23461.02
554.874	23579.8
555.074	23426.2
555.273	24001.68
555.473	23616.66
555.672	23463.07
555.872	23520.41
556.071	23903.38
556.271	23696.53
556.47	23319.71
556.67	23370.91
556.869	23737.49
557.068	23465.11
557.268	23600.28
557.467	23702.68
557.667	23923.86
557.866	23708.82
558.065	23559.32
558.265	23751.83
558.464	23641.24
558.663	24142.99
558.863	24089.74
559.062	23975.06
559.261	23643.29
559.461	24112.27
559.66	23725.21
559.859	23956.63
560.058	23903.38
560.258	23993.49
560.457	23690.39
560.656	24036.5
560.855	23987.35
561.054	23831.7
561.253	24038.55
561.453	24085.65
561.652	24050.83
561.851	24333.45
562.05	23747.73
562.249	24054.93
562.448	24138.9
562.647	23764.12
562.846	23897.24
563.045	24046.74
563.244	23887
563.443	24011.92
563.642	23504.03
563.841	23987.35
564.04	23641.24
564.239	24183.95
564.438	23655.58
564.637	24009.87
564.836	24085.65
565.035	23366.81
565.234	23606.42
565.432	23837.84
565.631	23776.41
565.83	23827.6
566.029	23280.8
566.228	23508.12
566.427	23542.94
566.625	23364.76
566.824	23202.97
567.023	23637.14
567.222	23231.65
567.42	23520.41
567.619	23096.48
567.818	23041.18
568.016	23080.1
568.215	23379.1
568.414	23010.46
568.612	23495.83
568.811	22838.44
569.01	22924.45
569.208	22860.96
569.407	23061.66
569.605	22428.84
569.804	22660.26
570.002	22142.13
570.201	22949.03
570.4	22564.01
570.598	22348.97
570.797	22011.06
570.995	22508.71
571.193	22365.35
571.392	22490.28
571.59	22230.19
571.789	22312.11
571.987	22041.78
572.186	21961.9
572.384	21671.09
572.582	21804.21
572.781	21769.4
572.979	21630.13
573.177	21765.3
573.376	21820.6
573.574	21630.13
573.772	21540.02
573.971	21458.1
574.169	21329.08
574.367	21189.82
574.565	21187.77
574.763	20942.02
574.962	20962.5
575.16	20462.79
575.358	21134.53
575.556	20501.7
575.754	20903.11
575.952	20729.03
576.151	20647.11
576.349	20331.72
576.547	20239.56
576.745	20503.75
576.943	20184.27
577.141	20002
577.339	20196.56
577.537	20085.97
577.735	19995.85
577.933	19774.67
578.131	19930.32
578.329	19977.42
578.527	19721.43
578.725	19721.43
578.923	19868.88
579.121	19571.93
579.319	19619.03
579.516	19879.12
579.714	19573.97
579.912	19549.4
580.11	19440.86
580.308	19219.67
580.506	19354.84
580.704	18844.9
580.901	18930.91
581.099	19432.66
581.297	18779.36
581.495	19010.78
581.692	18840.8
581.89	18863.33
582.088	19258.59
582.285	18547.94
582.483	18820.32
582.681	18787.55
582.878	18828.51
583.076	18556.13
583.274	18556.13
583.471	18447.59
583.669	18533.61
583.866	18390.25
584.064	18158.83
584.262	17960.17
584.459	18363.62
584.657	18101.48
584.854	18343.14
585.052	18023.66
585.249	18158.83
585.447	17941.74
585.644	17790.19
585.841	17960.17
586.039	17988.85
586.236	17741.04
586.434	17569.01
586.631	17546.48
586.828	17702.13
587.026	17677.55
587.223	17720.56
587.42	17575.16
587.618	17638.64
587.815	17351.93
588.012	17519.86
588.21	17476.85
588.407	17550.58
588.604	17431.8
588.801	17145.08
588.999	17315.06
589.196	17347.83
589.393	17110.27
589.59	17100.03
589.787	17227
589.984	17038.59
590.182	17071.36
590.379	17057.02
590.576	16975.1
590.773	17030.4
590.97	17159.42
591.167	16948.48
591.364	16983.29
591.561	16942.33
591.758	16659.71
591.955	16743.68
592.152	16958.72
592.349	16866.56
592.546	16823.55
592.743	16784.64
592.94	16547.08
593.137	16782.59
593.334	16801.02
593.531	16585.99
593.727	16483.59
593.924	16702.72
594.121	16538.88
594.318	16819.46
594.515	16721.15
594.712	16645.38
594.908	16768.26
595.105	16917.76
595.302	16594.18
595.499	16721.15
595.696	16745.73
595.892	16559.36
596.089	16848.13
596.286	17046.78
596.482	16862.46
596.679	16768.26
596.876	16774.4
597.072	16641.28
597.269	16758.02
597.466	16698.63
597.662	16841.98
597.859	16841.98
598.055	16940.29
598.252	16772.35
598.448	16999.68
598.645	16649.47
598.841	16905.47
599.038	17147.13
599.234	17202.43
599.431	16780.54
599.627	16798.98
599.824	17231.1
600.02	17227
600.217	17251.58
600.413	17007.87
600.609	17208.57
600.806	17304.82
601.002	17396.98
601.198	17157.37
601.395	17145.08
601.591	17403.13
601.787	17442.04
601.984	17480.95
602.18	17511.67
602.376	17423.61
602.572	17614.07
602.769	17552.63
602.965	17523.96
603.161	17751.28
603.357	17640.69
603.553	17962.22
603.75	17734.9
603.946	17689.84
604.142	17831.15
604.338	17745.14
604.534	18087.15
604.73	17837.3
604.926	18236.65
605.122	18353.38
605.318	17988.85
605.514	18138.35
605.71	18046.19
605.906	18595.04
606.102	18337
606.298	18420.97
606.494	18150.64
606.69	18341.1
606.886	18590.95
607.082	18300.14
607.278	18701.54
607.474	18355.43
607.67	18709.73
607.866	18435.3
608.062	19111.13
608.257	18824.42
608.453	18926.82
608.649	18943.2
608.845	18734.31
609.041	19004.64
609.236	19141.85
609.432	18883.81
609.628	19309.79
609.824	19164.38
610.019	19127.52
610.215	19166.43
610.411	19743.95
610.606	19410.14
610.802	19238.11
610.998	19311.83
611.193	19365.08
611.389	19522.77
611.584	19569.88
611.78	19322.07
611.976	19526.87
612.171	19686.61
612.367	19645.65
612.562	19510.49
612.758	19645.65
612.953	19645.65
613.149	19985.62
613.344	19619.03
613.539	19924.18
613.735	20038.86
613.93	19946.7
614.126	19832.02
614.321	20159.69
614.517	20257.99
614.712	20053.2
614.907	19973.33
615.103	20305.1
615.298	19971.28
615.493	20030.67
615.688	19895.5
615.884	20497.61
616.079	19752.15
616.274	20147.4
616.47	20278.47
616.665	20008.14
616.86	19846.35
617.055	20116.69
617.25	20344.01
617.445	20237.52
617.641	19971.28
617.836	20038.86
618.031	19793.11
618.226	20053.2
618.421	19649.75
618.616	20102.35
618.811	19780.82
619.006	20184.27
619.201	19602.64
619.396	20002
619.591	19469.53
619.786	19803.35
619.981	19643.6
620.176	19848.4
620.371	19559.64
620.566	19563.73
620.761	19625.17
620.956	19467.48
621.151	19578.07
621.346	19182.81
621.541	19137.76
621.735	19485.91
621.93	18971.87
622.125	19266.78
622.32	18781.41
622.515	18916.58
622.709	18801.89
622.904	18994.4
623.099	18885.86
623.294	18734.31
623.488	18593
623.683	18668.77
623.878	18224.36
624.072	18312.42
624.267	18314.47
624.462	18283.75
624.656	18156.78
624.851	18169.07
625.046	17892.59
625.24	17999.09
625.435	17896.69
625.629	17812.72
625.824	17626.36
626.018	17700.08
626.213	17351.93
626.407	17632.5
626.602	17343.74
626.796	17415.41
626.991	17368.31
627.185	17345.78
627.38	17108.22
627.574	17071.36
627.768	17005.82
627.963	16735.49
628.157	16831.74
628.352	16880.89
628.546	16524.55
628.74	16780.54
628.935	16452.87
629.129	16338.18
629.323	16293.13
629.517	16387.33
629.712	16215.3
629.906	16090.38
630.1	16030.99
630.294	15854.86
630.489	15906.06
630.683	16014.6
630.877	15662.35
631.071	15721.74
631.265	15785.23
631.459	15535.38
631.653	15357.21
631.848	15549.71
632.042	15226.14
632.236	15389.97
632.43	14994.72
632.624	15334.68
632.818	14910.75
633.012	14796.06
633.206	14826.78
633.4	14867.74
633.594	14812.45
633.788	14761.25
633.982	14708
634.176	14589.22
634.369	14454.05
634.563	14417.19
634.757	14435.62
634.951	14484.77
635.145	14153
635.339	14153
635.533	14015.79
635.726	14224.68
635.92	13772.08
636.114	14066.99
636.308	13628.72
636.501	13796.65
636.695	13649.2
636.889	13354.29
637.083	13518.13
637.276	13157.69
637.47	13161.78
637.664	13425.97
637.857	13008.19
638.051	13122.87
638.244	13221.17
638.438	12858.68
638.632	12916.03
638.825	12680.51
639.019	12602.69
639.212	12322.12
639.406	12518.72
639.599	12363.08
639.793	12565.82
639.986	12176.71
640.18	12123.46
640.373	12279.11
640.567	12070.22
640.76	11988.3
640.954	11816.27
641.147	11771.21
641.34	11627.85
641.534	11828.56
641.727	11857.23
641.92	11672.91
642.114	11314.52
642.307	11576.66
642.5	11476.3
642.694	11148.63
642.887	11015.51
643.08	11255.12
643.273	11144.53
643.467	11050.33
643.66	10945.88
643.853	10841.43
644.046	10630.49
644.239	10644.83
644.432	10618.21
644.626	10497.38
644.819	10558.81
645.012	10292.58
645.205	10403.17
645.398	10478.94
645.591	10184.04
645.784	10143.08
645.977	10239.33
646.17	10149.22
646.363	9936.23
646.556	9735.53
646.749	9854.31
646.942	9835.88
647.135	9774.44
647.328	9874.79
647.521	9633.13
647.714	9459.06
647.907	9616.75
648.099	9497.97
648.292	9567.6
648.485	9393.52
648.678	9252.21
648.871	9127.28
649.064	9162.1
649.256	9231.73
649.449	9012.6
649.642	9112.95
649.835	9018.74
650.027	8953.21
650.22	8953.21
650.413	8703.36
650.605	8699.26
650.798	8764.79
650.991	8504.7
651.183	8611.2
651.376	8570.24
651.568	8629.63
651.761	8629.63
651.954	8478.08
652.146	8435.07
652.339	8265.09
652.531	8240.51
652.724	8177.03
652.916	8113.54
653.109	8277.38
653.301	8222.08
653.494	8015.24
653.686	7998.85
653.879	8111.49
654.071	7953.8
654.263	7898.5
654.456	7929.22
654.648	7841.16
654.84	7734.67
655.033	7597.45
655.225	7767.43
655.417	7665.04
655.61	7667.08
655.802	7632.27
655.994	7462.29
656.186	7611.79
656.379	7404.94
656.571	7333.26
656.763	7234.96
656.955	7267.73
657.148	7349.65
657.34	7353.74
657.532	7202.19
657.724	7101.84
657.916	7011.73
658.108	7042.45
658.3	6995.35
658.492	7024.02
658.684	6938.01
658.876	6851.99
659.068	6612.38
659.26	6831.51
659.452	6675.87
659.644	6778.26
659.836	6741.4
660.028	6675.87
660.22	6612.38
660.412	6663.58
660.604	6462.88
660.796	6456.73
660.988	6528.41
661.18	6452.64
661.372	6299.04
661.563	6466.97
661.755	6284.7
661.947	6227.36
662.139	6278.56
662.331	6219.17
662.522	6047.14
662.714	6266.27
662.906	5938.6
663.097	6077.86
663.289	6127.01
663.481	6028.71
663.673	6106.53
663.864	5866.92
664.056	5959.08
664.247	5963.17
664.439	5846.44
664.631	5795.24
664.822	5660.07
665.014	5719.46
665.205	5610.92
665.397	5578.15
665.588	5729.7
665.78	5576.11
665.971	5594.54
666.163	5701.03
666.354	5590.44
666.546	5545.39
666.737	5602.73
666.929	5594.54
667.12	5457.32
667.311	5531.05
667.503	5371.31
667.694	5590.44
667.885	5430.7
668.077	5318.06
668.268	5166.51
668.459	5236.14
668.651	5283.25
668.842	5262.77
669.033	5119.41
669.224	5072.31
669.416	5209.52
669.607	5094.83
669.798	5045.68
669.989	5135.79
670.18	5117.36
670.371	5014.96
670.563	4996.53
670.754	4996.53
670.945	4996.53
671.136	5004.72
671.327	4894.13
671.518	4883.89
671.709	4771.26
671.9	4736.44
672.091	4974
672.282	4718.01
672.473	4906.42
672.664	4824.5
672.855	4744.63
673.046	4879.8
673.237	4775.35
673.428	4572.6
673.619	4781.5
673.809	4677.05
674	4675
674.191	4701.62
674.382	4648.38
674.573	4545.98
674.764	4537.79
674.954	4734.39
675.145	4562.36
675.336	4564.41
675.527	4545.98
675.717	4588.99
675.908	4566.46
676.099	4511.16
676.289	4599.23
676.48	4488.64
676.671	4468.16
676.861	4402.62
677.052	4376
677.243	4316.61
677.433	4505.02
677.624	4447.68
677.814	4361.66
678.005	4365.76
678.195	4464.06
678.386	4351.42
678.576	4324.8
678.767	4464.06
678.957	4545.98
679.148	4482.49
679.338	4316.61
679.529	4572.6
679.719	4371.9
679.909	4507.07
680.1	4369.85
680.29	4550.07
680.481	4349.37
680.671	4564.41
680.861	4357.57
681.052	4404.67
681.242	4496.83
681.432	4380.09
681.622	4255.17
681.813	4390.33
682.003	4414.91
682.193	4240.83
682.383	4365.76
682.573	4283.84
682.764	4335.04
682.954	4431.29
683.144	4419
683.334	4326.85
683.524	4480.44
683.714	4341.18
683.904	4332.99
684.094	4283.84
684.284	4294.08
684.474	4326.85
684.664	4136.38
684.854	4445.63
685.044	4244.93
685.234	4369.85
685.424	4390.33
685.614	4177.34
685.804	4234.69
685.994	4314.56
686.184	4320.7
686.374	4212.16
686.564	4255.17
686.753	4361.66
686.943	4267.45
687.133	4283.84
687.323	4128.19
687.513	4220.35
687.702	4206.02
687.892	4201.92
688.082	4087.23
688.272	4185.54
688.461	4081.09
688.651	4242.88
688.841	4263.36
689.03	4165.06
689.22	4287.93
689.41	4136.38
689.599	4144.58
689.789	4158.91
689.979	4058.56
690.168	4023.75
690.358	4103.62
690.547	4001.22
690.737	4038.08
690.926	4021.7
691.116	4079.04
691.305	4152.77
691.495	3988.93
691.684	4052.42
691.874	3964.36
692.063	4021.7
692.252	3990.98
692.442	4148.67
692.631	3995.08
692.82	3831.24
693.01	3880.39
693.199	4021.7
693.388	3980.74
693.578	3925.44
693.767	3898.82
693.956	3876.29
694.146	3950.02
694.335	3974.6
694.524	4042.18
694.713	3911.11
694.902	3808.71
695.092	3915.2
695.281	3864.01
695.47	3927.49
695.659	3923.4
695.848	3894.72
696.037	3829.19
696.226	3939.78
696.415	3837.38
696.604	3904.96
696.793	3814.85
696.982	3845.57
697.171	3866.05
697.36	3843.53
697.549	3878.34
697.738	3704.26
697.927	3644.87
698.116	3870.15
698.305	3851.72
698.494	3859.91
698.683	3923.4
698.872	3722.7
699.061	3794.37
699.25	3718.6
699.438	3907.01
699.627	3763.65
699.816	3673.54
700.005	3683.78
700.193	3628.49
700.382	3771.85
700.571	3653.06
700.76	3759.56
700.948	3681.74
701.137	3786.18
701.326	3648.97
701.514	3601.87
701.703	3636.68
701.892	3526.09
702.08	3587.53
702.269	3718.6
702.457	3579.34
702.646	3556.81
702.834	3661.26
703.023	3673.54
703.212	3571.15
703.4	3657.16
703.589	3497.42
703.777	3644.87
703.965	3558.86
704.154	3503.56
704.342	3464.65
704.531	3526.09
704.719	3579.34
704.907	3519.95
705.096	3513.8
705.284	3470.8
705.472	3442.12
705.661	3372.49
705.849	3530.19
706.037	3521.99
706.226	3415.5
706.414	3386.83
706.602	3431.88
706.79	3511.75
706.979	3466.7
707.167	3317.2
707.355	3458.51
707.543	3395.02
707.731	3407.31
707.919	3321.29
708.107	3218.89
708.296	3319.25
708.484	3249.61
708.672	3376.59
708.86	3186.13
709.048	3208.66
709.236	3196.37
709.424	3286.48
709.612	3222.99
709.8	3438.03
709.988	3251.66
710.176	3227.09
710.364	3167.7
710.551	3241.42
710.739	3186.13
710.927	3222.99
711.115	3173.84
711.303	3147.22
711.491	3229.13
711.679	3112.4
711.866	3081.68
712.054	3079.63
712.242	3071.44
712.43	3186.13
712.617	3081.68
712.805	3063.25
712.993	3069.39
713.181	3050.96
713.368	2997.71
713.556	3151.31
713.744	2891.22
713.931	3132.88
714.119	3026.39
714.306	3014.1
714.494	3048.91
714.682	2930.13
714.869	3001.81
715.057	2893.27
715.244	2837.97
715.432	2977.23
715.619	2942.42
715.807	2964.95
715.994	2964.95
716.182	2893.27
716.369	2944.47
716.556	3073.49
716.744	2862.55
716.931	2903.51
717.119	2907.6
717.306	2936.28
717.493	2966.99
717.681	2901.46
717.868	2909.65
718.055	2903.51
718.242	2792.92
718.43	2919.89
718.617	2876.88
718.804	2831.83
718.991	2797.01
719.179	2829.78
719.366	2725.33
719.553	2817.49
719.74	2788.82
719.927	2717.14
720.114	2770.39
720.301	2727.38
720.488	2655.7
720.676	2702.81
720.863	2764.25
721.05	2788.82
721.237	2745.81
721.424	2672.09
721.611	2649.56
721.798	2616.79
721.985	2598.36
722.172	2588.12
722.358	2608.6
722.545	2604.5
722.732	2588.12
722.919	2530.78
723.106	2678.23
723.293	2606.55
723.48	2405.85
723.667	2522.59
723.853	2577.88
724.04	2678.23
724.227	2538.97
724.414	2536.92
724.6	2516.44
724.787	2436.57
724.974	2518.49
725.161	2414.04
725.347	2483.67
725.534	2616.79
725.72	2541.02
725.907	2590.17
726.094	2526.68
726.28	2414.04
726.467	2463.19
726.653	2483.67
726.84	2514.39
727.027	2498.01
727.213	2434.52
727.4	2420.19
727.586	2483.67
727.773	2317.79
727.959	2366.94
728.145	2530.78
728.332	2452.95
728.518	2393.56
728.705	2520.54
728.891	2426.33
729.077	2383.32
729.264	2278.88
729.45	2358.75
729.636	2524.63
729.823	2428.38
730.009	2358.75
730.195	2317.79
730.382	2334.17
730.568	2342.36
730.754	2289.12
730.94	2301.4
731.126	2289.12
731.313	2227.68
731.499	2201.05
731.685	2223.58
731.871	2180.57
732.057	2325.98
732.243	2244.06
732.429	2293.21
732.615	2219.49
732.801	2293.21
732.987	2178.53
733.173	2293.21
733.359	2211.29
733.545	2266.59
733.731	2182.62
733.917	2268.64
734.103	2252.25
734.289	2287.07
734.475	2196.96
734.661	2106.85
734.847	2162.14
735.033	2203.1
735.219	2151.9
735.404	2203.1
735.59	2076.13
735.776	2086.37
735.962	2205.15
736.148	2186.72
736.333	2055.65
736.519	2063.84
736.705	2199.01
736.89	2139.62
737.076	2080.22
737.262	2141.66
737.447	2045.41
737.633	2082.27
737.819	2145.76
738.004	2102.75
738.19	2010.59
738.375	2047.46
738.561	1981.92
738.747	2000.35
738.932	1928.67
739.118	1992.16
739.303	1977.83
739.489	1891.81
739.674	1951.2
739.859	1973.73
740.045	1990.11
740.23	2006.5
740.416	1924.58
740.601	1998.31
740.786	1918.43
740.972	1891.81
741.157	1955.3
741.342	1906.15
741.528	1928.67
741.713	1893.86
741.898	1922.53
742.084	1910.24
742.269	1867.24
742.454	1973.73
742.639	1875.43
742.824	1883.62
743.01	1906.15
743.195	1875.43
743.38	1809.89
743.565	1830.37
743.75	1932.77
743.935	1879.52
744.12	1916.39
744.305	1713.64
744.49	1654.25
744.675	1752.55
744.86	1672.68
745.045	1752.55
745.23	1768.93
745.415	1828.32
745.6	1777.12
745.785	1705.45
745.97	1721.83
746.155	1672.68
746.34	1666.53
746.525	1582.57
746.71	1766.89
746.895	1603.05
747.079	1656.29
747.264	1644.01
747.449	1658.34
747.634	1676.77
747.819	1619.43
748.003	1564.14
748.188	1605.1
748.373	1572.33
748.557	1508.84
748.742	1422.83
748.927	1621.48
749.111	1633.77
749.296	1480.17
749.481	1566.18
749.665	1500.65
749.85	1541.61
750.034	1447.4
750.219	1588.71
750.404	1557.99
750.588	1435.11
750.773	1476.07
750.957	1326.57
751.141	1373.68
751.326	1402.35
751.51	1359.34
751.695	1330.67
751.879	1355.24
752.064	1406.44
752.248	1363.44
752.432	1314.28
752.617	1338.86
752.801	1424.87
752.985	1336.81
753.17	1388.01
753.354	1273.32
753.538	1385.96
753.722	1242.61
753.907	1293.8
754.091	1269.23
754.275	1289.71
754.459	1209.84
754.643	1156.59
754.828	1299.95
755.012	1355.24
755.196	1033.71
755.38	1254.89
755.564	1306.09
755.748	1244.65
755.932	1228.27
756.116	1183.21
756.3	1158.64
756.484	1097.2
756.668	1193.45
756.852	1158.64
757.036	1123.82
757.22	1132.01
757.404	1134.06
757.588	1023.47
757.772	1058.29
757.956	1048.05
758.14	1121.77
758.323	1066.48
758.507	1056.24
758.691	1052.14
758.875	1129.97
759.059	1068.53
759.242	1031.66
759.426	1048.05
759.61	1023.47
759.794	1005.04
759.977	962.03
760.161	1121.77
760.345	1041.9
760.528	1056.24
760.712	1007.09
760.895	968.18
761.079	986.61
761.263	959.99
761.446	935.41
761.63	970.23
761.813	986.61
761.997	943.6
762.18	964.08
762.364	937.46
762.547	878.07
762.731	927.22
762.914	937.46
763.098	957.94
763.281	908.79
763.464	884.21
763.648	818.68
763.831	988.66
764.015	867.83
764.198	871.92
764.381	957.94
764.564	867.83
764.748	921.07
764.931	943.6
765.114	869.87
765.297	908.79
765.481	933.36
765.664	896.5
765.847	826.87
766.03	902.64
766.213	806.39
766.397	826.87
766.58	822.77
766.763	845.3
766.946	826.87
767.129	845.3
767.312	744.95
767.495	876.02
767.678	835.06
767.861	753.14
768.044	826.87
768.227	828.92
768.41	755.19
768.593	818.68
768.776	722.42
768.959	753.14
769.142	777.72
769.324	740.85
769.507	761.33
769.69	785.91
769.873	732.66
770.056	814.58
770.239	773.62
770.421	822.77
770.604	779.76
770.787	794.1
770.97	765.43
771.152	796.15
771.335	712.18
771.518	699.89
771.7	779.76
771.883	757.24
772.066	744.95
772.248	785.91
772.431	773.62
772.613	761.33
772.796	769.52
772.978	822.77
773.161	783.86
773.343	685.56
773.526	714.23
773.708	599.54
773.891	675.32
774.073	615.93
774.256	603.64
774.438	744.95
774.621	642.55
774.803	628.21
774.985	644.6
775.168	703.99
775.35	599.54
775.532	675.32
775.715	693.75
775.897	613.88
776.079	646.65
776.261	650.74
776.444	542.2
776.626	603.64
776.808	601.59
776.99	599.54
777.173	585.21
777.355	640.5
777.537	581.11
777.719	603.64
777.901	572.92
778.083	587.26
778.265	538.1
778.447	624.12
778.629	589.3
778.811	474.62
778.993	609.78
779.175	632.31
779.357	574.97
779.539	523.77
779.721	572.92
779.903	482.81
780.085	597.49
780.267	568.82
780.449	531.96
780.631	507.38
780.812	605.69
780.994	495.1
781.176	482.81
781.358	523.77
781.54	550.39
781.721	509.43
781.903	542.2
782.085	460.28
782.267	626.17
782.448	478.71
782.63	505.34
782.812	470.52
782.993	435.71
783.175	486.9
783.357	441.85
783.538	437.75
783.72	491
783.901	450.04
784.083	441.85
784.264	505.34
784.446	372.22
784.627	378.36
784.809	417.27
784.99	411.13
785.172	441.85
785.353	491
785.535	378.36
785.716	452.09
785.897	325.12
786.079	421.37
786.26	384.51
786.441	437.75
786.623	372.22
786.804	386.55
786.985	421.37
787.167	359.93
787.348	355.83
787.529	323.07
787.71	413.18
787.891	388.6
788.073	314.88
788.254	296.44
788.435	411.13
788.616	409.08
788.797	318.97
788.978	361.98
789.159	392.7
789.34	443.9
789.522	376.31
789.703	351.74
789.884	366.07
790.065	359.93
790.246	361.98
790.427	327.16
790.607	404.99
790.788	361.98
790.969	257.53
791.15	370.17
791.331	237.05
791.512	392.7
791.693	312.83
791.874	273.92
792.054	361.98
792.235	384.51
792.416	370.17
792.597	286.2
792.778	404.99
792.958	302.59
793.139	298.49
793.32	280.06
793.5	263.68
793.681	321.02
793.862	294.4
794.042	318.97
794.223	228.86
794.404	230.91
794.584	304.64
794.765	189.95
794.945	253.44
795.126	247.29
795.306	353.79
795.487	323.07
795.667	261.63
795.848	333.31
796.028	278.01
796.209	255.48
796.389	212.48
796.57	261.63
796.75	278.01
796.93	212.48
797.111	214.52
797.291	271.87
797.471	259.58
797.652	294.4
797.832	146.94
798.012	247.29
798.192	241.15
798.373	261.63
798.553	181.76
798.733	269.82
798.913	294.4
799.093	222.72
799.274	220.67
799.454	263.68
799.634	261.63
799.814	288.25
799.994	198.14
800.174	290.3
800.354	171.52
800.534	183.81
800.714	241.15
800.894	208.38
801.074	185.85
801.254	220.67
801.434	300.54
801.614	253.44
801.794	228.86
801.974	992.75
802.154	153.09
802.334	222.72
802.514	155.13
802.693	214.52
802.873	163.33
803.053	329.21
803.233	163.33
803.413	187.9
803.592	99.84
803.772	218.62
803.952	169.47
804.131	204.28
804.311	177.66
804.491	255.48
804.67	239.1
804.85	122.37
805.03	165.37
805.209	196.09
805.389	124.41
805.568	171.52
805.748	171.52
805.928	148.99
806.107	194.05
806.287	181.76
806.466	173.57
806.646	206.33
806.825	218.62
807.004	146.94
807.184	183.81
807.363	220.67
807.543	142.85
807.722	122.37
807.901	138.75
808.081	196.09
808.26	192
808.439	163.33
808.619	196.09
808.798	163.33
808.977	241.15
809.156	171.52
809.336	110.08
809.515	179.71
809.694	175.61
809.873	228.86
810.052	247.29
810.231	292.35
810.411	110.08
810.59	187.9
810.769	146.94
810.948	204.28
811.127	77.31
811.306	136.7
811.485	122.37
811.664	196.09
811.843	155.13
812.022	146.94
812.201	167.42
812.38	155.13
812.559	210.43
812.737	101.89
812.916	83.45
813.095	50.69
813.274	175.61
813.453	159.23
813.632	116.22
813.811	118.27
813.989	140.8
814.168	200.19
814.347	112.13
814.526	151.04
814.704	230.91
814.883	165.37
815.062	116.22
815.24	95.74
815.419	130.56
815.598	187.9
815.776	48.64
815.955	155.13
816.133	30.21
816.312	146.94
816.49	159.23
816.669	163.33
816.847	122.37
817.026	132.61
817.204	105.98
817.383	89.6
817.561	128.51
817.74	138.75
817.918	110.08
818.097	91.65
818.275	124.41
818.453	138.75
818.632	157.18
818.81	124.41
818.988	73.21
819.167	67.07
819.345	93.69
819.523	101.89
819.701	81.41
819.879	140.8
820.058	95.74
820.236	34.3
820.414	89.6
820.592	134.65
820.77	65.02
820.948	65.02
821.127	52.74
821.305	83.45
821.483	110.08
821.661	81.41
821.839	65.02
822.017	148.99
822.195	128.51
822.373	91.65
822.551	124.41
822.729	114.17
822.907	73.21
823.085	146.94
823.262	99.84
823.44	146.94
823.618	48.64
823.796	122.37
823.974	138.75
824.152	89.6
824.329	38.4
824.507	15.87
824.685	146.94
824.863	105.98
825.04	3.58
825.218	85.5
825.396	124.41
825.574	165.37
825.751	77.31
825.929	122.37
826.107	114.17
826.284	93.69
826.462	97.79
826.639	73.21
826.817	89.6
826.994	148.99
827.172	95.74
827.349	198.14
827.527	118.27
827.704	151.04
827.882	142.85
828.059	132.61
828.237	81.41
828.414	75.26
828.591	-12.8
828.769	171.52
828.946	38.4
829.124	48.64
829.301	93.69
829.478	71.17
829.655	56.83
829.833	32.26
830.01	91.65
830.187	81.41
830.364	77.31
830.542	126.46
830.719	73.21
830.896	103.93
831.073	85.5
831.25	99.84
831.427	108.03
831.604	81.41
831.782	73.21
831.959	83.45
832.136	3.58
832.313	89.6
832.49	1.54
832.667	24.06
832.844	73.21
833.021	146.94
833.198	24.06
833.374	73.21
833.551	114.17
833.728	54.78
833.905	73.21
834.082	-41.47
834.259	15.87
834.436	75.26
834.612	15.87
834.789	114.17
834.966	19.97
835.143	56.83
835.319	15.87
835.496	122.37
835.673	118.27
835.85	89.6
836.026	99.84
836.203	97.79
836.38	44.54
836.556	65.02
836.733	-0.51
836.909	134.65
837.086	34.3
837.262	50.69
837.439	-8.7
837.616	65.02
837.792	40.45
837.968	42.5
838.145	44.54
838.321	26.11
838.498	15.87
838.674	91.65
838.851	79.36
839.027	77.31
839.203	67.07
839.38	32.26
839.556	56.83
839.732	142.85
839.909	42.5
840.085	73.21
840.261	-31.23
840.437	105.98
840.614	77.31
840.79	116.22
840.966	89.6
841.142	138.75
841.318	38.4
841.494	99.84
841.671	50.69
841.847	42.5
842.023	-4.61
842.199	-0.51
842.375	67.07
842.551	15.87
842.727	38.4
842.903	89.6
843.079	24.06
843.255	101.89
843.431	7.68
843.607	58.88
843.783	-47.62
843.959	32.26
844.134	7.68
844.31	91.65
844.486	40.45
844.662	93.69
844.838	7.68
845.013	105.98
845.189	19.97
845.365	26.11
845.541	120.32
845.716	40.45
845.892	73.21
846.068	40.45
846.244	65.02
846.419	81.41
846.595	28.16
846.77	7.68
846.946	122.37
847.122	52.74
847.297	28.16
847.473	89.6
847.648	-20.99
847.824	-16.9
847.999	-25.09
848.175	28.16
848.35	114.17
848.526	89.6
848.701	110.08
848.876	17.92
849.052	103.93
849.227	58.88
849.403	48.64
849.578	15.87
849.753	28.16
849.929	83.45
850.104	52.74
850.279	46.59
850.454	91.65
850.63	83.45
850.805	44.54
850.98	40.45
851.155	58.88
851.33	73.21
851.505	34.3
851.681	32.26
851.856	-0.51
852.031	40.45
852.206	36.35
852.381	44.54
852.556	1.54
852.731	28.16
852.906	26.11
853.081	-33.28
853.256	42.5
853.431	24.06
853.606	32.26
853.781	24.06
853.956	1.54
854.131	24.06
854.305	-27.14
854.48	-12.8
854.655	52.74
854.83	65.02
855.005	-6.66
855.18	97.79
855.354	32.26
855.529	26.11
855.704	-6.66
855.879	42.5
856.053	-39.42
856.228	44.54
856.403	-76.29
856.577	3.58
856.752	-18.94
856.926	-8.7
857.101	3.58
857.276	3.58
857.45	15.87
857.625	36.35
857.799	36.35
857.974	-47.62
858.148	-33.28
858.323	7.68
858.497	26.11
858.672	32.26
858.846	22.02
859.02	60.93
859.195	-39.42
859.369	22.02
859.543	60.93
859.718	24.06
859.892	-29.18
860.066	50.69
860.241	32.26
860.415	13.82
860.589	1.54
860.763	32.26
860.938	-8.7
861.112	22.02
861.286	81.41
861.46	89.6
861.634	93.69
861.808	24.06
861.982	11.78
862.157	1.54
862.331	-41.47
862.505	-8.7
862.679	3.58
862.853	52.74
863.027	9.73
863.201	89.6
863.375	48.64
863.549	56.83
863.722	48.64
863.896	32.26
864.07	-33.28
864.244	44.54
864.418	-6.66
864.592	17.92
864.766	69.12
864.939	32.26
865.113	-18.94
865.287	89.6
865.461	7.68
865.634	-14.85
865.808	36.35
865.982	67.07
866.156	7.68
866.329	-12.8
866.503	26.11
866.676	69.12
866.85	54.78
867.024	13.82
867.197	-4.61
867.371	32.26
867.544	-53.76
867.718	-33.28
867.891	7.68
868.065	-8.7
868.238	-10.75
868.412	81.41
868.585	15.87
868.759	77.31
868.932	99.84
869.105	-31.23
869.279	-16.9
869.452	-23.04
869.625	-31.23
869.799	19.97
869.972	-80.38
870.145	38.4
870.319	95.74
870.492	50.69
870.665	52.74
870.838	-0.51
871.011	-16.9
871.185	-8.7
871.358	-4.61
871.531	28.16
871.704	36.35
871.877	9.73
872.05	-35.33
872.223	67.07
872.396	19.97
872.569	-33.28
872.742	3.58
872.915	65.02
873.088	19.97
873.261	-47.62
873.434	44.54
873.607	58.88
873.78	-39.42
873.953	28.16
874.126	-4.61
874.299	40.45
874.471	1.54
874.644	28.16
874.817	62.98
874.99	65.02
875.163	17.92
875.335	-31.23
875.508	-8.7
875.681	48.64
875.853	34.3
876.026	-53.76
876.199	-16.9
876.371	42.5
876.544	32.26
876.717	65.02
876.889	32.26
877.062	-14.85
877.234	-66.05
877.407	19.97
877.579	-12.8
877.752	19.97
877.924	-31.23
878.097	34.3
878.269	13.82
878.442	11.78
878.614	28.16
878.786	32.26
878.959	65.02
879.131	17.92
879.303	-80.38
879.476	54.78
879.648	120.32
879.82	-55.81
879.993	-47.62
880.165	-2.56
880.337	-4.61
880.509	-20.99
880.681	-12.8
880.854	-37.38
881.026	40.45
881.198	42.5
881.37	-39.42
881.542	-12.8
881.714	26.11
881.886	-4.61
882.058	1.54
882.23	32.26
882.402	5.63
882.574	-2.56
882.746	30.21
882.918	56.83
883.09	19.97
883.262	32.26
883.434	-74.24
883.606	-12.8
883.778	19.97
883.95	17.92
884.122	-23.04
884.293	24.06
884.465	69.12
884.637	7.68
884.809	26.11
884.98	40.45
885.152	95.74
885.324	-20.99
885.496	56.83
885.667	28.16
885.839	-68.09
886.011	42.5
886.182	67.07
886.354	48.64
886.525	17.92
886.697	-29.18
886.869	-39.42
887.04	118.27
887.212	-20.99
887.383	89.6
887.555	-6.66
887.726	-4.61
887.897	-49.66
888.069	26.11
888.24	124.41
888.412	5.63
888.583	7.68
888.754	-20.99
888.926	-14.85
889.097	-25.09
889.268	-37.38
889.44	28.16
889.611	-23.04
889.782	32.26
889.953	-70.14
890.125	44.54
890.296	-33.28
890.467	-29.18
890.638	-29.18
890.809	-6.66
890.98	-0.51
891.151	15.87
891.323	73.21
891.494	-25.09
891.665	-57.86
891.836	24.06
892.007	11.78
892.178	7.68
892.349	-0.51
892.52	-53.76
892.691	56.83
892.862	38.4
893.032	-31.23
893.203	15.87
893.374	-16.9
893.545	9.73
893.716	-72.19
893.887	-25.09
894.057	7.68
894.228	-20.99
894.399	56.83
894.57	46.59
894.74	65.02
894.911	44.54
895.082	-84.48
895.253	-39.42
895.423	52.74
895.594	50.69
895.764	56.83
895.935	-70.14
896.106	87.55
896.276	52.74
896.447	26.11
896.617	-47.62
896.788	-43.52
896.958	15.87
897.129	-6.66
897.299	40.45
897.47	1.54
897.64	56.83
897.81	30.21
897.981	58.88
898.151	-102.91
898.322	32.26
898.492	3.58
898.662	-49.66
898.832	26.11
899.003	116.22
899.173	81.41
899.343	13.82
899.513	-66.05
