Data from USB4F104151__276__14-34-42-051.txt Node

Date: Thu Mar 13 14:34:42 EDT 2025
User: louis
Spectrometer: USB4F10415
Trigger mode: 4
Integration Time (sec): 2.500000E-2
Scans to average: 1
Electric dark correction enabled: true
Nonlinearity correction enabled: false
Boxcar width: 0
XAxis mode: Wavelengths
Number of Pixels in Spectrum: 3648
>>>>>Begin Spectral Data<<<<<
178.204	-179.2
178.424	-179.2
178.644	-179.2
178.864	-146.43
179.084	-177.15
179.304	25.6
179.524	-11.26
179.744	-33.79
179.964	37.89
180.184	-80.89
180.404	58.37
180.624	46.08
180.844	-5.12
181.064	-23.55
181.283	21.5
181.503	-19.46
181.723	-15.36
181.943	50.18
182.163	31.74
182.383	21.5
182.602	41.98
182.822	50.18
183.042	33.79
183.262	-64.51
183.482	33.79
183.701	-5.12
183.921	9.22
184.141	54.27
184.361	74.75
184.58	35.84
184.8	111.61
185.02	-5.12
185.239	33.79
185.459	19.46
185.679	37.89
185.898	-31.74
186.118	91.13
186.338	37.89
186.557	58.37
186.777	-48.13
186.997	84.99
187.216	46.08
187.436	29.7
187.655	-9.22
187.875	37.89
188.095	5.12
188.314	117.76
188.534	99.33
188.753	66.56
188.973	-13.31
189.192	60.42
189.412	-27.65
189.631	62.46
189.851	1.02
190.07	91.13
190.29	3.07
190.509	11.26
190.729	21.5
190.948	60.42
191.168	214.01
191.387	78.85
191.607	11.26
191.826	84.99
192.045	-19.46
192.265	-29.7
192.484	-21.5
192.704	-60.42
192.923	19.46
193.142	148.48
193.362	58.37
193.581	60.42
193.8	46.08
194.02	25.6
194.239	19.46
194.458	21.5
194.678	132.09
194.897	54.27
195.116	-5.12
195.335	-11.26
195.555	-21.5
195.774	13.31
195.993	93.18
196.212	37.89
196.432	-15.36
196.651	87.04
196.87	95.23
197.089	148.48
197.308	60.42
197.528	82.94
197.747	-39.94
197.966	66.56
198.185	103.42
198.404	41.98
198.623	44.03
198.842	58.37
199.062	64.51
199.281	101.37
199.5	68.61
199.719	-3.07
199.938	58.37
200.157	33.79
200.376	48.13
200.595	95.23
200.814	25.6
201.033	-1.02
201.252	1.02
201.471	37.89
201.69	74.75
201.909	46.08
202.128	74.75
202.347	91.13
202.566	50.18
202.785	33.79
203.004	-13.31
203.223	91.13
203.442	50.18
203.661	1.02
203.879	31.74
204.098	17.41
204.317	11.26
204.536	60.42
204.755	33.79
204.974	41.98
205.193	76.8
205.411	62.46
205.63	107.52
205.849	46.08
206.068	11.26
206.287	13.31
206.505	111.61
206.724	9.22
206.943	-11.26
207.162	58.37
207.381	74.75
207.599	29.7
207.818	105.47
208.037	-1.02
208.255	41.98
208.474	-19.46
208.693	128
208.911	82.94
209.13	-11.26
209.349	82.94
209.567	54.27
209.786	46.08
210.005	54.27
210.223	46.08
210.442	-23.55
210.661	25.6
210.879	21.5
211.098	74.75
211.316	27.65
211.535	-7.17
211.753	68.61
211.972	58.37
212.191	-5.12
212.409	33.79
212.628	82.94
212.846	35.84
213.065	31.74
213.283	68.61
213.502	-13.31
213.72	-17.41
213.938	9.22
214.157	33.79
214.375	58.37
214.594	11.26
214.812	64.51
215.031	48.13
215.249	87.04
215.467	35.84
215.686	-35.84
215.904	101.37
216.122	66.56
216.341	27.65
216.559	9.22
216.778	91.13
216.996	29.7
217.214	62.46
217.432	17.41
217.651	-7.17
217.869	33.79
218.087	64.51
218.306	-15.36
218.524	35.84
218.742	41.98
218.96	-17.41
219.179	58.37
219.397	68.61
219.615	99.33
219.833	1.02
220.051	-5.12
220.27	84.99
220.488	91.13
220.706	-13.31
220.924	5.12
221.142	54.27
221.36	80.89
221.578	101.37
221.796	93.18
222.015	50.18
222.233	-3.07
222.451	74.75
222.669	41.98
222.887	5.12
223.105	3.07
223.323	19.46
223.541	41.98
223.759	33.79
223.977	19.46
224.195	144.38
224.413	62.46
224.631	54.27
224.849	9.22
225.067	156.67
225.285	3.07
225.503	9.22
225.721	84.99
225.939	-13.31
226.157	58.37
226.375	109.57
226.592	-13.31
226.81	9.22
227.028	66.56
227.246	99.33
227.464	44.03
227.682	173.05
227.9	66.56
228.117	74.75
228.335	5.12
228.553	35.84
228.771	9.22
228.989	44.03
229.206	19.46
229.424	17.41
229.642	60.42
229.86	-13.31
230.077	41.98
230.295	1.02
230.513	-25.6
230.731	50.18
230.948	70.65
231.166	23.55
231.384	76.8
231.601	62.46
231.819	56.32
232.037	25.6
232.254	25.6
232.472	46.08
232.689	-3.07
232.907	89.09
233.125	-37.89
233.342	-39.94
233.56	9.22
233.777	33.79
233.995	50.18
234.213	99.33
234.43	74.75
234.648	117.76
234.865	-7.17
235.083	29.7
235.3	-56.32
235.518	103.42
235.735	54.27
235.953	91.13
236.17	29.7
236.388	-1.02
236.605	128
236.822	128
237.04	19.46
237.257	-7.17
237.475	-31.74
237.692	31.74
237.909	60.42
238.127	52.22
238.344	78.85
238.562	117.76
238.779	46.08
238.996	-31.74
239.214	29.7
239.431	89.09
239.648	-1.02
239.865	39.94
240.083	48.13
240.3	-11.26
240.517	39.94
240.735	44.03
240.952	41.98
241.169	25.6
241.386	-7.17
241.603	74.75
241.821	54.27
242.038	183.29
242.255	105.47
242.472	11.26
242.689	66.56
242.907	35.84
243.124	89.09
243.341	-1.02
243.558	17.41
243.775	25.6
243.992	-13.31
244.209	-31.74
244.426	158.72
244.643	68.61
244.86	27.65
245.078	-15.36
245.295	84.99
245.512	68.61
245.729	41.98
245.946	-21.5
246.163	62.46
246.38	17.41
246.597	25.6
246.814	9.22
247.031	84.99
247.248	109.57
247.464	54.27
247.681	-23.55
247.898	9.22
248.115	41.98
248.332	101.37
248.549	70.65
248.766	168.96
248.983	68.61
249.2	115.71
249.417	60.42
249.633	-54.27
249.85	52.22
250.067	25.6
250.284	35.84
250.501	-19.46
250.717	48.13
250.934	-91.13
251.151	50.18
251.368	52.22
251.585	76.8
251.801	23.55
252.018	29.7
252.235	23.55
252.451	5.12
252.668	-19.46
252.885	60.42
253.102	33.79
253.318	-1.02
253.535	17.41
253.752	-58.37
253.968	31.74
254.185	41.98
254.401	78.85
254.618	119.81
254.835	3.07
255.051	134.14
255.268	99.33
255.484	82.94
255.701	1.02
255.917	29.7
256.134	62.46
256.351	-15.36
256.567	9.22
256.784	35.84
257	33.79
257.217	123.9
257.433	15.36
257.65	41.98
257.866	23.55
258.082	29.7
258.299	9.22
258.515	33.79
258.732	-31.74
258.948	52.22
259.165	111.61
259.381	19.46
259.597	48.13
259.814	33.79
260.03	33.79
260.246	35.84
260.463	64.51
260.679	105.47
260.895	9.22
261.112	93.18
261.328	35.84
261.544	70.65
261.761	142.33
261.977	17.41
262.193	-39.94
262.409	25.6
262.626	17.41
262.842	15.36
263.058	54.27
263.274	74.75
263.49	-23.55
263.707	9.22
263.923	25.6
264.139	-7.17
264.355	29.7
264.571	74.75
264.787	11.26
265.004	130.05
265.22	41.98
265.436	54.27
265.652	17.41
265.868	87.04
266.084	64.51
266.3	17.41
266.516	-7.17
266.732	25.6
266.948	33.79
267.164	5.12
267.38	58.37
267.596	7.17
267.812	84.99
268.028	62.46
268.244	74.75
268.46	70.65
268.676	50.18
268.892	52.22
269.108	13.31
269.324	21.5
269.54	-5.12
269.756	58.37
269.972	15.36
270.188	25.6
270.403	54.27
270.619	27.65
270.835	44.03
271.051	66.56
271.267	44.03
271.483	68.61
271.698	84.99
271.914	50.18
272.13	74.75
272.346	25.6
272.562	78.85
272.777	76.8
272.993	27.65
273.209	33.79
273.425	115.71
273.64	11.26
273.856	68.61
274.072	19.46
274.287	25.6
274.503	35.84
274.719	58.37
274.934	76.8
275.15	-19.46
275.366	21.5
275.581	-9.22
275.797	-11.26
276.012	-1.02
276.228	91.13
276.444	3.07
276.659	82.94
276.875	91.13
277.09	52.22
277.306	64.51
277.521	3.07
277.737	19.46
277.952	41.98
278.168	27.65
278.383	74.75
278.599	-15.36
278.814	74.75
279.03	-35.84
279.245	60.42
279.461	99.33
279.676	103.42
279.892	50.18
280.107	70.65
280.322	-76.8
280.538	54.27
280.753	25.6
280.969	54.27
281.184	27.65
281.399	-5.12
281.615	68.61
281.83	-31.74
282.045	17.41
282.26	3.07
282.476	41.98
282.691	123.9
282.906	19.46
283.122	82.94
283.337	31.74
283.552	128
283.767	72.7
283.983	84.99
284.198	-11.26
284.413	99.33
284.628	-35.84
284.843	19.46
285.058	91.13
285.274	-13.31
285.489	-15.36
285.704	33.79
285.919	103.42
286.134	-35.84
286.349	11.26
286.564	25.6
286.779	78.85
286.995	66.56
287.21	-7.17
287.425	99.33
287.64	13.31
287.855	25.6
288.07	-39.94
288.285	107.52
288.5	74.75
288.715	70.65
288.93	87.04
289.145	27.65
289.36	52.22
289.575	-82.94
289.79	56.32
290.004	37.89
290.219	3.07
290.434	58.37
290.649	7.17
290.864	50.18
291.079	29.7
291.294	91.13
291.509	56.32
291.724	39.94
291.938	44.03
292.153	50.18
292.368	-23.55
292.583	93.18
292.798	37.89
293.012	66.56
293.227	66.56
293.442	9.22
293.657	72.7
293.871	74.75
294.086	115.71
294.301	50.18
294.516	123.9
294.73	60.42
294.945	-23.55
295.16	-1.02
295.374	117.76
295.589	64.51
295.804	5.12
296.018	95.23
296.233	72.7
296.447	50.18
296.662	25.6
296.877	74.75
297.091	68.61
297.306	54.27
297.52	50.18
297.735	46.08
297.949	-19.46
298.164	37.89
298.378	70.65
298.593	21.5
298.807	58.37
299.022	109.57
299.236	25.6
299.451	13.31
299.665	13.31
299.88	60.42
300.094	78.85
300.309	76.8
300.523	68.61
300.737	25.6
300.952	68.61
301.166	74.75
301.381	44.03
301.595	17.41
301.809	25.6
302.024	125.95
302.238	50.18
302.452	128
302.667	64.51
302.881	91.13
303.095	70.65
303.309	37.89
303.524	17.41
303.738	82.94
303.952	-74.75
304.166	21.5
304.381	-19.46
304.595	48.13
304.809	54.27
305.023	33.79
305.237	11.26
305.452	-23.55
305.666	19.46
305.88	62.46
306.094	56.32
306.308	66.56
306.522	74.75
306.736	74.75
306.95	62.46
307.164	21.5
307.379	76.8
307.593	128
307.807	52.22
308.021	117.76
308.235	68.61
308.449	80.89
308.663	37.89
308.877	105.47
309.091	58.37
309.305	13.31
309.519	-31.74
309.733	107.52
309.947	3.07
310.161	74.75
310.374	46.08
310.588	82.94
310.802	-17.41
311.016	99.33
311.23	33.79
311.444	-3.07
311.658	119.81
311.872	37.89
312.085	177.15
312.299	87.04
312.513	87.04
312.727	25.6
312.941	33.79
313.154	78.85
313.368	5.12
313.582	-23.55
313.796	1.02
314.009	111.61
314.223	56.32
314.437	29.7
314.651	87.04
314.864	-21.5
315.078	56.32
315.292	35.84
315.505	25.6
315.719	31.74
315.933	-13.31
316.146	58.37
316.36	7.17
316.573	46.08
316.787	13.31
317.001	48.13
317.214	1.02
317.428	1.02
317.641	-3.07
317.855	1.02
318.068	-37.89
318.282	128
318.495	140.29
318.709	58.37
318.922	99.33
319.136	183.29
319.349	37.89
319.563	-56.32
319.776	115.71
319.99	3.07
320.203	156.67
320.417	58.37
320.63	35.84
320.843	115.71
321.057	17.41
321.27	95.23
321.483	15.36
321.697	107.52
321.91	-7.17
322.124	76.8
322.337	54.27
322.55	-7.17
322.763	25.6
322.977	25.6
323.19	37.89
323.403	1.02
323.617	89.09
323.83	74.75
324.043	33.79
324.256	50.18
324.469	136.19
324.683	128
324.896	107.52
325.109	99.33
325.322	50.18
325.535	17.41
325.748	33.79
325.962	66.56
326.175	15.36
326.388	9.22
326.601	93.18
326.814	148.48
327.027	50.18
327.24	21.5
327.453	48.13
327.666	107.52
327.879	-19.46
328.092	140.29
328.305	25.6
328.518	41.98
328.731	52.22
328.944	91.13
329.157	-15.36
329.37	11.26
329.583	99.33
329.796	82.94
330.009	3.07
330.222	50.18
330.435	35.84
330.648	70.65
330.861	74.75
331.073	62.46
331.286	119.81
331.499	54.27
331.712	5.12
331.925	27.65
332.138	58.37
332.35	87.04
332.563	-39.94
332.776	76.8
332.989	3.07
333.202	-3.07
333.414	29.7
333.627	27.65
333.84	17.41
334.053	62.46
334.265	107.52
334.478	19.46
334.691	103.42
334.903	62.46
335.116	37.89
335.329	15.36
335.541	50.18
335.754	78.85
335.966	48.13
336.179	39.94
336.392	35.84
336.604	99.33
336.817	44.03
337.029	142.33
337.242	5.12
337.454	142.33
337.667	3.07
337.88	82.94
338.092	74.75
338.305	76.8
338.517	74.75
338.729	76.8
338.942	66.56
339.154	91.13
339.367	33.79
339.579	-46.08
339.792	97.28
340.004	13.31
340.217	33.79
340.429	3.07
340.641	9.22
340.854	25.6
341.066	58.37
341.278	150.53
341.491	140.29
341.703	44.03
341.915	-29.7
342.128	52.22
342.34	35.84
342.552	-3.07
342.764	52.22
342.977	-23.55
343.189	50.18
343.401	37.89
343.613	-72.7
343.826	82.94
344.038	62.46
344.25	117.76
344.462	-5.12
344.674	58.37
344.886	82.94
345.099	87.04
345.311	-19.46
345.523	52.22
345.735	35.84
345.947	50.18
346.159	87.04
346.371	25.6
346.583	44.03
346.795	58.37
347.007	33.79
347.219	123.9
347.431	35.84
347.643	103.42
347.855	33.79
348.067	76.8
348.279	64.51
348.491	58.37
348.703	185.34
348.915	-13.31
349.127	-33.79
349.339	123.9
349.551	50.18
349.763	115.71
349.975	33.79
350.187	140.29
350.399	132.09
350.61	87.04
350.822	-11.26
351.034	115.71
351.246	52.22
351.458	44.03
351.669	66.56
351.881	107.52
352.093	123.9
352.305	50.18
352.517	17.41
352.728	66.56
352.94	78.85
353.152	27.65
353.363	64.51
353.575	13.31
353.787	82.94
353.999	70.65
354.21	164.86
354.422	39.94
354.633	35.84
354.845	50.18
355.057	54.27
355.268	82.94
355.48	107.52
355.692	9.22
355.903	44.03
356.115	64.51
356.326	-48.13
356.538	60.42
356.749	111.61
356.961	25.6
357.172	37.89
357.384	17.41
357.595	115.71
357.807	58.37
358.018	74.75
358.23	21.5
358.441	82.94
358.653	82.94
358.864	107.52
359.075	-68.61
359.287	-5.12
359.498	37.89
359.709	68.61
359.921	66.56
360.132	-7.17
360.344	84.99
360.555	70.65
360.766	66.56
360.977	76.8
361.189	39.94
361.4	95.23
361.611	5.12
361.823	175.1
362.034	58.37
362.245	23.55
362.456	56.32
362.667	97.28
362.879	62.46
363.09	41.98
363.301	70.65
363.512	19.46
363.723	1.02
363.935	25.6
364.146	130.05
364.357	56.32
364.568	11.26
364.779	-23.55
364.99	99.33
365.201	7.17
365.412	74.75
365.623	25.6
365.834	66.56
366.045	52.22
366.256	87.04
366.467	58.37
366.678	25.6
366.889	119.81
367.1	35.84
367.311	115.71
367.522	62.46
367.733	50.18
367.944	39.94
368.155	39.94
368.366	119.81
368.577	37.89
368.788	70.65
368.999	58.37
369.209	93.18
369.42	60.42
369.631	50.18
369.842	58.37
370.053	72.7
370.264	27.65
370.474	74.75
370.685	82.94
370.896	41.98
371.107	93.18
371.317	105.47
371.528	39.94
371.739	132.09
371.95	82.94
372.16	82.94
372.371	37.89
372.582	84.99
372.792	35.84
373.003	13.31
373.214	-3.07
373.424	41.98
373.635	56.32
373.846	91.13
374.056	119.81
374.267	60.42
374.477	111.61
374.688	-23.55
374.898	78.85
375.109	25.6
375.319	70.65
375.53	107.52
375.74	17.41
375.951	41.98
376.161	70.65
376.372	107.52
376.582	17.41
376.793	93.18
377.003	25.6
377.214	31.74
377.424	84.99
377.635	35.84
377.845	27.65
378.055	109.57
378.266	27.65
378.476	-13.31
378.686	50.18
378.897	62.46
379.107	25.6
379.317	123.9
379.528	13.31
379.738	148.48
379.948	7.17
380.158	50.18
380.369	29.7
380.579	125.95
380.789	50.18
380.999	189.44
381.21	97.28
381.42	158.72
381.63	33.79
381.84	111.61
382.05	115.71
382.261	80.89
382.471	62.46
382.681	56.32
382.891	91.13
383.101	58.37
383.311	56.32
383.521	60.42
383.731	52.22
383.941	52.22
384.151	48.13
384.361	-15.36
384.571	62.46
384.781	27.65
384.991	113.66
385.201	84.99
385.411	107.52
385.621	39.94
385.831	72.7
386.041	64.51
386.251	-5.12
386.461	41.98
386.671	25.6
386.881	74.75
387.091	132.09
387.301	132.09
387.511	123.9
387.72	44.03
387.93	33.79
388.14	3.07
388.35	93.18
388.56	103.42
388.769	80.89
388.979	66.56
389.189	31.74
389.399	33.79
389.609	66.56
389.818	99.33
390.028	58.37
390.238	76.8
390.447	44.03
390.657	56.32
390.867	54.27
391.076	66.56
391.286	101.37
391.496	9.22
391.705	3.07
391.915	17.41
392.125	148.48
392.334	3.07
392.544	-7.17
392.753	37.89
392.963	123.9
393.172	76.8
393.382	1.02
393.591	111.61
393.801	101.37
394.01	76.8
394.22	148.48
394.429	134.14
394.639	164.86
394.848	54.27
395.058	58.37
395.267	132.09
395.477	154.62
395.686	66.56
395.895	76.8
396.105	138.24
396.314	37.89
396.524	82.94
396.733	58.37
396.942	99.33
397.152	78.85
397.361	121.85
397.57	125.95
397.78	82.94
397.989	107.52
398.198	158.72
398.407	138.24
398.617	99.33
398.826	179.2
399.035	156.67
399.244	244.73
399.453	95.23
399.663	70.65
399.872	119.81
400.081	7.17
400.29	160.77
400.499	95.23
400.708	185.34
400.917	132.09
401.127	58.37
401.336	150.53
401.545	150.53
401.754	199.68
401.963	128
402.172	19.46
402.381	70.65
402.59	74.75
402.799	148.48
403.008	177.15
403.217	144.38
403.426	166.91
403.635	115.71
403.844	91.13
404.053	99.33
404.262	72.7
404.471	234.49
404.68	226.3
404.888	207.87
405.097	205.82
405.306	238.59
405.515	181.25
405.724	218.11
405.933	175.1
406.142	242.68
406.35	259.07
406.559	236.54
406.768	168.96
406.977	312.32
407.185	320.51
407.394	134.14
407.603	199.68
407.812	300.03
408.02	267.26
408.229	211.96
408.438	267.26
408.646	281.6
408.855	216.06
409.064	248.83
409.272	312.32
409.481	338.94
409.69	248.83
409.898	232.44
410.107	336.89
410.315	357.37
410.524	318.46
410.733	414.71
410.941	312.32
411.15	355.32
411.358	369.66
411.567	445.43
411.775	347.13
411.984	394.23
412.192	517.11
412.401	439.29
412.609	539.64
412.818	513.02
413.026	443.39
413.234	568.31
413.443	527.35
413.651	572.41
413.86	558.07
414.068	705.53
414.276	607.22
414.485	658.42
414.693	713.72
414.901	754.68
415.11	707.57
415.318	709.62
415.526	746.48
415.734	828.4
415.943	848.88
416.151	838.64
416.359	742.39
416.567	979.95
416.776	787.44
416.984	877.55
417.192	1018.86
417.4	984.05
417.608	943.09
417.817	1010.67
418.025	1106.93
418.233	1172.46
418.441	1111.02
418.649	1264.62
418.857	1338.35
419.065	1328.11
419.273	1379.31
419.481	1379.31
419.689	1475.56
419.897	1436.65
420.105	1541.1
420.313	1606.63
420.521	1598.44
420.729	1704.93
420.937	1623.02
421.145	1766.37
421.353	1872.87
421.561	1991.65
421.769	2083.81
421.977	2048.99
422.185	2022.37
422.393	2206.69
422.601	2257.89
422.809	2384.86
423.017	2413.53
423.224	2343.9
423.432	2597.85
423.64	2579.42
423.848	2857.94
424.056	2720.73
424.263	2755.54
424.471	2923.48
424.679	2978.77
424.887	2991.06
425.094	3230.67
425.302	3122.13
425.51	3290.06
425.718	3367.88
425.925	3476.43
426.133	3529.67
426.341	3861.45
426.548	3824.58
426.756	3912.64
426.964	3974.08
427.171	4211.65
427.379	4316.09
427.586	4322.24
427.794	4502.46
428.001	4717.5
428.209	4842.42
428.417	4846.52
428.624	5170.1
428.832	5223.34
429.039	5104.56
429.247	5024.69
429.454	5727.14
429.662	5880.74
429.869	5823.4
430.076	6079.4
430.284	5770.15
430.491	6144.93
430.699	6423.45
430.906	6519.71
431.114	6474.65
431.321	6740.89
431.528	6802.33
431.736	7353.23
431.943	7603.08
432.15	7472.01
432.358	7426.96
432.565	7910.28
432.772	7824.26
432.979	8180.61
433.187	8493.95
433.394	8426.37
433.601	8934.26
433.808	9196.4
434.016	9032.57
434.223	9210.74
434.43	9945.96
434.637	9675.63
434.844	10183.52
435.052	10488.67
435.259	10443.62
435.466	10466.14
435.673	10447.71
435.88	11101.01
436.087	11739.98
436.294	11510.61
436.501	11264.85
436.708	11367.25
436.915	11961.16
437.122	12544.83
437.329	12376.9
437.537	12942.14
437.743	13151.03
437.95	12921.66
438.157	13714.22
438.364	13849.39
438.571	14074.67
438.778	14117.67
438.985	15573.78
439.192	14773.02
439.399	15233.82
439.606	14867.23
439.813	15932.17
440.02	16528.13
440.227	16333.57
440.433	16534.28
440.64	17031.93
440.847	16364.29
441.054	17017.6
441.261	18201.32
441.467	17851.12
441.674	18322.15
441.881	18918.11
442.088	18916.06
442.294	18844.38
442.501	19294.94
442.708	19776.21
442.914	20343.5
443.121	21119.68
443.328	20429.51
443.534	21971.63
443.741	21779.12
443.948	20972.22
444.154	22446.76
444.361	22375.08
444.568	22534.82
444.774	22588.07
444.981	23118.5
445.187	23655.06
445.394	24867.46
445.6	24523.4
445.807	26489.45
446.013	25412.22
446.22	25825.91
446.426	27040.36
446.633	27177.57
446.839	28000.85
447.046	27056.74
447.252	28250.7
447.459	28547.66
447.665	28269.14
447.871	29751.87
448.078	30646.83
448.284	29227.59
448.491	30143.03
448.697	31269.41
448.903	31789.59
449.11	31683.1
449.316	31349.28
449.522	32053.78
449.728	33045
449.935	33098.25
450.141	33315.33
450.347	33724.93
450.553	32422.42
450.76	33112.58
450.966	34232.82
451.172	33860.09
451.378	35004.91
451.584	33923.58
451.791	34785.77
451.997	34628.08
452.203	35486.18
452.409	35236.33
452.615	35082.73
452.821	33880.57
453.027	33360.39
453.233	35434.98
453.44	33532.42
453.646	34091.51
453.852	34019.83
454.058	34589.17
454.264	33534.46
454.47	34286.07
454.676	33417.73
454.882	34687.47
455.088	31744.54
455.294	32692.75
455.5	32426.51
455.705	32956.94
455.911	31904.28
456.117	31107.62
456.323	30802.47
456.529	29375.04
456.735	30433.84
456.941	29473.34
457.147	29008.45
457.352	28367.44
457.558	27574.88
457.764	27996.76
457.97	27576.92
458.176	26636.91
458.381	26710.63
458.587	25684.6
458.793	25006.72
458.999	23952.02
459.204	25903.73
459.41	25143.94
459.616	23224.99
459.821	23409.31
460.027	23300.76
460.233	22874.79
460.438	21619.38
460.644	21734.07
460.85	20777.67
461.055	20269.77
461.261	20499.14
461.466	19057.37
461.672	18330.34
461.878	19796.69
462.083	18379.5
462.289	17799.92
462.494	17795.82
462.7	17023.74
462.905	16446.21
463.111	17261.3
463.316	17027.84
463.522	16759.55
463.727	16788.22
463.932	16780.03
464.138	16411.4
464.343	16608
464.549	15987.47
464.754	16634.63
464.959	16225.03
465.165	16042.76
465.37	15450.9
465.575	15270.68
465.781	15831.82
465.986	15776.53
466.191	15299.35
466.397	15026.97
466.602	13982.51
466.807	14670.62
467.012	14682.91
467.218	14510.88
467.423	14361.38
467.628	14742.3
467.833	15223.58
468.038	14682.91
468.244	14205.74
468.449	14510.88
468.654	14107.43
468.859	13927.21
469.064	13933.36
469.269	13493.04
469.474	13632.3
469.679	13681.46
469.885	13304.63
470.09	13620.02
470.295	13357.88
470.5	12911.42
470.705	13323.06
470.91	12823.36
471.115	12825.4
471.32	12979
471.525	12892.99
471.73	12745.53
471.935	12430.15
472.139	12014.41
472.344	12059.46
472.549	11920.2
472.754	11985.74
472.959	11920.2
473.164	11461.46
473.369	11322.2
473.574	11852.62
473.778	11682.64
473.983	11375.44
474.188	11645.77
474.393	10965.85
474.598	11180.89
474.802	10949.46
475.007	10816.35
475.212	10738.52
475.417	10273.64
475.621	10330.98
475.826	10460
476.031	10279.78
476.235	9892.71
476.44	10142.57
476.645	10128.23
476.849	10079.08
477.054	9827.18
477.259	9661.29
477.463	9630.57
477.668	9407.34
477.872	9675.63
478.077	9405.3
478.282	9315.19
478.486	9161.59
478.691	9018.23
478.895	9161.59
479.1	9139.06
479.304	9012.09
479.509	8735.61
479.713	8911.74
479.918	8690.56
480.122	8706.94
480.326	8799.1
480.531	8815.48
480.735	8555.39
480.94	8446.85
481.144	8858.49
481.348	8452.99
481.553	8371.07
481.757	8287.11
481.961	8438.66
482.166	8424.32
482.37	8354.69
482.574	8399.74
482.778	8430.46
482.983	8455.04
483.187	8496
483.391	8432.51
483.595	8125.32
483.8	8315.78
484.004	8373.12
484.208	8528.77
484.412	8244.1
484.616	8371.07
484.821	8323.97
485.025	8225.67
485.229	8297.35
485.433	7897.99
485.637	8192.9
485.841	8291.2
486.045	8194.95
486.249	8129.41
486.453	7988.1
486.657	8176.52
486.861	8285.06
487.065	8008.58
487.269	8414.08
487.473	7934.85
487.677	8272.77
487.881	8299.39
488.085	8018.82
488.289	8301.44
488.493	8061.83
488.697	8502.14
488.901	8113.03
489.105	8121.22
489.309	8207.23
489.512	8137.6
489.716	8360.83
489.92	8217.47
490.124	8125.32
490.328	8446.85
490.531	8254.34
490.735	8061.83
490.939	8156.04
491.143	8123.27
491.346	8151.94
491.55	8526.72
491.754	8309.63
491.958	8432.51
492.161	8233.86
492.365	8608.64
492.569	8571.77
492.772	8459.13
492.976	8483.71
493.18	8397.7
493.383	8522.62
493.587	8649.6
493.79	8651.64
493.994	8536.96
494.197	8692.6
494.401	8817.53
494.605	8928.12
494.808	8729.47
495.012	9020.28
495.215	8901.5
495.419	8946.55
495.622	9251.7
495.825	8987.51
496.029	9188.21
496.232	9343.86
496.436	9137.01
496.639	9464.69
496.843	9429.87
497.046	9544.56
497.249	9710.44
497.453	9747.31
497.656	9786.22
497.859	9937.77
498.063	9868.14
498.266	10242.92
498.469	10103.65
498.673	10158.95
498.876	10361.7
499.079	10322.79
499.282	10283.88
499.485	10543.97
499.689	10756.96
499.892	10904.41
500.095	10531.68
500.298	11029.34
500.501	10830.68
500.705	11375.44
500.908	11129.69
501.111	11299.67
501.314	11371.35
501.517	11592.53
501.72	11668.3
501.923	11715.41
502.126	12049.22
502.329	12141.38
502.532	12120.9
502.735	12208.97
502.938	12381
503.141	12501.83
503.344	12763.97
503.547	12542.78
503.75	12854.08
503.953	12954.43
504.156	13089.59
504.359	13288.25
504.562	13376.31
504.765	13476.66
504.968	13802.29
505.17	13826.86
505.373	13736.75
505.576	14406.44
505.779	14267.17
505.982	14242.6
506.185	14662.43
506.387	14897.95
506.59	14787.36
506.793	14963.48
506.996	14820.13
507.198	15479.57
507.401	15438.61
507.604	15551.25
507.807	15622.93
508.009	15950.6
508.212	15983.37
508.415	16044.81
508.617	16284.42
508.82	16425.73
509.022	16380.68
509.225	16761.6
509.428	17083.13
509.63	17021.69
509.833	16964.35
510.035	17482.49
510.238	17265.4
510.44	17505.01
510.643	17953.52
510.845	17869.55
511.048	18107.12
511.25	18285.29
511.453	18361.06
511.655	19098.33
511.858	18629.35
512.06	19006.17
512.262	19057.37
512.465	18987.74
512.667	19530.45
512.87	19880.66
513.072	19722.96
513.274	20050.64
513.477	20310.73
513.679	19946.19
513.881	20665.03
514.084	20837.06
514.286	20777.67
514.488	20812.48
514.69	21152.45
514.893	21414.59
515.095	21648.05
515.297	21840.56
515.499	21922.48
515.701	22006.45
515.904	22672.04
516.106	22717.09
516.308	22749.86
516.51	23067.3
516.712	22792.87
516.914	23435.93
517.116	23618.2
517.318	23433.88
517.52	24005.27
517.722	23763.61
517.925	24275.6
518.127	24144.53
518.329	24486.54
518.531	24269.45
518.733	24994.43
518.935	24885.89
519.136	24971.91
519.338	25279.1
519.54	25531
519.742	25801.33
519.944	25504.38
520.146	26086
520.348	26366.57
520.55	26360.43
520.752	26233.46
520.954	26821.22
521.155	26458.73
521.357	26802.79
521.559	27091.55
521.761	27558.49
521.963	27390.56
522.164	27335.26
522.366	27433.57
522.568	27974.23
522.77	28142.16
522.971	27951.7
523.173	27968.09
523.375	28248.66
523.576	28254.8
523.778	28121.68
523.98	28523.08
524.181	28719.69
524.383	28670.54
524.584	28906.05
524.786	28686.92
524.988	28785.22
525.189	28901.96
525.391	29106.76
525.592	29428.29
525.794	29368.9
525.995	29170.24
526.197	29268.55
526.398	29372.99
526.6	29444.67
526.801	29846.07
527.003	29649.47
527.204	29522.49
527.406	29368.9
527.607	29628.99
527.808	29649.47
528.01	29227.59
528.211	29596.22
528.412	29803.07
528.614	30085.68
528.815	29459.01
529.016	30347.82
529.218	29387.33
529.419	29915.7
529.62	29649.47
529.822	29669.95
530.023	29878.84
530.224	29911.61
530.425	29831.74
530.626	29479.49
530.828	29440.57
531.029	29770.3
531.23	29426.24
531.431	29418.05
531.632	29510.21
531.833	29905.46
532.035	29317.7
532.236	29592.12
532.437	29884.98
532.638	29278.79
532.839	29864.5
533.04	29895.22
533.241	29114.95
533.442	29622.84
533.643	29483.58
533.844	29497.92
534.045	29270.59
534.246	28979.78
534.447	29295.17
534.648	29045.32
534.849	29307.46
535.05	28918.34
535.251	29184.58
535.451	29000.26
535.652	29033.03
535.853	29022.79
536.054	29053.51
536.255	29250.11
536.456	28727.88
536.657	29190.72
536.857	28742.22
537.058	28869.19
537.259	28711.5
537.46	28529.23
537.66	28629.58
537.861	28932.68
538.062	28498.51
538.263	28496.46
538.463	28676.68
538.664	28351.06
538.865	28516.94
539.065	28484.17
539.266	28219.99
539.466	28713.55
539.667	28115.54
539.868	28602.96
540.068	28533.32
540.269	28250.7
540.469	28238.42
540.67	28293.71
540.87	28287.57
541.071	28052.05
541.271	28334.67
541.472	28273.23
541.672	28011.09
541.873	28047.96
542.073	27695.71
542.274	28367.44
542.474	27974.23
542.675	27871.83
542.875	28183.12
543.075	27933.27
543.276	27742.81
543.476	28258.9
543.676	27826.78
543.877	28119.63
544.077	27908.69
544.277	27851.35
544.478	28351.06
544.678	27966.04
544.878	28035.67
545.078	28021.33
545.279	27476.57
545.479	27468.38
545.679	28029.52
545.879	28037.72
546.079	27519.58
546.28	27318.88
546.48	28031.57
546.68	27882.07
546.88	28197.46
547.08	28060.24
547.28	28029.52
547.48	27691.61
547.68	27673.18
547.88	27470.43
548.081	27894.36
548.281	27949.65
548.481	27411.04
548.681	28023.38
548.881	27662.94
549.081	27939.41
549.28	27914.84
549.48	28209.75
549.68	27890.26
549.88	28275.28
550.08	27634.27
550.28	27824.73
550.48	27789.91
550.68	28140.11
550.88	27503.2
551.08	27779.67
551.279	28187.22
551.479	27808.34
551.679	27943.51
551.879	28252.75
552.079	28011.09
552.278	27751
552.478	27888.21
552.678	28213.84
552.878	28060.24
553.077	27886.17
553.277	27744.86
553.477	28228.18
553.676	27849.3
553.876	27953.75
554.076	28090.96
554.275	28105.3
554.475	27437.66
554.674	28385.87
554.874	28306
555.074	28007
555.273	27957.85
555.473	28181.07
555.672	27607.64
555.872	28097.11
556.071	28383.82
556.271	28138.07
556.47	28242.51
556.67	27978.33
556.869	28068.44
557.068	28277.33
557.268	27820.63
557.467	28428.88
557.667	28224.08
557.866	28674.63
558.065	28359.25
558.265	27828.82
558.464	28324.43
558.663	28774.98
558.863	27923.03
559.062	28441.17
559.261	28076.63
559.461	28936.77
559.66	27884.12
559.859	28387.92
560.058	28535.37
560.258	28293.71
560.457	28232.27
560.656	28369.49
560.855	27963.99
561.054	28340.82
561.253	28074.58
561.453	28445.26
561.652	28271.18
561.851	28400.21
562.05	28033.62
562.249	28043.86
562.448	28416.59
562.647	28215.89
562.846	28203.6
563.045	28273.23
563.244	28297.81
563.443	28363.34
563.642	28121.68
563.841	28140.11
564.04	27820.63
564.239	28383.82
564.438	28121.68
564.637	27970.13
564.836	27978.33
565.035	27753.05
565.234	27972.18
565.432	27773.53
565.631	27871.83
565.83	28154.45
566.029	28093.01
566.228	28017.24
566.427	27505.24
566.625	27593.31
566.824	27408.99
567.023	27865.69
567.222	27259.49
567.42	27707.99
567.619	27662.94
567.818	27408.99
568.016	27374.17
568.215	27785.82
568.414	27304.54
568.612	27628.12
568.811	27046.5
569.01	27329.12
569.208	27142.75
569.407	27304.54
569.605	26905.19
569.804	27353.69
570.002	26878.57
570.201	27060.84
570.4	26645.1
570.598	26993.25
570.797	26417.77
570.995	26800.74
571.193	26319.47
571.392	26665.58
571.59	26509.93
571.789	26438.25
571.987	26387.05
572.186	26411.63
572.384	26063.47
572.582	26155.63
572.781	26354.29
572.979	25887.35
573.177	25858.68
573.376	25924.21
573.574	25844.34
573.772	25995.89
573.971	25655.93
574.169	25598.59
574.367	25320.06
574.565	25356.93
574.763	25488
574.962	24982.15
575.16	25141.89
575.358	25203.33
575.556	25324.16
575.754	25420.41
575.952	24908.42
576.151	25119.36
576.349	24689.29
576.547	24732.29
576.745	24930.95
576.943	24781.45
577.141	24595.08
577.339	24851.08
577.537	24582.79
577.735	24560.27
577.933	24068.75
578.131	24482.44
578.329	24425.1
578.527	24064.66
578.725	24085.14
578.923	23849.62
579.121	24175.25
579.319	24015.51
579.516	24023.7
579.714	24042.13
579.912	23677.59
580.11	23595.67
580.308	23454.36
580.506	23468.7
580.704	23233.18
580.901	23450.27
581.099	23276.19
581.297	23509.66
581.495	23155.36
581.692	23354.01
581.89	23124.64
582.088	23394.97
582.285	23149.21
582.483	23319.2
582.681	23038.62
582.878	22788.77
583.076	22895.27
583.274	22866.6
583.471	22809.25
583.669	22651.56
583.866	22321.84
584.064	22622.89
584.262	22565.54
584.459	22518.44
584.657	22217.39
584.854	22669.99
585.052	22049.46
585.249	22074.03
585.447	22274.73
585.644	22368.94
585.841	22190.77
586.039	22354.6
586.236	21922.48
586.434	21996.21
586.631	21832.37
586.828	21904.05
587.026	21742.26
587.223	21752.5
587.42	21592.76
587.618	21652.15
587.815	21572.28
588.012	21449.4
588.21	21445.3
588.407	21615.29
588.604	21353.15
588.801	21265.08
588.999	21476.02
589.196	21422.78
589.393	21136.06
589.59	21236.41
589.787	21033.66
589.984	21091.01
590.182	20968.13
590.379	21123.77
590.576	20591.3
590.773	20951.74
590.97	20624.07
591.167	20955.84
591.364	20789.95
591.561	20697.8
591.758	20705.99
591.955	20878.02
592.152	20849.35
592.349	20564.68
592.546	21131.97
592.743	20515.53
592.94	20640.45
593.137	20650.69
593.334	20644.55
593.531	20267.72
593.727	20632.26
593.924	20214.48
594.121	20452.04
594.318	20382.41
594.515	20071.12
594.712	20409.03
594.908	20169.42
595.105	20460.23
595.302	20269.77
595.499	20257.48
595.696	20361.93
595.892	19909.33
596.089	20292.3
596.286	20171.47
596.482	20095.69
596.679	20241.1
596.876	20456.14
597.072	20234.96
597.269	19989.2
597.466	20110.03
597.662	20034.25
597.859	19944.14
598.055	19989.2
598.252	19862.22
598.448	20144.84
598.645	20142.8
598.841	19997.39
599.038	19983.06
599.234	20181.71
599.431	19919.57
599.627	19954.38
599.824	20097.74
600.02	19923.66
600.217	20306.63
600.413	20564.68
600.609	20044.49
600.806	20196.04
601.002	20503.24
601.198	20214.48
601.395	19991.25
601.591	20019.92
601.787	20353.74
601.984	20153.04
602.18	20552.39
602.376	20329.16
602.572	19950.29
602.769	20329.16
602.965	20120.27
603.161	20531.91
603.357	20425.42
603.553	20386.5
603.75	20386.5
603.946	20318.92
604.142	20531.91
604.338	20462.28
604.534	20595.4
604.73	20595.4
604.926	20525.77
605.122	20937.41
605.318	20486.86
605.514	20916.93
605.71	20693.7
605.906	20763.33
606.102	21086.91
606.298	21000.9
606.494	20912.83
606.69	20988.61
606.886	21111.49
607.082	20697.8
607.278	21039.81
607.474	20865.73
607.67	21369.53
607.866	21048
608.062	21459.64
608.257	21203.64
608.453	21281.47
608.649	21392.06
608.845	21461.69
609.041	21332.67
609.236	21574.33
609.432	21643.96
609.628	21451.45
609.824	21658.29
610.019	21234.36
610.215	21680.82
610.411	21869.23
610.606	21678.77
610.802	22033.07
610.998	21789.36
611.193	21899.95
611.389	21629.62
611.584	21736.12
611.78	21713.59
611.976	22092.46
612.171	21834.42
612.367	21916.34
612.562	21916.34
612.758	21807.8
612.953	21766.84
613.149	22110.89
613.344	21942.96
613.539	22579.88
613.735	22166.19
613.93	22547.11
614.126	22293.16
614.321	22629.03
614.517	22317.74
614.712	22379.18
614.907	22358.7
615.103	22588.07
615.298	22151.85
615.493	22610.6
615.688	22119.09
615.884	22815.4
616.079	22071.98
616.274	22403.75
616.47	22663.85
616.665	22663.85
616.86	22418.09
617.055	22682.28
617.25	22442.67
617.445	22782.63
617.641	21945.01
617.836	22547.11
618.031	22299.31
618.226	22655.65
618.421	22336.17
618.616	22522.54
618.811	22168.24
619.006	22905.51
619.201	21973.68
619.396	22364.84
619.591	21689.01
619.786	22448.81
619.981	21738.16
620.176	22131.37
620.371	21559.99
620.566	21979.82
620.761	21795.51
620.956	22110.89
621.151	21742.26
621.346	21783.22
621.541	21496.5
621.735	21985.97
621.93	21557.94
622.125	21506.74
622.32	21228.22
622.515	21258.94
622.709	21224.12
622.904	21078.72
623.099	20806.34
623.294	20941.5
623.488	20820.67
623.683	21236.41
623.878	20615.88
624.072	20648.64
624.267	20601.54
624.462	20673.22
624.656	20255.43
624.851	20372.17
625.046	20079.31
625.24	20339.4
625.435	19811.03
625.629	19864.27
625.824	19645.14
626.018	19649.24
626.213	19364.57
626.407	19835.6
626.602	19387.1
626.796	19477.21
626.991	19649.24
627.185	19301.08
627.38	19223.26
627.574	19081.95
627.768	18891.49
627.963	18750.18
628.157	18887.39
628.352	18502.37
628.546	18438.89
628.74	18698.98
628.935	18541.29
629.129	18582.24
629.323	18326.25
629.517	18074.35
629.712	18193.13
629.906	18012.91
630.1	17961.71
630.294	17674.99
630.489	17564.4
630.683	17793.78
630.877	17591.03
631.071	17521.4
631.265	17539.83
631.459	17457.91
631.653	17255.16
631.848	17206.01
632.042	17224.44
632.236	17326.84
632.43	17058.56
632.624	17021.69
632.818	17097.47
633.012	16638.72
633.206	16577.28
633.4	16876.29
633.594	16616.19
633.788	16280.33
633.982	16696.07
634.176	16253.7
634.369	16280.33
634.563	16212.74
634.757	15858.45
634.951	16016.14
635.145	15805.2
635.339	15987.47
635.533	15719.18
635.726	15586.07
635.92	15434.52
636.114	15262.49
636.308	15170.33
636.501	15418.13
636.695	14998.3
636.889	15155.99
637.083	15194.9
637.276	15082.27
637.47	14877.47
637.664	14519.07
637.857	14756.64
638.051	14635.81
638.244	14306.09
638.438	14463.78
638.632	14568.23
638.825	14189.35
639.019	14224.17
639.212	14115.62
639.406	14070.57
639.599	13988.65
639.793	13806.38
639.986	13761.33
640.18	13841.2
640.373	13654.83
640.567	13601.58
640.76	13617.97
640.954	13388.6
641.147	13222.71
641.34	13259.57
641.534	13206.33
641.727	13103.93
641.92	13034.3
642.114	12870.46
642.307	12944.19
642.5	12624.7
642.694	12553.02
642.887	12720.96
643.08	12657.47
643.273	12518.21
643.467	12348.23
643.66	12579.65
643.853	12329.8
644.046	12268.36
644.239	12110.66
644.432	12010.31
644.626	11744.08
644.819	11934.54
645.012	11703.12
645.205	11903.82
645.398	11535.18
645.591	11555.66
645.784	11578.19
645.977	11242.32
646.17	11285.33
646.363	11275.09
646.556	11103.06
646.749	11125.59
646.942	11193.17
647.135	11098.97
647.328	11230.04
647.521	10986.33
647.714	10773.34
647.907	10677.09
648.099	10851.16
648.292	10722.14
648.485	10584.93
648.678	10484.58
648.871	10455.9
649.064	10253.16
649.256	10423.14
649.449	10304.35
649.642	10140.52
649.835	10062.69
650.027	10152.81
650.22	10128.23
650.413	10054.5
650.605	9847.66
650.798	10011.5
650.991	9651.05
651.183	9544.56
651.376	9810.79
651.568	9722.73
651.761	9663.34
651.954	9505.65
652.146	9458.54
652.339	9532.27
652.531	9438.06
652.724	9335.67
652.916	9323.38
653.109	9245.55
653.301	9302.9
653.494	9184.12
653.686	8881.02
653.879	9282.42
654.071	9145.2
654.263	8983.41
654.456	8997.75
654.648	9094.01
654.84	8721.27
655.033	8577.92
655.225	8768.38
655.417	8610.68
655.61	8696.7
655.802	8647.55
655.994	8383.36
656.186	8405.89
656.379	8524.67
656.571	8240
656.763	8342.4
656.955	8299.39
657.148	8092.55
657.34	8121.22
657.532	8158.08
657.724	8207.23
657.916	8088.45
658.108	7906.18
658.3	7994.25
658.492	7959.43
658.684	7943.05
658.876	7799.69
659.068	7732.11
659.26	7848.84
659.452	7914.38
659.644	7768.97
659.836	7701.39
660.028	7648.14
660.22	7512.97
660.412	7521.17
660.604	7373.71
660.796	7469.97
660.988	7318.42
661.18	7342.99
661.372	7320.46
661.563	7173.01
661.755	7234.45
661.947	7209.87
662.139	7048.08
662.331	7099.28
662.522	6943.64
662.714	6878.1
662.906	6964.12
663.097	7021.46
663.289	6994.84
663.481	6820.76
663.673	7070.61
663.864	6929.3
664.056	6808.47
664.247	6708.12
664.439	6439.84
664.631	6644.63
664.822	6726.55
665.014	6591.39
665.205	6517.66
665.397	6575
665.588	6488.99
665.78	6335.39
665.971	6433.69
666.163	6177.7
666.354	6339.49
666.546	6230.94
666.737	6255.52
666.929	6167.46
667.12	6276
667.311	5977
667.503	5956.52
667.694	6050.72
667.885	6065.06
668.077	5923.75
668.268	5833.64
668.459	6001.57
668.651	6022.05
668.842	5786.54
669.033	5825.45
669.224	5868.45
669.416	5936.04
669.607	5749.67
669.798	5770.15
669.989	5854.12
670.18	5751.72
670.371	5696.43
670.563	5653.42
670.754	5741.48
670.945	5700.52
671.136	5637.03
671.327	5505.96
671.518	5510.06
671.709	5563.31
671.9	5407.66
672.091	5581.74
672.282	5561.26
672.473	5381.04
672.664	5456.81
672.855	5479.34
673.046	5397.42
673.237	5215.15
673.428	5393.33
673.619	5327.79
673.809	5262.26
674	5254.06
674.191	5434.29
674.382	5254.06
674.573	5397.42
674.764	5362.61
674.954	5338.03
675.145	5239.73
675.336	5079.99
675.527	5104.56
675.717	5215.15
675.908	5039.03
676.099	5092.27
676.289	5137.33
676.48	5063.6
676.671	5047.22
676.861	5114.8
677.052	5100.47
677.243	4895.67
677.433	5018.55
677.624	5131.19
677.814	5106.61
678.005	4998.07
678.195	4998.07
678.386	5008.31
678.576	4975.54
678.767	4858.81
678.957	4889.53
679.148	5034.93
679.338	4942.77
679.529	4965.3
679.719	4725.69
679.909	5014.45
680.1	4834.23
680.29	4926.39
680.481	4836.28
680.671	4852.66
680.861	4928.44
681.052	4899.77
681.242	4899.77
681.432	4936.63
681.622	4764.6
681.813	4983.73
682.003	4809.65
682.193	4760.5
682.383	4862.9
682.573	4993.97
682.764	4735.93
682.954	4834.23
683.144	4918.2
683.334	4821.94
683.524	4828.09
683.714	4705.21
683.904	4572.09
684.094	4842.42
684.284	4795.32
684.474	4850.61
684.664	4756.41
684.854	4596.67
685.044	4899.77
685.234	4752.31
685.424	4780.98
685.614	4654.01
685.804	4633.53
685.994	4760.5
686.184	4565.95
686.374	4699.06
686.564	4645.82
686.753	4621.24
686.943	4670.39
687.133	4694.97
687.323	4600.76
687.513	4731.83
687.702	4527.03
687.892	4629.43
688.082	4563.9
688.272	4639.67
688.461	4606.91
688.651	4516.8
688.841	4555.71
689.03	4461.5
689.22	4508.6
689.41	4395.96
689.599	4492.22
689.789	4484.03
689.979	4484.03
690.168	4432.83
690.358	4301.76
690.547	4391.87
690.737	4375.49
690.926	4465.6
691.116	4283.33
691.305	4438.97
691.495	4248.51
691.684	4252.61
691.874	4182.98
692.063	4377.53
692.252	4334.53
692.442	4312
692.631	4244.42
692.82	4293.57
693.01	4285.37
693.199	4203.46
693.388	4271.04
693.578	4285.37
693.767	4285.37
693.956	4305.85
694.146	4154.3
694.335	4119.49
694.524	4207.55
694.713	4266.94
694.902	4150.21
695.092	4187.07
695.281	4086.72
695.47	4123.59
695.659	4107.2
695.848	4256.7
696.037	4201.41
696.226	4051.91
696.415	4168.64
696.604	4240.32
696.793	4182.98
696.982	4146.11
697.171	4096.96
697.36	4025.28
697.549	4019.14
697.738	4047.81
697.927	3951.56
698.116	4148.16
698.305	4053.95
698.494	4031.43
698.683	4027.33
698.872	3982.28
699.061	3961.8
699.25	3969.99
699.438	4006.85
699.627	4002.75
699.816	4035.52
700.005	3963.84
700.193	4072.39
700.382	4060.1
700.571	3953.6
700.76	3959.75
700.948	3883.97
701.137	3873.73
701.326	4033.47
701.514	3847.11
701.703	4023.23
701.892	3843.01
702.08	3947.46
702.269	3834.82
702.457	3703.75
702.646	3896.26
702.834	3791.81
703.023	3761.09
703.212	3926.98
703.4	3744.71
703.589	3888.07
703.777	3787.72
703.965	3539.91
704.154	3759.05
704.342	3597.26
704.531	3713.99
704.719	3681.22
704.907	3763.14
705.096	3687.37
705.284	3699.66
705.472	3736.52
705.661	3752.9
705.849	3777.48
706.037	3695.56
706.226	3599.31
706.414	3605.45
706.602	3544.01
706.79	3613.64
706.979	3668.94
707.167	3519.43
707.355	3527.63
707.543	3539.91
707.731	3607.5
707.919	3601.35
708.107	3431.37
708.296	3593.16
708.484	3408.84
708.672	3515.34
708.86	3578.83
709.048	3376.08
709.236	3492.81
709.424	3472.33
709.612	3572.68
709.8	3425.23
709.988	3417.04
710.176	3648.46
710.364	3431.37
710.551	3476.43
710.739	3335.12
710.927	3468.24
711.115	3476.43
711.303	3290.06
711.491	3402.7
711.679	3273.68
711.866	3376.08
712.054	3345.36
712.242	3259.34
712.43	3359.69
712.617	3318.73
712.805	3312.59
712.993	3400.65
713.181	3197.9
713.368	3181.52
713.556	3365.84
713.744	3195.86
713.931	3240.91
714.119	2982.87
714.306	3204.05
714.494	3124.18
714.682	3025.87
714.869	3156.94
715.057	3220.43
715.244	3167.18
715.432	3097.55
715.619	3222.48
715.807	3095.5
715.994	3124.18
716.182	3013.59
716.369	3105.74
716.556	3273.68
716.744	3107.79
716.931	3105.74
717.119	3001.3
717.306	3113.94
717.493	3050.45
717.681	3077.07
717.868	3093.46
718.055	2995.15
718.242	3001.3
718.43	3034.07
718.617	2970.58
718.804	3027.92
718.991	3072.98
719.179	3050.45
719.366	2909.14
719.553	3023.83
719.74	2950.1
719.927	2894.8
720.114	3007.44
720.301	2866.13
720.488	2835.41
720.676	2884.56
720.863	2982.87
721.05	2837.46
721.237	2960.34
721.424	2802.65
721.611	2935.76
721.798	2784.21
721.985	2769.88
722.172	2792.41
722.358	2788.31
722.545	2839.51
722.732	2712.53
722.919	2757.59
723.106	2757.59
723.293	2835.41
723.48	2847.7
723.667	2788.31
723.853	2769.88
724.04	2771.93
724.227	2741.21
724.414	2638.81
724.6	2690.01
724.787	2745.3
724.974	2737.11
725.161	2581.46
725.347	2647
725.534	2614.23
725.72	2720.73
725.907	2575.32
726.094	2696.15
726.28	2540.51
726.467	2642.9
726.653	2540.51
726.84	2730.97
727.027	2601.94
727.213	2589.66
727.4	2616.28
727.586	2599.9
727.773	2526.17
727.959	2606.04
728.145	2661.34
728.332	2577.37
728.518	2466.78
728.705	2434.01
728.891	2558.94
729.077	2544.6
729.264	2503.64
729.45	2616.28
729.636	2679.77
729.823	2393.05
730.009	2563.03
730.195	2413.53
730.382	2593.75
730.568	2454.49
730.754	2450.39
730.94	2540.51
731.126	2495.45
731.313	2442.2
731.499	2393.05
731.685	2452.44
731.871	2407.39
732.057	2454.49
732.243	2466.78
732.429	2413.53
732.615	2468.83
732.801	2405.34
732.987	2245.6
733.173	2442.2
733.359	2450.39
733.545	2434.01
733.731	2331.61
733.917	2466.78
734.103	2354.14
734.289	2223.07
734.475	2376.67
734.661	2300.89
734.847	2362.33
735.033	2425.82
735.219	2290.65
735.404	2307.04
735.59	2307.04
735.776	2438.11
735.962	2405.34
736.148	2315.23
736.333	2294.75
736.519	2294.75
736.705	2155.49
736.89	2264.03
737.076	2282.46
737.262	2210.78
737.447	2229.21
737.633	2239.45
737.819	2239.45
738.004	2194.4
738.19	2126.82
738.375	2155.49
738.561	2237.41
738.747	2196.45
738.932	2163.68
739.118	2239.45
739.303	2106.34
739.489	2139.1
739.674	2249.69
739.859	2073.57
740.045	2048.99
740.23	2135.01
740.416	2065.38
740.601	2028.51
740.786	2030.56
740.972	2083.81
741.157	1995.75
741.342	2008.03
741.528	2128.86
741.713	1977.31
741.898	2048.99
742.084	2073.57
742.269	2014.18
742.454	2051.04
742.639	2092
742.824	2008.03
743.01	2040.8
743.195	1940.45
743.38	1979.36
743.565	1879.01
743.75	1926.11
743.935	1926.11
744.12	1985.51
744.305	1854.44
744.49	1899.49
744.675	1838.05
744.86	1819.62
745.045	1903.59
745.23	1944.55
745.415	1823.72
745.6	1864.68
745.785	1776.61
745.97	1821.67
746.155	1819.62
746.34	1778.66
746.525	1852.39
746.71	1827.81
746.895	1754.09
747.079	1651.69
747.264	1764.33
747.449	1698.79
747.634	1641.45
747.819	1731.56
748.003	1762.28
748.188	1747.94
748.373	1747.94
748.557	1676.26
748.742	1592.3
748.927	1672.17
749.111	1723.37
749.296	1629.16
749.481	1682.41
749.665	1647.59
749.85	1539.05
750.034	1530.86
750.219	1510.38
750.404	1602.54
750.588	1663.97
750.773	1418.22
750.957	1532.9
751.141	1569.77
751.326	1477.61
751.51	1418.22
751.695	1418.22
751.879	1475.56
752.064	1467.37
752.248	1469.42
752.432	1553.38
752.617	1461.23
752.801	1381.35
752.985	1477.61
753.17	1389.55
753.354	1344.49
753.538	1369.07
753.722	1350.64
753.907	1397.74
754.091	1305.58
754.275	1297.39
754.459	1352.68
754.643	1225.71
754.828	1248.24
755.012	1336.3
755.196	1238
755.38	1254.38
755.564	1231.85
755.748	1254.38
755.932	1305.58
756.116	1287.15
756.3	1328.11
756.484	1254.38
756.668	1223.66
756.852	1184.75
757.036	1151.98
757.22	1262.57
757.404	1166.32
757.588	1143.79
757.772	1235.95
757.956	1227.76
758.14	1207.28
758.323	1147.89
758.507	1072.11
758.691	1211.37
758.875	1217.52
759.059	1188.85
759.242	1123.31
759.426	1125.36
759.61	1125.36
759.794	1068.02
759.977	1074.16
760.161	1086.45
760.345	1147.89
760.528	1074.16
760.712	1012.72
760.895	1094.64
761.079	1098.74
761.263	1000.43
761.446	963.57
761.63	1002.48
761.813	1029.1
761.997	1047.54
762.18	1020.91
762.364	893.94
762.547	959.47
762.731	1000.43
762.914	1082.35
763.098	1002.48
763.281	996.34
763.464	934.9
763.648	1027.06
763.831	910.32
764.015	936.95
764.198	1000.43
764.381	893.94
764.564	977.91
764.748	971.76
764.931	965.62
765.114	871.41
765.297	963.57
765.481	877.55
765.664	955.38
765.847	895.99
766.03	928.75
766.213	918.51
766.397	887.79
766.58	947.19
766.763	943.09
766.946	912.37
767.129	928.75
767.312	814.07
767.495	910.32
767.678	840.69
767.861	928.75
768.044	848.88
768.227	977.91
768.41	898.03
768.593	820.21
768.776	846.84
768.959	898.03
769.142	830.45
769.324	863.22
769.507	873.46
769.69	887.79
769.873	797.68
770.056	867.31
770.239	893.94
770.421	865.27
770.604	861.17
770.787	836.6
770.97	873.46
771.152	701.43
771.335	771.06
771.518	805.88
771.7	861.17
771.883	762.87
772.066	754.68
772.248	795.64
772.431	805.88
772.613	775.16
772.796	838.64
772.978	885.75
773.161	822.26
773.343	779.25
773.526	803.83
773.708	795.64
773.891	678.9
774.073	762.87
774.256	697.33
774.438	822.26
774.621	730.1
774.803	744.44
774.985	697.33
775.168	713.72
775.35	656.37
775.532	807.92
775.715	680.95
775.897	730.1
776.079	685.05
776.261	721.91
776.444	715.77
776.626	699.38
776.808	695.29
776.99	680.95
777.173	676.85
777.355	672.76
777.537	672.76
777.719	676.85
777.901	666.61
778.083	625.65
778.265	594.93
778.447	566.26
778.629	650.23
778.811	639.99
778.993	685.05
779.175	703.48
779.357	574.46
779.539	658.42
779.721	601.08
779.903	599.03
780.085	619.51
780.267	551.93
780.449	601.08
780.631	637.94
780.812	627.7
780.994	470.01
781.176	513.02
781.358	535.54
781.54	541.69
781.721	578.55
781.903	574.46
782.085	582.65
782.267	541.69
782.448	488.44
782.63	599.03
782.812	529.4
782.993	599.03
783.175	543.74
783.357	508.92
783.538	517.11
783.72	519.16
783.901	414.71
784.083	492.54
784.264	480.25
784.446	406.52
784.627	459.77
784.809	525.3
784.99	492.54
785.172	551.93
785.353	494.58
785.535	476.15
785.716	367.61
785.897	455.67
786.079	472.06
786.26	447.48
786.441	408.57
786.623	363.51
786.804	330.75
786.985	414.71
787.167	404.47
787.348	402.43
787.529	447.48
787.71	490.49
787.891	412.67
788.073	332.79
788.254	400.38
788.435	416.76
788.616	422.91
788.797	343.03
788.978	429.05
789.159	404.47
789.34	404.47
789.522	312.32
789.703	304.12
789.884	453.63
790.065	365.56
790.246	429.05
790.427	320.51
790.607	367.61
790.788	390.14
790.969	347.13
791.15	375.8
791.331	336.89
791.512	365.56
791.693	295.93
791.874	320.51
792.054	435.19
792.235	390.14
792.416	300.03
792.597	314.36
792.778	330.75
792.958	271.36
793.139	300.03
793.32	312.32
793.5	287.74
793.681	304.12
793.862	283.64
794.042	252.92
794.223	273.4
794.404	279.55
794.584	207.87
794.765	316.41
794.945	316.41
795.126	295.93
795.306	297.98
795.487	287.74
795.667	295.93
795.848	279.55
796.028	279.55
796.209	330.75
796.389	275.45
796.57	291.84
796.75	271.36
796.93	332.79
797.111	257.02
797.291	248.83
797.471	261.12
797.652	250.88
797.832	246.78
798.012	263.16
798.192	314.36
798.373	314.36
798.553	279.55
798.733	248.83
798.913	234.49
799.093	160.77
799.274	283.64
799.454	248.83
799.634	271.36
799.814	328.7
799.994	287.74
800.174	279.55
800.354	312.32
800.534	320.51
800.714	320.51
800.894	238.59
801.074	136.19
801.254	279.55
801.434	257.02
801.614	269.31
801.794	263.16
801.974	984.05
802.154	138.24
802.334	240.64
802.514	271.36
802.693	201.72
802.873	185.34
803.053	328.7
803.233	166.91
803.413	277.5
803.592	222.2
803.772	218.11
803.952	148.48
804.131	156.67
804.311	193.53
804.491	285.69
804.67	222.2
804.85	211.96
805.03	197.63
805.209	248.83
805.389	173.05
805.568	263.16
805.748	254.97
805.928	211.96
806.107	216.06
806.287	203.77
806.466	230.4
806.646	232.44
806.825	183.29
807.004	189.44
807.184	230.4
807.363	134.14
807.543	246.78
807.722	119.81
807.901	191.49
808.081	199.68
808.26	166.91
808.439	168.96
808.619	261.12
808.798	123.9
808.977	101.37
809.156	171.01
809.336	168.96
809.515	197.63
809.694	148.48
809.873	115.71
810.052	156.67
810.231	177.15
810.411	115.71
810.59	199.68
810.769	140.29
810.948	232.44
811.127	177.15
811.306	189.44
811.485	193.53
811.664	242.68
811.843	205.82
812.022	197.63
812.201	189.44
812.38	142.33
812.559	146.43
812.737	175.1
812.916	144.38
813.095	91.13
813.274	183.29
813.453	142.33
813.632	152.57
813.811	148.48
813.989	117.76
814.168	175.1
814.347	132.09
814.526	205.82
814.704	181.25
814.883	132.09
815.062	115.71
815.24	166.91
815.419	140.29
815.598	111.61
815.776	132.09
815.955	113.66
816.133	173.05
816.312	119.81
816.49	99.33
816.669	197.63
816.847	140.29
817.026	156.67
817.204	162.81
817.383	117.76
817.561	107.52
817.74	117.76
817.918	60.42
818.097	142.33
818.275	160.77
818.453	140.29
818.632	101.37
818.81	82.94
818.988	142.33
819.167	164.86
819.345	162.81
819.523	123.9
819.701	99.33
819.879	168.96
820.058	87.04
820.236	91.13
820.414	181.25
820.592	158.72
820.77	146.43
820.948	84.99
821.127	144.38
821.305	68.61
821.483	121.85
821.661	119.81
821.839	80.89
822.017	111.61
822.195	95.23
822.373	91.13
822.551	41.98
822.729	146.43
822.907	64.51
823.085	177.15
823.262	93.18
823.44	140.29
823.618	142.33
823.796	128
823.974	41.98
824.152	128
824.329	80.89
824.507	168.96
824.685	87.04
824.863	136.19
825.04	150.53
825.218	187.39
825.396	226.3
825.574	119.81
825.751	164.86
825.929	107.52
826.107	60.42
826.284	189.44
826.462	99.33
826.639	115.71
826.817	50.18
826.994	25.6
827.172	17.41
827.349	209.92
827.527	130.05
827.704	1.02
827.882	80.89
828.059	54.27
828.237	164.86
828.414	103.42
828.591	33.79
828.769	91.13
828.946	54.27
829.124	179.2
829.301	132.09
829.478	101.37
829.655	50.18
829.833	58.37
830.01	64.51
830.187	111.61
830.364	123.9
830.542	41.98
830.719	119.81
830.896	52.22
831.073	93.18
831.25	56.32
831.427	82.94
831.604	76.8
831.782	84.99
831.959	78.85
832.136	74.75
832.313	15.36
832.49	105.47
832.667	41.98
832.844	-7.17
833.021	107.52
833.198	107.52
833.374	66.56
833.551	82.94
833.728	3.07
833.905	111.61
834.082	19.46
834.259	119.81
834.436	113.66
834.612	89.09
834.789	107.52
834.966	58.37
835.143	84.99
835.319	25.6
835.496	70.65
835.673	78.85
835.85	189.44
836.026	66.56
836.203	158.72
836.38	66.56
836.556	50.18
836.733	82.94
836.909	107.52
837.086	58.37
837.262	74.75
837.439	54.27
837.616	48.13
837.792	74.75
837.968	95.23
838.145	60.42
838.321	76.8
838.498	50.18
838.674	142.33
838.851	93.18
839.027	91.13
839.203	136.19
839.38	132.09
839.556	-29.7
839.732	115.71
839.909	33.79
840.085	60.42
840.261	62.46
840.437	76.8
840.614	25.6
840.79	84.99
840.966	89.09
841.142	44.03
841.318	84.99
841.494	82.94
841.671	29.7
841.847	44.03
842.023	-23.55
842.199	103.42
842.375	54.27
842.551	31.74
842.727	21.5
842.903	175.1
843.079	-23.55
843.255	60.42
843.431	50.18
843.607	35.84
843.783	35.84
843.959	60.42
844.134	-5.12
844.31	58.37
844.486	66.56
844.662	101.37
844.838	68.61
845.013	107.52
845.189	33.79
845.365	156.67
845.541	35.84
845.716	66.56
845.892	115.71
846.068	-5.12
846.244	-13.31
846.419	50.18
846.595	-13.31
846.77	48.13
846.946	111.61
847.122	84.99
847.297	84.99
847.473	134.14
847.648	1.02
847.824	78.85
847.999	35.84
848.175	48.13
848.35	50.18
848.526	7.17
848.701	50.18
848.876	82.94
849.052	58.37
849.227	-17.41
849.403	93.18
849.578	27.65
849.753	136.19
849.929	56.32
850.104	70.65
850.279	164.86
850.454	39.94
850.63	152.57
850.805	-1.02
850.98	17.41
851.155	58.37
851.33	44.03
851.505	46.08
851.681	58.37
851.856	-13.31
852.031	119.81
852.206	74.75
852.381	-7.17
852.556	56.32
852.731	25.6
852.906	31.74
853.081	9.22
853.256	93.18
853.431	27.65
853.606	39.94
853.781	41.98
853.956	-27.65
854.131	62.46
854.305	17.41
854.48	50.18
854.655	-3.07
854.83	-27.65
855.005	25.6
855.18	33.79
855.354	60.42
855.529	29.7
855.704	23.55
855.879	72.7
856.053	48.13
856.228	21.5
856.403	66.56
856.577	19.46
856.752	41.98
856.926	-7.17
857.101	107.52
857.276	54.27
857.45	-54.27
857.625	107.52
857.799	39.94
857.974	50.18
858.148	-9.22
858.323	21.5
858.497	1.02
858.672	31.74
858.846	-21.5
859.02	-15.36
859.195	29.7
859.369	74.75
859.543	35.84
859.718	41.98
859.892	72.7
860.066	78.85
860.241	50.18
860.415	-48.13
860.589	-13.31
860.763	50.18
860.938	-62.46
861.112	25.6
861.286	33.79
861.46	-7.17
861.634	31.74
861.808	95.23
861.982	68.61
862.157	-7.17
862.331	27.65
862.505	-46.08
862.679	-37.89
862.853	25.6
863.027	-7.17
863.201	111.61
863.375	-15.36
863.549	58.37
863.722	-13.31
863.896	58.37
864.07	60.42
864.244	29.7
864.418	21.5
864.592	13.31
864.766	99.33
864.939	-50.18
865.113	-1.02
865.287	52.22
865.461	23.55
865.634	3.07
865.808	1.02
865.982	9.22
866.156	1.02
866.329	13.31
866.503	3.07
866.676	80.89
866.85	50.18
867.024	1.02
867.197	50.18
867.371	58.37
867.544	52.22
867.718	-11.26
867.891	82.94
868.065	-3.07
868.238	60.42
868.412	101.37
868.585	-23.55
868.759	-7.17
868.932	-23.55
869.105	-37.89
869.279	15.36
869.452	-56.32
869.625	19.46
869.799	17.41
869.972	-3.07
870.145	-72.7
870.319	93.18
870.492	41.98
870.665	21.5
870.838	46.08
871.011	-41.98
871.185	-31.74
871.358	29.7
871.531	50.18
871.704	-87.04
871.877	25.6
872.05	-21.5
872.223	19.46
872.396	9.22
872.569	58.37
872.742	39.94
872.915	109.57
873.088	37.89
873.261	-105.47
873.434	66.56
873.607	-23.55
873.78	50.18
873.953	27.65
874.126	-21.5
874.299	3.07
874.471	27.65
874.644	9.22
874.817	46.08
874.99	68.61
875.163	1.02
875.335	39.94
875.508	-15.36
875.681	27.65
875.853	27.65
876.026	-31.74
876.199	52.22
876.371	44.03
876.544	-39.94
876.717	27.65
876.889	11.26
877.062	13.31
877.234	-7.17
877.407	17.41
877.579	11.26
877.752	-15.36
877.924	13.31
878.097	11.26
878.269	33.79
878.442	33.79
878.614	9.22
878.786	-3.07
878.959	23.55
879.131	70.65
879.303	-3.07
879.476	44.03
879.648	13.31
879.82	35.84
879.993	84.99
880.165	-15.36
880.337	-15.36
880.509	9.22
880.681	50.18
880.854	-15.36
881.026	17.41
881.198	91.13
881.37	89.09
881.542	54.27
881.714	-9.22
881.886	58.37
882.058	72.7
882.23	46.08
882.402	3.07
882.574	89.09
882.746	-15.36
882.918	17.41
883.09	70.65
883.262	19.46
883.434	33.79
883.606	-78.85
883.778	1.02
883.95	74.75
884.122	17.41
884.293	27.65
884.465	41.98
884.637	74.75
884.809	15.36
884.98	-13.31
885.152	-27.65
885.324	33.79
885.496	44.03
885.667	-46.08
885.839	-19.46
886.011	64.51
886.182	19.46
886.354	82.94
886.525	3.07
886.697	54.27
886.869	11.26
887.04	33.79
887.212	78.85
887.383	76.8
887.555	58.37
887.726	11.26
887.897	1.02
888.069	91.13
888.24	48.13
888.412	44.03
888.583	-9.22
888.754	21.5
888.926	-72.7
889.097	-29.7
889.268	11.26
889.44	33.79
889.611	-21.5
889.782	9.22
889.953	46.08
890.125	91.13
890.296	25.6
890.467	-52.22
890.638	60.42
890.809	-13.31
890.98	35.84
891.151	31.74
891.323	50.18
891.494	58.37
891.665	27.65
891.836	-64.51
892.007	5.12
892.178	50.18
892.349	62.46
892.52	3.07
892.691	21.5
892.862	-89.09
893.032	-76.8
893.203	56.32
893.374	17.41
893.545	99.33
893.716	17.41
893.887	-21.5
894.057	-7.17
894.228	-31.74
894.399	17.41
894.57	93.18
894.74	-7.17
894.911	-11.26
895.082	1.02
895.253	-15.36
895.423	99.33
895.594	11.26
895.764	-37.89
895.935	3.07
896.106	-7.17
896.276	-80.89
896.447	-35.84
896.617	19.46
896.788	-46.08
896.958	52.22
897.129	105.47
897.299	19.46
897.47	13.31
897.64	136.19
897.81	37.89
897.981	95.23
898.151	39.94
898.322	35.84
898.492	35.84
898.662	-7.17
898.832	-13.31
899.003	27.65
899.173	91.13
899.343	-3.07
899.513	-35.84
