Data from USB4F104151__93__14-30-43-369.txt Node

Date: Thu Mar 13 14:30:43 EDT 2025
User: louis
Spectrometer: USB4F10415
Trigger mode: 4
Integration Time (sec): 2.500000E-2
Scans to average: 1
Electric dark correction enabled: true
Nonlinearity correction enabled: false
Boxcar width: 0
XAxis mode: Wavelengths
Number of Pixels in Spectrum: 3648
>>>>>Begin Spectral Data<<<<<
178.204	-130.05
178.424	-130.05
178.644	-130.05
178.864	-119.81
179.084	-177.15
179.304	56.32
179.524	-21.5
179.744	5.12
179.964	-68.61
180.184	39.94
180.404	11.26
180.624	3.07
180.844	-1.02
181.064	-41.98
181.283	-21.5
181.503	-37.89
181.723	76.8
181.943	11.26
182.163	27.65
182.383	44.03
182.602	29.7
182.822	23.55
183.042	44.03
183.262	-1.02
183.482	68.61
183.701	27.65
183.921	-31.74
184.141	64.51
184.361	21.5
184.58	52.22
184.8	17.41
185.02	80.89
185.239	105.47
185.459	35.84
185.679	109.57
185.898	-29.7
186.118	37.89
186.338	-25.6
186.557	15.36
186.777	-39.94
186.997	39.94
187.216	-21.5
187.436	138.24
187.655	35.84
187.875	87.04
188.095	64.51
188.314	64.51
188.534	101.37
188.753	54.27
188.973	35.84
189.192	146.43
189.412	-103.42
189.631	35.84
189.851	111.61
190.07	62.46
190.29	-21.5
190.509	11.26
190.729	29.7
190.948	95.23
191.168	152.57
191.387	33.79
191.607	37.89
191.826	19.46
192.045	-11.26
192.265	52.22
192.484	46.08
192.704	134.14
192.923	5.12
193.142	84.99
193.362	27.65
193.581	13.31
193.8	93.18
194.02	-5.12
194.239	19.46
194.458	3.07
194.678	21.5
194.897	87.04
195.116	37.89
195.335	37.89
195.555	60.42
195.774	56.32
195.993	68.61
196.212	107.52
196.432	56.32
196.651	76.8
196.87	93.18
197.089	91.13
197.308	84.99
197.528	19.46
197.747	-21.5
197.966	-3.07
198.185	162.81
198.404	60.42
198.623	70.65
198.842	19.46
199.062	9.22
199.281	158.72
199.5	19.46
199.719	23.55
199.938	93.18
200.157	11.26
200.376	19.46
200.595	117.76
200.814	19.46
201.033	35.84
201.252	95.23
201.471	27.65
201.69	21.5
201.909	64.51
202.128	52.22
202.347	27.65
202.566	68.61
202.785	3.07
203.004	35.84
203.223	125.95
203.442	11.26
203.661	-3.07
203.879	37.89
204.098	64.51
204.317	89.09
204.536	29.7
204.755	31.74
204.974	-9.22
205.193	74.75
205.411	89.09
205.63	97.28
205.849	68.61
206.068	-21.5
206.287	35.84
206.505	84.99
206.724	39.94
206.943	125.95
207.162	-41.98
207.381	-35.84
207.599	44.03
207.818	15.36
208.037	50.18
208.255	-13.31
208.474	5.12
208.693	52.22
208.911	3.07
209.13	-70.65
209.349	17.41
209.567	19.46
209.786	93.18
210.005	-13.31
210.223	93.18
210.442	33.79
210.661	76.8
210.879	35.84
211.098	68.61
211.316	-11.26
211.535	56.32
211.753	-9.22
211.972	1.02
212.191	-27.65
212.409	37.89
212.628	56.32
212.846	-9.22
213.065	82.94
213.283	146.43
213.502	-21.5
213.72	1.02
213.938	52.22
214.157	23.55
214.375	62.46
214.594	76.8
214.812	78.85
215.031	46.08
215.249	-9.22
215.467	-3.07
215.686	95.23
215.904	89.09
216.122	29.7
216.341	119.81
216.559	46.08
216.778	109.57
216.996	25.6
217.214	27.65
217.432	5.12
217.651	-21.5
217.869	44.03
218.087	19.46
218.306	52.22
218.524	11.26
218.742	39.94
218.96	-29.7
219.179	27.65
219.397	-3.07
219.615	60.42
219.833	7.17
220.051	54.27
220.27	105.47
220.488	62.46
220.706	68.61
220.924	11.26
221.142	44.03
221.36	76.8
221.578	1.02
221.796	93.18
222.015	35.84
222.233	68.61
222.451	84.99
222.669	29.7
222.887	56.32
223.105	95.23
223.323	60.42
223.541	-29.7
223.759	64.51
223.977	-13.31
224.195	11.26
224.413	37.89
224.631	101.37
224.849	60.42
225.067	119.81
225.285	25.6
225.503	23.55
225.721	21.5
225.939	80.89
226.157	60.42
226.375	181.25
226.592	39.94
226.81	52.22
227.028	121.85
227.246	78.85
227.464	-5.12
227.682	25.6
227.9	-13.31
228.117	11.26
228.335	37.89
228.553	-5.12
228.771	37.89
228.989	37.89
229.206	84.99
229.424	23.55
229.642	39.94
229.86	54.27
230.077	19.46
230.295	13.31
230.513	15.36
230.731	48.13
230.948	62.46
231.166	97.28
231.384	41.98
231.601	-5.12
231.819	142.33
232.037	-17.41
232.254	97.28
232.472	121.85
232.689	-5.12
232.907	80.89
233.125	68.61
233.342	93.18
233.56	11.26
233.777	37.89
233.995	84.99
234.213	31.74
234.43	46.08
234.648	68.61
234.865	31.74
235.083	84.99
235.3	41.98
235.518	29.7
235.735	7.17
235.953	95.23
236.17	-1.02
236.388	3.07
236.605	5.12
236.822	128
237.04	70.65
237.257	27.65
237.475	-13.31
237.692	29.7
237.909	87.04
238.127	-13.31
238.344	46.08
238.562	29.7
238.779	-33.79
238.996	-3.07
239.214	11.26
239.431	93.18
239.648	7.17
239.865	150.53
240.083	13.31
240.3	27.65
240.517	35.84
240.735	27.65
240.952	62.46
241.169	76.8
241.386	-33.79
241.603	19.46
241.821	37.89
242.038	68.61
242.255	33.79
242.472	-62.46
242.689	46.08
242.907	-1.02
243.124	9.22
243.341	50.18
243.558	76.8
243.775	76.8
243.992	15.36
244.209	35.84
244.426	60.42
244.643	56.32
244.86	74.75
245.078	37.89
245.295	39.94
245.512	27.65
245.729	-52.22
245.946	68.61
246.163	109.57
246.38	95.23
246.597	56.32
246.814	11.26
247.031	66.56
247.248	-21.5
247.464	78.85
247.681	52.22
247.898	109.57
248.115	-3.07
248.332	17.41
248.549	93.18
248.766	60.42
248.983	3.07
249.2	-7.17
249.417	-3.07
249.633	19.46
249.85	39.94
250.067	58.37
250.284	23.55
250.501	54.27
250.717	84.99
250.934	-25.6
251.151	-29.7
251.368	101.37
251.585	54.27
251.801	35.84
252.018	35.84
252.235	11.26
252.451	-5.12
252.668	66.56
252.885	70.65
253.102	56.32
253.318	64.51
253.535	-9.22
253.752	11.26
253.968	105.47
254.185	70.65
254.401	56.32
254.618	117.76
254.835	-1.02
255.051	72.7
255.268	35.84
255.484	60.42
255.701	27.65
255.917	35.84
256.134	13.31
256.351	7.17
256.567	-29.7
256.784	7.17
257	-13.31
257.217	101.37
257.433	9.22
257.65	-3.07
257.866	35.84
258.082	54.27
258.299	41.98
258.515	68.61
258.732	7.17
258.948	-27.65
259.165	54.27
259.381	11.26
259.597	19.46
259.814	48.13
260.03	101.37
260.246	109.57
260.463	95.23
260.679	93.18
260.895	15.36
261.112	-58.37
261.328	23.55
261.544	25.6
261.761	76.8
261.977	-7.17
262.193	-66.56
262.409	62.46
262.626	80.89
262.842	29.7
263.058	-17.41
263.274	84.99
263.49	89.09
263.707	21.5
263.923	76.8
264.139	31.74
264.355	19.46
264.571	56.32
264.787	64.51
265.004	111.61
265.22	7.17
265.436	78.85
265.652	35.84
265.868	91.13
266.084	68.61
266.3	37.89
266.516	-3.07
266.732	37.89
266.948	19.46
267.164	84.99
267.38	72.7
267.596	23.55
267.812	171.01
268.028	44.03
268.244	72.7
268.46	84.99
268.676	52.22
268.892	29.7
269.108	3.07
269.324	3.07
269.54	13.31
269.756	68.61
269.972	-3.07
270.188	37.89
270.403	29.7
270.619	46.08
270.835	3.07
271.051	5.12
271.267	56.32
271.483	11.26
271.698	91.13
271.914	39.94
272.13	-29.7
272.346	44.03
272.562	72.7
272.777	11.26
272.993	27.65
273.209	60.42
273.425	21.5
273.64	11.26
273.856	74.75
274.072	54.27
274.287	21.5
274.503	97.28
274.719	7.17
274.934	3.07
275.15	-46.08
275.366	87.04
275.581	5.12
275.797	52.22
276.012	68.61
276.228	19.46
276.444	-9.22
276.659	78.85
276.875	25.6
277.09	70.65
277.306	52.22
277.521	117.76
277.737	3.07
277.952	56.32
278.168	3.07
278.383	70.65
278.599	60.42
278.814	25.6
279.03	52.22
279.245	62.46
279.461	62.46
279.676	76.8
279.892	25.6
280.107	84.99
280.322	-11.26
280.538	37.89
280.753	11.26
280.969	46.08
281.184	23.55
281.399	103.42
281.615	27.65
281.83	-13.31
282.045	5.12
282.26	5.12
282.476	-41.98
282.691	78.85
282.906	76.8
283.122	89.09
283.337	60.42
283.552	48.13
283.767	-52.22
283.983	41.98
284.198	-23.55
284.413	44.03
284.628	-5.12
284.843	84.99
285.058	68.61
285.274	37.89
285.489	68.61
285.704	76.8
285.919	39.94
286.134	46.08
286.349	-33.79
286.564	87.04
286.779	207.87
286.995	-11.26
287.21	-35.84
287.425	84.99
287.64	-19.46
287.855	39.94
288.07	31.74
288.285	60.42
288.5	87.04
288.715	52.22
288.93	25.6
289.145	-58.37
289.36	130.05
289.575	62.46
289.79	72.7
290.004	7.17
290.219	68.61
290.434	-5.12
290.649	13.31
290.864	62.46
291.079	52.22
291.294	95.23
291.509	13.31
291.724	93.18
291.938	23.55
292.153	68.61
292.368	-21.5
292.583	29.7
292.798	23.55
293.012	68.61
293.227	-21.5
293.442	5.12
293.657	101.37
293.871	117.76
294.086	48.13
294.301	62.46
294.516	-17.41
294.73	76.8
294.945	7.17
295.16	101.37
295.374	95.23
295.589	76.8
295.804	95.23
296.018	64.51
296.233	23.55
296.447	52.22
296.662	37.89
296.877	23.55
297.091	44.03
297.306	11.26
297.52	50.18
297.735	35.84
297.949	33.79
298.164	3.07
298.378	52.22
298.593	-13.31
298.807	93.18
299.022	15.36
299.236	60.42
299.451	64.51
299.665	-19.46
299.88	134.14
300.094	103.42
300.309	27.65
300.523	60.42
300.737	-13.31
300.952	-9.22
301.166	95.23
301.381	5.12
301.595	121.85
301.809	95.23
302.024	-5.12
302.238	15.36
302.452	76.8
302.667	-5.12
302.881	62.46
303.095	31.74
303.309	84.99
303.524	103.42
303.738	7.17
303.952	27.65
304.166	54.27
304.381	-56.32
304.595	35.84
304.809	-13.31
305.023	68.61
305.237	-21.5
305.452	-29.7
305.666	70.65
305.88	-11.26
306.094	37.89
306.308	109.57
306.522	91.13
306.736	44.03
306.95	11.26
307.164	3.07
307.379	19.46
307.593	150.53
307.807	109.57
308.021	44.03
308.235	7.17
308.449	33.79
308.663	101.37
308.877	136.19
309.091	109.57
309.305	76.8
309.519	-19.46
309.733	-21.5
309.947	1.02
310.161	70.65
310.374	23.55
310.588	93.18
310.802	44.03
311.016	52.22
311.23	93.18
311.444	13.31
311.658	117.76
311.872	113.66
312.085	80.89
312.299	68.61
312.513	97.28
312.727	35.84
312.941	-21.5
313.154	11.26
313.368	39.94
313.582	60.42
313.796	130.05
314.009	31.74
314.223	142.33
314.437	140.29
314.651	39.94
314.864	3.07
315.078	35.84
315.292	125.95
315.505	119.81
315.719	103.42
315.933	95.23
316.146	-1.02
316.36	35.84
316.573	103.42
316.787	76.8
317.001	60.42
317.214	52.22
317.428	39.94
317.641	52.22
317.855	-50.18
318.068	15.36
318.282	60.42
318.495	54.27
318.709	109.57
318.922	13.31
319.136	148.48
319.349	87.04
319.563	64.51
319.776	134.14
319.99	-17.41
320.203	84.99
320.417	56.32
320.63	109.57
320.843	142.33
321.057	11.26
321.27	78.85
321.483	89.09
321.697	175.1
321.91	62.46
322.124	117.76
322.337	29.7
322.55	23.55
322.763	64.51
322.977	56.32
323.19	-5.12
323.403	76.8
323.617	101.37
323.83	105.47
324.043	15.36
324.256	72.7
324.469	84.99
324.683	84.99
324.896	60.42
325.109	31.74
325.322	5.12
325.535	29.7
325.748	87.04
325.962	31.74
326.175	44.03
326.388	35.84
326.601	50.18
326.814	21.5
327.027	84.99
327.24	134.14
327.453	29.7
327.666	39.94
327.879	101.37
328.092	46.08
328.305	142.33
328.518	11.26
328.731	101.37
328.944	72.7
329.157	41.98
329.37	54.27
329.583	76.8
329.796	64.51
330.009	27.65
330.222	78.85
330.435	48.13
330.648	72.7
330.861	37.89
331.073	-3.07
331.286	74.75
331.499	3.07
331.712	-35.84
331.925	54.27
332.138	35.84
332.35	142.33
332.563	-5.12
332.776	46.08
332.989	46.08
333.202	60.42
333.414	58.37
333.627	128
333.84	27.65
334.053	62.46
334.265	48.13
334.478	76.8
334.691	54.27
334.903	70.65
335.116	31.74
335.329	39.94
335.541	101.37
335.754	76.8
335.966	64.51
336.179	15.36
336.392	41.98
336.604	97.28
336.817	56.32
337.029	103.42
337.242	48.13
337.454	101.37
337.667	56.32
337.88	25.6
338.092	19.46
338.305	52.22
338.517	3.07
338.729	68.61
338.942	68.61
339.154	-3.07
339.367	60.42
339.579	76.8
339.792	113.66
340.004	19.46
340.217	37.89
340.429	84.99
340.641	109.57
340.854	35.84
341.066	31.74
341.278	62.46
341.491	187.39
341.703	44.03
341.915	15.36
342.128	162.81
342.34	29.7
342.552	52.22
342.764	64.51
342.977	76.8
343.189	44.03
343.401	62.46
343.613	1.02
343.826	31.74
344.038	-9.22
344.25	84.99
344.462	-7.17
344.674	35.84
344.886	27.65
345.099	70.65
345.311	21.5
345.523	56.32
345.735	60.42
345.947	89.09
346.159	19.46
346.371	64.51
346.583	-17.41
346.795	111.61
347.007	11.26
347.219	84.99
347.431	177.15
347.643	105.47
347.855	27.65
348.067	52.22
348.279	-54.27
348.491	70.65
348.703	84.99
348.915	35.84
349.127	93.18
349.339	35.84
349.551	89.09
349.763	111.61
349.975	107.52
350.187	62.46
350.399	50.18
350.61	27.65
350.822	54.27
351.034	128
351.246	7.17
351.458	23.55
351.669	60.42
351.881	109.57
352.093	158.72
352.305	68.61
352.517	87.04
352.728	152.57
352.94	68.61
353.152	72.7
353.363	101.37
353.575	97.28
353.787	74.75
353.999	48.13
354.21	35.84
354.422	25.6
354.633	84.99
354.845	84.99
355.057	84.99
355.268	119.81
355.48	87.04
355.692	15.36
355.903	72.7
356.115	109.57
356.326	-29.7
356.538	105.47
356.749	37.89
356.961	84.99
357.172	76.8
357.384	62.46
357.595	82.94
357.807	128
358.018	60.42
358.23	125.95
358.441	177.15
358.653	44.03
358.864	68.61
359.075	44.03
359.287	-5.12
359.498	117.76
359.709	99.33
359.921	136.19
360.132	-3.07
360.344	31.74
360.555	91.13
360.766	27.65
360.977	3.07
361.189	80.89
361.4	101.37
361.611	87.04
361.823	33.79
362.034	80.89
362.245	-46.08
362.456	1.02
362.667	101.37
362.879	27.65
363.09	29.7
363.301	13.31
363.512	19.46
363.723	37.89
363.935	54.27
364.146	54.27
364.357	60.42
364.568	76.8
364.779	78.85
364.99	46.08
365.201	52.22
365.412	33.79
365.623	-1.02
365.834	84.99
366.045	27.65
366.256	78.85
366.467	78.85
366.678	37.89
366.889	41.98
367.1	31.74
367.311	109.57
367.522	87.04
367.733	33.79
367.944	7.17
368.155	111.61
368.366	87.04
368.577	117.76
368.788	-17.41
368.999	54.27
369.209	35.84
369.42	76.8
369.631	101.37
369.842	93.18
370.053	99.33
370.264	128
370.474	70.65
370.685	93.18
370.896	27.65
371.107	84.99
371.317	101.37
371.528	87.04
371.739	97.28
371.95	138.24
372.16	19.46
372.371	76.8
372.582	54.27
372.792	84.99
373.003	130.05
373.214	68.61
373.424	113.66
373.635	29.7
373.846	109.57
374.056	-5.12
374.267	60.42
374.477	89.09
374.688	35.84
374.898	52.22
375.109	27.65
375.319	-3.07
375.53	171.01
375.74	105.47
375.951	56.32
376.161	62.46
376.372	101.37
376.582	39.94
376.793	56.32
377.003	29.7
377.214	78.85
377.424	154.62
377.635	-11.26
377.845	-5.12
378.055	117.76
378.266	-29.7
378.476	21.5
378.686	89.09
378.897	39.94
379.107	111.61
379.317	84.99
379.528	29.7
379.738	70.65
379.948	35.84
380.158	93.18
380.369	89.09
380.579	103.42
380.789	128
380.999	68.61
381.21	76.8
381.42	95.23
381.63	-48.13
381.84	109.57
382.05	136.19
382.261	80.89
382.471	109.57
382.681	62.46
382.891	109.57
383.101	70.65
383.311	41.98
383.521	-48.13
383.731	111.61
383.941	17.41
384.151	80.89
384.361	7.17
384.571	78.85
384.781	60.42
384.991	56.32
385.201	158.72
385.411	87.04
385.621	119.81
385.831	89.09
386.041	99.33
386.251	101.37
386.461	119.81
386.671	111.61
386.881	109.57
387.091	13.31
387.301	119.81
387.511	109.57
387.72	125.95
387.93	60.42
388.14	48.13
388.35	56.32
388.56	121.85
388.769	33.79
388.979	101.37
389.189	109.57
389.399	87.04
389.609	119.81
389.818	76.8
390.028	78.85
390.238	39.94
390.447	46.08
390.657	64.51
390.867	60.42
391.076	52.22
391.286	93.18
391.496	64.51
391.705	35.84
391.915	115.71
392.125	115.71
392.334	76.8
392.544	168.96
392.753	125.95
392.963	44.03
393.172	109.57
393.382	23.55
393.591	160.77
393.801	50.18
394.01	154.62
394.22	105.47
394.429	93.18
394.639	5.12
394.848	185.34
395.058	62.46
395.267	142.33
395.477	158.72
395.686	166.91
395.895	162.81
396.105	197.63
396.314	80.89
396.524	101.37
396.733	136.19
396.942	160.77
397.152	140.29
397.361	130.05
397.57	101.37
397.78	168.96
397.989	128
398.198	136.19
398.407	58.37
398.617	183.29
398.826	138.24
399.035	78.85
399.244	125.95
399.453	152.57
399.663	84.99
399.872	138.24
400.081	107.52
400.29	211.96
400.499	134.14
400.708	175.1
400.917	103.42
401.127	220.16
401.336	125.95
401.545	209.92
401.754	218.11
401.963	134.14
402.172	207.87
402.381	125.95
402.59	134.14
402.799	199.68
403.008	181.25
403.217	101.37
403.426	160.77
403.635	209.92
403.844	160.77
404.053	156.67
404.262	185.34
404.471	306.17
404.68	191.49
404.888	207.87
405.097	146.43
405.306	191.49
405.515	187.39
405.724	101.37
405.933	283.64
406.142	257.02
406.35	246.78
406.559	191.49
406.768	316.41
406.977	236.54
407.185	246.78
407.394	322.56
407.603	232.44
407.812	328.7
408.02	351.23
408.229	336.89
408.438	246.78
408.646	433.15
408.855	388.09
409.064	373.75
409.272	324.6
409.481	396.28
409.69	406.52
409.898	390.14
410.107	418.81
410.315	408.57
410.524	418.81
410.733	508.92
410.941	478.2
411.15	424.95
411.358	588.79
411.567	562.17
411.775	515.06
411.984	633.85
412.192	625.65
412.401	545.78
412.609	678.9
412.818	674.81
413.026	660.47
413.234	689.14
413.443	695.29
413.651	646.13
413.86	719.86
414.068	895.99
414.276	773.11
414.485	744.44
414.693	861.17
414.901	1027.06
415.11	998.38
415.318	1018.86
415.526	924.66
415.734	1108.98
415.943	967.67
416.151	1135.6
416.359	1104.88
416.567	1199.09
416.776	1240.05
416.984	1297.39
417.192	1362.92
417.4	1407.98
417.608	1352.68
417.817	1373.16
418.025	1537
418.233	1588.2
418.441	1455.08
418.649	1596.39
418.857	1790.95
419.065	1817.57
419.273	1723.37
419.481	1833.96
419.689	2036.7
419.897	2036.7
420.105	2010.08
420.313	2034.66
420.521	2202.59
420.729	2198.49
420.937	2261.98
421.145	2323.42
421.353	2415.58
421.561	2558.94
421.769	2743.25
421.977	2737.11
422.185	2630.62
422.393	2970.58
422.601	3060.69
422.809	3079.12
423.017	3118.03
423.224	3226.57
423.432	3435.47
423.64	3298.25
423.848	3623.88
424.056	3437.52
424.263	3947.46
424.471	3736.52
424.679	3838.92
424.887	4109.25
425.094	4201.41
425.302	4336.57
425.51	4393.92
425.718	4434.88
425.925	4641.72
426.133	4705.21
426.341	4938.68
426.548	5262.26
426.756	5184.43
426.964	5335.98
427.171	5434.29
427.379	5899.17
427.586	5827.5
427.794	6101.92
428.001	6452.13
428.209	6615.96
428.417	6458.27
428.624	7093.14
428.832	7009.17
429.039	6898.58
429.247	6949.78
429.454	7650.19
429.662	8110.98
429.869	7682.95
430.076	8104.84
430.284	7992.2
430.491	8205.19
430.699	8721.27
430.906	8682.36
431.114	8555.39
431.321	9067.38
431.528	9259.89
431.736	9849.71
431.943	10353.51
432.15	10042.21
432.358	10095.46
432.565	10773.34
432.772	10347.36
432.979	11012.95
433.187	11244.37
433.394	11203.41
433.601	12016.46
433.808	12241.73
434.016	12028.74
434.223	12602.18
434.43	13085.5
434.637	13009.72
434.844	13988.65
435.052	14181.16
435.259	14093.1
435.466	14199.59
435.673	13953.84
435.88	14873.37
436.087	15723.28
436.294	15723.28
436.501	15330.07
436.708	15588.11
436.915	16237.32
437.122	17079.04
437.329	16675.59
437.537	17382.13
437.743	17787.63
437.95	17433.33
438.157	18322.15
438.364	19110.62
438.571	18858.72
438.778	19106.52
438.985	20921.02
439.192	19999.44
439.399	20679.36
439.606	20114.13
439.813	21170.88
440.02	22741.67
440.227	22239.92
440.433	21846.71
440.64	22559.4
440.847	22653.61
441.054	22846.12
441.261	24461.96
441.467	24158.86
441.674	24863.36
441.881	25918.07
442.088	25565.82
442.294	25397.88
442.501	26002.04
442.708	26708.58
442.914	27351.65
443.121	28899.91
443.328	28064.34
443.534	30048.82
443.741	29004.36
443.948	28566.09
444.154	30626.35
444.361	30536.24
444.568	30554.67
444.774	30577.2
444.981	31263.27
445.187	32170.52
445.394	33262.08
445.6	33024.52
445.807	36039.13
446.013	34695.66
446.22	35146.22
446.426	36266.45
446.633	36819.41
446.839	38263.22
447.046	36485.59
447.252	38666.67
447.459	38875.57
447.665	38468.02
447.871	40100.25
448.078	41826.69
448.284	39639.46
448.491	40477.08
448.697	42594.68
448.903	43024.75
449.11	43235.69
449.316	42484.09
449.522	43123.05
449.728	44321.12
449.935	44667.22
450.141	44779.86
450.347	45363.53
450.553	44198.24
450.76	44941.65
450.966	46068.03
451.172	45539.66
451.378	46371.13
451.584	45760.84
451.791	46608.7
451.997	46932.28
452.203	47690.02
452.409	47313.2
452.615	47089.97
452.821	45617.48
453.027	45107.54
453.233	47511.85
453.44	45424.97
453.646	46104.9
453.852	46137.66
454.058	46956.85
454.264	45470.03
454.47	46725.43
454.676	45369.68
454.882	46786.87
455.088	42721.65
455.294	43776.36
455.5	44149.09
455.705	44783.96
455.911	42803.57
456.117	42054.01
456.323	41435.53
456.529	39328.17
456.735	40948.11
456.941	40194.46
457.147	39256.49
457.352	38289.85
457.558	37892.54
457.764	37851.58
457.97	36995.53
458.176	36229.59
458.381	36458.96
458.587	34574.83
458.793	34552.3
458.999	32688.65
459.204	34884.08
459.41	34028.02
459.616	32004.63
459.821	31636
460.027	31666.72
460.233	31148.58
460.438	29678.14
460.644	29954.61
460.85	28564.04
461.055	28113.49
461.261	27953.75
461.466	25961.08
461.672	25246.33
461.878	26872.42
462.083	25244.29
462.289	24576.65
462.494	24586.89
462.7	23415.45
462.905	22942.37
463.111	23593.62
463.316	23624.34
463.522	23141.02
463.727	23448.22
463.932	22786.72
464.138	23018.14
464.343	22997.67
464.549	22092.46
464.754	22946.47
464.959	22459.05
465.165	22379.18
465.37	21619.38
465.575	21129.92
465.781	21828.27
465.986	22223.53
466.191	21174.97
466.397	20751.04
466.602	19780.31
466.807	20667.08
467.012	20394.7
467.218	20370.12
467.423	19991.25
467.628	20017.87
467.833	21289.66
468.038	20316.87
468.244	19733.2
468.449	20597.45
468.654	19843.79
468.859	19444.44
469.064	19641.04
469.269	18776.8
469.474	18920.16
469.679	19262.17
469.885	18582.24
470.09	18957.02
470.295	18836.19
470.5	18676.45
470.705	18606.82
470.91	18070.25
471.115	17992.43
471.32	18299.62
471.525	17904.37
471.73	17666.8
471.935	17603.32
472.139	16943.87
472.344	17136.38
472.549	16960.25
472.754	16823.04
472.959	16382.73
473.164	16554.76
473.369	15969.04
473.574	16481.03
473.778	16284.42
473.983	16233.22
474.188	16177.93
474.393	15319.83
474.598	15579.92
474.802	15227.67
475.007	15112.99
475.212	15346.45
475.417	14750.49
475.621	14582.56
475.826	14998.3
476.031	14543.65
476.235	14064.43
476.44	14588.71
476.645	14035.75
476.849	13933.36
477.054	14050.09
477.259	13785.9
477.463	13841.2
477.668	13421.36
477.872	13583.15
478.077	13265.72
478.282	12966.71
478.486	12915.51
478.691	12979
478.895	12776.25
479.1	12692.29
479.304	12725.05
479.509	12262.21
479.713	12581.7
479.918	12294.98
480.122	12184.39
480.326	12188.49
480.531	12577.6
480.735	12047.18
480.94	12200.77
481.144	12442.43
481.348	11688.78
481.553	11940.68
481.757	11838.28
481.961	11905.87
482.166	11975.5
482.37	11967.31
482.574	11594.58
482.778	11668.3
482.983	11791.18
483.187	11826
483.391	11860.81
483.595	11750.22
483.8	11500.37
484.004	11768.65
484.208	11766.6
484.412	11764.56
484.616	11897.67
484.821	11694.93
485.025	11625.29
485.229	11924.3
485.433	11735.88
485.637	11711.31
485.841	11639.63
486.045	11653.97
486.249	11703.12
486.453	11623.25
486.657	11606.86
486.861	11725.65
487.065	11365.2
487.269	11656.01
487.473	11279.19
487.677	11631.44
487.881	11873.1
488.085	11492.18
488.289	11725.65
488.493	11496.27
488.697	11844.43
488.901	11572.05
489.105	11733.84
489.309	11817.8
489.512	11561.81
489.716	11680.59
489.92	11789.13
490.124	11729.74
490.328	11981.64
490.531	11758.41
490.735	11772.75
490.939	11969.35
491.143	11926.35
491.346	11782.99
491.55	12237.64
491.754	12129.09
491.958	12088.14
492.161	12176.2
492.365	11973.45
492.569	12086.09
492.772	12151.62
492.976	12348.23
493.18	12176.2
493.383	12417.86
493.587	12450.63
493.79	12602.18
493.994	12290.88
494.197	12743.49
494.401	12804.92
494.605	12692.29
494.808	12997.43
495.012	12892.99
495.215	13019.96
495.419	12950.33
495.622	13101.88
495.825	13241.14
496.029	13198.13
496.232	13456.18
496.436	13515.57
496.639	13945.64
496.843	13660.98
497.046	13945.64
497.249	14054.19
497.453	14254.89
497.656	14140.2
497.859	14213.93
498.063	14551.84
498.266	14611.23
498.469	14535.46
498.673	15004.44
498.876	15112.99
499.079	15258.39
499.282	15094.55
499.485	15715.09
499.689	15485.72
499.892	15854.35
500.095	15715.09
500.298	16182.03
500.501	15969.04
500.705	16470.79
500.908	16689.92
501.111	16577.28
501.314	16808.7
501.517	16954.11
501.72	17287.93
501.923	16976.64
502.126	17629.94
502.329	17986.29
502.532	17617.65
502.735	17974
502.938	18182.89
503.141	18426.6
503.344	18682.59
503.547	18592.48
503.75	18825.95
503.953	19120.86
504.156	19190.49
504.359	19395.29
504.562	19550.93
504.765	20021.97
504.968	20466.38
505.17	20460.23
505.373	20421.32
505.576	20818.63
505.779	21031.62
505.982	21070.53
506.185	21459.64
506.387	21451.45
506.59	21734.07
506.793	22319.79
506.996	22074.03
507.198	22696.61
507.401	22583.98
507.604	22962.85
507.807	23247.52
508.009	23478.94
508.212	23382.68
508.415	24068.75
508.617	24003.22
508.82	24390.28
509.022	24095.38
509.225	25016.96
509.428	24973.95
509.63	25664.12
509.833	25049.73
510.035	26235.5
510.238	25700.98
510.44	26176.11
510.643	26350.19
510.845	26548.84
511.048	26354.29
511.25	27046.5
511.453	27286.11
511.655	28279.38
511.858	28093.01
512.06	28099.16
512.262	27945.56
512.465	28176.98
512.667	28910.15
512.87	29035.08
513.072	29153.86
513.274	29700.67
513.477	29829.69
513.679	30120.5
513.881	30335.54
514.084	30841.39
514.286	30409.26
514.488	31244.84
514.69	31699.48
514.893	31795.74
515.095	32092.69
515.297	32234
515.499	32356.88
515.701	32637.45
515.904	33104.39
516.106	33141.25
516.308	33556.99
516.51	34132.47
516.712	34204.15
516.914	34155
517.116	34965.99
517.318	34947.56
517.52	35172.84
517.722	35439.08
517.925	35633.63
518.127	36162.01
518.329	36461.01
518.531	36364.76
518.733	36780.49
518.935	36657.62
519.136	36993.48
519.338	37517.76
519.54	37616.07
519.742	37534.15
519.944	37841.34
520.146	38926.77
520.348	38867.37
520.55	38969.77
520.752	39063.98
520.954	39938.46
521.155	39571.88
521.357	39772.58
521.559	40194.46
521.761	40544.66
521.963	40409.5
522.164	40487.32
522.366	40180.12
522.568	41023.89
522.77	41132.43
522.971	41683.33
523.173	41400.71
523.375	41738.63
523.576	41517.45
523.778	42076.54
523.98	42557.81
524.181	42678.64
524.383	42049.92
524.584	42770.8
524.786	42723.7
524.988	42506.62
525.189	43137.39
525.391	43444.59
525.592	43106.67
525.794	43458.92
525.995	43940.19
526.197	43270.51
526.398	43956.58
526.6	43919.71
526.801	43665.77
527.003	44417.37
527.204	44196.19
527.406	43888.99
527.607	43837.8
527.808	44433.75
528.01	43762.02
528.211	44261.72
528.412	44908.88
528.614	44400.99
528.815	44585.3
529.016	44411.23
529.218	44443.99
529.419	44372.31
529.62	44663.13
529.822	44171.61
530.023	44579.16
530.224	44613.98
530.425	44241.24
530.626	44224.86
530.828	43655.53
531.029	44728.66
531.23	44048.74
531.431	44005.73
531.632	44304.73
531.833	44454.23
532.035	44263.77
532.236	44355.93
532.437	44374.36
532.638	44073.31
532.839	44392.79
533.04	44202.33
533.241	43596.13
533.442	44429.66
533.643	44212.57
533.844	43981.15
534.045	43731.3
534.246	43245.93
534.447	44226.91
534.648	43796.84
534.849	43772.26
535.05	43532.65
535.251	43704.68
535.451	43995.49
535.652	43960.67
535.853	43456.87
536.054	43450.73
536.255	43174.25
536.456	43268.46
536.657	43524.46
536.857	43147.63
537.058	43112.81
537.259	43192.68
537.46	43121.01
537.66	43018.61
537.861	42936.69
538.062	42891.63
538.263	43278.7
538.463	42744.18
538.664	42779
538.865	43331.95
539.065	42967.41
539.266	42379.64
539.466	43223.4
539.667	42621.3
539.868	42910.07
540.068	42547.57
540.269	42402.17
540.469	42848.63
540.67	42297.72
540.87	42877.3
541.071	42432.89
541.271	42400.12
541.472	42357.11
541.672	42539.38
541.873	42092.93
542.073	42031.49
542.274	42185.08
542.474	41992.58
542.675	42180.99
542.875	42164.6
543.075	42377.59
543.276	41709.96
543.476	42301.82
543.676	42006.91
543.877	42045.82
544.077	42262.91
544.277	41826.69
544.478	41820.55
544.678	42187.13
544.878	41873.79
545.078	42049.92
545.279	41699.72
545.479	41830.79
545.679	42131.84
545.879	41566.6
546.079	42037.63
546.28	42045.82
546.48	41394.57
546.68	42258.81
546.88	41937.28
547.08	41853.31
547.28	41439.62
547.48	41320.84
547.68	41650.56
547.88	41367.94
548.081	41886.08
548.281	41646.47
548.481	41490.82
548.681	41935.23
548.881	41634.18
549.081	41331.08
549.28	41605.51
549.48	41611.65
549.68	41439.62
549.88	42260.86
550.08	41714.05
550.28	41578.89
550.48	41707.91
550.68	41892.22
550.88	41865.6
551.08	41681.28
551.279	42240.38
551.479	41611.65
551.679	41849.22
551.879	42086.78
552.079	41927.04
552.278	41716.1
552.478	42129.79
552.678	41734.53
552.878	42027.39
553.077	41955.71
553.277	41935.23
553.477	42217.85
553.676	42289.53
553.876	42275.19
554.076	41890.18
554.275	41712
554.475	41828.74
554.674	42375.55
554.874	42451.32
555.074	42105.21
555.273	42160.51
555.473	42336.63
555.672	42185.08
555.872	42236.28
556.071	42297.72
556.271	42213.76
556.47	42254.72
556.67	41953.66
556.869	41961.86
557.068	42238.33
557.268	41929.09
557.467	41980.29
557.667	42238.33
557.866	42664.31
558.065	42312.06
558.265	42058.11
558.464	41988.48
558.663	42670.45
558.863	42060.16
559.062	43092.33
559.261	41877.89
559.461	42426.74
559.66	41869.7
559.859	42660.21
560.058	42172.8
560.258	42418.55
560.457	42066.3
560.656	42197.37
560.855	42160.51
561.054	42377.59
561.253	41789.83
561.453	42217.85
561.652	42326.39
561.851	42410.36
562.05	41841.03
562.249	41730.44
562.448	42426.74
562.647	42441.08
562.846	41965.95
563.045	42070.4
563.244	41851.27
563.443	42490.23
563.642	41689.48
563.841	41707.91
564.04	42080.64
564.239	41937.28
564.438	41687.43
564.637	41959.81
564.836	42011.01
565.035	41462.15
565.234	41591.17
565.432	41765.25
565.631	41654.66
565.83	41533.83
566.029	41511.3
566.228	41451.91
566.427	41101.71
566.625	41224.59
566.824	40925.58
567.023	41658.76
567.222	40493.46
567.42	41494.92
567.619	40931.73
567.818	40796.56
568.016	41052.56
568.215	41210.25
568.414	40894.86
568.612	40851.86
568.811	40647.06
569.01	40829.33
569.208	40057.24
569.407	40604.05
569.605	40292.76
569.804	40698.26
570.002	40245.66
570.201	40372.63
570.4	40321.43
570.598	40024.48
570.797	39797.15
570.995	39563.68
571.193	39946.65
571.392	39836.06
571.59	39543.2
571.789	39905.7
571.987	39336.36
572.186	39563.68
572.384	39291.3
572.582	39186.86
572.781	39598.5
572.979	38914.48
573.177	38928.81
573.376	39567.78
573.574	39049.64
573.772	38627.76
573.971	38414.77
574.169	38261.18
574.367	38085.05
574.565	38660.53
574.763	38207.93
574.962	38498.74
575.16	37595.59
575.358	37720.51
575.556	37724.61
575.754	38134.2
575.952	37485
576.151	37657.03
576.349	37454.28
576.547	37298.63
576.745	37255.62
576.943	37323.21
577.141	37261.77
577.339	37272.01
577.537	36823.5
577.735	36897.23
577.933	36344.28
578.131	36221.4
578.329	36592.08
578.527	36329.94
578.725	36270.55
578.923	36641.23
579.121	36327.89
579.319	36127.19
579.516	36092.38
579.714	36143.58
579.912	36032.99
580.11	35752.41
580.308	35609.06
580.506	35447.27
580.704	35058.15
580.901	35342.82
581.099	35506.66
581.297	34906.6
581.495	34916.84
581.692	34927.08
581.89	34925.04
582.088	35252.71
582.285	34480.63
582.483	34882.03
582.681	34722.29
582.878	34376.18
583.076	34333.17
583.274	34585.07
583.471	33968.63
583.669	34331.12
583.866	33694.21
584.064	33980.92
584.262	33710.59
584.459	33673.73
584.657	33513.98
584.854	34071.03
585.052	33475.07
585.249	33583.62
585.447	33688.06
585.644	33004.04
585.841	33389.06
586.039	33591.81
586.236	33245.7
586.434	33001.99
586.631	32997.9
586.828	32789
587.026	32948.75
587.223	32721.42
587.42	32987.66
587.618	32799.24
587.815	32459.28
588.012	32188.95
588.21	32547.34
588.407	32463.38
588.604	32315.92
588.801	32178.71
588.999	32053.78
589.196	32012.82
589.393	32029.21
589.59	31896.09
589.787	31930.9
589.984	31834.65
590.182	31595.04
590.379	31552.03
590.576	31416.86
590.773	31257.12
590.97	31279.65
591.167	31414.82
591.364	31289.89
591.561	31484.45
591.758	31064.61
591.955	31220.26
592.152	31377.95
592.349	31132.2
592.546	30976.55
592.743	31169.06
592.94	30757.42
593.137	30878.25
593.334	30984.74
593.531	30284.34
593.727	30597.68
593.924	30941.74
594.121	30464.56
594.318	30468.66
594.515	30523.95
594.712	30968.36
594.908	30374.45
595.105	30534.19
595.302	30163.51
595.499	29854.26
595.696	30222.9
595.892	30136.88
596.089	30511.66
596.286	30132.79
596.482	30145.08
596.679	30202.42
596.876	30382.64
597.072	30042.68
597.269	29940.28
597.466	29827.64
597.662	29796.92
597.859	29987.38
598.055	29696.57
598.252	29942.33
598.448	30040.63
598.645	29848.12
598.841	29272.64
599.038	30001.72
599.234	29700.67
599.431	29444.67
599.627	29301.31
599.824	29794.87
600.02	29491.77
600.217	29876.79
600.413	29348.42
600.609	29631.04
600.806	29426.24
601.002	29487.68
601.198	29647.42
601.395	29286.98
601.591	29319.74
601.787	29684.28
601.984	29256.26
602.18	29596.22
602.376	29258.31
602.572	29125.19
602.769	29442.62
602.965	29401.66
603.161	29385.28
603.357	29252.16
603.553	29221.44
603.75	29403.71
603.946	29149.76
604.142	29424.19
604.338	28916.29
604.534	29573.69
604.73	29041.22
604.926	29194.82
605.122	29608.51
605.318	29307.46
605.514	29198.91
605.71	29172.29
605.906	29268.55
606.102	29258.31
606.298	29254.21
606.494	29499.97
606.69	29409.86
606.886	29526.59
607.082	29049.41
607.278	29696.57
607.474	29215.3
607.67	29563.45
607.866	29258.31
608.062	29624.89
608.257	29737.53
608.453	29176.39
608.649	29479.49
608.845	29307.46
609.041	29317.7
609.236	29428.29
609.432	29266.5
609.628	29522.49
609.824	29307.46
610.019	29475.39
610.215	29784.63
610.411	29432.38
610.606	29325.89
610.802	29751.87
610.998	29504.06
611.193	29758.01
611.389	29416
611.584	29522.49
611.78	29551.17
611.976	29772.35
612.171	29516.35
612.367	29678.14
612.562	29432.38
612.758	29243.97
612.953	29401.66
613.149	29424.19
613.344	29463.1
613.539	29870.65
613.735	29628.99
613.93	29669.95
614.126	29598.27
614.321	30106.16
614.517	29774.39
614.712	29686.33
614.907	29708.86
615.103	29413.95
615.298	29682.24
615.493	29655.61
615.688	29588.03
615.884	29798.97
616.079	29162.05
616.274	29405.76
616.47	29323.84
616.665	29258.31
616.86	29383.23
617.055	29487.68
617.25	29606.46
617.445	29672
617.641	28908.1
617.836	29715
618.031	28947.01
618.226	29319.74
618.421	28768.84
618.616	28916.29
618.811	28875.34
619.006	29196.87
619.201	28664.39
619.396	28877.38
619.591	28330.58
619.786	28623.44
619.981	27990.61
620.176	28803.66
620.371	28269.14
620.566	28170.83
620.761	28004.95
620.956	28219.99
621.151	27474.52
621.346	27722.33
621.541	27722.33
621.735	27886.17
621.93	27517.53
622.125	27482.72
622.32	27081.31
622.515	27460.19
622.709	27052.64
622.904	26823.27
623.099	26782.31
623.294	26884.71
623.488	26485.36
623.683	26643.05
623.878	26157.68
624.072	26225.26
624.267	26342
624.462	26040.95
624.656	26071.67
624.851	26133.11
625.046	25866.87
625.24	25748.09
625.435	25334.4
625.629	25172.61
625.824	25363.07
626.018	25289.34
626.213	24969.86
626.407	25414.27
626.602	24781.45
626.796	24824.45
626.991	24834.69
627.185	24529.55
627.38	24003.22
627.574	24173.2
627.768	24365.71
627.963	24189.58
628.157	23886.48
628.352	23837.33
628.546	23612.06
628.74	23870.1
628.935	23532.18
629.129	23673.49
629.323	23327.39
629.517	23243.42
629.712	23077.54
629.906	23153.31
630.1	22684.33
630.294	22694.57
630.489	22583.98
630.683	22555.3
630.877	22303.4
631.071	22145.71
631.265	22098.61
631.459	21920.43
631.653	21897.91
631.848	21971.63
632.042	21879.47
632.236	21721.78
632.43	21519.03
632.624	21576.37
632.818	20994.75
633.012	21048
633.206	21011.14
633.4	21224.12
633.594	20984.51
633.788	20916.93
633.982	20968.13
634.176	20695.75
634.369	20435.66
634.563	20306.63
634.757	20134.6
634.951	20142.8
635.145	20241.1
635.339	20237
635.533	19868.37
635.726	19761.87
635.92	19827.41
636.114	19577.56
636.308	19243.74
636.501	19641.04
636.695	19030.75
636.889	19264.22
637.083	19018.46
637.276	19206.87
637.47	18864.86
637.664	18606.82
637.857	18789.09
638.051	18586.34
638.244	18567.91
638.438	18340.58
638.632	18324.2
638.825	18086.64
639.019	18107.12
639.212	17767.15
639.406	17976.05
639.599	17812.21
639.793	17707.76
639.986	17638.13
640.18	17361.66
640.373	17740.53
640.567	16874.24
640.76	17015.55
640.954	17111.8
641.147	17068.8
641.34	16864
641.534	17074.94
641.727	16493.32
641.92	16608
642.114	16438.02
642.307	16595.71
642.5	16317.19
642.694	16298.76
642.887	16093.96
643.08	16233.22
643.273	16104.2
643.467	15864.59
643.66	15555.35
643.853	15731.47
644.046	15557.39
644.239	15502.1
644.432	15301.4
644.626	15219.48
644.819	15186.71
645.012	15246.1
645.205	15356.69
645.398	15010.59
645.591	14818.08
645.784	15024.92
645.977	14836.51
646.17	14603.04
646.363	14539.55
646.556	14414.63
646.749	14457.64
646.942	14545.7
647.135	14086.95
647.328	14037.8
647.521	14177.06
647.714	13916.97
647.907	13808.43
648.099	13570.86
648.292	13687.6
648.485	13759.28
648.678	13470.51
648.871	13372.21
649.064	13335.35
649.256	13771.57
649.449	13325.11
649.642	13056.82
649.835	13142.84
650.027	13163.32
650.22	13093.69
650.413	12997.43
650.605	13140.79
650.798	12692.29
650.991	12462.91
651.183	12686.14
651.376	12499.78
651.568	12497.73
651.761	12467.01
651.954	12260.16
652.146	12415.81
652.339	12235.59
652.531	12270.4
652.724	12249.93
652.916	11815.76
653.109	12057.42
653.301	11987.79
653.494	11950.92
653.686	11991.88
653.879	11692.88
654.071	11707.21
654.263	11461.46
654.456	11461.46
654.648	11580.24
654.84	11219.8
655.033	11570
655.225	11139.93
655.417	11371.35
655.61	11209.56
655.802	11197.27
655.994	11211.6
656.186	11066.2
656.379	10892.12
656.571	11111.25
656.763	10802.01
656.955	10771.29
657.148	10685.28
657.34	10597.21
657.532	10707.8
657.724	10644.32
657.916	10505.06
658.108	10435.42
658.3	10234.72
658.492	10447.71
658.684	10380.13
658.876	10165.09
659.068	10263.4
659.26	9890.67
659.452	10300.26
659.644	9974.63
659.836	9812.84
660.028	10031.97
660.22	9722.73
660.412	9818.99
660.604	9667.44
660.796	9763.69
660.988	9558.89
661.18	9433.97
661.372	9366.39
661.563	9587.57
661.755	9327.47
661.947	9440.11
662.139	9317.23
662.331	9288.56
662.522	9087.86
662.714	8950.65
662.906	8952.7
663.097	9085.81
663.289	8891.26
663.481	8866.68
663.673	8981.37
663.864	8668.03
664.056	8708.99
664.247	8641.4
664.439	8729.47
664.631	8563.58
664.822	8543.1
665.014	8668.03
665.205	8504.19
665.397	8473.47
665.588	8274.82
665.78	8536.96
665.971	8772.47
666.163	8258.43
666.354	8311.68
666.546	8371.07
666.737	8147.84
666.929	8055.69
667.12	7965.57
667.311	8055.69
667.503	7990.15
667.694	7943.05
667.885	7775.11
668.077	7934.85
668.268	7887.75
668.459	7773.07
668.651	7732.11
668.842	7779.21
669.033	7779.21
669.224	7517.07
669.416	7613.32
669.607	7558.03
669.798	7564.17
669.989	7472.01
670.18	7457.68
670.371	7424.91
670.563	7414.67
670.754	7515.02
670.945	7373.71
671.136	7492.49
671.327	7189.39
671.518	7166.87
671.709	7195.54
671.9	7224.21
672.091	7115.67
672.282	7072.66
672.473	7250.83
672.664	7148.43
672.855	7084.95
673.046	6992.79
673.237	6947.73
673.428	7013.27
673.619	7019.41
673.809	6863.77
674	6896.53
674.191	6841.24
674.382	6763.42
674.573	6716.31
674.764	6859.67
674.954	6785.94
675.145	6861.72
675.336	6658.97
675.527	6785.94
675.717	6679.45
675.908	6538.14
676.099	6699.93
676.289	6593.44
676.48	6626.2
676.671	6556.57
676.861	6714.27
677.052	6450.08
677.243	6611.87
677.433	6351.78
677.624	6538.14
677.814	6319.01
678.005	6511.52
678.195	6425.5
678.386	6372.25
678.576	6425.5
678.767	6458.27
678.957	6335.39
679.148	6218.66
679.338	6351.78
679.529	6218.66
679.719	6355.87
679.909	6116.26
680.1	6292.38
680.29	6278.05
680.481	6273.95
680.671	6282.14
680.861	6171.55
681.052	6202.27
681.242	6106.02
681.432	6151.07
681.622	6368.16
681.813	6056.87
682.003	6028.2
682.193	6097.83
682.383	6257.57
682.573	6052.77
682.764	5938.09
682.954	6087.59
683.144	6040.48
683.334	6081.44
683.524	6015.91
683.714	5956.52
683.904	5927.85
684.094	6091.68
684.284	5954.47
684.474	5921.7
684.664	5919.65
684.854	6169.51
685.044	5868.45
685.234	5807.02
685.424	5962.66
685.614	5927.85
685.804	6050.72
685.994	5847.97
686.184	5964.71
686.374	5813.16
686.564	5802.92
686.753	5766.06
686.943	5909.41
687.133	5710.76
687.323	5821.35
687.513	5649.32
687.702	5608.36
687.892	5573.55
688.082	5624.75
688.272	5516.2
688.461	5655.47
688.651	5661.61
688.841	5548.97
689.03	5624.75
689.22	5555.12
689.41	5401.52
689.599	5399.47
689.789	5514.16
689.979	5393.33
690.168	5389.23
690.358	5442.48
690.547	5405.61
690.737	5581.74
690.926	5491.63
691.116	5290.93
691.305	5368.75
691.495	5397.42
691.684	5436.33
691.874	5354.41
692.063	5270.45
692.252	5229.49
692.442	5188.53
692.631	5092.27
692.82	5090.23
693.01	5082.03
693.199	5204.91
693.388	5190.58
693.578	5190.58
693.767	5315.5
693.956	5129.14
694.146	5106.61
694.335	5022.64
694.524	4928.44
694.713	5143.47
694.902	5108.66
695.092	5012.4
695.281	4965.3
695.47	4840.37
695.659	4912.05
695.848	4973.49
696.037	4807.61
696.226	4932.53
696.415	4891.57
696.604	4815.8
696.793	4817.85
696.982	4854.71
697.171	4723.64
697.36	4893.62
697.549	4805.56
697.738	4729.78
697.927	4758.46
698.116	4742.07
698.305	4694.97
698.494	4643.77
698.683	4694.97
698.872	4719.54
699.061	4492.22
699.25	4664.25
699.438	4512.7
699.627	4787.13
699.816	4574.14
700.005	4666.3
700.193	4391.87
700.382	4664.25
700.571	4617.15
700.76	4557.75
700.948	4561.85
701.137	4545.47
701.326	4527.03
701.514	4475.84
701.703	4508.6
701.892	4533.18
702.08	4541.37
702.269	4324.29
702.457	4369.34
702.646	4268.99
702.834	4371.39
703.023	4295.61
703.212	4363.2
703.4	4340.67
703.589	4197.31
703.777	4488.12
703.965	4230.08
704.154	4312
704.342	4221.89
704.531	4262.85
704.719	4103.11
704.907	4342.72
705.096	4135.87
705.284	4297.66
705.472	4133.82
705.661	4238.27
705.849	4099.01
706.037	4185.02
706.226	4137.92
706.414	4021.19
706.602	4017.09
706.79	4012.99
706.979	3943.36
707.167	3853.25
707.355	3965.89
707.543	3988.42
707.731	4019.14
707.919	3967.94
708.107	3795.91
708.296	3894.21
708.484	3806.15
708.672	3826.63
708.86	3906.5
709.048	3750.85
709.236	3871.68
709.424	3824.58
709.612	3820.49
709.8	3873.73
709.988	3804.1
710.176	3929.03
710.364	3732.42
710.551	3828.68
710.739	3814.34
710.927	3787.72
711.115	3863.49
711.303	3816.39
711.491	3701.7
711.679	3642.31
711.866	3740.61
712.054	3771.33
712.242	3687.37
712.43	3673.03
712.617	3734.47
712.805	3613.64
712.993	3572.68
713.181	3486.67
713.368	3574.73
713.556	3552.2
713.744	3476.43
713.931	3632.07
714.119	3554.25
714.306	3525.58
714.494	3492.81
714.682	3476.43
714.869	3427.28
715.057	3427.28
715.244	3566.54
715.432	3564.49
715.619	3378.12
715.807	3455.95
715.994	3304.4
716.182	3460.04
716.369	3400.65
716.556	3367.88
716.744	3357.64
716.931	3328.97
717.119	3339.21
717.306	3294.16
717.493	3292.11
717.681	3410.89
717.868	3238.86
718.055	3374.03
718.242	3306.45
718.43	3322.83
718.617	3279.82
718.804	3316.69
718.991	3230.67
719.179	3267.53
719.366	3175.38
719.553	3095.5
719.74	3083.22
719.927	3115.98
720.114	3216.33
720.301	3113.94
720.488	3263.44
720.676	3175.38
720.863	3118.03
721.05	3077.07
721.237	3257.29
721.424	3034.07
721.611	3054.55
721.798	2995.15
721.985	3075.03
722.172	2948.05
722.358	3214.29
722.545	3025.87
722.732	2886.61
722.919	2929.62
723.106	3027.92
723.293	3005.39
723.48	2898.9
723.667	2894.8
723.853	3036.11
724.04	3070.93
724.227	3025.87
724.414	2925.52
724.6	2829.27
724.787	2919.38
724.974	2919.38
725.161	2956.24
725.347	2874.32
725.534	3025.87
725.72	2911.19
725.907	2884.56
726.094	2859.99
726.28	2847.7
726.467	2943.96
726.653	2882.52
726.84	2857.94
727.027	2839.51
727.213	2663.38
727.4	2925.52
727.586	2773.97
727.773	2771.93
727.959	2755.54
728.145	2773.97
728.332	2802.65
728.518	2614.23
728.705	2722.77
728.891	2763.73
729.077	2726.87
729.264	2839.51
729.45	2667.48
729.636	2673.62
729.823	2673.62
730.009	2649.05
730.195	2530.27
730.382	2649.05
730.568	2644.95
730.754	2730.97
730.94	2563.03
731.126	2730.97
731.313	2513.88
731.499	2675.67
731.685	2651.1
731.871	2728.92
732.057	2608.09
732.243	2577.37
732.429	2651.1
732.615	2644.95
732.801	2694.1
732.987	2464.73
733.173	2563.03
733.359	2552.79
733.545	2583.51
733.731	2444.25
733.917	2577.37
734.103	2599.9
734.289	2534.36
734.475	2499.55
734.661	2558.94
734.847	2544.6
735.033	2511.83
735.219	2477.02
735.404	2370.52
735.59	2409.44
735.776	2503.64
735.962	2403.29
736.148	2468.83
736.333	2501.59
736.519	2444.25
736.705	2413.53
736.89	2485.21
737.076	2401.24
737.262	2274.27
737.447	2444.25
737.633	2362.33
737.819	2356.19
738.004	2270.17
738.19	2388.96
738.375	2427.87
738.561	2425.82
738.747	2290.65
738.932	2307.04
739.118	2356.19
739.303	2309.08
739.489	2206.69
739.674	2300.89
739.859	2245.6
740.045	2304.99
740.23	2276.32
740.416	2108.38
740.601	2182.11
740.786	2221.02
740.972	2173.92
741.157	2192.35
741.342	2266.08
741.528	2135.01
741.713	2157.54
741.898	2130.91
742.084	2079.71
742.269	2304.99
742.454	2141.15
742.639	2221.02
742.824	2028.51
743.01	2096.1
743.195	2169.82
743.38	2223.07
743.565	1940.45
743.75	1965.03
743.935	2053.09
744.12	2198.49
744.305	2094.05
744.49	2044.9
744.675	2059.23
744.86	2055.14
745.045	2018.27
745.23	1907.68
745.415	2083.81
745.6	1973.22
745.785	2018.27
745.97	1977.31
746.155	2051.04
746.34	1891.3
746.525	1895.4
746.71	1919.97
746.895	1917.92
747.079	1917.92
747.264	1848.29
747.449	1784.8
747.634	1895.4
747.819	1803.24
748.003	1815.52
748.188	1803.24
748.373	1788.9
748.557	1897.44
748.742	1747.94
748.927	1768.42
749.111	1700.84
749.296	1766.37
749.481	1684.45
749.665	1711.08
749.85	1580.01
750.034	1594.34
750.219	1604.58
750.404	1692.65
750.588	1625.06
750.773	1606.63
750.957	1641.45
751.141	1672.17
751.326	1596.39
751.51	1661.93
751.695	1575.91
751.879	1623.02
752.064	1567.72
752.248	1606.63
752.432	1577.96
752.617	1639.4
752.801	1553.38
752.985	1518.57
753.17	1528.81
753.354	1469.42
753.538	1551.34
753.722	1510.38
753.907	1530.86
754.091	1405.93
754.275	1461.23
754.459	1405.93
754.643	1391.59
754.828	1493.99
755.012	1448.94
755.196	1379.31
755.38	1420.27
755.564	1334.25
755.748	1264.62
755.932	1448.94
756.116	1250.28
756.3	1367.02
756.484	1299.44
756.668	1260.52
756.852	1313.77
757.036	1317.87
757.22	1278.96
757.404	1272.81
757.588	1217.52
757.772	1268.72
757.956	1289.2
758.14	1321.96
758.323	1336.3
758.507	1248.24
758.691	1242.09
758.875	1205.23
759.059	1248.24
759.242	1158.13
759.426	1246.19
759.61	1235.95
759.794	1192.94
759.977	1172.46
760.161	1233.9
760.345	1158.13
760.528	1145.84
760.712	1174.51
760.895	1117.17
761.079	1113.07
761.263	1035.25
761.446	1125.36
761.63	1123.31
761.813	1108.98
761.997	1168.37
762.18	1108.98
762.364	1174.51
762.547	1043.44
762.731	1070.06
762.914	1137.65
763.098	928.75
763.281	1006.58
763.464	1002.48
763.648	1031.15
763.831	1113.07
764.015	977.91
764.198	1076.21
764.381	1039.34
764.564	1072.11
764.748	1108.98
764.931	1002.48
765.114	1035.25
765.297	1059.82
765.481	1029.1
765.664	996.34
765.847	961.52
766.03	1043.44
766.213	986.1
766.397	971.76
766.58	965.62
766.763	1002.48
766.946	895.99
767.129	969.71
767.312	924.66
767.495	930.8
767.678	816.12
767.861	963.57
768.044	1002.48
768.227	908.27
768.41	924.66
768.593	947.19
768.776	1045.49
768.959	932.85
769.142	871.41
769.324	873.46
769.507	1022.96
769.69	949.23
769.873	932.85
770.056	879.6
770.239	840.69
770.421	953.33
770.604	936.95
770.787	885.75
770.97	885.75
771.152	898.03
771.335	912.37
771.518	781.3
771.7	836.6
771.883	906.23
772.066	887.79
772.248	898.03
772.431	861.17
772.613	875.51
772.796	775.16
772.978	863.22
773.161	938.99
773.343	908.27
773.526	771.06
773.708	707.57
773.891	732.15
774.073	750.58
774.256	683
774.438	826.36
774.621	801.78
774.803	857.07
774.985	707.57
775.168	789.49
775.35	769.01
775.532	764.92
775.715	773.11
775.897	830.45
776.079	685.05
776.261	777.2
776.444	748.53
776.626	818.16
776.808	756.72
776.99	601.08
777.173	666.61
777.355	687.09
777.537	781.3
777.719	760.82
777.901	732.15
778.083	680.95
778.265	627.7
778.447	674.81
778.629	613.37
778.811	691.19
778.993	619.51
779.175	736.24
779.357	594.93
779.539	678.9
779.721	676.85
779.903	642.04
780.085	564.22
780.267	683
780.449	584.7
780.631	617.46
780.812	633.85
780.994	625.65
781.176	576.5
781.358	650.23
781.54	603.13
781.721	580.6
781.903	666.61
782.085	523.26
782.267	576.5
782.448	553.98
782.63	564.22
782.812	560.12
782.993	691.19
783.175	576.5
783.357	541.69
783.538	627.7
783.72	455.67
783.901	592.89
784.083	570.36
784.264	584.7
784.446	480.25
784.627	478.2
784.809	572.41
784.99	445.43
785.172	412.67
785.353	551.93
785.535	478.2
785.716	494.58
785.897	463.86
786.079	498.68
786.26	461.82
786.441	537.59
786.623	422.91
786.804	392.19
786.985	429.05
787.167	424.95
787.348	410.62
787.529	461.82
787.71	580.6
787.891	478.2
788.073	422.91
788.254	355.32
788.435	457.72
788.616	406.52
788.797	398.33
788.978	420.86
789.159	316.41
789.34	379.9
789.522	396.28
789.703	416.76
789.884	422.91
790.065	390.14
790.246	472.06
790.427	422.91
790.607	383.99
790.788	482.3
790.969	406.52
791.15	433.15
791.331	388.09
791.512	302.08
791.693	375.8
791.874	388.09
792.054	429.05
792.235	396.28
792.416	349.18
792.597	347.13
792.778	357.37
792.958	373.75
793.139	351.23
793.32	396.28
793.5	322.56
793.681	330.75
793.862	410.62
794.042	330.75
794.223	297.98
794.404	312.32
794.584	334.84
794.765	355.32
794.945	312.32
795.126	334.84
795.306	410.62
795.487	293.88
795.667	310.27
795.848	363.51
796.028	275.45
796.209	347.13
796.389	396.28
796.57	302.08
796.75	300.03
796.93	257.02
797.111	226.3
797.291	275.45
797.471	289.79
797.652	353.27
797.832	316.41
798.012	297.98
798.192	293.88
798.373	232.44
798.553	232.44
798.733	291.84
798.913	322.56
799.093	216.06
799.274	257.02
799.454	265.21
799.634	291.84
799.814	324.6
799.994	306.17
800.174	283.64
800.354	281.6
800.534	201.72
800.714	218.11
800.894	269.31
801.074	261.12
801.254	220.16
801.434	265.21
801.614	349.18
801.794	201.72
801.974	887.79
802.154	232.44
802.334	232.44
802.514	265.21
802.693	269.31
802.873	252.92
803.053	218.11
803.233	265.21
803.413	240.64
803.592	285.69
803.772	289.79
803.952	230.4
804.131	257.02
804.311	240.64
804.491	283.64
804.67	224.25
804.85	158.72
805.03	199.68
805.209	236.54
805.389	261.12
805.568	259.07
805.748	183.29
805.928	244.73
806.107	322.56
806.287	248.83
806.466	162.81
806.646	267.26
806.825	224.25
807.004	132.09
807.184	183.29
807.363	220.16
807.543	211.96
807.722	166.91
807.901	267.26
808.081	195.58
808.26	195.58
808.439	273.4
808.619	240.64
808.798	211.96
808.977	201.72
809.156	310.27
809.336	193.53
809.515	289.79
809.694	189.44
809.873	158.72
810.052	238.59
810.231	187.39
810.411	197.63
810.59	175.1
810.769	177.15
810.948	214.01
811.127	111.61
811.306	259.07
811.485	152.57
811.664	211.96
811.843	240.64
812.022	183.29
812.201	142.33
812.38	166.91
812.559	132.09
812.737	154.62
812.916	64.51
813.095	95.23
813.274	166.91
813.453	101.37
813.632	168.96
813.811	150.53
813.989	125.95
814.168	232.44
814.347	216.06
814.526	162.81
814.704	142.33
814.883	160.77
815.062	103.42
815.24	179.2
815.419	156.67
815.598	130.05
815.776	160.77
815.955	179.2
816.133	68.61
816.312	125.95
816.49	37.89
816.669	152.57
816.847	154.62
817.026	150.53
817.204	95.23
817.383	125.95
817.561	111.61
817.74	160.77
817.918	195.58
818.097	158.72
818.275	101.37
818.453	128
818.632	183.29
818.81	175.1
818.988	78.85
819.167	123.9
819.345	158.72
819.523	72.7
819.701	166.91
819.879	117.76
820.058	152.57
820.236	201.72
820.414	136.19
820.592	140.29
820.77	136.19
820.948	66.56
821.127	132.09
821.305	128
821.483	175.1
821.661	117.76
821.839	138.24
822.017	101.37
822.195	109.57
822.373	168.96
822.551	121.85
822.729	103.42
822.907	64.51
823.085	87.04
823.262	117.76
823.44	134.14
823.618	87.04
823.796	93.18
823.974	84.99
824.152	52.22
824.329	91.13
824.507	109.57
824.685	66.56
824.863	125.95
825.04	136.19
825.218	152.57
825.396	173.05
825.574	44.03
825.751	123.9
825.929	93.18
826.107	78.85
826.284	158.72
826.462	187.39
826.639	136.19
826.817	97.28
826.994	144.38
827.172	111.61
827.349	87.04
827.527	68.61
827.704	35.84
827.882	154.62
828.059	82.94
828.237	76.8
828.414	191.49
828.591	-54.27
828.769	142.33
828.946	138.24
829.124	148.48
829.301	117.76
829.478	80.89
829.655	91.13
829.833	84.99
830.01	84.99
830.187	125.95
830.364	76.8
830.542	44.03
830.719	150.53
830.896	31.74
831.073	101.37
831.25	171.01
831.427	142.33
831.604	154.62
831.782	128
831.959	150.53
832.136	146.43
832.313	107.52
832.49	52.22
832.667	103.42
832.844	103.42
833.021	119.81
833.198	15.36
833.374	121.85
833.551	113.66
833.728	7.17
833.905	109.57
834.082	27.65
834.259	31.74
834.436	76.8
834.612	-13.31
834.789	93.18
834.966	95.23
835.143	160.77
835.319	27.65
835.496	68.61
835.673	113.66
835.85	54.27
836.026	111.61
836.203	70.65
836.38	52.22
836.556	60.42
836.733	64.51
836.909	103.42
837.086	44.03
837.262	29.7
837.439	3.07
837.616	5.12
837.792	31.74
837.968	150.53
838.145	-5.12
838.321	31.74
838.498	111.61
838.674	125.95
838.851	52.22
839.027	46.08
839.203	52.22
839.38	103.42
839.556	109.57
839.732	89.09
839.909	89.09
840.085	56.32
840.261	35.84
840.437	72.7
840.614	-23.55
840.79	84.99
840.966	97.28
841.142	101.37
841.318	52.22
841.494	121.85
841.671	175.1
841.847	70.65
842.023	119.81
842.199	21.5
842.375	82.94
842.551	-33.79
842.727	17.41
842.903	93.18
843.079	35.84
843.255	72.7
843.431	93.18
843.607	76.8
843.783	-64.51
843.959	35.84
844.134	58.37
844.31	101.37
844.486	62.46
844.662	60.42
844.838	68.61
845.013	35.84
845.189	19.46
845.365	-54.27
845.541	84.99
845.716	60.42
845.892	136.19
846.068	-13.31
846.244	35.84
846.419	125.95
846.595	66.56
846.77	39.94
846.946	101.37
847.122	44.03
847.297	80.89
847.473	117.76
847.648	7.17
847.824	62.46
847.999	-3.07
848.175	60.42
848.35	25.6
848.526	46.08
848.701	33.79
848.876	109.57
849.052	89.09
849.227	101.37
849.403	78.85
849.578	1.02
849.753	-9.22
849.929	56.32
850.104	-46.08
850.279	95.23
850.454	23.55
850.63	87.04
850.805	56.32
850.98	58.37
851.155	5.12
851.33	103.42
851.505	-78.85
851.681	74.75
851.856	-29.7
852.031	78.85
852.206	82.94
852.381	-19.46
852.556	74.75
852.731	80.89
852.906	23.55
853.081	93.18
853.256	93.18
853.431	27.65
853.606	3.07
853.781	-46.08
853.956	-23.55
854.131	3.07
854.305	44.03
854.48	44.03
854.655	-64.51
854.83	76.8
855.005	3.07
855.18	115.71
855.354	84.99
855.529	3.07
855.704	93.18
855.879	62.46
856.053	19.46
856.228	-58.37
856.403	-11.26
856.577	7.17
856.752	58.37
856.926	7.17
857.101	60.42
857.276	46.08
857.45	70.65
857.625	7.17
857.799	68.61
857.974	52.22
858.148	5.12
858.323	19.46
858.497	84.99
858.672	35.84
858.846	44.03
859.02	84.99
859.195	39.94
859.369	72.7
859.543	41.98
859.718	78.85
859.892	68.61
860.066	48.13
860.241	-5.12
860.415	62.46
860.589	13.31
860.763	25.6
860.938	-3.07
861.112	-19.46
861.286	11.26
861.46	19.46
861.634	52.22
861.808	70.65
861.982	-35.84
862.157	11.26
862.331	33.79
862.505	-19.46
862.679	-29.7
862.853	76.8
863.027	19.46
863.201	19.46
863.375	52.22
863.549	76.8
863.722	84.99
863.896	62.46
864.07	23.55
864.244	-48.13
864.418	158.72
864.592	29.7
864.766	19.46
864.939	46.08
865.113	11.26
865.287	29.7
865.461	-13.31
865.634	72.7
865.808	-41.98
865.982	11.26
866.156	-29.7
866.329	5.12
866.503	-5.12
866.676	-3.07
866.85	54.27
867.024	-46.08
867.197	1.02
867.371	66.56
867.544	23.55
867.718	37.89
867.891	27.65
868.065	-17.41
868.238	-29.7
868.412	17.41
868.585	68.61
868.759	-19.46
868.932	-54.27
869.105	31.74
869.279	19.46
869.452	-13.31
869.625	54.27
869.799	17.41
869.972	-46.08
870.145	21.5
870.319	23.55
870.492	3.07
870.665	76.8
870.838	-11.26
871.011	-54.27
871.185	5.12
871.358	-11.26
871.531	68.61
871.704	-3.07
871.877	-17.41
872.05	27.65
872.223	-87.04
872.396	17.41
872.569	-11.26
872.742	-35.84
872.915	44.03
873.088	-21.5
873.261	37.89
873.434	35.84
873.607	21.5
873.78	80.89
873.953	89.09
874.126	44.03
874.299	-29.7
874.471	3.07
874.644	39.94
874.817	68.61
874.99	76.8
875.163	13.31
875.335	-19.46
875.508	19.46
875.681	39.94
875.853	89.09
876.026	44.03
876.199	78.85
876.371	56.32
876.544	-5.12
876.717	84.99
876.889	-46.08
877.062	35.84
877.234	11.26
877.407	-62.46
877.579	3.07
877.752	-5.12
877.924	19.46
878.097	66.56
878.269	-23.55
878.442	84.99
878.614	-5.12
878.786	-3.07
878.959	27.65
879.131	-44.03
879.303	-68.61
879.476	44.03
879.648	109.57
879.82	21.5
879.993	-68.61
880.165	21.5
880.337	-33.79
880.509	52.22
880.681	-62.46
880.854	46.08
881.026	37.89
881.198	140.29
881.37	33.79
881.542	1.02
881.714	-25.6
881.886	-44.03
882.058	-21.5
882.23	15.36
882.402	21.5
882.574	-25.6
882.746	25.6
882.918	52.22
883.09	-15.36
883.262	-5.12
883.434	19.46
883.606	-62.46
883.778	1.02
883.95	62.46
884.122	54.27
884.293	80.89
884.465	-37.89
884.637	39.94
884.809	13.31
884.98	31.74
885.152	39.94
885.324	80.89
885.496	29.7
885.667	-1.02
885.839	-1.02
886.011	62.46
886.182	-19.46
886.354	72.7
886.525	-21.5
886.697	-19.46
886.869	3.07
887.04	23.55
887.212	23.55
887.383	41.98
887.555	7.17
887.726	44.03
887.897	-1.02
888.069	56.32
888.24	31.74
888.412	19.46
888.583	-9.22
888.754	-5.12
888.926	-103.42
889.097	44.03
889.268	-54.27
889.44	60.42
889.611	-9.22
889.782	-13.31
889.953	-27.65
890.125	113.66
890.296	-46.08
890.467	-44.03
890.638	5.12
890.809	29.7
890.98	-37.89
891.151	84.99
891.323	74.75
891.494	19.46
891.665	70.65
891.836	39.94
892.007	-3.07
892.178	-27.65
892.349	66.56
892.52	7.17
892.691	-11.26
892.862	48.13
893.032	-87.04
893.203	23.55
893.374	-80.89
893.545	11.26
893.716	-64.51
893.887	-21.5
894.057	3.07
894.228	23.55
894.399	-29.7
894.57	35.84
894.74	5.12
894.911	41.98
895.082	46.08
895.253	44.03
895.423	76.8
895.594	13.31
895.764	-3.07
895.935	5.12
896.106	60.42
896.276	-52.22
896.447	54.27
896.617	35.84
896.788	-25.6
896.958	52.22
897.129	-35.84
897.299	27.65
897.47	15.36
897.64	-5.12
897.81	3.07
897.981	39.94
898.151	-93.18
898.322	87.04
898.492	29.7
898.662	3.07
898.832	-9.22
899.003	-17.41
899.173	13.31
899.343	-9.22
899.513	-52.22
