Data from USB4F104151__85__14-30-37-596.txt Node

Date: Thu Mar 13 14:30:37 EDT 2025
User: louis
Spectrometer: USB4F10415
Trigger mode: 4
Integration Time (sec): 2.500000E-2
Scans to average: 1
Electric dark correction enabled: true
Nonlinearity correction enabled: false
Boxcar width: 0
XAxis mode: Wavelengths
Number of Pixels in Spectrum: 3648
>>>>>Begin Spectral Data<<<<<
178.204	-120.66
178.424	-120.66
178.644	-120.66
178.864	-128.85
179.084	-57.17
179.304	-5.97
179.524	26.79
179.744	-20.31
179.964	18.6
180.184	-5.97
180.404	26.79
180.624	-48.98
180.844	6.31
181.064	-26.45
181.283	-22.36
181.503	-16.21
181.723	67.75
181.943	-53.08
182.163	39.08
182.383	71.85
182.602	135.34
182.822	49.32
183.042	67.75
183.262	20.65
183.482	75.95
183.701	37.03
183.921	-12.12
184.141	-30.55
184.361	34.99
184.58	67.75
184.8	86.19
185.02	39.08
185.239	161.96
185.459	92.33
185.679	47.27
185.898	-55.12
186.118	-14.17
186.338	24.75
186.557	10.41
186.777	-18.26
186.997	22.7
187.216	-10.07
187.436	18.6
187.655	88.23
187.875	84.14
188.095	84.14
188.314	18.6
188.534	18.6
188.753	59.56
188.973	61.61
189.192	96.43
189.412	26.79
189.631	69.8
189.851	32.94
190.07	153.77
190.29	-12.12
190.509	67.75
190.729	47.27
190.948	100.52
191.168	166.06
191.387	151.72
191.607	59.56
191.826	80.04
192.045	94.38
192.265	14.51
192.484	61.61
192.704	-46.93
192.923	-14.17
193.142	96.43
193.362	59.56
193.581	92.33
193.8	94.38
194.02	26.79
194.239	-24.4
194.458	43.18
194.678	61.61
194.897	98.47
195.116	43.18
195.335	-30.55
195.555	59.56
195.774	75.95
195.993	96.43
196.212	2.22
196.432	41.13
196.651	41.13
196.87	30.89
197.089	61.61
197.308	67.75
197.528	53.42
197.747	51.37
197.966	39.08
198.185	104.62
198.404	45.23
198.623	32.94
198.842	71.85
199.062	67.75
199.281	47.27
199.5	45.23
199.719	63.66
199.938	69.8
200.157	61.61
200.376	51.37
200.595	59.56
200.814	94.38
201.033	69.8
201.252	18.6
201.471	67.75
201.69	45.23
201.909	12.46
202.128	2.22
202.347	20.65
202.566	-1.88
202.785	2.22
203.004	34.99
203.223	86.19
203.442	88.23
203.661	59.56
203.879	77.99
204.098	69.8
204.317	71.85
204.536	2.22
204.755	125.1
204.974	80.04
205.193	37.03
205.411	108.71
205.63	43.18
205.849	55.47
206.068	75.95
206.287	6.31
206.505	92.33
206.724	22.7
206.943	71.85
207.162	-12.12
207.381	30.89
207.599	59.56
207.818	75.95
208.037	2.22
208.255	39.08
208.474	61.61
208.693	51.37
208.911	39.08
209.13	18.6
209.349	37.03
209.567	61.61
209.786	92.33
210.005	71.85
210.223	45.23
210.442	2.22
210.661	67.75
210.879	2.22
211.098	71.85
211.316	24.75
211.535	41.13
211.753	-12.12
211.972	59.56
212.191	112.81
212.409	108.71
212.628	41.13
212.846	6.31
213.065	43.18
213.283	133.29
213.502	10.41
213.72	12.46
213.938	112.81
214.157	67.75
214.375	69.8
214.594	34.99
214.812	-38.74
215.031	77.99
215.249	2.22
215.467	49.32
215.686	6.31
215.904	26.79
216.122	53.42
216.341	53.42
216.559	34.99
216.778	100.52
216.996	-3.93
217.214	14.51
217.432	34.99
217.651	32.94
217.869	71.85
218.087	53.42
218.306	61.61
218.524	28.84
218.742	28.84
218.96	96.43
219.179	106.67
219.397	-10.07
219.615	121
219.833	71.85
220.051	37.03
220.27	159.91
220.488	98.47
220.706	26.79
220.924	112.81
221.142	116.9
221.36	12.46
221.578	92.33
221.796	-30.55
222.015	57.51
222.233	51.37
222.451	118.95
222.669	61.61
222.887	45.23
223.105	-30.55
223.323	-5.97
223.541	-87.89
223.759	59.56
223.977	16.55
224.195	125.1
224.413	55.47
224.631	84.14
224.849	28.84
225.067	86.19
225.285	28.84
225.503	53.42
225.721	22.7
225.939	32.94
226.157	2.22
226.375	123.05
226.592	34.99
226.81	39.08
227.028	6.31
227.246	174.25
227.464	57.51
227.682	86.19
227.9	28.84
228.117	63.66
228.335	18.6
228.553	4.27
228.771	94.38
228.989	67.75
229.206	141.48
229.424	2.22
229.642	-1.88
229.86	47.27
230.077	100.52
230.295	96.43
230.513	153.77
230.731	45.23
230.948	121
231.166	112.81
231.384	96.43
231.601	16.55
231.819	86.19
232.037	63.66
232.254	26.79
232.472	65.71
232.689	59.56
232.907	51.37
233.125	22.7
233.342	145.58
233.56	-22.36
233.777	45.23
233.995	69.8
234.213	63.66
234.43	34.99
234.648	18.6
234.865	39.08
235.083	55.47
235.3	26.79
235.518	69.8
235.735	77.99
235.953	100.52
236.17	2.22
236.388	77.99
236.605	41.13
236.822	86.19
237.04	133.29
237.257	24.75
237.475	63.66
237.692	53.42
237.909	96.43
238.127	28.84
238.344	59.56
238.562	51.37
238.779	94.38
238.996	45.23
239.214	104.62
239.431	67.75
239.648	61.61
239.865	59.56
240.083	-3.93
240.3	133.29
240.517	10.41
240.735	88.23
240.952	77.99
241.169	108.71
241.386	-5.97
241.603	43.18
241.821	63.66
242.038	108.71
242.255	94.38
242.472	8.36
242.689	32.94
242.907	30.89
243.124	59.56
243.341	86.19
243.558	82.09
243.775	102.57
243.992	20.65
244.209	45.23
244.426	149.67
244.643	65.71
244.86	104.62
245.078	69.8
245.295	16.55
245.512	45.23
245.729	80.04
245.946	47.27
246.163	61.61
246.38	34.99
246.597	-18.26
246.814	80.04
247.031	123.05
247.248	75.95
247.464	18.6
247.681	39.08
247.898	67.75
248.115	43.18
248.332	30.89
248.549	63.66
248.766	121
248.983	45.23
249.2	32.94
249.417	67.75
249.633	-3.93
249.85	129.19
250.067	63.66
250.284	-20.31
250.501	59.56
250.717	43.18
250.934	-22.36
251.151	108.71
251.368	10.41
251.585	116.9
251.801	84.14
252.018	-40.79
252.235	118.95
252.451	43.18
252.668	-12.12
252.885	67.75
253.102	61.61
253.318	53.42
253.535	43.18
253.752	55.47
253.968	82.09
254.185	-30.55
254.401	37.03
254.618	26.79
254.835	4.27
255.051	90.28
255.268	10.41
255.484	-30.55
255.701	86.19
255.917	43.18
256.134	-26.45
256.351	20.65
256.567	59.56
256.784	2.22
257	-16.21
257.217	61.61
257.433	22.7
257.65	10.41
257.866	34.99
258.082	-14.17
258.299	59.56
258.515	71.85
258.732	-38.74
258.948	12.46
259.165	129.19
259.381	37.03
259.597	108.71
259.814	57.51
260.03	14.51
260.246	34.99
260.463	67.75
260.679	100.52
260.895	34.99
261.112	98.47
261.328	30.89
261.544	51.37
261.761	77.99
261.977	108.71
262.193	49.32
262.409	67.75
262.626	51.37
262.842	86.19
263.058	22.7
263.274	80.04
263.49	-5.97
263.707	116.9
263.923	26.79
264.139	10.41
264.355	10.41
264.571	80.04
264.787	96.43
265.004	127.14
265.22	51.37
265.436	26.79
265.652	-55.12
265.868	10.41
266.084	26.79
266.3	53.42
266.516	63.66
266.732	151.72
266.948	32.94
267.164	86.19
267.38	43.18
267.596	96.43
267.812	102.57
268.028	80.04
268.244	10.41
268.46	61.61
268.676	6.31
268.892	53.42
269.108	-46.93
269.324	118.95
269.54	16.55
269.756	12.46
269.972	28.84
270.188	51.37
270.403	-26.45
270.619	106.67
270.835	34.99
271.051	39.08
271.267	39.08
271.483	43.18
271.698	10.41
271.914	8.36
272.13	37.03
272.346	37.03
272.562	37.03
272.777	67.75
272.993	63.66
273.209	-5.97
273.425	51.37
273.64	55.47
273.856	51.37
274.072	34.99
274.287	18.6
274.503	32.94
274.719	112.81
274.934	63.66
275.15	26.79
275.366	90.28
275.581	2.22
275.797	45.23
276.012	-18.26
276.228	61.61
276.444	37.03
276.659	159.91
276.875	-38.74
277.09	100.52
277.306	18.6
277.521	75.95
277.737	92.33
277.952	26.79
278.168	88.23
278.383	112.81
278.599	108.71
278.814	102.57
279.03	34.99
279.245	190.63
279.461	0.17
279.676	80.04
279.892	26.79
280.107	67.75
280.322	69.8
280.538	20.65
280.753	69.8
280.969	131.24
281.184	32.94
281.399	116.9
281.615	59.56
281.83	22.7
282.045	55.47
282.26	43.18
282.476	71.85
282.691	145.58
282.906	63.66
283.122	-22.36
283.337	10.41
283.552	30.89
283.767	-20.31
283.983	92.33
284.198	-30.55
284.413	96.43
284.628	2.22
284.843	63.66
285.058	114.86
285.274	92.33
285.489	6.31
285.704	26.79
285.919	-5.97
286.134	69.8
286.349	30.89
286.564	135.34
286.779	112.81
286.995	14.51
287.21	-79.7
287.425	61.61
287.64	84.14
287.855	125.1
288.07	47.27
288.285	67.75
288.5	94.38
288.715	94.38
288.93	10.41
289.145	47.27
289.36	49.32
289.575	28.84
289.79	53.42
290.004	34.99
290.219	82.09
290.434	43.18
290.649	18.6
290.864	18.6
291.079	84.14
291.294	37.03
291.509	34.99
291.724	47.27
291.938	135.34
292.153	45.23
292.368	18.6
292.583	67.75
292.798	86.19
293.012	92.33
293.227	63.66
293.442	71.85
293.657	59.56
293.871	159.91
294.086	26.79
294.301	92.33
294.516	92.33
294.73	75.95
294.945	2.22
295.16	34.99
295.374	100.52
295.589	67.75
295.804	39.08
296.018	49.32
296.233	49.32
296.447	110.76
296.662	67.75
296.877	2.22
297.091	86.19
297.306	10.41
297.52	59.56
297.735	67.75
297.949	43.18
298.164	69.8
298.378	22.7
298.593	77.99
298.807	12.46
299.022	-3.93
299.236	71.85
299.451	112.81
299.665	53.42
299.88	100.52
300.094	77.99
300.309	12.46
300.523	59.56
300.737	51.37
300.952	112.81
301.166	47.27
301.381	4.27
301.595	-28.5
301.809	65.71
302.024	20.65
302.238	-1.88
302.452	67.75
302.667	43.18
302.881	59.56
303.095	75.95
303.309	133.29
303.524	2.22
303.738	84.14
303.952	67.75
304.166	172.2
304.381	4.27
304.595	75.95
304.809	51.37
305.023	26.79
305.237	10.41
305.452	28.84
305.666	61.61
305.88	110.76
306.094	88.23
306.308	118.95
306.522	75.95
306.736	90.28
306.95	102.57
307.164	59.56
307.379	-5.97
307.593	125.1
307.807	100.52
308.021	88.23
308.235	129.19
308.449	34.99
308.663	51.37
308.877	102.57
309.091	47.27
309.305	94.38
309.519	55.47
309.733	71.85
309.947	-3.93
310.161	108.71
310.374	51.37
310.588	67.75
310.802	39.08
311.016	34.99
311.23	73.9
311.444	82.09
311.658	39.08
311.872	168.1
312.085	100.52
312.299	39.08
312.513	8.36
312.727	125.1
312.941	10.41
313.154	100.52
313.368	45.23
313.582	67.75
313.796	108.71
314.009	59.56
314.223	77.99
314.437	98.47
314.651	18.6
314.864	59.56
315.078	-5.97
315.292	10.41
315.505	6.31
315.719	61.61
315.933	80.04
316.146	6.31
316.36	2.22
316.573	116.9
316.787	106.67
317.001	123.05
317.214	59.56
317.428	75.95
317.641	20.65
317.855	53.42
318.068	61.61
318.282	102.57
318.495	121
318.709	37.03
318.922	39.08
319.136	118.95
319.349	96.43
319.563	67.75
319.776	34.99
319.99	-28.5
320.203	43.18
320.417	45.23
320.63	22.7
320.843	110.76
321.057	28.84
321.27	141.48
321.483	47.27
321.697	133.29
321.91	20.65
322.124	69.8
322.337	106.67
322.55	6.31
322.763	100.52
322.977	37.03
323.19	10.41
323.403	77.99
323.617	22.7
323.83	94.38
324.043	22.7
324.256	75.95
324.469	67.75
324.683	84.14
324.896	84.14
325.109	-14.17
325.322	34.99
325.535	92.33
325.748	108.71
325.962	59.56
326.175	84.14
326.388	121
326.601	67.75
326.814	125.1
327.027	26.79
327.24	125.1
327.453	20.65
327.666	159.91
327.879	75.95
328.092	26.79
328.305	73.9
328.518	18.6
328.731	34.99
328.944	61.61
329.157	57.51
329.37	12.46
329.583	98.47
329.796	45.23
330.009	-12.12
330.222	67.75
330.435	67.75
330.648	102.57
330.861	69.8
331.073	96.43
331.286	34.99
331.499	-26.45
331.712	61.61
331.925	104.62
332.138	59.56
332.35	82.09
332.563	18.6
332.776	88.23
332.989	-36.69
333.202	100.52
333.414	67.75
333.627	71.85
333.84	96.43
334.053	131.24
334.265	24.75
334.478	71.85
334.691	22.7
334.903	90.28
335.116	51.37
335.329	57.51
335.541	69.8
335.754	57.51
335.966	49.32
336.179	-22.36
336.392	80.04
336.604	47.27
336.817	92.33
337.029	61.61
337.242	88.23
337.454	90.28
337.667	59.56
337.88	86.19
338.092	164.01
338.305	43.18
338.517	20.65
338.729	114.86
338.942	63.66
339.154	59.56
339.367	14.51
339.579	80.04
339.792	12.46
340.004	100.52
340.217	28.84
340.429	137.38
340.641	55.47
340.854	26.79
341.066	45.23
341.278	73.9
341.491	161.96
341.703	61.61
341.915	2.22
342.128	75.95
342.34	28.84
342.552	118.95
342.764	86.19
342.977	53.42
343.189	84.14
343.401	47.27
343.613	96.43
343.826	41.13
344.038	37.03
344.25	92.33
344.462	77.99
344.674	71.85
344.886	53.42
345.099	80.04
345.311	37.03
345.523	82.09
345.735	18.6
345.947	96.43
346.159	110.76
346.371	116.9
346.583	26.79
346.795	145.58
347.007	100.52
347.219	59.56
347.431	94.38
347.643	110.76
347.855	86.19
348.067	133.29
348.279	59.56
348.491	80.04
348.703	94.38
348.915	55.47
349.127	10.41
349.339	67.75
349.551	2.22
349.763	67.75
349.975	26.79
350.187	108.71
350.399	84.14
350.61	37.03
350.822	43.18
351.034	4.27
351.246	10.41
351.458	43.18
351.669	71.85
351.881	94.38
352.093	37.03
352.305	75.95
352.517	67.75
352.728	84.14
352.94	59.56
353.152	75.95
353.363	-48.98
353.575	125.1
353.787	110.76
353.999	45.23
354.21	133.29
354.422	94.38
354.633	-18.26
354.845	133.29
355.057	32.94
355.268	84.14
355.48	77.99
355.692	53.42
355.903	37.03
356.115	55.47
356.326	55.47
356.538	127.14
356.749	157.86
356.961	67.75
357.172	104.62
357.384	47.27
357.595	149.67
357.807	82.09
358.018	39.08
358.23	106.67
358.441	69.8
358.653	110.76
358.864	43.18
359.075	32.94
359.287	10.41
359.498	133.29
359.709	184.49
359.921	82.09
360.132	84.14
360.344	59.56
360.555	65.71
360.766	10.41
360.977	69.8
361.189	116.9
361.4	116.9
361.611	96.43
361.823	49.32
362.034	71.85
362.245	63.66
362.456	43.18
362.667	118.95
362.879	61.61
363.09	77.99
363.301	135.34
363.512	43.18
363.723	37.03
363.935	59.56
364.146	63.66
364.357	84.14
364.568	69.8
364.779	16.55
364.99	55.47
365.201	69.8
365.412	92.33
365.623	39.08
365.834	59.56
366.045	26.79
366.256	84.14
366.467	71.85
366.678	118.95
366.889	69.8
367.1	129.19
367.311	84.14
367.522	84.14
367.733	75.95
367.944	84.14
368.155	71.85
368.366	121
368.577	131.24
368.788	116.9
368.999	30.89
369.209	80.04
369.42	153.77
369.631	131.24
369.842	92.33
370.053	157.86
370.264	61.61
370.474	43.18
370.685	59.56
370.896	28.84
371.107	96.43
371.317	118.95
371.528	51.37
371.739	98.47
371.95	51.37
372.16	84.14
372.371	84.14
372.582	100.52
372.792	172.2
373.003	20.65
373.214	137.38
373.424	110.76
373.635	67.75
373.846	159.91
374.056	80.04
374.267	112.81
374.477	133.29
374.688	73.9
374.898	51.37
375.109	30.89
375.319	34.99
375.53	129.19
375.74	110.76
375.951	166.06
376.161	86.19
376.372	133.29
376.582	18.6
376.793	112.81
377.003	47.27
377.214	37.03
377.424	84.14
377.635	73.9
377.845	26.79
378.055	141.48
378.266	10.41
378.476	63.66
378.686	133.29
378.897	100.52
379.107	75.95
379.317	75.95
379.528	51.37
379.738	30.89
379.948	121
380.158	145.58
380.369	75.95
380.579	141.48
380.789	69.8
380.999	53.42
381.21	34.99
381.42	67.75
381.63	82.09
381.84	110.76
382.05	149.67
382.261	39.08
382.471	59.56
382.681	94.38
382.891	108.71
383.101	118.95
383.311	32.94
383.521	125.1
383.731	190.63
383.941	-10.07
384.151	110.76
384.361	86.19
384.571	73.9
384.781	102.57
384.991	182.44
385.201	194.73
385.411	151.72
385.621	108.71
385.831	108.71
386.041	67.75
386.251	102.57
386.461	133.29
386.671	43.18
386.881	135.34
387.091	92.33
387.301	86.19
387.511	86.19
387.72	30.89
387.93	84.14
388.14	159.91
388.35	133.29
388.56	118.95
388.769	133.29
388.979	59.56
389.189	80.04
389.399	77.99
389.609	88.23
389.818	116.9
390.028	94.38
390.238	71.85
390.447	125.1
390.657	149.67
390.867	94.38
391.076	37.03
391.286	174.25
391.496	73.9
391.705	53.42
391.915	133.29
392.125	100.52
392.334	116.9
392.544	125.1
392.753	149.67
392.963	121
393.172	184.49
393.382	26.79
393.591	184.49
393.801	149.67
394.01	141.48
394.22	133.29
394.429	110.76
394.639	153.77
394.848	67.75
395.058	215.21
395.267	100.52
395.477	133.29
395.686	153.77
395.895	200.87
396.105	223.4
396.314	141.48
396.524	170.15
396.733	41.13
396.942	151.72
397.152	202.92
397.361	219.3
397.57	168.1
397.78	178.34
397.989	198.82
398.198	284.84
398.407	192.68
398.617	202.92
398.826	112.81
399.035	84.14
399.244	137.38
399.453	141.48
399.663	86.19
399.872	170.15
400.081	92.33
400.29	182.44
400.499	151.72
400.708	198.82
400.917	100.52
401.127	151.72
401.336	170.15
401.545	166.06
401.754	211.11
401.963	92.33
402.172	102.57
402.381	190.63
402.59	125.1
402.799	225.45
403.008	231.59
403.217	231.59
403.426	176.3
403.635	151.72
403.844	215.21
404.053	258.21
404.262	192.68
404.471	256.17
404.68	200.87
404.888	256.17
405.097	231.59
405.306	282.79
405.515	143.53
405.724	239.78
405.933	276.65
406.142	166.06
406.35	338.09
406.559	266.41
406.768	260.26
406.977	338.09
407.185	342.18
407.394	272.55
407.603	247.97
407.812	346.28
408.02	315.56
408.229	315.56
408.438	368.81
408.646	426.15
408.855	460.96
409.064	420
409.272	338.09
409.481	487.59
409.69	391.33
409.898	460.96
410.107	489.64
410.315	536.74
410.524	460.96
410.733	600.23
410.941	495.78
411.15	540.83
411.358	542.88
411.567	618.66
411.775	546.98
411.984	624.8
412.192	657.57
412.401	673.95
412.609	706.72
412.818	788.64
413.026	764.06
413.234	770.21
413.443	815.26
413.651	825.5
413.86	772.25
414.068	903.32
414.276	891.04
414.485	979.1
414.693	913.56
414.901	1058.97
415.11	1028.25
415.318	1095.83
415.526	1235.1
415.734	1120.41
415.943	1005.72
416.151	1280.15
416.359	1300.63
416.567	1276.06
416.776	1333.4
416.984	1421.46
417.192	1517.72
417.4	1480.85
417.608	1579.15
417.817	1540.24
418.025	1624.21
418.233	1742.99
418.441	1648.79
418.649	1656.98
418.857	1949.84
419.065	2068.62
419.273	1880.21
419.481	2128.01
419.689	2078.86
419.897	2240.65
420.105	2281.61
420.313	2439.3
420.521	2390.15
420.729	2500.74
420.937	2484.36
421.145	2519.17
421.353	2762.88
421.561	2885.76
421.769	2963.58
421.977	3088.51
422.185	3082.36
422.393	3203.19
422.601	3381.37
422.809	3422.33
423.017	3393.65
423.224	3627.12
423.432	3631.22
423.64	3700.85
423.848	4096.11
424.056	3971.18
424.263	4253.8
424.471	4321.38
424.679	4311.14
424.887	4436.07
425.094	4659.3
425.302	4876.38
425.51	4810.85
425.718	5050.46
425.925	5265.5
426.133	5351.51
426.341	5646.42
426.548	5982.29
426.756	5830.74
426.964	5963.86
427.171	6307.91
427.379	6449.22
427.586	6367.31
427.794	6764.61
428.001	7120.96
428.209	7454.78
428.417	7415.87
428.624	7772.21
428.832	7766.07
429.039	7604.28
429.247	7614.52
429.454	8390.7
429.662	9015.33
429.869	8390.7
430.076	8931.36
430.284	8783.91
430.491	8925.22
430.699	9605.14
430.906	9588.76
431.114	9828.37
431.321	10154
431.528	10268.69
431.736	10979.33
431.943	11390.97
432.15	11106.31
432.358	11415.55
432.565	11874.29
432.772	11700.22
432.979	12359.66
433.187	12629.99
433.394	12822.5
433.601	13621.21
433.808	13518.81
434.016	13436.89
434.223	13979.61
434.43	14788.55
434.637	14770.12
434.844	15687.61
435.052	15779.77
435.259	15577.02
435.466	15962.04
435.673	15628.22
435.88	16703.4
436.087	17635.23
436.294	17448.86
436.501	17049.51
436.708	17495.97
436.915	17942.42
437.122	18794.38
437.329	18745.23
437.537	19599.23
437.743	19603.33
437.95	19627.9
438.157	20594.54
438.364	21309.29
438.571	20950.89
438.778	21518.18
438.985	23179.08
439.192	22372.18
439.399	22888.27
439.606	22796.11
439.813	23768.9
440.02	25294.63
440.227	24536.88
440.433	24434.49
440.64	25642.79
440.847	24954.67
441.054	25663.27
441.261	27315.98
441.467	27244.3
441.674	27680.52
441.881	28585.72
442.088	29044.46
442.294	28212.99
442.501	28999.41
442.708	29593.32
442.914	30686.93
443.121	32069.31
443.328	31030.99
443.534	33676.97
443.741	32435.9
443.948	32288.45
444.154	34168.48
444.361	34156.19
444.568	34291.36
444.774	34242.21
444.981	34649.75
445.187	35735.18
445.394	37328.5
445.6	36793.98
445.807	40042.06
446.013	38282.85
446.22	39542.35
446.426	40228.42
446.633	40820.28
446.839	42751.52
447.046	40595.01
447.252	42944.03
447.459	42649.12
447.665	42528.29
447.871	44602.88
448.078	46429.67
448.284	44201.48
448.491	45450.74
448.697	46974.43
448.903	47859.15
449.11	48405.96
449.316	47375.83
449.522	48340.43
449.728	49561.01
449.935	49599.93
450.141	49786.29
450.347	50681.25
450.553	48946.62
450.76	49870.26
450.966	51729.81
451.172	50693.54
451.378	52446.6
451.584	51060.13
451.791	52489.61
451.997	51893.65
452.203	53601.66
452.409	52917.64
452.615	52489.61
452.821	50359.72
453.027	50615.72
453.233	52606.34
453.44	50486.7
453.646	51563.93
453.852	51248.54
454.058	51991.95
454.264	50576.81
454.47	51623.32
454.676	50646.44
454.882	52243.85
455.088	47308.25
455.294	48383.43
455.5	49149.37
455.705	49651.13
455.911	48016.85
456.117	46652.9
456.323	46038.51
456.529	43677.2
456.735	45698.55
456.941	44539.4
457.147	43820.56
457.352	42458.66
457.558	41965.1
457.764	41795.12
457.97	41606.7
458.176	40433.22
458.381	40556.1
458.587	38823.51
458.793	38854.23
458.999	36339.33
459.204	39200.34
459.41	37996.13
459.616	35223.19
459.821	35606.16
460.027	35323.54
460.233	34616.99
460.438	33038
460.644	33433.26
460.85	31882.95
461.055	31340.24
461.261	31004.37
461.466	28835.57
461.672	28165.88
461.878	29884.13
462.083	28108.54
462.289	27455.24
462.494	27285.26
462.7	25741.09
462.905	25263.91
463.111	26296.09
463.316	26277.66
463.522	25847.58
463.727	26130.2
463.932	26072.86
464.138	25263.91
464.343	25483.05
464.549	24696.63
464.754	25427.75
464.959	25470.76
465.165	25173.8
465.37	23883.58
465.575	23600.96
465.781	24446.77
465.986	24807.22
466.191	23895.87
466.397	23347.01
466.602	22075.23
466.807	22882.13
467.012	22828.88
467.218	22888.27
467.423	22468.44
467.628	22749.01
467.833	23727.94
468.038	22867.79
468.244	21989.21
468.449	22896.46
468.654	22460.24
468.859	21989.21
469.064	22026.07
469.269	21030.76
469.474	21266.28
469.679	21538.66
469.885	20828.01
470.09	21294.95
470.295	21151.59
470.5	20440.95
470.705	20604.78
470.91	20158.33
471.115	20100.98
471.32	20232.05
471.525	20191.09
471.73	19668.86
471.935	19632
472.139	19103.62
472.344	19154.82
472.549	19189.64
472.754	18841.48
472.959	18300.82
473.164	18149.27
473.369	17711
473.574	18542.48
473.778	17956.76
473.983	18155.41
474.188	17899.42
474.393	17295.27
474.598	17590.17
474.802	16949.16
475.007	17090.47
475.212	16981.93
475.417	16367.54
475.621	16181.17
475.826	16682.92
476.031	16314.29
476.235	15605.69
476.44	16250.8
476.645	15734.71
476.849	16003
477.054	15527.87
477.259	15288.26
477.463	15329.22
477.668	15095.75
477.872	14964.68
478.077	14766.03
478.282	14550.99
478.486	14651.34
478.691	14331.86
478.895	14247.89
479.1	14110.68
479.304	14215.12
479.509	13586.4
479.713	14120.92
479.918	13764.57
480.122	13598.68
480.326	13680.6
480.531	13883.35
480.735	13608.92
480.94	13668.31
481.144	13977.56
481.348	13369.31
481.553	13262.82
481.757	13131.75
481.961	13297.63
482.166	13541.34
482.37	13395.93
482.574	13131.75
482.778	13015.01
482.983	13477.85
483.187	13215.71
483.391	13510.62
483.595	13154.27
483.8	13060.07
484.004	13209.57
484.208	13424.61
484.412	13217.76
484.616	13119.46
484.821	13238.24
485.025	12961.76
485.229	13234.14
485.433	13103.07
485.637	13203.43
485.841	13148.13
486.045	13144.03
486.249	13035.49
486.453	12832.74
486.657	13101.03
486.861	13283.3
487.065	12812.26
487.269	13012.96
487.473	12959.72
487.677	12933.09
487.881	13176.8
488.085	13006.82
488.289	12965.86
488.493	12908.52
488.697	13166.56
488.901	12865.51
489.105	13111.27
489.309	13268.96
489.512	13051.88
489.716	13291.49
489.92	13314.02
490.124	12953.57
490.328	13383.65
490.531	13189.09
490.735	13144.03
490.939	13553.63
491.143	13266.91
491.346	13316.06
491.55	13594.59
491.754	13703.13
491.958	13680.6
492.161	13430.75
492.365	13647.83
492.569	13520.86
492.772	13656.03
492.976	13647.83
493.18	13959.13
493.383	14090.2
493.587	13946.84
493.79	14067.67
493.994	13668.31
494.197	14116.82
494.401	14399.44
494.605	14432.21
494.808	14325.71
495.012	14700.49
495.215	14557.13
495.419	14626.76
495.622	14673.87
495.825	14806.98
496.029	14690.25
496.232	14966.73
496.436	15110.08
496.639	15306.69
496.843	15329.22
497.046	15794.11
497.249	15728.57
497.453	15853.5
497.656	16109.49
497.859	16091.06
498.063	16240.56
498.266	16709.55
498.469	16433.07
498.673	16924.58
498.876	16844.71
499.079	17063.85
499.282	17164.2
499.485	17557.41
499.689	17631.13
499.892	17483.68
500.095	17735.58
500.298	18374.55
500.501	18050.97
500.705	18597.77
500.908	18800.52
501.111	18988.94
501.314	19113.86
501.517	19431.3
501.72	19523.46
501.923	19378.05
502.126	19808.12
502.329	20164.47
502.532	20209.53
502.735	20176.76
502.938	20748.14
503.141	20664.18
503.344	21456.74
503.547	21092.2
503.75	21567.33
503.953	21661.54
504.156	21794.65
504.359	21806.94
504.562	22277.97
504.765	22429.52
504.968	22921.04
505.17	22972.24
505.373	23000.91
505.576	23545.67
505.779	23801.66
505.982	23807.81
506.185	24241.98
506.387	24280.89
506.59	24690.48
506.793	25145.13
506.996	25222.95
507.198	25612.07
507.401	25605.92
507.604	26019.61
507.807	26402.58
508.009	26304.28
508.212	26355.48
508.415	27080.46
508.617	26943.25
508.82	27363.08
509.022	27504.39
509.225	28079.87
509.428	28317.43
509.63	28587.77
509.833	28452.6
510.035	29589.22
510.238	29249.26
510.44	29488.87
510.643	29697.77
510.845	30105.31
511.048	30093.02
511.25	30607.06
511.453	30779.09
511.655	31416.01
511.858	31418.06
512.06	31282.89
512.262	31987.39
512.465	31919.81
512.667	32478.91
512.87	32659.13
513.072	32536.25
513.274	33439.4
513.477	33646.25
513.679	33765.03
513.881	34199.2
514.084	34242.21
514.286	34549.4
514.488	34629.27
514.69	35624.59
514.893	35640.97
515.095	35710.6
515.297	36169.35
515.499	36290.18
515.701	36982.39
515.904	37125.75
516.106	37226.1
516.308	37508.72
516.51	38082.15
516.712	37949.03
516.914	38590.05
517.116	39206.48
517.318	39034.46
517.52	39417.43
517.722	39937.61
517.925	40228.42
518.127	40402.5
518.329	40629.82
518.531	40336.96
518.733	41002.55
518.935	41274.93
519.136	41360.95
519.338	41913.9
519.54	42317.35
519.742	42843.68
519.944	42026.54
520.146	43161.11
520.348	43451.92
520.55	43619.86
520.752	43951.63
520.954	44467.72
521.155	43984.4
521.357	44361.22
521.559	44568.07
521.761	45284.86
521.963	45155.83
522.164	45006.33
522.366	45348.34
522.568	45950.45
522.77	45946.35
522.971	46638.56
523.173	46280.17
523.375	46912.99
523.576	46507.49
523.778	46847.46
523.98	47558.1
524.181	47029.73
524.383	47660.5
524.584	47822.29
524.786	47738.32
524.988	47719.89
525.189	47949.26
525.391	48522.69
525.592	48461.26
525.794	48559.56
525.995	48397.77
526.197	48719.3
526.398	48504.26
526.6	49087.93
526.801	49118.65
527.003	49171.9
527.204	49622.45
527.406	49683.89
527.607	49102.27
527.808	49683.89
528.01	48727.49
528.211	48975.3
528.412	50105.77
528.614	49427.9
528.815	49575.35
529.016	50306.48
529.218	49550.77
529.419	49831.35
529.62	49503.67
529.822	49356.22
530.023	49399.22
530.224	49468.86
530.425	49769.91
530.626	49204.67
530.828	49327.55
531.029	50128.3
531.23	49139.13
531.431	49468.86
531.632	49544.63
531.833	49923.5
532.035	49759.67
532.236	49491.38
532.437	49786.29
532.638	49274.3
532.839	49544.63
533.04	49755.57
533.241	49147.32
533.442	50218.41
533.643	49542.58
533.844	49337.79
534.045	49507.77
534.246	48692.68
534.447	49771.96
534.648	49198.52
534.849	49352.12
535.05	49468.86
535.251	49173.95
535.451	49487.29
535.652	49188.28
535.853	48657.86
536.054	48881.09
536.255	49452.47
536.456	48676.29
536.657	49401.27
536.857	48924.1
537.058	48479.69
537.259	48967.1
537.46	48842.18
537.66	48623.04
537.861	48418.25
538.062	48088.52
538.263	48436.68
538.463	48545.22
538.664	48223.69
538.865	48389.58
539.065	48389.58
539.266	47777.23
539.466	48618.95
539.667	48352.71
539.868	48348.62
540.068	48020.94
540.269	48125.39
540.469	48537.03
540.67	47613.4
540.87	48063.95
541.071	47805.91
541.271	48272.84
541.472	47676.88
541.672	47334.87
541.873	47535.57
542.073	47390.17
542.274	47961.55
542.474	47855.06
542.675	47345.11
542.875	48082.38
543.075	47707.6
543.276	47261.15
543.476	47787.47
543.676	47369.69
543.877	47922.64
544.077	47179.23
544.277	47590.87
544.478	47517.14
544.678	47857.1
544.878	47615.44
545.078	47637.97
545.279	47232.47
545.479	47273.43
545.679	47300.06
545.879	47418.84
546.079	47443.41
546.28	47427.03
546.48	47257.05
546.68	47527.38
546.88	47928.78
547.08	46966.24
547.28	47437.27
547.48	47042.01
547.68	47687.12
547.88	46628.32
548.081	47410.65
548.281	47373.78
548.481	47687.12
548.681	47672.79
548.881	47334.87
549.081	47285.72
549.28	47261.15
549.48	47494.61
549.68	47295.96
549.88	48223.69
550.08	47117.79
550.28	47371.74
550.48	47255
550.68	47480.28
550.88	46990.81
551.08	47320.54
551.279	47832.53
551.479	47140.32
551.679	47418.84
551.879	47756.75
552.079	47381.98
552.278	47158.75
552.478	47658.45
552.678	47476.18
552.878	47648.21
553.077	47521.24
553.277	47644.12
553.477	47867.34
553.676	47513.05
553.876	47891.92
554.076	47635.92
554.275	47451.61
554.475	46994.91
554.674	47029.73
554.874	47078.88
555.074	47379.93
555.273	47705.55
555.473	47691.22
555.672	47197.66
555.872	47404.5
556.071	47570.39
556.271	47576.53
556.47	47390.17
556.67	47128.03
556.869	47685.08
557.068	47775.19
557.268	47465.94
557.467	47189.47
557.667	47769.04
557.866	47453.65
558.065	47586.77
558.265	47351.26
558.464	47517.14
558.663	47840.72
558.863	47660.5
559.062	47873.49
559.261	47306.2
559.461	47959.5
559.66	47242.71
559.859	47609.3
560.058	47189.47
560.258	47668.69
560.457	47019.49
560.656	47820.24
560.855	47283.67
561.054	47652.31
561.253	47044.06
561.453	47437.27
561.652	47730.13
561.851	47689.17
562.05	47341.02
562.249	47150.56
562.448	47687.12
562.647	47396.31
562.846	47394.26
563.045	47341.02
563.244	47257.05
563.443	47650.26
563.642	46620.13
563.841	47085.02
564.04	47058.4
564.239	47379.93
564.438	46702.05
564.637	47246.81
564.836	47105.5
565.035	46497.25
565.234	47119.84
565.432	46650.85
565.631	46743.01
565.83	46771.68
566.029	46806.5
566.228	46536.16
566.427	46538.21
566.625	46157.29
566.824	46228.97
567.023	46548.45
567.222	45110.78
567.42	46360.04
567.619	46038.51
567.818	45856.24
568.016	45932.01
568.215	46665.19
568.414	46124.52
568.612	46349.8
568.811	45893.1
569.01	45927.92
569.208	45331.96
569.407	45716.98
569.605	45215.22
569.804	45798.9
570.002	44684.8
570.201	45035
570.4	45309.43
570.598	45028.86
570.797	44731.9
570.995	45012.48
571.193	44387.85
571.392	44987.9
571.59	44377.61
571.789	44551.68
571.987	44445.19
572.186	44084.75
572.384	44400.13
572.582	44334.6
572.781	44287.49
572.979	43470.36
573.177	43742.74
573.376	44109.32
573.574	43544.08
573.772	43734.54
573.971	43521.55
574.169	43281.94
574.367	42972.7
574.565	43728.4
574.763	43089.43
574.962	43337.24
575.16	42884.64
575.358	43081.24
575.556	42571.3
575.754	43036.19
575.952	42409.51
576.151	42778.14
576.349	42434.08
576.547	42270.25
576.745	42505.76
576.943	42112.55
577.141	42059.3
577.339	42180.14
577.537	41662
577.735	41537.07
577.933	41713.2
578.131	41588.27
578.329	41272.88
578.527	41555.5
578.725	41197.11
578.923	41197.11
579.121	41350.71
579.319	40943.16
579.516	41291.32
579.714	40881.72
579.912	40595.01
580.11	40547.9
580.308	40431.17
580.506	40527.42
580.704	39988.81
580.901	40373.83
581.099	40285.76
581.297	39941.71
581.495	39648.85
581.692	40029.77
581.89	39411.28
582.088	40009.29
582.285	39222.87
582.483	39902.79
582.681	39317.07
582.878	39054.93
583.076	38813.27
583.274	39378.51
583.471	38739.55
583.669	39177.81
583.866	38747.74
584.064	38950.49
584.262	38297.19
584.459	38782.55
584.657	38239.84
584.854	38493.79
585.052	38143.59
585.249	38381.15
585.447	38340.19
585.644	37643.88
585.841	37731.95
586.039	38139.49
586.236	37561.97
586.434	37705.32
586.631	37478
586.828	37406.32
587.026	37576.3
587.223	37262.96
587.42	36978.29
587.618	37475.95
587.815	36664.96
588.012	37248.63
588.21	36822.65
588.407	37203.57
588.604	36947.57
588.801	36728.44
588.999	36714.11
589.196	36609.66
589.393	36705.91
589.59	36345.47
589.787	36032.13
589.984	36107.91
590.182	35962.5
590.379	36404.86
590.576	35663.5
590.773	35823.24
590.97	35911.3
591.167	35649.16
591.364	35516.04
591.561	35706.51
591.758	35475.09
591.955	35221.14
592.152	35395.21
592.349	35374.73
592.546	35112.59
592.743	35659.4
592.94	34733.72
593.137	35006.1
593.334	35186.32
593.531	34629.27
593.727	34848.41
593.924	34977.43
594.121	34168.48
594.318	35229.33
594.515	34506.4
594.712	35028.63
594.908	34539.16
595.105	34664.09
595.302	34184.87
595.499	34590.36
595.696	34277.02
595.892	34404
596.089	34627.23
596.286	34303.65
596.482	34234.02
596.679	34342.56
596.876	34279.07
597.072	34010.79
597.269	34078.37
597.466	33855.14
597.662	33527.47
597.859	33633.96
598.055	33912.49
598.252	33855.14
598.448	33461.93
598.645	33572.52
598.841	33294
599.038	33502.89
599.234	33482.41
599.431	33334.96
599.627	33455.79
599.824	33894.05
600.02	33078.96
600.217	33408.68
600.413	33023.67
600.609	33357.49
600.806	33140.4
601.002	33390.25
601.198	33072.82
601.395	32890.55
601.591	33042.1
601.787	33228.46
601.984	32880.31
602.18	33218.22
602.376	33068.72
602.572	32904.88
602.769	33156.78
602.965	32831.16
603.161	32917.17
603.357	32863.93
603.553	32949.94
603.75	32853.69
603.946	32407.23
604.142	32720.57
604.338	32368.32
604.534	32648.89
604.73	32693.94
604.926	32474.81
605.122	32716.47
605.318	32755.38
605.514	32501.43
605.71	32362.17
605.906	32503.48
606.102	32882.36
606.298	33105.59
606.494	32911.03
606.69	32526.01
606.886	32509.63
607.082	32294.59
607.278	32759.48
607.474	32186.05
607.67	32769.72
607.866	32579.26
608.062	33078.96
608.257	32745.14
608.453	32835.25
608.649	32546.49
608.845	32552.63
609.041	32353.98
609.236	33189.55
609.432	32677.56
609.628	32655.03
609.824	32394.94
610.019	32257.73
610.215	32798.39
610.411	32886.45
610.606	32767.67
610.802	32710.33
610.998	33009.33
611.193	33083.06
611.389	32227.01
611.584	32589.5
611.78	32276.16
611.976	32786.1
612.171	32792.25
612.367	32765.62
612.562	32716.47
612.758	32380.6
612.953	32333.5
613.149	32708.28
613.344	32085.7
613.539	33097.39
613.735	32517.82
613.93	32599.74
614.126	32102.08
614.321	32880.31
614.517	32743.1
614.712	32657.08
614.907	32130.75
615.103	32409.28
615.298	32554.68
615.493	32951.99
615.688	32280.25
615.884	32982.71
616.079	32138.94
616.274	32523.96
616.47	32532.15
616.665	32454.33
616.86	32231.1
617.055	32507.58
617.25	32233.15
617.445	32382.65
617.641	32073.41
617.836	32906.93
618.031	31932.1
618.226	32204.48
618.421	31942.34
618.616	32085.7
618.811	31874.76
619.006	32134.85
619.201	31639.24
619.396	31823.56
619.591	31098.58
619.786	31266.51
619.981	30818
620.176	31612.62
620.371	30858.96
620.566	31243.98
620.761	30668.5
620.956	31119.06
621.151	30488.28
621.346	30910.16
621.541	30099.17
621.735	30758.61
621.93	30037.73
622.125	30516.95
622.32	29843.17
622.515	29996.77
622.709	29572.84
622.904	29599.46
623.099	29503.21
623.294	29525.74
623.488	29406.95
623.683	29482.73
623.878	29206.25
624.072	29013.74
624.267	29132.53
624.462	28624.63
624.656	28346.11
624.851	28833.52
625.046	28337.91
625.24	28184.32
625.435	28247.8
625.629	27916.03
625.824	27668.23
626.018	27875.07
626.213	27033.36
626.407	27537.16
626.602	26887.95
626.796	27080.46
626.991	27125.52
627.185	26668.82
627.38	26771.22
627.574	26470.17
627.768	26294.04
627.963	26339.1
628.157	26109.72
628.352	26187.55
628.546	25612.07
628.74	26148.64
628.935	25673.51
629.129	25589.54
629.323	25321.26
629.517	25046.83
629.712	25493.29
629.906	24977.2
630.1	24581.94
630.294	24882.99
630.489	25095.98
630.683	24819.5
630.877	24323.9
631.071	24297.27
631.265	24301.37
631.459	24117.05
631.653	23877.44
631.848	24117.05
632.042	23738.18
632.236	23971.64
632.43	23430.98
632.624	23584.58
632.818	23152.46
633.012	22998.86
633.206	23068.49
633.4	22875.98
633.594	22583.12
633.788	22904.65
633.982	22597.46
634.176	22386.52
634.369	22550.35
634.563	22378.33
634.757	22280.02
634.951	22114.14
635.145	21968.73
635.339	22073.18
635.533	21587.81
635.726	21778.27
635.92	21380.96
636.114	21559.14
636.308	21440.36
636.501	21348.2
636.695	21047.15
636.889	21012.33
637.083	20703.09
637.276	20555.63
637.47	20735.85
637.664	20598.64
637.857	20608.88
638.051	20434.8
638.244	20062.07
638.438	20113.27
638.632	20060.02
638.825	20049.78
639.019	19652.48
639.212	19707.77
639.406	19775.36
639.599	19500.93
639.793	19158.92
639.986	19099.53
640.18	19265.41
640.373	19019.66
640.567	18812.81
640.76	18816.91
640.954	18732.94
641.147	18798.48
641.34	18372.5
641.534	18548.62
641.727	18687.89
641.92	18167.7
642.114	17979.29
642.307	17844.12
642.5	17780.64
642.694	17549.21
642.887	17565.6
643.08	17672.09
643.273	17616.8
643.467	17303.46
643.66	16983.98
643.853	17139.62
644.046	17182.63
644.239	16990.12
644.432	17004.46
644.626	16783.27
644.819	16779.18
645.012	16764.84
645.205	16578.48
645.398	16480.18
645.591	16402.35
645.784	16271.28
645.977	16054.2
646.17	16379.82
646.363	16060.34
646.556	15904.7
646.749	15589.31
646.942	15849.4
647.135	15665.08
647.328	15593.4
647.521	15503.29
647.714	15374.27
647.907	15265.73
648.099	15243.2
648.292	15099.84
648.485	15024.07
648.678	14833.61
648.871	14907.34
649.064	14770.12
649.256	14612.43
649.449	14424.01
649.642	14669.77
649.835	14446.54
650.027	14239.7
650.22	14045.14
650.413	14256.08
650.605	14217.17
650.798	14041.04
650.991	14125.01
651.183	13979.61
651.376	13758.42
651.568	13846.49
651.761	13711.32
651.954	13727.71
652.146	13535.2
652.339	13469.66
652.531	13451.23
652.724	13316.06
652.916	13381.6
653.109	13207.52
653.301	13068.26
653.494	13015.01
653.686	12838.89
653.879	13160.42
654.071	12937.19
654.263	12802.02
654.456	12619.75
654.648	12570.6
654.84	12470.25
655.033	12439.53
655.225	12222.45
655.417	12189.68
655.61	12287.98
655.802	12249.07
655.994	12128.24
656.186	12050.42
656.379	12224.5
656.571	11911.16
656.763	11962.36
656.955	11853.81
657.148	11657.21
657.34	11939.83
657.532	11665.4
657.724	11638.78
657.916	11630.59
658.108	11388.92
658.3	11487.23
658.492	11546.62
658.684	11036.67
658.876	11270.14
659.068	11118.59
659.26	11159.55
659.452	10901.51
659.644	10969.09
659.836	10989.57
660.028	11089.92
660.22	10549.26
660.412	10680.33
660.604	10541.07
660.796	10496.01
660.988	10674.18
661.18	10457.1
661.372	10455.05
661.563	10336.27
661.755	10254.35
661.947	10334.22
662.139	10305.55
662.331	10108.94
662.522	9947.15
662.714	10080.27
662.906	9971.73
663.097	9924.63
663.289	10016.79
663.481	9828.37
663.673	9938.96
663.864	9793.56
664.056	9611.29
664.247	9713.69
664.439	9472.03
664.631	9486.36
664.822	9455.64
665.014	9426.97
665.205	9386.01
665.397	9431.07
665.588	9291.8
665.78	9269.28
665.971	9213.98
666.163	9078.82
666.354	9123.87
666.546	8980.51
666.737	8955.94
666.929	8751.14
667.12	8759.33
667.311	8865.83
667.503	8771.62
667.694	8806.44
667.885	8593.45
668.077	8628.26
668.268	8372.27
668.459	8775.72
668.651	8359.98
668.842	8278.06
669.033	8472.62
669.224	8398.89
669.416	8607.78
669.607	8460.33
669.798	8302.64
669.989	8216.62
670.18	8079.41
670.371	8136.75
670.563	8132.65
670.754	8149.04
670.945	8073.26
671.136	8198.19
671.327	8003.63
671.518	7960.63
671.709	8032.3
671.9	7913.52
672.091	7915.57
672.282	7794.74
672.473	7837.75
672.664	7825.46
672.855	7587.89
673.046	7780.4
673.237	7729.2
673.428	7583.8
673.619	7663.67
673.809	7604.28
674	7475.26
674.191	7696.44
674.382	7465.02
674.573	7721.01
674.764	7489.59
674.954	7737.4
675.145	7481.4
675.336	7344.19
675.527	7399.48
675.717	7280.7
675.908	7305.28
676.099	7034.94
676.289	7399.48
676.48	7227.45
676.671	7120.96
676.861	7006.27
677.052	7159.87
677.243	7057.47
677.433	7131.2
677.624	7059.52
677.814	6920.26
678.005	7096.38
678.195	6979.65
678.386	7024.7
678.576	6977.6
678.767	6916.16
678.957	7161.92
679.148	6936.64
679.338	6869.06
679.529	6852.67
679.719	6879.3
679.909	6969.41
680.1	6910.02
680.29	6768.71
680.481	6711.36
680.671	6766.66
680.861	6891.59
681.052	6793.28
681.242	6799.43
681.432	6764.61
681.622	6576.2
681.813	6703.17
682.003	6586.44
682.193	6654.02
682.383	6678.6
682.573	6604.87
682.764	6572.1
682.954	6565.96
683.144	6606.92
683.334	6428.74
683.524	6432.84
683.714	6498.38
683.904	6428.74
684.094	6572.1
684.284	6416.46
684.474	6361.16
684.664	6344.78
684.854	6395.98
685.044	6371.4
685.234	6412.36
685.424	6156.36
685.614	6285.39
685.804	6332.49
685.994	6248.52
686.184	6017.1
686.374	6178.89
686.564	6051.92
686.753	6195.28
686.943	6068.3
687.133	6277.19
687.323	6096.97
687.513	6299.72
687.702	6121.55
687.892	5984.34
688.082	6076.49
688.272	6008.91
688.461	5873.75
688.651	6049.87
688.841	6027.34
689.03	5937.23
689.22	5828.69
689.41	5965.9
689.599	5890.13
689.789	5859.41
689.979	5679.19
690.168	5802.07
690.358	5773.39
690.547	5826.64
690.737	5793.87
690.926	5613.65
691.116	5548.12
691.305	5818.45
691.495	5820.5
691.684	5533.78
691.874	5609.56
692.063	5650.52
692.252	5544.02
692.442	5705.81
692.631	5572.69
692.82	5376.09
693.01	5662.8
693.199	5374.04
693.388	5296.22
693.578	5408.86
693.767	5451.86
693.956	5371.99
694.146	5384.28
694.335	5255.26
694.524	5191.77
694.713	5417.05
694.902	5328.99
695.092	5159
695.281	5202.01
695.47	5345.37
695.659	5148.76
695.848	5173.34
696.037	5105.76
696.226	5216.35
696.415	5228.63
696.604	5148.76
696.793	5083.23
696.982	5242.97
697.171	5208.16
697.36	5052.51
697.549	4984.93
697.738	4993.12
697.927	5023.84
698.116	4884.58
698.305	4984.93
698.494	4954.21
698.683	5007.45
698.872	4999.26
699.061	4960.35
699.25	4950.11
699.438	4892.77
699.627	4898.91
699.816	4925.54
700.005	4730.98
700.193	4747.36
700.382	4847.71
700.571	4728.93
700.76	4794.47
700.948	4808.8
701.137	4722.79
701.326	4720.74
701.514	4649.06
701.703	4608.1
701.892	4710.5
702.08	4624.48
702.269	4794.47
702.457	4591.72
702.646	4579.43
702.834	4567.14
703.023	4511.85
703.212	4671.59
703.4	4636.77
703.589	4495.46
703.777	4644.96
703.965	4501.61
704.154	4468.84
704.342	4354.15
704.531	4474.98
704.719	4368.49
704.907	4442.21
705.096	4221.03
705.284	4386.92
705.472	4356.2
705.661	4327.53
705.849	4274.28
706.037	4302.95
706.226	4198.51
706.414	4360.3
706.602	4296.81
706.79	4311.14
706.979	4257.9
707.167	4188.27
707.355	4188.27
707.543	4272.23
707.731	4157.55
707.919	4257.9
708.107	3913.84
708.296	4196.46
708.484	4069.48
708.672	4171.88
708.86	4173.93
709.048	4173.93
709.236	3934.32
709.424	4075.63
709.612	4016.24
709.8	4010.09
709.988	3930.22
710.176	3997.81
710.364	3985.52
710.551	4012.14
710.739	3895.41
710.927	3778.67
711.115	3866.74
711.303	3919.98
711.491	3885.17
711.679	3881.07
711.866	3856.5
712.054	3811.44
712.242	3836.02
712.43	3846.26
712.617	3737.71
712.805	3840.11
712.993	3790.96
713.181	3610.74
713.368	3733.62
713.556	3631.22
713.744	3467.38
713.931	3803.25
714.119	3666.03
714.306	3704.95
714.494	3680.37
714.682	3582.07
714.869	3528.82
715.057	3502.2
715.244	3582.07
715.432	3657.84
715.619	3510.39
715.807	3475.57
715.994	3549.3
716.182	3455.09
716.369	3467.38
716.556	3467.38
716.744	3360.89
716.931	3338.36
717.119	3360.89
717.306	3385.46
717.493	3534.96
717.681	3442.81
717.868	3545.2
718.055	3389.56
718.242	3276.92
718.43	3393.65
718.617	3410.04
718.804	3205.24
718.991	3383.42
719.179	3354.74
719.366	3182.71
719.553	3352.7
719.74	3379.32
719.927	3281.02
720.114	3307.64
720.301	3221.63
720.488	3272.82
720.676	3074.17
720.863	3188.86
721.05	3268.73
721.237	3197.05
721.424	3242.11
721.611	3192.95
721.798	3072.12
721.985	3068.03
722.172	3141.75
722.358	3084.41
722.545	3078.27
722.732	3156.09
722.919	3125.37
723.106	3037.31
723.293	3076.22
723.48	2957.44
723.667	2992.25
723.853	3033.21
724.04	2984.06
724.227	3022.97
724.414	2887.81
724.6	3049.6
724.787	3068.03
724.974	3027.07
725.161	2943.1
725.347	2988.16
725.534	2951.29
725.72	2906.24
725.907	2783.36
726.094	2885.76
726.28	2795.65
726.467	2865.28
726.653	2885.76
726.84	2936.96
727.027	2871.42
727.213	2812.03
727.4	2830.46
727.586	2809.98
727.773	2869.37
727.959	2904.19
728.145	2844.8
728.332	2730.11
728.518	2840.7
728.705	2723.97
728.891	2697.35
729.077	2805.89
729.264	2732.16
729.45	2723.97
729.636	2644.1
729.823	2748.54
730.009	2699.39
730.195	2674.82
730.382	2656.39
730.568	2601.09
730.754	2601.09
730.94	2599.04
731.126	2658.43
731.313	2668.67
731.499	2607.23
731.685	2648.19
731.871	2707.59
732.057	2676.87
732.243	2676.87
732.429	2693.25
732.615	2592.9
732.801	2619.52
732.987	2615.43
733.173	2578.56
733.359	2687.11
733.545	2549.89
733.731	2508.93
733.917	2590.85
734.103	2576.52
734.289	2443.4
734.475	2574.47
734.661	2574.47
734.847	2558.08
735.033	2431.11
735.219	2582.66
735.404	2504.84
735.59	2492.55
735.776	2416.77
735.962	2388.1
736.148	2461.83
736.333	2556.04
736.519	2408.58
736.705	2439.3
736.89	2435.21
737.076	2373.77
737.262	2320.52
737.447	2228.36
737.633	2349.19
737.819	2396.29
738.004	2484.36
738.19	2418.82
738.375	2351.24
738.561	2324.62
738.747	2330.76
738.932	2166.92
739.118	2263.18
739.303	2379.91
739.489	2287.75
739.674	2173.07
739.859	2226.31
740.045	2199.69
740.23	2279.56
740.416	2140.3
740.601	2291.85
740.786	2263.18
740.972	2185.35
741.157	2271.37
741.342	2238.6
741.528	2230.41
741.713	2128.01
741.898	2107.53
742.084	2156.68
742.269	2164.87
742.454	2271.37
742.639	2173.07
742.824	2033.8
743.01	2060.43
743.195	2130.06
743.38	2128.01
743.565	2074.76
743.75	2093.19
743.935	2064.52
744.12	2101.39
744.305	2050.19
744.49	2033.8
744.675	1951.88
744.86	1902.73
745.045	2046.09
745.23	2042
745.415	1962.12
745.6	2033.8
745.785	1980.56
745.97	1929.36
746.155	1939.6
746.34	1976.46
746.525	1863.82
746.71	1915.02
746.895	1814.67
747.079	1812.62
747.264	1943.69
747.449	2009.23
747.634	1863.82
747.819	1867.92
748.003	1804.43
748.188	1673.36
748.373	1749.14
748.557	1853.58
748.742	1654.93
748.927	1763.47
749.111	1667.22
749.296	1765.52
749.481	1790.1
749.665	1722.51
749.85	1628.31
750.034	1675.41
750.219	1794.19
750.404	1648.79
750.588	1640.59
750.773	1654.93
750.957	1656.98
751.141	1685.65
751.326	1525.91
751.51	1607.83
751.695	1583.25
751.879	1587.35
752.064	1581.2
752.248	1489.04
752.432	1546.39
752.617	1675.41
752.801	1626.26
752.985	1419.41
753.17	1564.82
753.354	1536.15
753.538	1468.56
753.722	1429.65
753.907	1427.6
754.091	1394.84
754.275	1427.6
754.459	1474.71
754.643	1384.6
754.828	1355.93
755.012	1478.8
755.196	1464.47
755.38	1446.04
755.564	1378.45
755.748	1323.16
755.932	1370.26
756.116	1427.6
756.3	1319.06
756.484	1310.87
756.668	1339.54
756.852	1255.58
757.036	1325.21
757.22	1140.89
757.404	1208.47
757.588	1308.82
757.772	1210.52
757.956	1214.62
758.14	1284.25
758.323	1183.9
758.507	1233.05
758.691	1233.05
758.875	1177.75
759.059	1214.62
759.242	1149.08
759.426	1085.59
759.61	1124.51
759.794	1167.51
759.977	1226.9
760.161	1226.9
760.345	1099.93
760.528	1034.39
760.712	1187.99
760.895	1071.26
761.079	1124.51
761.263	1134.75
761.446	1101.98
761.63	1048.73
761.813	1110.17
761.997	1159.32
762.18	1173.66
762.364	1173.66
762.547	1028.25
762.731	1079.45
762.914	1061.02
763.098	1132.7
763.281	1136.79
763.464	1116.31
763.648	985.24
763.831	1058.97
764.015	954.52
764.198	1058.97
764.381	1087.64
764.564	1048.73
764.748	1054.87
764.931	1083.55
765.114	1018.01
765.297	1001.63
765.481	1034.39
765.664	960.67
765.847	1013.92
766.03	1018.01
766.213	962.72
766.397	1042.59
766.58	968.86
766.763	970.91
766.946	993.44
767.129	1013.92
767.312	886.94
767.495	893.09
767.678	886.94
767.861	989.34
768.044	956.57
768.227	923.8
768.41	845.98
768.593	970.91
768.776	927.9
768.959	913.56
769.142	903.32
769.324	886.94
769.507	929.95
769.69	972.96
769.873	866.46
770.056	921.76
770.239	868.51
770.421	917.66
770.604	989.34
770.787	854.17
770.97	866.46
771.152	837.79
771.335	923.8
771.518	897.18
771.7	917.66
771.883	897.18
772.066	862.37
772.248	913.56
772.431	886.94
772.613	821.41
772.796	872.61
772.978	833.69
773.161	921.76
773.343	811.17
773.526	833.69
773.708	755.87
773.891	747.68
774.073	854.17
774.256	856.22
774.438	802.97
774.621	751.78
774.803	684.19
774.985	845.98
775.168	839.84
775.35	733.34
775.532	837.79
775.715	768.16
775.897	755.87
776.079	741.54
776.261	819.36
776.444	731.3
776.626	747.68
776.808	596.13
776.99	682.14
777.173	686.24
777.355	774.3
777.537	645.28
777.719	653.47
777.901	723.1
778.083	620.71
778.265	663.71
778.447	712.86
778.629	600.23
778.811	725.15
778.993	667.81
779.175	727.2
779.357	649.38
779.539	704.67
779.721	622.75
779.903	745.63
780.085	600.23
780.267	698.53
780.449	620.71
780.631	723.1
780.812	618.66
780.994	616.61
781.176	604.32
781.358	600.23
781.54	561.31
781.721	608.42
781.903	667.81
782.085	551.07
782.267	575.65
782.448	491.68
782.63	571.55
782.812	514.21
782.993	592.03
783.175	567.46
783.357	559.27
783.538	538.79
783.72	491.68
783.901	516.26
784.083	630.95
784.264	520.35
784.446	473.25
784.627	506.02
784.809	524.45
784.99	518.31
785.172	620.71
785.353	575.65
785.535	469.16
785.716	403.62
785.897	489.64
786.079	546.98
786.26	475.3
786.441	471.2
786.623	385.19
786.804	440.48
786.985	440.48
787.167	483.49
787.348	506.02
787.529	479.4
787.71	489.64
787.891	546.98
788.073	473.25
788.254	393.38
788.435	420
788.616	489.64
788.797	342.18
788.978	440.48
789.159	411.81
789.34	432.29
789.522	420
789.703	413.86
789.884	422.05
790.065	430.24
790.246	428.2
790.427	446.63
790.607	313.51
790.788	389.28
790.969	403.62
791.15	395.43
791.331	329.89
791.512	385.19
791.693	325.8
791.874	383.14
792.054	446.63
792.235	446.63
792.416	358.57
792.597	360.61
792.778	333.99
792.958	452.77
793.139	387.24
793.32	381.09
793.5	297.13
793.681	413.86
793.862	338.09
794.042	331.94
794.223	268.45
794.404	348.33
794.584	313.51
794.765	313.51
794.945	420
795.126	268.45
795.306	403.62
795.487	338.09
795.667	321.7
795.848	268.45
796.028	280.74
796.209	301.22
796.389	338.09
796.57	250.02
796.75	270.5
796.93	350.37
797.111	327.85
797.291	293.03
797.471	426.15
797.652	256.17
797.832	231.59
798.012	280.74
798.192	274.6
798.373	266.41
798.553	338.09
798.733	313.51
798.913	270.5
799.093	329.89
799.274	342.18
799.454	311.46
799.634	278.69
799.814	313.51
799.994	315.56
800.174	264.36
800.354	272.55
800.534	256.17
800.714	272.55
800.894	262.31
801.074	198.82
801.254	200.87
801.434	315.56
801.614	245.93
801.794	268.45
801.974	819.36
802.154	250.02
802.334	284.84
802.514	262.31
802.693	250.02
802.873	346.28
803.053	215.21
803.233	215.21
803.413	250.02
803.592	243.88
803.772	161.96
803.952	272.55
804.131	241.83
804.311	280.74
804.491	288.93
804.67	180.39
804.85	182.44
805.03	256.17
805.209	262.31
805.389	272.55
805.568	256.17
805.748	245.93
805.928	258.21
806.107	198.82
806.287	172.2
806.466	252.07
806.646	239.78
806.825	241.83
807.004	280.74
807.184	223.4
807.363	168.1
807.543	215.21
807.722	159.91
807.901	233.64
808.081	182.44
808.26	258.21
808.439	182.44
808.619	211.11
808.798	254.12
808.977	184.49
809.156	288.93
809.336	157.86
809.515	149.67
809.694	186.54
809.873	155.82
810.052	141.48
810.231	198.82
810.411	176.3
810.59	333.99
810.769	159.91
810.948	209.06
811.127	110.76
811.306	215.21
811.485	223.4
811.664	209.06
811.843	211.11
812.022	198.82
812.201	235.69
812.38	86.19
812.559	161.96
812.737	157.86
812.916	157.86
813.095	125.1
813.274	112.81
813.453	174.25
813.632	196.78
813.811	207.02
813.989	108.71
814.168	90.28
814.347	153.77
814.526	166.06
814.704	258.21
814.883	223.4
815.062	127.14
815.24	176.3
815.419	166.06
815.598	166.06
815.776	116.9
815.955	164.01
816.133	100.52
816.312	116.9
816.49	129.19
816.669	194.73
816.847	112.81
817.026	200.87
817.204	133.29
817.383	161.96
817.561	190.63
817.74	116.9
817.918	161.96
818.097	174.25
818.275	112.81
818.453	166.06
818.632	135.34
818.81	155.82
818.988	110.76
819.167	159.91
819.345	125.1
819.523	45.23
819.701	168.1
819.879	141.48
820.058	190.63
820.236	143.53
820.414	159.91
820.592	94.38
820.77	219.3
820.948	86.19
821.127	141.48
821.305	147.62
821.483	32.94
821.661	123.05
821.839	174.25
822.017	127.14
822.195	118.95
822.373	149.67
822.551	200.87
822.729	67.75
822.907	94.38
823.085	133.29
823.262	112.81
823.44	116.9
823.618	125.1
823.796	75.95
823.974	34.99
824.152	104.62
824.329	112.81
824.507	225.45
824.685	131.24
824.863	88.23
825.04	166.06
825.218	84.14
825.396	149.67
825.574	100.52
825.751	125.1
825.929	164.01
826.107	84.14
826.284	94.38
826.462	104.62
826.639	59.56
826.817	118.95
826.994	125.1
827.172	100.52
827.349	198.82
827.527	178.34
827.704	92.33
827.882	133.29
828.059	135.34
828.237	166.06
828.414	155.82
828.591	30.89
828.769	139.43
828.946	53.42
829.124	133.29
829.301	116.9
829.478	26.79
829.655	71.85
829.833	84.14
830.01	49.32
830.187	102.57
830.364	-42.84
830.542	129.19
830.719	45.23
830.896	77.99
831.073	77.99
831.25	164.01
831.427	-12.12
831.604	102.57
831.782	100.52
831.959	153.77
832.136	67.75
832.313	129.19
832.49	90.28
832.667	92.33
832.844	34.99
833.021	151.72
833.198	77.99
833.374	43.18
833.551	135.34
833.728	37.03
833.905	71.85
834.082	47.27
834.259	116.9
834.436	170.15
834.612	59.56
834.789	84.14
834.966	43.18
835.143	116.9
835.319	75.95
835.496	84.14
835.673	90.28
835.85	108.71
836.026	47.27
836.203	133.29
836.38	86.19
836.556	59.56
836.733	84.14
836.909	137.38
837.086	127.14
837.262	37.03
837.439	96.43
837.616	94.38
837.792	141.48
837.968	102.57
838.145	28.84
838.321	96.43
838.498	92.33
838.674	110.76
838.851	75.95
839.027	55.47
839.203	116.9
839.38	100.52
839.556	100.52
839.732	59.56
839.909	92.33
840.085	143.53
840.261	84.14
840.437	84.14
840.614	10.41
840.79	131.24
840.966	61.61
841.142	112.81
841.318	26.79
841.494	75.95
841.671	116.9
841.847	157.86
842.023	100.52
842.199	110.76
842.375	108.71
842.551	2.22
842.727	57.51
842.903	133.29
843.079	104.62
843.255	86.19
843.431	59.56
843.607	149.67
843.783	28.84
843.959	22.7
844.134	14.51
844.31	153.77
844.486	63.66
844.662	51.37
844.838	102.57
845.013	32.94
845.189	59.56
845.365	86.19
845.541	80.04
845.716	118.95
845.892	67.75
846.068	96.43
846.244	-18.26
846.419	55.47
846.595	24.75
846.77	34.99
846.946	82.09
847.122	92.33
847.297	37.03
847.473	80.04
847.648	92.33
847.824	100.52
847.999	61.61
848.175	18.6
848.35	61.61
848.526	125.1
848.701	129.19
848.876	75.95
849.052	45.23
849.227	108.71
849.403	37.03
849.578	112.81
849.753	34.99
849.929	59.56
850.104	28.84
850.279	61.61
850.454	51.37
850.63	65.71
850.805	75.95
850.98	131.24
851.155	61.61
851.33	88.23
851.505	14.51
851.681	82.09
851.856	96.43
852.031	28.84
852.206	75.95
852.381	2.22
852.556	57.51
852.731	84.14
852.906	114.86
853.081	125.1
853.256	51.37
853.431	110.76
853.606	102.57
853.781	116.9
853.956	14.51
854.131	-10.07
854.305	10.41
854.48	10.41
854.655	18.6
854.83	49.32
855.005	67.75
855.18	-12.12
855.354	20.65
855.529	39.08
855.704	-12.12
855.879	10.41
856.053	28.84
856.228	8.36
856.403	37.03
856.577	-30.55
856.752	-32.6
856.926	67.75
857.101	12.46
857.276	39.08
857.45	-1.88
857.625	104.62
857.799	43.18
857.974	84.14
858.148	18.6
858.323	63.66
858.497	43.18
858.672	96.43
858.846	28.84
859.02	49.32
859.195	59.56
859.369	118.95
859.543	-1.88
859.718	10.41
859.892	-1.88
860.066	20.65
860.241	-10.07
860.415	121
860.589	8.36
860.763	100.52
860.938	51.37
861.112	53.42
861.286	59.56
861.46	100.52
861.634	0.17
861.808	108.71
861.982	77.99
862.157	-18.26
862.331	-5.97
862.505	-38.74
862.679	-34.64
862.853	22.7
863.027	45.23
863.201	125.1
863.375	-22.36
863.549	71.85
863.722	92.33
863.896	10.41
864.07	2.22
864.244	32.94
864.418	18.6
864.592	59.56
864.766	-5.97
864.939	49.32
865.113	51.37
865.287	-22.36
865.461	4.27
865.634	-14.17
865.808	104.62
865.982	8.36
866.156	-55.12
866.329	-22.36
866.503	12.46
866.676	41.13
866.85	26.79
867.024	73.9
867.197	67.75
867.371	-42.84
867.544	10.41
867.718	-3.93
867.891	84.14
868.065	-30.55
868.238	67.75
868.412	84.14
868.585	4.27
868.759	133.29
868.932	0.17
869.105	14.51
869.279	22.7
869.452	67.75
869.625	30.89
869.799	-18.26
869.972	59.56
870.145	-1.88
870.319	-22.36
870.492	18.6
870.665	37.03
870.838	-22.36
871.011	-22.36
871.185	59.56
871.358	59.56
871.531	67.75
871.704	-18.26
871.877	26.79
872.05	26.79
872.223	16.55
872.396	18.6
872.569	67.75
872.742	-22.36
872.915	77.99
873.088	-5.97
873.261	59.56
873.434	67.75
873.607	18.6
873.78	16.55
873.953	22.7
874.126	6.31
874.299	14.51
874.471	34.99
874.644	-30.55
874.817	63.66
874.99	141.48
875.163	30.89
875.335	10.41
875.508	-5.97
875.681	30.89
875.853	37.03
876.026	10.41
876.199	96.43
876.371	75.95
876.544	80.04
876.717	2.22
876.889	24.75
877.062	75.95
877.234	37.03
877.407	-16.21
877.579	-22.36
877.752	2.22
877.924	47.27
878.097	28.84
878.269	-14.17
878.442	-3.93
878.614	34.99
878.786	2.22
878.959	43.18
879.131	88.23
879.303	-14.17
879.476	45.23
879.648	-14.17
879.82	39.08
879.993	-30.55
880.165	-10.07
880.337	-8.02
880.509	-34.64
880.681	18.6
880.854	-38.74
881.026	-22.36
881.198	86.19
881.37	10.41
881.542	6.31
881.714	108.71
881.886	47.27
882.058	34.99
882.23	51.37
882.402	71.85
882.574	94.38
882.746	26.79
882.918	71.85
883.09	0.17
883.262	26.79
883.434	108.71
883.606	-46.93
883.778	-53.08
883.95	145.58
884.122	10.41
884.293	55.47
884.465	67.75
884.637	-22.36
884.809	10.41
884.98	-20.31
885.152	53.42
885.324	39.08
885.496	77.99
885.667	-12.12
885.839	-48.98
886.011	84.14
886.182	51.37
886.354	71.85
886.525	43.18
886.697	26.79
886.869	-48.98
887.04	-34.64
887.212	88.23
887.383	88.23
887.555	22.7
887.726	39.08
887.897	2.22
888.069	10.41
888.24	26.79
888.412	24.75
888.583	67.75
888.754	82.09
888.926	22.7
889.097	26.79
889.268	10.41
889.44	69.8
889.611	14.51
889.782	41.13
889.953	-18.26
890.125	73.9
890.296	37.03
890.467	41.13
890.638	22.7
890.809	51.37
890.98	-24.4
891.151	2.22
891.323	-5.97
891.494	-36.69
891.665	67.75
891.836	-5.97
892.007	43.18
892.178	61.61
892.349	-16.21
892.52	10.41
892.691	57.51
892.862	125.1
893.032	-42.84
893.203	-71.51
893.374	-1.88
893.545	88.23
893.716	-30.55
893.887	-12.12
894.057	10.41
894.228	2.22
894.399	37.03
894.57	69.8
894.74	10.41
894.911	43.18
895.082	-22.36
895.253	-8.02
895.423	37.03
895.594	-69.46
895.764	-14.17
895.935	-46.93
896.106	-30.55
896.276	55.47
896.447	34.99
896.617	-57.17
896.788	6.31
896.958	-1.88
897.129	-32.6
897.299	2.22
897.47	0.17
897.64	47.27
897.81	-14.17
897.981	34.99
898.151	51.37
898.322	34.99
898.492	59.56
898.662	-30.55
898.832	61.61
899.003	61.61
899.173	90.28
899.343	12.46
899.513	14.51
