Data from USB4F104151__188__14-32-58-281.txt Node

Date: Thu Mar 13 14:32:58 EDT 2025
User: louis
Spectrometer: USB4F10415
Trigger mode: 4
Integration Time (sec): 2.500000E-2
Scans to average: 1
Electric dark correction enabled: true
Nonlinearity correction enabled: false
Boxcar width: 0
XAxis mode: Wavelengths
Number of Pixels in Spectrum: 3648
>>>>>Begin Spectral Data<<<<<
178.204	-41.98
178.424	-41.98
178.644	-41.98
178.864	-152.57
179.084	-191.49
179.304	-70.65
179.524	-41.98
179.744	-1.02
179.964	21.5
180.184	-25.6
180.404	37.89
180.624	19.46
180.844	-9.22
181.064	9.22
181.283	60.42
181.503	-44.03
181.723	44.03
181.943	-11.26
182.163	72.7
182.383	-78.85
182.602	80.89
182.822	64.51
183.042	-17.41
183.262	-7.17
183.482	44.03
183.701	-50.18
183.921	13.31
184.141	21.5
184.361	113.66
184.58	-29.7
184.8	-27.65
185.02	21.5
185.239	39.94
185.459	23.55
185.679	27.65
185.898	31.74
186.118	31.74
186.338	33.79
186.557	64.51
186.777	-74.75
186.997	19.46
187.216	-5.12
187.436	64.51
187.655	27.65
187.875	111.61
188.095	5.12
188.314	39.94
188.534	19.46
188.753	-11.26
188.973	52.22
189.192	39.94
189.412	-13.31
189.631	3.07
189.851	13.31
190.07	70.65
190.29	-13.31
190.509	29.7
190.729	5.12
190.948	46.08
191.168	119.81
191.387	5.12
191.607	35.84
191.826	15.36
192.045	19.46
192.265	-21.5
192.484	1.02
192.704	19.46
192.923	-19.46
193.142	87.04
193.362	35.84
193.581	113.66
193.8	46.08
194.02	11.26
194.239	7.17
194.458	84.99
194.678	68.61
194.897	84.99
195.116	3.07
195.335	-5.12
195.555	68.61
195.774	93.18
195.993	48.13
196.212	27.65
196.432	-9.22
196.651	50.18
196.87	70.65
197.089	78.85
197.308	68.61
197.528	13.31
197.747	19.46
197.966	-9.22
198.185	54.27
198.404	35.84
198.623	27.65
198.842	64.51
199.062	41.98
199.281	15.36
199.5	-11.26
199.719	13.31
199.938	95.23
200.157	80.89
200.376	11.26
200.595	25.6
200.814	56.32
201.033	27.65
201.252	103.42
201.471	52.22
201.69	52.22
201.909	19.46
202.128	46.08
202.347	-19.46
202.566	64.51
202.785	-13.31
203.004	37.89
203.223	187.39
203.442	29.7
203.661	11.26
203.879	3.07
204.098	52.22
204.317	-1.02
204.536	52.22
204.755	23.55
204.974	84.99
205.193	-13.31
205.411	158.72
205.63	-54.27
205.849	-11.26
206.068	17.41
206.287	-23.55
206.505	19.46
206.724	64.51
206.943	5.12
207.162	64.51
207.381	99.33
207.599	56.32
207.818	37.89
208.037	37.89
208.255	35.84
208.474	-37.89
208.693	1.02
208.911	-9.22
209.13	70.65
209.349	-21.5
209.567	-21.5
209.786	52.22
210.005	27.65
210.223	21.5
210.442	-54.27
210.661	-5.12
210.879	-48.13
211.098	39.94
211.316	52.22
211.535	31.74
211.753	21.5
211.972	111.61
212.191	39.94
212.409	27.65
212.628	25.6
212.846	-37.89
213.065	-31.74
213.283	62.46
213.502	-5.12
213.72	50.18
213.938	105.47
214.157	27.65
214.375	39.94
214.594	5.12
214.812	54.27
215.031	-54.27
215.249	27.65
215.467	52.22
215.686	7.17
215.904	5.12
216.122	-3.07
216.341	19.46
216.559	-19.46
216.778	44.03
216.996	58.37
217.214	13.31
217.432	19.46
217.651	13.31
217.869	52.22
218.087	19.46
218.306	-13.31
218.524	103.42
218.742	15.36
218.96	27.65
219.179	-29.7
219.397	15.36
219.615	117.76
219.833	39.94
220.051	-37.89
220.27	62.46
220.488	70.65
220.706	29.7
220.924	66.56
221.142	-52.22
221.36	-3.07
221.578	21.5
221.796	7.17
222.015	66.56
222.233	-21.5
222.451	109.57
222.669	-5.12
222.887	80.89
223.105	-41.98
223.323	54.27
223.541	19.46
223.759	76.8
223.977	-19.46
224.195	95.23
224.413	29.7
224.631	-1.02
224.849	27.65
225.067	-5.12
225.285	56.32
225.503	35.84
225.721	-29.7
225.939	44.03
226.157	64.51
226.375	62.46
226.592	-50.18
226.81	-11.26
227.028	27.65
227.246	-13.31
227.464	-13.31
227.682	52.22
227.9	-11.26
228.117	37.89
228.335	91.13
228.553	7.17
228.771	19.46
228.989	39.94
229.206	46.08
229.424	-31.74
229.642	27.65
229.86	62.46
230.077	7.17
230.295	-37.89
230.513	64.51
230.731	46.08
230.948	27.65
231.166	117.76
231.384	15.36
231.601	25.6
231.819	-13.31
232.037	19.46
232.254	35.84
232.472	62.46
232.689	72.7
232.907	87.04
233.125	68.61
233.342	39.94
233.56	-13.31
233.777	78.85
233.995	-5.12
234.213	93.18
234.43	-52.22
234.648	62.46
234.865	35.84
235.083	60.42
235.3	52.22
235.518	125.95
235.735	93.18
235.953	54.27
236.17	23.55
236.388	27.65
236.605	76.8
236.822	19.46
237.04	48.13
237.257	19.46
237.475	35.84
237.692	27.65
237.909	27.65
238.127	60.42
238.344	78.85
238.562	44.03
238.779	-109.57
238.996	-60.42
239.214	78.85
239.431	72.7
239.648	-21.5
239.865	-1.02
240.083	76.8
240.3	54.27
240.517	-29.7
240.735	-1.02
240.952	76.8
241.169	60.42
241.386	19.46
241.603	105.47
241.821	5.12
242.038	31.74
242.255	84.99
242.472	-5.12
242.689	95.23
242.907	27.65
243.124	-11.26
243.341	39.94
243.558	-9.22
243.775	-29.7
243.992	-48.13
244.209	7.17
244.426	78.85
244.643	35.84
244.86	35.84
245.078	52.22
245.295	3.07
245.512	23.55
245.729	-27.65
245.946	35.84
246.163	39.94
246.38	54.27
246.597	-5.12
246.814	3.07
247.031	78.85
247.248	31.74
247.464	46.08
247.681	70.65
247.898	54.27
248.115	56.32
248.332	7.17
248.549	72.7
248.766	113.66
248.983	62.46
249.2	109.57
249.417	35.84
249.633	27.65
249.85	111.61
250.067	44.03
250.284	29.7
250.501	-1.02
250.717	50.18
250.934	19.46
251.151	37.89
251.368	19.46
251.585	35.84
251.801	-27.65
252.018	-37.89
252.235	15.36
252.451	-5.12
252.668	-25.6
252.885	76.8
253.102	-19.46
253.318	-21.5
253.535	68.61
253.752	31.74
253.968	-31.74
254.185	-31.74
254.401	7.17
254.618	39.94
254.835	11.26
255.051	130.05
255.268	68.61
255.484	72.7
255.701	48.13
255.917	-5.12
256.134	-58.37
256.351	54.27
256.567	-78.85
256.784	48.13
257	-37.89
257.217	87.04
257.433	54.27
257.65	62.46
257.866	62.46
258.082	-33.79
258.299	11.26
258.515	48.13
258.732	-17.41
258.948	7.17
259.165	33.79
259.381	80.89
259.597	11.26
259.814	-46.08
260.03	37.89
260.246	44.03
260.463	-9.22
260.679	84.99
260.895	-11.26
261.112	31.74
261.328	-37.89
261.544	-13.31
261.761	91.13
261.977	-91.13
262.193	-52.22
262.409	23.55
262.626	97.28
262.842	46.08
263.058	1.02
263.274	1.02
263.49	11.26
263.707	5.12
263.923	44.03
264.139	-17.41
264.355	13.31
264.571	111.61
264.787	-29.7
265.004	93.18
265.22	-19.46
265.436	109.57
265.652	33.79
265.868	60.42
266.084	54.27
266.3	19.46
266.516	7.17
266.732	-46.08
266.948	60.42
267.164	56.32
267.38	76.8
267.596	68.61
267.812	84.99
268.028	52.22
268.244	5.12
268.46	3.07
268.676	27.65
268.892	19.46
269.108	-29.7
269.324	5.12
269.54	13.31
269.756	11.26
269.972	-44.03
270.188	3.07
270.403	-52.22
270.619	60.42
270.835	89.09
271.051	11.26
271.267	-27.65
271.483	3.07
271.698	48.13
271.914	66.56
272.13	21.5
272.346	-19.46
272.562	-70.65
272.777	33.79
272.993	-13.31
273.209	5.12
273.425	29.7
273.64	-1.02
273.856	76.8
274.072	31.74
274.287	19.46
274.503	19.46
274.719	76.8
274.934	-50.18
275.15	-41.98
275.366	52.22
275.581	3.07
275.797	48.13
276.012	27.65
276.228	29.7
276.444	87.04
276.659	19.46
276.875	50.18
277.09	-3.07
277.306	23.55
277.521	19.46
277.737	35.84
277.952	76.8
278.168	21.5
278.383	-1.02
278.599	117.76
278.814	62.46
279.03	68.61
279.245	29.7
279.461	-27.65
279.676	52.22
279.892	13.31
280.107	-37.89
280.322	-37.89
280.538	35.84
280.753	70.65
280.969	-21.5
281.184	23.55
281.399	158.72
281.615	52.22
281.83	56.32
282.045	15.36
282.26	-13.31
282.476	5.12
282.691	-50.18
282.906	46.08
283.122	134.14
283.337	27.65
283.552	76.8
283.767	11.26
283.983	87.04
284.198	7.17
284.413	-31.74
284.628	-13.31
284.843	109.57
285.058	31.74
285.274	21.5
285.489	-37.89
285.704	29.7
285.919	-1.02
286.134	37.89
286.349	68.61
286.564	27.65
286.779	162.81
286.995	60.42
287.21	15.36
287.425	-21.5
287.64	-37.89
287.855	15.36
288.07	3.07
288.285	19.46
288.5	87.04
288.715	37.89
288.93	-7.17
289.145	-21.5
289.36	35.84
289.575	19.46
289.79	15.36
290.004	-46.08
290.219	23.55
290.434	44.03
290.649	-39.94
290.864	76.8
291.079	93.18
291.294	76.8
291.509	-62.46
291.724	50.18
291.938	21.5
292.153	93.18
292.368	1.02
292.583	48.13
292.798	3.07
293.012	111.61
293.227	52.22
293.442	-35.84
293.657	13.31
293.871	52.22
294.086	19.46
294.301	68.61
294.516	76.8
294.73	27.65
294.945	-7.17
295.16	19.46
295.374	58.37
295.589	-44.03
295.804	21.5
296.018	60.42
296.233	21.5
296.447	27.65
296.662	-1.02
296.877	72.7
297.091	11.26
297.306	27.65
297.52	-11.26
297.735	13.31
297.949	-9.22
298.164	78.85
298.378	48.13
298.593	11.26
298.807	-35.84
299.022	-13.31
299.236	78.85
299.451	-25.6
299.665	39.94
299.88	62.46
300.094	39.94
300.309	46.08
300.523	11.26
300.737	-7.17
300.952	-1.02
301.166	119.81
301.381	3.07
301.595	-93.18
301.809	35.84
302.024	84.99
302.238	68.61
302.452	60.42
302.667	35.84
302.881	35.84
303.095	44.03
303.309	35.84
303.524	-35.84
303.738	-13.31
303.952	21.5
304.166	60.42
304.381	-1.02
304.595	35.84
304.809	-31.74
305.023	7.17
305.237	72.7
305.452	44.03
305.666	-5.12
305.88	84.99
306.094	-5.12
306.308	11.26
306.522	52.22
306.736	52.22
306.95	23.55
307.164	50.18
307.379	3.07
307.593	41.98
307.807	-13.31
308.021	-5.12
308.235	21.5
308.449	27.65
308.663	82.94
308.877	111.61
309.091	-1.02
309.305	31.74
309.519	-7.17
309.733	117.76
309.947	-27.65
310.161	46.08
310.374	70.65
310.588	19.46
310.802	93.18
311.016	-17.41
311.23	70.65
311.444	39.94
311.658	23.55
311.872	19.46
312.085	76.8
312.299	39.94
312.513	93.18
312.727	15.36
312.941	-15.36
313.154	68.61
313.368	52.22
313.582	31.74
313.796	35.84
314.009	27.65
314.223	80.89
314.437	76.8
314.651	70.65
314.864	27.65
315.078	80.89
315.292	-5.12
315.505	31.74
315.719	74.75
315.933	39.94
316.146	78.85
316.36	-46.08
316.573	64.51
316.787	-5.12
317.001	31.74
317.214	-29.7
317.428	15.36
317.641	33.79
317.855	-82.94
318.068	-25.6
318.282	31.74
318.495	21.5
318.709	84.99
318.922	11.26
319.136	72.7
319.349	21.5
319.563	21.5
319.776	15.36
319.99	80.89
320.203	78.85
320.417	5.12
320.63	52.22
320.843	134.14
321.057	23.55
321.27	41.98
321.483	17.41
321.697	44.03
321.91	119.81
322.124	46.08
322.337	21.5
322.55	-41.98
322.763	17.41
322.977	29.7
323.19	66.56
323.403	-7.17
323.617	29.7
323.83	52.22
324.043	-25.6
324.256	21.5
324.469	19.46
324.683	11.26
324.896	-3.07
325.109	58.37
325.322	-29.7
325.535	54.27
325.748	93.18
325.962	64.51
326.175	5.12
326.388	95.23
326.601	19.46
326.814	66.56
327.027	105.47
327.24	103.42
327.453	-54.27
327.666	44.03
327.879	72.7
328.092	27.65
328.305	-29.7
328.518	-3.07
328.731	-29.7
328.944	95.23
329.157	99.33
329.37	3.07
329.583	107.52
329.796	101.37
330.009	72.7
330.222	52.22
330.435	105.47
330.648	35.84
330.861	78.85
331.073	-19.46
331.286	72.7
331.499	64.51
331.712	-11.26
331.925	31.74
332.138	-5.12
332.35	87.04
332.563	-103.42
332.776	119.81
332.989	27.65
333.202	56.32
333.414	68.61
333.627	35.84
333.84	23.55
334.053	13.31
334.265	13.31
334.478	3.07
334.691	-1.02
334.903	7.17
335.116	-3.07
335.329	35.84
335.541	52.22
335.754	62.46
335.966	17.41
336.179	-5.12
336.392	31.74
336.604	19.46
336.817	103.42
337.029	97.28
337.242	54.27
337.454	89.09
337.667	-3.07
337.88	52.22
338.092	70.65
338.305	70.65
338.517	54.27
338.729	31.74
338.942	105.47
339.154	-58.37
339.367	68.61
339.579	68.61
339.792	-5.12
340.004	35.84
340.217	70.65
340.429	27.65
340.641	68.61
340.854	-9.22
341.066	76.8
341.278	35.84
341.491	21.5
341.703	11.26
341.915	-29.7
342.128	11.26
342.34	-78.85
342.552	52.22
342.764	13.31
342.977	68.61
343.189	23.55
343.401	-3.07
343.613	37.89
343.826	31.74
344.038	-27.65
344.25	27.65
344.462	7.17
344.674	130.05
344.886	-5.12
345.099	111.61
345.311	97.28
345.523	27.65
345.735	13.31
345.947	103.42
346.159	27.65
346.371	-9.22
346.583	-3.07
346.795	56.32
347.007	-37.89
347.219	46.08
347.431	15.36
347.643	113.66
347.855	19.46
348.067	23.55
348.279	5.12
348.491	82.94
348.703	80.89
348.915	44.03
349.127	15.36
349.339	60.42
349.551	-25.6
349.763	70.65
349.975	70.65
350.187	93.18
350.399	70.65
350.61	-5.12
350.822	5.12
351.034	31.74
351.246	68.61
351.458	13.31
351.669	48.13
351.881	68.61
352.093	117.76
352.305	11.26
352.517	-1.02
352.728	80.89
352.94	17.41
353.152	11.26
353.363	-11.26
353.575	27.65
353.787	35.84
353.999	54.27
354.21	5.12
354.422	19.46
354.633	46.08
354.845	29.7
355.057	1.02
355.268	52.22
355.48	95.23
355.692	19.46
355.903	-1.02
356.115	5.12
356.326	-1.02
356.538	128
356.749	93.18
356.961	11.26
357.172	13.31
357.384	-5.12
357.595	101.37
357.807	64.51
358.018	39.94
358.23	3.07
358.441	80.89
358.653	128
358.864	19.46
359.075	80.89
359.287	23.55
359.498	46.08
359.709	48.13
359.921	101.37
360.132	48.13
360.344	-23.55
360.555	52.22
360.766	41.98
360.977	21.5
361.189	130.05
361.4	-11.26
361.611	76.8
361.823	130.05
362.034	84.99
362.245	-5.12
362.456	21.5
362.667	70.65
362.879	39.94
363.09	35.84
363.301	17.41
363.512	23.55
363.723	54.27
363.935	27.65
364.146	58.37
364.357	97.28
364.568	60.42
364.779	-37.89
364.99	37.89
365.201	-9.22
365.412	97.28
365.623	46.08
365.834	97.28
366.045	19.46
366.256	33.79
366.467	87.04
366.678	17.41
366.889	68.61
367.1	44.03
367.311	25.6
367.522	11.26
367.733	84.99
367.944	76.8
368.155	-11.26
368.366	11.26
368.577	101.37
368.788	76.8
368.999	19.46
369.209	60.42
369.42	68.61
369.631	144.38
369.842	66.56
370.053	-1.02
370.264	76.8
370.474	19.46
370.685	84.99
370.896	35.84
371.107	35.84
371.317	66.56
371.528	50.18
371.739	89.09
371.95	46.08
372.16	33.79
372.371	13.31
372.582	-23.55
372.792	89.09
373.003	66.56
373.214	68.61
373.424	70.65
373.635	48.13
373.846	-3.07
374.056	39.94
374.267	3.07
374.477	95.23
374.688	78.85
374.898	84.99
375.109	27.65
375.319	21.5
375.53	136.19
375.74	37.89
375.951	29.7
376.161	62.46
376.372	64.51
376.582	19.46
376.793	130.05
377.003	27.65
377.214	62.46
377.424	-9.22
377.635	93.18
377.845	39.94
378.055	99.33
378.266	52.22
378.476	80.89
378.686	56.32
378.897	72.7
379.107	-5.12
379.317	95.23
379.528	44.03
379.738	87.04
379.948	-82.94
380.158	72.7
380.369	46.08
380.579	-3.07
380.789	35.84
380.999	80.89
381.21	68.61
381.42	52.22
381.63	52.22
381.84	76.8
382.05	64.51
382.261	29.7
382.471	103.42
382.681	62.46
382.891	76.8
383.101	27.65
383.311	41.98
383.521	11.26
383.731	23.55
383.941	44.03
384.151	101.37
384.361	29.7
384.571	31.74
384.781	107.52
384.991	101.37
385.201	27.65
385.411	130.05
385.621	101.37
385.831	46.08
386.041	62.46
386.251	39.94
386.461	121.85
386.671	95.23
386.881	89.09
387.091	60.42
387.301	109.57
387.511	80.89
387.72	76.8
387.93	48.13
388.14	-17.41
388.35	41.98
388.56	64.51
388.769	72.7
388.979	132.09
389.189	44.03
389.399	84.99
389.609	19.46
389.818	117.76
390.028	138.24
390.238	105.47
390.447	37.89
390.657	72.7
390.867	39.94
391.076	-13.31
391.286	76.8
391.496	19.46
391.705	93.18
391.915	175.1
392.125	87.04
392.334	-15.36
392.544	76.8
392.753	138.24
392.963	76.8
393.172	29.7
393.382	-37.89
393.591	140.29
393.801	52.22
394.01	111.61
394.22	80.89
394.429	72.7
394.639	11.26
394.848	44.03
395.058	99.33
395.267	-9.22
395.477	76.8
395.686	162.81
395.895	234.49
396.105	84.99
396.314	72.7
396.524	97.28
396.733	48.13
396.942	52.22
397.152	56.32
397.361	119.81
397.57	13.31
397.78	101.37
397.989	91.13
398.198	125.95
398.407	121.85
398.617	35.84
398.826	101.37
399.035	93.18
399.244	134.14
399.453	123.9
399.663	156.67
399.872	134.14
400.081	109.57
400.29	185.34
400.499	121.85
400.708	109.57
400.917	156.67
401.127	84.99
401.336	99.33
401.545	113.66
401.754	82.94
401.963	76.8
402.172	105.47
402.381	93.18
402.59	138.24
402.799	84.99
403.008	209.92
403.217	93.18
403.426	101.37
403.635	11.26
403.844	134.14
404.053	84.99
404.262	128
404.471	193.53
404.68	222.2
404.888	101.37
405.097	101.37
405.306	183.29
405.515	205.82
405.724	199.68
405.933	158.72
406.142	76.8
406.35	160.77
406.559	275.45
406.768	179.2
406.977	171.01
407.185	259.07
407.394	218.11
407.603	238.59
407.812	228.35
408.02	193.53
408.229	207.87
408.438	179.2
408.646	261.12
408.855	220.16
409.064	281.6
409.272	232.44
409.481	318.46
409.69	297.98
409.898	263.16
410.107	273.4
410.315	332.79
410.524	363.51
410.733	369.66
410.941	357.37
411.15	398.33
411.358	365.56
411.567	433.15
411.775	420.86
411.984	429.05
412.192	502.78
412.401	394.23
412.609	470.01
412.818	498.68
413.026	570.36
413.234	486.39
413.443	541.69
413.651	494.58
413.86	596.98
414.068	691.19
414.276	699.38
414.485	562.17
414.693	603.13
414.901	752.63
415.11	732.15
415.318	680.95
415.526	752.63
415.734	797.68
415.943	881.65
416.151	822.26
416.359	844.79
416.567	879.6
416.776	994.29
416.984	986.1
417.192	1102.83
417.4	1063.92
417.608	1125.36
417.817	1018.86
418.025	1133.55
418.233	1182.7
418.441	1121.26
418.649	1283.05
418.857	1293.29
419.065	1354.73
419.273	1297.39
419.481	1401.83
419.689	1520.62
419.897	1543.14
420.105	1534.95
420.313	1586.15
420.521	1627.11
420.729	1745.89
420.937	1764.33
421.145	1836
421.353	1960.93
421.561	2028.51
421.769	2018.27
421.977	2192.35
422.185	2083.81
422.393	2304.99
422.601	2376.67
422.809	2323.42
423.017	2370.52
423.224	2464.73
423.432	2634.71
423.64	2558.94
423.848	2755.54
424.056	2796.5
424.263	2960.34
424.471	2982.87
424.679	3169.23
424.887	3288.01
425.094	3408.84
425.302	3400.65
425.51	3509.19
425.718	3541.96
425.925	3705.8
426.133	3644.36
426.341	3982.28
426.548	4133.82
426.756	4060.1
426.964	4187.07
427.171	4406.2
427.379	4369.34
427.586	4557.75
427.794	4707.26
428.001	4924.34
428.209	5243.82
428.417	5082.03
428.624	5446.57
428.832	5352.37
429.039	5372.85
429.247	5411.76
429.454	5917.61
429.662	6382.49
429.869	5954.47
430.076	6382.49
430.284	6087.59
430.491	6400.93
430.699	6701.98
430.906	6638.49
431.114	6744.99
431.321	7224.21
431.528	7334.8
431.736	7435.15
431.943	7904.14
432.15	7691.15
432.358	7877.51
432.565	8317.83
432.772	8221.57
432.979	8547.2
433.187	8874.87
433.394	8735.61
433.601	9333.62
433.808	9499.5
434.016	9583.47
434.223	9872.23
434.43	10300.26
434.637	10355.55
434.844	10759
435.052	10873.69
435.259	10939.23
435.466	10883.93
435.673	11107.16
435.88	11553.62
436.087	12536.64
436.294	12178.25
436.501	11944.78
436.708	12356.42
436.915	12587.84
437.122	13261.62
437.329	13077.3
437.537	13443.89
437.743	13777.71
437.95	13734.7
438.157	14435.11
438.364	14750.49
438.571	14836.51
438.778	14912.28
438.985	16257.8
439.192	15620.88
439.399	15915.79
439.606	15805.2
439.813	16599.81
440.02	17560.31
440.227	17226.49
440.433	17099.52
440.64	17718
440.847	17292.02
441.054	17971.95
441.261	19141.34
441.467	18893.54
441.674	19426.01
441.881	20024.01
442.088	19868.37
442.294	19829.46
442.501	20116.17
442.708	20624.07
442.914	21240.51
443.121	22008.5
443.328	21754.55
443.534	23104.16
443.741	22528.68
443.948	22430.38
444.154	23960.21
444.361	23933.59
444.568	24048.27
444.774	23802.52
444.981	24056.46
445.187	24668.81
445.394	25879.16
445.6	25838.2
445.807	28097.11
446.013	26911.33
446.22	27441.76
446.426	28666.44
446.633	28480.08
446.839	29796.92
447.046	28418.64
447.252	29981.24
447.459	30130.74
447.665	29663.8
447.871	30954.02
448.078	32322.07
448.284	30892.58
448.491	31756.83
448.697	32807.44
448.903	33366.53
449.11	33552.9
449.316	33188.36
449.522	33546.75
449.728	34695.66
449.935	34662.9
450.141	34830.83
450.347	35316.2
450.553	34382.32
450.76	35054.06
450.966	35863
451.172	35836.38
451.378	36418
451.584	35961.31
451.791	36389.33
451.997	36553.17
452.203	37038.54
452.409	37167.56
452.615	36792.78
452.821	35293.67
453.027	35121.64
453.233	36878.8
453.44	35312.1
453.646	35447.27
453.852	35856.86
454.058	36436.44
454.264	35918.3
454.47	36016.6
454.676	35248.61
454.882	36657.62
455.088	33397.25
455.294	33464.83
455.5	34083.32
455.705	34552.3
455.911	33178.12
456.117	32436.75
456.323	32289.3
456.529	30513.71
456.735	31857.18
456.941	30923.3
457.147	30566.96
457.352	29583.93
457.558	29063.75
457.764	29364.8
457.97	28838.47
458.176	28035.67
458.381	28176.98
458.587	26681.96
458.793	26520.17
458.999	25188.99
459.204	27011.68
459.41	26458.73
459.616	24726.15
459.821	24361.61
460.027	24494.73
460.233	24113.81
460.438	22702.76
460.644	23339.68
460.85	21992.11
461.055	21619.38
461.261	21519.03
461.466	19847.89
461.672	19401.43
461.878	20550.34
462.083	19401.43
462.289	19143.39
462.494	18592.48
462.7	17640.18
462.905	17513.2
463.111	17969.9
463.316	18322.15
463.522	17976.05
463.727	17623.8
463.932	17554.16
464.138	17582.84
464.343	17636.08
464.549	17036.03
464.754	17402.61
464.959	17445.62
465.165	17275.64
465.37	16608
465.575	16347.91
465.781	16833.28
465.986	16755.46
466.191	16139.02
466.397	16053
466.602	15158.04
466.807	15747.86
467.012	15516.44
467.218	15512.34
467.423	15307.54
467.628	15455
467.833	16128.78
468.038	15555.35
468.244	14975.77
468.449	15545.11
468.654	15229.72
468.859	14908.19
469.064	14928.67
469.269	14439.2
469.474	14504.74
469.679	14463.78
469.885	14455.59
470.09	14463.78
470.295	14338.85
470.5	14078.76
470.705	14150.44
470.91	13880.11
471.115	13572.91
471.32	14013.23
471.525	13857.58
471.73	13577.01
471.935	13361.97
472.139	12929.85
472.344	13060.92
472.549	12964.67
472.754	12958.52
472.959	12628.8
473.164	12370.76
473.369	12262.21
473.574	12553.02
473.778	12503.87
473.983	12264.26
474.188	12381
474.393	11854.67
474.598	12098.38
474.802	11768.65
475.007	11529.04
475.212	11701.07
475.417	11180.89
475.621	11363.15
475.826	11275.09
476.031	11283.28
476.235	10695.52
476.44	10802.01
476.645	10707.8
476.849	10986.33
477.054	10722.14
477.259	10603.36
477.463	10560.35
477.668	10261.35
477.872	10152.81
478.077	10234.72
478.282	9984.87
478.486	9861.99
478.691	9778.03
478.895	9792.36
479.1	9966.44
479.304	9669.48
479.509	9612.14
479.713	9737.07
479.918	9472.88
480.122	9370.48
480.326	9436.02
480.531	9376.62
480.735	9448.3
480.94	9288.56
481.144	9673.58
481.348	9098.1
481.553	9214.84
481.757	8950.65
481.961	9163.64
482.166	9253.75
482.37	9091.96
482.574	9032.57
482.778	9116.53
482.983	9126.77
483.187	9182.07
483.391	9186.16
483.595	8911.74
483.8	8881.02
484.004	8899.45
484.208	9005.94
484.412	8866.68
484.616	8938.36
484.821	9114.48
485.025	8827.77
485.229	9089.91
485.433	9100.15
485.637	8911.74
485.841	8919.93
486.045	8936.31
486.249	8981.37
486.453	8924.02
486.657	8860.54
486.861	8989.56
487.065	8577.92
487.269	8825.72
487.473	9001.85
487.677	9018.23
487.881	9225.08
488.085	8850.3
488.289	9048.95
488.493	9028.47
488.697	9042.81
488.901	9005.94
489.105	8780.67
489.309	9040.76
489.512	9106.29
489.716	8934.26
489.92	8936.31
490.124	8979.32
490.328	9177.97
490.531	9114.48
490.735	9114.48
490.939	9159.54
491.143	9071.48
491.346	9044.85
491.55	9319.28
491.754	9106.29
491.958	9440.11
492.161	9294.71
492.365	9171.83
492.569	9118.58
492.772	9468.78
492.976	9722.73
493.18	9587.57
493.383	9655.15
493.587	9679.72
493.79	9685.87
493.994	9636.72
494.197	9800.55
494.401	9714.54
494.605	9749.36
494.808	9769.83
495.012	10060.65
495.215	9900.9
495.419	10132.33
495.622	10001.26
495.825	10177.38
496.029	10066.79
496.232	10554.21
496.436	10228.58
496.639	10578.78
496.843	10457.95
497.046	10787.68
497.249	10859.35
497.453	10935.13
497.656	10799.96
497.859	10939.23
498.063	11252.56
498.266	11307.86
498.469	11250.52
498.673	11412.31
498.876	11506.51
499.079	11567.95
499.282	11629.39
499.485	11979.59
499.689	12067.66
499.892	12026.7
500.095	12112.71
500.298	12460.87
500.501	12512.07
500.705	12604.22
500.908	12499.78
501.111	13005.63
501.314	13075.26
501.517	13093.69
501.72	13251.38
501.923	13019.96
502.126	13337.4
502.329	13812.53
502.532	13828.91
502.735	13740.85
502.938	14013.23
503.141	14193.45
503.344	14420.77
503.547	14125.86
503.75	14641.95
503.953	14809.89
504.156	14756.64
504.359	15051.55
504.562	15223.58
504.765	15461.14
504.968	15588.11
505.17	15604.5
505.373	15698.7
505.576	16075.53
505.779	16182.03
505.982	16329.48
506.185	16550.66
506.387	16739.07
506.59	16585.47
506.793	17105.66
506.996	17013.5
507.198	17486.58
507.401	17527.54
507.604	17595.12
507.807	17887.98
508.009	18254.57
508.212	18113.26
508.415	18324.2
508.617	18416.36
508.82	18545.38
509.022	18791.14
509.225	19108.57
509.428	19223.26
509.63	19202.78
509.833	19483.35
510.035	20013.77
510.238	19878.61
510.44	20302.54
510.643	20630.21
510.845	20259.53
511.048	20179.66
511.25	20673.22
511.453	20746.95
511.655	21707.44
511.858	21295.8
512.06	21635.77
512.262	21603
512.465	21764.79
512.667	21891.76
512.87	22196.91
513.072	22436.52
513.274	22919.84
513.477	22983.33
513.679	22983.33
513.881	23292.57
514.084	23528.09
514.286	23599.77
514.488	23835.28
514.69	24222.35
514.893	24431.24
515.095	24504.97
515.297	24861.32
515.499	24748.68
515.701	25129.6
515.904	25270.91
516.106	25680.5
516.308	25897.59
516.51	25789.05
516.712	26010.23
516.914	26378.86
517.116	26577.51
517.318	26819.17
517.52	27196
517.722	27099.75
517.925	27406.94
518.127	27707.99
518.329	27703.9
518.531	27458.14
518.733	28131.92
518.935	28267.09
519.136	28308.05
519.338	28777.03
519.54	28699.21
519.742	29104.71
519.944	29194.82
520.146	29459.01
520.348	29442.62
520.55	29575.74
520.752	29932.09
520.954	30472.75
521.155	29706.81
521.357	30526
521.559	30693.93
521.761	30954.02
521.963	30636.59
522.164	31441.44
522.366	30843.43
522.568	31353.38
522.77	31506.98
522.971	31814.17
523.173	31597.09
523.375	32221.72
523.576	31959.58
523.778	32104.98
523.98	31992.34
524.181	32262.68
524.383	32219.67
524.584	32764.43
524.786	32848.39
524.988	32420.37
525.189	33012.23
525.391	33085.96
525.592	33294.85
525.794	33360.39
525.995	33462.79
526.197	33264.13
526.398	33528.32
526.6	33448.45
526.801	33303.04
527.003	33821.18
527.204	33616.38
527.406	33868.28
527.607	33452.55
527.808	34046.46
528.01	33354.24
528.211	33626.62
528.412	34126.33
528.614	33815.04
528.815	34071.03
529.016	34384.37
529.218	33489.41
529.419	33595.9
529.62	34048.5
529.822	33731.07
530.023	33788.41
530.224	33718.78
530.425	33995.26
530.626	33694.21
530.828	33665.53
531.029	34265.59
531.23	33925.63
531.431	33726.97
531.632	33868.28
531.833	34013.69
532.035	34017.78
532.236	33694.21
532.437	34109.94
532.638	34183.67
532.839	33952.25
533.04	34175.48
533.241	33401.35
533.442	34525.68
533.643	33489.41
533.844	34091.51
534.045	33966.59
534.246	32911.88
534.447	33597.95
534.648	33708.54
534.849	33948.15
535.05	33466.88
535.251	33301
535.451	33344
535.652	33612.29
535.853	33548.8
536.054	33556.99
536.255	33694.21
536.456	33378.82
536.657	33399.3
536.857	33358.34
537.058	33249.8
537.259	33663.49
537.46	33405.44
537.66	33364.48
537.861	33235.46
538.062	33382.91
538.263	33266.18
538.463	32887.31
538.664	33112.58
538.865	33421.83
539.065	33643.01
539.266	32907.79
539.466	33194.5
539.667	33010.18
539.868	33413.63
540.068	32844.3
540.269	32813.58
540.469	33194.5
540.67	32866.83
540.87	32756.24
541.071	32940.55
541.271	33081.86
541.472	32881.16
541.672	33036.81
541.873	32653.84
542.073	32352.79
542.274	32911.88
542.474	32778.76
542.675	32793.1
542.875	32842.25
543.075	32807.44
543.276	32211.48
543.476	32946.7
543.676	32479.76
543.877	32750.09
544.077	32815.63
544.277	32514.58
544.478	32875.02
544.678	32909.83
544.878	32924.17
545.078	32690.7
545.279	32561.68
545.479	32283.16
545.679	32711.18
545.879	32571.92
546.079	32373.27
546.28	32592.4
546.48	32279.06
546.68	32416.27
546.88	32752.14
547.08	32696.85
547.28	32424.47
547.48	32008.73
547.68	32365.07
547.88	32373.27
548.081	32827.92
548.281	32471.57
548.481	32379.41
548.681	32526.86
548.881	32487.95
549.081	32352.79
549.28	32440.85
549.48	32610.83
549.68	32168.47
549.88	32782.86
550.08	32363.03
550.28	32737.8
550.48	32293.4
550.68	32598.54
550.88	32383.51
551.08	31965.72
551.279	32817.68
551.479	32346.64
551.679	32453.14
551.879	32322.07
552.079	32637.45
552.278	32662.03
552.478	32723.47
552.678	32809.48
552.878	32739.85
553.077	32569.87
553.277	32410.13
553.477	33014.28
553.676	32692.75
553.876	32774.67
554.076	32535.06
554.275	32619.02
554.475	32234
554.674	32653.84
554.874	32522.77
555.074	32461.33
555.273	32827.92
555.473	33014.28
555.672	32746
555.872	32651.79
556.071	32965.13
556.271	32881.16
556.47	32641.55
556.67	32205.33
556.869	32672.27
557.068	32905.74
557.268	32844.3
557.467	32799.24
557.667	32727.56
557.866	32770.57
558.065	32616.97
558.265	32686.61
558.464	32582.16
558.663	32866.83
558.863	32774.67
559.062	32938.51
559.261	32623.12
559.461	32979.46
559.66	32797.2
559.859	32791.05
560.058	32676.37
560.258	32508.43
560.457	32698.89
560.656	32791.05
560.855	32821.77
561.054	32846.35
561.253	32811.53
561.453	32786.96
561.652	32287.25
561.851	32737.8
562.05	32729.61
562.249	32420.37
562.448	32625.17
562.647	32932.36
562.846	32549.39
563.045	32141.85
563.244	32426.51
563.443	32576.01
563.642	32076.31
563.841	32428.56
564.04	32174.61
564.239	33077.77
564.438	31900.19
564.637	32289.3
564.836	32336.4
565.035	32156.18
565.234	32227.86
565.432	32043.54
565.631	32152.09
565.83	32309.78
566.029	31879.71
566.228	32090.65
566.427	32197.14
566.625	31418.91
566.824	31838.75
567.023	32164.37
567.222	31500.83
567.42	31978.01
567.619	31812.12
567.818	31441.44
568.016	31607.33
568.215	32147.99
568.414	31597.09
568.612	31427.1
568.811	31685.15
569.01	31762.97
569.208	31324.71
569.407	31570.46
569.605	31076.9
569.804	31355.43
570.002	30755.37
570.201	31754.78
570.4	31013.41
570.598	31175.2
570.797	30997.03
570.995	31183.4
571.193	30945.83
571.392	31113.77
571.59	30476.85
571.789	30962.22
571.987	30640.68
572.186	30587.44
572.384	30274.1
572.582	30526
572.781	30773.8
572.979	30179.89
573.177	30384.69
573.376	30446.13
573.574	30036.53
573.772	29956.66
573.971	29850.17
574.169	29872.7
574.367	29805.11
574.565	29866.55
574.763	29686.33
574.962	29463.1
575.16	29573.69
575.358	29399.62
575.556	29522.49
575.754	29743.67
575.952	29145.67
576.151	30007.86
576.349	29057.6
576.547	28871.24
576.745	29256.26
576.943	29129.28
577.141	28807.75
577.339	29000.26
577.537	28817.99
577.735	29188.67
577.933	28834.38
578.131	28797.51
578.329	28869.19
578.527	28490.32
578.725	28813.9
578.923	28050
579.121	28168.79
579.319	28195.41
579.516	28275.28
579.714	28351.06
579.912	28156.5
580.11	27880.02
580.308	28068.44
580.506	28011.09
580.704	27507.29
580.901	27963.99
581.099	27779.67
581.297	27255.39
581.495	27724.38
581.692	27730.52
581.89	27241.06
582.088	27181.67
582.285	26862.18
582.483	27538.01
582.681	27363.93
582.878	27169.38
583.076	27101.79
583.274	27138.66
583.471	26688.1
583.669	26978.92
583.866	26767.98
584.064	26700.39
584.262	26372.72
584.459	26964.58
584.657	26655.34
584.854	26425.96
585.052	26137.2
585.249	26258.03
585.447	26489.45
585.644	26356.33
585.841	26436.2
586.039	26577.51
586.236	26196.59
586.434	26042.99
586.631	25705.08
586.828	26200.69
587.026	26008.18
587.223	25748.09
587.42	25959.03
587.618	25805.43
587.815	25268.86
588.012	25332.35
588.21	25506.43
588.407	25727.61
588.604	25533.05
588.801	25315.97
588.999	25176.7
589.196	25363.07
589.393	25289.34
589.59	25135.74
589.787	25096.83
589.984	24998.53
590.182	24978.05
590.379	24998.53
590.576	24857.22
590.773	24879.75
590.97	24728.2
591.167	24715.91
591.364	24349.32
591.561	24734.34
591.758	24603.27
591.955	24429.2
592.152	24156.82
592.349	24468.11
592.546	24656.52
592.743	24330.89
592.94	24097.42
593.137	24324.75
593.334	24504.97
593.531	23802.52
593.727	24310.41
593.924	23956.11
594.121	23861.91
594.318	24277.65
594.515	23724.69
594.712	24060.56
594.908	24119.95
595.105	23941.78
595.302	23644.82
595.499	23753.37
595.696	23612.06
595.892	23526.04
596.089	23962.26
596.286	23857.81
596.482	23556.76
596.679	23646.87
596.876	23714.45
597.072	23419.55
597.269	23640.73
597.466	23403.16
597.662	23413.4
597.859	23300.76
598.055	22977.19
598.252	22930.08
598.448	23177.89
598.645	23206.56
598.841	22987.43
599.038	23687.83
599.234	23329.44
599.431	22874.79
599.627	22913.7
599.824	23243.42
600.02	22829.73
600.217	23274.14
600.413	22921.89
600.609	22737.57
600.806	23050.91
601.002	22993.57
601.198	22876.83
601.395	22946.47
601.591	22981.28
601.787	23151.26
601.984	22672.04
602.18	23173.79
602.376	22790.82
602.572	22833.83
602.769	23192.22
602.965	22665.89
603.161	22819.49
603.357	22968.99
603.553	22780.58
603.75	23089.82
603.946	22903.46
604.142	23022.24
604.338	22534.82
604.534	22968.99
604.73	22923.94
604.926	22727.33
605.122	22915.75
605.318	22774.44
605.514	22854.31
605.71	22770.34
605.906	22842.02
606.102	22930.08
606.298	23040.67
606.494	22833.83
606.69	22999.71
606.886	22844.07
607.082	22946.47
607.278	23118.5
607.474	22768.29
607.67	22936.23
607.866	22938.27
608.062	23292.57
608.257	23108.26
608.453	22848.16
608.649	23382.68
608.845	23018.14
609.041	23046.82
609.236	23073.44
609.432	22999.71
609.628	23208.61
609.824	23325.34
610.019	22915.75
610.215	22942.37
610.411	23179.93
610.606	23179.93
610.802	23118.5
610.998	23331.48
611.193	23282.33
611.389	22936.23
611.584	22938.27
611.78	22956.71
611.976	23329.44
612.171	23227.04
612.367	23464.6
612.562	23317.15
612.758	23036.58
612.953	22981.28
613.149	23294.62
613.344	23018.14
613.539	23397.02
613.735	23206.56
613.93	23358.11
614.126	22950.56
614.321	23474.84
614.517	23474.84
614.712	23222.94
614.907	22987.43
615.103	23425.69
615.298	23077.54
615.493	23356.06
615.688	23073.44
615.884	23642.78
616.079	23300.76
616.274	23394.97
616.47	23286.43
616.665	23198.37
616.86	23388.83
617.055	23487.13
617.25	23415.45
617.445	23431.83
617.641	23175.84
617.836	23429.79
618.031	22876.83
618.226	23480.99
618.421	22907.55
618.616	23382.68
618.811	22819.49
619.006	23456.41
619.201	22899.36
619.396	22893.22
619.591	22293.16
619.786	23114.4
619.981	22624.93
620.176	22713
620.371	22403.75
620.566	22835.88
620.761	22559.4
620.956	22682.28
621.151	22188.72
621.346	22178.48
621.541	21842.61
621.735	22121.13
621.93	21582.52
622.125	21885.62
622.32	21766.84
622.515	22045.36
622.709	21471.93
622.904	21342.91
623.099	21367.48
623.294	21572.28
623.488	21217.98
623.683	21344.95
623.878	21097.15
624.072	21103.29
624.267	21117.63
624.462	20773.57
624.656	20667.08
624.851	20708.04
625.046	20703.94
625.24	20572.87
625.435	20384.46
625.629	20267.72
625.824	20318.92
626.018	20394.7
626.213	19729.11
626.407	19970.77
626.602	19774.16
626.796	19987.15
626.991	19974.86
627.185	19538.65
627.38	19778.26
627.574	19532.5
627.768	19309.27
627.963	19190.49
628.157	19034.85
628.352	18963.17
628.546	18834.14
628.74	18965.21
628.935	18817.76
629.129	18828
629.323	18696.93
629.517	18635.49
629.712	18680.55
629.906	18670.31
630.1	18168.55
630.294	18485.99
630.489	18148.08
630.683	17836.78
630.877	17873.65
631.071	17859.31
631.265	17892.08
631.459	17560.31
631.653	17447.67
631.848	17662.71
632.042	17228.54
632.236	17476.34
632.43	17177.34
632.624	17257.21
632.818	17079.04
633.012	16943.87
633.206	16706.31
633.4	16962.3
633.594	16990.97
633.788	16636.67
633.982	16827.14
634.176	16714.5
634.369	16509.7
634.563	16233.22
634.757	16247.56
634.951	16200.46
635.145	16220.94
635.339	16167.69
635.533	15985.42
635.726	16036.62
635.92	15811.34
636.114	15657.75
636.308	15686.42
636.501	15584.02
636.695	15479.57
636.889	15328.02
637.083	15348.5
637.276	15317.78
637.47	15250.2
637.664	15362.84
637.857	15221.53
638.051	15045.4
638.244	14889.76
638.438	14863.13
638.632	14598.95
638.825	14742.3
639.019	14650.14
639.212	14521.12
639.406	14355.24
639.599	14422.82
639.793	14187.3
639.986	13902.64
640.18	13994.79
640.373	14013.23
640.567	14127.91
640.76	13857.58
640.954	13808.43
641.147	13421.36
641.34	13642.54
641.534	13611.82
641.727	13710.13
641.92	13294.39
642.114	13306.68
642.307	13153.08
642.5	13171.51
642.694	13044.54
642.887	12792.64
643.08	13157.18
643.273	12979
643.467	12927.8
643.66	12731.2
643.853	12471.11
644.046	12622.66
644.239	12501.83
644.432	12407.62
644.626	12122.95
644.819	12331.84
645.012	12374.85
645.205	12127.05
645.398	12178.25
645.591	12176.2
645.784	11930.44
645.977	11965.26
646.17	11946.83
646.363	11807.56
646.556	11676.49
646.749	11672.4
646.942	11772.75
647.135	11676.49
647.328	11563.86
647.521	11379.54
647.714	11225.94
647.907	11408.21
648.099	11225.94
648.292	11262.8
648.485	11043.67
648.678	11002.71
648.871	10976.09
649.064	10775.39
649.256	10867.55
649.449	10627.93
649.642	10662.75
649.835	10685.28
650.027	10625.89
650.22	10521.44
650.413	10292.07
650.605	10582.88
650.798	10373.99
650.991	10324.83
651.183	10435.42
651.376	10130.28
651.568	10218.34
651.761	9939.82
651.954	10122.09
652.146	10064.74
652.339	9943.91
652.531	9849.71
652.724	9821.03
652.916	9751.4
653.109	9735.02
653.301	9988.97
653.494	9823.08
653.686	9583.47
653.879	9552.75
654.071	9571.18
654.263	9306.99
654.456	9423.73
654.648	9397.1
654.84	9042.81
655.033	9192.31
655.225	9235.32
655.417	9087.86
655.61	9233.27
655.802	8983.41
655.994	9022.33
656.186	9026.42
656.379	8936.31
656.571	8780.67
656.763	8678.27
656.955	8741.75
657.148	8649.6
657.34	8723.32
657.532	8338.3
657.724	8622.97
657.916	8577.92
658.108	8366.98
658.3	8358.78
658.492	8395.65
658.684	8387.46
658.876	8127.36
659.068	8326.02
659.26	8233.86
659.452	8254.34
659.644	8133.51
659.836	8076.16
660.028	8276.87
660.22	7981.96
660.412	7926.66
660.604	7867.27
660.796	7768.97
660.988	7773.07
661.18	7685
661.372	7781.26
661.563	7809.93
661.755	7519.12
661.947	7670.67
662.139	7424.91
662.331	7582.6
662.522	7408.53
662.714	7353.23
662.906	7228.31
663.097	7220.11
663.289	7230.35
663.481	7492.49
663.673	7158.67
663.864	7173.01
664.056	7117.72
664.247	7117.72
664.439	6896.53
664.631	6990.74
664.822	6892.44
665.014	7017.36
665.205	6810.52
665.397	6591.39
665.588	6759.32
665.78	6654.87
665.971	6863.77
666.163	6759.32
666.354	6642.59
666.546	6642.59
666.737	6554.52
666.929	6615.96
667.12	6507.42
667.311	6343.58
667.503	6286.24
667.694	6353.82
667.885	6378.4
668.077	6458.27
668.268	6325.15
668.459	6261.66
668.651	6204.32
668.842	6239.14
669.033	6144.93
669.224	5962.66
669.416	6181.79
669.607	6083.49
669.798	5979.04
669.989	6050.72
670.18	6097.83
670.371	5979.04
670.563	6149.03
670.754	5950.37
670.945	5759.91
671.136	5993.38
671.327	5721
671.518	5729.19
671.709	5798.82
671.9	5819.3
672.091	5721
672.282	5684.14
672.473	5673.9
672.664	5567.4
672.855	5624.75
673.046	5411.76
673.237	5673.9
673.428	5495.72
673.619	5585.83
673.809	5428.14
674	5460.91
674.191	5456.81
674.382	5352.37
674.573	5385.13
674.764	5356.46
674.954	5462.96
675.145	5163.95
675.336	5227.44
675.527	5219.25
675.717	5198.77
675.908	5254.06
676.099	5270.45
676.289	5192.62
676.48	5229.49
676.671	5196.72
676.861	5157.81
677.052	5172.15
677.243	5008.31
677.433	5176.24
677.624	5168.05
677.814	5149.62
678.005	5020.6
678.195	5000.12
678.386	5059.51
678.576	5024.69
678.767	5032.88
678.957	4920.24
679.148	5030.84
679.338	4867
679.529	4817.85
679.719	4889.53
679.909	5067.7
680.1	4901.81
680.29	4963.25
680.481	4787.13
680.671	4795.32
680.861	4869.05
681.052	4830.13
681.242	4821.94
681.432	4723.64
681.622	4828.09
681.813	4713.4
682.003	4756.41
682.193	4662.2
682.383	4711.35
682.573	4623.29
682.764	4766.65
682.954	4602.81
683.144	4594.62
683.334	4668.34
683.524	4586.43
683.714	4598.71
683.904	4588.47
684.094	4705.21
684.284	4559.8
684.474	4629.43
684.664	4623.29
684.854	4516.8
685.044	4387.77
685.234	4529.08
685.424	4520.89
685.614	4520.89
685.804	4410.3
685.994	4598.71
686.184	4582.33
686.374	4471.74
686.564	4467.64
686.753	4371.39
686.943	4348.86
687.133	4453.31
687.323	4230.08
687.513	4324.29
687.702	4324.29
687.892	4223.94
688.082	4238.27
688.272	4320.19
688.461	4258.75
688.651	4205.5
688.841	4266.94
689.03	4170.69
689.22	4115.39
689.41	4172.74
689.599	4174.78
689.789	4191.17
689.979	4279.23
690.168	4105.15
690.358	4123.59
690.547	4203.46
690.737	4131.78
690.926	4162.5
691.116	4099.01
691.305	4037.57
691.495	3992.52
691.684	4021.19
691.874	4115.39
692.063	3988.42
692.252	4008.9
692.442	3947.46
692.631	3838.92
692.82	3890.12
693.01	3963.84
693.199	3935.17
693.388	3806.15
693.578	3838.92
693.767	3840.97
693.956	3871.68
694.146	3795.91
694.335	3877.83
694.524	3922.88
694.713	3800.01
694.902	3916.74
695.092	3746.76
695.281	3918.79
695.47	3822.53
695.659	3824.58
695.848	3716.04
696.037	3732.42
696.226	3808.2
696.415	3619.78
696.604	3783.62
696.793	3709.9
696.982	3709.9
697.171	3679.18
697.36	3670.98
697.549	3660.74
697.738	3576.78
697.927	3632.07
698.116	3603.4
698.305	3621.83
698.494	3560.39
698.683	3484.62
698.872	3644.36
699.061	3617.74
699.25	3703.75
699.438	3490.76
699.627	3664.84
699.816	3562.44
700.005	3474.38
700.193	3494.86
700.382	3455.95
700.571	3443.66
700.76	3451.85
700.948	3478.47
701.137	3537.87
701.326	3496.91
701.514	3462.09
701.703	3587.02
701.892	3359.69
702.08	3472.33
702.269	3474.38
702.457	3339.21
702.646	3312.59
702.834	3263.44
703.023	3398.6
703.212	3345.36
703.4	3304.4
703.589	3161.04
703.777	3349.45
703.965	3279.82
704.154	3369.93
704.342	3068.88
704.531	3273.68
704.719	3240.91
704.907	3285.97
705.096	3181.52
705.284	3251.15
705.472	3281.87
705.661	3156.94
705.849	3140.56
706.037	3107.79
706.226	3058.64
706.414	3150.8
706.602	3048.4
706.79	3185.62
706.979	3021.78
707.167	3097.55
707.355	3083.22
707.543	3038.16
707.731	3083.22
707.919	2929.62
708.107	3007.44
708.296	2974.67
708.484	2980.82
708.672	3066.83
708.86	3050.45
709.048	2986.96
709.236	3027.92
709.424	3042.26
709.612	2929.62
709.8	2896.85
709.988	2886.61
710.176	3029.97
710.364	2980.82
710.551	2784.21
710.739	2964.43
710.927	2894.8
711.115	2931.67
711.303	2937.81
711.491	2792.41
711.679	2857.94
711.866	2890.71
712.054	2825.17
712.242	2814.93
712.43	2931.67
712.617	2773.97
712.805	2792.41
712.993	2821.08
713.181	2771.93
713.368	2771.93
713.556	2712.53
713.744	2724.82
713.931	2704.34
714.119	2632.66
714.306	2720.73
714.494	2698.2
714.682	2649.05
714.869	2599.9
715.057	2618.33
715.244	2636.76
715.432	2724.82
715.619	2644.95
715.807	2642.9
715.994	2763.73
716.182	2567.13
716.369	2647
716.556	2620.38
716.744	2517.98
716.931	2567.13
717.119	2511.83
717.306	2563.03
717.493	2477.02
717.681	2528.22
717.868	2444.25
718.055	2628.57
718.242	2378.72
718.43	2497.5
718.617	2483.16
718.804	2399.2
718.991	2411.48
719.179	2462.68
719.366	2434.01
719.553	2321.37
719.74	2364.38
719.927	2493.4
720.114	2382.81
720.301	2348
720.488	2317.28
720.676	2370.52
720.863	2393.05
721.05	2266.08
721.237	2395.1
721.424	2395.1
721.611	2358.24
721.798	2270.17
721.985	2286.56
722.172	2364.38
722.358	2286.56
722.545	2257.89
722.732	2345.95
722.919	2319.32
723.106	2214.88
723.293	2239.45
723.48	2182.11
723.667	2098.14
723.853	2106.34
724.04	2124.77
724.227	2272.22
724.414	2272.22
724.6	2167.77
724.787	2135.01
724.974	2282.46
725.161	2087.9
725.347	2151.39
725.534	2165.73
725.72	2036.7
725.907	2061.28
726.094	2223.07
726.28	2014.18
726.467	2102.24
726.653	2034.66
726.84	2216.93
727.027	2194.4
727.213	1960.93
727.4	2055.14
727.586	2178.01
727.773	2051.04
727.959	2034.66
728.145	2124.77
728.332	2046.94
728.518	2042.85
728.705	2018.27
728.891	2108.38
729.077	2059.23
729.264	1956.83
729.45	2036.7
729.636	2014.18
729.823	1899.49
730.009	2071.52
730.195	1936.35
730.382	1932.26
730.568	1956.83
730.754	2010.08
730.94	1977.31
731.126	1891.3
731.313	1838.05
731.499	1952.74
731.685	1872.87
731.871	1868.77
732.057	1872.87
732.243	1858.53
732.429	1864.68
732.615	1805.28
732.801	1860.58
732.987	1848.29
733.173	1797.09
733.359	1866.72
733.545	1903.59
733.731	1885.16
733.917	1872.87
734.103	1854.44
734.289	1862.63
734.475	1782.76
734.661	1885.16
734.847	1821.67
735.033	1788.9
735.219	1897.44
735.404	1772.52
735.59	1813.48
735.776	1698.79
735.962	1805.28
736.148	1760.23
736.333	1764.33
736.519	1678.31
736.705	1780.71
736.89	1649.64
737.076	1782.76
737.262	1686.5
737.447	1623.02
737.633	1674.21
737.819	1719.27
738.004	1666.02
738.19	1635.3
738.375	1594.34
738.561	1651.69
738.747	1651.69
738.932	1598.44
739.118	1661.93
739.303	1639.4
739.489	1676.26
739.674	1577.96
739.859	1498.09
740.045	1670.12
740.23	1633.26
740.416	1588.2
740.601	1584.1
740.786	1573.86
740.972	1500.14
741.157	1643.49
741.342	1553.38
741.528	1493.99
741.713	1493.99
741.898	1506.28
742.084	1559.53
742.269	1530.86
742.454	1530.86
742.639	1438.7
742.824	1479.66
743.01	1567.72
743.195	1596.39
743.38	1537
743.565	1549.29
743.75	1502.19
743.935	1526.76
744.12	1524.71
744.305	1371.12
744.49	1436.65
744.675	1469.42
744.86	1364.97
745.045	1379.31
745.23	1324.01
745.415	1463.27
745.6	1418.22
745.785	1313.77
745.97	1496.04
746.155	1414.12
746.34	1330.16
746.525	1367.02
746.71	1383.4
746.895	1321.96
747.079	1332.2
747.264	1203.18
747.449	1336.3
747.634	1346.54
747.819	1231.85
748.003	1256.43
748.188	1332.2
748.373	1301.48
748.557	1209.33
748.742	1264.62
748.927	1264.62
749.111	1154.03
749.296	1231.85
749.481	1264.62
749.665	1188.85
749.85	1207.28
750.034	1119.21
750.219	1149.93
750.404	1194.99
750.588	1158.13
750.773	1174.51
750.957	1209.33
751.141	1084.4
751.326	1178.61
751.51	1192.94
751.695	1154.03
751.879	1217.52
752.064	1149.93
752.248	1096.69
752.432	1207.28
752.617	1014.77
752.801	1096.69
752.985	1057.78
753.17	1078.26
753.354	1127.41
753.538	1094.64
753.722	994.29
753.907	1022.96
754.091	996.34
754.275	1045.49
754.459	1022.96
754.643	979.95
754.828	1014.77
755.012	1039.34
755.196	947.19
755.38	982
755.564	1010.67
755.748	1025.01
755.932	996.34
756.116	936.95
756.3	984.05
756.484	947.19
756.668	912.37
756.852	902.13
757.036	988.14
757.22	848.88
757.404	848.88
757.588	912.37
757.772	979.95
757.956	797.68
758.14	959.47
758.323	879.6
758.507	941.04
758.691	814.07
758.875	932.85
759.059	891.89
759.242	822.26
759.426	857.07
759.61	801.78
759.794	889.84
759.977	834.55
760.161	898.03
760.345	887.79
760.528	945.14
760.712	842.74
760.895	785.4
761.079	824.31
761.263	779.25
761.446	758.77
761.63	814.07
761.813	828.4
761.997	734.2
762.18	797.68
762.364	781.3
762.547	744.44
762.731	791.54
762.914	715.77
763.098	732.15
763.281	740.34
763.464	764.92
763.648	807.92
763.831	717.81
764.015	773.11
764.198	771.06
764.381	658.42
764.564	719.86
764.748	748.53
764.931	783.35
765.114	760.82
765.297	758.77
765.481	740.34
765.664	717.81
765.847	674.81
766.03	734.2
766.213	711.67
766.397	740.34
766.58	668.66
766.763	744.44
766.946	689.14
767.129	703.48
767.312	748.53
767.495	639.99
767.678	666.61
767.861	791.54
768.044	658.42
768.227	748.53
768.41	734.2
768.593	699.38
768.776	713.72
768.959	715.77
769.142	775.16
769.324	642.04
769.507	664.57
769.69	635.89
769.873	633.85
770.056	654.33
770.239	717.81
770.421	596.98
770.604	685.05
770.787	668.66
770.97	699.38
771.152	658.42
771.335	601.08
771.518	723.96
771.7	609.27
771.883	740.34
772.066	662.52
772.248	601.08
772.431	635.89
772.613	642.04
772.796	654.33
772.978	666.61
773.161	680.95
773.343	693.24
773.526	617.46
773.708	513.02
773.891	502.78
774.073	551.93
774.256	625.65
774.438	568.31
774.621	551.93
774.803	623.61
774.985	517.11
775.168	605.17
775.35	601.08
775.532	633.85
775.715	586.74
775.897	519.16
776.079	560.12
776.261	560.12
776.444	494.58
776.626	551.93
776.808	584.7
776.99	531.45
777.173	553.98
777.355	510.97
777.537	541.69
777.719	494.58
777.901	416.76
778.083	467.96
778.265	445.43
778.447	506.87
778.629	424.95
778.811	551.93
778.993	488.44
779.175	592.89
779.357	445.43
779.539	404.47
779.721	494.58
779.903	492.54
780.085	447.48
780.267	478.2
780.449	424.95
780.631	412.67
780.812	455.67
780.994	492.54
781.176	455.67
781.358	420.86
781.54	406.52
781.721	433.15
781.903	429.05
782.085	400.38
782.267	410.62
782.448	420.86
782.63	433.15
782.812	429.05
782.993	412.67
783.175	412.67
783.357	429.05
783.538	439.29
783.72	396.28
783.901	338.94
784.083	427
784.264	392.19
784.446	367.61
784.627	322.56
784.809	386.04
784.99	361.47
785.172	386.04
785.353	347.13
785.535	353.27
785.716	324.6
785.897	297.98
786.079	322.56
786.26	359.42
786.441	367.61
786.623	322.56
786.804	338.94
786.985	347.13
787.167	347.13
787.348	291.84
787.529	404.47
787.71	338.94
787.891	371.71
788.073	316.41
788.254	349.18
788.435	345.08
788.616	330.75
788.797	291.84
788.978	306.17
789.159	242.68
789.34	314.36
789.522	267.26
789.703	310.27
789.884	338.94
790.065	363.51
790.246	318.46
790.427	246.78
790.607	254.97
790.788	308.22
790.969	232.44
791.15	304.12
791.331	289.79
791.512	302.08
791.693	259.07
791.874	275.45
792.054	326.65
792.235	347.13
792.416	332.79
792.597	283.64
792.778	261.12
792.958	232.44
793.139	209.92
793.32	252.92
793.5	209.92
793.681	265.21
793.862	160.77
794.042	257.02
794.223	289.79
794.404	179.2
794.584	240.64
794.765	287.74
794.945	224.25
795.126	257.02
795.306	285.69
795.487	322.56
795.667	216.06
795.848	240.64
796.028	191.49
796.209	224.25
796.389	240.64
796.57	193.53
796.75	232.44
796.93	281.6
797.111	254.97
797.291	136.19
797.471	322.56
797.652	136.19
797.832	101.37
798.012	224.25
798.192	224.25
798.373	168.96
798.553	185.34
798.733	156.67
798.913	166.91
799.093	187.39
799.274	218.11
799.454	238.59
799.634	160.77
799.814	168.96
799.994	240.64
800.174	257.02
800.354	181.25
800.534	199.68
800.714	136.19
800.894	150.53
801.074	185.34
801.254	181.25
801.434	218.11
801.614	254.97
801.794	152.57
801.974	938.99
802.154	148.48
802.334	226.3
802.514	95.23
802.693	248.83
802.873	97.28
803.053	195.58
803.233	162.81
803.413	125.95
803.592	220.16
803.772	150.53
803.952	154.62
804.131	123.9
804.311	211.96
804.491	166.91
804.67	101.37
804.85	150.53
805.03	117.76
805.209	142.33
805.389	130.05
805.568	168.96
805.748	89.09
805.928	183.29
806.107	191.49
806.287	209.92
806.466	173.05
806.646	146.43
806.825	128
807.004	121.85
807.184	119.81
807.363	171.01
807.543	160.77
807.722	84.99
807.901	158.72
808.081	152.57
808.26	158.72
808.439	136.19
808.619	93.18
808.798	62.46
808.977	156.67
809.156	150.53
809.336	117.76
809.515	136.19
809.694	84.99
809.873	136.19
810.052	125.95
810.231	191.49
810.411	84.99
810.59	216.06
810.769	111.61
810.948	125.95
811.127	78.85
811.306	175.1
811.485	183.29
811.664	144.38
811.843	162.81
812.022	62.46
812.201	168.96
812.38	95.23
812.559	121.85
812.737	117.76
812.916	107.52
813.095	78.85
813.274	187.39
813.453	125.95
813.632	97.28
813.811	150.53
813.989	52.22
814.168	19.46
814.347	52.22
814.526	111.61
814.704	121.85
814.883	158.72
815.062	84.99
815.24	152.57
815.419	56.32
815.598	113.66
815.776	-21.5
815.955	99.33
816.133	3.07
816.312	93.18
816.49	97.28
816.669	105.47
816.847	35.84
817.026	105.47
817.204	80.89
817.383	72.7
817.561	52.22
817.74	87.04
817.918	80.89
818.097	84.99
818.275	84.99
818.453	134.14
818.632	82.94
818.81	76.8
818.988	50.18
819.167	191.49
819.345	44.03
819.523	109.57
819.701	80.89
819.879	152.57
820.058	72.7
820.236	109.57
820.414	109.57
820.592	109.57
820.77	87.04
820.948	89.09
821.127	21.5
821.305	60.42
821.483	76.8
821.661	99.33
821.839	56.32
822.017	27.65
822.195	109.57
822.373	117.76
822.551	117.76
822.729	113.66
822.907	17.41
823.085	95.23
823.262	56.32
823.44	103.42
823.618	109.57
823.796	50.18
823.974	21.5
824.152	97.28
824.329	15.36
824.507	78.85
824.685	60.42
824.863	66.56
825.04	101.37
825.218	84.99
825.396	-13.31
825.574	97.28
825.751	97.28
825.929	87.04
826.107	60.42
826.284	70.65
826.462	31.74
826.639	41.98
826.817	64.51
826.994	46.08
827.172	56.32
827.349	166.91
827.527	52.22
827.704	123.9
827.882	150.53
828.059	13.31
828.237	46.08
828.414	60.42
828.591	60.42
828.769	78.85
828.946	80.89
829.124	29.7
829.301	78.85
829.478	21.5
829.655	72.7
829.833	125.95
830.01	52.22
830.187	60.42
830.364	35.84
830.542	29.7
830.719	101.37
830.896	72.7
831.073	91.13
831.25	37.89
831.427	158.72
831.604	44.03
831.782	46.08
831.959	62.46
832.136	-62.46
832.313	37.89
832.49	-13.31
832.667	50.18
832.844	101.37
833.021	173.05
833.198	44.03
833.374	46.08
833.551	70.65
833.728	19.46
833.905	19.46
834.082	25.6
834.259	27.65
834.436	19.46
834.612	-41.98
834.789	64.51
834.966	76.8
835.143	39.94
835.319	-27.65
835.496	68.61
835.673	62.46
835.85	-21.5
836.026	80.89
836.203	72.7
836.38	70.65
836.556	-7.17
836.733	33.79
836.909	117.76
837.086	3.07
837.262	-17.41
837.439	62.46
837.616	52.22
837.792	87.04
837.968	3.07
838.145	15.36
838.321	3.07
838.498	15.36
838.674	44.03
838.851	154.62
839.027	31.74
839.203	15.36
839.38	-72.7
839.556	52.22
839.732	109.57
839.909	-9.22
840.085	48.13
840.261	62.46
840.437	117.76
840.614	52.22
840.79	19.46
840.966	76.8
841.142	101.37
841.318	-11.26
841.494	119.81
841.671	50.18
841.847	46.08
842.023	3.07
842.199	52.22
842.375	44.03
842.551	-46.08
842.727	-19.46
842.903	39.94
843.079	64.51
843.255	95.23
843.431	35.84
843.607	50.18
843.783	-35.84
843.959	54.27
844.134	23.55
844.31	46.08
844.486	29.7
844.662	52.22
844.838	-29.7
845.013	97.28
845.189	103.42
845.365	13.31
845.541	125.95
845.716	52.22
845.892	29.7
846.068	9.22
846.244	-35.84
846.419	3.07
846.595	21.5
846.77	35.84
846.946	68.61
847.122	7.17
847.297	-39.94
847.473	37.89
847.648	-60.42
847.824	44.03
847.999	-25.6
848.175	103.42
848.35	54.27
848.526	27.65
848.701	1.02
848.876	52.22
849.052	62.46
849.227	-13.31
849.403	-5.12
849.578	5.12
849.753	-11.26
849.929	64.51
850.104	-29.7
850.279	27.65
850.454	3.07
850.63	70.65
850.805	27.65
850.98	21.5
851.155	-15.36
851.33	68.61
851.505	35.84
851.681	-9.22
851.856	-44.03
852.031	117.76
852.206	-1.02
852.381	35.84
852.556	5.12
852.731	70.65
852.906	48.13
853.081	-7.17
853.256	19.46
853.431	31.74
853.606	-3.07
853.781	27.65
853.956	-31.74
854.131	52.22
854.305	17.41
854.48	37.89
854.655	-9.22
854.83	3.07
855.005	19.46
855.18	27.65
855.354	-13.31
855.529	35.84
855.704	-15.36
855.879	3.07
856.053	-13.31
856.228	44.03
856.403	-19.46
856.577	72.7
856.752	-44.03
856.926	19.46
857.101	9.22
857.276	35.84
857.45	-39.94
857.625	68.61
857.799	60.42
857.974	46.08
858.148	-35.84
858.323	11.26
858.497	93.18
858.672	-46.08
858.846	62.46
859.02	44.03
859.195	44.03
859.369	82.94
859.543	-46.08
859.718	-21.5
859.892	13.31
860.066	33.79
860.241	-1.02
860.415	3.07
860.589	68.61
860.763	13.31
860.938	21.5
861.112	19.46
861.286	44.03
861.46	13.31
861.634	35.84
861.808	-19.46
861.982	-37.89
862.157	-29.7
862.331	-5.12
862.505	11.26
862.679	9.22
862.853	19.46
863.027	27.65
863.201	21.5
863.375	52.22
863.549	44.03
863.722	-3.07
863.896	44.03
864.07	-62.46
864.244	-31.74
864.418	3.07
864.592	58.37
864.766	-13.31
864.939	64.51
865.113	-21.5
865.287	142.33
865.461	46.08
865.634	27.65
865.808	-5.12
865.982	52.22
866.156	3.07
866.329	-119.81
866.503	-52.22
866.676	-41.98
866.85	-7.17
867.024	-21.5
867.197	19.46
867.371	68.61
867.544	39.94
867.718	-13.31
867.891	56.32
868.065	29.7
868.238	56.32
868.412	70.65
868.585	-60.42
868.759	11.26
868.932	-13.31
869.105	-54.27
869.279	-11.26
869.452	-87.04
869.625	60.42
869.799	84.99
869.972	-78.85
870.145	39.94
870.319	-35.84
870.492	-21.5
870.665	-27.65
870.838	7.17
871.011	-5.12
871.185	-37.89
871.358	-7.17
871.531	35.84
871.704	39.94
871.877	52.22
872.05	-23.55
872.223	7.17
872.396	29.7
872.569	-1.02
872.742	7.17
872.915	-11.26
873.088	-1.02
873.261	62.46
873.434	19.46
873.607	29.7
873.78	48.13
873.953	-27.65
874.126	-19.46
874.299	93.18
874.471	-13.31
874.644	-35.84
874.817	68.61
874.99	29.7
875.163	11.26
875.335	3.07
875.508	13.31
875.681	68.61
875.853	27.65
876.026	48.13
876.199	44.03
876.371	27.65
876.544	41.98
876.717	-11.26
876.889	21.5
877.062	23.55
877.234	-95.23
877.407	3.07
877.579	-1.02
877.752	13.31
877.924	54.27
878.097	37.89
878.269	27.65
878.442	-62.46
878.614	-3.07
878.786	48.13
878.959	93.18
879.131	46.08
879.303	-82.94
879.476	19.46
879.648	13.31
879.82	15.36
879.993	-9.22
880.165	-15.36
880.337	5.12
880.509	19.46
880.681	-13.31
880.854	46.08
881.026	9.22
881.198	13.31
881.37	-19.46
881.542	48.13
881.714	33.79
881.886	-13.31
882.058	-13.31
882.23	19.46
882.402	19.46
882.574	35.84
882.746	62.46
882.918	27.65
883.09	27.65
883.262	21.5
883.434	44.03
883.606	-84.99
883.778	-25.6
883.95	60.42
884.122	27.65
884.293	62.46
884.465	-35.84
884.637	68.61
884.809	-13.31
884.98	-13.31
885.152	-1.02
885.324	37.89
885.496	-25.6
885.667	-17.41
885.839	31.74
886.011	48.13
886.182	29.7
886.354	-13.31
886.525	-17.41
886.697	3.07
886.869	15.36
887.04	-11.26
887.212	52.22
887.383	27.65
887.555	7.17
887.726	-109.57
887.897	-25.6
888.069	-31.74
888.24	27.65
888.412	52.22
888.583	11.26
888.754	-19.46
888.926	-41.98
889.097	15.36
889.268	-58.37
889.44	-9.22
889.611	-21.5
889.782	11.26
889.953	3.07
890.125	-37.89
890.296	-35.84
890.467	-33.79
890.638	11.26
890.809	-25.6
890.98	19.46
891.151	48.13
891.323	-21.5
891.494	7.17
891.665	-35.84
891.836	54.27
892.007	-19.46
892.178	-27.65
892.349	9.22
892.52	-41.98
892.691	64.51
892.862	-13.31
893.032	-29.7
893.203	-46.08
893.374	-70.65
893.545	-3.07
893.716	27.65
893.887	17.41
894.057	-33.79
894.228	-35.84
894.399	-29.7
894.57	89.09
894.74	-19.46
894.911	27.65
895.082	-13.31
895.253	11.26
895.423	15.36
895.594	11.26
895.764	52.22
895.935	3.07
896.106	-7.17
896.276	13.31
896.447	25.6
896.617	-60.42
896.788	-37.89
896.958	-58.37
897.129	-3.07
897.299	13.31
897.47	11.26
897.64	-5.12
897.81	-66.56
897.981	-78.85
898.151	-48.13
898.322	21.5
898.492	48.13
898.662	-3.07
898.832	-46.08
899.003	-19.46
899.173	11.26
899.343	31.74
899.513	35.84
