Data from USB4F104151__301__14-34-59-122.txt Node

Date: Thu Mar 13 14:34:59 EDT 2025
User: louis
Spectrometer: USB4F10415
Trigger mode: 4
Integration Time (sec): 2.500000E-2
Scans to average: 1
Electric dark correction enabled: true
Nonlinearity correction enabled: false
Boxcar width: 0
XAxis mode: Wavelengths
Number of Pixels in Spectrum: 3648
>>>>>Begin Spectral Data<<<<<
178.204	-165.89
178.424	-165.89
178.644	-165.89
178.864	-131.07
179.084	-200.7
179.304	26.62
179.524	-2.05
179.744	-59.39
179.964	-38.91
180.184	30.72
180.404	-18.43
180.624	40.96
180.844	34.82
181.064	-43.01
181.283	57.34
181.503	-57.34
181.723	28.67
181.943	-32.77
182.163	88.06
182.383	92.16
182.602	-43.01
182.822	34.82
183.042	16.38
183.262	-32.77
183.482	88.06
183.701	-14.34
183.921	-32.77
184.141	-14.34
184.361	57.34
184.58	43.01
184.8	16.38
185.02	10.24
185.239	-34.82
185.459	69.63
185.679	38.91
185.898	-34.82
186.118	94.21
186.338	61.44
186.557	32.77
186.777	-47.1
186.997	-14.34
187.216	-2.05
187.436	98.3
187.655	92.16
187.875	49.15
188.095	-22.53
188.314	16.38
188.534	92.16
188.753	22.53
188.973	77.82
189.192	45.06
189.412	2.05
189.631	34.82
189.851	57.34
190.07	65.54
190.29	16.38
190.509	6.14
190.729	63.49
190.948	40.96
191.168	245.76
191.387	88.06
191.607	0
191.826	-10.24
192.045	-43.01
192.265	22.53
192.484	30.72
192.704	8.19
192.923	71.68
193.142	73.73
193.362	90.11
193.581	69.63
193.8	45.06
194.02	63.49
194.239	30.72
194.458	24.58
194.678	59.39
194.897	22.53
195.116	51.2
195.335	69.63
195.555	30.72
195.774	55.3
195.993	79.87
196.212	100.35
196.432	-2.05
196.651	34.82
196.87	6.14
197.089	100.35
197.308	12.29
197.528	-10.24
197.747	-8.19
197.966	51.2
198.185	112.64
198.404	-32.77
198.623	53.25
198.842	98.3
199.062	59.39
199.281	75.77
199.5	18.43
199.719	6.14
199.938	88.06
200.157	112.64
200.376	-18.43
200.595	77.82
200.814	47.1
201.033	-2.05
201.252	53.25
201.471	55.3
201.69	106.49
201.909	73.73
202.128	59.39
202.347	38.91
202.566	-43.01
202.785	40.96
203.004	-6.14
203.223	161.79
203.442	26.62
203.661	24.58
203.879	69.63
204.098	120.83
204.317	32.77
204.536	63.49
204.755	30.72
204.974	108.54
205.193	120.83
205.411	36.86
205.63	79.87
205.849	90.11
206.068	71.68
206.287	-26.62
206.505	81.92
206.724	30.72
206.943	38.91
207.162	47.1
207.381	88.06
207.599	24.58
207.818	38.91
208.037	34.82
208.255	-34.82
208.474	49.15
208.693	-22.53
208.911	47.1
209.13	59.39
209.349	135.17
209.567	0
209.786	112.64
210.005	108.54
210.223	83.97
210.442	75.77
210.661	108.54
210.879	-10.24
211.098	30.72
211.316	88.06
211.535	79.87
211.753	47.1
211.972	14.34
212.191	61.44
212.409	-24.58
212.628	88.06
212.846	100.35
213.065	-8.19
213.283	104.45
213.502	38.91
213.72	-6.14
213.938	43.01
214.157	55.3
214.375	34.82
214.594	51.2
214.812	34.82
215.031	26.62
215.249	-16.38
215.467	67.58
215.686	-6.14
215.904	47.1
216.122	40.96
216.341	63.49
216.559	71.68
216.778	8.19
216.996	88.06
217.214	-8.19
217.432	32.77
217.651	-16.38
217.869	16.38
218.087	-14.34
218.306	30.72
218.524	22.53
218.742	-55.3
218.96	2.05
219.179	57.34
219.397	22.53
219.615	114.69
219.833	-51.2
220.051	26.62
220.27	75.77
220.488	14.34
220.706	47.1
220.924	73.73
221.142	4.1
221.36	34.82
221.578	73.73
221.796	16.38
222.015	47.1
222.233	28.67
222.451	90.11
222.669	0
222.887	47.1
223.105	26.62
223.323	65.54
223.541	20.48
223.759	34.82
223.977	30.72
224.195	47.1
224.413	63.49
224.631	47.1
224.849	47.1
225.067	129.02
225.285	-2.05
225.503	-18.43
225.721	-16.38
225.939	14.34
226.157	30.72
226.375	149.5
226.592	8.19
226.81	20.48
227.028	81.92
227.246	92.16
227.464	24.58
227.682	24.58
227.9	10.24
228.117	-16.38
228.335	67.58
228.553	57.34
228.771	102.4
228.989	102.4
229.206	34.82
229.424	2.05
229.642	10.24
229.86	79.87
230.077	51.2
230.295	26.62
230.513	71.68
230.731	-20.48
230.948	49.15
231.166	116.73
231.384	47.1
231.601	71.68
231.819	92.16
232.037	34.82
232.254	-2.05
232.472	108.54
232.689	-38.91
232.907	47.1
233.125	45.06
233.342	24.58
233.56	-30.72
233.777	43.01
233.995	0
234.213	75.77
234.43	12.29
234.648	26.62
234.865	2.05
235.083	67.58
235.3	10.24
235.518	79.87
235.735	79.87
235.953	10.24
236.17	32.77
236.388	22.53
236.605	67.58
236.822	34.82
237.04	22.53
237.257	36.86
237.475	67.58
237.692	40.96
237.909	30.72
238.127	-6.14
238.344	32.77
238.562	14.34
238.779	2.05
238.996	22.53
239.214	8.19
239.431	83.97
239.648	-49.15
239.865	-14.34
240.083	75.77
240.3	-18.43
240.517	6.14
240.735	110.59
240.952	65.54
241.169	38.91
241.386	75.77
241.603	-16.38
241.821	-18.43
242.038	8.19
242.255	14.34
242.472	28.67
242.689	22.53
242.907	98.3
243.124	2.05
243.341	49.15
243.558	36.86
243.775	38.91
243.992	-49.15
244.209	2.05
244.426	131.07
244.643	36.86
244.86	47.1
245.078	92.16
245.295	38.91
245.512	10.24
245.729	-8.19
245.946	10.24
246.163	71.68
246.38	14.34
246.597	40.96
246.814	30.72
247.031	-43.01
247.248	47.1
247.464	47.1
247.681	79.87
247.898	-18.43
248.115	131.07
248.332	14.34
248.549	47.1
248.766	75.77
248.983	47.1
249.2	6.14
249.417	73.73
249.633	30.72
249.85	108.54
250.067	75.77
250.284	55.3
250.501	55.3
250.717	90.11
250.934	34.82
251.151	22.53
251.368	77.82
251.585	96.25
251.801	30.72
252.018	-88.06
252.235	102.4
252.451	14.34
252.668	6.14
252.885	92.16
253.102	47.1
253.318	73.73
253.535	-16.38
253.752	-2.05
253.968	55.3
254.185	8.19
254.401	-4.1
254.618	30.72
254.835	0
255.051	63.49
255.268	104.45
255.484	51.2
255.701	53.25
255.917	75.77
256.134	83.97
256.351	90.11
256.567	38.91
256.784	124.93
257	-30.72
257.217	22.53
257.433	36.86
257.65	22.53
257.866	108.54
258.082	-18.43
258.299	14.34
258.515	47.1
258.732	83.97
258.948	2.05
259.165	94.21
259.381	88.06
259.597	20.48
259.814	38.91
260.03	43.01
260.246	36.86
260.463	6.14
260.679	22.53
260.895	18.43
261.112	73.73
261.328	6.14
261.544	30.72
261.761	106.49
261.977	18.43
262.193	26.62
262.409	94.21
262.626	59.39
262.842	55.3
263.058	22.53
263.274	96.25
263.49	63.49
263.707	137.21
263.923	-10.24
264.139	0
264.355	16.38
264.571	137.21
264.787	43.01
265.004	71.68
265.22	83.97
265.436	-16.38
265.652	12.29
265.868	143.36
266.084	-22.53
266.3	106.49
266.516	2.05
266.732	30.72
266.948	8.19
267.164	83.97
267.38	16.38
267.596	43.01
267.812	88.06
268.028	96.25
268.244	16.38
268.46	55.3
268.676	-18.43
268.892	-10.24
269.108	-34.82
269.324	-51.2
269.54	14.34
269.756	75.77
269.972	30.72
270.188	-4.1
270.403	6.14
270.619	49.15
270.835	75.77
271.051	8.19
271.267	40.96
271.483	-2.05
271.698	55.3
271.914	63.49
272.13	38.91
272.346	71.68
272.562	2.05
272.777	81.92
272.993	0
273.209	110.59
273.425	108.54
273.64	-10.24
273.856	8.19
274.072	55.3
274.287	6.14
274.503	114.69
274.719	12.29
274.934	28.67
275.15	-47.1
275.366	92.16
275.581	51.2
275.797	45.06
276.012	102.4
276.228	14.34
276.444	10.24
276.659	73.73
276.875	10.24
277.09	75.77
277.306	18.43
277.521	86.01
277.737	-38.91
277.952	169.98
278.168	38.91
278.383	34.82
278.599	110.59
278.814	104.45
279.03	75.77
279.245	83.97
279.461	28.67
279.676	88.06
279.892	69.63
280.107	-81.92
280.322	16.38
280.538	104.45
280.753	6.14
280.969	47.1
281.184	88.06
281.399	75.77
281.615	28.67
281.83	12.29
282.045	22.53
282.26	10.24
282.476	32.77
282.691	96.25
282.906	71.68
283.122	22.53
283.337	-34.82
283.552	47.1
283.767	24.58
283.983	47.1
284.198	-14.34
284.413	104.45
284.628	-18.43
284.843	88.06
285.058	59.39
285.274	-14.34
285.489	63.49
285.704	-14.34
285.919	49.15
286.134	22.53
286.349	-18.43
286.564	6.14
286.779	114.69
286.995	47.1
287.21	-6.14
287.425	8.19
287.64	-12.29
287.855	55.3
288.07	24.58
288.285	143.36
288.5	49.15
288.715	106.49
288.93	73.73
289.145	-16.38
289.36	24.58
289.575	139.26
289.79	43.01
290.004	-2.05
290.219	55.3
290.434	55.3
290.649	12.29
290.864	-65.54
291.079	-2.05
291.294	38.91
291.509	49.15
291.724	40.96
291.938	73.73
292.153	20.48
292.368	14.34
292.583	102.4
292.798	112.64
293.012	98.3
293.227	49.15
293.442	43.01
293.657	49.15
293.871	106.49
294.086	32.77
294.301	145.41
294.516	55.3
294.73	114.69
294.945	8.19
295.16	22.53
295.374	51.2
295.589	16.38
295.804	26.62
296.018	14.34
296.233	71.68
296.447	47.1
296.662	8.19
296.877	55.3
297.091	-16.38
297.306	16.38
297.52	43.01
297.735	145.41
297.949	8.19
298.164	110.59
298.378	94.21
298.593	24.58
298.807	100.35
299.022	32.77
299.236	145.41
299.451	-2.05
299.665	-4.1
299.88	30.72
300.094	47.1
300.309	45.06
300.523	0
300.737	43.01
300.952	67.58
301.166	75.77
301.381	55.3
301.595	16.38
301.809	106.49
302.024	73.73
302.238	71.68
302.452	51.2
302.667	120.83
302.881	24.58
303.095	73.73
303.309	98.3
303.524	8.19
303.738	83.97
303.952	-14.34
304.166	77.82
304.381	47.1
304.595	92.16
304.809	-75.77
305.023	47.1
305.237	120.83
305.452	20.48
305.666	96.25
305.88	139.26
306.094	81.92
306.308	86.01
306.522	75.77
306.736	120.83
306.95	129.02
307.164	26.62
307.379	30.72
307.593	129.02
307.807	67.58
308.021	100.35
308.235	108.54
308.449	81.92
308.663	26.62
308.877	114.69
309.091	55.3
309.305	83.97
309.519	22.53
309.733	126.97
309.947	-2.05
310.161	92.16
310.374	59.39
310.588	116.73
310.802	81.92
311.016	26.62
311.23	114.69
311.444	18.43
311.658	8.19
311.872	108.54
312.085	71.68
312.299	83.97
312.513	26.62
312.727	6.14
312.941	22.53
313.154	6.14
313.368	104.45
313.582	6.14
313.796	24.58
314.009	-10.24
314.223	75.77
314.437	63.49
314.651	81.92
314.864	-20.48
315.078	-10.24
315.292	36.86
315.505	81.92
315.719	12.29
315.933	63.49
316.146	75.77
316.36	4.1
316.573	79.87
316.787	112.64
317.001	63.49
317.214	47.1
317.428	90.11
317.641	67.58
317.855	34.82
318.068	16.38
318.282	73.73
318.495	129.02
318.709	114.69
318.922	53.25
319.136	79.87
319.349	124.93
319.563	38.91
319.776	32.77
319.99	-16.38
320.203	55.3
320.417	40.96
320.63	79.87
320.843	73.73
321.057	-8.19
321.27	-8.19
321.483	-10.24
321.697	38.91
321.91	65.54
322.124	79.87
322.337	47.1
322.55	92.16
322.763	24.58
322.977	12.29
323.19	61.44
323.403	124.93
323.617	51.2
323.83	81.92
324.043	-34.82
324.256	75.77
324.469	28.67
324.683	57.34
324.896	45.06
325.109	55.3
325.322	63.49
325.535	120.83
325.748	45.06
325.962	-12.29
326.175	40.96
326.388	88.06
326.601	86.01
326.814	75.77
327.027	61.44
327.24	98.3
327.453	-40.96
327.666	32.77
327.879	79.87
328.092	83.97
328.305	131.07
328.518	2.05
328.731	-16.38
328.944	65.54
329.157	57.34
329.37	75.77
329.583	88.06
329.796	81.92
330.009	22.53
330.222	86.01
330.435	145.41
330.648	96.25
330.861	6.14
331.073	59.39
331.286	67.58
331.499	-43.01
331.712	6.14
331.925	106.49
332.138	47.1
332.35	55.3
332.563	30.72
332.776	53.25
332.989	10.24
333.202	47.1
333.414	-10.24
333.627	-59.39
333.84	65.54
334.053	38.91
334.265	61.44
334.478	10.24
334.691	43.01
334.903	43.01
335.116	0
335.329	63.49
335.541	49.15
335.754	30.72
335.966	22.53
336.179	-2.05
336.392	26.62
336.604	32.77
336.817	112.64
337.029	47.1
337.242	139.26
337.454	-18.43
337.667	-32.77
337.88	12.29
338.092	73.73
338.305	67.58
338.517	26.62
338.729	108.54
338.942	43.01
339.154	79.87
339.367	-43.01
339.579	73.73
339.792	-2.05
340.004	-16.38
340.217	40.96
340.429	49.15
340.641	-26.62
340.854	79.87
341.066	71.68
341.278	104.45
341.491	124.93
341.703	71.68
341.915	40.96
342.128	126.97
342.34	75.77
342.552	94.21
342.764	38.91
342.977	49.15
343.189	38.91
343.401	79.87
343.613	38.91
343.826	22.53
344.038	-69.63
344.25	-24.58
344.462	20.48
344.674	67.58
344.886	71.68
345.099	75.77
345.311	47.1
345.523	-14.34
345.735	6.14
345.947	47.1
346.159	88.06
346.371	55.3
346.583	-6.14
346.795	100.35
347.007	22.53
347.219	-2.05
347.431	-2.05
347.643	51.2
347.855	51.2
348.067	155.65
348.279	38.91
348.491	73.73
348.703	-10.24
348.915	63.49
349.127	6.14
349.339	22.53
349.551	57.34
349.763	129.02
349.975	40.96
350.187	92.16
350.399	8.19
350.61	49.15
350.822	63.49
351.034	63.49
351.246	59.39
351.458	77.82
351.669	30.72
351.881	116.73
352.093	18.43
352.305	110.59
352.517	86.01
352.728	104.45
352.94	6.14
353.152	-2.05
353.363	112.64
353.575	32.77
353.787	108.54
353.999	98.3
354.21	67.58
354.422	73.73
354.633	47.1
354.845	38.91
355.057	88.06
355.268	-2.05
355.48	4.1
355.692	-2.05
355.903	38.91
356.115	43.01
356.326	6.14
356.538	102.4
356.749	79.87
356.961	163.84
357.172	59.39
357.384	22.53
357.595	131.07
357.807	71.68
358.018	22.53
358.23	47.1
358.441	104.45
358.653	67.58
358.864	45.06
359.075	14.34
359.287	96.25
359.498	-22.53
359.709	79.87
359.921	88.06
360.132	73.73
360.344	34.82
360.555	53.25
360.766	120.83
360.977	24.58
361.189	34.82
361.4	71.68
361.611	63.49
361.823	51.2
362.034	47.1
362.245	55.3
362.456	40.96
362.667	122.88
362.879	90.11
363.09	28.67
363.301	28.67
363.512	53.25
363.723	2.05
363.935	30.72
364.146	55.3
364.357	57.34
364.568	83.97
364.779	-4.1
364.99	118.78
365.201	40.96
365.412	59.39
365.623	10.24
365.834	79.87
366.045	-24.58
366.256	155.65
366.467	43.01
366.678	81.92
366.889	38.91
367.1	18.43
367.311	124.93
367.522	79.87
367.733	43.01
367.944	38.91
368.155	20.48
368.366	90.11
368.577	81.92
368.788	143.36
368.999	24.58
369.209	55.3
369.42	155.65
369.631	34.82
369.842	96.25
370.053	12.29
370.264	77.82
370.474	8.19
370.685	57.34
370.896	38.91
371.107	45.06
371.317	53.25
371.528	49.15
371.739	98.3
371.95	75.77
372.16	110.59
372.371	26.62
372.582	43.01
372.792	38.91
373.003	81.92
373.214	61.44
373.424	112.64
373.635	40.96
373.846	116.73
374.056	30.72
374.267	112.64
374.477	96.25
374.688	40.96
374.898	8.19
375.109	40.96
375.319	6.14
375.53	129.02
375.74	71.68
375.951	96.25
376.161	106.49
376.372	73.73
376.582	18.43
376.793	40.96
377.003	38.91
377.214	30.72
377.424	129.02
377.635	92.16
377.845	30.72
378.055	145.41
378.266	71.68
378.476	-2.05
378.686	47.1
378.897	63.49
379.107	71.68
379.317	10.24
379.528	12.29
379.738	98.3
379.948	-24.58
380.158	79.87
380.369	-10.24
380.579	-10.24
380.789	22.53
380.999	47.1
381.21	73.73
381.42	86.01
381.63	53.25
381.84	22.53
382.05	81.92
382.261	83.97
382.471	129.02
382.681	59.39
382.891	67.58
383.101	98.3
383.311	92.16
383.521	14.34
383.731	161.79
383.941	45.06
384.151	63.49
384.361	88.06
384.571	47.1
384.781	71.68
384.991	153.6
385.201	108.54
385.411	96.25
385.621	88.06
385.831	90.11
386.041	100.35
386.251	65.54
386.461	88.06
386.671	71.68
386.881	59.39
387.091	59.39
387.301	92.16
387.511	6.14
387.72	55.3
387.93	112.64
388.14	100.35
388.35	63.49
388.56	49.15
388.769	88.06
388.979	112.64
389.189	18.43
389.399	2.05
389.609	112.64
389.818	88.06
390.028	45.06
390.238	120.83
390.447	45.06
390.657	112.64
390.867	43.01
391.076	16.38
391.286	118.78
391.496	55.3
391.705	20.48
391.915	100.35
392.125	65.54
392.334	120.83
392.544	106.49
392.753	57.34
392.963	88.06
393.172	131.07
393.382	61.44
393.591	94.21
393.801	47.1
394.01	88.06
394.22	106.49
394.429	116.73
394.639	47.1
394.848	71.68
395.058	149.5
395.267	90.11
395.477	147.45
395.686	116.73
395.895	172.03
396.105	196.61
396.314	112.64
396.524	139.26
396.733	18.43
396.942	110.59
397.152	145.41
397.361	65.54
397.57	90.11
397.78	118.78
397.989	137.21
398.198	223.23
398.407	83.97
398.617	106.49
398.826	137.21
399.035	22.53
399.244	71.68
399.453	145.41
399.663	198.65
399.872	96.25
400.081	104.45
400.29	124.93
400.499	124.93
400.708	126.97
400.917	145.41
401.127	104.45
401.336	114.69
401.545	172.03
401.754	161.79
401.963	184.32
402.172	75.77
402.381	114.69
402.59	147.45
402.799	163.84
403.008	180.22
403.217	114.69
403.426	188.41
403.635	137.21
403.844	194.56
404.053	104.45
404.262	157.69
404.471	202.75
404.68	135.17
404.888	110.59
405.097	147.45
405.306	239.61
405.515	174.08
405.724	153.6
405.933	178.17
406.142	217.08
406.35	215.04
406.559	215.04
406.768	237.56
406.977	278.52
407.185	266.24
407.394	251.9
407.603	235.52
407.812	282.62
408.02	305.15
408.229	290.81
408.438	299
408.646	268.28
408.855	303.1
409.064	223.23
409.272	305.15
409.481	346.11
409.69	352.25
409.898	346.11
410.107	391.16
410.315	358.39
410.524	376.83
410.733	483.32
410.941	407.55
411.15	419.83
411.358	509.94
411.567	466.94
411.775	374.78
411.984	511.99
412.192	499.7
412.401	466.94
412.609	544.76
412.818	614.39
413.026	614.39
413.234	632.82
413.443	507.9
413.651	595.96
413.86	686.07
414.068	643.06
414.276	780.28
414.485	694.26
414.693	669.69
414.901	782.32
415.11	770.04
415.318	796.66
415.526	878.58
415.734	892.91
415.943	919.54
416.151	980.98
416.359	1042.42
416.567	991.22
416.776	1064.94
416.984	1163.25
417.192	1200.11
417.4	1087.47
417.608	1138.67
417.817	1163.25
418.025	1271.79
418.233	1390.57
418.441	1277.93
418.649	1423.34
418.857	1564.65
419.065	1554.41
419.273	1468.39
419.481	1515.5
419.689	1644.52
419.897	1714.15
420.105	1742.82
420.313	1767.4
420.521	1912.8
420.729	1857.51
420.937	1927.14
421.145	2072.54
421.353	2072.54
421.561	2299.87
421.769	2340.83
421.977	2463.71
422.185	2332.64
422.393	2502.62
422.601	2594.78
422.809	2521.05
423.017	2750.42
423.224	2834.39
423.432	2840.53
423.64	2775
423.848	3145.68
424.056	2992.08
424.263	3303.37
424.471	3293.13
424.679	3311.57
424.887	3559.37
425.094	3659.72
425.302	3569.61
425.51	3827.65
425.718	3956.68
425.925	3948.48
426.133	4018.11
426.341	4304.83
426.548	4478.91
426.756	4431.8
426.964	4622.27
427.171	4695.99
427.379	4997.04
427.586	5085.11
427.794	5207.98
428.001	5343.15
428.209	5674.92
428.417	5486.51
428.624	5785.51
428.832	5857.19
429.039	5873.57
429.247	5967.78
429.454	6444.96
429.662	6928.28
429.869	6342.56
430.076	6893.46
430.284	6641.56
430.491	6961.05
430.699	7454.61
430.906	7403.41
431.114	7659.4
431.321	7962.5
431.528	7960.45
431.736	8560.51
431.943	8886.14
432.15	8636.28
432.358	8667
432.565	9148.28
432.772	9039.73
432.979	9564.01
433.187	9756.52
433.394	9844.59
433.601	10274.66
433.808	10282.85
434.016	10471.26
434.223	10987.35
434.43	11345.75
434.637	11216.72
434.844	11972.43
435.052	12257.09
435.259	12214.09
435.466	12130.12
435.673	12029.77
435.88	12740.41
436.087	13408.05
436.294	13412.15
436.501	13279.03
436.708	13342.52
436.915	13862.7
437.122	14247.72
437.329	14497.57
437.537	14915.36
437.743	15343.38
437.95	15058.71
438.157	15812.37
438.364	16568.07
438.571	16273.16
438.778	16267.02
438.985	17936.11
439.192	17045.24
439.399	17788.66
439.606	17327.86
439.813	18216.68
440.02	19441.37
440.227	19185.37
440.433	18820.83
440.64	19556.05
440.847	19328.73
441.054	19799.76
441.261	21212.86
441.467	21008.06
441.674	21233.34
441.881	22126.25
442.088	21870.26
442.294	21800.63
442.501	22265.52
442.708	22740.64
442.914	23555.74
443.121	24616.58
443.328	23623.32
443.534	25667.19
443.741	24931.97
443.948	24641.16
444.154	26177.14
444.361	26218.1
444.568	26625.64
444.774	26203.76
444.981	26642.03
445.187	27379.29
445.394	28517.96
445.6	28270.16
445.807	31079.97
446.013	29564.48
446.22	30023.22
446.426	31129.12
446.633	31749.66
446.839	32732.68
447.046	31526.43
447.252	33003.02
447.459	32884.23
447.665	33013.26
447.871	34287.09
448.078	35718.62
448.284	34215.41
448.491	34852.33
448.697	36191.7
448.903	36996.56
449.11	37105.1
449.316	36283.86
449.522	37449.16
449.728	37893.57
449.935	38139.32
450.141	38411.7
450.347	39173.55
450.553	38133.18
450.76	38530.48
450.966	39640.48
451.172	39560.61
451.378	40699.28
451.584	39511.46
451.791	40351.13
451.997	40224.15
452.203	41137.55
452.409	40967.57
452.615	40793.49
452.821	39384.49
453.027	39001.52
453.233	41057.68
453.44	39204.27
453.646	39177.64
453.852	39882.14
454.058	40390.04
454.264	39187.88
454.47	40242.59
454.676	39308.71
454.882	40340.89
455.088	36715.98
455.294	37236.17
455.5	37766.59
455.705	38471.09
455.911	37047.75
456.117	36449.75
456.323	35716.57
456.529	33879.55
456.735	35612.13
456.941	34538.99
457.147	33910.27
457.352	32521.74
457.558	32632.33
457.764	32589.33
457.97	31798.81
458.176	31282.72
458.381	31151.65
458.587	29742.65
458.793	29359.68
458.999	28130.9
459.204	30103.09
459.41	29171.27
459.616	27444.83
459.821	27496.03
460.027	27350.62
460.233	26744.42
460.438	25384.57
460.644	25370.24
460.85	24370.83
461.055	24137.36
461.261	23938.71
461.466	22492.84
461.672	21593.78
461.878	22992.55
462.083	21470.9
462.289	21350.07
462.494	20942.53
462.7	19977.94
462.905	19572.44
463.111	20070.09
463.316	20168.4
463.522	19674.84
463.727	19529.43
463.932	19789.52
464.138	19242.71
464.343	19281.63
464.549	18937.57
464.754	19351.26
464.959	19420.89
465.165	19199.71
465.37	18228.97
465.575	17854.19
465.781	18763.49
465.986	18429.67
466.191	17946.35
466.397	17596.15
466.602	16713.47
466.807	17295.1
467.012	17303.29
467.218	17188.6
467.423	17041.15
467.628	17268.47
467.833	17723.12
468.038	17250.04
468.244	16719.62
468.449	17331.96
468.654	16668.42
468.859	16391.94
469.064	16404.23
469.269	15750.93
469.474	16140.04
469.679	16158.47
469.885	15908.62
470.09	16013.07
470.295	15898.38
470.5	15365.91
470.705	15832.85
470.91	15212.31
471.115	15019.8
471.32	15283.99
471.525	15351.57
471.73	14997.28
471.935	14776.09
472.139	14376.74
472.344	14382.88
472.549	14382.88
472.754	14153.51
472.959	13958.95
473.164	13459.25
473.369	13633.33
473.574	13780.78
473.778	13756.21
473.983	13682.48
474.188	13559.6
474.393	13145.91
474.598	13014.84
474.802	13119.29
475.007	12744.51
475.212	12883.77
475.417	12547.9
475.621	12195.65
475.826	12349.25
476.031	12334.92
476.235	11904.84
476.44	12072.78
476.645	11806.54
476.849	12048.2
477.054	11761.48
477.259	11419.47
477.463	11485.01
477.668	11267.92
477.872	11519.82
478.077	11147.09
478.282	10917.72
478.486	10901.34
478.691	10774.36
478.895	10805.08
479.1	10712.92
479.304	10893.15
479.509	10426.21
479.713	10749.79
479.918	10377.06
480.122	10268.52
480.326	10377.06
480.531	10420.06
480.735	10100.58
480.94	10381.15
481.144	10542.94
481.348	9762.67
481.553	10149.73
481.757	9813.87
481.961	10033
482.166	10196.84
482.37	9998.18
482.574	10043.24
482.778	9998.18
482.983	10155.88
483.187	10088.29
483.391	9965.42
483.595	9959.27
483.8	9805.67
484.004	9895.78
484.208	9944.94
484.412	9877.35
484.616	9777
484.821	10063.72
485.025	9910.12
485.229	10102.63
485.433	9662.32
485.637	9865.07
485.841	9877.35
486.045	9731.95
486.249	9797.48
486.453	9813.87
486.657	9789.29
486.861	9828.2
487.065	9559.92
487.269	9709.42
487.473	9656.17
487.677	9852.78
487.881	9910.12
488.085	9586.54
488.289	10033
488.493	9731.95
488.697	9729.9
488.901	9922.41
489.105	9820.01
489.309	9865.07
489.512	9885.55
489.716	9893.74
489.92	9856.87
490.124	9697.13
490.328	10196.84
490.531	9996.14
490.735	10002.28
490.939	10039.14
491.143	9996.14
491.346	9922.41
491.55	10235.75
491.754	10051.43
491.958	10344.29
492.161	9924.46
492.365	10245.99
492.569	10121.06
492.772	10100.58
492.976	10405.73
493.18	10141.54
493.383	10547.04
493.587	10536.8
493.79	10665.82
493.994	10303.33
494.197	10454.88
494.401	10729.31
494.605	10663.77
494.808	10739.55
495.012	10717.02
495.215	10923.87
495.419	11061.08
495.622	10901.34
495.825	11038.55
496.029	11056.98
496.232	11380.56
496.436	11202.39
496.639	11259.73
496.843	11157.33
497.046	11890.51
497.249	11687.76
497.453	11695.95
497.656	11943.75
497.859	11917.13
498.063	12156.74
498.266	12187.46
498.469	12201.8
498.673	12238.66
498.876	12353.35
499.079	12410.69
499.282	12769.09
499.485	13002.55
499.689	12928.83
499.892	13328.18
500.095	13086.52
500.298	13430.58
500.501	13322.04
500.705	13682.48
500.908	13612.85
501.111	13944.62
501.314	13948.72
501.517	14104.36
501.72	14292.77
501.923	14239.53
502.126	14432.04
502.329	14851.87
502.532	14739.23
502.735	14886.68
502.938	14948.12
503.141	15169.3
503.344	15519.51
503.547	15335.19
503.75	15781.65
503.953	15992.59
504.156	16154.38
504.359	16414.47
504.562	16117.51
504.765	16520.96
504.968	16803.58
505.17	17192.7
505.373	16748.29
505.576	17319.67
505.779	17358.58
505.982	17422.07
506.185	17772.27
506.387	18032.36
506.59	18147.05
506.793	18577.12
506.996	18355.94
507.198	18654.95
507.401	18722.53
507.604	18945.76
507.807	18966.24
508.009	19652.31
508.212	19785.43
508.415	19781.33
508.617	20002.51
508.82	20369.1
509.022	20043.47
509.225	20543.17
509.428	20635.33
509.63	20758.21
509.833	20979.39
510.035	21366.46
510.238	21178.04
510.44	21528.25
510.643	22044.34
510.845	22083.25
511.048	22015.66
511.25	22447.79
511.453	22562.47
511.655	23037.6
511.858	23047.84
512.06	23172.77
512.262	23525.02
512.465	23641.75
512.667	23754.39
512.87	23864.98
513.072	24141.46
513.274	24805
513.477	24823.43
513.679	24811.14
513.881	25165.44
514.084	25343.61
514.286	24944.26
514.488	25464.44
514.69	26613.35
514.893	26449.52
515.095	26334.83
515.297	26560.11
515.499	26648.17
515.701	26814.05
515.904	27252.32
516.106	27416.16
516.308	27557.47
516.51	27659.87
516.712	28098.13
516.914	28464.72
517.116	28718.67
517.318	28728.91
517.52	29138.5
517.722	29242.95
517.925	29310.53
518.127	29642.3
518.329	29455.93
518.531	29799.99
518.733	30486.06
518.935	30332.47
519.136	30590.51
519.338	31086.12
519.54	30940.71
519.742	31112.74
519.944	31229.48
520.146	31548.96
520.348	32136.73
520.55	32232.98
520.752	32075.29
520.954	32525.84
521.155	32480.78
521.357	32796.17
521.559	33046.02
521.761	33689.09
521.963	33449.47
522.164	33555.97
522.366	33390.08
522.568	33695.23
522.77	34387.44
522.971	34614.77
523.173	34070.01
523.375	34471.41
523.576	34541.04
523.778	34285.04
523.98	35220.97
524.181	34723.31
524.383	34792.94
524.584	35294.69
524.786	35237.35
524.988	35098.09
525.189	35653.09
525.391	35851.74
525.592	35769.82
525.794	35907.04
525.995	35884.51
526.197	35610.08
526.398	36089.31
526.6	36165.08
526.801	36265.43
527.003	36181.46
527.204	35991
527.406	36648.4
527.607	36449.75
527.808	36591.06
528.01	35839.45
528.211	36165.08
528.412	37096.91
528.614	36689.36
528.815	36707.79
529.016	36859.34
529.218	36523.47
529.419	36855.25
529.62	36333.01
529.822	36726.22
530.023	36765.13
530.224	36433.36
530.425	36593.11
530.626	36429.27
530.828	36187.61
531.029	36939.21
531.23	36416.98
531.431	36382.16
531.632	36451.8
531.833	36427.22
532.035	36535.76
532.236	36226.52
532.437	36650.45
532.638	36132.31
532.839	36441.56
533.04	36408.79
533.241	36277.72
533.442	36748.75
533.643	36474.32
533.844	36345.3
534.045	36349.4
534.246	36048.35
534.447	36431.32
534.648	35880.41
534.849	36263.38
535.05	35573.22
535.251	35896.8
535.451	35937.76
535.652	36152.79
535.853	36070.87
536.054	35960.28
536.255	36081.11
536.456	35648.99
536.657	36267.48
536.857	35839.45
537.058	35530.21
537.259	35933.66
537.46	35577.31
537.66	35442.15
537.861	35560.93
538.062	35239.4
538.263	35571.17
538.463	35026.41
538.664	35083.75
538.865	35010.03
539.065	35728.86
539.266	34852.33
539.466	35268.07
539.667	35186.15
539.868	35618.27
540.068	35196.39
540.269	35182.06
540.469	35341.8
540.67	35153.38
540.87	35204.58
541.071	35061.22
541.271	34819.56
541.472	35030.51
541.672	34844.14
541.873	34606.58
542.073	34141.69
542.274	35239.4
542.474	35001.83
542.675	34547.18
542.875	35182.06
543.075	34655.73
543.276	34170.36
543.476	34786.8
543.676	34448.88
543.877	34745.84
544.077	34498.03
544.277	35028.46
544.478	34876.91
544.678	34870.76
544.878	34606.58
545.078	34577.9
545.279	34569.71
545.479	34323.96
545.679	34231.8
545.879	34727.41
546.079	34364.92
546.28	34309.62
546.48	34383.35
546.68	34475.51
546.88	34700.78
547.08	35075.56
547.28	34403.83
547.48	34459.12
547.68	34553.33
547.88	34309.62
548.081	34467.31
548.281	34559.47
548.481	34561.52
548.681	34549.23
548.881	34754.03
549.081	34725.36
549.28	34432.5
549.48	34731.5
549.68	34467.31
549.88	34794.99
550.08	34403.83
550.28	34747.89
550.48	34670.06
550.68	34815.47
550.88	34555.38
551.08	34551.28
551.279	34932.2
551.479	34383.35
551.679	34682.35
551.879	34471.41
552.079	34926.06
552.278	34690.54
552.478	34735.6
552.678	34971.11
552.878	35063.27
553.077	34762.22
553.277	34516.47
553.477	34997.74
553.676	34876.91
553.876	34590.19
554.076	34784.75
554.275	35061.22
554.475	34168.31
554.674	35069.42
554.874	35022.31
555.074	34848.24
555.273	34883.05
555.473	35233.25
555.672	35030.51
555.872	35093.99
556.071	35145.19
556.271	35450.34
556.47	34854.38
556.67	34868.72
556.869	35055.08
557.068	35241.45
557.268	35012.07
557.467	35157.48
557.667	35159.53
557.866	34956.78
558.065	35163.62
558.265	34866.67
558.464	35065.32
558.663	35472.87
558.863	34590.19
559.062	35614.18
559.261	34766.32
559.461	35161.58
559.66	34776.56
559.859	34842.09
560.058	34954.73
560.258	35544.55
560.457	34760.17
560.656	35196.39
560.855	34661.87
561.054	35218.92
561.253	34891.24
561.453	35216.87
561.652	34807.28
561.851	35229.16
562.05	35089.9
562.249	34852.33
562.448	35331.56
562.647	34801.13
562.846	35057.13
563.045	35235.3
563.244	34467.31
563.443	35296.74
563.642	34532.85
563.841	34899.44
564.04	34731.5
564.239	34799.08
564.438	34489.84
564.637	34407.92
564.836	35001.83
565.035	34317.81
565.234	34770.41
565.432	34412.02
565.631	34358.77
565.83	34610.67
566.029	34424.31
566.228	34330.1
566.427	34229.75
566.625	33992.19
566.824	34389.49
567.023	34485.75
567.222	33680.89
567.42	34629.1
567.619	34115.06
567.818	33713.66
568.016	33957.37
568.215	34274.81
568.414	33842.68
568.612	33805.82
568.811	34006.52
569.01	34117.11
569.208	33408.51
569.407	33584.64
569.605	33469.95
569.804	33785.34
570.002	33369.6
570.201	33213.96
570.4	33068.55
570.598	32620.05
570.797	32939.53
570.995	32785.93
571.193	32622.09
571.392	32900.62
571.59	32734.73
571.789	32628.24
571.987	32620.05
572.186	32192.02
572.384	32407.06
572.582	32321.04
572.781	32554.51
572.979	32292.37
573.177	32263.7
573.376	32085.53
573.574	31794.71
573.772	32273.94
573.971	31718.94
574.169	31886.87
574.367	31479.33
574.565	32071.19
574.763	31551.01
574.962	31555.1
575.16	31084.07
575.358	31553.05
575.556	31006.25
575.754	31133.22
575.952	30871.08
576.151	31034.92
576.349	31016.49
576.547	30842.41
576.745	30764.59
576.943	30766.63
577.141	30463.54
577.339	30658.09
577.537	30596.65
577.735	30369.33
577.933	30299.7
578.131	30035.51
578.329	30275.12
578.527	30096.95
578.725	29736.51
578.923	29869.62
579.121	29834.81
579.319	29785.66
579.516	29642.3
579.714	29904.44
579.912	29664.83
580.11	29521.47
580.308	29670.97
580.506	29230.66
580.704	28624.46
580.901	29050.44
581.099	29068.87
581.297	29085.25
581.495	28642.89
581.692	29015.62
581.89	28796.49
582.088	28587.6
582.285	28556.88
582.483	28632.65
582.681	28819.02
582.878	28202.58
583.076	28384.85
583.274	28366.42
583.471	28161.62
583.669	28114.51
583.866	28227.15
584.064	27993.68
584.262	27725.4
584.459	28061.27
584.657	27672.15
584.854	27909.72
585.052	27348.57
585.249	27846.23
585.447	27778.65
585.644	27479.64
585.841	27526.75
586.039	27631.19
586.236	26955.36
586.434	27201.12
586.631	27242.08
586.828	27078.24
587.026	27111.01
587.223	27002.47
587.42	26787.43
587.618	26902.12
587.815	26715.75
588.012	26734.18
588.21	26818.15
588.407	27022.95
588.604	26715.75
588.801	26181.23
588.999	26349.17
589.196	26721.9
589.393	26543.72
589.59	26257.01
589.787	26435.18
589.984	26076.79
590.182	25835.13
590.379	26160.75
590.576	26273.39
590.773	26115.7
590.97	25753.21
591.167	26252.91
591.364	25564.79
591.561	25683.58
591.758	25224.83
591.955	25611.9
592.152	25788.02
592.349	25597.56
592.546	25599.61
592.743	25380.48
592.94	25470.59
593.137	25380.48
593.334	25726.58
593.531	25425.53
593.727	25284.22
593.924	25429.63
594.121	24827.53
594.318	25255.55
594.515	24911.49
594.712	25474.68
594.908	25032.32
595.105	25005.7
595.302	25007.75
595.499	25241.21
595.696	24880.77
595.892	24858.24
596.089	25081.47
596.286	25196.16
596.482	24993.41
596.679	24870.53
596.876	24815.24
597.072	24925.83
597.269	24841.86
597.466	24727.17
597.662	24835.72
597.859	24766.09
598.055	24950.4
598.252	24694.41
598.448	24964.74
598.645	24827.53
598.841	24632.97
599.038	24614.54
599.234	24772.23
599.431	24862.34
599.627	24675.98
599.824	24561.29
600.02	24370.83
600.217	24696.46
600.413	24774.28
600.609	24237.71
600.806	24716.93
601.002	24827.53
601.198	24628.87
601.395	24573.58
601.591	24833.67
601.787	24399.5
601.984	24475.27
602.18	25202.3
602.376	24958.6
602.572	24573.58
602.769	24469.13
602.965	24323.72
603.161	24616.58
603.357	24675.98
603.553	24528.52
603.75	24884.87
603.946	24639.11
604.142	24739.46
604.338	24499.85
604.534	24596.1
604.73	24495.75
604.926	24989.31
605.122	25073.28
605.318	24655.5
605.514	24624.78
605.71	24575.62
605.906	24630.92
606.102	24444.55
606.298	24712.84
606.494	25218.69
606.69	24682.12
606.886	24843.91
607.082	24925.83
607.278	25106.05
607.474	24587.91
607.67	25253.5
607.866	24737.41
608.062	25294.46
608.257	24888.96
608.453	25220.74
608.649	25405.05
608.845	25106.05
609.041	25290.37
609.236	25181.82
609.432	25245.31
609.628	25210.5
609.824	25220.74
610.019	25120.38
610.215	25147.01
610.411	25376.38
610.606	25390.72
610.802	25163.39
610.998	25319.04
611.193	25542.27
611.389	25251.45
611.584	25362.04
611.78	25591.42
611.976	25497.21
612.171	25343.61
612.367	25415.29
612.562	25249.41
612.758	25003.65
612.953	25460.35
613.149	25695.86
613.344	25443.96
613.539	26044.02
613.735	25501.31
613.93	25687.67
614.126	25462.4
614.321	25702.01
614.517	25794.17
614.712	25390.72
614.907	25489.02
615.103	25632.38
615.298	25548.41
615.493	25775.73
615.688	25331.33
615.884	26068.59
616.079	25298.56
616.274	25736.82
616.47	25663.1
616.665	25341.57
616.86	25945.72
617.055	25615.99
617.25	25314.94
617.445	25947.76
617.641	25280.13
617.836	25505.4
618.031	25267.84
618.226	25745.02
618.421	25400.96
618.616	25671.29
618.811	25228.93
619.006	25648.76
619.201	24794.76
619.396	24966.79
619.591	24946.31
619.786	25063.04
619.981	24340.11
620.176	24940.16
620.371	24768.13
620.566	24821.38
620.761	24637.06
620.956	24643.21
621.151	24247.95
621.346	24278.67
621.541	24172.18
621.735	24544.91
621.93	23811.73
622.125	23996.05
622.32	23991.95
622.515	23926.42
622.709	23817.88
622.904	23568.02
623.099	23750.29
623.294	23826.07
623.488	23570.07
623.683	23236.25
623.878	22998.69
624.072	23185.05
624.267	23252.64
624.462	23250.59
624.656	22773.41
624.851	22781.6
625.046	22419.11
625.24	22513.32
625.435	22648.49
625.629	22369.96
625.824	22019.76
626.018	22300.33
626.213	21952.18
626.407	21941.94
626.602	21814.96
626.796	21610.17
626.991	21708.47
627.185	21634.74
627.38	21472.95
627.574	20960.96
627.768	21391.03
627.963	21038.78
628.157	21241.53
628.352	21110.46
628.546	20719.3
628.74	20790.98
628.935	20514.5
629.129	20797.12
629.323	20455.11
629.517	20336.33
629.712	20342.47
629.906	20385.48
630.1	20113.1
630.294	20156.11
630.489	19865.3
630.683	19805.91
630.877	19762.9
631.071	19629.78
631.265	19707.6
631.459	19330.78
631.653	19652.31
631.848	19322.59
632.042	19287.77
632.236	18994.91
632.43	18876.13
632.624	18863.84
632.818	18939.61
633.012	18665.19
633.206	18585.32
633.4	18579.17
633.594	18566.88
633.788	18235.11
633.982	18372.33
634.176	18235.11
634.369	18380.52
634.563	18110.19
634.757	17692.4
634.951	17960.69
635.145	17790.7
635.339	17796.85
635.533	17372.92
635.726	17475.32
635.92	17315.58
636.114	17364.73
636.308	17184.51
636.501	17194.75
636.695	17104.63
636.889	16828.16
637.083	16647.94
637.276	16647.94
637.47	16643.84
637.664	16801.54
637.857	16410.37
638.051	16236.3
638.244	16385.8
638.438	16393.99
638.632	15857.42
638.825	15722.26
639.019	15990.54
639.212	15873.81
639.406	15632.15
639.599	15707.92
639.793	15703.82
639.986	15283.99
640.18	15417.11
640.373	15390.49
640.567	15005.47
640.76	15066.91
640.954	14966.56
641.147	15071
641.34	14980.89
641.534	14876.44
641.727	14735.14
641.92	14728.99
642.114	14604.07
642.307	14427.94
642.5	14446.37
642.694	14268.2
642.887	14327.59
643.08	14303.01
643.273	14335.78
643.467	13877.04
643.66	13922.09
643.853	13741.87
644.046	13479.73
644.239	13465.39
644.432	13504.31
644.626	13307.7
644.819	13322.04
645.012	13416.24
645.205	13279.03
645.398	12896.06
645.591	13061.94
645.784	13006.65
645.977	12791.61
646.17	12769.09
646.363	12869.44
646.556	12517.18
646.749	12828.48
646.942	12574.53
647.135	12334.92
647.328	12236.61
647.521	12312.39
647.714	12230.47
647.907	12080.97
648.099	12005.19
648.292	12121.93
648.485	11999.05
648.678	11743.05
648.871	11919.18
649.064	11683.66
649.256	11775.82
649.449	11564.88
649.642	11482.96
649.835	11458.39
650.027	11284.31
650.22	11272.02
650.413	11294.55
650.605	11353.94
650.798	11229.01
650.991	10934.11
651.183	11155.29
651.376	10909.53
651.568	10811.23
651.761	10868.57
651.954	10737.5
652.146	10813.27
652.339	10669.92
652.531	10649.44
652.724	10764.12
652.916	10456.93
653.109	10452.83
653.301	10538.85
653.494	10350.43
653.686	10133.35
653.879	10395.49
654.071	10426.21
654.263	10121.06
654.456	10147.69
654.648	10288.99
654.84	9805.67
655.033	9828.2
655.225	10039.14
655.417	9914.22
655.61	9695.08
655.802	9777
655.994	9416.56
656.186	9768.81
656.379	9484.14
656.571	9697.13
656.763	9471.86
656.955	9377.65
657.148	9367.41
657.34	9334.64
657.532	9312.11
657.724	9148.28
657.916	9133.94
658.108	9013.11
658.3	9086.84
658.492	9158.52
658.684	8787.83
658.876	8949.62
659.068	8746.87
659.26	8945.53
659.452	8896.38
659.644	8650.62
659.836	8705.92
660.028	8609.66
660.22	8480.64
660.412	8492.93
660.604	8370.05
660.796	8460.16
660.988	8425.34
661.18	8298.37
661.372	8308.61
661.563	8380.29
661.755	8105.86
661.947	8148.87
662.139	8304.51
662.331	8030.09
662.522	8132.48
662.714	7960.45
662.906	7694.22
663.097	7884.68
663.289	7878.54
663.481	7694.22
663.673	7882.63
663.864	7864.2
664.056	7503.76
664.247	7600.01
664.439	7583.63
664.631	7593.87
664.822	7542.67
665.014	7354.26
665.205	7223.19
665.397	7305.1
665.588	7315.34
665.78	7339.92
665.971	7288.72
666.163	7247.76
666.354	7159.7
666.546	7100.31
666.737	7206.8
666.929	6891.41
667.12	7067.54
667.311	7034.77
667.503	6815.64
667.694	6936.47
667.885	6858.65
668.077	6895.51
668.268	6799.26
668.459	6750.11
668.651	6717.34
668.842	6854.55
669.033	6586.27
669.224	6715.29
669.416	6625.18
669.607	6547.36
669.798	6553.5
669.989	6596.51
670.18	6356.89
670.371	6494.11
670.563	6520.73
670.754	6592.41
670.945	6469.53
671.136	6502.3
671.327	6305.7
671.518	6354.85
671.709	6305.7
671.9	6338.46
672.091	6461.34
672.282	6227.87
672.473	6289.31
672.664	6350.75
672.855	6143.91
673.046	6250.4
673.237	6297.5
673.428	6221.73
673.619	6297.5
673.809	6035.36
674	6133.67
674.191	6037.41
674.382	6178.72
674.573	6059.94
674.764	5846.95
674.954	5957.54
675.145	5969.83
675.336	5879.72
675.527	5805.99
675.717	6023.08
675.908	5889.96
676.099	5822.38
676.289	5908.39
676.48	5707.69
676.671	5789.61
676.861	5830.57
677.052	5668.78
677.243	5660.59
677.433	5683.11
677.624	5762.98
677.814	5814.18
678.005	5611.43
678.195	5791.66
678.386	5599.15
678.576	5756.84
678.767	5736.36
678.957	5668.78
679.148	5689.26
679.338	5670.83
679.529	5617.58
679.719	5576.62
679.909	5646.25
680.1	5623.72
680.29	5709.74
680.481	5572.52
680.671	5552.04
680.861	5533.61
681.052	5533.61
681.242	5511.08
681.432	5652.39
681.622	5511.08
681.813	5531.56
682.003	5453.74
682.193	5504.94
682.383	5466.03
682.573	5459.88
682.764	5486.51
682.954	5474.22
683.144	5519.28
683.334	5461.93
683.524	5377.97
683.714	5601.19
683.904	5373.87
684.094	5461.93
684.284	5478.32
684.474	5494.7
684.664	5400.49
684.854	5412.78
685.044	5478.32
685.234	5167.03
685.424	5296.05
685.614	5308.34
685.804	5308.34
685.994	5244.85
686.184	5271.47
686.374	5289.9
686.564	5203.89
686.753	5185.46
686.943	5222.32
687.133	5150.64
687.323	5334.96
687.513	5250.99
687.702	5185.46
687.892	5230.51
688.082	5130.16
688.272	5097.39
688.461	5119.92
688.651	5183.41
688.841	5048.24
689.03	5044.15
689.22	5005.24
689.41	5021.62
689.599	5019.57
689.789	4884.41
689.979	5187.5
690.168	4976.56
690.358	4857.78
690.547	4859.83
690.737	4874.17
690.926	4843.45
691.116	4814.77
691.305	4945.84
691.495	4855.73
691.684	4812.73
691.874	4913.08
692.063	4853.69
692.252	4808.63
692.442	4794.29
692.631	4687.8
692.82	4851.64
693.01	4724.66
693.199	4769.72
693.388	4587.45
693.578	4671.42
693.767	4843.45
693.956	4603.83
694.146	4640.7
694.335	4745.14
694.524	4566.97
694.713	4687.8
694.902	4597.69
695.092	4642.75
695.281	4577.21
695.47	4552.63
695.659	4609.98
695.848	4642.75
696.037	4573.11
696.226	4534.2
696.415	4491.2
696.604	4474.81
696.793	4511.68
696.982	4380.61
697.171	4470.72
697.36	4517.82
697.549	4433.85
697.738	4489.15
697.927	4413.37
698.116	4499.39
698.305	4347.84
698.494	4390.85
698.683	4310.97
698.872	4349.89
699.061	4272.06
699.25	4351.93
699.438	4384.7
699.627	4315.07
699.816	4319.17
700.005	4208.58
700.193	4319.17
700.382	4429.76
700.571	4237.25
700.76	4308.93
700.948	4372.41
701.137	4071.36
701.326	4374.46
701.514	4153.28
701.703	4200.38
701.892	4247.49
702.08	4237.25
702.269	4120.51
702.457	4116.42
702.646	4159.42
702.834	4061.12
703.023	4112.32
703.212	4024.26
703.4	4200.38
703.589	3971.01
703.777	4001.73
703.965	3979.2
704.154	4155.33
704.342	4048.83
704.531	4003.78
704.719	4011.97
704.907	4007.87
705.096	3938.24
705.284	3913.67
705.472	3874.76
705.661	3999.68
705.849	3895.24
706.037	3801.03
706.226	3878.85
706.414	3860.42
706.602	3923.91
706.79	3921.86
706.979	3952.58
707.167	3844.04
707.355	3889.09
707.543	3813.32
707.731	3956.68
707.919	3760.07
708.107	3784.65
708.296	3864.52
708.484	3782.6
708.672	3710.92
708.86	3686.34
709.048	3823.56
709.236	3696.58
709.424	3688.39
709.612	3626.95
709.8	3708.87
709.988	3598.28
710.176	3710.92
710.364	3768.26
710.551	3516.36
710.739	3512.27
710.927	3413.96
711.115	3729.35
711.303	3577.8
711.491	3547.08
711.679	3504.07
711.866	3557.32
712.054	3506.12
712.242	3481.55
712.43	3528.65
712.617	3549.13
712.805	3456.97
712.993	3536.84
713.181	3448.78
713.368	3508.17
713.556	3569.61
713.744	3407.82
713.931	3502.03
714.119	3514.31
714.306	3516.36
714.494	3344.33
714.682	3389.39
714.869	3350.48
715.057	3430.35
715.244	3391.44
715.432	3520.46
715.619	3422.16
715.807	3209.17
715.994	3397.58
716.182	3377.1
716.369	3397.58
716.556	3450.83
716.744	3217.36
716.931	3219.41
717.119	3319.76
717.306	3416.01
717.493	3315.66
717.681	3176.4
717.868	3274.7
718.055	3209.17
718.242	3106.77
718.43	3180.5
718.617	3248.08
718.804	3112.91
718.991	3252.17
719.179	3180.5
719.366	3045.33
719.553	3256.27
719.74	3020.75
719.927	3102.67
720.114	3094.48
720.301	3080.15
720.488	2959.31
720.676	3088.34
720.863	3155.92
721.05	3055.57
721.237	3127.25
721.424	3135.44
721.611	2981.84
721.798	2979.79
721.985	2938.84
722.172	2981.84
722.358	2815.96
722.545	3022.8
722.732	2867.16
722.919	2987.99
723.106	2873.3
723.293	2912.21
723.48	2852.82
723.667	2914.26
723.853	2959.31
724.04	2955.22
724.227	2879.44
724.414	2848.72
724.6	2867.16
724.787	2965.46
724.974	2981.84
725.161	2850.77
725.347	2758.61
725.534	2840.53
725.72	2889.68
725.907	2877.4
726.094	2834.39
726.28	2725.85
726.467	2811.86
726.653	2893.78
726.84	2850.77
727.027	2799.57
727.213	2818.01
727.4	2701.27
727.586	2734.04
727.773	2916.31
727.959	2738.13
728.145	2820.05
728.332	2721.75
728.518	2746.33
728.705	2858.96
728.891	2834.39
729.077	2717.65
729.264	2701.27
729.45	2752.47
729.636	2754.52
729.823	2742.23
730.009	2731.99
730.195	2748.37
730.382	2660.31
730.568	2611.16
730.754	2793.43
730.94	2635.74
731.126	2566.1
731.313	2617.3
731.499	2731.99
731.685	2676.7
731.871	2635.74
732.057	2602.97
732.243	2701.27
732.429	2539.48
732.615	2504.67
732.801	2553.82
732.987	2676.7
733.173	2656.22
733.359	2559.96
733.545	2492.38
733.731	2566.1
733.917	2619.35
734.103	2516.95
734.289	2574.3
734.475	2428.89
734.661	2570.2
734.847	2545.63
735.033	2562.01
735.219	2451.42
735.404	2482.14
735.59	2490.33
735.776	2402.27
735.962	2541.53
736.148	2627.54
736.333	2312.16
736.519	2508.76
736.705	2545.63
736.89	2375.64
737.076	2451.42
737.262	2369.5
737.447	2351.07
737.633	2455.51
737.819	2533.34
738.004	2439.13
738.19	2373.6
738.375	2361.31
738.561	2461.66
738.747	2441.18
738.932	2279.39
739.118	2422.75
739.303	2373.6
739.489	2402.27
739.674	2220
739.859	2246.62
740.045	2220
740.23	2183.13
740.416	2256.86
740.601	2160.61
740.786	2172.89
740.972	2201.57
741.157	2273.25
741.342	2308.06
741.528	2097.12
741.713	2201.57
741.898	2168.8
742.084	2308.06
742.269	2242.53
742.454	2138.08
742.639	2242.53
742.824	2211.81
743.01	2232.29
743.195	2183.13
743.38	2154.46
743.565	2115.55
743.75	2170.85
743.935	2129.89
744.12	2183.13
744.305	2076.64
744.49	2021.35
744.675	2086.88
744.86	1955.81
745.045	2050.02
745.23	1964
745.415	2070.5
745.6	2103.26
745.785	2004.96
745.97	2195.42
746.155	2045.92
746.34	2035.68
746.525	1972.19
746.71	2013.15
746.895	1923.04
747.079	1941.47
747.264	1957.86
747.449	1882.08
747.634	1849.32
747.819	1773.54
748.003	1867.75
748.188	1939.43
748.373	1783.78
748.557	1892.32
748.742	1771.49
748.927	1734.63
749.111	1828.84
749.296	1822.69
749.481	1755.11
749.665	1755.11
749.85	1714.15
750.034	1769.44
750.219	1728.49
750.404	1761.25
750.588	1705.96
750.773	1626.09
750.957	1718.25
751.141	1660.9
751.326	1515.5
751.51	1644.52
751.695	1507.31
751.879	1619.94
752.064	1581.03
752.248	1699.81
752.432	1597.42
752.617	1648.61
752.801	1558.5
752.985	1509.35
753.17	1570.79
753.354	1574.89
753.538	1605.61
753.722	1554.41
753.907	1570.79
754.091	1468.39
754.275	1472.49
754.459	1456.11
754.643	1454.06
754.828	1474.54
755.012	1535.98
755.196	1292.27
755.38	1425.39
755.564	1447.91
755.748	1327.08
755.932	1368.04
756.116	1341.42
756.3	1310.7
756.484	1300.46
756.668	1288.17
756.852	1357.8
757.036	1292.27
757.22	1277.93
757.404	1325.04
757.588	1333.23
757.772	1308.65
757.956	1292.27
758.14	1267.69
758.323	1245.16
758.507	1370.09
758.691	1300.46
758.875	1257.45
759.059	1253.36
759.242	1175.53
759.426	1245.16
759.61	1226.73
759.794	1202.16
759.977	1212.4
760.161	1318.89
760.345	1267.69
760.528	1239.02
760.712	1136.62
760.895	1271.79
761.079	1132.53
761.263	1130.48
761.446	1062.9
761.63	1079.28
761.813	1062.9
761.997	1110
762.18	1173.49
762.364	1177.58
762.547	1023.98
762.731	1054.7
762.914	1013.74
763.098	1064.94
763.281	1071.09
763.464	1030.13
763.648	1130.48
763.831	1069.04
764.015	1087.47
764.198	1081.33
764.381	1009.65
764.564	1069.04
764.748	1073.14
764.931	1046.51
765.114	1079.28
765.297	1095.66
765.481	1030.13
765.664	944.11
765.847	997.36
766.03	999.41
766.213	913.39
766.397	933.87
766.58	1064.94
766.763	1095.66
766.946	942.07
767.129	995.31
767.312	958.45
767.495	921.59
767.678	927.73
767.861	1001.46
768.044	819.19
768.227	858.1
768.41	974.83
768.593	837.62
768.776	927.73
768.959	989.17
769.142	907.25
769.324	929.78
769.507	864.24
769.69	917.49
769.873	925.68
770.056	948.21
770.239	899.06
770.421	909.3
770.604	944.11
770.787	819.19
770.97	825.33
771.152	907.25
771.335	882.67
771.518	849.91
771.7	786.42
771.883	931.83
772.066	915.44
772.248	882.67
772.431	903.15
772.613	792.56
772.796	806.9
772.978	776.18
773.161	866.29
773.343	866.29
773.526	800.76
773.708	753.65
773.891	737.27
774.073	798.71
774.256	735.22
774.438	872.43
774.621	878.58
774.803	796.66
774.985	776.18
775.168	833.52
775.35	854
775.532	755.7
775.715	798.71
775.897	739.32
776.079	767.99
776.261	710.65
776.444	714.74
776.626	698.36
776.808	661.49
776.99	661.49
777.173	641.01
777.355	767.99
777.537	702.45
777.719	700.41
777.901	655.35
778.083	718.84
778.265	595.96
778.447	690.17
778.629	706.55
778.811	735.22
778.993	673.78
779.175	679.93
779.357	655.35
779.539	720.88
779.721	677.88
779.903	679.93
780.085	628.73
780.267	690.17
780.449	690.17
780.631	681.97
780.812	555
780.994	624.63
781.176	598.01
781.358	524.28
781.54	536.57
781.721	624.63
781.903	598.01
782.085	565.24
782.267	534.52
782.448	583.67
782.63	587.77
782.812	643.06
782.993	636.92
783.175	626.68
783.357	485.37
783.538	645.11
783.72	507.9
783.901	571.38
784.083	630.77
784.264	598.01
784.446	507.9
784.627	530.42
784.809	487.42
784.99	473.08
785.172	538.62
785.353	477.18
785.535	571.38
785.716	538.62
785.897	436.22
786.079	434.17
786.26	505.85
786.441	479.22
786.623	468.98
786.804	458.75
786.985	481.27
787.167	477.18
787.348	407.55
787.529	522.23
787.71	477.18
787.891	477.18
788.073	378.87
788.254	417.79
788.435	399.35
788.616	514.04
788.797	401.4
788.978	460.79
789.159	468.98
789.34	417.79
789.522	475.13
789.703	409.59
789.884	411.64
790.065	458.75
790.246	450.55
790.427	376.83
790.607	442.36
790.788	436.22
790.969	399.35
791.15	325.63
791.331	432.12
791.512	401.4
791.693	333.82
791.874	391.16
792.054	327.67
792.235	378.87
792.416	348.15
792.597	399.35
792.778	356.35
792.958	391.16
793.139	444.41
793.32	284.67
793.5	391.16
793.681	448.51
793.862	317.44
794.042	358.39
794.223	292.86
794.404	296.96
794.584	276.48
794.765	321.53
794.945	237.56
795.126	342.01
795.306	405.5
795.487	327.67
795.667	272.38
795.848	311.29
796.028	323.58
796.209	358.39
796.389	335.87
796.57	342.01
796.75	313.34
796.93	286.72
797.111	329.72
797.291	309.24
797.471	333.82
797.652	337.91
797.832	212.99
798.012	307.2
798.192	292.86
798.373	284.67
798.553	215.04
798.733	358.39
798.913	292.86
799.093	210.94
799.274	327.67
799.454	276.48
799.634	286.72
799.814	284.67
799.994	276.48
800.174	299
800.354	288.76
800.534	178.17
800.714	229.37
800.894	317.44
801.074	219.13
801.254	237.56
801.434	292.86
801.614	262.14
801.794	215.04
801.974	1030.13
802.154	284.67
802.334	317.44
802.514	251.9
802.693	212.99
802.873	161.79
803.053	237.56
803.233	208.89
803.413	280.57
803.592	258.04
803.772	227.32
803.952	296.96
804.131	210.94
804.311	196.61
804.491	333.82
804.67	208.89
804.85	194.56
805.03	241.66
805.209	219.13
805.389	235.52
805.568	313.34
805.748	194.56
805.928	235.52
806.107	253.95
806.287	153.6
806.466	251.9
806.646	276.48
806.825	247.8
807.004	161.79
807.184	192.51
807.363	223.23
807.543	208.89
807.722	155.65
807.901	196.61
808.081	237.56
808.26	102.4
808.439	172.03
808.619	223.23
808.798	131.07
808.977	169.98
809.156	194.56
809.336	223.23
809.515	210.94
809.694	206.84
809.873	245.76
810.052	198.65
810.231	229.37
810.411	190.46
810.59	253.95
810.769	149.5
810.948	155.65
811.127	126.97
811.306	194.56
811.485	210.94
811.664	237.56
811.843	202.75
812.022	196.61
812.201	157.69
812.38	245.76
812.559	169.98
812.737	190.46
812.916	81.92
813.095	124.93
813.274	169.98
813.453	126.97
813.632	231.42
813.811	223.23
813.989	137.21
814.168	169.98
814.347	143.36
814.526	196.61
814.704	235.52
814.883	241.66
815.062	96.25
815.24	131.07
815.419	137.21
815.598	161.79
815.776	108.54
815.955	180.22
816.133	114.69
816.312	88.06
816.49	90.11
816.669	215.04
816.847	129.02
817.026	163.84
817.204	145.41
817.383	137.21
817.561	81.92
817.74	172.03
817.918	196.61
818.097	112.64
818.275	79.87
818.453	243.71
818.632	118.78
818.81	120.83
818.988	149.5
819.167	174.08
819.345	194.56
819.523	71.68
819.701	206.84
819.879	196.61
820.058	153.6
820.236	129.02
820.414	122.88
820.592	188.41
820.77	163.84
820.948	153.6
821.127	77.82
821.305	120.83
821.483	90.11
821.661	151.55
821.839	182.27
822.017	106.49
822.195	174.08
822.373	106.49
822.551	137.21
822.729	106.49
822.907	133.12
823.085	129.02
823.262	163.84
823.44	116.73
823.618	-18.43
823.796	104.45
823.974	102.4
824.152	141.31
824.329	161.79
824.507	112.64
824.685	129.02
824.863	96.25
825.04	77.82
825.218	163.84
825.396	131.07
825.574	108.54
825.751	165.89
825.929	88.06
826.107	65.54
826.284	120.83
826.462	165.89
826.639	122.88
826.817	79.87
826.994	149.5
827.172	18.43
827.349	114.69
827.527	79.87
827.704	145.41
827.882	147.45
828.059	88.06
828.237	65.54
828.414	129.02
828.591	-26.62
828.769	-2.05
828.946	30.72
829.124	227.32
829.301	169.98
829.478	65.54
829.655	104.45
829.833	167.93
830.01	59.39
830.187	180.22
830.364	88.06
830.542	161.79
830.719	65.54
830.896	122.88
831.073	83.97
831.25	118.78
831.427	63.49
831.604	120.83
831.782	75.77
831.959	73.73
832.136	75.77
832.313	112.64
832.49	51.2
832.667	40.96
832.844	28.67
833.021	8.19
833.198	71.68
833.374	81.92
833.551	92.16
833.728	57.34
833.905	169.98
834.082	124.93
834.259	98.3
834.436	98.3
834.612	100.35
834.789	124.93
834.966	116.73
835.143	114.69
835.319	75.77
835.496	90.11
835.673	38.91
835.85	157.69
836.026	90.11
836.203	139.26
836.38	63.49
836.556	38.91
836.733	43.01
836.909	53.25
837.086	22.53
837.262	63.49
837.439	6.14
837.616	104.45
837.792	12.29
837.968	98.3
838.145	10.24
838.321	26.62
838.498	79.87
838.674	55.3
838.851	71.68
839.027	114.69
839.203	18.43
839.38	57.34
839.556	49.15
839.732	90.11
839.909	36.86
840.085	96.25
840.261	71.68
840.437	36.86
840.614	112.64
840.79	92.16
840.966	-2.05
841.142	18.43
841.318	143.36
841.494	71.68
841.671	96.25
841.847	34.82
842.023	4.1
842.199	8.19
842.375	104.45
842.551	-22.53
842.727	8.19
842.903	79.87
843.079	8.19
843.255	92.16
843.431	71.68
843.607	43.01
843.783	40.96
843.959	73.73
844.134	75.77
844.31	40.96
844.486	10.24
844.662	-90.11
844.838	63.49
845.013	131.07
845.189	96.25
845.365	-12.29
845.541	28.67
845.716	102.4
845.892	67.58
846.068	67.58
846.244	53.25
846.419	71.68
846.595	10.24
846.77	116.73
846.946	153.6
847.122	49.15
847.297	22.53
847.473	133.12
847.648	-32.77
847.824	81.92
847.999	-8.19
848.175	108.54
848.35	43.01
848.526	98.3
848.701	114.69
848.876	26.62
849.052	40.96
849.227	61.44
849.403	18.43
849.578	26.62
849.753	104.45
849.929	14.34
850.104	12.29
850.279	106.49
850.454	40.96
850.63	71.68
850.805	40.96
850.98	63.49
851.155	86.01
851.33	-34.82
851.505	38.91
851.681	73.73
851.856	63.49
852.031	24.58
852.206	73.73
852.381	26.62
852.556	96.25
852.731	65.54
852.906	55.3
853.081	63.49
853.256	86.01
853.431	32.77
853.606	-63.49
853.781	38.91
853.956	16.38
854.131	55.3
854.305	-38.91
854.48	36.86
854.655	8.19
854.83	67.58
855.005	38.91
855.18	96.25
855.354	53.25
855.529	57.34
855.704	98.3
855.879	65.54
856.053	12.29
856.228	55.3
856.403	-14.34
856.577	14.34
856.752	14.34
856.926	90.11
857.101	55.3
857.276	24.58
857.45	-2.05
857.625	110.59
857.799	47.1
857.974	-34.82
858.148	-2.05
858.323	14.34
858.497	47.1
858.672	-20.48
858.846	47.1
859.02	53.25
859.195	0
859.369	73.73
859.543	22.53
859.718	67.58
859.892	0
860.066	36.86
860.241	-8.19
860.415	30.72
860.589	8.19
860.763	43.01
860.938	79.87
861.112	135.17
861.286	0
861.46	0
861.634	-18.43
861.808	40.96
861.982	28.67
862.157	14.34
862.331	14.34
862.505	6.14
862.679	-16.38
862.853	51.2
863.027	24.58
863.201	129.02
863.375	-51.2
863.549	-16.38
863.722	47.1
863.896	71.68
864.07	14.34
864.244	40.96
864.418	49.15
864.592	-38.91
864.766	24.58
864.939	14.34
865.113	40.96
865.287	-67.58
865.461	20.48
865.634	55.3
865.808	8.19
865.982	-55.3
866.156	-47.1
866.329	-18.43
866.503	6.14
866.676	75.77
866.85	32.77
867.024	55.3
867.197	30.72
867.371	-18.43
867.544	47.1
867.718	14.34
867.891	-40.96
868.065	-20.48
868.238	53.25
868.412	188.41
868.585	38.91
868.759	38.91
868.932	-18.43
869.105	47.1
869.279	26.62
869.452	-12.29
869.625	30.72
869.799	77.82
869.972	22.53
870.145	49.15
870.319	30.72
870.492	-57.34
870.665	38.91
870.838	16.38
871.011	8.19
871.185	22.53
871.358	8.19
871.531	-30.72
871.704	10.24
871.877	14.34
872.05	26.62
872.223	59.39
872.396	88.06
872.569	57.34
872.742	-65.54
872.915	57.34
873.088	10.24
873.261	8.19
873.434	24.58
873.607	47.1
873.78	30.72
873.953	18.43
874.126	63.49
874.299	-6.14
874.471	14.34
874.644	-6.14
874.817	32.77
874.99	133.12
875.163	47.1
875.335	-16.38
875.508	14.34
875.681	75.77
875.853	-67.58
876.026	75.77
876.199	24.58
876.371	32.77
876.544	96.25
876.717	22.53
876.889	-38.91
877.062	104.45
877.234	-75.77
877.407	-10.24
877.579	57.34
877.752	47.1
877.924	63.49
878.097	-24.58
878.269	-43.01
878.442	-43.01
878.614	0
878.786	30.72
878.959	-24.58
879.131	-38.91
879.303	-47.1
879.476	49.15
879.648	104.45
879.82	24.58
879.993	-4.1
880.165	-26.62
880.337	-30.72
880.509	10.24
880.681	-6.14
880.854	22.53
881.026	61.44
881.198	69.63
881.37	47.1
881.542	-2.05
881.714	28.67
881.886	-51.2
882.058	-8.19
882.23	32.77
882.402	43.01
882.574	6.14
882.746	67.58
882.918	124.93
883.09	8.19
883.262	-10.24
883.434	14.34
883.606	16.38
883.778	38.91
883.95	112.64
884.122	24.58
884.293	47.1
884.465	24.58
884.637	47.1
884.809	8.19
884.98	-12.29
885.152	61.44
885.324	6.14
885.496	-51.2
885.667	-14.34
885.839	12.29
886.011	26.62
886.182	-16.38
886.354	102.4
886.525	59.39
886.697	-2.05
886.869	8.19
887.04	22.53
887.212	49.15
887.383	14.34
887.555	104.45
887.726	40.96
887.897	-40.96
888.069	47.1
888.24	26.62
888.412	0
888.583	26.62
888.754	-10.24
888.926	63.49
889.097	20.48
889.268	24.58
889.44	-30.72
889.611	-6.14
889.782	-55.3
889.953	2.05
890.125	30.72
890.296	-26.62
890.467	40.96
890.638	49.15
890.809	30.72
890.98	-2.05
891.151	-36.86
891.323	24.58
891.494	63.49
891.665	-24.58
891.836	28.67
892.007	55.3
892.178	-16.38
892.349	94.21
892.52	-53.25
892.691	2.05
892.862	-34.82
893.032	-79.87
893.203	14.34
893.374	-22.53
893.545	30.72
893.716	18.43
893.887	65.54
894.057	26.62
894.228	-43.01
894.399	59.39
894.57	40.96
894.74	-18.43
894.911	-18.43
895.082	49.15
895.253	8.19
895.423	-16.38
895.594	90.11
895.764	-16.38
895.935	24.58
896.106	8.19
896.276	-36.86
896.447	-14.34
896.617	-51.2
896.788	18.43
896.958	47.1
897.129	-57.34
897.299	47.1
897.47	47.1
897.64	75.77
897.81	69.63
897.981	14.34
898.151	32.77
898.322	2.05
898.492	-22.53
898.662	-2.05
898.832	-16.38
899.003	43.01
899.173	-10.24
899.343	-32.77
899.513	20.48
