Data from USB4F104151__29__14-29-02-949.txt Node

Date: Thu Mar 13 14:29:02 EDT 2025
User: louis
Spectrometer: USB4F10415
Trigger mode: 4
Integration Time (sec): 2.500000E-2
Scans to average: 1
Electric dark correction enabled: true
Nonlinearity correction enabled: false
Boxcar width: 0
XAxis mode: Wavelengths
Number of Pixels in Spectrum: 3648
>>>>>Begin Spectral Data<<<<<
178.204	-149.33
178.424	-149.33
178.644	-149.33
178.864	-161.62
179.084	-173.91
179.304	-24.4
179.524	41.13
179.744	34.99
179.964	47.27
180.184	32.94
180.404	6.31
180.624	0.17
180.844	-40.79
181.064	34.99
181.283	-38.74
181.503	-53.08
181.723	-40.79
181.943	-81.75
182.163	73.9
182.383	24.75
182.602	34.99
182.822	73.9
183.042	8.36
183.262	55.47
183.482	-30.55
183.701	-14.17
183.921	0.17
184.141	-18.26
184.361	84.14
184.58	135.34
184.8	-48.98
185.02	20.65
185.239	6.31
185.459	-10.07
185.679	63.66
185.898	-55.12
186.118	98.47
186.338	6.31
186.557	59.56
186.777	26.79
186.997	14.51
187.216	121
187.436	61.61
187.655	14.51
187.875	82.09
188.095	-8.02
188.314	92.33
188.534	-38.74
188.753	-10.07
188.973	-14.17
189.192	30.89
189.412	22.7
189.631	63.66
189.851	98.47
190.07	10.41
190.29	-77.65
190.509	0.17
190.729	-114.52
190.948	51.37
191.168	80.04
191.387	-10.07
191.607	-81.75
191.826	-24.4
192.045	22.7
192.265	-67.41
192.484	-14.17
192.704	-24.4
192.923	-14.17
193.142	121
193.362	39.08
193.581	4.27
193.8	96.43
194.02	-38.74
194.239	-59.22
194.458	-16.21
194.678	22.7
194.897	18.6
195.116	114.86
195.335	39.08
195.555	-26.45
195.774	30.89
195.993	69.8
196.212	-1.88
196.432	-24.4
196.651	10.41
196.87	-32.6
197.089	129.19
197.308	30.89
197.528	-18.26
197.747	-34.64
197.966	88.23
198.185	96.43
198.404	-1.88
198.623	26.79
198.842	-8.02
199.062	106.67
199.281	45.23
199.5	-26.45
199.719	37.03
199.938	18.6
200.157	2.22
200.376	14.51
200.595	170.15
200.814	-5.97
201.033	-16.21
201.252	22.7
201.471	116.9
201.69	55.47
201.909	30.89
202.128	-34.64
202.347	18.6
202.566	22.7
202.785	-34.64
203.004	32.94
203.223	63.66
203.442	55.47
203.661	8.36
203.879	59.56
204.098	-10.07
204.317	51.37
204.536	30.89
204.755	30.89
204.974	-30.55
205.193	112.81
205.411	69.8
205.63	26.79
205.849	-83.8
206.068	-18.26
206.287	2.22
206.505	-1.88
206.724	63.66
206.943	71.85
207.162	-16.21
207.381	22.7
207.599	41.13
207.818	65.71
208.037	30.89
208.255	51.37
208.474	-8.02
208.693	43.18
208.911	14.51
209.13	22.7
209.349	90.28
209.567	-3.93
209.786	65.71
210.005	16.55
210.223	-16.21
210.442	-32.6
210.661	26.79
210.879	28.84
211.098	32.94
211.316	6.31
211.535	0.17
211.753	14.51
211.972	26.79
212.191	39.08
212.409	24.75
212.628	6.31
212.846	4.27
213.065	30.89
213.283	8.36
213.502	88.23
213.72	6.31
213.938	39.08
214.157	4.27
214.375	82.09
214.594	-26.45
214.812	57.51
215.031	-5.97
215.249	22.7
215.467	94.38
215.686	39.08
215.904	100.52
216.122	-14.17
216.341	-24.4
216.559	32.94
216.778	43.18
216.996	37.03
217.214	-28.5
217.432	-30.55
217.651	-34.64
217.869	4.27
218.087	-20.31
218.306	63.66
218.524	6.31
218.742	2.22
218.96	80.04
219.179	-10.07
219.397	55.47
219.615	16.55
219.833	96.43
220.051	-8.02
220.27	63.66
220.488	51.37
220.706	-5.97
220.924	-1.88
221.142	43.18
221.36	22.7
221.578	22.7
221.796	45.23
222.015	26.79
222.233	121
222.451	34.99
222.669	47.27
222.887	98.47
223.105	-28.5
223.323	-51.03
223.541	-18.26
223.759	-42.84
223.977	-5.97
224.195	34.99
224.413	30.89
224.631	18.6
224.849	6.31
225.067	57.51
225.285	-14.17
225.503	32.94
225.721	-10.07
225.939	-22.36
226.157	0.17
226.375	106.67
226.592	-48.98
226.81	10.41
227.028	41.13
227.246	80.04
227.464	-1.88
227.682	55.47
227.9	-18.26
228.117	2.22
228.335	-10.07
228.553	34.99
228.771	65.71
228.989	-1.88
229.206	43.18
229.424	24.75
229.642	82.09
229.86	73.9
230.077	67.75
230.295	0.17
230.513	14.51
230.731	32.94
230.948	59.56
231.166	88.23
231.384	-57.17
231.601	22.7
231.819	69.8
232.037	10.41
232.254	0.17
232.472	22.7
232.689	-8.02
232.907	24.75
233.125	-53.08
233.342	49.32
233.56	4.27
233.777	-18.26
233.995	0.17
234.213	14.51
234.43	39.08
234.648	-1.88
234.865	-22.36
235.083	-18.26
235.3	34.99
235.518	47.27
235.735	139.43
235.953	82.09
236.17	39.08
236.388	41.13
236.605	-12.12
236.822	41.13
237.04	34.99
237.257	104.62
237.475	63.66
237.692	0.17
237.909	96.43
238.127	22.7
238.344	39.08
238.562	34.99
238.779	37.03
238.996	24.75
239.214	30.89
239.431	39.08
239.648	0.17
239.865	63.66
240.083	18.6
240.3	-18.26
240.517	26.79
240.735	-16.21
240.952	110.76
241.169	6.31
241.386	30.89
241.603	18.6
241.821	10.41
242.038	84.14
242.255	-32.6
242.472	28.84
242.689	22.7
242.907	106.67
243.124	86.19
243.341	47.27
243.558	49.32
243.775	-32.6
243.992	-32.6
244.209	34.99
244.426	114.86
244.643	55.47
244.86	112.81
245.078	-5.97
245.295	-40.79
245.512	57.51
245.729	47.27
245.946	8.36
246.163	71.85
246.38	22.7
246.597	-30.55
246.814	59.56
247.031	39.08
247.248	0.17
247.464	14.51
247.681	41.13
247.898	12.46
248.115	6.31
248.332	8.36
248.549	39.08
248.766	45.23
248.983	-32.6
249.2	-22.36
249.417	6.31
249.633	16.55
249.85	22.7
250.067	30.89
250.284	-10.07
250.501	30.89
250.717	-42.84
250.934	-1.88
251.151	-24.4
251.368	-8.02
251.585	67.75
251.801	2.22
252.018	6.31
252.235	63.66
252.451	-24.4
252.668	2.22
252.885	-10.07
253.102	8.36
253.318	26.79
253.535	-18.26
253.752	20.65
253.968	-79.7
254.185	-34.64
254.401	82.09
254.618	80.04
254.835	-1.88
255.051	82.09
255.268	30.89
255.484	88.23
255.701	-10.07
255.917	73.9
256.134	30.89
256.351	-1.88
256.567	22.7
256.784	-18.26
257	34.99
257.217	6.31
257.433	94.38
257.65	57.51
257.866	43.18
258.082	-42.84
258.299	-34.64
258.515	65.71
258.732	-1.88
258.948	30.89
259.165	49.32
259.381	47.27
259.597	-42.84
259.814	-14.17
260.03	-36.69
260.246	53.42
260.463	84.14
260.679	71.85
260.895	77.99
261.112	28.84
261.328	39.08
261.544	55.47
261.761	80.04
261.977	47.27
262.193	-1.88
262.409	14.51
262.626	26.79
262.842	30.89
263.058	-30.55
263.274	-1.88
263.49	16.55
263.707	51.37
263.923	84.14
264.139	30.89
264.355	34.99
264.571	71.85
264.787	18.6
265.004	73.9
265.22	47.27
265.436	77.99
265.652	55.47
265.868	-10.07
266.084	-20.31
266.3	6.31
266.516	-44.88
266.732	39.08
266.948	-46.93
267.164	55.47
267.38	-1.88
267.596	92.33
267.812	53.42
268.028	32.94
268.244	-1.88
268.46	6.31
268.676	-1.88
268.892	2.22
269.108	69.8
269.324	-28.5
269.54	-42.84
269.756	-1.88
269.972	-30.55
270.188	-1.88
270.403	-34.64
270.619	47.27
270.835	43.18
271.051	-42.84
271.267	61.61
271.483	57.51
271.698	57.51
271.914	145.58
272.13	71.85
272.346	32.94
272.562	-10.07
272.777	77.99
272.993	34.99
273.209	112.81
273.425	26.79
273.64	-59.22
273.856	10.41
274.072	-5.97
274.287	-1.88
274.503	-14.17
274.719	32.94
274.934	-53.08
275.15	-1.88
275.366	8.36
275.581	30.89
275.797	14.51
276.012	-16.21
276.228	82.09
276.444	10.41
276.659	34.99
276.875	84.14
277.09	-3.93
277.306	-48.98
277.521	80.04
277.737	-46.93
277.952	41.13
278.168	43.18
278.383	47.27
278.599	55.47
278.814	63.66
279.03	22.7
279.245	82.09
279.461	6.31
279.676	114.86
279.892	-8.02
280.107	-8.02
280.322	14.51
280.538	-1.88
280.753	37.03
280.969	41.13
281.184	-40.79
281.399	73.9
281.615	-5.97
281.83	22.7
282.045	-32.6
282.26	39.08
282.476	55.47
282.691	57.51
282.906	-8.02
283.122	100.52
283.337	-5.97
283.552	6.31
283.767	47.27
283.983	22.7
284.198	47.27
284.413	-18.26
284.628	10.41
284.843	92.33
285.058	129.19
285.274	-42.84
285.489	-42.84
285.704	102.57
285.919	-40.79
286.134	80.04
286.349	32.94
286.564	10.41
286.779	94.38
286.995	63.66
287.21	-63.32
287.425	6.31
287.64	8.36
287.855	-12.12
288.07	26.79
288.285	92.33
288.5	34.99
288.715	39.08
288.93	-34.64
289.145	-26.45
289.36	47.27
289.575	2.22
289.79	43.18
290.004	59.56
290.219	47.27
290.434	-8.02
290.649	14.51
290.864	-32.6
291.079	24.75
291.294	12.46
291.509	55.47
291.724	2.22
291.938	51.37
292.153	57.51
292.368	37.03
292.583	8.36
292.798	63.66
293.012	112.81
293.227	32.94
293.442	55.47
293.657	16.55
293.871	16.55
294.086	20.65
294.301	41.13
294.516	-14.17
294.73	18.6
294.945	-34.64
295.16	55.47
295.374	129.19
295.589	125.1
295.804	-32.6
296.018	12.46
296.233	73.9
296.447	75.95
296.662	39.08
296.877	8.36
297.091	88.23
297.306	-1.88
297.52	-36.69
297.735	71.85
297.949	30.89
298.164	96.43
298.378	90.28
298.593	32.94
298.807	2.22
299.022	24.75
299.236	30.89
299.451	-8.02
299.665	10.41
299.88	18.6
300.094	22.7
300.309	22.7
300.523	-38.74
300.737	-14.17
300.952	14.51
301.166	32.94
301.381	-73.56
301.595	49.32
301.809	-14.17
302.024	32.94
302.238	-46.93
302.452	88.23
302.667	18.6
302.881	149.67
303.095	100.52
303.309	24.75
303.524	-38.74
303.738	-22.36
303.952	-30.55
304.166	18.6
304.381	12.46
304.595	41.13
304.809	-55.12
305.023	32.94
305.237	129.19
305.452	-1.88
305.666	-1.88
305.88	18.6
306.094	57.51
306.308	24.75
306.522	63.66
306.736	2.22
306.95	18.6
307.164	73.9
307.379	-22.36
307.593	20.65
307.807	63.66
308.021	-5.97
308.235	84.14
308.449	-34.64
308.663	-94.04
308.877	92.33
309.091	30.89
309.305	30.89
309.519	34.99
309.733	43.18
309.947	6.31
310.161	14.51
310.374	-30.55
310.588	67.75
310.802	-10.07
311.016	-53.08
311.23	63.66
311.444	47.27
311.658	-16.21
311.872	39.08
312.085	-1.88
312.299	100.52
312.513	-26.45
312.727	18.6
312.941	-61.27
313.154	6.31
313.368	-10.07
313.582	-14.17
313.796	80.04
314.009	57.51
314.223	121
314.437	32.94
314.651	0.17
314.864	47.27
315.078	59.56
315.292	-79.7
315.505	-22.36
315.719	65.71
315.933	14.51
316.146	30.89
316.36	10.41
316.573	37.03
316.787	30.89
317.001	80.04
317.214	10.41
317.428	129.19
317.641	-8.02
317.855	30.89
318.068	43.18
318.282	57.51
318.495	96.43
318.709	121
318.922	-1.88
319.136	59.56
319.349	18.6
319.563	47.27
319.776	51.37
319.99	22.7
320.203	6.31
320.417	55.47
320.63	39.08
320.843	73.9
321.057	82.09
321.27	-8.02
321.483	24.75
321.697	139.43
321.91	12.46
322.124	71.85
322.337	4.27
322.55	30.89
322.763	18.6
322.977	63.66
323.19	-22.36
323.403	57.51
323.617	43.18
323.83	73.9
324.043	69.8
324.256	30.89
324.469	10.41
324.683	55.47
324.896	-5.97
325.109	24.75
325.322	47.27
325.535	16.55
325.748	16.55
325.962	82.09
326.175	51.37
326.388	80.04
326.601	-44.88
326.814	114.86
327.027	71.85
327.24	151.72
327.453	-24.4
327.666	82.09
327.879	-42.84
328.092	47.27
328.305	59.56
328.518	71.85
328.731	-40.79
328.944	-55.12
329.157	-5.97
329.37	-5.97
329.583	104.62
329.796	104.62
330.009	26.79
330.222	28.84
330.435	92.33
330.648	43.18
330.861	55.47
331.073	65.71
331.286	34.99
331.499	6.31
331.712	28.84
331.925	63.66
332.138	75.95
332.35	63.66
332.563	-59.22
332.776	45.23
332.989	-14.17
333.202	-8.02
333.414	57.51
333.627	6.31
333.84	16.55
334.053	26.79
334.265	4.27
334.478	39.08
334.691	18.6
334.903	88.23
335.116	14.51
335.329	18.6
335.541	49.32
335.754	24.75
335.966	-32.6
336.179	30.89
336.392	26.79
336.604	24.75
336.817	39.08
337.029	51.37
337.242	112.81
337.454	98.47
337.667	34.99
337.88	71.85
338.092	28.84
338.305	-38.74
338.517	18.6
338.729	65.71
338.942	98.47
339.154	-22.36
339.367	57.51
339.579	53.42
339.792	-24.4
340.004	92.33
340.217	53.42
340.429	-1.88
340.641	8.36
340.854	-26.45
341.066	-22.36
341.278	80.04
341.491	65.71
341.703	18.6
341.915	49.32
342.128	51.37
342.34	82.09
342.552	41.13
342.764	45.23
342.977	14.51
343.189	-32.6
343.401	51.37
343.613	-20.31
343.826	8.36
344.038	-22.36
344.25	53.42
344.462	39.08
344.674	47.27
344.886	-18.26
345.099	100.52
345.311	28.84
345.523	6.31
345.735	20.65
345.947	-10.07
346.159	-14.17
346.371	-3.93
346.583	47.27
346.795	112.81
347.007	14.51
347.219	55.47
347.431	18.6
347.643	110.76
347.855	-32.6
348.067	34.99
348.279	-69.46
348.491	63.66
348.703	90.28
348.915	51.37
349.127	-75.6
349.339	30.89
349.551	10.41
349.763	-34.64
349.975	-40.79
350.187	112.81
350.399	41.13
350.61	-24.4
350.822	88.23
351.034	32.94
351.246	14.51
351.458	59.56
351.669	129.19
351.881	82.09
352.093	88.23
352.305	59.56
352.517	34.99
352.728	39.08
352.94	37.03
353.152	41.13
353.363	-79.7
353.575	39.08
353.787	39.08
353.999	41.13
354.21	30.89
354.422	30.89
354.633	32.94
354.845	0.17
355.057	6.31
355.268	75.95
355.48	71.85
355.692	16.55
355.903	0.17
356.115	57.51
356.326	22.7
356.538	104.62
356.749	55.47
356.961	63.66
357.172	129.19
357.384	88.23
357.595	80.04
357.807	47.27
358.018	65.71
358.23	22.7
358.441	80.04
358.653	96.43
358.864	-5.97
359.075	30.89
359.287	47.27
359.498	10.41
359.709	-3.93
359.921	39.08
360.132	114.86
360.344	67.75
360.555	55.47
360.766	90.28
360.977	-34.64
361.189	88.23
361.4	39.08
361.611	92.33
361.823	63.66
362.034	14.51
362.245	-26.45
362.456	67.75
362.667	32.94
362.879	39.08
363.09	55.47
363.301	139.43
363.512	18.6
363.723	51.37
363.935	-40.79
364.146	98.47
364.357	100.52
364.568	57.51
364.779	8.36
364.99	108.71
365.201	-10.07
365.412	47.27
365.623	-1.88
365.834	14.51
366.045	-22.36
366.256	123.05
366.467	55.47
366.678	37.03
366.889	45.23
367.1	32.94
367.311	88.23
367.522	-5.97
367.733	47.27
367.944	71.85
368.155	6.31
368.366	73.9
368.577	88.23
368.788	82.09
368.999	-5.97
369.209	98.47
369.42	143.53
369.631	80.04
369.842	41.13
370.053	6.31
370.264	96.43
370.474	39.08
370.685	32.94
370.896	41.13
371.107	63.66
371.317	-18.26
371.528	6.31
371.739	63.66
371.95	30.89
372.16	94.38
372.371	20.65
372.582	-1.88
372.792	22.7
373.003	88.23
373.214	80.04
373.424	57.51
373.635	-75.6
373.846	18.6
374.056	-10.07
374.267	4.27
374.477	16.55
374.688	-8.02
374.898	96.43
375.109	114.86
375.319	57.51
375.53	131.24
375.74	45.23
375.951	26.79
376.161	8.36
376.372	129.19
376.582	-1.88
376.793	14.51
377.003	-22.36
377.214	14.51
377.424	39.08
377.635	-8.02
377.845	75.95
378.055	61.61
378.266	-18.26
378.476	69.8
378.686	69.8
378.897	98.47
379.107	53.42
379.317	98.47
379.528	-1.88
379.738	100.52
379.948	73.9
380.158	55.47
380.369	47.27
380.579	96.43
380.789	84.14
380.999	137.38
381.21	26.79
381.42	131.24
381.63	63.66
381.84	-5.97
382.05	71.85
382.261	6.31
382.471	67.75
382.681	41.13
382.891	69.8
383.101	18.6
383.311	108.71
383.521	30.89
383.731	137.38
383.941	75.95
384.151	82.09
384.361	65.71
384.571	30.89
384.781	-1.88
384.991	57.51
385.201	139.43
385.411	84.14
385.621	127.14
385.831	47.27
386.041	41.13
386.251	65.71
386.461	108.71
386.671	-22.36
386.881	39.08
387.091	80.04
387.301	55.47
387.511	39.08
387.72	149.67
387.93	30.89
388.14	80.04
388.35	121
388.56	41.13
388.769	63.66
388.979	96.43
389.189	75.95
389.399	170.15
389.609	30.89
389.818	12.46
390.028	104.62
390.238	125.1
390.447	80.04
390.657	90.28
390.867	6.31
391.076	96.43
391.286	-75.6
391.496	155.82
391.705	67.75
391.915	55.47
392.125	53.42
392.334	84.14
392.544	47.27
392.753	30.89
392.963	-22.36
393.172	123.05
393.382	57.51
393.591	106.67
393.801	92.33
394.01	153.77
394.22	145.58
394.429	16.55
394.639	90.28
394.848	123.05
395.058	73.9
395.267	90.28
395.477	125.1
395.686	112.81
395.895	75.95
396.105	182.44
396.314	127.14
396.524	104.62
396.733	14.51
396.942	141.48
397.152	121
397.361	174.25
397.57	166.06
397.78	80.04
397.989	100.52
398.198	178.34
398.407	102.57
398.617	106.67
398.826	153.77
399.035	59.56
399.244	118.95
399.453	106.67
399.663	106.67
399.872	131.24
400.081	28.84
400.29	188.58
400.499	73.9
400.708	172.2
400.917	127.14
401.127	63.66
401.336	129.19
401.545	137.38
401.754	123.05
401.963	55.47
402.172	139.43
402.381	100.52
402.59	141.48
402.799	129.19
403.008	217.26
403.217	106.67
403.426	188.58
403.635	137.38
403.844	229.54
404.053	200.87
404.262	75.95
404.471	284.84
404.68	121
404.888	166.06
405.097	129.19
405.306	219.3
405.515	202.92
405.724	202.92
405.933	198.82
406.142	186.54
406.35	237.74
406.559	245.93
406.768	211.11
406.977	307.37
407.185	229.54
407.394	311.46
407.603	182.44
407.812	284.84
408.02	290.98
408.229	280.74
408.438	301.22
408.646	254.12
408.855	325.8
409.064	284.84
409.272	237.74
409.481	321.7
409.69	295.08
409.898	338.09
410.107	321.7
410.315	420
410.524	317.61
410.733	442.53
410.941	397.48
411.15	452.77
411.358	452.77
411.567	506.02
411.775	440.48
411.984	557.22
412.192	524.45
412.401	477.35
412.609	530.59
412.818	608.42
413.026	563.36
413.234	581.79
413.443	596.13
413.651	632.99
413.86	743.58
414.068	719.01
414.276	719.01
414.485	813.21
414.693	776.35
414.901	827.55
415.11	860.32
415.318	827.55
415.526	932
415.734	921.76
415.943	991.39
416.151	1001.63
416.359	993.44
416.567	1071.26
416.776	1030.3
416.984	1198.23
417.192	1179.8
417.4	1165.46
417.608	1210.52
417.817	1247.38
418.025	1251.48
418.233	1419.41
418.441	1321.11
418.649	1341.59
418.857	1607.83
419.065	1517.72
419.273	1616.02
419.481	1652.88
419.689	1771.66
419.897	1742.99
420.105	1943.69
420.313	1824.91
420.521	1974.41
420.729	1927.31
420.937	1980.56
421.145	2156.68
421.353	2261.13
421.561	2390.15
421.769	2406.53
421.977	2597
422.185	2508.93
422.393	2547.84
422.601	2771.07
422.809	2717.83
423.017	2900.09
423.224	2857.09
423.432	2932.86
423.64	3221.63
423.848	3360.89
424.056	3184.76
424.263	3457.14
424.471	3553.4
424.679	3618.93
424.887	3700.85
425.094	3819.63
425.302	3872.88
425.51	4022.38
425.718	4204.65
425.925	4212.84
426.133	4382.82
426.341	4429.93
426.548	4827.23
426.756	4790.37
426.964	4909.15
427.171	5109.85
427.379	5156.96
427.586	5337.18
427.794	5488.73
428.001	5666.9
428.209	5988.43
428.417	5765.2
428.624	6334.54
428.832	6375.5
429.039	6170.7
429.247	6387.79
429.454	6731.84
429.662	7370.81
429.869	6838.34
430.076	7231.55
430.284	6996.03
430.491	7485.5
430.699	7929.91
430.906	7923.76
431.114	7854.13
431.321	8345.64
431.528	8503.34
431.736	8853.54
431.943	9445.4
432.15	9127.97
432.358	9033.76
432.565	9521.18
432.772	9822.23
432.979	10178.58
433.187	10221.58
433.394	10403.85
433.601	11112.45
433.808	10934.28
434.016	11018.24
434.223	11243.52
434.43	12206.06
434.637	11890.68
434.844	12584.94
435.052	12939.24
435.259	12771.3
435.466	12851.17
435.673	12799.98
435.88	13789.14
436.087	14333.9
436.294	14258.13
436.501	13959.13
436.708	14114.77
436.915	14817.22
437.122	15388.61
437.329	15218.63
437.537	15839.16
437.743	16082.87
437.95	15974.33
438.157	16852.91
438.364	17199.01
438.571	17323.94
438.778	17493.92
438.985	18958.22
439.192	18335.63
439.399	18821
439.606	18339.73
439.813	19419.01
440.02	20686.7
440.227	20000.63
440.433	20164.47
440.64	20666.22
440.847	20492.15
441.054	20764.53
441.261	22302.55
441.467	21964.64
441.674	22308.69
441.881	23582.53
442.088	23093.07
442.294	22814.54
442.501	23441.22
442.708	24088.38
442.914	24962.86
443.121	26050.33
443.328	25444.13
443.534	27197.2
443.741	26603.28
443.948	26001.18
444.154	28126.97
444.361	27490.06
444.568	28155.65
444.774	27686.66
444.981	28434.17
445.187	29040.37
445.394	29943.52
445.6	30101.22
445.807	32855.73
446.013	31250.13
446.22	31952.58
446.426	33425.07
446.633	33732.26
446.839	34645.66
447.046	33322.67
447.252	35102.36
447.459	34999.96
447.665	34432.67
447.871	36771.45
448.078	37797.48
448.284	36191.87
448.491	37090.93
448.697	38549.09
448.903	39370.32
449.11	39681.61
449.316	39167.57
449.522	39652.94
449.728	40296
449.935	40375.87
450.141	41322.04
450.347	41430.58
450.553	40394.31
450.76	41229.88
450.966	41975.34
451.172	41952.81
451.378	42884.64
451.584	41694.77
451.791	43001.37
451.997	42780.19
452.203	43779.6
452.409	43869.71
452.615	43621.91
452.821	41729.58
453.027	41401.91
453.233	43599.38
453.44	42004.01
453.646	42399.27
453.852	42882.59
454.058	43044.38
454.264	41985.58
454.47	42673.7
454.676	41872.94
454.882	42786.33
455.088	39407.19
455.294	40422.98
455.5	40871.48
455.705	41487.92
455.911	39597.65
456.117	38655.58
456.323	38291.04
456.529	36740.73
456.735	38073.96
456.941	36679.29
457.147	36030.08
457.352	35219.09
457.558	34954.9
457.764	35118.74
457.97	34428.57
458.176	33496.75
458.381	33607.34
458.587	31882.95
458.793	31854.28
458.999	30355.16
459.204	32337.6
459.41	31409.87
459.616	29124.33
459.821	29595.37
460.027	29069.04
460.233	28946.16
460.438	27383.56
460.644	27606.79
460.85	26179.36
461.055	26017.57
461.261	25675.55
461.466	24076.09
461.672	23525.19
461.878	24719.15
462.083	23390.02
462.289	22706
462.494	22593.36
462.7	21509.99
462.905	20834.16
463.111	21981.02
463.316	21802.85
463.522	21069.67
463.727	21215.08
463.932	21233.51
464.138	20975.47
464.343	21088.1
464.549	20238.2
464.754	21135.21
464.959	20838.25
465.165	20645.74
465.37	19967.87
465.575	19580.8
465.781	20191.09
465.986	20354.93
466.191	19629.95
466.397	19216.26
466.602	18433.94
466.807	18747.28
467.012	19025.8
467.218	18818.96
467.423	18599.82
467.628	18591.63
467.833	19513.22
468.038	18603.92
468.244	18200.47
468.449	19001.22
468.654	18378.64
468.859	18104.21
469.064	18093.97
469.269	16986.02
469.474	17307.55
469.679	17981.34
469.885	17123.24
470.09	17375.14
470.295	17176.48
470.5	16959.4
470.705	17170.34
470.91	16781.23
471.115	16603.05
471.32	16826.28
471.525	16541.61
471.73	16328.63
471.935	16052.15
472.139	15695.8
472.344	15738.81
472.549	15437.76
472.754	15548.35
472.959	15278.02
473.164	14876.62
473.369	14677.96
473.574	15310.79
473.778	15022.02
473.983	15046.6
474.188	14929.86
474.393	14170.07
474.598	14370.77
474.802	13977.56
475.007	13965.27
475.212	14022.61
475.417	13727.71
475.621	13391.84
475.826	13520.86
476.031	13367.26
476.235	13221.86
476.44	13197.28
476.645	13023.2
476.849	12926.95
477.054	12861.41
477.259	12675.05
477.463	12629.99
477.668	12408.81
477.872	12466.16
478.077	12263.41
478.282	11868.15
478.486	11831.29
478.691	11972.6
478.895	11900.92
479.1	11665.4
479.304	11728.89
479.509	11278.33
479.713	11786.23
479.918	11225.09
480.122	11046.91
480.326	11216.9
480.531	11200.51
480.735	11073.54
480.94	10942.47
481.144	11415.55
481.348	10866.69
481.553	10948.61
481.757	10866.69
481.961	11184.13
482.166	11032.58
482.37	11110.4
482.574	10866.69
482.778	11114.5
482.983	11067.39
483.187	10860.55
483.391	10932.23
483.595	10643.46
483.8	10711.05
484.004	10878.98
484.208	10975.24
484.412	10778.63
484.616	10799.11
484.821	10811.4
485.025	10858.5
485.229	10883.08
485.433	10549.26
485.637	10616.84
485.841	10725.38
486.045	10709
486.249	10659.85
486.453	10831.88
486.657	10764.29
486.861	10743.81
487.065	10504.2
487.269	10807.3
487.473	10541.07
487.677	10625.03
487.881	10711.05
488.085	10704.9
488.289	10909.7
488.493	10614.79
488.697	10766.34
488.901	10768.39
489.105	10786.82
489.309	10760.2
489.512	10747.91
489.716	10911.75
489.92	10758.15
490.124	10878.98
490.328	10893.32
490.531	10983.43
490.735	10852.36
490.939	11126.78
491.143	11046.91
491.346	11040.77
491.55	11313.15
491.754	11184.13
491.958	11245.57
492.161	11216.9
492.365	11380.73
492.569	11393.02
492.772	11132.93
492.976	11173.89
493.18	11452.41
493.383	11380.73
493.587	11485.18
493.79	11669.5
493.994	11331.58
494.197	11585.53
494.401	11556.86
494.605	11763.7
494.808	11796.47
495.012	11909.11
495.215	12062.71
495.419	12060.66
495.622	12195.82
495.825	12169.2
496.029	12118
496.232	12476.4
496.436	12271.6
496.639	12609.51
496.843	12603.37
497.046	12775.4
497.249	12738.54
497.453	12998.63
497.656	12959.72
497.859	13164.51
498.063	13285.34
498.266	13631.45
498.469	13551.58
498.673	13666.27
498.876	13842.39
499.079	14077.91
499.282	13752.28
499.485	14186.45
499.689	14116.82
499.892	14512.08
500.095	14456.78
500.298	14884.81
500.501	14585.8
500.705	15417.28
500.908	15245.25
501.111	15333.31
501.314	15509.44
501.517	15818.68
501.72	15890.36
501.923	15894.46
502.126	16332.72
502.329	16426.93
502.532	16584.62
502.735	16519.09
502.938	17086.37
503.141	17110.95
503.344	17121.19
503.547	16953.26
503.75	17414.05
503.953	17813.4
504.156	17883.03
504.359	18114.45
504.562	17842.07
504.765	18489.23
504.968	18470.8
505.17	18933.64
505.373	18964.36
505.576	19355.52
505.779	19238.79
505.982	19470.21
506.185	19910.52
506.387	19922.81
506.59	20109.18
506.793	20350.84
506.996	20414.32
507.198	20922.22
507.401	20758.38
507.604	21032.81
507.807	21344.1
508.009	21856.09
508.212	21874.52
508.415	22155.1
508.617	22277.97
508.82	22269.78
509.022	22355.8
509.225	23170.89
509.428	23164.75
509.63	23088.97
509.833	23017.29
510.035	23719.74
510.238	24096.57
510.44	24207.16
510.643	24452.92
510.845	24776.5
511.048	24551.22
511.25	25128.75
511.453	25057.07
511.655	25982.75
511.858	25468.71
512.06	25663.27
512.262	26439.45
512.465	26400.54
512.667	26588.95
512.87	26799.89
513.072	27080.46
513.274	27340.55
513.477	27858.69
513.679	27895.55
513.881	28520.18
514.084	28493.56
514.286	28387.07
514.488	28923.63
514.69	29384.43
514.893	29699.81
515.095	29744.87
515.297	29992.67
515.499	29933.28
515.701	30389.98
515.904	30977.75
516.106	30762.71
516.308	31217.36
516.51	31338.19
516.712	31633.1
516.914	32310.97
517.116	32362.17
517.318	32548.54
517.52	32511.67
517.722	32779.96
517.925	33113.78
518.127	33371.82
518.329	33752.74
518.531	33511.08
518.733	34137.76
518.935	34487.96
519.136	34356.89
519.338	34868.89
519.54	35325.58
519.742	35401.36
519.944	35501.71
520.146	36060.8
520.348	35946.12
520.55	36112
520.752	36187.78
520.954	36927.1
521.155	36984.44
521.357	37596.78
521.559	37385.84
521.761	38047.33
521.963	37717.61
522.164	38254.18
522.366	38149.73
522.568	38399.58
522.77	38569.57
522.971	38923.86
523.173	38594.14
523.375	38784.6
523.576	39042.65
523.778	39384.66
523.98	39863.88
524.181	39702.09
524.383	39644.75
524.584	40199.75
524.786	40234.56
524.988	39628.37
525.189	40253
525.391	40314.44
525.592	40654.4
525.794	41111.1
525.995	40738.37
526.197	40619.58
526.398	40660.54
526.6	41014.84
526.801	41176.63
527.003	41139.77
527.204	41119.29
527.406	41858.6
527.607	41537.07
527.808	41729.58
528.01	41074.23
528.211	41535.02
528.412	42114.6
528.614	41528.88
528.815	41743.92
529.016	41854.51
529.218	41578.03
529.419	41549.36
529.62	41731.63
529.822	41410.1
530.023	41643.57
530.224	41721.39
530.425	42034.73
530.626	41113.14
530.828	41127.48
531.029	42346.02
531.23	41363
531.431	41594.42
531.632	41481.78
531.833	41733.68
532.035	41668.14
532.236	41254.45
532.437	41578.03
532.638	41567.79
532.839	41406
533.04	41475.63
533.241	40988.22
533.442	41659.95
533.643	41371.19
533.844	41070.14
534.045	41594.42
534.246	40943.16
534.447	41150.01
534.648	41057.85
534.849	41332.28
535.05	41117.24
535.251	40857.15
535.451	41027.13
535.652	40885.82
535.853	40881.72
536.054	40928.83
536.255	40781.37
536.456	40703.55
536.657	40683.07
536.857	40261.19
537.058	40160.84
537.259	40754.75
537.46	40658.49
537.66	40148.55
537.861	40617.53
538.062	40048.2
538.263	40396.35
538.463	39921.23
538.664	40007.24
538.865	40203.85
539.065	40021.58
539.266	39337.55
539.466	40234.56
539.667	39513.68
539.868	40134.21
540.068	39700.04
540.269	39394.9
540.469	39765.58
540.67	39351.89
540.87	39661.13
541.071	39478.86
541.271	39661.13
541.472	39347.79
541.672	39587.41
541.873	38989.4
542.073	39048.79
542.274	39650.89
542.474	38925.91
542.675	39452.24
542.875	39628.37
543.075	39003.74
543.276	39075.41
543.476	39589.45
543.676	38899.29
543.877	39411.28
544.077	39083.61
544.277	38782.55
544.478	39026.26
544.678	39437.9
544.878	39167.57
545.078	39333.46
545.279	39093.85
545.479	39026.26
545.679	39312.98
545.879	38870.62
546.079	38995.54
546.28	39104.09
546.48	38667.87
546.68	39136.85
546.88	39183.96
547.08	39069.27
547.28	38944.34
547.48	38717.02
547.68	38919.77
547.88	38657.63
548.081	38841.95
548.281	38669.92
548.481	38913.62
548.681	39001.69
548.881	38923.86
549.081	39063.13
549.28	38721.12
549.48	39362.13
549.68	39204.44
549.88	39370.32
550.08	38651.48
550.28	39145.05
550.48	38958.68
550.68	39247.44
550.88	38895.19
551.08	39249.49
551.279	39089.75
551.479	38651.48
551.679	38981.21
551.879	39286.36
552.079	39202.39
552.278	39468.62
552.478	39446.1
552.678	39204.44
552.878	39464.53
553.077	39022.17
553.277	39085.65
553.477	39773.77
553.676	39300.69
553.876	39710.28
554.076	39585.36
554.275	39226.96
554.475	38907.48
554.674	39409.23
554.874	40001.1
555.074	39173.72
555.273	39700.04
555.473	39781.96
555.672	39503.44
555.872	39302.74
556.071	39509.58
556.271	39872.07
556.47	39538.26
556.67	39540.3
556.869	39624.27
557.068	39863.88
557.268	39368.27
557.467	39720.52
557.667	39337.55
557.866	39591.5
558.065	39507.54
558.265	39403.09
558.464	39319.12
558.663	39931.47
558.863	39253.59
559.062	39753.29
559.261	39419.47
559.461	39865.93
559.66	39243.35
559.859	39521.87
560.058	39726.67
560.258	39444.05
560.457	39444.05
560.656	39605.84
560.855	39517.78
561.054	39781.96
561.253	39331.41
561.453	39591.5
561.652	39487.06
561.851	39501.39
562.05	38798.94
562.249	39190.1
562.448	39677.52
562.647	39460.43
562.846	39419.47
563.045	39452.24
563.244	39265.88
563.443	39847.5
563.642	38944.34
563.841	39646.8
564.04	39335.51
564.239	39642.7
564.438	39104.09
564.637	39310.93
564.836	39689.81
565.035	38897.24
565.234	39323.22
565.432	38889.05
565.631	38909.53
565.83	39042.65
566.029	38569.57
566.228	38760.03
566.427	38426.21
566.625	38473.31
566.824	38565.47
567.023	38772.32
567.222	38041.19
567.42	38784.6
567.619	38194.79
567.818	38501.98
568.016	38223.46
568.215	38678.11
568.414	38217.32
568.612	38516.32
568.811	38372.96
569.01	38155.88
569.208	37637.74
569.407	37979.75
569.605	37502.57
569.804	38078.05
570.002	37670.51
570.201	37742.19
570.4	37199.48
570.598	37555.82
570.797	37492.33
570.995	37668.46
571.193	36800.12
571.392	37064.31
571.59	37072.5
571.789	37361.26
571.987	37004.92
572.186	37121.65
572.384	36638.33
572.582	36570.75
572.781	36324.99
572.979	36472.45
573.177	36365.95
573.376	36345.47
573.574	36152.96
573.772	36488.83
573.971	36064.9
574.169	35833.48
574.367	35393.17
574.565	36433.53
574.763	35985.03
574.962	35690.12
575.16	34985.62
575.358	35550.86
575.556	35061.4
575.754	35530.38
575.952	34584.22
576.151	35208.85
576.349	34940.57
576.547	34780.82
576.745	35036.82
576.943	34680.47
577.141	34616.99
577.339	34793.11
577.537	34541.21
577.735	34426.53
577.933	34092.71
578.131	34291.36
578.329	33801.89
578.527	33595.05
578.725	33910.44
578.923	33799.85
579.121	33361.58
579.319	33638.06
579.516	33646.25
579.714	33762.98
579.912	33769.13
580.11	33244.85
580.308	33038
580.506	33099.44
580.704	32407.23
580.901	33064.63
581.099	33283.76
581.297	32413.37
581.495	32839.35
581.692	33013.43
581.89	32321.21
582.088	32646.84
582.285	32581.31
582.483	32857.78
582.681	32378.56
582.878	32091.84
583.076	31770.31
583.274	32564.92
583.471	32032.45
583.669	31895.24
583.866	31524.55
584.064	32028.35
584.262	31317.71
584.459	31629
584.657	31571.66
584.854	31483.59
585.052	30983.89
585.249	31018.71
585.447	31497.93
585.644	30916.31
585.841	31133.39
586.039	31069.9
586.236	30852.82
586.434	30912.21
586.631	30590.68
586.828	30623.45
587.026	30516.95
587.223	30594.78
587.42	30478.04
587.618	30643.93
587.815	30437.08
588.012	30246.62
588.21	30017.25
588.407	30166.75
588.604	29918.95
588.801	29722.34
588.999	29896.42
589.196	29675.24
589.393	30121.7
589.59	29892.32
589.787	29578.98
589.984	29413.1
590.182	29626.09
590.379	29542.12
590.576	29310.7
590.773	29699.81
590.97	29239.02
591.167	29269.74
591.364	28905.2
591.561	29669.09
591.758	28870.39
591.955	29054.7
592.152	29077.23
592.349	28962.54
592.546	29206.25
592.743	28964.59
592.94	28645.11
593.137	28708.6
593.334	28681.97
593.531	28329.72
593.727	28862.19
593.924	28616.44
594.121	28454.65
594.318	28569.33
594.515	28516.09
594.712	28722.93
594.908	28288.76
595.105	28159.74
595.302	28301.05
595.499	28190.46
595.696	28565.24
595.892	27934.46
596.089	28278.52
596.286	28204.8
596.482	28301.05
596.679	28245.76
596.876	27959.04
597.072	27885.31
597.269	28440.31
597.466	27717.38
597.662	27492.1
597.859	28071.68
598.055	28108.54
598.252	27635.46
598.448	27727.62
598.645	27877.12
598.841	27576.07
599.038	27715.33
599.234	27694.85
599.431	27467.53
599.627	27621.13
599.824	28069.63
600.02	27606.79
600.217	27571.97
600.413	27412.23
600.609	27528.97
600.806	27236.11
601.002	27657.99
601.198	27191.05
601.395	27328.27
601.591	27617.03
601.787	27293.45
601.984	27240.2
602.18	27932.42
602.376	27508.49
602.572	27313.93
602.769	27438.86
602.965	27035.41
603.161	27426.57
603.357	27426.57
603.553	27600.65
603.75	27307.79
603.946	27793.15
604.142	27367.18
604.338	27223.82
604.534	27322.12
604.73	26713.88
604.926	27422.47
605.122	27436.81
605.318	26877.71
605.514	27094.8
605.71	27023.12
605.906	27072.27
606.102	27309.83
606.298	27162.38
606.494	27238.16
606.69	27262.73
606.886	27379.46
607.082	27117.32
607.278	27305.74
607.474	27023.12
607.67	27404.04
607.866	27004.69
608.062	27361.03
608.257	27277.07
608.453	27168.52
608.649	27361.03
608.845	27209.48
609.041	27062.03
609.236	27555.59
609.432	27178.76
609.628	27406.09
609.824	27604.74
610.019	27346.7
610.215	27201.29
610.411	27563.78
610.606	27488.01
610.802	27698.95
610.998	27553.54
611.193	27471.62
611.389	27084.56
611.584	27393.8
611.78	27227.92
611.976	27289.35
612.171	27168.52
612.367	27334.41
612.562	27522.82
612.758	27289.35
612.953	27008.78
613.149	27686.66
613.344	27195.15
613.539	27393.8
613.735	27453.19
613.93	27586.31
614.126	27143.95
614.321	27475.72
614.517	27526.92
614.712	27246.35
614.907	27078.41
615.103	27100.94
615.298	27162.38
615.493	27451.14
615.688	26898.19
615.884	27488.01
616.079	26771.22
616.274	27633.41
616.47	27107.09
616.665	27449.1
616.86	26986.25
617.055	26859.28
617.25	27242.25
617.445	27082.51
617.641	26582.81
617.836	26586.9
618.031	26679.06
618.226	27229.96
618.421	26703.64
618.616	26838.8
618.811	26584.85
619.006	26801.94
619.201	26277.66
619.396	26578.71
619.591	26289.95
619.786	26611.48
619.981	25954.08
620.176	26447.64
620.371	26017.57
620.566	26228.51
620.761	25880.35
620.956	26083.1
621.151	25573.16
621.346	26021.66
621.541	25360.17
621.735	25655.08
621.93	25276.2
622.125	25134.89
622.32	24936.24
622.515	25403.18
622.709	24887.09
622.904	24725.3
623.099	24524.6
623.294	24721.2
623.488	24438.58
623.683	24276.79
623.878	24127.29
624.072	24117.05
624.267	23922.49
624.462	23762.75
624.656	23672.64
624.851	23836.48
625.046	23787.33
625.24	23160.65
625.435	23043.92
625.629	23283.53
625.824	23025.48
626.018	23146.31
626.213	22533.97
626.407	22976.33
626.602	22363.99
626.796	22654.8
626.991	22517.59
627.185	22300.5
627.38	22314.84
627.574	21876.57
627.768	22048.6
627.963	21860.19
628.157	21739.36
628.352	21714.78
628.546	21399.4
628.74	21725.02
628.935	21245.8
629.129	21180.26
629.323	21090.15
629.517	21041
629.712	20891.5
629.906	20823.92
630.1	20410.23
630.294	20887.4
630.489	20449.14
630.683	20561.78
630.877	19986.3
631.071	20109.18
631.265	20152.18
631.459	19982.2
631.653	19824.51
631.848	19996.54
632.042	19871.61
632.236	19693.44
632.43	19392.39
632.624	19580.8
632.818	19384.19
633.012	19333
633.206	18907.02
633.4	18939.79
633.594	18915.21
633.788	18782.09
633.982	18911.11
634.176	18495.38
634.369	18593.68
634.563	18505.62
634.757	18356.11
634.951	18483.09
635.145	18423.7
635.339	18524.05
635.533	17960.86
635.726	18161.56
635.92	17907.61
636.114	17872.79
636.308	17504.16
636.501	17426.34
636.695	17430.43
636.889	17340.32
637.083	17299.36
637.276	17094.57
637.47	17014.7
637.664	17006.5
637.857	17176.48
638.051	16715.69
638.244	16529.33
638.438	16725.93
638.632	16367.54
638.825	16410.54
639.019	16117.68
639.212	16478.13
639.406	16418.74
639.599	16209.84
639.793	16201.65
639.986	15673.28
640.18	15839.16
640.373	15869.88
640.567	15677.37
640.76	15493.05
640.954	15243.2
641.147	15286.21
641.34	15224.77
641.534	15357.89
641.727	14954.44
641.92	15341.5
642.114	14964.68
642.307	15044.55
642.5	14573.52
642.694	14426.06
642.887	14438.35
643.08	14788.55
643.273	14614.48
643.467	14397.39
643.66	14065.62
643.853	14129.11
644.046	13815.77
644.239	13932.5
644.432	13819.86
644.626	13842.39
644.819	13688.79
645.012	13541.34
645.205	13606.88
645.398	13563.87
645.591	13395.93
645.784	13205.47
645.977	13064.16
646.17	13154.27
646.363	12974.05
646.556	12730.34
646.749	13049.83
646.942	12922.85
647.135	12560.36
647.328	12851.17
647.521	12619.75
647.714	12500.97
647.907	12546.03
648.099	12597.23
648.292	12574.7
648.485	12265.46
648.678	12292.08
648.871	12302.32
649.064	11982.84
649.256	12017.65
649.449	11970.55
649.642	11775.99
649.835	11829.24
650.027	11894.77
650.22	11673.59
650.413	11446.27
650.605	11515.9
650.798	11505.66
650.991	11433.98
651.183	11417.6
651.376	11296.77
651.568	11347.97
651.761	11157.5
651.954	11112.45
652.146	10975.24
652.339	10977.28
652.531	11034.63
652.724	10942.47
652.916	10811.4
653.109	10582.03
653.301	10559.5
653.494	10598.41
653.686	10754.05
653.879	10835.97
654.071	10481.67
654.263	10532.87
654.456	10479.63
654.648	10436.62
654.84	10158.1
655.033	10287.12
655.225	10133.52
655.417	10039.31
655.61	10139.66
655.802	10170.38
655.994	9828.37
656.186	9793.56
656.379	9691.16
656.571	9697.3
656.763	9707.54
656.955	9861.14
657.148	9807.89
657.34	9566.23
657.532	9472.03
657.724	9496.6
657.916	9398.3
658.108	9222.17
658.3	9492.51
658.492	9283.61
658.684	9349.15
658.876	9144.35
659.068	9199.65
659.26	8976.42
659.452	9148.45
659.644	8857.64
659.836	8943.65
660.028	9025.57
660.22	8699.94
660.412	8747.05
660.604	8622.12
660.796	8761.38
660.988	8577.06
661.18	8542.25
661.372	8493.1
661.563	8554.54
661.755	8304.68
661.947	8443.95
662.139	8210.48
662.331	8200.24
662.522	8114.22
662.714	8173.61
662.906	8099.89
663.097	8185.9
663.289	8042.54
663.481	7907.38
663.673	8146.99
663.864	7837.75
664.056	7884.85
664.247	7964.72
664.439	7854.13
664.631	7903.28
664.822	7698.49
665.014	7788.6
665.205	7548.98
665.397	7671.86
665.588	7471.16
665.78	7452.73
665.971	7485.5
666.163	7460.92
666.354	7428.15
666.546	7182.4
666.737	7321.66
666.929	7133.25
667.12	7358.52
667.311	7180.35
667.503	7106.62
667.694	6996.03
667.885	7174.21
668.077	7282.75
668.268	7096.38
668.459	7043.14
668.651	7010.37
668.842	6920.26
669.033	6934.59
669.224	6944.83
669.416	6885.44
669.607	6674.5
669.798	6772.8
669.989	6774.85
670.18	6551.62
670.371	6529.1
670.563	6522.95
670.754	6574.15
670.945	6625.35
671.136	6705.22
671.327	6522.95
671.518	6395.98
671.709	6549.57
671.9	6527.05
672.091	6455.37
672.282	6420.55
672.473	6373.45
672.664	6447.18
672.855	6236.24
673.046	6273.1
673.237	6375.5
673.428	6223.95
673.619	6285.39
673.809	6324.3
674	6215.76
674.191	6232.14
674.382	6064.21
674.573	6078.54
674.764	6060.11
674.954	6058.06
675.145	6047.82
675.336	5892.18
675.527	6021.2
675.717	6021.2
675.908	6027.34
676.099	5861.46
676.289	5947.47
676.48	5896.27
676.671	5926.99
676.861	5720.15
677.052	5961.81
677.243	5699.67
677.433	5818.45
677.624	6021.2
677.814	5769.3
678.005	5734.48
678.195	5711.96
678.386	5797.97
678.576	5666.9
678.767	5601.37
678.957	5730.39
679.148	5709.91
679.338	5634.13
679.529	5544.02
679.719	5646.42
679.909	5652.56
680.1	5564.5
680.29	5621.84
680.481	5523.54
680.671	5671
680.861	5445.72
681.052	5527.64
681.242	5492.82
681.432	5468.25
681.622	5570.65
681.813	5525.59
682.003	5554.26
682.193	5429.34
682.383	5406.81
682.573	5343.32
682.764	5339.23
682.954	5408.86
683.144	5339.23
683.334	5335.13
683.524	5355.61
683.714	5337.18
683.904	5388.38
684.094	5441.62
684.284	5369.94
684.474	5333.08
684.664	5259.35
684.854	5361.75
685.044	5253.21
685.234	5226.59
685.424	5236.83
685.614	5306.46
685.804	5150.81
685.994	5105.76
686.184	5202.01
686.374	5070.94
686.564	5257.31
686.753	5132.38
686.943	5154.91
687.133	5167.2
687.323	5001.31
687.513	5046.37
687.702	4980.83
687.892	5017.69
688.082	5191.77
688.272	4986.97
688.461	5062.75
688.651	5093.47
688.841	4962.4
689.03	5111.9
689.22	4751.46
689.41	4935.78
689.599	5093.47
689.789	4968.54
689.979	4782.18
690.168	4782.18
690.358	4796.51
690.547	4806.75
690.737	4958.3
690.926	4782.18
691.116	4710.5
691.305	4696.16
691.495	4661.35
691.684	4644.96
691.874	4757.6
692.063	4839.52
692.252	4636.77
692.442	4479.08
692.631	4606.05
692.82	4724.83
693.01	4870.24
693.199	4546.66
693.388	4477.03
693.578	4520.04
693.767	4513.89
693.956	4647.01
694.146	4599.91
694.335	4440.17
694.524	4507.75
694.713	4687.97
694.902	4581.48
695.092	4606.05
695.281	4405.35
695.47	4601.96
695.659	4372.58
695.848	4440.17
696.037	4348.01
696.226	4554.85
696.415	4333.67
696.604	4391.02
696.793	4479.08
696.982	4315.24
697.171	4413.54
697.36	4425.83
697.549	4309.1
697.738	4358.25
697.927	4270.19
698.116	4319.34
698.305	4216.94
698.494	4221.03
698.683	4399.21
698.872	4348.01
699.061	4343.91
699.25	4278.38
699.438	4163.69
699.627	4259.95
699.816	4298.86
700.005	4229.23
700.193	4239.47
700.382	4159.6
700.571	4247.66
700.76	4077.68
700.948	4112.49
701.137	4122.73
701.326	3997.81
701.514	4137.07
701.703	4122.73
701.892	4231.27
702.08	4186.22
702.269	4128.88
702.457	3967.09
702.646	4057.2
702.834	4022.38
703.023	4044.91
703.212	4106.35
703.4	4022.38
703.589	3846.26
703.777	3989.61
703.965	3946.61
704.154	4003.95
704.342	3831.92
704.531	3934.32
704.719	3952.75
704.907	4022.38
705.096	3901.55
705.284	3790.96
705.472	3833.97
705.661	3885.17
705.849	4020.33
706.037	3850.35
706.226	3762.29
706.414	3713.14
706.602	3750
706.79	3743.86
706.979	3694.71
707.167	3784.82
707.355	3717.23
707.543	3829.87
707.731	3766.39
707.919	3659.89
708.107	3647.6
708.296	3780.72
708.484	3625.08
708.672	3887.22
708.86	3758.19
709.048	3569.78
709.236	3680.37
709.424	3700.85
709.612	3696.75
709.8	3700.85
709.988	3633.27
710.176	3553.4
710.364	3637.36
710.551	3612.79
710.739	3534.96
710.927	3496.05
711.115	3465.33
711.303	3631.22
711.491	3457.14
711.679	3606.64
711.866	3508.34
712.054	3440.76
712.242	3516.53
712.43	3551.35
712.617	3418.23
712.805	3309.69
712.993	3479.67
713.181	3451
713.368	3358.84
713.556	3375.22
713.744	3295.35
713.931	3375.22
714.119	3348.6
714.306	3412.09
714.494	3389.56
714.682	3432.57
714.869	3276.92
715.057	3199.1
715.244	3356.79
715.432	3307.64
715.619	3377.27
715.807	3242.11
715.994	3178.62
716.182	3184.76
716.369	3121.28
716.556	3260.54
716.744	3127.42
716.931	3135.61
717.119	3176.57
717.306	3240.06
717.493	3217.53
717.681	3057.79
717.868	3094.65
718.055	3117.18
718.242	3143.8
718.43	3143.8
718.617	3063.93
718.804	2934.91
718.991	3045.5
719.179	3104.89
719.366	3094.65
719.553	2984.06
719.74	2914.43
719.927	2930.81
720.114	3104.89
720.301	2990.21
720.488	3008.64
720.676	3084.41
720.863	3072.12
721.05	3082.36
721.237	2990.21
721.424	2943.1
721.611	2883.71
721.798	2998.4
721.985	2881.66
722.172	2760.83
722.358	2877.57
722.545	2867.33
722.732	2906.24
722.919	2873.47
723.106	2898.05
723.293	2889.85
723.48	2904.19
723.667	2865.28
723.853	2807.94
724.04	2865.28
724.227	2723.97
724.414	2801.79
724.6	2750.59
724.787	2766.98
724.974	2887.81
725.161	2797.7
725.347	2644.1
725.534	2746.5
725.72	2711.68
725.907	2754.69
726.094	2801.79
726.28	2656.39
726.467	2603.14
726.653	2615.43
726.84	2742.4
727.027	2668.67
727.213	2529.41
727.4	2689.15
727.586	2744.45
727.773	2685.06
727.959	2580.61
728.145	2640
728.332	2644.1
728.518	2670.72
728.705	2697.35
728.891	2498.69
729.077	2635.91
729.264	2472.07
729.45	2668.67
729.636	2676.87
729.823	2461.83
730.009	2545.8
730.195	2617.47
730.382	2566.28
730.568	2439.3
730.754	2496.64
730.94	2574.47
731.126	2586.76
731.313	2508.93
731.499	2611.33
731.685	2635.91
731.871	2492.55
732.057	2521.22
732.243	2408.58
732.429	2564.23
732.615	2349.19
732.801	2439.3
732.987	2496.64
733.173	2410.63
733.359	2353.29
733.545	2490.5
733.731	2414.73
733.917	2351.24
734.103	2287.75
734.289	2390.15
734.475	2336.9
734.661	2398.34
734.847	2316.42
735.033	2455.69
735.219	2367.62
735.404	2343.05
735.59	2394.25
735.776	2349.19
735.962	2283.66
736.148	2379.91
736.333	2373.77
736.519	2201.74
736.705	2392.2
736.89	2271.37
737.076	2218.12
737.262	2173.07
737.447	2326.66
737.633	2164.87
737.819	2291.85
738.004	2226.31
738.19	2134.15
738.375	2148.49
738.561	2201.74
738.747	2209.93
738.932	2195.59
739.118	2175.11
739.303	2300.04
739.489	2209.93
739.674	2285.7
739.859	2132.11
740.045	2134.15
740.23	2021.52
740.416	2156.68
740.601	2144.39
740.786	2037.9
740.972	2003.08
741.157	2074.76
741.342	1955.98
741.528	1996.94
741.713	2136.2
741.898	1915.02
742.084	2048.14
742.269	1955.98
742.454	2029.71
742.639	2064.52
742.824	1947.79
743.01	1972.36
743.195	2058.38
743.38	1955.98
743.565	1964.17
743.75	1972.36
743.935	1804.43
744.12	1988.75
744.305	1857.68
744.49	1988.75
744.675	1845.39
744.86	1878.16
745.045	1923.21
745.23	1894.54
745.415	1915.02
745.6	1849.49
745.785	1835.15
745.97	1837.2
746.155	1810.58
746.34	1820.81
746.525	1804.43
746.71	1849.49
746.895	1878.16
747.079	1861.77
747.264	1826.96
747.449	1837.2
747.634	1792.14
747.819	1693.84
748.003	1775.76
748.188	1716.37
748.373	1728.66
748.557	1749.14
748.742	1726.61
748.927	1685.65
749.111	1794.19
749.296	1687.7
749.481	1611.92
749.665	1564.82
749.85	1665.17
750.034	1671.31
750.219	1613.97
750.404	1521.81
750.588	1581.2
750.773	1527.96
750.957	1550.48
751.141	1579.15
751.326	1515.67
751.51	1534.1
751.695	1489.04
751.879	1458.32
752.064	1505.43
752.248	1523.86
752.432	1521.81
752.617	1489.04
752.801	1554.58
752.985	1386.65
753.17	1489.04
753.354	1513.62
753.538	1427.6
753.722	1341.59
753.907	1368.21
754.091	1507.48
754.275	1362.07
754.459	1317.01
754.643	1261.72
754.828	1464.47
755.012	1409.17
755.196	1443.99
755.38	1314.97
755.564	1403.03
755.748	1245.34
755.932	1259.67
756.116	1228.95
756.3	1253.53
756.484	1294.49
756.668	1292.44
756.852	1218.71
757.036	1296.53
757.22	1278.1
757.404	1218.71
757.588	1202.33
757.772	1218.71
757.956	1220.76
758.14	1169.56
758.323	1087.64
758.507	1177.75
758.691	1130.65
758.875	1165.46
759.059	1108.12
759.242	1112.22
759.426	1048.73
759.61	1144.99
759.794	1120.41
759.977	1237.14
760.161	1263.77
760.345	1187.99
760.528	1030.3
760.712	1128.6
760.895	1030.3
761.079	1116.31
761.263	1177.75
761.446	1034.39
761.63	1081.5
761.813	1046.68
761.997	1038.49
762.18	1015.96
762.364	1108.12
762.547	999.58
762.731	962.72
762.914	1018.01
763.098	1067.16
763.281	981.15
763.464	1054.87
763.648	1028.25
763.831	932
764.015	985.24
764.198	1056.92
764.381	991.39
764.564	962.72
764.748	977.05
764.931	993.44
765.114	932
765.297	1020.06
765.481	905.37
765.664	876.7
765.847	950.43
766.03	946.33
766.213	858.27
766.397	919.71
766.58	860.32
766.763	997.53
766.946	919.71
767.129	899.23
767.312	909.47
767.495	866.46
767.678	809.12
767.861	923.8
768.044	827.55
768.227	940.19
768.41	882.85
768.593	825.5
768.776	1026.2
768.959	841.89
769.142	968.86
769.324	866.46
769.507	866.46
769.69	845.98
769.873	878.75
770.056	958.62
770.239	852.13
770.421	866.46
770.604	796.83
770.787	719.01
770.97	841.89
771.152	784.54
771.335	805.02
771.518	743.58
771.7	839.84
771.883	866.46
772.066	958.62
772.248	753.82
772.431	882.85
772.613	782.49
772.796	776.35
772.978	821.41
773.161	893.09
773.343	800.93
773.526	856.22
773.708	680.1
773.891	680.1
774.073	784.54
774.256	667.81
774.438	825.5
774.621	719.01
774.803	755.87
774.985	741.54
775.168	776.35
775.35	719.01
775.532	712.86
775.715	680.1
775.897	678.05
776.079	729.25
776.261	825.5
776.444	655.52
776.626	665.76
776.808	776.35
776.99	538.79
777.173	762.02
777.355	716.96
777.537	643.23
777.719	710.82
777.901	780.45
778.083	686.24
778.265	669.86
778.447	708.77
778.629	690.34
778.811	546.98
778.993	671.9
779.175	704.67
779.357	602.27
779.539	540.83
779.721	653.47
779.903	592.03
780.085	573.6
780.267	592.03
780.449	587.94
780.631	630.95
780.812	608.42
780.994	639.14
781.176	497.83
781.358	546.98
781.54	493.73
781.721	620.71
781.903	606.37
782.085	604.32
782.267	589.99
782.448	475.3
782.63	528.55
782.812	583.84
782.993	538.79
783.175	514.21
783.357	563.36
783.538	589.99
783.72	491.68
783.901	483.49
784.083	491.68
784.264	506.02
784.446	438.44
784.627	436.39
784.809	571.55
784.99	469.16
785.172	481.44
785.353	417.96
785.535	475.3
785.716	415.91
785.897	499.88
786.079	399.52
786.26	333.99
786.441	489.64
786.623	444.58
786.804	471.2
786.985	442.53
787.167	415.91
787.348	358.57
787.529	370.85
787.71	522.4
787.891	487.59
788.073	401.57
788.254	409.76
788.435	438.44
788.616	450.72
788.797	420
788.978	417.96
789.159	393.38
789.34	448.68
789.522	338.09
789.703	352.42
789.884	350.37
790.065	399.52
790.246	405.67
790.427	299.17
790.607	362.66
790.788	333.99
790.969	342.18
791.15	403.62
791.331	387.24
791.512	327.85
791.693	327.85
791.874	336.04
792.054	370.85
792.235	383.14
792.416	379.04
792.597	336.04
792.778	391.33
792.958	420
793.139	383.14
793.32	338.09
793.5	336.04
793.681	383.14
793.862	401.57
794.042	315.56
794.223	286.89
794.404	323.75
794.584	391.33
794.765	352.42
794.945	333.99
795.126	358.57
795.306	301.22
795.487	264.36
795.667	329.89
795.848	247.97
796.028	344.23
796.209	342.18
796.389	401.57
796.57	327.85
796.75	211.11
796.93	313.51
797.111	233.64
797.291	268.45
797.471	284.84
797.652	313.51
797.832	315.56
798.012	309.41
798.192	293.03
798.373	174.25
798.553	288.93
798.733	260.26
798.913	256.17
799.093	243.88
799.274	325.8
799.454	235.69
799.634	229.54
799.814	254.12
799.994	209.06
800.174	305.32
800.354	260.26
800.534	188.58
800.714	221.35
800.894	172.2
801.074	227.5
801.254	260.26
801.434	315.56
801.614	153.77
801.794	131.24
801.974	897.18
802.154	340.13
802.334	182.44
802.514	262.31
802.693	170.15
802.873	153.77
803.053	303.27
803.233	247.97
803.413	190.63
803.592	243.88
803.772	188.58
803.952	166.06
804.131	221.35
804.311	235.69
804.491	227.5
804.67	172.2
804.85	207.02
805.03	268.45
805.209	264.36
805.389	196.78
805.568	139.43
805.748	182.44
805.928	161.96
806.107	262.31
806.287	155.82
806.466	170.15
806.646	112.81
806.825	129.19
807.004	211.11
807.184	237.74
807.363	157.86
807.543	219.3
807.722	157.86
807.901	231.59
808.081	237.74
808.26	172.2
808.439	151.72
808.619	153.77
808.798	180.39
808.977	174.25
809.156	131.24
809.336	186.54
809.515	186.54
809.694	184.49
809.873	227.5
810.052	196.78
810.231	221.35
810.411	207.02
810.59	186.54
810.769	32.94
810.948	145.58
811.127	125.1
811.306	110.76
811.485	219.3
811.664	243.88
811.843	170.15
812.022	211.11
812.201	143.53
812.38	114.86
812.559	137.38
812.737	139.43
812.916	149.67
813.095	151.72
813.274	129.19
813.453	157.86
813.632	198.82
813.811	147.62
813.989	63.66
814.168	161.96
814.347	88.23
814.526	98.47
814.704	139.43
814.883	254.12
815.062	123.05
815.24	145.58
815.419	114.86
815.598	145.58
815.776	82.09
815.955	49.32
816.133	2.22
816.312	123.05
816.49	80.04
816.669	131.24
816.847	57.51
817.026	82.09
817.204	77.99
817.383	145.58
817.561	-3.93
817.74	131.24
817.918	55.47
818.097	153.77
818.275	143.53
818.453	178.34
818.632	133.29
818.81	170.15
818.988	80.04
819.167	47.27
819.345	129.19
819.523	112.81
819.701	69.8
819.879	94.38
820.058	102.57
820.236	65.71
820.414	139.43
820.592	147.62
820.77	55.47
820.948	88.23
821.127	80.04
821.305	155.82
821.483	96.43
821.661	96.43
821.839	59.56
822.017	73.9
822.195	176.3
822.373	137.38
822.551	59.56
822.729	174.25
822.907	123.05
823.085	137.38
823.262	125.1
823.44	114.86
823.618	47.27
823.796	53.42
823.974	55.47
824.152	80.04
824.329	131.24
824.507	90.28
824.685	59.56
824.863	135.34
825.04	69.8
825.218	182.44
825.396	139.43
825.574	137.38
825.751	168.1
825.929	114.86
826.107	39.08
826.284	118.95
826.462	110.76
826.639	67.75
826.817	49.32
826.994	32.94
827.172	8.36
827.349	112.81
827.527	30.89
827.704	80.04
827.882	61.61
828.059	104.62
828.237	108.71
828.414	73.9
828.591	18.6
828.769	73.9
828.946	43.18
829.124	139.43
829.301	59.56
829.478	131.24
829.655	47.27
829.833	71.85
830.01	-8.02
830.187	159.91
830.364	14.51
830.542	104.62
830.719	172.2
830.896	18.6
831.073	100.52
831.25	22.7
831.427	55.47
831.604	104.62
831.782	-48.98
831.959	168.1
832.136	80.04
832.313	49.32
832.49	104.62
832.667	102.57
832.844	30.89
833.021	112.81
833.198	131.24
833.374	55.47
833.551	129.19
833.728	-3.93
833.905	39.08
834.082	8.36
834.259	88.23
834.436	82.09
834.612	-34.64
834.789	53.42
834.966	41.13
835.143	84.14
835.319	39.08
835.496	18.6
835.673	71.85
835.85	75.95
836.026	94.38
836.203	65.71
836.38	47.27
836.556	49.32
836.733	10.41
836.909	155.82
837.086	43.18
837.262	14.51
837.439	14.51
837.616	49.32
837.792	30.89
837.968	71.85
838.145	-40.79
838.321	112.81
838.498	2.22
838.674	100.52
838.851	80.04
839.027	61.61
839.203	57.51
839.38	-12.12
839.556	0.17
839.732	114.86
839.909	57.51
840.085	65.71
840.261	49.32
840.437	18.6
840.614	47.27
840.79	88.23
840.966	153.77
841.142	8.36
841.318	65.71
841.494	121
841.671	30.89
841.847	71.85
842.023	-5.97
842.199	145.58
842.375	41.13
842.551	-1.88
842.727	-5.97
842.903	121
843.079	-8.02
843.255	65.71
843.431	22.7
843.607	-1.88
843.783	30.89
843.959	22.7
844.134	73.9
844.31	178.34
844.486	71.85
844.662	43.18
844.838	-34.64
845.013	26.79
845.189	59.56
845.365	84.14
845.541	63.66
845.716	34.99
845.892	51.37
846.068	22.7
846.244	0.17
846.419	28.84
846.595	0.17
846.77	-16.21
846.946	32.94
847.122	-12.12
847.297	-42.84
847.473	84.14
847.648	18.6
847.824	84.14
847.999	2.22
848.175	30.89
848.35	6.31
848.526	63.66
848.701	22.7
848.876	114.86
849.052	96.43
849.227	47.27
849.403	-5.97
849.578	10.41
849.753	-22.36
849.929	92.33
850.104	16.55
850.279	26.79
850.454	32.94
850.63	164.01
850.805	96.43
850.98	-14.17
851.155	67.75
851.33	39.08
851.505	10.41
851.681	75.95
851.856	18.6
852.031	80.04
852.206	14.51
852.381	-16.21
852.556	22.7
852.731	-26.45
852.906	-1.88
853.081	39.08
853.256	96.43
853.431	41.13
853.606	14.51
853.781	55.47
853.956	32.94
854.131	73.9
854.305	-46.93
854.48	-38.74
854.655	10.41
854.83	-48.98
855.005	34.99
855.18	51.37
855.354	22.7
855.529	63.66
855.704	-26.45
855.879	-42.84
856.053	-1.88
856.228	96.43
856.403	24.75
856.577	-1.88
856.752	41.13
856.926	43.18
857.101	-32.6
857.276	6.31
857.45	32.94
857.625	51.37
857.799	18.6
857.974	8.36
858.148	-51.03
858.323	45.23
858.497	71.85
858.672	-20.31
858.846	12.46
859.02	-10.07
859.195	14.51
859.369	84.14
859.543	8.36
859.718	-3.93
859.892	6.31
860.066	55.47
860.241	-10.07
860.415	10.41
860.589	39.08
860.763	49.32
860.938	30.89
861.112	-5.97
861.286	-30.55
861.46	-10.07
861.634	-3.93
861.808	-42.84
861.982	24.75
862.157	-51.03
862.331	-79.7
862.505	41.13
862.679	22.7
862.853	16.55
863.027	6.31
863.201	34.99
863.375	-55.12
863.549	37.03
863.722	8.36
863.896	41.13
864.07	77.99
864.244	-1.88
864.418	18.6
864.592	8.36
864.766	22.7
864.939	-26.45
865.113	-34.64
865.287	0.17
865.461	71.85
865.634	82.09
865.808	8.36
865.982	-10.07
866.156	-16.21
866.329	-24.4
866.503	16.55
866.676	80.04
866.85	57.51
867.024	34.99
867.197	82.09
867.371	18.6
867.544	51.37
867.718	0.17
867.891	63.66
868.065	-10.07
868.238	69.8
868.412	67.75
868.585	22.7
868.759	-18.26
868.932	-1.88
869.105	32.94
869.279	-1.88
869.452	-8.02
869.625	125.1
869.799	63.66
869.972	-1.88
870.145	2.22
870.319	34.99
870.492	18.6
870.665	41.13
870.838	24.75
871.011	10.41
871.185	-16.21
871.358	-26.45
871.531	57.51
871.704	4.27
871.877	-16.21
872.05	-8.02
872.223	10.41
872.396	114.86
872.569	8.36
872.742	-79.7
872.915	14.51
873.088	-10.07
873.261	-26.45
873.434	-42.84
873.607	-1.88
873.78	67.75
873.953	-38.74
874.126	-8.02
874.299	32.94
874.471	26.79
874.644	-20.31
874.817	0.17
874.99	110.76
875.163	47.27
875.335	41.13
875.508	-57.17
875.681	88.23
875.853	-5.97
876.026	-34.64
876.199	-61.27
876.371	-16.21
876.544	-22.36
876.717	0.17
876.889	-18.26
877.062	2.22
877.234	-32.6
877.407	32.94
877.579	47.27
877.752	-10.07
877.924	51.37
878.097	32.94
878.269	-18.26
878.442	18.6
878.614	24.75
878.786	22.7
878.959	12.46
879.131	37.03
879.303	-75.6
879.476	28.84
879.648	14.51
879.82	14.51
879.993	-67.41
880.165	0.17
880.337	-46.93
880.509	-10.07
880.681	-24.4
880.854	57.51
881.026	-48.98
881.198	34.99
881.37	-44.88
881.542	16.55
881.714	6.31
881.886	10.41
882.058	-34.64
882.23	12.46
882.402	12.46
882.574	-53.08
882.746	18.6
882.918	-32.6
883.09	-122.71
883.262	-5.97
883.434	-63.32
883.606	-3.93
883.778	-5.97
883.95	6.31
884.122	6.31
884.293	96.43
884.465	39.08
884.637	41.13
884.809	-22.36
884.98	0.17
885.152	-5.97
885.324	51.37
885.496	12.46
885.667	71.85
885.839	8.36
886.011	86.19
886.182	47.27
886.354	49.32
886.525	-34.64
886.697	-34.64
886.869	10.41
887.04	22.7
887.212	90.28
887.383	121
887.555	-65.36
887.726	90.28
887.897	-40.79
888.069	-18.26
888.24	16.55
888.412	10.41
888.583	-30.55
888.754	-59.22
888.926	41.13
889.097	-34.64
889.268	-10.07
889.44	82.09
889.611	-48.98
889.782	-14.17
889.953	-18.26
890.125	6.31
890.296	6.31
890.467	-22.36
890.638	0.17
890.809	-28.5
890.98	-3.93
891.151	24.75
891.323	-3.93
891.494	39.08
891.665	-34.64
891.836	82.09
892.007	26.79
892.178	-63.32
892.349	-18.26
892.52	-1.88
892.691	8.36
892.862	4.27
893.032	-57.17
893.203	16.55
893.374	10.41
893.545	12.46
893.716	-8.02
893.887	121
894.057	-22.36
894.228	18.6
894.399	14.51
894.57	4.27
894.74	-10.07
894.911	-40.79
895.082	-57.17
895.253	-98.13
895.423	-34.64
895.594	24.75
895.764	65.71
895.935	-83.8
896.106	12.46
896.276	-42.84
896.447	14.51
896.617	-38.74
896.788	-48.98
896.958	14.51
897.129	-30.55
897.299	-26.45
897.47	14.51
897.64	55.47
897.81	-48.98
897.981	6.31
898.151	-57.17
898.322	104.62
898.492	-10.07
898.662	4.27
898.832	30.89
899.003	-18.26
899.173	59.56
899.343	-18.26
899.513	-87.89
