Data from USB4F104151__277__14-34-42-401.txt Node

Date: Thu Mar 13 14:34:42 EDT 2025
User: louis
Spectrometer: USB4F10415
Trigger mode: 4
Integration Time (sec): 2.500000E-2
Scans to average: 1
Electric dark correction enabled: true
Nonlinearity correction enabled: false
Boxcar width: 0
XAxis mode: Wavelengths
Number of Pixels in Spectrum: 3648
>>>>>Begin Spectral Data<<<<<
178.204	-93.18
178.424	-93.18
178.644	-93.18
178.864	-166.91
179.084	-146.43
179.304	19.46
179.524	-21.5
179.744	-44.03
179.964	58.37
180.184	-3.07
180.404	19.46
180.624	-23.55
180.844	5.12
181.064	-11.26
181.283	-48.13
181.503	7.17
181.723	41.98
181.943	-101.37
182.163	19.46
182.383	33.79
182.602	64.51
182.822	7.17
183.042	27.65
183.262	66.56
183.482	11.26
183.701	27.65
183.921	60.42
184.141	-3.07
184.361	27.65
184.58	52.22
184.8	50.18
185.02	-29.7
185.239	76.8
185.459	60.42
185.679	72.7
185.898	29.7
186.118	37.89
186.338	27.65
186.557	13.31
186.777	23.55
186.997	66.56
187.216	-21.5
187.436	125.95
187.655	31.74
187.875	105.47
188.095	-27.65
188.314	66.56
188.534	91.13
188.753	-29.7
188.973	27.65
189.192	37.89
189.412	-5.12
189.631	58.37
189.851	33.79
190.07	70.65
190.29	-15.36
190.509	60.42
190.729	58.37
190.948	72.7
191.168	191.49
191.387	52.22
191.607	-27.65
191.826	72.7
192.045	-46.08
192.265	21.5
192.484	60.42
192.704	17.41
192.923	17.41
193.142	52.22
193.362	-23.55
193.581	66.56
193.8	9.22
194.02	17.41
194.239	78.85
194.458	37.89
194.678	41.98
194.897	19.46
195.116	-11.26
195.335	35.84
195.555	54.27
195.774	-1.02
195.993	58.37
196.212	31.74
196.432	-3.07
196.651	-29.7
196.87	17.41
197.089	125.95
197.308	44.03
197.528	1.02
197.747	19.46
197.966	33.79
198.185	89.09
198.404	25.6
198.623	54.27
198.842	11.26
199.062	99.33
199.281	50.18
199.5	5.12
199.719	58.37
199.938	-70.65
200.157	82.94
200.376	35.84
200.595	54.27
200.814	19.46
201.033	-76.8
201.252	99.33
201.471	52.22
201.69	44.03
201.909	48.13
202.128	-48.13
202.347	-35.84
202.566	31.74
202.785	50.18
203.004	46.08
203.223	84.99
203.442	62.46
203.661	17.41
203.879	58.37
204.098	19.46
204.317	-31.74
204.536	29.7
204.755	82.94
204.974	99.33
205.193	21.5
205.411	66.56
205.63	58.37
205.849	117.76
206.068	-13.31
206.287	7.17
206.505	119.81
206.724	17.41
206.943	7.17
207.162	-19.46
207.381	41.98
207.599	74.75
207.818	-11.26
208.037	41.98
208.255	9.22
208.474	-48.13
208.693	21.5
208.911	72.7
209.13	-9.22
209.349	37.89
209.567	70.65
209.786	70.65
210.005	25.6
210.223	46.08
210.442	25.6
210.661	50.18
210.879	44.03
211.098	11.26
211.316	-7.17
211.535	66.56
211.753	41.98
211.972	91.13
212.191	52.22
212.409	64.51
212.628	15.36
212.846	11.26
213.065	13.31
213.283	44.03
213.502	19.46
213.72	35.84
213.938	41.98
214.157	21.5
214.375	50.18
214.594	-13.31
214.812	78.85
215.031	109.57
215.249	17.41
215.467	-17.41
215.686	84.99
215.904	54.27
216.122	5.12
216.341	-41.98
216.559	82.94
216.778	54.27
216.996	58.37
217.214	25.6
217.432	5.12
217.651	-39.94
217.869	27.65
218.087	44.03
218.306	-13.31
218.524	23.55
218.742	50.18
218.96	82.94
219.179	19.46
219.397	-48.13
219.615	58.37
219.833	60.42
220.051	33.79
220.27	19.46
220.488	99.33
220.706	66.56
220.924	52.22
221.142	39.94
221.36	78.85
221.578	70.65
221.796	33.79
222.015	74.75
222.233	-17.41
222.451	68.61
222.669	-11.26
222.887	144.38
223.105	1.02
223.323	15.36
223.541	25.6
223.759	27.65
223.977	-35.84
224.195	117.76
224.413	107.52
224.631	-11.26
224.849	-33.79
225.067	115.71
225.285	5.12
225.503	58.37
225.721	-17.41
225.939	37.89
226.157	35.84
226.375	119.81
226.592	-54.27
226.81	3.07
227.028	91.13
227.246	82.94
227.464	50.18
227.682	-11.26
227.9	-3.07
228.117	48.13
228.335	58.37
228.553	44.03
228.771	39.94
228.989	52.22
229.206	50.18
229.424	60.42
229.642	5.12
229.86	48.13
230.077	41.98
230.295	1.02
230.513	33.79
230.731	-3.07
230.948	33.79
231.166	41.98
231.384	-62.46
231.601	-35.84
231.819	107.52
232.037	-31.74
232.254	-89.09
232.472	25.6
232.689	-7.17
232.907	48.13
233.125	27.65
233.342	68.61
233.56	1.02
233.777	11.26
233.995	-13.31
234.213	-15.36
234.43	25.6
234.648	21.5
234.865	-70.65
235.083	13.31
235.3	9.22
235.518	66.56
235.735	89.09
235.953	115.71
236.17	41.98
236.388	-44.03
236.605	50.18
236.822	107.52
237.04	-7.17
237.257	1.02
237.475	41.98
237.692	58.37
237.909	15.36
238.127	41.98
238.344	58.37
238.562	46.08
238.779	-60.42
238.996	17.41
239.214	9.22
239.431	76.8
239.648	-5.12
239.865	58.37
240.083	58.37
240.3	-23.55
240.517	1.02
240.735	15.36
240.952	78.85
241.169	19.46
241.386	39.94
241.603	9.22
241.821	-9.22
242.038	13.31
242.255	21.5
242.472	39.94
242.689	58.37
242.907	-21.5
243.124	-21.5
243.341	29.7
243.558	33.79
243.775	46.08
243.992	23.55
244.209	115.71
244.426	91.13
244.643	74.75
244.86	82.94
245.078	50.18
245.295	66.56
245.512	44.03
245.729	9.22
245.946	5.12
246.163	78.85
246.38	11.26
246.597	111.61
246.814	17.41
247.031	31.74
247.248	29.7
247.464	95.23
247.681	115.71
247.898	-60.42
248.115	17.41
248.332	-3.07
248.549	58.37
248.766	82.94
248.983	60.42
249.2	17.41
249.417	54.27
249.633	-5.12
249.85	93.18
250.067	37.89
250.284	111.61
250.501	58.37
250.717	99.33
250.934	5.12
251.151	-1.02
251.368	93.18
251.585	78.85
251.801	3.07
252.018	1.02
252.235	-11.26
252.451	76.8
252.668	17.41
252.885	109.57
253.102	9.22
253.318	66.56
253.535	25.6
253.752	27.65
253.968	-3.07
254.185	-21.5
254.401	5.12
254.618	87.04
254.835	-72.7
255.051	52.22
255.268	78.85
255.484	1.02
255.701	68.61
255.917	66.56
256.134	-3.07
256.351	17.41
256.567	-48.13
256.784	-1.02
257	-89.09
257.217	27.65
257.433	3.07
257.65	74.75
257.866	37.89
258.082	-70.65
258.299	58.37
258.515	50.18
258.732	35.84
258.948	50.18
259.165	21.5
259.381	5.12
259.597	58.37
259.814	9.22
260.03	23.55
260.246	44.03
260.463	56.32
260.679	50.18
260.895	27.65
261.112	115.71
261.328	50.18
261.544	-31.74
261.761	78.85
261.977	60.42
262.193	-21.5
262.409	87.04
262.626	64.51
262.842	3.07
263.058	-15.36
263.274	52.22
263.49	56.32
263.707	37.89
263.923	19.46
264.139	-21.5
264.355	-39.94
264.571	25.6
264.787	46.08
265.004	52.22
265.22	50.18
265.436	-56.32
265.652	25.6
265.868	66.56
266.084	-19.46
266.3	25.6
266.516	-3.07
266.732	107.52
266.948	44.03
267.164	17.41
267.38	-5.12
267.596	-23.55
267.812	132.09
268.028	58.37
268.244	-35.84
268.46	25.6
268.676	33.79
268.892	44.03
269.108	13.31
269.324	48.13
269.54	-48.13
269.756	44.03
269.972	-113.66
270.188	-19.46
270.403	29.7
270.619	84.99
270.835	-5.12
271.051	68.61
271.267	78.85
271.483	58.37
271.698	-7.17
271.914	33.79
272.13	37.89
272.346	-19.46
272.562	48.13
272.777	33.79
272.993	44.03
273.209	13.31
273.425	-33.79
273.64	-39.94
273.856	27.65
274.072	50.18
274.287	13.31
274.503	54.27
274.719	19.46
274.934	25.6
275.15	44.03
275.366	25.6
275.581	9.22
275.797	11.26
276.012	58.37
276.228	-39.94
276.444	91.13
276.659	-5.12
276.875	41.98
277.09	50.18
277.306	-7.17
277.521	136.19
277.737	39.94
277.952	44.03
278.168	19.46
278.383	66.56
278.599	-15.36
278.814	41.98
279.03	29.7
279.245	-35.84
279.461	9.22
279.676	41.98
279.892	1.02
280.107	50.18
280.322	19.46
280.538	21.5
280.753	-15.36
280.969	17.41
281.184	29.7
281.399	84.99
281.615	70.65
281.83	80.89
282.045	-5.12
282.26	35.84
282.476	-5.12
282.691	95.23
282.906	64.51
283.122	58.37
283.337	72.7
283.552	41.98
283.767	1.02
283.983	74.75
284.198	50.18
284.413	58.37
284.628	66.56
284.843	7.17
285.058	89.09
285.274	54.27
285.489	5.12
285.704	109.57
285.919	3.07
286.134	-7.17
286.349	46.08
286.564	105.47
286.779	113.66
286.995	13.31
287.21	-35.84
287.425	93.18
287.64	-13.31
287.855	33.79
288.07	-11.26
288.285	87.04
288.5	35.84
288.715	44.03
288.93	58.37
289.145	-54.27
289.36	9.22
289.575	7.17
289.79	35.84
290.004	17.41
290.219	37.89
290.434	-56.32
290.649	-7.17
290.864	33.79
291.079	-11.26
291.294	21.5
291.509	-44.03
291.724	99.33
291.938	-13.31
292.153	50.18
292.368	84.99
292.583	99.33
292.798	76.8
293.012	48.13
293.227	105.47
293.442	95.23
293.657	35.84
293.871	50.18
294.086	-5.12
294.301	60.42
294.516	58.37
294.73	-56.32
294.945	-31.74
295.16	1.02
295.374	44.03
295.589	91.13
295.804	17.41
296.018	-5.12
296.233	58.37
296.447	19.46
296.662	5.12
296.877	78.85
297.091	37.89
297.306	-7.17
297.52	29.7
297.735	-31.74
297.949	1.02
298.164	58.37
298.378	-13.31
298.593	-23.55
298.807	-7.17
299.022	60.42
299.236	33.79
299.451	-31.74
299.665	11.26
299.88	9.22
300.094	33.79
300.309	21.5
300.523	31.74
300.737	-7.17
300.952	70.65
301.166	74.75
301.381	-31.74
301.595	27.65
301.809	103.42
302.024	44.03
302.238	66.56
302.452	91.13
302.667	-21.5
302.881	60.42
303.095	11.26
303.309	101.37
303.524	48.13
303.738	21.5
303.952	-5.12
304.166	87.04
304.381	-33.79
304.595	84.99
304.809	-3.07
305.023	80.89
305.237	9.22
305.452	58.37
305.666	87.04
305.88	46.08
306.094	60.42
306.308	-19.46
306.522	19.46
306.736	97.28
306.95	25.6
307.164	-7.17
307.379	-39.94
307.593	134.14
307.807	25.6
308.021	107.52
308.235	17.41
308.449	17.41
308.663	158.72
308.877	125.95
309.091	91.13
309.305	68.61
309.519	29.7
309.733	99.33
309.947	-48.13
310.161	70.65
310.374	89.09
310.588	91.13
310.802	31.74
311.016	58.37
311.23	87.04
311.444	15.36
311.658	13.31
311.872	25.6
312.085	66.56
312.299	-7.17
312.513	29.7
312.727	25.6
312.941	-17.41
313.154	7.17
313.368	-33.79
313.582	41.98
313.796	19.46
314.009	41.98
314.223	76.8
314.437	9.22
314.651	74.75
314.864	44.03
315.078	33.79
315.292	3.07
315.505	41.98
315.719	37.89
315.933	93.18
316.146	-27.65
316.36	-5.12
316.573	78.85
316.787	99.33
317.001	123.9
317.214	5.12
317.428	15.36
317.641	-5.12
317.855	-37.89
318.068	70.65
318.282	89.09
318.495	125.95
318.709	54.27
318.922	-17.41
319.136	35.84
319.349	50.18
319.563	39.94
319.776	66.56
319.99	-15.36
320.203	109.57
320.417	23.55
320.63	41.98
320.843	107.52
321.057	128
321.27	70.65
321.483	17.41
321.697	50.18
321.91	84.99
322.124	82.94
322.337	39.94
322.55	-48.13
322.763	44.03
322.977	25.6
323.19	-21.5
323.403	50.18
323.617	1.02
323.83	58.37
324.043	25.6
324.256	9.22
324.469	-3.07
324.683	11.26
324.896	50.18
325.109	44.03
325.322	-41.98
325.535	17.41
325.748	87.04
325.962	9.22
326.175	91.13
326.388	93.18
326.601	33.79
326.814	41.98
327.027	1.02
327.24	66.56
327.453	5.12
327.666	37.89
327.879	156.67
328.092	37.89
328.305	9.22
328.518	-21.5
328.731	-91.13
328.944	82.94
329.157	68.61
329.37	50.18
329.583	91.13
329.796	35.84
330.009	3.07
330.222	84.99
330.435	62.46
330.648	41.98
330.861	117.76
331.073	58.37
331.286	54.27
331.499	1.02
331.712	-66.56
331.925	39.94
332.138	1.02
332.35	25.6
332.563	-3.07
332.776	-3.07
332.989	37.89
333.202	23.55
333.414	25.6
333.627	82.94
333.84	58.37
334.053	48.13
334.265	-3.07
334.478	41.98
334.691	41.98
334.903	87.04
335.116	58.37
335.329	-13.31
335.541	19.46
335.754	9.22
335.966	15.36
336.179	27.65
336.392	66.56
336.604	50.18
336.817	60.42
337.029	21.5
337.242	78.85
337.454	115.71
337.667	17.41
337.88	66.56
338.092	56.32
338.305	125.95
338.517	50.18
338.729	35.84
338.942	50.18
339.154	19.46
339.367	17.41
339.579	35.84
339.792	44.03
340.004	60.42
340.217	33.79
340.429	93.18
340.641	103.42
340.854	11.26
341.066	-11.26
341.278	54.27
341.491	87.04
341.703	115.71
341.915	19.46
342.128	115.71
342.34	82.94
342.552	-7.17
342.764	50.18
342.977	-13.31
343.189	78.85
343.401	27.65
343.613	3.07
343.826	-1.02
344.038	33.79
344.25	99.33
344.462	44.03
344.674	97.28
344.886	60.42
345.099	46.08
345.311	-27.65
345.523	46.08
345.735	-39.94
345.947	72.7
346.159	82.94
346.371	76.8
346.583	50.18
346.795	82.94
347.007	58.37
347.219	58.37
347.431	7.17
347.643	82.94
347.855	-21.5
348.067	109.57
348.279	31.74
348.491	3.07
348.703	9.22
348.915	99.33
349.127	1.02
349.339	19.46
349.551	-62.46
349.763	52.22
349.975	136.19
350.187	99.33
350.399	87.04
350.61	136.19
350.822	23.55
351.034	50.18
351.246	-13.31
351.458	148.48
351.669	41.98
351.881	50.18
352.093	89.09
352.305	66.56
352.517	5.12
352.728	91.13
352.94	23.55
353.152	91.13
353.363	46.08
353.575	60.42
353.787	41.98
353.999	80.89
354.21	78.85
354.422	-7.17
354.633	17.41
354.845	33.79
355.057	91.13
355.268	91.13
355.48	66.56
355.692	66.56
355.903	134.14
356.115	9.22
356.326	1.02
356.538	113.66
356.749	89.09
356.961	52.22
357.172	72.7
357.384	27.65
357.595	156.67
357.807	17.41
358.018	19.46
358.23	56.32
358.441	25.6
358.653	70.65
358.864	76.8
359.075	17.41
359.287	74.75
359.498	99.33
359.709	68.61
359.921	35.84
360.132	109.57
360.344	56.32
360.555	33.79
360.766	33.79
360.977	-3.07
361.189	74.75
361.4	64.51
361.611	115.71
361.823	91.13
362.034	27.65
362.245	46.08
362.456	13.31
362.667	41.98
362.879	-19.46
363.09	11.26
363.301	68.61
363.512	3.07
363.723	29.7
363.935	62.46
364.146	99.33
364.357	-7.17
364.568	50.18
364.779	-7.17
364.99	115.71
365.201	21.5
365.412	82.94
365.623	1.02
365.834	62.46
366.045	58.37
366.256	58.37
366.467	89.09
366.678	82.94
366.889	19.46
367.1	-5.12
367.311	50.18
367.522	68.61
367.733	62.46
367.944	-58.37
368.155	33.79
368.366	82.94
368.577	132.09
368.788	136.19
368.999	19.46
369.209	9.22
369.42	109.57
369.631	117.76
369.842	21.5
370.053	66.56
370.264	66.56
370.474	50.18
370.685	125.95
370.896	50.18
371.107	107.52
371.317	123.9
371.528	-46.08
371.739	62.46
371.95	52.22
372.16	132.09
372.371	70.65
372.582	35.84
372.792	46.08
373.003	33.79
373.214	74.75
373.424	9.22
373.635	95.23
373.846	44.03
374.056	44.03
374.267	48.13
374.477	111.61
374.688	46.08
374.898	41.98
375.109	-11.26
375.319	41.98
375.53	107.52
375.74	76.8
375.951	41.98
376.161	-25.6
376.372	-29.7
376.582	82.94
376.793	70.65
377.003	101.37
377.214	-7.17
377.424	91.13
377.635	68.61
377.845	33.79
378.055	27.65
378.266	11.26
378.476	76.8
378.686	46.08
378.897	95.23
379.107	136.19
379.317	62.46
379.528	44.03
379.738	107.52
379.948	-52.22
380.158	66.56
380.369	21.5
380.579	72.7
380.789	19.46
380.999	74.75
381.21	82.94
381.42	119.81
381.63	-13.31
381.84	91.13
382.05	148.48
382.261	105.47
382.471	-7.17
382.681	50.18
382.891	76.8
383.101	82.94
383.311	15.36
383.521	-60.42
383.731	66.56
383.941	82.94
384.151	23.55
384.361	99.33
384.571	19.46
384.781	50.18
384.991	125.95
385.201	107.52
385.411	46.08
385.621	17.41
385.831	66.56
386.041	21.5
386.251	58.37
386.461	70.65
386.671	76.8
386.881	31.74
387.091	11.26
387.301	87.04
387.511	115.71
387.72	173.05
387.93	27.65
388.14	13.31
388.35	93.18
388.56	148.48
388.769	117.76
388.979	11.26
389.189	91.13
389.399	52.22
389.609	144.38
389.818	68.61
390.028	91.13
390.238	33.79
390.447	119.81
390.657	82.94
390.867	29.7
391.076	25.6
391.286	-13.31
391.496	99.33
391.705	58.37
391.915	109.57
392.125	54.27
392.334	70.65
392.544	82.94
392.753	44.03
392.963	-52.22
393.172	115.71
393.382	29.7
393.591	123.9
393.801	82.94
394.01	70.65
394.22	33.79
394.429	39.94
394.639	33.79
394.848	35.84
395.058	19.46
395.267	148.48
395.477	44.03
395.686	97.28
395.895	136.19
396.105	103.42
396.314	91.13
396.524	117.76
396.733	78.85
396.942	168.96
397.152	56.32
397.361	140.29
397.57	117.76
397.78	123.9
397.989	82.94
398.198	109.57
398.407	115.71
398.617	80.89
398.826	99.33
399.035	117.76
399.244	68.61
399.453	109.57
399.663	76.8
399.872	222.2
400.081	132.09
400.29	132.09
400.499	66.56
400.708	44.03
400.917	44.03
401.127	173.05
401.336	54.27
401.545	183.29
401.754	101.37
401.963	123.9
402.172	84.99
402.381	113.66
402.59	130.05
402.799	111.61
403.008	62.46
403.217	125.95
403.426	50.18
403.635	158.72
403.844	158.72
404.053	115.71
404.262	87.04
404.471	109.57
404.68	91.13
404.888	148.48
405.097	125.95
405.306	199.68
405.515	164.86
405.724	173.05
405.933	183.29
406.142	189.44
406.35	193.53
406.559	175.1
406.768	259.07
406.977	195.58
407.185	246.78
407.394	246.78
407.603	162.81
407.812	189.44
408.02	244.73
408.229	279.55
408.438	314.36
408.646	205.82
408.855	209.92
409.064	271.36
409.272	267.26
409.481	322.56
409.69	234.49
409.898	310.27
410.107	254.97
410.315	330.75
410.524	338.94
410.733	322.56
410.941	427
411.15	453.63
411.358	404.47
411.567	467.96
411.775	449.53
411.984	412.67
412.192	437.24
412.401	461.82
412.609	517.11
412.818	463.86
413.026	463.86
413.234	574.46
413.443	537.59
413.651	517.11
413.86	594.93
414.068	541.69
414.276	728.05
414.485	615.41
414.693	642.04
414.901	746.48
415.11	678.9
415.318	697.33
415.526	773.11
415.734	762.87
415.943	732.15
416.151	879.6
416.359	848.88
416.567	795.64
416.776	928.75
416.984	969.71
417.192	1102.83
417.4	977.91
417.608	955.38
417.817	1051.63
418.025	1076.21
418.233	1135.6
418.441	1051.63
418.649	1133.55
418.857	1254.38
419.065	1313.77
419.273	1254.38
419.481	1393.64
419.689	1377.26
419.897	1518.57
420.105	1549.29
420.313	1600.49
420.521	1627.11
420.729	1610.73
420.937	1643.49
421.145	1731.56
421.353	1717.22
421.561	1958.88
421.769	1979.36
421.977	2100.19
422.185	2036.7
422.393	2149.34
422.601	2165.73
422.809	2272.22
423.017	2378.72
423.224	2391
423.432	2532.31
423.64	2382.81
423.848	2749.4
424.056	2606.04
424.263	2839.51
424.471	2909.14
424.679	2888.66
424.887	3064.79
425.094	3075.03
425.302	3146.7
425.51	3322.83
425.718	3468.24
425.925	3501
426.133	3490.76
426.341	3638.22
426.548	3892.16
426.756	3959.75
426.964	4023.23
427.171	4189.12
427.379	4205.5
427.586	4309.95
427.794	4463.55
428.001	4817.85
428.209	4967.35
428.417	4830.13
428.624	5196.72
428.832	5182.38
429.039	5188.53
429.247	5108.66
429.454	5596.07
429.662	5899.17
429.869	5460.91
430.076	5895.08
430.284	5776.3
430.491	6095.78
430.699	6474.65
430.906	6441.89
431.114	6605.72
431.321	6618.01
431.528	6841.24
431.736	7209.87
431.943	7564.17
432.15	7420.81
432.358	7324.56
432.565	7877.51
432.772	7742.35
432.979	8213.38
433.187	8432.51
433.394	8405.89
433.601	8926.07
433.808	9048.95
434.016	8883.06
434.223	9309.04
434.43	9833.32
434.637	9612.14
434.844	10265.44
435.052	10396.51
435.259	10367.84
435.466	10447.71
435.673	10580.83
435.88	10941.27
436.087	11602.77
436.294	11602.77
436.501	11504.46
436.708	11606.86
436.915	12018.5
437.122	12563.26
437.329	12702.53
437.537	12921.66
437.743	12944.19
437.95	13009.72
438.157	13718.32
438.364	14218.02
438.571	14297.89
438.778	14138.15
438.985	15387.41
439.192	14897.95
439.399	15180.57
439.606	14893.85
439.813	15602.45
440.02	16585.47
440.227	16153.35
440.433	16339.72
440.64	16755.46
440.847	16501.51
441.054	17111.8
441.261	18080.49
441.467	17873.65
441.674	18262.76
441.881	18756.32
442.088	18887.39
442.294	19018.46
442.501	19079.9
442.708	19876.56
442.914	20165.32
443.121	21199.55
443.328	20497.1
443.534	21973.68
443.741	21369.53
443.948	21070.53
444.154	22682.28
444.361	22686.37
444.568	22729.38
444.774	22729.38
444.981	23020.19
445.187	23261.85
445.394	24754.82
445.6	24388.24
445.807	26577.51
446.013	25315.97
446.22	25946.74
446.426	26636.91
446.633	27093.6
446.839	27902.55
447.046	27034.21
447.252	28473.93
447.459	28627.53
447.665	28219.99
447.871	29571.64
448.078	30868.01
448.284	29532.73
448.491	30095.92
448.697	31101.48
448.903	31877.66
449.11	31912.47
449.316	31291.94
449.522	31922.71
449.728	32872.97
449.935	32850.44
450.141	33210.89
450.347	33606.14
450.553	32514.58
450.76	33384.96
450.966	34320.88
451.172	34101.75
451.378	34812.4
451.584	33778.17
451.791	34886.12
451.997	34628.08
452.203	35527.14
452.409	35461.6
452.615	34951.66
452.821	33559.04
453.027	33696.25
453.233	35187.18
453.44	33528.32
453.646	34140.66
453.852	34136.57
454.058	34970.09
454.264	33556.99
454.47	34570.74
454.676	33976.83
454.882	34580.98
455.088	31318.56
455.294	32121.37
455.5	32651.79
455.705	32772.62
455.911	31930.9
456.117	30878.25
456.323	30394.93
456.529	28795.46
456.735	30237.23
456.941	29018.69
457.147	29237.83
457.352	27828.82
457.558	27767.38
457.764	28093.01
457.97	27144.8
458.176	26884.71
458.381	26393.2
458.587	25387.64
458.793	25307.77
458.999	23636.63
459.204	25500.28
459.41	24783.49
459.616	23364.25
459.821	23159.45
460.027	23171.74
460.233	22788.77
460.438	21605.05
460.644	21672.63
460.85	20832.96
461.055	20206.28
461.261	20382.41
461.466	18815.71
461.672	18012.91
461.878	19333.85
462.083	18301.67
462.289	18166.51
462.494	17576.69
462.7	16788.22
462.905	16499.46
463.111	17093.37
463.316	17056.51
463.522	16784.13
463.727	16720.64
463.932	16927.49
464.138	16319.24
464.343	16677.63
464.549	16227.08
464.754	16376.58
464.959	16433.93
465.165	16093.96
465.37	15573.78
465.575	14940.96
465.781	15754
465.986	15713.04
466.191	15000.35
466.397	14730.02
466.602	14000.94
466.807	14662.43
467.012	14840.61
467.218	14594.85
467.423	14203.69
467.628	14547.75
467.833	15190.81
468.038	14338.85
468.244	14086.95
468.449	14615.33
468.654	14117.67
468.859	13675.31
469.064	13900.59
469.269	13300.53
469.474	13544.24
469.679	13585.2
469.885	13249.33
470.09	13542.19
470.295	13224.76
470.5	13312.82
470.705	13222.71
470.91	12657.47
471.115	12788.54
471.32	12991.29
471.525	12884.8
471.73	12550.98
471.935	12661.57
472.139	12118.86
472.344	12112.71
472.549	12147.53
472.754	12188.49
472.959	11653.97
473.164	11451.22
473.369	11352.91
473.574	11660.11
473.778	11354.96
473.983	11387.73
474.188	11404.11
474.393	10797.92
474.598	10838.87
474.802	10885.98
475.007	10677.09
475.212	10988.38
475.417	10396.51
475.621	10447.71
475.826	10521.44
476.031	10339.17
476.235	9997.16
476.44	10089.32
476.645	10019.69
476.849	9970.54
477.054	9933.67
477.259	9681.77
477.463	9786.22
477.668	9548.65
477.872	9429.87
478.077	9618.29
478.282	9429.87
478.486	9059.19
478.691	9016.18
478.895	9022.33
479.1	8848.25
479.304	8776.57
479.509	8749.95
479.713	8903.54
479.918	8749.95
480.122	8563.58
480.326	8559.49
480.531	8680.32
480.735	8676.22
480.94	8469.37
481.144	8741.75
481.348	8334.21
481.553	8522.62
481.757	8217.47
481.961	8436.61
482.166	8297.35
482.37	8491.9
482.574	8229.76
482.778	8299.39
482.983	8393.6
483.187	8313.73
483.391	8442.75
483.595	8287.11
483.8	8078.21
484.004	8430.46
484.208	8362.88
484.412	8297.35
484.616	8153.99
484.821	8268.67
485.025	8168.32
485.229	8227.71
485.433	8276.87
485.637	8414.08
485.841	8104.84
486.045	8139.65
486.249	8194.95
486.453	8070.02
486.657	8153.99
486.861	8213.38
487.065	8074.12
487.269	8115.08
487.473	8129.41
487.677	8153.99
487.881	8211.33
488.085	8088.45
488.289	8164.23
488.493	8100.74
488.697	8096.64
488.901	8213.38
489.105	8076.16
489.309	8233.86
489.512	8135.56
489.716	8213.38
489.92	8278.91
490.124	8166.28
490.328	8350.59
490.531	8237.95
490.735	8258.43
490.939	8348.54
491.143	8004.49
491.346	8401.79
491.55	8268.67
491.754	8389.5
491.958	8397.7
492.161	8504.19
492.365	8276.87
492.569	8209.28
492.772	8412.03
492.976	8463.23
493.18	8559.49
493.383	8571.77
493.587	8799.1
493.79	8696.7
493.994	8549.25
494.197	8745.85
494.401	8770.43
494.605	8766.33
494.808	8934.26
495.012	8999.8
495.215	8751.99
495.419	9030.52
495.622	9057.14
495.825	8840.06
496.029	9044.85
496.232	9327.47
496.436	9235.32
496.639	9620.33
496.843	9366.39
497.046	9573.23
497.249	9759.6
497.453	9724.78
497.656	9724.78
497.859	9790.31
498.063	9917.29
498.266	9984.87
498.469	9941.86
498.673	10029.93
498.876	10199.91
499.079	10416.99
499.282	10257.25
499.485	10376.03
499.689	10416.99
499.892	10754.91
500.095	10625.89
500.298	11101.01
500.501	10863.45
500.705	11154.26
500.908	11268.95
501.111	11354.96
501.314	11338.58
501.517	11567.95
501.72	11596.62
501.923	11645.77
502.126	11838.28
502.329	11981.64
502.532	12151.62
502.735	12110.66
502.938	12602.18
503.141	12567.36
503.344	12432.19
503.547	12743.49
503.75	12970.81
503.953	12993.34
504.156	13056.82
504.359	13140.79
504.562	13359.92
504.765	13349.68
504.968	13607.73
505.17	13656.88
505.373	13974.31
505.576	13947.69
505.779	14306.09
505.982	14336.81
506.185	14435.11
506.387	14492.45
506.59	14770.97
506.793	14773.02
506.996	14832.41
507.198	15211.29
507.401	15217.43
507.604	15434.52
507.807	15985.42
508.009	15979.28
508.212	15903.5
508.415	16171.79
508.617	16313.1
508.82	16409.35
509.022	16268.04
509.225	16614.15
509.428	16825.09
509.63	17056.51
509.833	17122.04
510.035	17206.01
510.238	17218.3
510.44	17588.98
510.643	17795.82
510.845	18010.86
511.048	17949.42
511.25	18238.19
511.453	18137.84
511.655	18803.43
511.858	18578.15
512.06	18897.63
512.262	18887.39
512.465	18770.66
512.667	19460.82
512.87	19665.62
513.072	19645.14
513.274	20034.25
513.477	19921.62
513.679	20388.55
513.881	20402.89
514.084	20384.46
514.286	20626.12
514.488	20810.43
514.69	21547.7
514.893	21408.44
515.095	21549.75
515.297	21742.26
515.499	21760.69
515.701	22391.47
515.904	22166.19
516.106	22422.19
516.308	22645.41
516.51	23012
516.712	22962.85
516.914	23012
517.116	23315.1
517.318	23452.31
517.52	23612.06
517.722	23859.86
517.925	24142.48
518.127	24421
518.329	24390.28
518.531	24130.19
518.733	24535.69
518.935	24670.86
519.136	25113.22
519.338	25119.36
519.54	25373.31
519.742	25444.99
519.944	25680.5
520.146	26110.58
520.348	25995.89
520.55	26114.67
520.752	26190.45
520.954	26815.08
521.155	26296.94
521.357	26643.05
521.559	26790.5
521.761	27372.13
521.963	27351.65
522.164	27275.87
522.366	27404.89
522.568	27658.84
522.77	27888.21
522.971	28297.81
523.173	27843.16
523.375	28021.33
523.576	28283.47
523.778	28103.25
523.98	28449.36
524.181	28502.61
524.383	28338.77
524.584	28523.08
524.786	28963.4
524.988	28738.12
525.189	29213.25
525.391	29114.95
525.592	29121.09
525.794	29332.03
525.995	28766.79
526.197	29129.28
526.398	29262.4
526.6	29321.79
526.801	29504.06
527.003	29264.45
527.204	29442.62
527.406	29606.46
527.607	29309.5
527.808	29600.32
528.01	29213.25
528.211	29354.56
528.412	30054.97
528.614	29798.97
528.815	29649.47
529.016	29966.9
529.218	29483.58
529.419	29708.86
529.62	29764.15
529.822	29762.11
530.023	29407.81
530.224	29592.12
530.425	29782.59
530.626	29145.67
530.828	29452.86
531.029	29858.36
531.23	29432.38
531.431	29688.38
531.632	29454.91
531.833	29381.18
532.035	29327.94
532.236	29459.01
532.437	29635.13
532.638	29651.52
532.839	29284.93
533.04	29364.8
533.241	28809.8
533.442	29477.44
533.643	29422.14
533.844	28944.97
534.045	29110.85
534.246	29024.84
534.447	29219.39
534.648	29102.66
534.849	28938.82
535.05	28850.76
535.251	29084.23
535.451	28922.44
535.652	28977.73
535.853	29084.23
536.054	28756.55
536.255	28983.88
536.456	28396.11
536.657	29297.22
536.857	28791.37
537.058	28645.96
537.259	28893.77
537.46	28670.54
537.66	28566.09
537.861	28627.53
538.062	28420.69
538.263	28627.53
538.463	28607.05
538.664	28580.43
538.865	28635.72
539.065	28682.83
539.266	28117.59
539.466	28379.73
539.667	28293.71
539.868	28695.11
540.068	28336.72
540.269	28408.4
540.469	28521.04
540.67	28039.76
540.87	28312.14
541.071	28228.18
541.271	28148.31
541.472	28056.15
541.672	27910.74
541.873	28033.62
542.073	27617.88
542.274	28127.83
542.474	27781.72
542.675	27736.66
542.875	28170.83
543.075	27746.9
543.276	27880.02
543.476	28207.7
543.676	27685.47
543.877	28113.49
544.077	27935.32
544.277	27867.73
544.478	28115.54
544.678	28109.4
544.878	27724.38
545.078	27814.49
545.279	27753.05
545.479	27492.96
545.679	28101.2
545.879	27845.21
546.079	27771.48
546.28	27781.72
546.48	27439.71
546.68	27908.69
546.88	27632.22
547.08	27757.14
547.28	27624.03
547.48	27609.69
547.68	27703.9
547.88	27705.95
548.081	27837.02
548.281	27388.51
548.481	27900.5
548.681	27810.39
548.881	27920.98
549.081	27607.64
549.28	27796.06
549.48	28052.05
549.68	27505.24
549.88	27972.18
550.08	27742.81
550.28	27961.94
550.48	27562.59
550.68	27931.22
550.88	27452
551.08	27800.15
551.279	28226.13
551.479	27609.69
551.679	27929.17
551.879	27843.16
552.079	27959.89
552.278	27658.84
552.478	27771.48
552.678	27728.47
552.878	27945.56
553.077	27914.84
553.277	27699.8
553.477	28035.67
553.676	28117.59
553.876	27982.42
554.076	27767.38
554.275	28367.44
554.475	27546.2
554.674	28015.19
554.874	28195.41
555.074	28050
555.273	28023.38
555.473	28394.06
555.672	28060.24
555.872	27875.93
556.071	28103.25
556.271	28115.54
556.47	28236.37
556.67	27873.88
556.869	28125.78
557.068	28334.67
557.268	28514.89
557.467	28277.33
557.667	27808.34
557.866	28475.98
558.065	28033.62
558.265	28160.59
558.464	27992.66
558.663	28451.41
558.863	27763.29
559.062	28637.77
559.261	28056.15
559.461	28607.05
559.66	28148.31
559.859	28248.66
560.058	28285.52
560.258	28203.6
560.457	28332.62
560.656	28244.56
560.855	28344.91
561.054	28488.27
561.253	28103.25
561.453	28320.34
561.652	28332.62
561.851	28344.91
562.05	28279.38
562.249	28185.17
562.448	28226.13
562.647	28224.08
562.846	28615.24
563.045	28514.89
563.244	28168.79
563.443	28187.22
563.642	28117.59
563.841	28232.27
564.04	28070.48
564.239	28543.56
564.438	28041.81
564.637	28275.28
564.836	27994.71
565.035	28101.2
565.234	27746.9
565.432	27957.85
565.631	27699.8
565.83	27859.54
566.029	27990.61
566.228	27685.47
566.427	27595.35
566.625	27863.64
566.824	27634.27
567.023	27533.92
567.222	27441.76
567.42	27730.52
567.619	27538.01
567.818	27351.65
568.016	27372.13
568.215	27474.52
568.414	27232.86
568.612	27421.28
568.811	27230.82
569.01	27351.65
569.208	27263.58
569.407	27443.81
569.605	26866.28
569.804	27222.62
570.002	26718.82
570.201	26735.21
570.4	26520.17
570.598	26335.85
570.797	26475.12
570.995	26577.51
571.193	26362.48
571.392	26677.86
571.59	26395.25
571.789	26477.16
571.987	26276.46
572.186	26110.58
572.384	26094.19
572.582	26255.98
572.781	26370.67
572.979	25873.01
573.177	25950.84
573.376	25557.63
573.574	25504.38
573.772	25512.57
573.971	25725.56
574.169	25528.95
574.367	25152.13
574.565	25578.11
574.763	25105.02
574.962	25088.64
575.16	25346.69
575.358	25234.05
575.556	24941.19
575.754	25197.18
575.952	24875.65
576.151	24857.22
576.349	24396.43
576.547	24406.67
576.745	24476.3
576.943	24830.6
577.141	24545.93
577.339	24640.14
577.537	24253.07
577.735	24263.31
577.933	24375.95
578.131	24257.17
578.329	24056.46
578.527	24124.05
578.725	24156.82
578.923	24330.89
579.121	23915.16
579.319	23739.03
579.516	23892.63
579.714	23554.71
579.912	23597.72
580.11	23714.45
580.308	23839.38
580.506	23485.08
580.704	23290.52
580.901	23435.93
581.099	23724.69
581.297	22938.27
581.495	23063.2
581.692	23120.54
581.89	22966.95
582.088	23177.89
582.285	22944.42
582.483	22887.07
582.681	23098.02
582.878	22614.69
583.076	22534.82
583.274	22872.74
583.471	22483.62
583.669	22600.36
583.866	22332.08
584.064	22426.28
584.262	22061.74
584.459	22373.03
584.657	22559.4
584.854	22467.24
585.052	21801.65
585.249	22268.59
585.447	22272.68
585.644	22067.89
585.841	21791.41
586.039	22080.18
586.236	21828.27
586.434	21873.33
586.631	21756.6
586.828	21850.8
587.026	21885.62
587.223	21701.3
587.42	21510.84
587.618	21549.75
587.815	21488.31
588.012	21209.79
588.21	21564.09
588.407	21461.69
588.604	21559.99
588.801	21357.24
588.999	21134.01
589.196	21275.32
589.393	20972.22
589.59	21142.21
589.787	21052.09
589.984	21129.92
590.182	20849.35
590.379	20835.01
590.576	20771.52
590.773	20947.65
590.97	20763.33
591.167	20650.69
591.364	20558.53
591.561	20546.25
591.758	20443.85
591.955	20595.4
592.152	20693.7
592.349	20699.84
592.546	20841.15
592.743	20345.55
592.94	20103.89
593.137	20312.78
593.334	20357.83
593.531	20347.59
593.727	20538.05
593.924	20425.42
594.121	20056.78
594.318	20337.35
594.515	19960.53
594.712	20308.68
594.908	20329.16
595.105	20464.33
595.302	20251.34
595.499	20060.88
595.696	20146.89
595.892	20028.11
596.089	20079.31
596.286	20300.49
596.482	20171.47
596.679	20198.09
596.876	20212.43
597.072	19964.62
597.269	20032.21
597.466	19950.29
597.662	20136.65
597.859	20054.73
598.055	20314.83
598.252	19974.86
598.448	20107.98
598.645	19792.59
598.841	19935.95
599.038	20222.67
599.234	20167.37
599.431	19720.92
599.627	19989.2
599.824	19993.29
600.02	20202.19
600.217	20216.52
600.413	19882.7
600.609	19962.58
600.806	20447.94
601.002	19997.39
601.198	20134.6
601.395	20218.57
601.591	20107.98
601.787	19940.05
601.984	20032.21
602.18	20402.89
602.376	20353.74
602.572	20449.99
602.769	20091.6
602.965	20398.79
603.161	20271.82
603.357	20474.57
603.553	20095.69
603.75	20513.48
603.946	20120.27
604.142	20325.07
604.338	20685.51
604.534	20488.9
604.73	20472.52
604.926	20726.47
605.122	20738.76
605.318	20339.4
605.514	20531.91
605.71	20511.43
605.906	20792
606.102	20681.41
606.298	20771.52
606.494	20890.31
606.69	20886.21
606.886	21029.57
607.082	20691.65
607.278	20990.66
607.474	20878.02
607.67	20968.13
607.866	20648.64
608.062	21265.08
608.257	21414.59
608.453	21217.98
608.649	21402.3
608.845	20882.11
609.041	21373.63
609.236	21557.94
609.432	21592.76
609.628	21537.46
609.824	21840.56
610.019	21314.23
610.215	21621.43
610.411	21854.9
610.606	21631.67
610.802	21805.75
610.998	21875.38
611.193	22031.02
611.389	21906.1
611.584	21797.56
611.78	21875.38
611.976	22110.89
612.171	22194.86
612.367	22274.73
612.562	21848.75
612.758	21926.58
612.953	21908.15
613.149	22051.5
613.344	21981.87
613.539	22508.2
613.735	22096.56
613.93	22471.34
614.126	22338.22
614.321	22327.98
614.517	22626.98
614.712	22383.27
614.907	22186.67
615.103	22543.02
615.298	22370.99
615.493	22760.1
615.688	21998.26
615.884	22639.27
616.079	22489.77
616.274	22407.85
616.47	22289.07
616.665	22532.78
616.86	22309.55
617.055	22428.33
617.25	22184.62
617.445	22778.53
617.641	22325.93
617.836	22530.73
618.031	22438.57
618.226	22612.65
618.421	22049.46
618.616	22600.36
618.811	22203.05
619.006	22459.05
619.201	22000.3
619.396	22389.42
619.591	22006.45
619.786	22129.33
619.981	22041.26
620.176	21781.17
620.371	21848.75
620.566	21625.53
620.761	21930.67
620.956	21899.95
621.151	21377.72
621.346	21846.71
621.541	21390.01
621.735	21488.31
621.93	21052.09
622.125	21342.91
622.32	21215.93
622.515	21056.19
622.709	20974.27
622.904	20773.57
623.099	21052.09
623.294	20939.46
623.488	20810.43
623.683	20820.67
623.878	20515.53
624.072	20751.04
624.267	20507.34
624.462	20619.97
624.656	20077.26
624.851	20458.18
625.046	20048.59
625.24	20220.62
625.435	19970.77
625.629	20161.23
625.824	19817.17
626.018	19960.53
626.213	19213.02
626.407	19512.02
626.602	19481.3
626.796	19569.37
626.991	19278.55
627.185	19440.34
627.38	19008.22
627.574	19053.28
627.768	19012.32
627.963	18858.72
628.157	18578.15
628.352	18885.34
628.546	18324.2
628.74	18674.4
628.935	18213.61
629.129	18432.74
629.323	18035.44
629.517	18408.17
629.712	18156.27
629.906	18273
630.1	17812.21
630.294	17820.4
630.489	17779.44
630.683	18084.59
630.877	17359.61
631.071	17253.11
631.265	17615.6
631.459	17070.84
631.653	17136.38
631.848	17222.39
632.042	17185.53
632.236	17122.04
632.43	16978.68
632.624	17031.93
632.818	16782.08
633.012	16900.86
633.206	16775.94
633.4	16845.57
633.594	16429.83
633.788	16618.24
633.982	16354.05
634.176	16356.1
634.369	16026.38
634.563	16130.83
634.757	15940.36
634.951	16241.42
635.145	15964.94
635.339	15696.66
635.533	15704.85
635.726	15774.48
635.92	15649.55
636.114	15483.67
636.308	15393.56
636.501	15233.82
636.695	15196.95
636.889	15008.54
637.083	15059.74
637.276	14979.87
637.47	14627.62
637.664	14967.58
637.857	14910.24
638.051	14672.67
638.244	14553.89
638.438	14127.91
638.632	14254.89
638.825	14242.6
639.019	14127.91
639.212	14058.28
639.406	14117.67
639.599	13824.81
639.793	13937.45
639.986	13648.69
640.18	13763.37
640.373	13437.75
640.567	13603.63
640.76	13423.41
640.954	13493.04
641.147	13263.67
641.34	13089.59
641.534	13292.34
641.727	13038.39
641.92	13210.42
642.114	12878.65
642.307	12657.47
642.5	12800.83
642.694	12581.7
642.887	12720.96
643.08	12755.77
643.273	12546.88
643.467	12403.52
643.66	12229.45
643.853	12292.93
644.046	12061.51
644.239	12198.73
644.432	11885.39
644.626	11758.41
644.819	11653.97
645.012	11766.6
645.205	11813.71
645.398	11649.87
645.591	11486.03
645.784	11320.15
645.977	11381.59
646.17	11471.7
646.363	11043.67
646.556	11080.53
646.749	11111.25
646.942	11092.82
647.135	10943.32
647.328	10933.08
647.521	10883.93
647.714	10658.65
647.907	10736.48
648.099	10668.89
648.292	10713.95
648.485	10634.08
648.678	10361.7
648.871	10279.78
649.064	10240.87
649.256	10285.92
649.449	10302.31
649.642	10183.52
649.835	10275.68
650.027	9945.96
650.22	10206.05
650.413	10036.07
650.605	9999.21
650.798	9751.4
650.991	9710.44
651.183	9751.4
651.376	9585.52
651.568	9710.44
651.761	9585.52
651.954	9724.78
652.146	9493.36
652.339	9495.41
652.531	9505.65
652.724	9292.66
652.916	8967.03
653.109	9118.58
653.301	9186.16
653.494	9255.79
653.686	9003.89
653.879	9175.92
654.071	8825.72
654.263	8973.18
654.456	8952.7
654.648	8782.71
654.84	8706.94
655.033	8598.4
655.225	8717.18
655.417	8592.25
655.61	8569.73
655.802	8500.09
655.994	8588.16
656.186	8440.7
656.379	8481.66
656.571	8307.59
656.763	8188.8
656.955	8416.13
657.148	8334.21
657.34	8213.38
657.532	8078.21
657.724	8061.83
657.916	7881.61
658.108	7949.19
658.3	7871.37
658.492	7951.24
658.684	8031.11
658.876	7885.7
659.068	7783.31
659.26	7664.52
659.452	7723.91
659.644	7594.89
659.836	7416.72
660.028	7654.28
660.22	7447.44
660.412	7549.84
660.604	7252.88
660.796	7555.98
660.988	7205.78
661.18	7228.31
661.372	7087
661.563	7234.45
661.755	7099.28
661.947	7074.71
662.139	7066.52
662.331	7132.05
662.522	6919.06
662.714	6955.93
662.906	7072.66
663.097	7013.27
663.289	6849.43
663.481	6742.94
663.673	6792.09
663.864	6585.24
664.056	6728.6
664.247	6736.79
664.439	6558.62
664.631	6687.64
664.822	6579.1
665.014	6488.99
665.205	6464.41
665.397	6468.51
665.588	6398.88
665.78	6382.49
665.971	6368.16
666.163	6112.16
666.354	6235.04
666.546	6138.79
666.737	6120.35
666.929	6171.55
667.12	6132.64
667.311	6149.03
667.503	6116.26
667.694	6011.81
667.885	5968.8
668.077	5913.51
668.268	5960.61
668.459	5796.78
668.651	5985.19
668.842	5837.73
669.033	5841.83
669.224	5858.21
669.416	5862.31
669.607	5727.14
669.798	5661.61
669.989	5757.86
670.18	5540.78
670.371	5639.08
670.563	5677.99
670.754	5643.18
670.945	5600.17
671.136	5589.93
671.327	5602.22
671.518	5534.64
671.709	5534.64
671.9	5544.88
672.091	5434.29
672.282	5422
672.473	5497.77
672.664	5362.61
672.855	5440.43
673.046	5385.13
673.237	5389.23
673.428	5448.62
673.619	5368.75
673.809	5352.37
674	5303.22
674.191	5383.09
674.382	5305.26
674.573	5221.3
674.764	5307.31
674.954	5305.26
675.145	5186.48
675.336	5223.34
675.527	5155.76
675.717	5131.19
675.908	4903.86
676.099	5118.9
676.289	4926.39
676.48	5110.71
676.671	5170.1
676.861	5112.75
677.052	4998.07
677.243	4905.91
677.433	4971.44
677.624	5147.57
677.814	4993.97
678.005	5090.23
678.195	5022.64
678.386	4858.81
678.576	4928.44
678.767	4842.42
678.957	4862.9
679.148	4948.92
679.338	4961.2
679.529	4996.02
679.719	4914.1
679.909	4957.11
680.1	4776.89
680.29	5067.7
680.481	4815.8
680.671	4967.35
680.861	4940.72
681.052	4885.43
681.242	4932.53
681.432	4965.3
681.622	4834.23
681.813	4690.87
682.003	4869.05
682.193	4803.51
682.383	4926.39
682.573	4768.7
682.764	4887.48
682.954	4811.7
683.144	4920.24
683.334	4821.94
683.524	4793.27
683.714	4787.13
683.904	4772.79
684.094	4762.55
684.284	4711.35
684.474	4836.28
684.664	4731.83
684.854	4776.89
685.044	4668.34
685.234	4793.27
685.424	4666.3
685.614	4656.06
685.804	4615.1
685.994	4729.78
686.184	4678.58
686.374	4727.74
686.564	4670.39
686.753	4580.28
686.943	4600.76
687.133	4705.21
687.323	4561.85
687.513	4711.35
687.702	4625.34
687.892	4637.63
688.082	4570.04
688.272	4666.3
688.461	4432.83
688.651	4615.1
688.841	4547.51
689.03	4465.6
689.22	4547.51
689.41	4531.13
689.599	4336.57
689.789	4600.76
689.979	4385.73
690.168	4432.83
690.358	4357.05
690.547	4309.95
690.737	4457.4
690.926	4312
691.116	4481.98
691.305	4412.35
691.495	4383.68
691.684	4277.18
691.874	4357.05
692.063	4459.45
692.252	4277.18
692.442	4449.21
692.631	4201.41
692.82	4234.18
693.01	4285.37
693.199	4232.13
693.388	4201.41
693.578	4185.02
693.767	4279.23
693.956	4133.82
694.146	4162.5
694.335	4187.07
694.524	4076.48
694.713	4246.46
694.902	4166.59
695.092	4086.72
695.281	4219.84
695.47	4103.11
695.659	4088.77
695.848	4232.13
696.037	4109.25
696.226	4219.84
696.415	4121.54
696.604	4064.19
696.793	4015.04
696.982	4082.63
697.171	4142.02
697.36	4182.98
697.549	4015.04
697.738	4027.33
697.927	4008.9
698.116	4178.88
698.305	3892.16
698.494	4019.14
698.683	4160.45
698.872	3976.13
699.061	3974.08
699.25	4021.19
699.438	3984.32
699.627	4047.81
699.816	4010.95
700.005	3883.97
700.193	4008.9
700.382	3898.31
700.571	3976.13
700.76	4008.9
700.948	3990.47
701.137	3797.96
701.326	3881.92
701.514	3834.82
701.703	3861.45
701.892	3943.36
702.08	3986.37
702.269	3918.79
702.457	3859.4
702.646	3765.19
702.834	3757
703.023	3843.01
703.212	3834.82
703.4	3886.02
703.589	3769.29
703.777	3797.96
703.965	3812.29
704.154	3740.61
704.342	3658.7
704.531	3648.46
704.719	3679.18
704.907	3679.18
705.096	3630.02
705.284	3746.76
705.472	3599.31
705.661	3685.32
705.849	3738.57
706.037	3718.09
706.226	3625.93
706.414	3789.77
706.602	3613.64
706.79	3572.68
706.979	3464.14
707.167	3576.78
707.355	3564.49
707.543	3644.36
707.731	3501
707.919	3572.68
708.107	3431.37
708.296	3554.25
708.484	3519.43
708.672	3572.68
708.86	3566.54
709.048	3386.32
709.236	3326.93
709.424	3474.38
709.612	3410.89
709.8	3402.7
709.988	3335.12
710.176	3507.15
710.364	3490.76
710.551	3298.25
710.739	3433.42
710.927	3470.28
711.115	3394.51
711.303	3255.25
711.491	3374.03
711.679	3253.2
711.866	3234.77
712.054	3453.9
712.242	3378.12
712.43	3482.57
712.617	3318.73
712.805	3345.36
712.993	3386.32
713.181	3298.25
713.368	3261.39
713.556	3208.14
713.744	3066.83
713.931	3343.31
714.119	3064.79
714.306	3281.87
714.494	3222.48
714.682	3085.26
714.869	3118.03
715.057	3130.32
715.244	3146.7
715.432	3175.38
715.619	3179.47
715.807	3167.18
715.994	3195.86
716.182	3115.98
716.369	3288.01
716.556	3029.97
716.744	3089.36
716.931	3060.69
717.119	3046.35
717.306	3060.69
717.493	3042.26
717.681	2966.48
717.868	3103.7
718.055	2913.24
718.242	3038.16
718.43	3019.73
718.617	3040.21
718.804	2968.53
718.991	3052.5
719.179	3083.22
719.366	2892.76
719.553	2907.09
719.74	2816.98
719.927	2941.91
720.114	2958.29
720.301	2870.23
720.488	2837.46
720.676	2855.89
720.863	2794.45
721.05	2923.48
721.237	2913.24
721.424	2792.41
721.611	2827.22
721.798	2759.64
721.985	2780.12
722.172	2909.14
722.358	2714.58
722.545	2790.36
722.732	2771.93
722.919	2710.49
723.106	2620.38
723.293	2763.73
723.48	2745.3
723.667	2788.31
723.853	2767.83
724.04	2804.69
724.227	2722.77
724.414	2651.1
724.6	2581.46
724.787	2671.58
724.974	2749.4
725.161	2704.34
725.347	2753.49
725.534	2638.81
725.72	2667.48
725.907	2714.58
726.094	2616.28
726.28	2626.52
726.467	2610.14
726.653	2499.55
726.84	2733.01
727.027	2722.77
727.213	2544.6
727.4	2735.06
727.586	2642.9
727.773	2532.31
727.959	2515.93
728.145	2606.04
728.332	2550.75
728.518	2528.22
728.705	2503.64
728.891	2524.12
729.077	2524.12
729.264	2554.84
729.45	2595.8
729.636	2501.59
729.823	2567.13
730.009	2456.54
730.195	2411.48
730.382	2573.27
730.568	2450.39
730.754	2368.48
730.94	2386.91
731.126	2302.94
731.313	2454.49
731.499	2474.97
731.685	2458.59
731.871	2419.68
732.057	2560.98
732.243	2405.34
732.429	2388.96
732.615	2511.83
732.801	2483.16
732.987	2399.2
733.173	2360.28
733.359	2354.14
733.545	2345.95
733.731	2321.37
733.917	2335.71
734.103	2384.86
734.289	2360.28
734.475	2266.08
734.661	2362.33
734.847	2261.98
735.033	2325.47
735.219	2444.25
735.404	2216.93
735.59	2304.99
735.776	2186.21
735.962	2192.35
736.148	2216.93
736.333	2300.89
736.519	2276.32
736.705	2261.98
736.89	2253.79
737.076	2292.7
737.262	2292.7
737.447	2173.92
737.633	2257.89
737.819	2145.25
738.004	2122.72
738.19	2163.68
738.375	2098.14
738.561	2298.84
738.747	2221.02
738.932	2071.52
739.118	2221.02
739.303	2182.11
739.489	2059.23
739.674	2073.57
739.859	2102.24
740.045	1999.84
740.23	2073.57
740.416	2026.47
740.601	2114.53
740.786	2042.85
740.972	2130.91
741.157	2040.8
741.342	2057.18
741.528	1833.96
741.713	2012.13
741.898	2008.03
742.084	1876.96
742.269	2057.18
742.454	1985.51
742.639	2044.9
742.824	1917.92
743.01	1997.79
743.195	1969.12
743.38	1967.07
743.565	1856.48
743.75	1864.68
743.935	1938.4
744.12	1991.65
744.305	1868.77
744.49	1930.21
744.675	1885.16
744.86	1805.28
745.045	1893.35
745.23	1844.2
745.415	1821.67
745.6	1819.62
745.785	1846.24
745.97	1856.48
746.155	1784.8
746.34	1811.43
746.525	1772.52
746.71	1788.9
746.895	1760.23
747.079	1766.37
747.264	1655.78
747.449	1704.93
747.634	1711.08
747.819	1731.56
748.003	1623.02
748.188	1684.45
748.373	1674.21
748.557	1801.19
748.742	1641.45
748.927	1551.34
749.111	1696.74
749.296	1526.76
749.481	1641.45
749.665	1704.93
749.85	1573.86
750.034	1547.24
750.219	1534.95
750.404	1551.34
750.588	1483.75
750.773	1524.71
750.957	1557.48
751.141	1485.8
751.326	1532.9
751.51	1502.19
751.695	1514.47
751.879	1477.61
752.064	1629.16
752.248	1442.79
752.432	1524.71
752.617	1440.75
752.801	1360.88
752.985	1342.44
753.17	1403.88
753.354	1432.55
753.538	1405.93
753.722	1373.16
753.907	1450.99
754.091	1289.2
754.275	1338.35
754.459	1295.34
754.643	1229.81
754.828	1330.16
755.012	1344.49
755.196	1256.43
755.38	1307.63
755.564	1233.9
755.748	1311.72
755.932	1328.11
756.116	1309.68
756.3	1317.87
756.484	1225.71
756.668	1205.23
756.852	1074.16
757.036	1174.51
757.22	1213.42
757.404	1178.61
757.588	1201.13
757.772	1238
757.956	1188.85
758.14	1217.52
758.323	1080.3
758.507	1207.28
758.691	1117.17
758.875	1221.61
759.059	1090.54
759.242	1065.97
759.426	1072.11
759.61	1082.35
759.794	1072.11
759.977	1070.06
760.161	1190.89
760.345	973.81
760.528	1100.78
760.712	1012.72
760.895	1084.4
761.079	1094.64
761.263	1090.54
761.446	922.61
761.63	977.91
761.813	984.05
761.997	1051.63
762.18	1051.63
762.364	1068.02
762.547	928.75
762.731	951.28
762.914	1000.43
763.098	918.51
763.281	1012.72
763.464	1000.43
763.648	967.67
763.831	955.38
764.015	1025.01
764.198	959.47
764.381	961.52
764.564	902.13
764.748	951.28
764.931	934.9
765.114	910.32
765.297	852.98
765.481	891.89
765.664	877.55
765.847	1002.48
766.03	945.14
766.213	844.79
766.397	898.03
766.58	840.69
766.763	889.84
766.946	850.93
767.129	844.79
767.312	877.55
767.495	914.42
767.678	889.84
767.861	883.7
768.044	916.47
768.227	895.99
768.41	855.03
768.593	859.12
768.776	850.93
768.959	906.23
769.142	836.6
769.324	910.32
769.507	838.64
769.69	926.71
769.873	918.51
770.056	836.6
770.239	861.17
770.421	846.84
770.604	871.41
770.787	828.4
770.97	855.03
771.152	812.02
771.335	852.98
771.518	805.88
771.7	830.45
771.883	836.6
772.066	885.75
772.248	773.11
772.431	779.25
772.613	855.03
772.796	807.92
772.978	732.15
773.161	723.96
773.343	732.15
773.526	713.72
773.708	676.85
773.891	719.86
774.073	648.18
774.256	736.24
774.438	807.92
774.621	705.53
774.803	680.95
774.985	732.15
775.168	699.38
775.35	672.76
775.532	773.11
775.715	738.29
775.897	648.18
776.079	678.9
776.261	726
776.444	664.57
776.626	609.27
776.808	586.74
776.99	603.13
777.173	664.57
777.355	629.75
777.537	627.7
777.719	635.89
777.901	723.96
778.083	541.69
778.265	689.14
778.447	596.98
778.629	558.07
778.811	611.32
778.993	648.18
779.175	556.02
779.357	541.69
779.539	592.89
779.721	672.76
779.903	551.93
780.085	633.85
780.267	594.93
780.449	566.26
780.631	574.46
780.812	543.74
780.994	578.55
781.176	564.22
781.358	500.73
781.54	541.69
781.721	590.84
781.903	625.65
782.085	500.73
782.267	582.65
782.448	484.34
782.63	459.77
782.812	535.54
782.993	504.82
783.175	525.3
783.357	427
783.538	535.54
783.72	480.25
783.901	566.26
784.083	533.5
784.264	467.96
784.446	410.62
784.627	410.62
784.809	463.86
784.99	472.06
785.172	480.25
785.353	451.58
785.535	502.78
785.716	406.52
785.897	398.33
786.079	461.82
786.26	408.57
786.441	472.06
786.623	349.18
786.804	431.1
786.985	433.15
787.167	467.96
787.348	504.82
787.529	410.62
787.71	476.15
787.891	414.71
788.073	336.89
788.254	345.08
788.435	453.63
788.616	386.04
788.797	369.66
788.978	351.23
789.159	435.19
789.34	398.33
789.522	320.51
789.703	273.4
789.884	388.09
790.065	340.99
790.246	449.53
790.427	416.76
790.607	349.18
790.788	437.24
790.969	345.08
791.15	287.74
791.331	295.93
791.512	338.94
791.693	285.69
791.874	347.13
792.054	383.99
792.235	371.71
792.416	300.03
792.597	369.66
792.778	279.55
792.958	424.95
793.139	300.03
793.32	259.07
793.5	250.88
793.681	371.71
793.862	330.75
794.042	297.98
794.223	291.84
794.404	216.06
794.584	224.25
794.765	275.45
794.945	322.56
795.126	328.7
795.306	345.08
795.487	216.06
795.667	248.83
795.848	306.17
796.028	222.2
796.209	248.83
796.389	318.46
796.57	275.45
796.75	187.39
796.93	226.3
797.111	244.73
797.291	289.79
797.471	312.32
797.652	396.28
797.832	287.74
798.012	257.02
798.192	222.2
798.373	216.06
798.553	324.6
798.733	338.94
798.913	295.93
799.093	314.36
799.274	297.98
799.454	263.16
799.634	248.83
799.814	295.93
799.994	289.79
800.174	336.89
800.354	232.44
800.534	265.21
800.714	234.49
800.894	222.2
801.074	164.86
801.254	205.82
801.434	226.3
801.614	230.4
801.794	205.82
801.974	1049.58
802.154	168.96
802.334	218.11
802.514	193.53
802.693	273.4
802.873	166.91
803.053	320.51
803.233	306.17
803.413	183.29
803.592	140.29
803.772	205.82
803.952	295.93
804.131	146.43
804.311	214.01
804.491	242.68
804.67	181.25
804.85	156.67
805.03	148.48
805.209	259.07
805.389	218.11
805.568	156.67
805.748	168.96
805.928	144.38
806.107	199.68
806.287	246.78
806.466	242.68
806.646	175.1
806.825	222.2
807.004	156.67
807.184	244.73
807.363	207.87
807.543	128
807.722	144.38
807.901	242.68
808.081	205.82
808.26	105.47
808.439	191.49
808.619	203.77
808.798	181.25
808.977	132.09
809.156	259.07
809.336	214.01
809.515	205.82
809.694	160.77
809.873	166.91
810.052	117.76
810.231	181.25
810.411	179.2
810.59	232.44
810.769	117.76
810.948	150.53
811.127	152.57
811.306	187.39
811.485	156.67
811.664	271.36
811.843	173.05
812.022	156.67
812.201	148.48
812.38	216.06
812.559	189.44
812.737	177.15
812.916	74.75
813.095	121.85
813.274	199.68
813.453	185.34
813.632	136.19
813.811	199.68
813.989	107.52
814.168	136.19
814.347	144.38
814.526	142.33
814.704	183.29
814.883	214.01
815.062	132.09
815.24	197.63
815.419	107.52
815.598	158.72
815.776	84.99
815.955	123.9
816.133	82.94
816.312	195.58
816.49	91.13
816.669	136.19
816.847	115.71
817.026	148.48
817.204	205.82
817.383	152.57
817.561	-3.07
817.74	144.38
817.918	197.63
818.097	158.72
818.275	72.7
818.453	130.05
818.632	142.33
818.81	74.75
818.988	17.41
819.167	136.19
819.345	128
819.523	140.29
819.701	142.33
819.879	138.24
820.058	166.91
820.236	132.09
820.414	103.42
820.592	68.61
820.77	62.46
820.948	175.1
821.127	140.29
821.305	158.72
821.483	158.72
821.661	119.81
821.839	76.8
822.017	74.75
822.195	103.42
822.373	140.29
822.551	95.23
822.729	93.18
822.907	115.71
823.085	128
823.262	103.42
823.44	95.23
823.618	119.81
823.796	101.37
823.974	27.65
824.152	41.98
824.329	78.85
824.507	101.37
824.685	132.09
824.863	25.6
825.04	3.07
825.218	156.67
825.396	17.41
825.574	125.95
825.751	44.03
825.929	99.33
826.107	-13.31
826.284	46.08
826.462	41.98
826.639	140.29
826.817	58.37
826.994	52.22
827.172	74.75
827.349	58.37
827.527	91.13
827.704	97.28
827.882	117.76
828.059	148.48
828.237	87.04
828.414	78.85
828.591	29.7
828.769	29.7
828.946	76.8
829.124	115.71
829.301	60.42
829.478	54.27
829.655	58.37
829.833	156.67
830.01	87.04
830.187	191.49
830.364	35.84
830.542	54.27
830.719	117.76
830.896	95.23
831.073	78.85
831.25	125.95
831.427	66.56
831.604	23.55
831.782	66.56
831.959	91.13
832.136	29.7
832.313	58.37
832.49	46.08
832.667	74.75
832.844	72.7
833.021	62.46
833.198	23.55
833.374	-7.17
833.551	109.57
833.728	66.56
833.905	115.71
834.082	140.29
834.259	101.37
834.436	164.86
834.612	87.04
834.789	91.13
834.966	78.85
835.143	99.33
835.319	37.89
835.496	105.47
835.673	123.9
835.85	150.53
836.026	111.61
836.203	101.37
836.38	91.13
836.556	91.13
836.733	74.75
836.909	115.71
837.086	-13.31
837.262	35.84
837.439	62.46
837.616	52.22
837.792	37.89
837.968	99.33
838.145	-3.07
838.321	50.18
838.498	46.08
838.674	68.61
838.851	117.76
839.027	93.18
839.203	35.84
839.38	50.18
839.556	87.04
839.732	66.56
839.909	23.55
840.085	115.71
840.261	44.03
840.437	46.08
840.614	29.7
840.79	62.46
840.966	62.46
841.142	27.65
841.318	25.6
841.494	91.13
841.671	41.98
841.847	74.75
842.023	46.08
842.199	95.23
842.375	35.84
842.551	35.84
842.727	50.18
842.903	62.46
843.079	46.08
843.255	87.04
843.431	50.18
843.607	21.5
843.783	25.6
843.959	93.18
844.134	35.84
844.31	119.81
844.486	21.5
844.662	5.12
844.838	17.41
845.013	50.18
845.189	35.84
845.365	91.13
845.541	64.51
845.716	50.18
845.892	82.94
846.068	25.6
846.244	-31.74
846.419	15.36
846.595	29.7
846.77	-17.41
846.946	41.98
847.122	62.46
847.297	-11.26
847.473	76.8
847.648	1.02
847.824	1.02
847.999	-15.36
848.175	-21.5
848.35	68.61
848.526	76.8
848.701	33.79
848.876	60.42
849.052	52.22
849.227	7.17
849.403	-3.07
849.578	-5.12
849.753	87.04
849.929	41.98
850.104	-21.5
850.279	76.8
850.454	-15.36
850.63	46.08
850.805	84.99
850.98	11.26
851.155	17.41
851.33	23.55
851.505	-7.17
851.681	44.03
851.856	1.02
852.031	23.55
852.206	123.9
852.381	52.22
852.556	1.02
852.731	44.03
852.906	31.74
853.081	41.98
853.256	41.98
853.431	-37.89
853.606	-11.26
853.781	41.98
853.956	-3.07
854.131	-13.31
854.305	-23.55
854.48	9.22
854.655	64.51
854.83	52.22
855.005	91.13
855.18	54.27
855.354	66.56
855.529	74.75
855.704	-19.46
855.879	66.56
856.053	15.36
856.228	-3.07
856.403	23.55
856.577	70.65
856.752	-72.7
856.926	11.26
857.101	66.56
857.276	-68.61
857.45	121.85
857.625	11.26
857.799	41.98
857.974	-31.74
858.148	27.65
858.323	27.65
858.497	-56.32
858.672	37.89
858.846	37.89
859.02	99.33
859.195	41.98
859.369	-7.17
859.543	13.31
859.718	-1.02
859.892	84.99
860.066	84.99
860.241	-5.12
860.415	27.65
860.589	33.79
860.763	27.65
860.938	27.65
861.112	66.56
861.286	78.85
861.46	35.84
861.634	9.22
861.808	93.18
861.982	-44.03
862.157	21.5
862.331	-23.55
862.505	21.5
862.679	-7.17
862.853	27.65
863.027	15.36
863.201	50.18
863.375	-25.6
863.549	52.22
863.722	58.37
863.896	19.46
864.07	-7.17
864.244	101.37
864.418	46.08
864.592	-15.36
864.766	-1.02
864.939	39.94
865.113	19.46
865.287	52.22
865.461	-15.36
865.634	-44.03
865.808	13.31
865.982	74.75
866.156	-7.17
866.329	84.99
866.503	33.79
866.676	50.18
866.85	13.31
867.024	-128
867.197	41.98
867.371	62.46
867.544	17.41
867.718	-27.65
867.891	107.52
868.065	-70.65
868.238	-11.26
868.412	105.47
868.585	21.5
868.759	-46.08
868.932	7.17
869.105	-23.55
869.279	1.02
869.452	-70.65
869.625	-56.32
869.799	84.99
869.972	17.41
870.145	-7.17
870.319	-13.31
870.492	-23.55
870.665	3.07
870.838	31.74
871.011	19.46
871.185	91.13
871.358	-9.22
871.531	41.98
871.704	19.46
871.877	-56.32
872.05	-35.84
872.223	17.41
872.396	5.12
872.569	33.79
872.742	-68.61
872.915	82.94
873.088	-50.18
873.261	-7.17
873.434	15.36
873.607	41.98
873.78	72.7
873.953	-35.84
874.126	33.79
874.299	27.65
874.471	-3.07
874.644	17.41
874.817	52.22
874.99	29.7
875.163	-15.36
875.335	37.89
875.508	-15.36
875.681	-23.55
875.853	-29.7
876.026	11.26
876.199	44.03
876.371	82.94
876.544	-27.65
876.717	-9.22
876.889	-29.7
877.062	68.61
877.234	-15.36
877.407	-13.31
877.579	37.89
877.752	3.07
877.924	5.12
878.097	-29.7
878.269	62.46
878.442	-3.07
878.614	72.7
878.786	41.98
878.959	33.79
879.131	-27.65
879.303	-25.6
879.476	37.89
879.648	41.98
879.82	25.6
879.993	-52.22
880.165	-44.03
880.337	-89.09
880.509	-29.7
880.681	-70.65
880.854	17.41
881.026	-19.46
881.198	78.85
881.37	-66.56
881.542	33.79
881.714	19.46
881.886	25.6
882.058	27.65
882.23	5.12
882.402	-11.26
882.574	1.02
882.746	-48.13
882.918	-21.5
883.09	50.18
883.262	-15.36
883.434	66.56
883.606	-5.12
883.778	-3.07
883.95	95.23
884.122	-21.5
884.293	41.98
884.465	33.79
884.637	54.27
884.809	-25.6
884.98	37.89
885.152	62.46
885.324	-72.7
885.496	-78.85
885.667	19.46
885.839	25.6
886.011	37.89
886.182	48.13
886.354	44.03
886.525	-29.7
886.697	-15.36
886.869	21.5
887.04	19.46
887.212	50.18
887.383	50.18
887.555	-56.32
887.726	-15.36
887.897	9.22
888.069	25.6
888.24	3.07
888.412	-41.98
888.583	11.26
888.754	21.5
888.926	-23.55
889.097	-66.56
889.268	-37.89
889.44	66.56
889.611	-68.61
889.782	-41.98
889.953	-9.22
890.125	48.13
890.296	-19.46
890.467	-15.36
890.638	-11.26
890.809	13.31
890.98	-56.32
891.151	46.08
891.323	33.79
891.494	33.79
891.665	-7.17
891.836	9.22
892.007	41.98
892.178	84.99
892.349	41.98
892.52	-7.17
892.691	35.84
892.862	-7.17
893.032	-17.41
893.203	-21.5
893.374	41.98
893.545	17.41
893.716	-11.26
893.887	17.41
894.057	1.02
894.228	7.17
894.399	41.98
894.57	29.7
894.74	27.65
894.911	-7.17
895.082	5.12
895.253	-31.74
895.423	74.75
895.594	56.32
895.764	82.94
895.935	25.6
896.106	-15.36
896.276	72.7
896.447	-56.32
896.617	-23.55
896.788	-35.84
896.958	-82.94
897.129	-5.12
897.299	-33.79
897.47	17.41
897.64	35.84
897.81	17.41
897.981	50.18
898.151	17.41
898.322	-37.89
898.492	-3.07
898.662	-29.7
898.832	50.18
899.003	-64.51
899.173	9.22
899.343	3.07
899.513	-60.42
