Data from USB4F104151__132__14-31-42-403.txt Node

Date: Thu Mar 13 14:31:42 EDT 2025
User: louis
Spectrometer: USB4F10415
Trigger mode: 4
Integration Time (sec): 2.500000E-2
Scans to average: 1
Electric dark correction enabled: true
Nonlinearity correction enabled: false
Boxcar width: 0
XAxis mode: Wavelengths
Number of Pixels in Spectrum: 3648
>>>>>Begin Spectral Data<<<<<
178.204	-163.84
178.424	-163.84
178.644	-163.84
178.864	-151.55
179.084	-122.88
179.304	-12.29
179.524	-43.01
179.744	63.49
179.964	57.34
180.184	-47.1
180.404	-8.19
180.624	20.48
180.844	-47.1
181.064	-24.58
181.283	-12.29
181.503	18.43
181.723	34.82
181.943	-86.01
182.163	96.25
182.383	-40.96
182.602	43.01
182.822	49.15
183.042	59.39
183.262	65.54
183.482	-36.86
183.701	-4.1
183.921	26.62
184.141	92.16
184.361	114.69
184.58	0
184.8	-16.38
185.02	0
185.239	18.43
185.459	45.06
185.679	51.2
185.898	-14.34
186.118	114.69
186.338	32.77
186.557	55.3
186.777	8.19
186.997	-8.19
187.216	40.96
187.436	24.58
187.655	94.21
187.875	73.73
188.095	57.34
188.314	53.25
188.534	94.21
188.753	8.19
188.973	53.25
189.192	147.45
189.412	53.25
189.631	51.2
189.851	30.72
190.07	45.06
190.29	2.05
190.509	32.77
190.729	-22.53
190.948	32.77
191.168	159.74
191.387	20.48
191.607	2.05
191.826	65.54
192.045	38.91
192.265	40.96
192.484	79.87
192.704	24.58
192.923	-16.38
193.142	110.59
193.362	28.67
193.581	86.01
193.8	40.96
194.02	14.34
194.239	34.82
194.458	43.01
194.678	57.34
194.897	20.48
195.116	83.97
195.335	20.48
195.555	102.4
195.774	26.62
195.993	49.15
196.212	24.58
196.432	-20.48
196.651	-36.86
196.87	32.77
197.089	122.88
197.308	34.82
197.528	65.54
197.747	57.34
197.966	24.58
198.185	65.54
198.404	73.73
198.623	73.73
198.842	67.58
199.062	16.38
199.281	32.77
199.5	40.96
199.719	-16.38
199.938	40.96
200.157	90.11
200.376	16.38
200.595	59.39
200.814	43.01
201.033	67.58
201.252	40.96
201.471	57.34
201.69	159.74
201.909	32.77
202.128	45.06
202.347	49.15
202.566	0
202.785	-12.29
203.004	32.77
203.223	129.02
203.442	59.39
203.661	10.24
203.879	30.72
204.098	100.35
204.317	40.96
204.536	81.92
204.755	-12.29
204.974	-4.1
205.193	14.34
205.411	135.17
205.63	57.34
205.849	69.63
206.068	38.91
206.287	0
206.505	-45.06
206.724	65.54
206.943	57.34
207.162	16.38
207.381	22.53
207.599	139.26
207.818	24.58
208.037	51.2
208.255	61.44
208.474	36.86
208.693	106.49
208.911	32.77
209.13	2.05
209.349	14.34
209.567	116.73
209.786	40.96
210.005	106.49
210.223	53.25
210.442	18.43
210.661	20.48
210.879	8.19
211.098	102.4
211.316	18.43
211.535	43.01
211.753	24.58
211.972	63.49
212.191	32.77
212.409	24.58
212.628	108.54
212.846	20.48
213.065	98.3
213.283	163.84
213.502	18.43
213.72	86.01
213.938	38.91
214.157	-26.62
214.375	-36.86
214.594	8.19
214.812	51.2
215.031	61.44
215.249	40.96
215.467	116.73
215.686	65.54
215.904	-12.29
216.122	8.19
216.341	71.68
216.559	20.48
216.778	104.45
216.996	81.92
217.214	24.58
217.432	51.2
217.651	20.48
217.869	155.65
218.087	32.77
218.306	92.16
218.524	71.68
218.742	32.77
218.96	2.05
219.179	26.62
219.397	73.73
219.615	112.64
219.833	10.24
220.051	-14.34
220.27	49.15
220.488	139.26
220.706	40.96
220.924	40.96
221.142	106.49
221.36	36.86
221.578	131.07
221.796	92.16
222.015	2.05
222.233	-12.29
222.451	63.49
222.669	-8.19
222.887	51.2
223.105	32.77
223.323	32.77
223.541	40.96
223.759	55.3
223.977	75.77
224.195	92.16
224.413	71.68
224.631	24.58
224.849	4.1
225.067	118.78
225.285	18.43
225.503	108.54
225.721	-24.58
225.939	10.24
226.157	100.35
226.375	88.06
226.592	-12.29
226.81	49.15
227.028	106.49
227.246	135.17
227.464	-26.62
227.682	57.34
227.9	-16.38
228.117	106.49
228.335	2.05
228.553	92.16
228.771	16.38
228.989	24.58
229.206	100.35
229.424	-57.34
229.642	81.92
229.86	-51.2
230.077	71.68
230.295	-40.96
230.513	16.38
230.731	92.16
230.948	90.11
231.166	57.34
231.384	45.06
231.601	92.16
231.819	0
232.037	49.15
232.254	59.39
232.472	92.16
232.689	-24.58
232.907	57.34
233.125	-8.19
233.342	122.88
233.56	8.19
233.777	8.19
233.995	75.77
234.213	180.22
234.43	12.29
234.648	90.11
234.865	51.2
235.083	51.2
235.3	-36.86
235.518	126.97
235.735	67.58
235.953	61.44
236.17	51.2
236.388	-34.82
236.605	51.2
236.822	118.78
237.04	2.05
237.257	45.06
237.475	16.38
237.692	24.58
237.909	-28.67
238.127	18.43
238.344	81.92
238.562	20.48
238.779	32.77
238.996	0
239.214	2.05
239.431	53.25
239.648	4.1
239.865	57.34
240.083	131.07
240.3	57.34
240.517	4.1
240.735	43.01
240.952	4.1
241.169	20.48
241.386	135.17
241.603	53.25
241.821	-18.43
242.038	116.73
242.255	71.68
242.472	49.15
242.689	135.17
242.907	43.01
243.124	73.73
243.341	-16.38
243.558	-20.48
243.775	94.21
243.992	57.34
244.209	49.15
244.426	51.2
244.643	40.96
244.86	16.38
245.078	40.96
245.295	94.21
245.512	88.06
245.729	67.58
245.946	24.58
246.163	40.96
246.38	81.92
246.597	73.73
246.814	8.19
247.031	-22.53
247.248	59.39
247.464	90.11
247.681	40.96
247.898	49.15
248.115	38.91
248.332	22.53
248.549	53.25
248.766	92.16
248.983	114.69
249.2	49.15
249.417	24.58
249.633	16.38
249.85	26.62
250.067	-12.29
250.284	28.67
250.501	14.34
250.717	61.44
250.934	-16.38
251.151	49.15
251.368	32.77
251.585	120.83
251.801	-38.91
252.018	100.35
252.235	16.38
252.451	4.1
252.668	-30.72
252.885	73.73
253.102	92.16
253.318	65.54
253.535	20.48
253.752	-4.1
253.968	-86.01
254.185	36.86
254.401	32.77
254.618	65.54
254.835	2.05
255.051	73.73
255.268	24.58
255.484	73.73
255.701	57.34
255.917	108.54
256.134	47.1
256.351	83.97
256.567	-24.58
256.784	81.92
257	106.49
257.217	38.91
257.433	40.96
257.65	-12.29
257.866	114.69
258.082	26.62
258.299	40.96
258.515	106.49
258.732	16.38
258.948	22.53
259.165	94.21
259.381	18.43
259.597	34.82
259.814	59.39
260.03	57.34
260.246	55.3
260.463	141.31
260.679	106.49
260.895	47.1
261.112	8.19
261.328	47.1
261.544	-55.3
261.761	124.93
261.977	53.25
262.193	-53.25
262.409	110.59
262.626	108.54
262.842	4.1
263.058	-79.87
263.274	77.82
263.49	98.3
263.707	77.82
263.923	57.34
264.139	-38.91
264.355	59.39
264.571	49.15
264.787	45.06
265.004	124.93
265.22	57.34
265.436	-14.34
265.652	51.2
265.868	43.01
266.084	-45.06
266.3	73.73
266.516	40.96
266.732	92.16
266.948	59.39
267.164	65.54
267.38	8.19
267.596	18.43
267.812	77.82
268.028	20.48
268.244	24.58
268.46	30.72
268.676	90.11
268.892	69.63
269.108	-14.34
269.324	-6.14
269.54	0
269.756	81.92
269.972	-14.34
270.188	90.11
270.403	30.72
270.619	18.43
270.835	28.67
271.051	28.67
271.267	51.2
271.483	22.53
271.698	28.67
271.914	94.21
272.13	16.38
272.346	61.44
272.562	73.73
272.777	2.05
272.993	61.44
273.209	69.63
273.425	30.72
273.64	102.4
273.856	10.24
274.072	59.39
274.287	-18.43
274.503	32.77
274.719	45.06
274.934	8.19
275.15	-45.06
275.366	-4.1
275.581	8.19
275.797	110.59
276.012	-14.34
276.228	-67.58
276.444	57.34
276.659	100.35
276.875	-30.72
277.09	-57.34
277.306	51.2
277.521	20.48
277.737	40.96
277.952	135.17
278.168	61.44
278.383	45.06
278.599	-2.05
278.814	90.11
279.03	81.92
279.245	135.17
279.461	10.24
279.676	71.68
279.892	98.3
280.107	10.24
280.322	77.82
280.538	32.77
280.753	24.58
280.969	8.19
281.184	75.77
281.399	139.26
281.615	49.15
281.83	24.58
282.045	47.1
282.26	16.38
282.476	16.38
282.691	43.01
282.906	24.58
283.122	73.73
283.337	24.58
283.552	-14.34
283.767	32.77
283.983	126.97
284.198	8.19
284.413	-6.14
284.628	10.24
284.843	83.97
285.058	65.54
285.274	-8.19
285.489	-8.19
285.704	79.87
285.919	-22.53
286.134	102.4
286.349	131.07
286.564	34.82
286.779	133.12
286.995	-8.19
287.21	40.96
287.425	40.96
287.64	43.01
287.855	65.54
288.07	-49.15
288.285	65.54
288.5	81.92
288.715	49.15
288.93	-12.29
289.145	22.53
289.36	98.3
289.575	65.54
289.79	73.73
290.004	69.63
290.219	-12.29
290.434	-30.72
290.649	34.82
290.864	2.05
291.079	2.05
291.294	28.67
291.509	36.86
291.724	81.92
291.938	75.77
292.153	90.11
292.368	18.43
292.583	98.3
292.798	38.91
293.012	59.39
293.227	18.43
293.442	59.39
293.657	98.3
293.871	98.3
294.086	79.87
294.301	83.97
294.516	106.49
294.73	114.69
294.945	-22.53
295.16	131.07
295.374	18.43
295.589	100.35
295.804	-8.19
296.018	-2.05
296.233	94.21
296.447	112.64
296.662	24.58
296.877	114.69
297.091	-6.14
297.306	10.24
297.52	26.62
297.735	57.34
297.949	22.53
298.164	81.92
298.378	40.96
298.593	-6.14
298.807	30.72
299.022	86.01
299.236	22.53
299.451	40.96
299.665	36.86
299.88	92.16
300.094	16.38
300.309	53.25
300.523	51.2
300.737	47.1
300.952	6.14
301.166	81.92
301.381	24.58
301.595	51.2
301.809	69.63
302.024	83.97
302.238	24.58
302.452	45.06
302.667	139.26
302.881	6.14
303.095	49.15
303.309	32.77
303.524	77.82
303.738	69.63
303.952	75.77
304.166	49.15
304.381	-59.39
304.595	106.49
304.809	47.1
305.023	-12.29
305.237	92.16
305.452	-16.38
305.666	2.05
305.88	18.43
306.094	34.82
306.308	67.58
306.522	92.16
306.736	57.34
306.95	98.3
307.164	32.77
307.379	40.96
307.593	90.11
307.807	86.01
308.021	73.73
308.235	36.86
308.449	2.05
308.663	-16.38
308.877	106.49
309.091	45.06
309.305	75.77
309.519	28.67
309.733	59.39
309.947	-12.29
310.161	57.34
310.374	67.58
310.588	59.39
310.802	16.38
311.016	73.73
311.23	65.54
311.444	-24.58
311.658	53.25
311.872	59.39
312.085	49.15
312.299	139.26
312.513	73.73
312.727	65.54
312.941	4.1
313.154	65.54
313.368	90.11
313.582	14.34
313.796	112.64
314.009	51.2
314.223	86.01
314.437	67.58
314.651	36.86
314.864	106.49
315.078	10.24
315.292	22.53
315.505	-32.77
315.719	59.39
315.933	118.78
316.146	59.39
316.36	0
316.573	49.15
316.787	94.21
317.001	40.96
317.214	40.96
317.428	73.73
317.641	92.16
317.855	4.1
318.068	51.2
318.282	40.96
318.495	106.49
318.709	81.92
318.922	38.91
319.136	16.38
319.349	96.25
319.563	79.87
319.776	88.06
319.99	20.48
320.203	98.3
320.417	26.62
320.63	61.44
320.843	69.63
321.057	63.49
321.27	24.58
321.483	102.4
321.697	94.21
321.91	100.35
322.124	-6.14
322.337	43.01
322.55	51.2
322.763	65.54
322.977	-24.58
323.19	10.24
323.403	34.82
323.617	139.26
323.83	139.26
324.043	100.35
324.256	51.2
324.469	6.14
324.683	98.3
324.896	83.97
325.109	92.16
325.322	49.15
325.535	28.67
325.748	106.49
325.962	28.67
326.175	98.3
326.388	94.21
326.601	86.01
326.814	83.97
327.027	28.67
327.24	108.54
327.453	16.38
327.666	102.4
327.879	81.92
328.092	83.97
328.305	45.06
328.518	73.73
328.731	-45.06
328.944	49.15
329.157	49.15
329.37	0
329.583	75.77
329.796	81.92
330.009	-16.38
330.222	34.82
330.435	6.14
330.648	34.82
330.861	73.73
331.073	16.38
331.286	108.54
331.499	51.2
331.712	32.77
331.925	61.44
332.138	75.77
332.35	96.25
332.563	49.15
332.776	53.25
332.989	43.01
333.202	0
333.414	77.82
333.627	92.16
333.84	8.19
334.053	40.96
334.265	32.77
334.478	-47.1
334.691	106.49
334.903	53.25
335.116	-8.19
335.329	98.3
335.541	77.82
335.754	114.69
335.966	18.43
336.179	83.97
336.392	4.1
336.604	81.92
336.817	24.58
337.029	8.19
337.242	2.05
337.454	122.88
337.667	-2.05
337.88	116.73
338.092	57.34
338.305	10.24
338.517	45.06
338.729	88.06
338.942	40.96
339.154	83.97
339.367	40.96
339.579	40.96
339.792	20.48
340.004	45.06
340.217	110.59
340.429	90.11
340.641	71.68
340.854	49.15
341.066	59.39
341.278	126.97
341.491	174.08
341.703	83.97
341.915	34.82
342.128	40.96
342.34	98.3
342.552	81.92
342.764	20.48
342.977	0
343.189	116.73
343.401	38.91
343.613	2.05
343.826	61.44
344.038	83.97
344.25	65.54
344.462	90.11
344.674	73.73
344.886	94.21
345.099	26.62
345.311	77.82
345.523	24.58
345.735	-40.96
345.947	43.01
346.159	57.34
346.371	8.19
346.583	67.58
346.795	49.15
347.007	-14.34
347.219	71.68
347.431	-2.05
347.643	165.89
347.855	90.11
348.067	57.34
348.279	10.24
348.491	108.54
348.703	57.34
348.915	26.62
349.127	40.96
349.339	16.38
349.551	12.29
349.763	51.2
349.975	65.54
350.187	90.11
350.399	34.82
350.61	100.35
350.822	92.16
351.034	75.77
351.246	65.54
351.458	157.69
351.669	83.97
351.881	65.54
352.093	73.73
352.305	73.73
352.517	43.01
352.728	137.21
352.94	-4.1
353.152	92.16
353.363	-14.34
353.575	81.92
353.787	163.84
353.999	114.69
354.21	92.16
354.422	0
354.633	34.82
354.845	8.19
355.057	20.48
355.268	86.01
355.48	73.73
355.692	12.29
355.903	49.15
356.115	43.01
356.326	45.06
356.538	28.67
356.749	40.96
356.961	139.26
357.172	96.25
357.384	59.39
357.595	53.25
357.807	47.1
358.018	-4.1
358.23	36.86
358.441	73.73
358.653	57.34
358.864	92.16
359.075	0
359.287	108.54
359.498	90.11
359.709	96.25
359.921	51.2
360.132	98.3
360.344	24.58
360.555	45.06
360.766	22.53
360.977	43.01
361.189	147.45
361.4	110.59
361.611	178.17
361.823	100.35
362.034	63.49
362.245	65.54
362.456	57.34
362.667	81.92
362.879	106.49
363.09	49.15
363.301	139.26
363.512	94.21
363.723	28.67
363.935	81.92
364.146	12.29
364.357	24.58
364.568	116.73
364.779	73.73
364.99	51.2
365.201	83.97
365.412	49.15
365.623	40.96
365.834	40.96
366.045	47.1
366.256	182.27
366.467	108.54
366.678	8.19
366.889	30.72
367.1	100.35
367.311	20.48
367.522	98.3
367.733	36.86
367.944	110.59
368.155	10.24
368.366	108.54
368.577	75.77
368.788	124.93
368.999	4.1
369.209	83.97
369.42	94.21
369.631	114.69
369.842	-10.24
370.053	65.54
370.264	114.69
370.474	67.58
370.685	12.29
370.896	126.97
371.107	178.17
371.317	73.73
371.528	57.34
371.739	104.45
371.95	86.01
372.16	116.73
372.371	59.39
372.582	20.48
372.792	73.73
373.003	45.06
373.214	51.2
373.424	98.3
373.635	69.63
373.846	149.5
374.056	126.97
374.267	8.19
374.477	112.64
374.688	26.62
374.898	2.05
375.109	102.4
375.319	75.77
375.53	77.82
375.74	53.25
375.951	-14.34
376.161	100.35
376.372	59.39
376.582	73.73
376.793	26.62
377.003	40.96
377.214	32.77
377.424	36.86
377.635	59.39
377.845	10.24
378.055	57.34
378.266	43.01
378.476	65.54
378.686	75.77
378.897	28.67
379.107	-24.58
379.317	104.45
379.528	100.35
379.738	126.97
379.948	57.34
380.158	90.11
380.369	32.77
380.579	169.98
380.789	63.49
380.999	61.44
381.21	108.54
381.42	139.26
381.63	0
381.84	49.15
382.05	139.26
382.261	32.77
382.471	55.3
382.681	-12.29
382.891	147.45
383.101	8.19
383.311	77.82
383.521	20.48
383.731	77.82
383.941	122.88
384.151	22.53
384.361	81.92
384.571	100.35
384.781	53.25
384.991	147.45
385.201	141.31
385.411	67.58
385.621	98.3
385.831	131.07
386.041	49.15
386.251	65.54
386.461	83.97
386.671	36.86
386.881	61.44
387.091	40.96
387.301	57.34
387.511	10.24
387.72	98.3
387.93	106.49
388.14	36.86
388.35	16.38
388.56	90.11
388.769	139.26
388.979	65.54
389.189	-14.34
389.399	88.06
389.609	65.54
389.818	79.87
390.028	137.21
390.238	65.54
390.447	63.49
390.657	110.59
390.867	159.74
391.076	100.35
391.286	75.77
391.496	53.25
391.705	108.54
391.915	57.34
392.125	110.59
392.334	45.06
392.544	184.32
392.753	0
392.963	124.93
393.172	106.49
393.382	24.58
393.591	165.89
393.801	38.91
394.01	147.45
394.22	151.55
394.429	92.16
394.639	51.2
394.848	67.58
395.058	106.49
395.267	122.88
395.477	94.21
395.686	147.45
395.895	157.69
396.105	90.11
396.314	51.2
396.524	118.78
396.733	102.4
396.942	90.11
397.152	147.45
397.361	212.99
397.57	71.68
397.78	147.45
397.989	110.59
398.198	188.41
398.407	190.46
398.617	86.01
398.826	126.97
399.035	32.77
399.244	139.26
399.453	165.89
399.663	100.35
399.872	69.63
400.081	106.49
400.29	182.27
400.499	45.06
400.708	116.73
400.917	65.54
401.127	165.89
401.336	81.92
401.545	245.76
401.754	139.26
401.963	147.45
402.172	110.59
402.381	45.06
402.59	172.03
402.799	172.03
403.008	180.22
403.217	163.84
403.426	167.93
403.635	143.36
403.844	186.37
404.053	212.99
404.262	190.46
404.471	100.35
404.68	200.7
404.888	102.4
405.097	178.17
405.306	157.69
405.515	221.18
405.724	198.65
405.933	243.71
406.142	157.69
406.35	256
406.559	190.46
406.768	241.66
406.977	233.47
407.185	227.32
407.394	116.73
407.603	102.4
407.812	167.93
408.02	290.81
408.229	286.72
408.438	239.61
408.646	253.95
408.855	231.42
409.064	290.81
409.272	225.28
409.481	335.87
409.69	327.67
409.898	245.76
410.107	319.48
410.315	380.92
410.524	335.87
410.733	385.02
410.941	421.88
411.15	327.67
411.358	487.42
411.567	499.7
411.775	442.36
411.984	446.46
412.192	532.47
412.401	487.42
412.609	473.08
412.818	540.66
413.026	565.24
413.234	565.24
413.443	528.38
413.651	526.33
413.86	585.72
414.068	630.77
414.276	708.6
414.485	602.1
414.693	757.75
414.901	747.51
415.11	780.28
415.318	802.8
415.526	823.28
415.734	872.43
415.943	831.48
416.151	917.49
416.359	909.3
416.567	901.11
416.776	1038.32
416.984	1101.81
417.192	1112.05
417.4	1048.56
417.608	1015.79
417.817	1122.29
418.025	1220.59
418.233	1327.08
418.441	1212.4
418.649	1329.13
418.857	1286.12
419.065	1400.81
419.273	1470.44
419.481	1452.01
419.689	1558.5
419.897	1691.62
420.105	1544.17
420.313	1742.82
420.521	1906.66
420.729	1740.77
420.937	1837.03
421.145	1943.52
421.353	1986.53
421.561	2203.61
421.769	2246.62
421.977	2254.81
422.185	2179.04
422.393	2252.77
422.601	2484.19
422.809	2420.7
423.017	2426.84
423.224	2465.75
423.432	2605.02
423.64	2617.3
423.848	2947.03
424.056	2785.24
424.263	3071.95
424.471	3041.23
424.679	3110.86
424.887	3276.75
425.094	3264.46
425.302	3366.86
425.51	3518.41
425.718	3622.86
425.925	3692.49
426.133	3692.49
426.341	3989.44
426.548	4202.43
426.756	4159.42
426.964	4093.89
427.171	4458.43
427.379	4505.53
427.586	4603.83
427.794	4673.46
428.001	5017.52
428.209	5070.77
428.417	5167.03
428.624	5482.41
428.832	5443.5
429.039	5316.53
429.247	5480.36
429.454	5957.54
429.662	6348.7
429.869	5980.07
430.076	6328.22
430.284	6254.5
430.491	6340.51
430.699	6743.96
430.906	6774.68
431.114	6897.56
431.321	7098.26
431.528	7266.19
431.736	7692.17
431.943	8208.26
432.15	7798.66
432.358	7960.45
432.565	8363.9
432.772	8195.97
432.979	8783.74
433.187	8939.38
433.394	8996.73
433.601	9559.92
433.808	9527.15
434.016	9371.5
434.223	9985.9
434.43	10485.6
434.637	10401.63
434.844	10950.49
435.052	10925.91
435.259	10882.91
435.466	11298.64
435.673	11050.84
435.88	11689.81
436.087	12232.52
436.294	12273.48
436.501	11886.41
436.708	12410.69
436.915	12486.47
437.122	13002.55
437.329	13369.14
437.537	13825.84
437.743	13756.21
437.95	13786.93
438.157	14210.86
438.364	15007.51
438.571	15048.47
438.778	15212.31
438.985	16252.68
439.192	15546.13
439.399	16099.08
439.606	15759.12
439.813	16469.76
440.02	17741.55
440.227	17323.77
440.433	17198.84
440.64	17997.55
440.847	17620.72
441.054	18106.09
441.261	19187.42
441.467	18824.93
441.674	19521.24
441.881	20356.81
442.088	19865.3
442.294	20127.44
442.501	20176.59
442.708	20909.76
442.914	21233.34
443.121	22300.33
443.328	21737.14
443.534	23316.12
443.741	22556.33
443.948	22224.56
444.154	23881.36
444.361	23854.74
444.568	23744.15
444.774	24034.96
444.981	24086.16
445.187	25378.43
445.394	25716.34
445.6	25841.27
445.807	28225.11
446.013	26887.78
446.22	27180.64
446.426	28374.61
446.633	28776.01
446.839	29535.81
447.046	28589.64
447.252	29969.97
447.459	29988.41
447.665	29808.19
447.871	31290.91
448.078	32546.32
448.284	31184.42
448.491	31942.17
448.697	32955.91
448.903	33793.53
449.11	33467.91
449.316	32845.32
449.522	33641.98
449.728	34829.8
449.935	34876.91
450.141	34862.57
450.347	35786.21
450.553	34364.92
450.76	35261.93
450.966	36054.49
451.172	35915.23
451.378	36937.16
451.584	36089.31
451.791	36566.48
451.997	36855.25
452.203	37383.62
452.409	37350.85
452.615	37268.94
452.821	35927.52
453.027	35268.07
453.233	37676.48
453.44	35687.9
453.646	35698.14
453.852	36152.79
454.058	36613.59
454.264	35689.95
454.47	36748.75
454.676	35634.66
454.882	36797.9
455.088	33666.56
455.294	34082.3
455.5	34262.52
455.705	34598.38
455.911	33250.82
456.117	32736.78
456.323	32552.46
456.529	30490.16
456.735	31702.56
456.941	30811.69
457.147	30279.22
457.352	29253.19
457.558	28892.74
457.764	29529.66
457.97	28626.51
458.176	27844.18
458.381	28124.75
458.587	26832.49
458.793	26873.45
458.999	25034.37
459.204	26865.25
459.41	26320.49
459.616	24458.89
459.821	24340.11
460.027	24536.71
460.233	23959.19
460.438	22689.45
460.644	23148.19
460.85	22204.08
461.055	21612.21
461.261	21323.45
461.466	19855.06
461.672	19025.63
461.878	20311.75
462.083	19160.8
462.289	18736.87
462.494	18415.33
462.7	17561.33
462.905	17532.66
463.111	17960.69
463.316	18175.72
463.522	17639.15
463.727	17561.33
463.932	17477.37
464.138	17364.73
464.343	17334.01
464.549	16908.03
464.754	17555.19
464.959	17170.17
465.165	17125.11
465.37	16328.45
465.575	15984.4
465.781	16535.3
465.986	16668.42
466.191	16084.75
466.397	15838.99
466.602	15097.63
466.807	15531.8
467.012	15288.09
467.218	15460.12
467.423	15181.59
467.628	15562.51
467.833	15929.1
468.038	15003.42
468.244	14888.73
468.449	15269.65
468.654	14927.64
468.859	14733.09
469.064	14520.1
469.269	14194.47
469.474	14432.04
469.679	14485.28
469.885	14006.06
470.09	14114.6
470.295	14149.42
470.5	13825.84
470.705	13870.89
470.91	13387.57
471.115	13608.75
471.32	13889.32
471.525	13721.39
471.73	13352.76
471.935	13090.62
472.139	12683.07
472.344	12767.04
472.549	12437.31
472.754	12625.73
472.959	12263.24
473.164	11956.04
473.369	11755.34
473.574	12324.68
473.778	12158.79
473.983	11816.78
474.188	11980.62
474.393	11679.57
474.598	11528.02
474.802	11329.36
475.007	11331.41
475.212	11384.66
475.417	11001.69
475.621	11073.37
475.826	10878.81
476.031	10694.49
476.235	10610.53
476.44	10708.83
476.645	10295.14
476.849	10479.46
477.054	10162.02
477.259	10211.17
477.463	10270.56
477.668	10004.33
477.872	10205.03
478.077	9908.07
478.282	9615.21
478.486	9658.22
478.691	9543.53
478.895	9394.03
479.1	9283.44
479.304	9498.48
479.509	9146.23
479.713	9301.87
479.918	9207.67
480.122	8990.58
480.326	9191.28
480.531	9133.94
480.735	9004.92
480.94	9203.57
481.144	9191.28
481.348	8755.07
481.553	8679.29
481.757	8546.17
481.961	9002.87
482.166	8849.27
482.37	8828.79
482.574	8750.97
482.778	8738.68
482.983	8830.84
483.187	8855.42
483.391	8767.35
483.595	8699.77
483.8	8648.57
484.004	8593.28
484.208	8947.58
484.412	8609.66
484.616	8781.69
484.821	8564.61
485.025	8523.65
485.229	8671.1
485.433	8716.15
485.637	8798.07
485.841	8550.27
486.045	8497.02
486.249	8560.51
486.453	8511.36
486.657	8685.44
486.861	8429.44
487.065	8421.25
487.269	8593.28
487.473	8351.62
487.677	8507.26
487.881	8716.15
488.085	8443.78
488.289	8458.11
488.493	8388.48
488.697	8589.18
488.901	8601.47
489.105	8576.89
489.309	8587.13
489.512	8550.27
489.716	8877.94
489.92	8429.44
490.124	8490.88
490.328	8724.35
490.531	8728.44
490.735	8820.6
490.939	8681.34
491.143	8744.83
491.346	8626.04
491.55	8804.22
491.754	8963.96
491.958	8968.06
492.161	8998.77
492.365	8753.02
492.569	8961.91
492.772	8914.81
492.976	8851.32
493.18	9031.54
493.383	8849.27
493.587	8939.38
493.79	9127.8
493.994	8970.1
494.197	9035.64
494.401	9287.54
494.605	9049.97
494.808	9314.16
495.012	9289.59
495.215	9246.58
495.419	9424.75
495.622	9320.31
495.825	9666.41
496.029	9666.41
496.232	9701.23
496.436	9658.22
496.639	9969.51
496.843	9752.43
497.046	9969.51
497.249	10033
497.453	10092.39
497.656	10096.49
497.859	10309.47
498.063	10477.41
498.266	10688.35
498.469	10403.68
498.673	10473.31
498.876	10884.95
499.079	11155.29
499.282	10755.93
499.485	11143
499.689	11059.03
499.892	11345.75
500.095	11339.6
500.298	11581.26
500.501	11274.07
500.705	11636.56
500.908	11734.86
501.111	11951.95
501.314	11843.4
501.517	11966.28
501.72	12271.43
501.923	12154.69
502.126	12285.76
502.329	12455.75
502.532	12697.41
502.735	12820.28
502.938	13100.86
503.141	13080.38
503.344	13254.45
503.547	13190.97
503.75	13434.67
503.953	13608.75
504.156	13715.25
504.359	13795.12
504.562	13973.29
504.765	14124.84
504.968	14065.45
505.17	14382.88
505.373	14425.89
505.576	14589.73
505.779	14970.65
505.982	14739.23
506.185	15181.59
506.387	15075.1
506.59	15468.31
506.793	15556.37
506.996	15511.32
507.198	16056.07
507.401	15810.32
507.604	16015.12
507.807	16181
508.009	16543.49
508.212	16631.55
508.415	16719.62
508.617	17014.52
508.82	16959.23
509.022	16938.75
509.225	17471.22
509.428	17387.25
509.63	17549.04
509.833	17827.57
510.035	18267.88
510.238	18212.59
510.44	18394.86
510.643	18665.19
510.845	18546.4
511.048	18814.69
511.25	19148.51
511.453	18994.91
511.655	19752.66
511.858	19556.05
512.06	19918.54
512.262	19898.06
512.465	19959.5
512.667	20104.91
512.87	20422.34
513.072	20350.67
513.274	20860.61
513.477	21040.83
513.679	21180.09
513.881	21278.4
514.084	21518.01
514.286	21788.34
514.488	21905.07
514.69	22199.98
514.893	22042.29
515.095	22535.85
515.297	22679.21
515.499	22615.72
515.701	23342.75
515.904	23183.01
516.106	23479.96
516.308	23881.36
516.51	24067.73
516.712	23783.06
516.914	23828.12
517.116	24450.7
517.318	24471.18
517.52	24524.43
517.722	24526.47
517.925	25095.81
518.127	25333.37
518.329	25613.95
518.531	25263.74
518.733	25710.2
518.935	26001.01
519.136	26199.66
519.338	26302.06
519.54	26369.65
519.742	27131.49
519.944	26766.95
520.146	27049.57
520.348	27158.11
520.55	27471.45
520.752	27321.95
520.954	27663.96
521.155	27612.76
521.357	27881.05
521.559	28132.95
521.761	28370.51
521.963	28073.56
522.164	28386.89
522.366	28554.83
522.568	29187.65
522.77	28755.53
522.971	29359.68
523.173	28706.38
523.375	28960.33
523.576	29263.43
523.778	29103.68
523.98	29427.26
524.181	29351.49
524.383	29580.86
524.584	29791.8
524.786	29902.39
524.988	29638.2
525.189	29728.31
525.391	30129.72
525.592	30330.42
525.794	29978.17
525.995	30254.64
526.197	30316.08
526.398	30457.39
526.6	30467.63
526.801	30326.32
527.003	30582.32
527.204	30373.42
527.406	30924.33
527.607	30279.22
527.808	30559.79
528.01	30197.3
528.211	30461.49
528.412	30813.74
528.614	30561.84
528.815	30494.25
529.016	30557.74
529.218	30367.28
529.419	30694.96
529.62	30481.97
529.822	30219.83
530.023	30588.46
530.224	30414.38
530.425	30570.03
530.626	30410.29
530.828	30330.42
531.029	30576.17
531.23	30068.28
531.431	30203.44
531.632	30586.41
531.833	30211.63
532.035	30510.64
532.236	30170.68
532.437	30133.81
532.638	30078.52
532.839	30385.71
533.04	30174.77
533.241	29838.9
533.442	30428.72
533.643	30373.42
533.844	29738.55
534.045	29812.28
534.246	29509.18
534.447	29797.95
534.648	29537.85
534.849	29990.45
535.05	29546.05
535.251	30004.79
535.451	29525.57
535.652	29828.66
535.853	29607.48
536.054	29679.16
536.255	29607.48
536.456	29232.71
536.657	29591.1
536.857	29261.38
537.058	29107.78
537.259	29480.51
537.46	29486.65
537.66	29210.18
537.861	29228.61
538.062	29408.83
538.263	29277.76
538.463	29105.73
538.664	28866.12
538.865	29357.63
539.065	29132.36
539.266	28530.25
539.466	29251.14
539.667	28927.56
539.868	29236.8
540.068	28790.34
540.269	28712.52
540.469	28974.66
540.67	28696.14
540.87	28739.15
541.071	28657.23
541.271	28898.89
541.472	28646.99
541.672	28481.1
541.873	28677.71
542.073	28255.82
542.274	29148.74
542.474	28536.4
542.675	28276.3
542.875	28548.68
543.075	28415.57
543.276	28479.05
543.476	28665.42
543.676	28407.37
543.877	28462.67
544.077	28649.03
544.277	28315.22
544.478	28388.94
544.678	28644.94
544.878	28540.49
545.078	28538.44
545.279	28161.62
545.479	28120.66
545.679	28249.68
545.879	28225.11
546.079	28634.7
546.28	28458.57
546.48	28051.03
546.68	28522.06
546.88	28245.58
547.08	28302.93
547.28	28307.02
547.48	28237.39
547.68	28200.53
547.88	27936.34
548.081	28440.14
548.281	28331.6
548.481	28245.58
548.681	28767.82
548.881	28276.3
549.081	28409.42
549.28	28343.89
549.48	28534.35
549.68	28155.47
549.88	28644.94
550.08	28417.61
550.28	28124.75
550.48	28132.95
550.68	28669.51
550.88	28202.58
551.08	28329.55
551.279	28196.43
551.479	28290.64
551.679	28376.65
551.879	28225.11
552.079	28421.71
552.278	28434
552.478	28696.14
552.678	28743.24
552.878	28569.16
553.077	28284.5
553.277	28364.37
553.477	28780.1
553.676	28872.26
553.876	28667.47
554.076	28415.57
554.275	28974.66
554.475	28513.87
554.674	28968.52
554.874	28692.04
555.074	28610.12
555.273	28444.24
555.473	28833.35
555.672	28681.8
555.872	28397.13
556.071	28634.7
556.271	29122.12
556.47	28739.15
556.67	28788.3
556.869	28739.15
557.068	28982.85
557.268	28718.67
557.467	28563.02
557.667	28878.41
557.866	28796.49
558.065	28737.1
558.265	28751.43
558.464	28855.88
558.663	29040.2
558.863	28753.48
559.062	29120.07
559.261	28708.43
559.461	29359.68
559.66	28773.96
559.859	28835.4
560.058	28626.51
560.258	28954.18
560.457	28986.95
560.656	29054.53
560.855	29046.34
561.054	29058.63
561.253	28796.49
561.453	29218.37
561.652	29064.77
561.851	29007.43
562.05	29036.1
562.249	28743.24
562.448	29228.61
562.647	29152.84
562.846	28724.81
563.045	29279.81
563.244	28941.89
563.443	29107.78
563.642	28610.12
563.841	28989
564.04	28638.79
564.239	28935.75
564.438	28456.53
564.637	29042.24
564.836	28857.93
565.035	28601.93
565.234	28845.64
565.432	28825.16
565.631	28685.9
565.83	28761.67
566.029	28464.72
566.228	28556.88
566.427	28567.12
566.625	28425.81
566.824	28427.85
567.023	28618.32
567.222	27934.29
567.42	28450.38
567.619	27885.14
567.818	28229.2
568.016	28112.47
568.215	28485.2
568.414	28051.03
568.612	28071.51
568.811	27995.73
569.01	27848.28
569.208	27418.21
569.407	28157.52
569.605	27631.19
569.804	27596.38
570.002	27555.42
570.201	27905.62
570.4	27399.77
570.598	26871.4
570.797	27235.94
570.995	27647.58
571.193	26947.17
571.392	27324
571.59	26748.52
571.789	26766.95
571.987	27119.2
572.186	26543.72
572.384	26719.85
572.582	26879.59
572.781	26687.08
572.979	26672.74
573.177	26836.58
573.376	26590.83
573.574	26187.38
573.772	26502.76
573.971	26470
574.169	26207.86
574.367	26001.01
574.565	26451.56
574.763	26091.12
574.962	25937.52
575.16	25988.72
575.358	25851.51
575.556	25392.76
575.754	25656.95
575.952	25319.04
576.151	25704.06
576.349	25298.56
576.547	25529.98
576.745	25386.62
576.943	25228.93
577.141	25181.82
577.339	25312.89
577.537	24866.44
577.735	24921.73
577.933	24813.19
578.131	25136.77
578.329	24948.36
578.527	24798.85
578.725	24614.54
578.923	24577.67
579.121	24557.19
579.319	24536.71
579.516	24540.81
579.714	24286.86
579.912	24204.94
580.11	24069.78
580.308	24274.57
580.506	23840.4
580.704	23701.14
580.901	23955.09
581.099	24258.19
581.297	23836.31
581.495	23727.77
581.692	23717.53
581.89	23529.11
582.088	23615.13
582.285	23535.26
582.483	23543.45
582.681	23432.86
582.878	23600.79
583.076	23125.66
583.274	23205.53
583.471	23041.7
583.669	23008.93
583.866	22699.69
584.064	22869.67
584.262	22818.47
584.459	23137.95
584.657	23029.41
584.854	22984.35
585.052	22308.52
585.249	22566.57
585.447	22419.11
585.644	22400.68
585.841	22734.5
586.039	22668.97
586.236	22333.1
586.434	22251.18
586.631	22113.97
586.828	22025.9
587.026	22148.78
587.223	22220.46
587.42	21845.68
587.618	21849.78
587.815	22077.1
588.012	21782.2
588.21	22050.48
588.407	21986.99
588.604	21702.32
588.801	21595.83
588.999	21753.52
589.196	21610.17
589.393	21544.63
589.59	21884.59
589.787	21055.17
589.984	21270.2
590.182	21337.79
590.379	21563.06
590.576	21108.41
590.773	21163.71
590.97	21266.11
591.167	21331.64
591.364	20987.58
591.561	21239.48
591.758	21069.5
591.955	21051.07
592.152	21317.31
592.349	20809.41
592.546	21108.41
592.743	21104.32
592.94	20784.83
593.137	20897.47
593.334	21108.41
593.531	20577.99
593.727	20815.55
593.924	20901.57
594.121	20621
594.318	21036.74
594.515	20399.82
594.712	20707.01
594.908	20690.63
595.105	20631.24
595.302	20498.12
595.499	20655.81
595.696	20672.2
595.892	20532.93
596.089	20526.79
596.286	20860.61
596.482	20600.52
596.679	20610.76
596.876	20635.33
597.072	20653.76
597.269	20567.75
597.466	20551.37
597.662	20739.78
597.859	20543.17
598.055	20553.41
598.252	20219.6
598.448	20424.39
598.645	20604.61
598.841	20559.56
599.038	20776.64
599.234	20707.01
599.431	20461.26
599.627	20637.38
599.824	20750.02
600.02	20655.81
600.217	20709.06
600.413	20780.74
600.609	20635.33
600.806	20465.35
601.002	20790.98
601.198	20762.31
601.395	20428.49
601.591	20868.8
601.787	20920
601.984	20612.81
602.18	20868.8
602.376	20715.2
602.572	20776.64
602.769	21010.11
602.965	20854.47
603.161	21235.39
603.357	20819.65
603.553	21300.92
603.75	21008.06
603.946	20797.12
604.142	21241.53
604.338	20825.79
604.534	21331.64
604.73	21100.22
604.926	21278.4
605.122	21421.75
605.318	21085.89
605.514	21208.76
605.71	21012.16
605.906	21264.06
606.102	21499.58
606.298	21698.23
606.494	21315.26
606.69	21454.52
606.886	21790.39
607.082	21534.39
607.278	21638.84
607.474	21477.05
607.67	21952.18
607.866	21610.17
608.062	22073.01
608.257	21784.24
608.453	21784.24
608.649	22068.91
608.845	21925.55
609.041	22267.56
609.236	22361.77
609.432	22324.91
609.628	22064.82
609.824	22355.63
610.019	22144.69
610.215	22425.26
610.411	22527.66
610.606	22380.2
610.802	22900.39
610.998	22372.01
611.193	22812.32
611.389	22587.05
611.584	22636.2
611.78	22523.56
611.976	22656.68
612.171	22929.06
612.367	22998.69
612.562	22746.79
612.758	22623.91
612.953	22609.58
613.149	23111.33
613.344	22642.34
613.539	23309.98
613.735	22947.49
613.93	23207.58
614.126	22943.39
614.321	23242.4
614.517	23221.92
614.712	23086.75
614.907	23051.94
615.103	23060.13
615.298	22976.16
615.493	23568.02
615.688	22949.54
615.884	23377.56
616.079	23033.5
616.274	23436.95
616.47	23058.08
616.665	23209.63
616.86	23500.44
617.055	23422.62
617.25	23219.87
617.445	23285.4
617.641	22705.83
617.836	22992.55
618.031	22900.39
618.226	23383.71
618.421	23058.08
618.616	23170.72
618.811	22824.61
619.006	23228.06
619.201	22836.9
619.396	22980.26
619.591	22513.32
619.786	22935.2
619.981	22836.9
620.176	22689.45
620.371	22329
620.566	22877.86
620.761	22685.35
620.956	22531.75
621.151	22421.16
621.346	22474.41
621.541	22003.38
621.735	22306.48
621.93	21995.18
622.125	22314.67
622.32	21833.39
622.515	22109.87
622.709	21731
622.904	21948.08
623.099	21782.2
623.294	21745.33
623.488	21165.76
623.683	21427.9
623.878	21421.75
624.072	21413.56
624.267	21167.81
624.462	21126.85
624.656	20756.16
624.851	20977.34
625.046	20977.34
625.24	20631.24
625.435	20684.48
625.629	20756.16
625.824	20506.31
626.018	20405.96
626.213	19887.82
626.407	20446.92
626.602	19830.48
626.796	20205.26
626.991	20158.16
627.185	19865.3
627.38	19730.13
627.574	19474.13
627.768	19658.45
627.963	19470.04
628.157	19332.83
628.352	19406.55
628.546	19146.46
628.74	19214.04
628.935	19015.39
629.129	18898.66
629.323	18738.91
629.517	18876.13
629.712	18497.25
629.906	18790.11
630.1	18355.94
630.294	18671.33
630.489	18573.03
630.683	18263.79
630.877	18226.92
631.071	17968.88
631.265	18067.18
631.459	17962.73
631.653	17653.49
631.848	17864.43
632.042	17655.54
632.236	17645.3
632.43	17573.62
632.624	17579.76
632.818	17405.69
633.012	17315.58
633.206	17200.89
633.4	17088.25
633.594	16959.23
633.788	17094.4
633.982	17260.28
634.176	16985.85
634.369	16969.47
634.563	16842.49
634.757	16447.24
634.951	16701.19
635.145	16662.27
635.339	16432.9
635.533	16203.53
635.726	16156.43
635.92	16072.46
636.114	15828.75
636.308	15734.54
636.501	16041.74
636.695	15548.18
636.889	15548.18
637.083	15548.18
637.276	15324.95
637.47	15177.5
637.664	15263.51
637.857	15279.89
638.051	15216.41
638.244	15101.72
638.438	14997.28
638.632	14876.44
638.825	14716.7
639.019	14585.63
639.212	14384.93
639.406	14642.98
639.599	14532.39
639.793	14360.36
639.986	14063.4
640.18	14286.63
640.373	13961
640.567	14159.66
640.76	13799.21
640.954	13811.5
641.147	13614.9
641.34	13494.07
641.534	13446.96
641.727	13612.85
641.92	13520.69
642.114	13184.82
642.307	13317.94
642.5	13152.06
642.694	12875.58
642.887	12961.59
643.08	13119.29
643.273	12885.82
643.467	12730.17
643.66	12662.59
643.853	12549.95
644.046	12441.41
644.239	12683.07
644.432	12199.75
644.626	12377.92
644.819	12246.85
645.012	12255.04
645.205	11968.33
645.398	12345.16
645.591	12136.26
645.784	11827.02
645.977	11579.22
646.17	11829.07
646.363	11794.25
646.556	11663.18
646.749	11554.64
646.942	11603.79
647.135	11347.79
647.328	11487.06
647.521	11409.23
647.714	11186.01
647.907	11093.85
648.099	11147.09
648.292	10833.75
648.485	10907.48
648.678	10911.58
648.871	10796.89
649.064	10714.97
649.256	10651.49
649.449	10536.8
649.642	10381.15
649.835	10583.9
650.027	10395.49
650.22	10444.64
650.413	10379.11
650.605	10145.64
650.798	10141.54
650.991	10190.69
651.183	10035.05
651.376	10112.87
651.568	9899.88
651.761	10174.31
651.954	9813.87
652.146	9770.86
652.339	9830.25
652.531	9793.39
652.724	9805.67
652.916	9332.59
653.109	9430.9
653.301	9461.62
653.494	9521.01
653.686	9338.74
653.879	9451.38
654.071	9348.98
654.263	9348.98
654.456	9060.21
654.648	9199.48
654.84	9035.64
655.033	8888.18
655.225	8798.07
655.417	8853.37
655.61	8900.47
655.802	8847.22
655.994	8687.48
656.186	8705.92
656.379	8777.59
656.571	8652.67
656.763	8667
656.955	8447.87
657.148	8626.04
657.34	8466.3
657.532	8347.52
657.724	8380.29
657.916	8357.76
658.108	8206.21
658.3	8077.19
658.492	8056.71
658.684	8159.11
658.876	7987.08
659.068	8069
659.26	7968.65
659.452	8046.47
659.644	7817.1
659.836	7923.59
660.028	7698.31
660.22	7987.08
660.412	7636.88
660.604	7833.48
660.796	7696.27
660.988	7702.41
661.18	7483.28
661.372	7368.59
661.563	7630.73
661.755	7258
661.947	7614.35
662.139	7235.47
662.331	7335.82
662.522	7339.92
662.714	7118.74
662.906	7186.32
663.097	7139.22
663.289	7106.45
663.481	6860.7
663.673	7071.64
663.864	6956.95
664.056	6864.79
664.247	6766.49
664.439	6741.91
664.631	6711.19
664.822	6887.32
665.014	6758.3
665.205	6596.51
665.397	6674.33
665.588	6479.77
665.78	6598.56
665.971	6631.32
666.163	6543.26
666.354	6533.02
666.546	6487.96
666.737	6369.18
666.929	6336.42
667.12	6270.88
667.311	6344.61
667.503	6254.5
667.694	6340.51
667.885	6123.43
668.077	6352.8
668.268	6152.1
668.459	6164.39
668.651	6076.32
668.842	5982.12
669.033	6096.8
669.224	6057.89
669.416	6107.04
669.607	6029.22
669.798	5963.69
669.989	6010.79
670.18	5922.73
670.371	5900.2
670.563	5742.5
670.754	5791.66
670.945	5734.31
671.136	5756.84
671.327	5771.18
671.518	5769.13
671.709	5726.12
671.9	5664.68
672.091	5595.05
672.282	5666.73
672.473	5550
672.664	5484.46
672.855	5451.69
673.046	5595.05
673.237	5478.32
673.428	5492.65
673.619	5349.29
673.809	5341.1
674	5603.24
674.191	5351.34
674.382	5334.96
674.573	5394.35
674.764	5384.11
674.954	5314.48
675.145	5291.95
675.336	5244.85
675.527	5369.77
675.717	5177.27
675.908	5337.01
676.099	5414.83
676.289	5267.38
676.48	5132.21
676.671	5142.45
676.861	5185.46
677.052	5019.57
677.243	5115.83
677.433	5142.45
677.624	5291.95
677.814	4966.32
678.005	5072.82
678.195	4986.8
678.386	4951.99
678.576	5046.19
678.767	4882.36
678.957	4999.09
679.148	5132.21
679.338	5072.82
679.529	5177.27
679.719	4980.66
679.909	5007.28
680.1	4775.86
680.29	4902.84
680.481	4808.63
680.671	5083.06
680.861	4988.85
681.052	5048.24
681.242	5001.14
681.432	4911.03
681.622	4972.47
681.813	4878.26
682.003	4908.98
682.193	4790.2
682.383	4931.51
682.573	4968.37
682.764	4804.53
682.954	4911.03
683.144	4964.28
683.334	5013.43
683.524	4888.5
683.714	4786.1
683.904	4831.16
684.094	4816.82
684.284	4835.25
684.474	4779.96
684.664	4843.45
684.854	4861.88
685.044	4837.3
685.234	4741.05
685.424	4769.72
685.614	4734.9
685.804	4775.86
685.994	4835.25
686.184	4755.38
686.374	4759.48
686.564	4784.06
686.753	4732.86
686.943	4829.11
687.133	4779.96
687.323	4745.14
687.513	4857.78
687.702	4652.98
687.892	4685.75
688.082	4571.07
688.272	4677.56
688.461	4521.91
688.651	4609.98
688.841	4679.61
689.03	4591.55
689.22	4671.42
689.41	4595.64
689.599	4579.26
689.789	4530.11
689.979	4614.07
690.168	4556.73
690.358	4499.39
690.547	4542.39
690.737	4616.12
690.926	4433.85
691.116	4485.05
691.305	4556.73
691.495	4448.19
691.684	4470.72
691.874	4403.13
692.063	4370.37
692.252	4376.51
692.442	4450.24
692.631	4440
692.82	4460.48
693.01	4390.85
693.199	4442.04
693.388	4294.59
693.578	4390.85
693.767	4284.35
693.956	4343.74
694.146	4235.2
694.335	4255.68
694.524	4384.7
694.713	4284.35
694.902	4325.31
695.092	4333.5
695.281	4261.82
695.47	4327.36
695.659	4145.09
695.848	4243.39
696.037	4270.01
696.226	4284.35
696.415	4222.91
696.604	4231.1
696.793	4231.1
696.982	4286.4
697.171	4272.06
697.36	4220.86
697.549	4210.62
697.738	4038.59
697.927	4022.21
698.116	4097.99
698.305	4112.32
698.494	4048.83
698.683	3952.58
698.872	4030.4
699.061	4073.41
699.25	4095.94
699.438	4048.83
699.627	4028.35
699.816	4128.7
700.005	4093.89
700.193	3870.66
700.382	4032.45
700.571	4024.26
700.76	3850.18
700.948	4065.22
701.137	3919.81
701.326	3874.76
701.514	3862.47
701.703	3964.87
701.892	3850.18
702.08	4040.64
702.269	3688.39
702.457	3964.87
702.646	3876.8
702.834	3909.57
703.023	3762.12
703.212	3915.72
703.4	3833.8
703.589	3825.61
703.777	3891.14
703.965	3694.54
704.154	3772.36
704.342	3692.49
704.531	3751.88
704.719	3661.77
704.907	3710.92
705.096	3682.25
705.284	3645.38
705.472	3753.93
705.661	3807.17
705.849	3667.91
706.037	3573.71
706.226	3583.95
706.414	3723.21
706.602	3633.1
706.79	3547.08
706.979	3522.51
707.167	3565.51
707.355	3573.71
707.543	3497.93
707.731	3653.58
707.919	3422.16
708.107	3536.84
708.296	3411.92
708.484	3622.86
708.672	3483.59
708.86	3506.12
709.048	3598.28
709.236	3377.1
709.424	3475.4
709.612	3350.48
709.8	3334.09
709.988	3360.72
710.176	3461.07
710.364	3430.35
710.551	3336.14
710.739	3293.13
710.927	3352.52
711.115	3350.48
711.303	3426.25
711.491	3309.52
711.679	3366.86
711.866	3309.52
712.054	3289.04
712.242	3065.81
712.43	3231.69
712.617	3055.57
712.805	3188.69
712.993	3258.32
713.181	3147.73
713.368	3186.64
713.556	3295.18
713.744	3137.49
713.931	3121.1
714.119	3227.6
714.306	3147.73
714.494	3092.43
714.682	3106.77
714.869	2924.5
715.057	3049.43
715.244	3071.95
715.432	3049.43
715.619	3071.95
715.807	3131.34
715.994	3041.23
716.182	3033.04
716.369	3022.8
716.556	3055.57
716.744	2836.44
716.931	2916.31
717.119	2983.89
717.306	2795.48
717.493	2875.35
717.681	2967.51
717.868	2850.77
718.055	2846.68
718.242	2959.31
718.43	2844.63
718.617	2832.34
718.804	2838.48
718.991	2844.63
719.179	2910.16
719.366	2867.16
719.553	2652.12
719.74	2813.91
719.927	2834.39
720.114	2695.13
720.301	2645.98
720.488	2818.01
720.676	2695.13
720.863	2762.71
721.05	2858.96
721.237	2727.89
721.424	2719.7
721.611	2879.44
721.798	2705.37
721.985	2729.94
722.172	2637.78
722.358	2654.17
722.545	2674.65
722.732	2748.37
722.919	2613.21
723.106	2664.41
723.293	2596.82
723.48	2686.94
723.667	2580.44
723.853	2639.83
724.04	2641.88
724.227	2576.34
724.414	2492.38
724.6	2551.77
724.787	2539.48
724.974	2531.29
725.161	2490.33
725.347	2398.17
725.534	2420.7
725.72	2492.38
725.907	2478.04
726.094	2555.86
726.28	2383.84
726.467	2490.33
726.653	2426.84
726.84	2389.98
727.027	2553.82
727.213	2432.99
727.4	2527.19
727.586	2537.43
727.773	2408.41
727.959	2344.92
728.145	2424.8
728.332	2338.78
728.518	2269.15
728.705	2330.59
728.891	2240.48
729.077	2291.68
729.264	2344.92
729.45	2523.1
729.636	2363.36
729.823	2351.07
730.009	2244.57
730.195	2353.12
730.382	2318.3
730.568	2213.85
730.754	2334.68
730.94	2293.73
731.126	2228.19
731.313	2195.42
731.499	2162.65
731.685	2181.09
731.871	2242.53
732.057	2215.9
732.243	2158.56
732.429	2228.19
732.615	2191.33
732.801	2269.15
732.987	2207.71
733.173	2129.89
733.359	2088.93
733.545	2258.91
733.731	2072.54
733.917	2121.7
734.103	2084.83
734.289	2088.93
734.475	2076.64
734.661	2242.53
734.847	2078.69
735.033	2111.46
735.219	2074.59
735.404	2154.46
735.59	2099.17
735.776	2033.63
735.962	2099.17
736.148	2070.5
736.333	2181.09
736.519	1974.24
736.705	2047.97
736.89	2039.78
737.076	1933.28
737.262	1976.29
737.447	2072.54
737.633	1935.33
737.819	1933.28
738.004	1908.71
738.19	2025.44
738.375	2015.2
738.561	1994.72
738.747	1892.32
738.932	1925.09
739.118	2033.63
739.303	1966.05
739.489	1953.76
739.674	1834.98
739.859	1853.41
740.045	1832.93
740.23	1869.8
740.416	1765.35
740.601	1826.79
740.786	1857.51
740.972	1812.45
741.157	1834.98
741.342	1785.83
741.528	1839.08
741.713	1746.92
741.898	1806.31
742.084	1769.44
742.269	1748.97
742.454	1787.88
742.639	1779.68
742.824	1658.85
743.01	1765.35
743.195	1849.32
743.38	1662.95
743.565	1771.49
743.75	1761.25
743.935	1630.18
744.12	1654.76
744.305	1650.66
744.49	1634.28
744.675	1601.51
744.86	1605.61
745.045	1697.77
745.23	1570.79
745.415	1712.1
745.6	1638.37
745.785	1568.74
745.97	1505.26
746.155	1591.27
746.34	1564.65
746.525	1548.26
746.71	1535.98
746.895	1460.2
747.079	1626.09
747.264	1480.68
747.449	1558.5
747.634	1509.35
747.819	1525.74
748.003	1384.43
748.188	1378.28
748.373	1452.01
748.557	1525.74
748.742	1486.83
748.927	1495.02
749.111	1507.31
749.296	1431.53
749.481	1466.35
749.665	1392.62
749.85	1439.72
750.034	1335.28
750.219	1376.23
750.404	1368.04
750.588	1466.35
750.773	1271.79
750.957	1376.23
751.141	1273.84
751.326	1337.32
751.51	1296.36
751.695	1337.32
751.879	1310.7
752.064	1296.36
752.248	1288.17
752.432	1304.56
752.617	1263.6
752.801	1271.79
752.985	1284.08
753.17	1325.04
753.354	1296.36
753.538	1245.17
753.722	1196.01
753.907	1173.49
754.091	1230.83
754.275	1214.45
754.459	1173.49
754.643	1126.38
754.828	1163.25
755.012	1083.38
755.196	1136.62
755.38	1097.71
755.564	1173.49
755.748	1142.77
755.932	1105.9
756.116	1163.25
756.3	1122.29
756.484	1017.84
756.668	1034.22
756.852	993.26
757.036	1091.57
757.22	1040.37
757.404	974.83
757.588	952.31
757.772	1044.46
757.956	1028.08
758.14	1146.86
758.323	954.35
758.507	991.22
758.691	1021.94
758.875	991.22
759.059	1064.94
759.242	954.35
759.426	974.83
759.61	1038.32
759.794	1052.66
759.977	944.11
760.161	1103.86
760.345	991.22
760.528	1040.37
760.712	854
760.895	970.74
761.079	933.87
761.263	999.41
761.446	909.3
761.63	960.5
761.813	890.87
761.997	935.92
762.18	942.07
762.364	821.24
762.547	817.14
762.731	925.68
762.914	897.01
763.098	862.19
763.281	890.87
763.464	862.19
763.648	886.77
763.831	819.19
764.015	917.49
764.198	831.48
764.381	862.19
764.564	864.24
764.748	811
764.931	802.8
765.114	767.99
765.297	888.82
765.481	802.8
765.664	851.96
765.847	946.16
766.03	835.57
766.213	899.06
766.397	815.09
766.58	788.47
766.763	858.1
766.946	688.12
767.129	749.56
767.312	745.46
767.495	804.85
767.678	829.43
767.861	794.61
768.044	761.84
768.227	835.57
768.41	829.43
768.593	774.13
768.776	767.99
768.959	794.61
769.142	712.69
769.324	755.7
769.507	712.69
769.69	720.88
769.873	712.69
770.056	868.34
770.239	761.84
770.421	929.78
770.604	737.27
770.787	794.61
770.97	761.84
771.152	690.17
771.335	684.02
771.518	737.27
771.7	790.52
771.883	788.47
772.066	704.5
772.248	638.97
772.431	681.97
772.613	745.46
772.796	716.79
772.978	671.73
773.161	724.98
773.343	630.77
773.526	688.12
773.708	626.68
773.891	700.41
774.073	673.78
774.256	663.54
774.438	657.4
774.621	641.01
774.803	585.72
774.985	630.77
775.168	636.92
775.35	526.33
775.532	667.64
775.715	634.87
775.897	622.58
776.079	573.43
776.261	647.16
776.444	499.7
776.626	493.56
776.808	598.01
776.99	559.1
777.173	561.14
777.355	526.33
777.537	600.05
777.719	600.05
777.901	622.58
778.083	487.42
778.265	548.86
778.447	655.35
778.629	581.62
778.811	589.81
778.993	565.24
779.175	583.67
779.357	550.9
779.539	456.7
779.721	573.43
779.903	499.7
780.085	491.51
780.267	442.36
780.449	569.34
780.631	532.47
780.812	589.81
780.994	557.05
781.176	503.8
781.358	473.08
781.54	389.11
781.721	487.42
781.903	462.84
782.085	532.47
782.267	550.9
782.448	468.98
782.63	555
782.812	550.9
782.993	454.65
783.175	477.18
783.357	557.05
783.538	477.18
783.72	387.07
783.901	425.98
784.083	503.8
784.264	485.37
784.446	376.83
784.627	362.49
784.809	442.36
784.99	444.41
785.172	434.17
785.353	434.17
785.535	442.36
785.716	419.83
785.897	380.92
786.079	391.16
786.26	466.94
786.441	444.41
786.623	282.62
786.804	378.87
786.985	352.25
787.167	354.3
787.348	368.63
787.529	419.83
787.71	376.83
787.891	362.49
788.073	356.35
788.254	239.61
788.435	462.84
788.616	368.63
788.797	256
788.978	294.91
789.159	319.48
789.34	407.55
789.522	299
789.703	411.64
789.884	350.2
790.065	313.34
790.246	344.06
790.427	258.04
790.607	446.46
790.788	413.69
790.969	262.14
791.15	376.83
791.331	333.82
791.512	321.53
791.693	360.44
791.874	260.09
792.054	395.26
792.235	346.11
792.416	247.8
792.597	258.04
792.778	290.81
792.958	337.91
793.139	258.04
793.32	278.52
793.5	286.72
793.681	327.67
793.862	299
794.042	294.91
794.223	262.14
794.404	344.06
794.584	256
794.765	245.76
794.945	323.58
795.126	251.9
795.306	321.53
795.487	225.28
795.667	163.84
795.848	231.42
796.028	270.33
796.209	262.14
796.389	311.29
796.57	346.11
796.75	217.08
796.93	303.1
797.111	212.99
797.291	249.85
797.471	241.66
797.652	223.23
797.832	206.84
798.012	266.24
798.192	282.62
798.373	196.61
798.553	294.91
798.733	239.61
798.913	247.8
799.093	245.76
799.274	354.3
799.454	303.1
799.634	249.85
799.814	225.28
799.994	260.09
800.174	235.52
800.354	221.18
800.534	163.84
800.714	221.18
800.894	163.84
801.074	200.7
801.254	233.47
801.434	249.85
801.614	172.03
801.794	172.03
801.974	935.92
802.154	157.69
802.334	221.18
802.514	204.8
802.693	229.37
802.873	212.99
803.053	159.74
803.233	188.41
803.413	233.47
803.592	174.08
803.772	200.7
803.952	212.99
804.131	196.61
804.311	245.76
804.491	139.26
804.67	102.4
804.85	165.89
805.03	233.47
805.209	258.04
805.389	129.02
805.568	135.17
805.748	184.32
805.928	188.41
806.107	147.45
806.287	200.7
806.466	206.84
806.646	141.31
806.825	149.5
807.004	221.18
807.184	172.03
807.363	174.08
807.543	153.6
807.722	133.12
807.901	280.57
808.081	239.61
808.26	75.77
808.439	204.8
808.619	221.18
808.798	188.41
808.977	135.17
809.156	212.99
809.336	202.75
809.515	241.66
809.694	159.74
809.873	176.13
810.052	180.22
810.231	167.93
810.411	131.07
810.59	172.03
810.769	229.37
810.948	147.45
811.127	112.64
811.306	137.21
811.485	212.99
811.664	196.61
811.843	198.65
812.022	172.03
812.201	169.98
812.38	169.98
812.559	114.69
812.737	200.7
812.916	188.41
813.095	114.69
813.274	225.28
813.453	155.65
813.632	131.07
813.811	69.63
813.989	114.69
814.168	167.93
814.347	22.53
814.526	43.01
814.704	188.41
814.883	245.76
815.062	94.21
815.24	149.5
815.419	184.32
815.598	180.22
815.776	65.54
815.955	159.74
816.133	73.73
816.312	172.03
816.49	67.58
816.669	124.93
816.847	139.26
817.026	126.97
817.204	110.59
817.383	176.13
817.561	88.06
817.74	165.89
817.918	94.21
818.097	92.16
818.275	71.68
818.453	100.35
818.632	135.17
818.81	34.82
818.988	176.13
819.167	92.16
819.345	133.12
819.523	98.3
819.701	94.21
819.879	157.69
820.058	110.59
820.236	104.45
820.414	124.93
820.592	92.16
820.77	49.15
820.948	47.1
821.127	176.13
821.305	63.49
821.483	28.67
821.661	98.3
821.839	118.78
822.017	90.11
822.195	57.34
822.373	157.69
822.551	151.55
822.729	174.08
822.907	112.64
823.085	139.26
823.262	151.55
823.44	83.97
823.618	81.92
823.796	67.58
823.974	124.93
824.152	104.45
824.329	102.4
824.507	92.16
824.685	98.3
824.863	100.35
825.04	65.54
825.218	155.65
825.396	75.77
825.574	75.77
825.751	139.26
825.929	172.03
826.107	100.35
826.284	110.59
826.462	51.2
826.639	61.44
826.817	49.15
826.994	124.93
827.172	16.38
827.349	180.22
827.527	65.54
827.704	139.26
827.882	120.83
828.059	118.78
828.237	26.62
828.414	135.17
828.591	47.1
828.769	94.21
828.946	90.11
829.124	98.3
829.301	38.91
829.478	106.49
829.655	114.69
829.833	77.82
830.01	67.58
830.187	155.65
830.364	77.82
830.542	81.92
830.719	73.73
830.896	77.82
831.073	63.49
831.25	100.35
831.427	118.78
831.604	61.44
831.782	49.15
831.959	172.03
832.136	2.05
832.313	32.77
832.49	83.97
832.667	49.15
832.844	24.58
833.021	38.91
833.198	94.21
833.374	55.3
833.551	77.82
833.728	51.2
833.905	182.27
834.082	0
834.259	129.02
834.436	94.21
834.612	4.1
834.789	120.83
834.966	36.86
835.143	116.73
835.319	79.87
835.496	94.21
835.673	43.01
835.85	129.02
836.026	75.77
836.203	129.02
836.38	110.59
836.556	16.38
836.733	51.2
836.909	98.3
837.086	-10.24
837.262	92.16
837.439	69.63
837.616	131.07
837.792	51.2
837.968	90.11
838.145	-12.29
838.321	59.39
838.498	-16.38
838.674	102.4
838.851	45.06
839.027	79.87
839.203	69.63
839.38	34.82
839.556	90.11
839.732	32.77
839.909	36.86
840.085	110.59
840.261	40.96
840.437	63.49
840.614	28.67
840.79	126.97
840.966	67.58
841.142	65.54
841.318	83.97
841.494	139.26
841.671	122.88
841.847	0
842.023	65.54
842.199	90.11
842.375	73.73
842.551	6.14
842.727	-4.1
842.903	94.21
843.079	32.77
843.255	118.78
843.431	114.69
843.607	106.49
843.783	-10.24
843.959	131.07
844.134	-16.38
844.31	45.06
844.486	28.67
844.662	73.73
844.838	90.11
845.013	28.67
845.189	157.69
845.365	65.54
845.541	116.73
845.716	43.01
845.892	141.31
846.068	24.58
846.244	-14.34
846.419	24.58
846.595	0
846.77	-36.86
846.946	75.77
847.122	75.77
847.297	28.67
847.473	36.86
847.648	94.21
847.824	24.58
847.999	61.44
848.175	49.15
848.35	49.15
848.526	102.4
848.701	102.4
848.876	94.21
849.052	63.49
849.227	59.39
849.403	106.49
849.578	40.96
849.753	43.01
849.929	57.34
850.104	20.48
850.279	49.15
850.454	16.38
850.63	30.72
850.805	139.26
850.98	30.72
851.155	32.77
851.33	47.1
851.505	-12.29
851.681	16.38
851.856	81.92
852.031	73.73
852.206	75.77
852.381	28.67
852.556	36.86
852.731	139.26
852.906	49.15
853.081	79.87
853.256	92.16
853.431	-24.58
853.606	18.43
853.781	77.82
853.956	-36.86
854.131	-14.34
854.305	-24.58
854.48	40.96
854.655	30.72
854.83	57.34
855.005	-30.72
855.18	61.44
855.354	49.15
855.529	49.15
855.704	20.48
855.879	32.77
856.053	49.15
856.228	73.73
856.403	32.77
856.577	83.97
856.752	81.92
856.926	10.24
857.101	24.58
857.276	40.96
857.45	77.82
857.625	151.55
857.799	65.54
857.974	65.54
858.148	45.06
858.323	73.73
858.497	14.34
858.672	28.67
858.846	12.29
859.02	57.34
859.195	8.19
859.369	-20.48
859.543	57.34
859.718	86.01
859.892	14.34
860.066	98.3
860.241	-4.1
860.415	8.19
860.589	6.14
860.763	28.67
860.938	-6.14
861.112	26.62
861.286	24.58
861.46	65.54
861.634	-8.19
861.808	53.25
861.982	-49.15
862.157	18.43
862.331	-57.34
862.505	-36.86
862.679	0
862.853	24.58
863.027	26.62
863.201	49.15
863.375	38.91
863.549	126.97
863.722	139.26
863.896	153.6
864.07	8.19
864.244	34.82
864.418	26.62
864.592	4.1
864.766	-14.34
864.939	30.72
865.113	0
865.287	106.49
865.461	-36.86
865.634	38.91
865.808	34.82
865.982	63.49
866.156	32.77
866.329	40.96
866.503	110.59
866.676	65.54
866.85	73.73
867.024	-8.19
867.197	57.34
867.371	2.05
867.544	49.15
867.718	-14.34
867.891	53.25
868.065	51.2
868.238	45.06
868.412	53.25
868.585	-102.4
868.759	34.82
868.932	61.44
869.105	-45.06
869.279	90.11
869.452	0
869.625	-14.34
869.799	75.77
869.972	-51.2
870.145	-88.06
870.319	32.77
870.492	8.19
870.665	61.44
870.838	32.77
871.011	-51.2
871.185	16.38
871.358	-12.29
871.531	4.1
871.704	57.34
871.877	75.77
872.05	28.67
872.223	20.48
872.396	55.3
872.569	59.39
872.742	-81.92
872.915	61.44
873.088	65.54
873.261	51.2
873.434	24.58
873.607	53.25
873.78	49.15
873.953	-36.86
874.126	28.67
874.299	49.15
874.471	16.38
874.644	-14.34
874.817	65.54
874.99	8.19
875.163	8.19
875.335	26.62
875.508	-4.1
875.681	59.39
875.853	-16.38
876.026	77.82
876.199	53.25
876.371	24.58
876.544	-57.34
876.717	32.77
876.889	24.58
877.062	65.54
877.234	-38.91
877.407	-45.06
877.579	-30.72
877.752	81.92
877.924	2.05
878.097	73.73
878.269	16.38
878.442	-8.19
878.614	49.15
878.786	26.62
878.959	-14.34
879.131	12.29
879.303	-8.19
879.476	98.3
879.648	49.15
879.82	40.96
879.993	-12.29
880.165	12.29
880.337	0
880.509	77.82
880.681	8.19
880.854	67.58
881.026	40.96
881.198	40.96
881.37	0
881.542	2.05
881.714	-38.91
881.886	43.01
882.058	30.72
882.23	65.54
882.402	8.19
882.574	57.34
882.746	57.34
882.918	116.73
883.09	20.48
883.262	20.48
883.434	-57.34
883.606	-36.86
883.778	-12.29
883.95	139.26
884.122	-20.48
884.293	69.63
884.465	-53.25
884.637	69.63
884.809	-18.43
884.98	94.21
885.152	24.58
885.324	36.86
885.496	-8.19
885.667	10.24
885.839	-4.1
886.011	65.54
886.182	4.1
886.354	34.82
886.525	26.62
886.697	26.62
886.869	47.1
887.04	14.34
887.212	53.25
887.383	43.01
887.555	61.44
887.726	-34.82
887.897	34.82
888.069	22.53
888.24	-6.14
888.412	-4.1
888.583	-28.67
888.754	57.34
888.926	-16.38
889.097	24.58
889.268	-51.2
889.44	-6.14
889.611	-47.1
889.782	-30.72
889.953	-20.48
890.125	51.2
890.296	-18.43
890.467	51.2
890.638	2.05
890.809	43.01
890.98	-32.77
891.151	24.58
891.323	2.05
891.494	34.82
891.665	40.96
891.836	49.15
892.007	6.14
892.178	-14.34
892.349	10.24
892.52	8.19
892.691	67.58
892.862	4.1
893.032	-12.29
893.203	-65.53
893.374	-8.19
893.545	38.91
893.716	-47.1
893.887	34.82
894.057	-40.96
894.228	12.29
894.399	69.63
894.57	8.19
894.74	57.34
894.911	2.05
895.082	8.19
895.253	34.82
895.423	-2.05
895.594	55.3
895.764	81.92
895.935	26.62
896.106	8.19
896.276	24.58
896.447	28.67
896.617	-53.25
896.788	49.15
896.958	-6.14
897.129	-30.72
897.299	4.1
897.47	75.77
897.64	57.34
897.81	43.01
897.981	102.4
898.151	-49.15
898.322	75.77
898.492	-6.14
898.662	32.77
898.832	-4.1
899.003	22.53
899.173	8.19
899.343	22.53
899.513	-4.1
