Data from USB4F104151__149__14-31-55-699.txt Node

Date: Thu Mar 13 14:31:55 EDT 2025
User: louis
Spectrometer: USB4F10415
Trigger mode: 4
Integration Time (sec): 2.500000E-2
Scans to average: 1
Electric dark correction enabled: true
Nonlinearity correction enabled: false
Boxcar width: 0
XAxis mode: Wavelengths
Number of Pixels in Spectrum: 3648
>>>>>Begin Spectral Data<<<<<
178.204	-197.29
178.424	-197.29
178.644	-197.29
178.864	-148.14
179.084	-215.72
179.304	-41.64
179.524	-21.16
179.744	-6.83
179.964	64.85
180.184	-70.31
180.404	23.89
180.624	9.56
180.844	23.89
181.064	-0.68
181.283	-0.68
181.503	-29.35
181.723	48.47
181.943	-33.45
182.163	97.62
182.383	-47.79
182.602	44.37
182.822	56.66
183.042	17.75
183.262	-53.93
183.482	15.7
183.701	17.75
183.921	-0.68
184.141	52.56
184.361	109.91
184.58	32.08
184.8	-45.74
185.02	58.71
185.239	11.61
185.459	-8.87
185.679	71
185.898	-33.45
186.118	40.28
186.338	-51.88
186.557	38.23
186.777	7.51
186.997	-4.78
187.216	-10.92
187.436	81.24
187.655	114
187.875	19.8
188.095	-10.92
188.314	122.2
188.534	122.2
188.753	40.28
188.973	54.61
189.192	23.89
189.412	32.08
189.631	42.32
189.851	58.71
190.07	32.08
190.29	-17.07
190.509	48.47
190.729	-17.07
190.948	89.43
191.168	97.62
191.387	44.37
191.607	34.13
191.826	38.23
192.045	1.37
192.265	15.7
192.484	23.89
192.704	-39.59
192.923	34.13
193.142	146.77
193.362	19.8
193.581	107.86
193.8	19.8
194.02	89.43
194.239	40.28
194.458	36.18
194.678	-37.55
194.897	-25.26
195.116	-6.83
195.335	-15.02
195.555	46.42
195.774	-21.16
195.993	7.51
196.212	9.56
196.432	-6.83
196.651	-15.02
196.87	7.51
197.089	171.35
197.308	73.04
197.528	40.28
197.747	7.51
197.966	-17.07
198.185	66.9
198.404	19.8
198.623	23.89
198.842	-6.83
199.062	48.47
199.281	64.85
199.5	-4.78
199.719	114
199.938	81.24
200.157	9.56
200.376	38.23
200.595	64.85
200.814	40.28
201.033	-4.78
201.252	73.04
201.471	17.75
201.69	97.62
201.909	66.9
202.128	46.42
202.347	58.71
202.566	25.94
202.785	1.37
203.004	-19.11
203.223	91.48
203.442	11.61
203.661	54.61
203.879	107.86
204.098	48.47
204.317	-2.73
204.536	73.04
204.755	23.89
204.974	58.71
205.193	56.66
205.411	89.43
205.63	91.48
205.849	-0.68
206.068	-8.87
206.287	60.76
206.505	23.89
206.724	105.81
206.943	42.32
207.162	-0.68
207.381	-70.31
207.599	-10.92
207.818	42.32
208.037	7.51
208.255	-45.74
208.474	48.47
208.693	-74.41
208.911	36.18
209.13	-8.87
209.349	44.37
209.567	34.13
209.786	42.32
210.005	60.76
210.223	38.23
210.442	-10.92
210.661	7.51
210.879	-19.11
211.098	48.47
211.316	40.28
211.535	30.04
211.753	32.08
211.972	40.28
212.191	66.9
212.409	40.28
212.628	21.85
212.846	3.41
213.065	27.99
213.283	-25.26
213.502	44.37
213.72	-8.87
213.938	71
214.157	15.7
214.375	75.09
214.594	32.08
214.812	34.13
215.031	-0.68
215.249	38.23
215.467	23.89
215.686	7.51
215.904	48.47
216.122	64.85
216.341	56.66
216.559	56.66
216.778	44.37
216.996	50.52
217.214	62.8
217.432	21.85
217.651	-33.45
217.869	73.04
218.087	23.89
218.306	19.8
218.524	73.04
218.742	-23.21
218.96	-0.68
219.179	48.47
219.397	-8.87
219.615	60.76
219.833	-4.78
220.051	40.28
220.27	50.52
220.488	116.05
220.706	7.51
220.924	-49.83
221.142	32.08
221.36	23.89
221.578	36.18
221.796	40.28
222.015	23.89
222.233	52.56
222.451	9.56
222.669	25.94
222.887	73.04
223.105	-4.78
223.323	11.61
223.541	11.61
223.759	56.66
223.977	73.04
224.195	11.61
224.413	9.56
224.631	-49.83
224.849	40.28
225.067	27.99
225.285	-29.35
225.503	-25.26
225.721	-33.45
225.939	-17.07
226.157	75.09
226.375	124.24
226.592	-6.83
226.81	-12.97
227.028	25.94
227.246	58.71
227.464	-29.35
227.682	56.66
227.9	11.61
228.117	40.28
228.335	32.08
228.553	-53.93
228.771	50.52
228.989	91.48
229.206	-17.07
229.424	1.37
229.642	64.85
229.86	34.13
230.077	85.33
230.295	-23.21
230.513	19.8
230.731	15.7
230.948	97.62
231.166	25.94
231.384	19.8
231.601	89.43
231.819	73.04
232.037	-0.68
232.254	48.47
232.472	58.71
232.689	30.04
232.907	-0.68
233.125	3.41
233.342	9.56
233.56	-39.59
233.777	81.24
233.995	40.28
234.213	83.28
234.43	38.23
234.648	-12.97
234.865	56.66
235.083	46.42
235.3	50.52
235.518	19.8
235.735	111.96
235.953	9.56
236.17	23.89
236.388	-17.07
236.605	46.42
236.822	56.66
237.04	85.33
237.257	9.56
237.475	-37.55
237.692	52.56
237.909	89.43
238.127	-21.16
238.344	32.08
238.562	58.71
238.779	25.94
238.996	56.66
239.214	75.09
239.431	-31.4
239.648	23.89
239.865	-41.64
240.083	30.04
240.3	34.13
240.517	-23.21
240.735	-29.35
240.952	83.28
241.169	68.95
241.386	30.04
241.603	13.65
241.821	-6.83
242.038	60.76
242.255	50.52
242.472	7.51
242.689	77.14
242.907	83.28
243.124	9.56
243.341	-2.73
243.558	-17.07
243.775	52.56
243.992	-17.07
244.209	64.85
244.426	48.47
244.643	50.52
244.86	19.8
245.078	15.7
245.295	40.28
245.512	-8.87
245.729	40.28
245.946	73.04
246.163	25.94
246.38	-8.87
246.597	105.81
246.814	75.09
247.031	32.08
247.248	109.91
247.464	-4.78
247.681	-23.21
247.898	101.72
248.115	89.43
248.332	-33.45
248.549	-0.68
248.766	48.47
248.983	11.61
249.2	-8.87
249.417	21.85
249.633	64.85
249.85	23.89
250.067	3.41
250.284	50.52
250.501	32.08
250.717	54.61
250.934	-39.59
251.151	68.95
251.368	23.89
251.585	101.72
251.801	1.37
252.018	36.18
252.235	34.13
252.451	32.08
252.668	-10.92
252.885	97.62
253.102	75.09
253.318	42.32
253.535	40.28
253.752	103.76
253.968	27.99
254.185	-8.87
254.401	32.08
254.618	56.66
254.835	15.7
255.051	-2.73
255.268	3.41
255.484	40.28
255.701	-8.87
255.917	114
256.134	-23.21
256.351	56.66
256.567	25.94
256.784	89.43
257	19.8
257.217	56.66
257.433	40.28
257.65	81.24
257.866	48.47
258.082	-31.4
258.299	-15.02
258.515	32.08
258.732	-4.78
258.948	58.71
259.165	38.23
259.381	-23.21
259.597	-25.26
259.814	-4.78
260.03	50.52
260.246	44.37
260.463	83.28
260.679	111.96
260.895	-25.26
261.112	27.99
261.328	50.52
261.544	7.51
261.761	146.77
261.977	58.71
262.193	-12.97
262.409	-8.87
262.626	77.14
262.842	85.33
263.058	-66.22
263.274	68.95
263.49	56.66
263.707	95.57
263.923	66.9
264.139	25.94
264.355	15.7
264.571	97.62
264.787	-8.87
265.004	60.76
265.22	34.13
265.436	38.23
265.652	3.41
265.868	122.2
266.084	-25.26
266.3	32.08
266.516	15.7
266.732	-2.73
266.948	-39.59
267.164	23.89
267.38	71
267.596	15.7
267.812	124.24
268.028	48.47
268.244	-15.02
268.46	17.75
268.676	48.47
268.892	19.8
269.108	-64.17
269.324	52.56
269.54	15.7
269.756	73.04
269.972	-8.87
270.188	52.56
270.403	-25.26
270.619	42.32
270.835	120.15
271.051	73.04
271.267	-23.21
271.483	34.13
271.698	-15.02
271.914	17.75
272.13	-17.07
272.346	56.66
272.562	23.89
272.777	-0.68
272.993	40.28
273.209	36.18
273.425	-23.21
273.64	-0.68
273.856	81.24
274.072	-6.83
274.287	32.08
274.503	48.47
274.719	93.52
274.934	23.89
275.15	17.75
275.366	15.7
275.581	15.7
275.797	97.62
276.012	3.41
276.228	32.08
276.444	9.56
276.659	77.14
276.875	-25.26
277.09	52.56
277.306	68.95
277.521	75.09
277.737	-8.87
277.952	52.56
278.168	7.51
278.383	58.71
278.599	11.61
278.814	66.9
279.03	58.71
279.245	73.04
279.461	11.61
279.676	122.2
279.892	7.51
280.107	42.32
280.322	56.66
280.538	52.56
280.753	46.42
280.969	109.91
281.184	91.48
281.399	64.85
281.615	19.8
281.83	77.14
282.045	48.47
282.26	-17.07
282.476	-4.78
282.691	75.09
282.906	48.47
283.122	-37.55
283.337	1.37
283.552	54.61
283.767	44.37
283.983	34.13
284.198	73.04
284.413	64.85
284.628	40.28
284.843	9.56
285.058	36.18
285.274	-0.68
285.489	42.32
285.704	81.24
285.919	89.43
286.134	25.94
286.349	-33.45
286.564	75.09
286.779	36.18
286.995	81.24
287.21	-33.45
287.425	3.41
287.64	-17.07
287.855	126.29
288.07	42.32
288.285	81.24
288.5	103.76
288.715	46.42
288.93	-8.87
289.145	23.89
289.36	111.96
289.575	124.24
289.79	73.04
290.004	-66.22
290.219	118.1
290.434	44.37
290.649	19.8
290.864	-8.87
291.079	-0.68
291.294	60.76
291.509	81.24
291.724	60.76
291.938	-0.68
292.153	56.66
292.368	30.04
292.583	83.28
292.798	23.89
293.012	48.47
293.227	111.96
293.442	-6.83
293.657	48.47
293.871	124.24
294.086	40.28
294.301	95.57
294.516	75.09
294.73	81.24
294.945	-49.83
295.16	-17.07
295.374	99.67
295.589	75.09
295.804	56.66
296.018	101.72
296.233	48.47
296.447	15.7
296.662	-45.74
296.877	91.48
297.091	44.37
297.306	105.81
297.52	91.48
297.735	11.61
297.949	36.18
298.164	118.1
298.378	32.08
298.593	-64.17
298.807	15.7
299.022	40.28
299.236	17.75
299.451	7.51
299.665	73.04
299.88	42.32
300.094	36.18
300.309	68.95
300.523	32.08
300.737	-0.68
300.952	40.28
301.166	114
301.381	40.28
301.595	-41.64
301.809	25.94
302.024	40.28
302.238	42.32
302.452	21.85
302.667	73.04
302.881	130.39
303.095	48.47
303.309	50.52
303.524	1.37
303.738	-33.45
303.952	-10.92
304.166	73.04
304.381	-8.87
304.595	81.24
304.809	95.57
305.023	-25.26
305.237	-12.97
305.452	-0.68
305.666	9.56
305.88	91.48
306.094	19.8
306.308	99.67
306.522	128.34
306.736	48.47
306.95	81.24
307.164	15.7
307.379	64.85
307.593	27.99
307.807	114
308.021	89.43
308.235	54.61
308.449	-84.65
308.663	62.8
308.877	66.9
309.091	81.24
309.305	81.24
309.519	-33.45
309.733	19.8
309.947	66.9
310.161	40.28
310.374	118.1
310.588	66.9
310.802	-4.78
311.016	-8.87
311.23	66.9
311.444	23.89
311.658	-6.83
311.872	17.75
312.085	89.43
312.299	99.67
312.513	32.08
312.727	81.24
312.941	44.37
313.154	48.47
313.368	50.52
313.582	32.08
313.796	-49.83
314.009	75.09
314.223	224.59
314.437	15.7
314.651	99.67
314.864	122.2
315.078	89.43
315.292	71
315.505	48.47
315.719	116.05
315.933	-31.4
316.146	36.18
316.36	11.61
316.573	56.66
316.787	3.41
317.001	132.44
317.214	32.08
317.428	7.51
317.641	-10.92
317.855	40.28
318.068	25.94
318.282	25.94
318.495	56.66
318.709	3.41
318.922	66.9
319.136	105.81
319.349	122.2
319.563	11.61
319.776	44.37
319.99	-49.83
320.203	27.99
320.417	77.14
320.63	48.47
320.843	85.33
321.057	-23.21
321.27	1.37
321.483	50.52
321.697	25.94
321.91	91.48
322.124	48.47
322.337	36.18
322.55	-39.59
322.763	81.24
322.977	-0.68
323.19	23.89
323.403	130.39
323.617	107.86
323.83	73.04
324.043	-4.78
324.256	50.52
324.469	32.08
324.683	81.24
324.896	-47.79
325.109	25.94
325.322	44.37
325.535	58.71
325.748	7.51
325.962	21.85
326.175	52.56
326.388	7.51
326.601	32.08
326.814	-15.02
327.027	58.71
327.24	54.61
327.453	19.8
327.666	15.7
327.879	46.42
328.092	7.51
328.305	3.41
328.518	34.13
328.731	71
328.944	-29.35
329.157	93.52
329.37	-15.02
329.583	7.51
329.796	116.05
330.009	19.8
330.222	122.2
330.435	21.85
330.648	52.56
330.861	38.23
331.073	105.81
331.286	142.68
331.499	32.08
331.712	48.47
331.925	77.14
332.138	118.1
332.35	97.62
332.563	42.32
332.776	148.82
332.989	46.42
333.202	44.37
333.414	64.85
333.627	81.24
333.84	21.85
334.053	-23.21
334.265	52.56
334.478	3.41
334.691	44.37
334.903	50.52
335.116	60.76
335.329	-29.35
335.541	105.81
335.754	77.14
335.966	32.08
336.179	15.7
336.392	81.24
336.604	138.58
336.817	79.19
337.029	85.33
337.242	116.05
337.454	9.56
337.667	-8.87
337.88	73.04
338.092	-6.83
338.305	54.61
338.517	73.04
338.729	83.28
338.942	150.87
339.154	32.08
339.367	-25.26
339.579	-33.45
339.792	23.89
340.004	81.24
340.217	81.24
340.429	7.51
340.641	50.52
340.854	25.94
341.066	89.43
341.278	-27.31
341.491	130.39
341.703	7.51
341.915	25.94
342.128	66.9
342.34	40.28
342.552	-10.92
342.764	136.53
342.977	97.62
343.189	44.37
343.401	32.08
343.613	-68.27
343.826	19.8
344.038	-4.78
344.25	81.24
344.462	25.94
344.674	32.08
344.886	83.28
345.099	126.29
345.311	89.43
345.523	66.9
345.735	-15.02
345.947	-8.87
346.159	-33.45
346.371	68.95
346.583	32.08
346.795	140.63
347.007	9.56
347.219	58.71
347.431	114
347.643	64.85
347.855	3.41
348.067	114
348.279	15.7
348.491	34.13
348.703	60.76
348.915	-33.45
349.127	-17.07
349.339	64.85
349.551	25.94
349.763	99.67
349.975	1.37
350.187	161.11
350.399	91.48
350.61	23.89
350.822	66.9
351.034	66.9
351.246	32.08
351.458	17.75
351.669	89.43
351.881	42.32
352.093	48.47
352.305	105.81
352.517	105.81
352.728	105.81
352.94	-0.68
353.152	85.33
353.363	-6.83
353.575	81.24
353.787	97.62
353.999	27.99
354.21	81.24
354.422	64.85
354.633	56.66
354.845	32.08
355.057	46.42
355.268	91.48
355.48	85.33
355.692	77.14
355.903	64.85
356.115	79.19
356.326	32.08
356.538	109.91
356.749	58.71
356.961	89.43
357.172	101.72
357.384	46.42
357.595	48.47
357.807	-15.02
358.018	27.99
358.23	3.41
358.441	58.71
358.653	23.89
358.864	73.04
359.075	34.13
359.287	9.56
359.498	73.04
359.709	56.66
359.921	9.56
360.132	36.18
360.344	58.71
360.555	50.52
360.766	36.18
360.977	68.95
361.189	83.28
361.4	56.66
361.611	130.39
361.823	75.09
362.034	48.47
362.245	-33.45
362.456	56.66
362.667	81.24
362.879	30.04
363.09	40.28
363.301	40.28
363.512	42.32
363.723	27.99
363.935	-17.07
364.146	60.76
364.357	109.91
364.568	87.38
364.779	-12.97
364.99	89.43
365.201	71
365.412	77.14
365.623	-10.92
365.834	66.9
366.045	95.57
366.256	58.71
366.467	71
366.678	44.37
366.889	32.08
367.1	-12.97
367.311	124.24
367.522	11.61
367.733	9.56
367.944	66.9
368.155	40.28
368.366	93.52
368.577	124.24
368.788	146.77
368.999	167.25
369.209	124.24
369.42	95.57
369.631	101.72
369.842	50.52
370.053	25.94
370.264	50.52
370.474	114
370.685	83.28
370.896	52.56
371.107	52.56
371.317	64.85
371.528	50.52
371.739	85.33
371.95	77.14
372.16	48.47
372.371	27.99
372.582	48.47
372.792	126.29
373.003	116.05
373.214	-25.26
373.424	93.52
373.635	-6.83
373.846	73.04
374.056	73.04
374.267	140.63
374.477	38.23
374.688	60.76
374.898	68.95
375.109	25.94
375.319	68.95
375.53	101.72
375.74	27.99
375.951	66.9
376.161	52.56
376.372	163.15
376.582	9.56
376.793	58.71
377.003	-17.07
377.214	68.95
377.424	97.62
377.635	116.05
377.845	42.32
378.055	114
378.266	34.13
378.476	7.51
378.686	32.08
378.897	81.24
379.107	122.2
379.317	81.24
379.528	17.75
379.738	122.2
379.948	-0.68
380.158	105.81
380.369	89.43
380.579	81.24
380.789	-84.65
380.999	32.08
381.21	105.81
381.42	128.34
381.63	52.56
381.84	40.28
382.05	105.81
382.261	89.43
382.471	107.86
382.681	7.51
382.891	161.11
383.101	122.2
383.311	50.52
383.521	73.04
383.731	15.7
383.941	73.04
384.151	46.42
384.361	97.62
384.571	97.62
384.781	68.95
384.991	146.77
385.201	163.15
385.411	56.66
385.621	52.56
385.831	68.95
386.041	48.47
386.251	101.72
386.461	103.76
386.671	93.52
386.881	68.95
387.091	32.08
387.301	81.24
387.511	48.47
387.72	-0.68
387.93	116.05
388.14	71
388.35	73.04
388.56	130.39
388.769	126.29
388.979	7.51
389.189	118.1
389.399	73.04
389.609	81.24
389.818	171.35
390.028	79.19
390.238	167.25
390.447	64.85
390.657	40.28
390.867	83.28
391.076	136.53
391.286	64.85
391.496	105.81
391.705	27.99
391.915	99.67
392.125	97.62
392.334	81.24
392.544	50.52
392.753	138.58
392.963	15.7
393.172	91.48
393.382	148.82
393.591	206.16
393.801	101.72
394.01	134.48
394.22	126.29
394.429	159.06
394.639	66.9
394.848	105.81
395.058	128.34
395.267	101.72
395.477	171.35
395.686	163.15
395.895	118.1
396.105	136.53
396.314	103.76
396.524	93.52
396.733	85.33
396.942	195.92
397.152	163.15
397.361	154.96
397.57	101.72
397.78	122.2
397.989	124.24
398.198	171.35
398.407	134.48
398.617	58.71
398.826	103.76
399.035	130.39
399.244	124.24
399.453	89.43
399.663	134.48
399.872	195.92
400.081	142.68
400.29	163.15
400.499	99.67
400.708	173.39
400.917	204.11
401.127	58.71
401.336	134.48
401.545	195.92
401.754	122.2
401.963	177.49
402.172	222.55
402.381	171.35
402.59	183.63
402.799	132.44
403.008	245.07
403.217	107.86
403.426	265.55
403.635	191.83
403.844	150.87
404.053	245.07
404.262	206.16
404.471	290.13
404.68	230.74
404.888	224.59
405.097	230.74
405.306	253.27
405.515	253.27
405.724	175.44
405.933	257.36
406.142	240.98
406.35	290.13
406.559	290.13
406.768	247.12
406.977	300.37
407.185	245.07
407.394	263.51
407.603	310.61
407.812	236.88
408.02	372.05
408.229	384.34
408.438	384.34
408.646	279.89
408.855	308.56
409.064	314.7
409.272	367.95
409.481	413.01
409.69	345.42
409.898	386.38
410.107	417.1
410.315	474.45
410.524	435.53
410.733	433.49
410.941	460.11
411.15	548.17
411.358	509.26
411.567	564.56
411.775	507.21
411.984	523.6
412.192	566.6
412.401	486.73
412.609	613.71
412.818	671.05
413.026	769.35
413.234	793.93
413.443	777.55
413.651	789.83
413.86	705.87
414.068	884.04
414.276	908.62
414.485	812.36
414.693	1047.88
414.901	976.2
415.11	904.52
415.318	980.29
415.526	1060.17
415.734	1107.27
415.943	1125.7
416.151	1125.7
416.359	1195.33
416.567	1203.52
416.776	1203.52
416.984	1363.26
417.192	1400.13
417.4	1449.28
417.608	1402.18
417.817	1387.84
418.025	1482.05
418.233	1604.92
418.441	1604.92
418.649	1580.35
418.857	1860.92
419.065	1858.87
419.273	1842.49
419.481	1744.19
419.689	1916.22
419.897	1989.94
420.105	2114.87
420.313	2207.03
420.521	2274.61
420.729	2334
420.937	2245.94
421.145	2377.01
421.353	2608.43
421.561	2751.79
421.769	2671.92
421.977	2723.12
422.185	2805.03
422.393	3036.45
422.601	3177.76
422.809	3212.58
423.017	3118.37
423.224	3267.88
423.432	3292.45
423.64	3507.49
423.848	3767.58
424.056	3640.61
424.263	4021.53
424.471	3931.42
424.679	4062.49
424.887	4168.98
425.094	4472.08
425.302	4433.17
425.51	4406.55
425.718	4795.66
425.925	4807.95
426.133	4877.58
426.341	5086.47
426.548	5356.8
426.756	5510.4
426.964	5553.41
427.171	5711.1
427.379	5940.47
427.586	6120.7
427.794	6196.47
428.001	6458.61
428.209	6849.77
428.417	6700.27
428.624	7103.72
428.832	7281.89
429.039	7085.29
429.247	7113.96
429.454	7775.45
429.662	8428.76
429.869	7789.79
430.076	8344.79
430.284	8209.62
430.491	8412.37
430.699	8903.89
430.906	9075.91
431.114	9264.33
431.321	9395.4
431.528	9622.72
431.736	10292.41
431.943	10697.91
432.15	10333.37
432.358	10591.41
432.565	11093.16
432.772	10951.85
432.979	11496.61
433.187	11713.7
433.394	11652.26
433.601	12639.38
433.808	12747.92
434.016	12364.95
434.223	13018.25
434.43	13796.48
434.637	13614.21
434.844	14570.61
435.052	14632.05
435.259	14746.74
435.466	15004.78
435.673	14765.17
435.88	15481.96
436.087	16389.21
436.294	16307.29
436.501	16161.89
436.708	16342.11
436.915	16895.06
437.122	17777.73
437.329	17658.95
437.537	17990.72
437.743	18279.49
437.95	18336.83
438.157	19262.51
438.364	19831.85
438.571	19823.65
438.778	19971.11
438.985	21894.15
439.192	20966.42
439.399	21382.16
439.606	21140.5
439.813	22045.7
440.02	23774.19
440.227	22850.55
440.433	22920.18
440.64	23833.58
440.847	23604.21
441.054	23972.84
441.261	25529.3
441.467	25381.84
441.674	25646.03
441.881	26811.32
442.088	26514.37
442.294	26342.34
442.501	27294.64
442.708	27657.14
442.914	28795.81
443.121	30106.51
443.328	28861.34
443.534	31093.63
443.741	30387.08
443.948	29604.75
444.154	32142.19
444.361	31716.21
444.568	31968.11
444.774	31939.44
444.981	32586.6
445.187	33141.6
445.394	34698.05
445.6	34505.54
445.807	37325.6
446.013	36012.85
446.22	36705.06
446.426	37602.07
446.633	38075.15
446.839	39662.33
447.046	38087.44
447.252	39969.52
447.459	40098.55
447.665	39936.76
447.871	41919.19
448.078	43496.13
448.284	41138.91
448.491	42285.78
448.697	43840.18
448.903	44659.37
449.11	44741.29
449.316	44159.67
449.522	44925.61
449.728	45939.35
449.935	45976.22
450.141	46598.8
450.347	47692.41
450.553	46189.2
450.76	46582.41
450.966	48065.14
451.172	47358.59
451.378	48540.27
451.584	47952.51
451.791	48824.94
451.997	48648.81
452.203	49470.05
452.409	49652.32
452.615	49031.79
452.821	47432.32
453.027	46514.83
453.233	49300.07
453.44	47420.03
453.646	47706.75
453.852	47989.37
454.058	49019.5
454.264	47563.39
454.47	48386.67
454.676	47170.18
454.882	48589.42
455.088	44491.44
455.294	45216.42
455.5	45617.82
455.705	46307.99
455.911	44483.25
456.117	43619
456.323	43373.25
456.529	41128.67
456.735	42717.9
456.941	41298.66
457.147	40665.83
457.352	39725.82
457.558	39232.25
457.764	39547.64
457.97	38650.63
458.176	37612.31
458.381	37679.89
458.587	35615.54
458.793	35763
458.999	33870.67
459.204	36295.47
459.41	35271.48
459.616	33022.81
459.821	33020.77
460.027	32920.42
460.233	32232.3
460.438	31093.63
460.644	31128.44
460.85	29715.34
461.055	29500.31
461.261	29528.98
461.466	26940.35
461.672	26172.36
461.878	27837.36
462.083	26139.59
462.289	25648.08
462.494	25234.39
462.7	24423.39
462.905	23579.63
463.111	24832.99
463.316	24513.5
463.522	23999.46
463.727	24247.27
463.932	24253.41
464.138	23587.82
464.343	24243.17
464.549	23450.61
464.754	23849.96
464.959	23872.49
465.165	24007.65
465.37	22711.29
465.575	22115.33
465.781	22963.19
465.986	23004.15
466.191	22404.1
466.397	21785.61
466.602	20755.48
466.807	21566.48
467.012	21580.81
467.218	21310.48
467.423	21351.44
467.628	21103.64
467.833	22350.85
468.038	21412.88
468.244	20663.32
468.449	21443.6
468.654	20648.99
468.859	20599.83
469.064	20720.67
469.269	19668.01
469.474	19846.18
469.679	20132.9
469.885	19862.57
470.09	20223.01
470.295	19706.92
470.5	19616.81
470.705	19491.88
470.91	19201.07
471.115	19010.61
471.32	19319.85
471.525	19059.76
471.73	18525.24
471.935	18603.07
472.139	17749.06
472.344	18179.14
472.549	18230.34
472.754	17753.16
472.959	17384.52
473.164	17046.61
473.369	16774.23
473.574	17634.38
473.778	17185.87
473.983	17251.41
474.188	16927.83
474.393	16157.79
474.598	16555.1
474.802	16303.2
475.007	16352.35
475.212	16000.1
475.417	15535.21
475.621	15641.7
475.826	15592.55
476.031	15318.12
476.235	15133.81
476.44	15375.47
476.645	15023.22
476.849	15168.62
477.054	14802.04
477.259	14464.12
477.463	14400.63
477.668	14204.03
477.872	14492.79
478.077	14222.46
478.282	13575.3
478.486	13698.18
478.691	13614.21
478.895	13595.78
479.1	13618.31
479.304	13675.65
479.509	13016.21
479.713	13249.68
479.918	13268.11
480.122	13114.51
480.326	13378.7
480.531	13261.96
480.735	13089.93
480.94	12850.32
481.144	13294.73
481.348	12633.24
481.553	12657.81
481.757	12395.67
481.961	12770.45
482.166	13038.73
482.37	12674.2
482.574	12414.1
482.778	12489.88
482.983	12749.97
483.187	12463.26
483.391	12831.89
483.595	12524.69
483.8	12405.91
484.004	12352.66
484.208	12786.83
484.412	12557.46
484.616	12633.24
484.821	12629.14
485.025	12340.38
485.229	12598.42
485.433	12442.78
485.637	12418.2
485.841	12573.85
486.045	12389.53
486.249	12477.59
486.453	12434.58
486.657	12502.17
486.861	12764.31
487.065	12430.49
487.269	12399.77
487.473	12434.58
487.677	12584.09
487.881	12663.96
488.085	12541.08
488.289	12723.35
488.493	12516.5
488.697	12702.87
488.901	12500.12
489.105	12401.82
489.309	12491.93
489.512	12657.81
489.716	12436.63
489.92	12536.98
490.124	12326.04
490.328	12715.16
490.531	12897.42
490.735	12887.18
490.939	12924.05
491.143	12561.56
491.346	12862.61
491.55	13028.49
491.754	12942.48
491.958	13259.92
492.161	13089.93
492.365	13231.24
492.569	12995.73
492.772	13350.03
492.976	13370.51
493.18	13276.3
493.383	13479.05
493.587	13689.99
493.79	13804.67
493.994	13497.48
494.197	13642.89
494.401	13890.69
494.605	13988.99
494.808	14007.42
495.012	13898.88
495.215	14306.43
495.419	14281.85
495.622	14175.36
495.825	14445.69
496.029	14591.09
496.232	14949.49
496.436	14728.31
496.639	14957.68
496.843	14963.83
497.046	15264.88
497.249	15475.82
497.453	15617.13
497.656	15692.9
497.859	15588.46
498.063	15651.94
498.266	16225.37
498.469	15856.74
498.673	16362.59
498.876	16399.45
499.079	16649.3
499.282	16553.05
499.485	17060.94
499.689	17073.23
499.892	17329.23
500.095	17400.91
500.298	17888.32
500.501	17407.05
500.705	18005.06
500.908	18336.83
501.111	18226.24
501.314	18492.48
501.517	18914.36
501.72	19080.24
501.923	18940.98
502.126	19506.22
502.329	19489.84
502.532	19371.05
502.735	20093.99
502.938	20360.22
503.141	20153.38
503.344	20605.98
503.547	20464.67
503.75	20782.1
503.953	21404.69
504.156	21242.9
504.359	21353.49
504.562	21517.33
504.765	22184.96
504.968	22144
505.17	22369.28
505.373	22436.86
505.576	23217.14
505.779	23213.04
505.982	23380.98
506.185	23542.77
506.387	23788.52
506.59	23649.26
506.793	24452.06
506.996	24384.48
507.198	24996.82
507.401	24892.38
507.604	25154.52
507.807	25543.63
508.009	25760.72
508.212	26078.15
508.415	26350.53
508.617	26444.74
508.82	26477.51
509.022	26641.34
509.225	27372.47
509.428	27472.82
509.63	27620.27
509.833	27685.81
510.035	28502.95
510.238	28185.51
510.44	28611.49
510.643	28933.02
510.845	29412.24
511.048	29219.74
511.25	30020.49
511.453	29242.26
511.655	31011.71
511.858	30532.48
512.06	30878.59
512.262	31435.64
512.465	31292.28
512.667	31736.69
512.87	32093.04
513.072	31859.57
513.274	32529.25
513.477	32562.02
513.679	32906.08
513.881	33520.47
514.084	33684.31
514.286	33753.94
514.488	33964.88
514.69	34712.39
514.893	34681.67
515.095	34927.42
515.297	35189.56
515.499	35255.1
515.701	35920.69
515.904	35990.32
516.106	36203.31
516.308	36680.49
516.51	37196.57
516.712	37182.24
516.914	37016.35
517.116	37976.85
517.318	38310.67
517.52	38103.82
517.722	38191.89
517.925	38943.49
518.127	38937.35
518.329	39523.07
518.531	39168.77
518.733	40145.65
518.935	40215.28
519.136	40284.91
519.338	40735.46
519.54	40956.64
519.742	41300.7
519.944	41325.28
520.146	42017.49
520.348	42255.06
520.55	42283.73
520.752	42040.02
520.954	43088.58
521.155	42443.47
521.357	43320
521.559	43657.92
521.761	43928.25
521.963	43680.44
522.164	43778.75
522.366	44223.15
522.568	44657.32
522.77	44569.26
522.971	45195.94
523.173	44915.37
523.375	45081.25
523.576	45234.85
523.778	45083.3
523.98	45982.36
524.181	45998.74
524.383	46090.9
524.584	46166.68
524.786	46570.13
524.988	46125.72
525.189	46572.17
525.391	46951.05
525.592	46744.2
525.794	46776.97
525.995	47114.89
526.197	47374.98
526.398	46961.29
526.6	48032.38
526.801	47561.34
527.003	47846.01
527.204	47757.95
527.406	48343.67
527.607	47727.23
527.808	48319.09
528.01	47315.59
528.211	48063.1
528.412	48673.39
528.614	48849.52
528.815	48450.16
529.016	48599.66
529.218	48687.73
529.419	48394.87
529.62	48515.7
529.822	48124.53
530.023	48415.35
530.224	48695.92
530.425	48493.17
530.626	48476.79
530.828	48167.54
531.029	49066.6
531.23	48362.1
531.431	48493.17
531.632	48554.61
531.833	48716.4
532.035	48151.16
532.236	48781.93
532.437	48804.46
532.638	48200.31
532.839	48294.52
533.04	48425.59
533.241	48132.73
533.442	48953.96
533.643	48358
533.844	48525.94
534.045	48452.21
534.246	48185.97
534.447	48466.55
534.648	48214.65
534.849	48796.27
535.05	48110.2
535.251	48222.84
535.451	48286.32
535.652	48482.93
535.853	48149.11
536.054	48132.73
536.255	48509.55
536.456	47716.99
536.657	48734.83
536.857	47886.97
537.058	48075.38
537.259	48263.8
537.46	48007.8
537.66	47755.9
537.861	48439.92
538.062	47911.55
538.263	48206.45
538.463	47827.58
538.664	47141.51
538.865	47733.37
539.065	48081.53
539.266	47827.58
539.466	48163.45
539.667	47161.99
539.868	48374.39
540.068	47731.32
540.269	47506.05
540.469	47649.41
540.67	47475.33
540.87	47360.64
541.071	47587.97
541.271	47602.3
541.472	47538.82
541.672	47104.65
541.873	47420.03
542.073	46789.26
542.274	48190.07
542.474	47147.65
542.675	47321.73
542.875	47665.79
543.075	47200.9
543.276	46891.66
543.476	47370.88
543.676	47278.72
543.877	47450.75
544.077	47731.32
544.277	47415.94
544.478	47268.48
544.678	47456.9
544.878	47297.16
545.078	47176.33
545.279	46781.07
545.479	46731.92
545.679	47731.32
545.879	47008.39
546.079	47213.19
546.28	47182.47
546.48	46635.66
546.68	47188.61
546.88	47235.72
547.08	46901.9
547.28	46705.29
547.48	46924.43
547.68	47149.7
547.88	46891.66
548.081	47501.95
548.281	47032.97
548.481	47084.17
548.681	47075.97
548.881	47161.99
549.081	47112.84
549.28	47006.34
549.48	47223.43
549.68	47032.97
549.88	47948.41
550.08	47094.41
550.28	47293.06
550.48	46576.27
550.68	47684.22
550.88	46598.8
551.08	47149.7
551.279	47180.42
551.479	46547.6
551.679	47432.32
551.879	47270.53
552.079	47649.41
552.278	46394
552.478	47299.2
552.678	47274.63
552.878	47667.84
553.077	47141.51
553.277	46977.67
553.477	47786.62
553.676	47043.21
553.876	47313.54
554.076	47067.78
554.275	47127.17
554.475	45970.07
554.674	47086.21
554.874	47331.97
555.074	46912.14
555.273	47147.65
555.473	47860.35
555.672	46940.81
555.872	46869.13
556.071	47473.28
556.271	47575.68
556.47	47098.5
556.67	46776.97
556.869	47131.27
557.068	47362.69
557.268	46715.53
557.467	47084.17
557.667	47080.07
557.866	47035.02
558.065	47311.49
558.265	46799.5
558.464	46928.52
558.663	47504
558.863	47028.87
559.062	47714.94
559.261	46666.38
559.461	47630.97
559.66	46250.64
559.859	47319.68
560.058	46840.46
560.258	47268.48
560.457	46459.54
560.656	47059.59
560.855	47043.21
561.054	46891.66
561.253	46586.51
561.453	46967.43
561.652	46998.15
561.851	47180.42
562.05	46901.9
562.249	46545.55
562.448	47348.35
562.647	47073.93
562.846	46736.01
563.045	46508.69
563.244	46426.77
563.443	46799.5
563.642	46312.08
563.841	46580.37
564.04	46660.24
564.239	46779.02
564.438	46230.16
564.637	46514.83
564.836	46785.16
565.035	46215.83
565.234	46531.22
565.432	46109.33
565.631	46056.09
565.83	46490.26
566.029	46267.03
566.228	46277.27
566.427	46004.89
566.625	45820.57
566.824	45390.5
567.023	46025.37
567.222	45546.14
567.42	46142.1
567.619	45863.58
567.818	46008.98
568.016	45374.11
568.215	45814.43
568.414	45290.15
568.612	45648.54
568.811	45224.61
569.01	45312.67
569.208	44864.17
569.407	45247.14
569.605	44941.99
569.804	45398.69
570.002	44978.85
570.201	45333.15
570.4	44978.85
570.598	44755.63
570.797	44593.84
570.995	44772.01
571.193	44288.69
571.392	44802.73
571.59	44374.7
571.789	44528.3
571.987	44194.48
572.186	43825.85
572.384	44255.92
572.582	44171.96
572.781	44468.91
572.979	43367.1
573.177	44198.58
573.376	44049.08
573.574	43666.11
573.772	44073.65
573.971	43356.86
574.169	43115.2
574.367	43164.35
574.565	43500.22
574.763	43209.41
574.962	43133.64
575.16	43027.14
575.358	42871.5
575.556	42543.82
575.754	42977.99
575.952	42765
576.151	42912.45
576.349	42482.38
576.547	42494.67
576.745	42332.88
576.943	42345.17
577.141	42148.56
577.339	42611.4
577.537	42341.07
577.735	41966.29
577.933	41691.87
578.131	41935.57
578.329	41573.08
578.527	41765.59
578.725	41646.81
578.923	41532.12
579.121	41427.68
579.319	41362.14
579.516	41382.62
579.714	41169.63
579.912	41241.31
580.11	40831.72
580.308	40942.31
580.506	40422.12
580.704	39936.76
580.901	40592.11
581.099	40858.34
581.297	40334.06
581.495	40301.29
581.692	40563.43
581.89	39983.86
582.088	40315.63
582.285	39883.51
582.483	40233.71
582.681	39766.77
582.878	39766.77
583.076	39211.78
583.274	39795.45
583.471	39228.16
583.669	39312.13
583.866	39060.23
584.064	39310.08
584.262	38882.05
584.459	39324.41
584.657	38681.35
584.854	39095.04
585.052	38656.78
585.249	39088.9
585.447	38798.09
585.644	38198.03
585.841	38533.9
586.039	38699.78
586.236	38079.25
586.434	38040.34
586.631	38243.09
586.828	37960.47
587.026	37962.51
587.223	38269.71
587.42	37999.38
587.618	37647.13
587.815	37663.51
588.012	37280.54
588.21	37122.85
588.407	37548.82
588.604	37151.52
588.801	36983.58
588.999	37149.47
589.196	36854.56
589.393	37038.88
589.59	36674.34
589.787	37020.45
589.984	36721.44
590.182	36264.75
590.379	36989.73
590.576	36266.8
590.773	36490.02
590.97	36377.39
591.167	36449.07
591.364	36045.62
591.561	36303.66
591.758	35816.24
591.955	36119.34
592.152	36154.16
592.349	36023.09
592.546	35859.25
592.743	35572.53
592.94	35371.83
593.137	35488.57
593.334	35793.72
593.531	35113.79
593.727	35298.11
593.924	35087.17
594.121	34933.57
594.318	35220.28
594.515	34399.05
594.712	35263.29
594.908	34747.2
595.105	34933.57
595.302	34501.45
595.499	34835.27
595.696	34513.73
595.892	34022.22
596.089	34790.21
596.286	34394.95
596.482	34519.88
596.679	34569.03
596.876	34648.9
597.072	34427.72
597.269	34413.38
597.466	34151.24
597.662	34016.08
597.859	33792.85
598.055	34227.02
598.252	33842
598.448	34026.32
598.645	33977.17
598.841	33594.2
599.038	33672.02
599.234	33600.34
599.431	33825.62
599.627	33258.33
599.824	33239.9
600.02	33481.56
600.217	33635.16
600.413	33344.34
600.609	33348.44
600.806	32988
601.002	33217.37
601.198	32912.22
601.395	32650.08
601.591	33270.62
601.787	32854.88
601.984	33035.1
602.18	33237.85
602.376	32930.65
602.572	32881.5
602.769	32811.87
602.965	32750.43
603.161	32670.56
603.357	32682.85
603.553	32691.04
603.75	32512.87
603.946	32781.15
604.142	32877.41
604.338	32031.6
604.534	32545.64
604.73	32240.49
604.926	32574.31
605.122	32340.84
605.318	32301.93
605.514	32140.14
605.71	31986.54
605.906	32185.19
606.102	31822.7
606.298	32050.03
606.494	32029.55
606.69	32013.16
606.886	32336.74
607.082	31720.31
607.278	32066.41
607.474	31695.73
607.67	32240.49
607.866	31736.69
608.062	31945.58
608.257	31998.83
608.453	32193.39
608.649	32068.46
608.845	31644.53
609.041	31802.22
609.236	31734.64
609.432	32125.8
609.628	31847.28
609.824	31730.55
610.019	31918.96
610.215	31939.44
610.411	32050.03
610.606	31775.6
610.802	32021.36
610.998	31798.13
611.193	31837.04
611.389	31796.08
611.584	31861.62
611.78	31609.71
611.976	31660.91
612.171	31800.18
612.367	31888.24
612.562	31781.74
612.758	31370.1
612.953	31574.9
613.149	31523.7
613.344	31429.49
613.539	32183.15
613.735	31724.4
613.93	31470.45
614.126	31763.31
614.321	31898.48
614.517	31941.49
614.712	31771.5
614.907	31284.09
615.103	31689.59
615.298	31398.77
615.493	32007.02
615.688	31425.4
615.884	31802.22
616.079	30901.12
616.274	31462.26
616.47	31406.97
616.665	31517.56
616.86	30940.03
617.055	31150.97
617.25	31030.14
617.445	31411.06
617.641	30540.68
617.836	31204.22
618.031	30604.16
618.226	31146.87
618.421	30729.09
618.616	30917.5
618.811	30507.91
619.006	30749.57
619.201	30000.01
619.396	30370.69
619.591	29909.9
619.786	30444.42
619.981	29850.51
620.176	30313.35
620.371	29811.6
620.566	29950.86
620.761	29666.19
620.956	29721.49
621.151	29447.06
621.346	29541.27
621.541	29240.22
621.735	29336.47
621.93	28742.56
622.125	28775.33
622.32	28969.88
622.515	28760.99
622.709	28728.22
622.904	28326.82
623.099	28380.07
623.294	28285.86
623.488	28068.78
623.683	28558.24
623.878	27653.04
624.072	27913.13
624.267	27718.57
624.462	27780.01
624.656	27392.95
624.851	27607.98
625.046	27288.5
625.24	27177.91
625.435	26723.26
625.629	26442.69
625.824	26721.21
626.018	26776.51
626.213	26164.17
626.407	26543.04
626.602	26198.98
626.796	26061.77
626.991	26153.93
627.185	25764.81
627.38	25748.43
627.574	25809.87
627.768	25385.94
627.963	25111.51
628.157	25033.69
628.352	25316.31
628.546	24640.48
628.74	24863.71
628.935	24720.35
629.129	24699.87
629.323	24232.93
629.517	24507.36
629.712	24239.08
629.906	24036.33
630.1	23518.19
630.294	23901.16
630.489	23596.01
630.683	23743.47
630.877	23411.7
631.071	23256.05
631.265	23370.74
631.459	23194.61
631.653	23041.01
631.848	22918.14
632.042	22645.76
632.236	22916.09
632.43	22287.36
632.624	22496.25
632.818	22279.17
633.012	22045.7
633.206	21996.55
633.4	22203.39
633.594	21765.13
633.788	22010.89
633.982	21568.52
634.176	21464.08
634.369	21390.35
634.563	21437.45
634.757	21107.73
634.951	21193.75
635.145	21292.05
635.339	21109.78
635.533	20923.41
635.726	20718.62
635.92	20747.29
636.114	20587.55
636.308	20362.27
636.501	20214.82
636.695	20384.8
636.889	20309.02
637.083	20030.5
637.276	19924.01
637.47	20100.13
637.664	19706.92
637.857	19670.06
638.051	19586.09
638.244	19162.16
638.438	19242.03
638.632	19094.58
638.825	19047.47
639.019	19188.78
639.212	18893.88
639.406	18644.02
639.599	18420.8
639.793	18809.91
639.986	18498.62
640.18	18383.93
640.373	18299.97
640.567	18187.33
640.76	18365.5
640.954	18121.79
641.147	17890.37
641.34	17751.11
641.534	17816.65
641.727	17744.97
641.92	17624.14
642.114	17439.82
642.307	17357.9
642.5	17515.59
642.694	17065.04
642.887	17112.14
643.08	17144.91
643.273	16798.81
643.467	16860.24
643.66	16727.13
643.853	16477.27
644.046	16391.26
644.239	16530.52
644.432	16436.31
644.626	16196.7
644.819	16088.16
645.012	16129.12
645.205	16147.55
645.398	16112.74
645.591	15731.81
645.784	15729.77
645.977	15432.81
646.17	15602.79
646.363	15359.08
646.556	15477.87
646.749	15340.65
646.942	15420.52
647.135	15158.38
647.328	15135.85
647.521	14916.72
647.714	14816.37
647.907	14720.12
648.099	14701.69
648.292	14400.63
648.485	14543.99
648.678	14285.95
648.871	14265.47
649.064	14161.02
649.256	14267.52
649.449	14105.73
649.642	14056.57
649.835	13835.39
650.027	13941.89
650.22	13831.3
650.413	13780.1
650.605	13673.6
650.798	13655.17
650.991	13673.6
651.183	13470.86
651.376	13280.39
651.568	13196.43
651.761	13399.18
651.954	13274.25
652.146	12991.63
652.339	13343.88
652.531	12997.77
652.724	13048.97
652.916	12641.43
653.109	12876.94
653.301	12674.2
653.494	12938.38
653.686	12569.75
653.879	12657.81
654.071	12567.7
654.263	12352.66
654.456	12414.1
654.648	12319.9
654.84	12323.99
655.033	12328.09
655.225	12369.05
655.417	11922.59
655.61	12106.91
655.802	11967.65
655.994	11945.12
656.186	11648.16
656.379	11836.58
656.571	11594.92
656.763	11404.46
656.955	11490.47
657.148	11510.95
657.34	11537.57
657.532	11314.34
657.724	11127.98
657.916	11234.47
658.108	11107.5
658.3	11084.97
658.492	11021.49
658.684	10880.18
658.876	10992.81
659.068	10831.02
659.26	10865.84
659.452	10732.72
659.644	10697.91
659.836	10638.51
660.028	10615.99
660.22	10505.4
660.412	10460.34
660.604	10413.24
660.796	10589.36
660.988	10525.88
661.18	10265.78
661.372	10140.86
661.563	10034.36
661.755	10020.03
661.947	10247.35
662.139	10009.79
662.331	9811.14
662.522	9796.8
662.714	10067.13
662.906	9624.77
663.097	9790.66
663.289	9565.38
663.481	9792.7
663.673	9485.51
663.864	9452.74
664.056	9469.12
664.247	9454.79
664.439	9239.75
664.631	9387.21
664.822	9125.07
665.014	9389.25
665.205	9362.63
665.397	9196.75
665.588	9059.53
665.78	9112.78
665.971	9170.12
666.163	8920.27
666.354	9051.34
666.546	8801.49
666.737	8821.97
666.929	8623.31
667.12	8826.06
667.311	8658.13
667.503	8602.83
667.694	8631.51
667.885	8649.94
668.077	8572.11
668.268	8273.11
668.459	8363.22
668.651	8449.24
668.842	8164.57
669.033	8164.57
669.224	8269.02
669.416	8226.01
669.607	8359.13
669.798	8273.11
669.989	8201.43
670.18	8062.17
670.371	8084.7
670.563	8027.35
670.754	8129.75
670.945	7773.41
671.136	7970.01
671.327	7865.57
671.518	7867.61
671.709	7767.26
671.9	7693.54
672.091	7736.54
672.282	7711.97
672.473	7578.85
672.664	7832.8
672.855	7482.6
673.046	7331.05
673.237	7597.28
673.428	7650.53
673.619	7445.73
673.809	7347.43
674	7351.53
674.191	7431.4
674.382	7288.04
674.573	7376.1
674.764	7363.81
674.954	7214.31
675.145	7212.26
675.336	6974.7
675.527	7066.86
675.717	7331.05
675.908	7023.85
676.099	7040.23
676.289	7199.98
676.48	6900.97
676.671	6933.74
676.861	6898.92
677.052	6954.22
677.243	6997.23
677.433	6923.5
677.624	7029.99
677.814	6733.04
678.005	6800.62
678.195	6724.85
678.386	6771.95
678.576	6835.44
678.767	6765.81
678.957	6644.98
679.148	6835.44
679.338	6782.19
679.529	6743.28
679.719	6593.78
679.909	6751.47
680.1	6567.15
680.29	6556.91
680.481	6573.3
680.671	6610.16
680.861	6413.56
681.052	6604.02
681.242	6567.15
681.432	6642.93
681.622	6583.54
681.813	6450.42
682.003	6466.8
682.193	6487.28
682.383	6528.24
682.573	6431.99
682.764	6298.87
682.954	6284.53
683.144	6180.09
683.334	6257.91
683.524	6243.57
683.714	6325.49
683.904	6180.09
684.094	6354.16
684.284	6237.43
684.474	6262.01
684.664	6182.13
684.854	5954.81
685.044	6081.78
685.234	6130.94
685.424	6194.42
685.614	6003.96
685.804	6135.03
685.994	6014.2
686.184	6231.29
686.374	5969.15
686.564	5956.86
686.753	5864.7
686.943	5905.66
687.133	5864.7
687.323	5815.55
687.513	5807.36
687.702	5799.16
687.892	5786.88
688.082	5860.6
688.272	5793.02
688.461	5721.34
688.651	5793.02
688.841	5704.96
689.03	5752.06
689.22	5815.55
689.41	5799.16
689.599	5653.76
689.789	5711.1
689.979	5537.02
690.168	5532.93
690.358	5381.38
690.547	5487.87
690.737	5434.63
690.926	5543.17
691.116	5254.41
691.305	5340.42
691.495	5256.45
691.684	5162.25
691.874	5352.71
692.063	5342.47
692.252	5215.49
692.442	5319.94
692.631	5264.64
692.82	5184.77
693.01	5299.46
693.199	5192.97
693.388	5213.45
693.578	5203.21
693.767	5252.36
693.956	5158.15
694.146	5135.62
694.335	5006.6
694.524	4850.96
694.713	4967.69
694.902	4906.25
695.092	4920.59
695.281	4853
695.47	4996.36
695.659	4906.25
695.848	4945.16
696.037	4781.32
696.226	4920.59
696.415	4807.95
696.604	4963.59
696.793	4830.48
696.982	4957.45
697.171	4705.55
697.36	4799.76
697.549	4676.88
697.738	4713.74
697.927	4646.16
698.116	4777.23
698.305	4611.34
698.494	4674.83
698.683	4621.58
698.872	4719.89
699.061	4560.14
699.25	4545.81
699.438	4556.05
699.627	4615.44
699.816	4594.96
700.005	4470.03
700.193	4470.03
700.382	4584.72
700.571	4461.84
700.76	4517.14
700.948	4470.03
701.137	4308.24
701.326	4390.16
701.514	4345.11
701.703	4377.87
701.892	4463.89
702.08	4418.83
702.269	4326.68
702.457	4185.37
702.646	4410.64
702.834	4185.37
703.023	4263.19
703.212	4304.15
703.4	4326.68
703.589	4195.61
703.777	4177.17
703.965	4171.03
704.154	4158.74
704.342	4125.97
704.531	3978.52
704.719	4089.11
704.907	4203.8
705.096	4087.06
705.284	4052.25
705.472	3984.66
705.661	3904.79
705.849	4009.24
706.037	4013.34
706.226	3863.83
706.414	4001.05
706.602	3980.57
706.79	3900.7
706.979	3939.61
707.167	3917.08
707.355	3996.95
707.543	3984.66
707.731	3808.54
707.919	3869.98
708.107	3835.16
708.296	3704.09
708.484	3632.41
708.672	3874.07
708.86	3708.19
709.048	3677.47
709.236	3706.14
709.424	3806.49
709.612	3685.66
709.8	3620.13
709.988	3697.95
710.176	3700
710.364	3564.83
710.551	3677.47
710.739	3683.61
710.927	3585.31
711.115	3548.45
711.303	3603.74
711.491	3611.93
711.679	3523.87
711.866	3636.51
712.054	3560.73
712.242	3423.52
712.43	3495.2
712.617	3448.1
712.805	3327.27
712.993	3497.25
713.181	3319.07
713.368	3278.12
713.556	3497.25
713.744	3417.38
713.931	3448.1
714.119	3433.76
714.306	3433.76
714.494	3364.13
714.682	3292.45
714.869	3122.47
715.057	3341.6
715.244	3163.43
715.432	3286.31
715.619	3226.92
715.807	3214.63
715.994	3128.61
716.182	3239.2
716.369	3163.43
716.556	3114.28
716.744	3106.09
716.931	3116.33
717.119	3157.29
717.306	3177.76
717.493	3136.81
717.681	3087.65
717.868	3040.55
718.055	3091.75
718.242	3101.99
718.43	3081.51
718.617	3011.88
718.804	2979.11
718.991	3018.02
719.179	3015.98
719.366	3063.08
719.553	2819.37
719.74	2960.68
719.927	2891.05
720.114	2899.24
720.301	2880.81
720.488	2796.84
720.676	2813.23
720.863	2940.2
721.05	2923.82
721.237	2964.78
721.424	2802.99
721.611	2860.33
721.798	2751.79
721.985	2809.13
722.172	2880.81
722.358	2776.36
722.545	2841.9
722.732	2825.51
722.919	2770.22
723.106	2706.73
723.293	2725.16
723.48	2708.78
723.667	2694.44
723.853	2710.83
724.04	2729.26
724.227	2682.16
724.414	2688.3
724.6	2555.18
724.787	2641.2
724.974	2759.98
725.161	2604.33
725.347	2585.9
725.534	2604.33
725.72	2495.79
725.907	2592.05
726.094	2673.96
726.28	2647.34
726.467	2477.36
726.653	2626.86
726.84	2559.28
727.027	2497.84
727.213	2549.04
727.4	2512.18
727.586	2501.94
727.773	2360.63
727.959	2465.07
728.145	2426.16
728.332	2463.02
728.518	2444.59
728.705	2391.34
728.891	2450.74
729.077	2477.36
729.264	2393.39
729.45	2323.76
729.636	2395.44
729.823	2350.39
730.009	2420.02
730.195	2370.87
730.382	2377.01
730.568	2385.2
730.754	2366.77
730.94	2350.39
731.126	2317.62
731.313	2319.67
731.499	2235.7
731.685	2334
731.871	2301.23
732.057	2204.98
732.243	2309.43
732.429	2329.91
732.615	2266.42
732.801	2286.9
732.987	2334
733.173	2293.04
733.359	2112.82
733.545	2227.51
733.731	2260.27
733.917	2274.61
734.103	2202.93
734.289	2174.26
734.475	2131.25
734.661	2336.05
734.847	2121.01
735.033	2082.1
735.219	2127.16
735.404	2090.29
735.59	2237.75
735.776	2123.06
735.962	2213.17
736.148	2286.9
736.333	2137.4
736.519	2112.82
736.705	1867.06
736.89	2086.2
737.076	2014.52
737.262	1998.13
737.447	2071.86
737.633	2123.06
737.819	2161.97
738.004	2112.82
738.19	2055.48
738.375	1891.64
738.561	2153.78
738.747	2063.67
738.932	1944.89
739.118	1991.99
739.303	2073.91
739.489	1973.56
739.674	1889.59
739.859	1838.39
740.045	1850.68
740.23	1991.99
740.416	1916.22
740.601	1998.13
740.786	1977.66
740.972	1842.49
741.157	1940.79
741.342	1850.68
741.528	1920.31
741.713	1803.58
741.898	1846.59
742.084	1885.5
742.269	1817.91
742.454	1981.75
742.639	1809.72
742.824	1883.45
743.01	1789.24
743.195	1836.35
743.38	1756.47
743.565	1717.56
743.75	1797.43
743.935	1662.27
744.12	1776.95
744.305	1695.04
744.49	1711.42
744.675	1731.9
744.86	1686.84
745.045	1723.71
745.23	1641.79
745.415	1762.62
745.6	1574.21
745.785	1615.16
745.97	1594.69
746.155	1703.23
746.34	1684.8
746.525	1600.83
746.71	1656.12
746.895	1588.54
747.079	1594.69
747.264	1527.1
747.449	1604.92
747.634	1645.88
747.819	1510.72
748.003	1525.05
748.188	1498.43
748.373	1563.97
748.557	1523.01
748.742	1574.21
748.927	1449.28
749.111	1477.95
749.296	1389.89
749.481	1400.13
749.665	1428.8
749.85	1465.66
750.034	1447.23
750.219	1418.56
750.404	1424.7
750.588	1410.37
750.773	1363.26
750.957	1396.03
751.141	1434.94
751.326	1305.92
751.51	1353.02
751.695	1381.7
751.879	1355.07
752.064	1328.45
752.248	1326.4
752.432	1402.18
752.617	1367.36
752.801	1307.97
752.985	1254.72
753.17	1295.68
753.354	1293.63
753.538	1211.71
753.722	1293.63
753.907	1269.06
754.091	1191.24
754.275	1228.1
754.459	1285.44
754.643	1146.18
754.828	1230.15
755.012	1219.91
755.196	1146.18
755.38	1123.65
755.564	1199.43
755.748	1092.93
755.932	1219.91
756.116	1146.18
756.3	1064.26
756.484	1211.71
756.668	1092.93
756.852	1064.26
757.036	1101.12
757.22	1144.13
757.404	1047.88
757.588	1107.27
757.772	1088.84
757.956	1094.98
758.14	1051.97
758.323	968.01
758.507	1080.64
758.691	1088.84
758.875	1043.78
759.059	1023.3
759.242	916.81
759.426	1060.17
759.61	992.58
759.794	1035.59
759.977	1049.93
760.161	998.73
760.345	982.34
760.528	941.38
760.712	992.58
760.895	1054.02
761.079	982.34
761.263	886.09
761.446	949.57
761.63	963.91
761.813	935.24
761.997	906.57
762.18	959.81
762.364	972.1
762.547	892.23
762.731	972.1
762.914	941.38
763.098	822.6
763.281	755.02
763.464	974.15
763.648	957.77
763.831	939.34
764.015	855.37
764.198	941.38
764.381	857.42
764.564	951.62
764.748	902.47
764.931	957.77
765.114	877.9
765.297	834.89
765.481	900.42
765.664	918.86
765.847	826.7
766.03	830.79
766.213	863.56
766.397	859.46
766.58	834.89
766.763	818.5
766.946	785.74
767.129	781.64
767.312	748.87
767.495	826.7
767.678	826.7
767.861	740.68
768.044	804.17
768.227	943.43
768.41	757.07
768.593	884.04
768.776	847.18
768.959	812.36
769.142	855.37
769.324	845.13
769.507	818.5
769.69	853.32
769.873	736.59
770.056	851.27
770.239	769.35
770.421	724.3
770.604	841.03
770.787	732.49
770.97	718.15
771.152	757.07
771.335	775.5
771.518	664.91
771.7	740.68
771.883	830.79
772.066	724.3
772.248	763.21
772.431	744.78
772.613	734.54
772.796	736.59
772.978	828.74
773.161	769.35
773.343	755.02
773.526	703.82
773.708	650.57
773.891	576.84
774.073	712.01
774.256	630.09
774.438	769.35
774.621	746.83
774.803	632.14
774.985	658.76
775.168	759.11
775.35	658.76
775.532	664.91
775.715	755.02
775.897	615.76
776.079	720.2
776.261	630.09
776.444	687.43
776.626	638.28
776.808	656.72
776.99	630.09
777.173	693.58
777.355	658.76
777.537	640.33
777.719	576.84
777.901	589.13
778.083	578.89
778.265	666.96
778.447	591.18
778.629	535.89
778.811	564.56
778.993	556.36
779.175	699.72
779.357	523.6
779.539	580.94
779.721	525.65
779.903	609.61
780.085	529.74
780.267	531.79
780.449	615.76
780.631	490.83
780.812	564.56
780.994	548.17
781.176	484.69
781.358	558.41
781.54	494.93
781.721	593.23
781.903	560.46
782.085	507.21
782.267	542.03
782.448	427.34
782.63	453.97
782.812	462.16
782.993	537.93
783.175	482.64
783.357	462.16
783.538	492.88
783.72	486.73
783.901	488.78
784.083	507.21
784.264	513.36
784.446	396.62
784.627	515.41
784.809	427.34
784.99	384.34
785.172	453.97
785.353	449.87
785.535	453.97
785.716	482.64
785.897	441.68
786.079	445.77
786.26	443.73
786.441	449.87
786.623	429.39
786.804	357.71
786.985	456.01
787.167	400.72
787.348	353.62
787.529	374.1
787.71	476.49
787.891	394.58
788.073	357.71
788.254	396.62
788.435	484.69
788.616	396.62
788.797	359.76
788.978	441.68
789.159	355.66
789.34	392.53
789.522	413.01
789.703	314.7
789.884	402.77
790.065	427.34
790.246	429.39
790.427	394.58
790.607	367.95
790.788	286.03
790.969	286.03
791.15	365.9
791.331	314.7
791.512	335.18
791.693	245.07
791.874	335.18
792.054	320.85
792.235	357.71
792.416	367.95
792.597	294.22
792.778	433.49
792.958	335.18
793.139	298.32
793.32	286.03
793.5	277.84
793.681	279.89
793.862	294.22
794.042	294.22
794.223	296.27
794.404	351.57
794.584	195.92
794.765	322.9
794.945	331.09
795.126	286.03
795.306	355.66
795.487	320.85
795.667	261.46
795.848	298.32
796.028	294.22
796.209	271.7
796.389	306.51
796.57	257.36
796.75	216.4
796.93	245.07
797.111	228.69
797.291	236.88
797.471	298.32
797.652	212.31
797.832	263.51
798.012	320.85
798.192	212.31
798.373	197.97
798.553	193.87
798.733	281.94
798.913	226.64
799.093	271.7
799.274	292.18
799.454	286.03
799.634	208.21
799.814	226.64
799.994	232.79
800.174	245.07
800.354	253.27
800.534	171.35
800.714	376.14
800.894	195.92
801.074	216.4
801.254	197.97
801.434	275.79
801.614	167.25
801.794	245.07
801.974	974.15
802.154	200.02
802.334	288.08
802.514	234.83
802.693	197.97
802.873	173.39
803.053	265.55
803.233	273.75
803.413	173.39
803.592	257.36
803.772	245.07
803.952	152.92
804.131	214.35
804.311	197.97
804.491	294.22
804.67	222.55
804.85	238.93
805.03	247.12
805.209	304.46
805.389	263.51
805.568	249.17
805.748	220.5
805.928	195.92
806.107	245.07
806.287	157.01
806.466	214.35
806.646	204.11
806.825	142.68
807.004	191.83
807.184	187.73
807.363	224.59
807.543	247.12
807.722	163.15
807.901	208.21
808.081	177.49
808.26	126.29
808.439	204.11
808.619	130.39
808.798	189.78
808.977	140.63
809.156	204.11
809.336	171.35
809.515	232.79
809.694	165.2
809.873	134.48
810.052	200.02
810.231	214.35
810.411	146.77
810.59	130.39
810.769	187.73
810.948	220.5
811.127	97.62
811.306	165.2
811.485	124.24
811.664	116.05
811.843	195.92
812.022	163.15
812.201	154.96
812.38	101.72
812.559	173.39
812.737	99.67
812.916	163.15
813.095	81.24
813.274	187.73
813.453	171.35
813.632	189.78
813.811	181.59
813.989	30.04
814.168	224.59
814.347	150.87
814.526	93.52
814.704	187.73
814.883	169.3
815.062	93.52
815.24	163.15
815.419	68.95
815.598	140.63
815.776	81.24
815.955	187.73
816.133	75.09
816.312	103.76
816.49	130.39
816.669	148.82
816.847	114
817.026	171.35
817.204	175.44
817.383	163.15
817.561	83.28
817.74	157.01
817.918	154.96
818.097	105.81
818.275	52.56
818.453	89.43
818.632	163.15
818.81	73.04
818.988	138.58
819.167	83.28
819.345	93.52
819.523	81.24
819.701	226.64
819.879	122.2
820.058	83.28
820.236	95.57
820.414	163.15
820.592	81.24
820.77	118.1
820.948	138.58
821.127	58.71
821.305	97.62
821.483	64.85
821.661	146.77
821.839	122.2
822.017	116.05
822.195	83.28
822.373	187.73
822.551	154.96
822.729	132.44
822.907	128.34
823.085	114
823.262	66.9
823.44	30.04
823.618	146.77
823.796	68.95
823.974	107.86
824.152	87.38
824.329	175.44
824.507	40.28
824.685	91.48
824.863	15.7
825.04	114
825.218	185.68
825.396	58.71
825.574	89.43
825.751	60.76
825.929	124.24
826.107	101.72
826.284	97.62
826.462	85.33
826.639	56.66
826.817	62.8
826.994	134.48
827.172	-25.26
827.349	114
827.527	126.29
827.704	169.3
827.882	116.05
828.059	91.48
828.237	60.76
828.414	58.71
828.591	93.52
828.769	66.9
828.946	64.85
829.124	89.43
829.301	64.85
829.478	105.81
829.655	105.81
829.833	97.62
830.01	73.04
830.187	56.66
830.364	87.38
830.542	58.71
830.719	191.83
830.896	161.11
831.073	71
831.25	11.61
831.427	93.52
831.604	44.37
831.782	40.28
831.959	142.68
832.136	36.18
832.313	42.32
832.49	9.56
832.667	116.05
832.844	56.66
833.021	118.1
833.198	107.86
833.374	15.7
833.551	85.33
833.728	89.43
833.905	81.24
834.082	1.37
834.259	111.96
834.436	122.2
834.612	-29.35
834.789	68.95
834.966	56.66
835.143	15.7
835.319	23.89
835.496	103.76
835.673	126.29
835.85	89.43
836.026	64.85
836.203	71
836.38	3.41
836.556	68.95
836.733	23.89
836.909	73.04
837.086	81.24
837.262	48.47
837.439	7.51
837.616	15.7
837.792	34.13
837.968	36.18
838.145	-37.55
838.321	73.04
838.498	-31.4
838.674	109.91
838.851	54.61
839.027	58.71
839.203	132.44
839.38	83.28
839.556	7.51
839.732	122.2
839.909	9.56
840.085	114
840.261	56.66
840.437	128.34
840.614	62.8
840.79	159.06
840.966	60.76
841.142	73.04
841.318	75.09
841.494	85.33
841.671	42.32
841.847	99.67
842.023	48.47
842.199	122.2
842.375	105.81
842.551	-8.87
842.727	7.51
842.903	68.95
843.079	58.71
843.255	13.65
843.431	32.08
843.607	-25.26
843.783	-17.07
843.959	23.89
844.134	-4.78
844.31	73.04
844.486	73.04
844.662	44.37
844.838	101.72
845.013	-15.02
845.189	138.58
845.365	-12.97
845.541	52.56
845.716	87.38
845.892	15.7
846.068	7.51
846.244	34.13
846.419	101.72
846.595	15.7
846.77	71
846.946	81.24
847.122	25.94
847.297	3.41
847.473	71
847.648	9.56
847.824	48.47
847.999	-66.22
848.175	44.37
848.35	50.52
848.526	118.1
848.701	128.34
848.876	-39.59
849.052	52.56
849.227	81.24
849.403	97.62
849.578	27.99
849.753	-4.78
849.929	56.66
850.104	68.95
850.279	50.52
850.454	50.52
850.63	99.67
850.805	19.8
850.98	32.08
851.155	-8.87
851.33	64.85
851.505	9.56
851.681	-2.73
851.856	-8.87
852.031	-17.07
852.206	58.71
852.381	-29.35
852.556	-8.87
852.731	11.61
852.906	15.7
853.081	52.56
853.256	73.04
853.431	-53.93
853.606	7.51
853.781	-41.64
853.956	9.56
854.131	64.85
854.305	-82.6
854.48	-21.16
854.655	66.9
854.83	32.08
855.005	36.18
855.18	48.47
855.354	15.7
855.529	56.66
855.704	23.89
855.879	79.19
856.053	-47.79
856.228	93.52
856.403	7.51
856.577	52.56
856.752	-15.02
856.926	-0.68
857.101	-0.68
857.276	48.47
857.45	42.32
857.625	71
857.799	-6.83
857.974	40.28
858.148	38.23
858.323	-41.64
858.497	-66.22
858.672	-4.78
858.846	-37.55
859.02	83.28
859.195	-17.07
859.369	60.76
859.543	50.52
859.718	-8.87
859.892	40.28
860.066	66.9
860.241	-37.55
860.415	68.95
860.589	9.56
860.763	21.85
860.938	3.41
861.112	40.28
861.286	64.85
861.46	23.89
861.634	87.38
861.808	101.72
861.982	27.99
862.157	-17.07
862.331	34.13
862.505	25.94
862.679	3.41
862.853	52.56
863.027	-6.83
863.201	40.28
863.375	-74.41
863.549	27.99
863.722	44.37
863.896	19.8
864.07	1.37
864.244	15.7
864.418	25.94
864.592	-2.73
864.766	27.99
864.939	81.24
865.113	-55.98
865.287	40.28
865.461	23.89
865.634	91.48
865.808	9.56
865.982	73.04
866.156	38.23
866.329	-51.88
866.503	23.89
866.676	64.85
866.85	44.37
867.024	-25.26
867.197	-6.83
867.371	42.32
867.544	19.8
867.718	23.89
867.891	32.08
868.065	-70.31
868.238	-4.78
868.412	52.56
868.585	52.56
868.759	23.89
868.932	-47.79
869.105	-41.64
869.279	46.42
869.452	-4.78
869.625	-0.68
869.799	3.41
869.972	15.7
870.145	-55.98
870.319	27.99
870.492	-17.07
870.665	32.08
870.838	-15.02
871.011	-60.07
871.185	-8.87
871.358	-47.79
871.531	38.23
871.704	9.56
871.877	-2.73
872.05	-0.68
872.223	-123.56
872.396	60.76
872.569	30.04
872.742	-33.45
872.915	-47.79
873.088	-129.7
873.261	-35.5
873.434	7.51
873.607	25.94
873.78	17.75
873.953	-0.68
874.126	83.28
874.299	9.56
874.471	-49.83
874.644	83.28
874.817	19.8
874.99	36.18
875.163	7.51
875.335	-0.68
875.508	-107.18
875.681	50.52
875.853	36.18
876.026	30.04
876.199	11.61
876.371	50.52
876.544	7.51
876.717	3.41
876.889	27.99
877.062	64.85
877.234	11.61
877.407	-80.55
877.579	-25.26
877.752	-0.68
877.924	58.71
878.097	11.61
878.269	27.99
878.442	-39.59
878.614	81.24
878.786	15.7
878.959	77.14
879.131	7.51
879.303	-58.03
879.476	-8.87
879.648	60.76
879.82	62.8
879.993	-45.74
880.165	-41.64
880.337	11.61
880.509	56.66
880.681	-90.79
880.854	27.99
881.026	-6.83
881.198	48.47
881.37	-6.83
881.542	99.67
881.714	23.89
881.886	48.47
882.058	15.7
882.23	40.28
882.402	-2.73
882.574	15.7
882.746	42.32
882.918	71
883.09	-66.22
883.262	-17.07
883.434	9.56
883.606	-12.97
883.778	-43.69
883.95	56.66
884.122	-98.99
884.293	23.89
884.465	-25.26
884.637	34.13
884.809	52.56
884.98	64.85
885.152	17.75
885.324	52.56
885.496	23.89
885.667	-23.21
885.839	-15.02
886.011	85.33
886.182	34.13
886.354	40.28
886.525	48.47
886.697	21.85
886.869	11.61
887.04	-29.35
887.212	91.48
887.383	124.24
887.555	27.99
887.726	-35.5
887.897	66.9
888.069	32.08
888.24	-51.88
888.412	-33.45
888.583	17.75
888.754	40.28
888.926	-60.07
889.097	-49.83
889.268	-49.83
889.44	23.89
889.611	60.76
889.782	38.23
889.953	-49.83
890.125	34.13
890.296	-51.88
890.467	42.32
890.638	-31.4
890.809	-33.45
890.98	-72.36
891.151	-17.07
891.323	81.24
891.494	58.71
891.665	-33.45
891.836	-6.83
892.007	17.75
892.178	17.75
892.349	-33.45
892.52	34.13
892.691	-41.64
892.862	-60.07
893.032	-15.02
893.203	-37.55
893.374	-60.07
893.545	-25.26
893.716	-86.7
893.887	36.18
894.057	-25.26
894.228	85.33
894.399	-60.07
894.57	32.08
894.74	-35.5
894.911	-17.07
895.082	-39.59
895.253	9.56
895.423	-23.21
895.594	11.61
895.764	21.85
895.935	-21.16
896.106	23.89
896.276	15.7
896.447	-51.88
896.617	-0.68
896.788	25.94
896.958	11.61
897.129	-21.16
897.299	-62.12
897.47	27.99
897.64	23.89
897.81	-21.16
897.981	-27.31
898.151	-94.89
898.322	-25.26
898.492	-49.83
898.662	-4.78
898.832	-39.59
899.003	23.89
899.173	30.04
899.343	-19.11
899.513	-6.83
