Data from USB4F104151__108__14-31-04-863.txt Node

Date: Thu Mar 13 14:31:04 EDT 2025
User: louis
Spectrometer: USB4F10415
Trigger mode: 4
Integration Time (sec): 2.500000E-2
Scans to average: 1
Electric dark correction enabled: true
Nonlinearity correction enabled: false
Boxcar width: 0
XAxis mode: Wavelengths
Number of Pixels in Spectrum: 3648
>>>>>Begin Spectral Data<<<<<
178.204	-125.61
178.424	-125.61
178.644	-125.61
178.864	-217.77
179.084	-119.46
179.304	19.8
179.524	-78.51
179.744	-31.4
179.964	-29.35
180.184	23.89
180.404	36.18
180.624	36.18
180.844	5.46
181.064	-21.16
181.283	77.14
181.503	-17.07
181.723	-21.16
181.943	-37.55
182.163	21.85
182.383	44.37
182.602	101.72
182.822	68.95
183.042	46.42
183.262	23.89
183.482	19.8
183.701	52.56
183.921	75.09
184.141	-82.6
184.361	3.41
184.58	101.72
184.8	-82.6
185.02	-8.87
185.239	-37.55
185.459	30.04
185.679	36.18
185.898	-35.5
186.118	36.18
186.338	48.47
186.557	46.42
186.777	44.37
186.997	19.8
187.216	-82.6
187.436	64.85
187.655	79.19
187.875	21.85
188.095	27.99
188.314	60.76
188.534	46.42
188.753	40.28
188.973	27.99
189.192	116.05
189.412	101.72
189.631	52.56
189.851	15.7
190.07	36.18
190.29	17.75
190.509	36.18
190.729	60.76
190.948	75.09
191.168	167.25
191.387	77.14
191.607	-43.69
191.826	89.43
192.045	60.76
192.265	62.8
192.484	-12.97
192.704	93.52
192.923	73.04
193.142	75.09
193.362	71
193.581	3.41
193.8	103.76
194.02	52.56
194.239	9.56
194.458	103.76
194.678	-8.87
194.897	38.23
195.116	-41.64
195.335	44.37
195.555	3.41
195.774	19.8
195.993	19.8
196.212	-10.92
196.432	-10.92
196.651	52.56
196.87	-12.97
197.089	120.15
197.308	101.72
197.528	44.37
197.747	-33.45
197.966	52.56
198.185	71
198.404	54.61
198.623	58.71
198.842	111.96
199.062	62.8
199.281	-2.73
199.5	109.91
199.719	11.61
199.938	32.08
200.157	30.04
200.376	38.23
200.595	97.62
200.814	21.85
201.033	-43.69
201.252	54.61
201.471	44.37
201.69	-10.92
201.909	64.85
202.128	87.38
202.347	56.66
202.566	13.65
202.785	-37.55
203.004	-0.68
203.223	19.8
203.442	11.61
203.661	-12.97
203.879	77.14
204.098	118.1
204.317	11.61
204.536	-10.92
204.755	32.08
204.974	66.9
205.193	-31.4
205.411	114
205.63	52.56
205.849	87.38
206.068	-41.64
206.287	-27.31
206.505	38.23
206.724	27.99
206.943	-15.02
207.162	27.99
207.381	60.76
207.599	25.94
207.818	71
208.037	60.76
208.255	5.46
208.474	27.99
208.693	7.51
208.911	25.94
209.13	21.85
209.349	-39.59
209.567	56.66
209.786	91.48
210.005	44.37
210.223	-62.12
210.442	-17.07
210.661	114
210.879	19.8
211.098	9.56
211.316	71
211.535	56.66
211.753	44.37
211.972	-29.35
212.191	19.8
212.409	23.89
212.628	32.08
212.846	-49.83
213.065	68.95
213.283	38.23
213.502	-21.16
213.72	27.99
213.938	77.14
214.157	60.76
214.375	19.8
214.594	44.37
214.812	101.72
215.031	15.7
215.249	77.14
215.467	11.61
215.686	118.1
215.904	38.23
216.122	56.66
216.341	68.95
216.559	-25.26
216.778	42.32
216.996	66.9
217.214	11.61
217.432	-0.68
217.651	79.19
217.869	52.56
218.087	40.28
218.306	68.95
218.524	7.51
218.742	-10.92
218.96	64.85
219.179	19.8
219.397	13.65
219.615	71
219.833	79.19
220.051	27.99
220.27	7.51
220.488	17.75
220.706	7.51
220.924	-2.73
221.142	40.28
221.36	79.19
221.578	36.18
221.796	30.04
222.015	97.62
222.233	11.61
222.451	-45.74
222.669	19.8
222.887	40.28
223.105	-10.92
223.323	-4.78
223.541	3.41
223.759	85.33
223.977	89.43
224.195	83.28
224.413	85.33
224.631	44.37
224.849	60.76
225.067	107.86
225.285	-19.11
225.503	19.8
225.721	-37.55
225.939	71
226.157	7.51
226.375	148.82
226.592	44.37
226.81	66.9
227.028	-19.11
227.246	109.91
227.464	-29.35
227.682	71
227.9	60.76
228.117	81.24
228.335	81.24
228.553	-45.74
228.771	73.04
228.989	44.37
229.206	30.04
229.424	-53.93
229.642	36.18
229.86	23.89
230.077	79.19
230.295	3.41
230.513	56.66
230.731	36.18
230.948	15.7
231.166	101.72
231.384	128.34
231.601	103.76
231.819	85.33
232.037	60.76
232.254	93.52
232.472	38.23
232.689	-43.69
232.907	-43.69
233.125	44.37
233.342	25.94
233.56	-0.68
233.777	-12.97
233.995	79.19
234.213	36.18
234.43	71
234.648	58.71
234.865	11.61
235.083	5.46
235.3	23.89
235.518	48.47
235.735	30.04
235.953	64.85
236.17	32.08
236.388	46.42
236.605	122.2
236.822	38.23
237.04	36.18
237.257	71
237.475	-21.16
237.692	60.76
237.909	19.8
238.127	7.51
238.344	60.76
238.562	40.28
238.779	42.32
238.996	27.99
239.214	23.89
239.431	95.57
239.648	15.7
239.865	62.8
240.083	-2.73
240.3	15.7
240.517	68.95
240.735	-19.11
240.952	60.76
241.169	21.85
241.386	11.61
241.603	27.99
241.821	-33.45
242.038	25.94
242.255	85.33
242.472	-12.97
242.689	-8.87
242.907	91.48
243.124	3.41
243.341	21.85
243.558	-21.16
243.775	11.61
243.992	-62.12
244.209	42.32
244.426	122.2
244.643	122.2
244.86	44.37
245.078	19.8
245.295	73.04
245.512	34.13
245.729	-70.31
245.946	44.37
246.163	48.47
246.38	5.46
246.597	-25.26
246.814	13.65
247.031	11.61
247.248	34.13
247.464	54.61
247.681	13.65
247.898	109.91
248.115	52.56
248.332	5.46
248.549	101.72
248.766	118.1
248.983	54.61
249.2	77.14
249.417	77.14
249.633	-2.73
249.85	30.04
250.067	36.18
250.284	-2.73
250.501	60.76
250.717	50.52
250.934	-45.74
251.151	64.85
251.368	48.47
251.585	-12.97
251.801	66.9
252.018	19.8
252.235	116.05
252.451	30.04
252.668	32.08
252.885	83.28
253.102	52.56
253.318	25.94
253.535	46.42
253.752	111.96
253.968	-4.78
254.185	-43.69
254.401	-45.74
254.618	46.42
254.835	-4.78
255.051	89.43
255.268	7.51
255.484	5.46
255.701	-0.68
255.917	144.72
256.134	-29.35
256.351	77.14
256.567	48.47
256.784	-17.07
257	-33.45
257.217	62.8
257.433	79.19
257.65	52.56
257.866	-12.97
258.082	13.65
258.299	32.08
258.515	23.89
258.732	11.61
258.948	21.85
259.165	30.04
259.381	36.18
259.597	58.71
259.814	-27.31
260.03	93.52
260.246	46.42
260.463	58.71
260.679	101.72
260.895	58.71
261.112	-10.92
261.328	-17.07
261.544	11.61
261.761	77.14
261.977	-17.07
262.193	30.04
262.409	30.04
262.626	62.8
262.842	54.61
263.058	48.47
263.274	114
263.49	68.95
263.707	109.91
263.923	77.14
264.139	-12.97
264.355	11.61
264.571	77.14
264.787	56.66
265.004	36.18
265.22	32.08
265.436	5.46
265.652	-21.16
265.868	-45.74
266.084	11.61
266.3	44.37
266.516	38.23
266.732	73.04
266.948	-10.92
267.164	34.13
267.38	81.24
267.596	23.89
267.812	-35.5
268.028	52.56
268.244	79.19
268.46	54.61
268.676	56.66
268.892	77.14
269.108	-19.11
269.324	19.8
269.54	-15.02
269.756	81.24
269.972	93.52
270.188	32.08
270.403	19.8
270.619	44.37
270.835	19.8
271.051	44.37
271.267	9.56
271.483	7.51
271.698	32.08
271.914	89.43
272.13	1.37
272.346	-8.87
272.562	60.76
272.777	44.37
272.993	-0.68
273.209	-45.74
273.425	38.23
273.64	-0.68
273.856	44.37
274.072	62.8
274.287	-45.74
274.503	11.61
274.719	32.08
274.934	3.41
275.15	34.13
275.366	13.65
275.581	66.9
275.797	103.76
276.012	-35.5
276.228	85.33
276.444	-4.78
276.659	60.76
276.875	19.8
277.09	27.99
277.306	38.23
277.521	7.51
277.737	44.37
277.952	71
278.168	-6.83
278.383	64.85
278.599	40.28
278.814	62.8
279.03	46.42
279.245	54.61
279.461	44.37
279.676	120.15
279.892	-55.98
280.107	-19.11
280.322	-37.55
280.538	44.37
280.753	-45.74
280.969	-4.78
281.184	89.43
281.399	34.13
281.615	118.1
281.83	62.8
282.045	52.56
282.26	-70.31
282.476	52.56
282.691	81.24
282.906	-4.78
283.122	27.99
283.337	-25.26
283.552	44.37
283.767	36.18
283.983	-23.21
284.198	23.89
284.413	38.23
284.628	27.99
284.843	68.95
285.058	13.65
285.274	-12.97
285.489	48.47
285.704	-35.5
285.919	-8.87
286.134	5.46
286.349	5.46
286.564	44.37
286.779	-6.83
286.995	34.13
287.21	11.61
287.425	-8.87
287.64	-17.07
287.855	87.38
288.07	-10.92
288.285	77.14
288.5	50.52
288.715	77.14
288.93	68.95
289.145	-35.5
289.36	25.94
289.575	-10.92
289.79	64.85
290.004	-4.78
290.219	-29.35
290.434	3.41
290.649	-4.78
290.864	27.99
291.079	-60.07
291.294	27.99
291.509	-6.83
291.724	1.37
291.938	62.8
292.153	21.85
292.368	9.56
292.583	144.72
292.798	95.57
293.012	62.8
293.227	52.56
293.442	13.65
293.657	3.41
293.871	77.14
294.086	34.13
294.301	109.91
294.516	91.48
294.73	38.23
294.945	-86.7
295.16	32.08
295.374	48.47
295.589	93.52
295.804	-4.78
296.018	62.8
296.233	64.85
296.447	93.52
296.662	50.52
296.877	93.52
297.091	7.51
297.306	-4.78
297.52	93.52
297.735	142.68
297.949	25.94
298.164	44.37
298.378	19.8
298.593	-35.5
298.807	-8.87
299.022	34.13
299.236	77.14
299.451	11.61
299.665	27.99
299.88	58.71
300.094	23.89
300.309	25.94
300.523	-19.11
300.737	71
300.952	116.05
301.166	97.62
301.381	44.37
301.595	62.8
301.809	-17.07
302.024	48.47
302.238	27.99
302.452	89.43
302.667	60.76
302.881	134.48
303.095	91.48
303.309	-0.68
303.524	-25.26
303.738	44.37
303.952	-2.73
304.166	-21.16
304.381	-8.87
304.595	38.23
304.809	15.7
305.023	38.23
305.237	48.47
305.452	19.8
305.666	56.66
305.88	11.61
306.094	66.9
306.308	25.94
306.522	79.19
306.736	19.8
306.95	103.76
307.164	38.23
307.379	5.46
307.593	107.86
307.807	40.28
308.021	66.9
308.235	19.8
308.449	17.75
308.663	36.18
308.877	140.63
309.091	60.76
309.305	36.18
309.519	-70.31
309.733	109.91
309.947	27.99
310.161	36.18
310.374	-21.16
310.588	68.95
310.802	101.72
311.016	95.57
311.23	60.76
311.444	21.85
311.658	85.33
311.872	85.33
312.085	109.91
312.299	103.76
312.513	23.89
312.727	68.95
312.941	19.8
313.154	73.04
313.368	122.2
313.582	85.33
313.796	38.23
314.009	50.52
314.223	107.86
314.437	-29.35
314.651	105.81
314.864	109.91
315.078	17.75
315.292	19.8
315.505	-51.88
315.719	52.56
315.933	-25.26
316.146	34.13
316.36	30.04
316.573	-4.78
316.787	87.38
317.001	11.61
317.214	-17.07
317.428	64.85
317.641	-39.59
317.855	44.37
318.068	7.51
318.282	-6.83
318.495	114
318.709	30.04
318.922	68.95
319.136	93.52
319.349	32.08
319.563	142.68
319.776	48.47
319.99	17.75
320.203	81.24
320.417	46.42
320.63	54.61
320.843	32.08
321.057	62.8
321.27	-15.02
321.483	50.52
321.697	91.48
321.91	27.99
322.124	122.2
322.337	13.65
322.55	15.7
322.763	81.24
322.977	36.18
323.19	52.56
323.403	19.8
323.617	44.37
323.83	32.08
324.043	34.13
324.256	46.42
324.469	25.94
324.683	48.47
324.896	-62.12
325.109	89.43
325.322	30.04
325.535	77.14
325.748	109.91
325.962	62.8
326.175	27.99
326.388	38.23
326.601	107.86
326.814	3.41
327.027	36.18
327.24	66.9
327.453	23.89
327.666	36.18
327.879	48.47
328.092	15.7
328.305	111.96
328.518	-0.68
328.731	85.33
328.944	54.61
329.157	46.42
329.37	105.81
329.583	85.33
329.796	60.76
330.009	32.08
330.222	44.37
330.435	89.43
330.648	40.28
330.861	-4.78
331.073	68.95
331.286	144.72
331.499	42.32
331.712	64.85
331.925	68.95
332.138	-74.41
332.35	142.68
332.563	-86.7
332.776	44.37
332.989	27.99
333.202	71
333.414	27.99
333.627	56.66
333.84	79.19
334.053	68.95
334.265	114
334.478	62.8
334.691	-10.92
334.903	5.46
335.116	27.99
335.329	97.62
335.541	38.23
335.754	73.04
335.966	109.91
336.179	-21.16
336.392	11.61
336.604	27.99
336.817	34.13
337.029	-12.97
337.242	9.56
337.454	132.44
337.667	19.8
337.88	101.72
338.092	77.14
338.305	52.56
338.517	-0.68
338.729	44.37
338.942	85.33
339.154	44.37
339.367	-60.07
339.579	73.04
339.792	-10.92
340.004	85.33
340.217	-12.97
340.429	30.04
340.641	-21.16
340.854	101.72
341.066	40.28
341.278	52.56
341.491	89.43
341.703	-21.16
341.915	48.47
342.128	-4.78
342.34	77.14
342.552	-4.78
342.764	56.66
342.977	-39.59
343.189	52.56
343.401	107.86
343.613	27.99
343.826	-17.07
344.038	-2.73
344.25	95.57
344.462	17.75
344.674	73.04
344.886	21.85
345.099	27.99
345.311	71
345.523	91.48
345.735	-2.73
345.947	44.37
346.159	15.7
346.371	44.37
346.583	23.89
346.795	58.71
347.007	13.65
347.219	77.14
347.431	50.52
347.643	118.1
347.855	105.81
348.067	142.68
348.279	-4.78
348.491	11.61
348.703	13.65
348.915	-62.12
349.127	54.61
349.339	11.61
349.551	-23.21
349.763	79.19
349.975	-21.16
350.187	60.76
350.399	101.72
350.61	-53.93
350.822	62.8
351.034	40.28
351.246	58.71
351.458	71
351.669	44.37
351.881	46.42
352.093	128.34
352.305	118.1
352.517	68.95
352.728	19.8
352.94	44.37
353.152	111.96
353.363	30.04
353.575	54.61
353.787	107.86
353.999	11.61
354.21	54.61
354.422	32.08
354.633	36.18
354.845	36.18
355.057	30.04
355.268	40.28
355.48	42.32
355.692	5.46
355.903	95.57
356.115	15.7
356.326	9.56
356.538	130.39
356.749	114
356.961	85.33
357.172	48.47
357.384	148.82
357.595	52.56
357.807	52.56
358.018	-78.51
358.23	25.94
358.441	83.28
358.653	40.28
358.864	60.76
359.075	71
359.287	52.56
359.498	122.2
359.709	124.24
359.921	62.8
360.132	9.56
360.344	11.61
360.555	93.52
360.766	85.33
360.977	71
361.189	56.66
361.4	44.37
361.611	152.92
361.823	-2.73
362.034	68.95
362.245	58.71
362.456	7.51
362.667	60.76
362.879	52.56
363.09	73.04
363.301	1.37
363.512	21.85
363.723	27.99
363.935	48.47
364.146	118.1
364.357	19.8
364.568	77.14
364.779	-12.97
364.99	77.14
365.201	48.47
365.412	109.91
365.623	-0.68
365.834	99.67
366.045	27.99
366.256	52.56
366.467	-4.78
366.678	30.04
366.889	71
367.1	58.71
367.311	56.66
367.522	36.18
367.733	109.91
367.944	36.18
368.155	68.95
368.366	52.56
368.577	68.95
368.788	126.29
368.999	54.61
369.209	126.29
369.42	111.96
369.631	120.15
369.842	46.42
370.053	32.08
370.264	95.57
370.474	13.65
370.685	103.76
370.896	103.76
371.107	44.37
371.317	126.29
371.528	-10.92
371.739	62.8
371.95	101.72
372.16	36.18
372.371	85.33
372.582	32.08
372.792	77.14
373.003	60.76
373.214	97.62
373.424	128.34
373.635	13.65
373.846	134.48
374.056	56.66
374.267	52.56
374.477	19.8
374.688	103.76
374.898	-4.78
375.109	93.52
375.319	118.1
375.53	77.14
375.74	68.95
375.951	34.13
376.161	114
376.372	68.95
376.582	-37.55
376.793	97.62
377.003	54.61
377.214	30.04
377.424	-2.73
377.635	89.43
377.845	21.85
378.055	48.47
378.266	27.99
378.476	64.85
378.686	79.19
378.897	93.52
379.107	66.9
379.317	66.9
379.528	60.76
379.738	126.29
379.948	27.99
380.158	77.14
380.369	107.86
380.579	126.29
380.789	52.56
380.999	71
381.21	71
381.42	118.1
381.63	54.61
381.84	120.15
382.05	103.76
382.261	85.33
382.471	87.38
382.681	21.85
382.891	75.09
383.101	30.04
383.311	30.04
383.521	-21.16
383.731	44.37
383.941	130.39
384.151	64.85
384.361	-12.97
384.571	21.85
384.781	50.52
384.991	142.68
385.201	120.15
385.411	48.47
385.621	120.15
385.831	30.04
386.041	103.76
386.251	75.09
386.461	93.52
386.671	46.42
386.881	77.14
387.091	40.28
387.301	142.68
387.511	101.72
387.72	97.62
387.93	48.47
388.14	44.37
388.35	64.85
388.56	93.52
388.769	101.72
388.979	54.61
389.189	27.99
389.399	103.76
389.609	77.14
389.818	73.04
390.028	32.08
390.238	144.72
390.447	-33.45
390.657	32.08
390.867	46.42
391.076	73.04
391.286	109.91
391.496	71
391.705	40.28
391.915	85.33
392.125	3.41
392.334	60.76
392.544	60.76
392.753	68.95
392.963	118.1
393.172	93.52
393.382	-6.83
393.591	163.15
393.801	44.37
394.01	27.99
394.22	134.48
394.429	48.47
394.639	101.72
394.848	142.68
395.058	71
395.267	159.06
395.477	163.15
395.686	146.77
395.895	130.39
396.105	144.72
396.314	109.91
396.524	68.95
396.733	138.58
396.942	132.44
397.152	111.96
397.361	118.1
397.57	118.1
397.78	97.62
397.989	146.77
398.198	167.25
398.407	77.14
398.617	109.91
398.826	167.25
399.035	77.14
399.244	175.44
399.453	148.82
399.663	40.28
399.872	134.48
400.081	85.33
400.29	173.39
400.499	77.14
400.708	132.44
400.917	126.29
401.127	85.33
401.336	161.11
401.545	191.83
401.754	134.48
401.963	142.68
402.172	118.1
402.381	79.19
402.59	118.1
402.799	232.79
403.008	159.06
403.217	183.63
403.426	167.25
403.635	161.11
403.844	159.06
404.053	175.44
404.262	118.1
404.471	220.5
404.68	251.22
404.888	120.15
405.097	120.15
405.306	142.68
405.515	220.5
405.724	167.25
405.933	206.16
406.142	179.54
406.35	267.6
406.559	204.11
406.768	202.07
406.977	292.18
407.185	167.25
407.394	245.07
407.603	177.49
407.812	300.37
408.02	267.6
408.229	275.79
408.438	322.9
408.646	283.99
408.855	304.46
409.064	290.13
409.272	324.94
409.481	365.9
409.69	326.99
409.898	314.7
410.107	378.19
410.315	347.47
410.524	392.53
410.733	431.44
410.941	425.29
411.15	453.97
411.358	462.16
411.567	572.75
411.775	435.53
411.984	529.74
412.192	478.54
412.401	585.04
412.609	654.67
412.818	576.84
413.026	642.38
413.234	642.38
413.443	611.66
413.651	642.38
413.86	691.53
414.068	728.39
414.276	863.56
414.485	720.2
414.693	822.6
414.901	814.41
415.11	841.03
415.318	947.53
415.526	908.62
415.734	949.57
415.943	982.34
416.151	1033.54
416.359	1090.88
416.567	1060.17
416.776	1207.62
416.984	1109.32
417.192	1277.25
417.4	1189.19
417.608	1262.91
417.817	1291.59
418.025	1281.35
418.233	1412.42
418.441	1299.78
418.649	1590.59
418.857	1576.25
419.065	1596.73
419.273	1611.07
419.481	1613.12
419.689	1754.43
419.897	1785.15
420.105	1883.45
420.313	2039.09
420.521	2061.62
420.729	2121.01
420.937	2086.2
421.145	2307.38
421.353	2315.57
421.561	2356.53
421.769	2381.11
421.977	2594.09
422.185	2475.31
422.393	2700.59
422.601	2817.32
422.809	2868.52
423.017	2940.2
423.224	2993.45
423.432	3063.08
423.64	3161.38
423.848	3433.76
424.056	3312.93
424.263	3575.07
424.471	3601.69
424.679	3675.42
424.887	3749.15
425.094	3878.17
425.302	3943.71
425.51	4218.13
425.718	4142.36
425.925	4418.83
426.133	4461.84
426.341	4601.1
426.548	4844.81
426.756	4889.87
426.964	4828.43
427.171	5303.56
427.379	5414.15
427.586	5532.93
427.794	5618.94
428.001	5938.43
428.209	6124.79
428.417	6012.15
428.624	6382.84
428.832	6399.22
429.039	6413.56
429.247	6376.69
429.454	6984.94
429.662	7652.58
429.869	7050.47
430.076	7691.49
430.284	7187.69
430.491	7578.85
430.699	8084.7
430.906	8152.28
431.114	8047.83
431.321	8408.28
431.528	8461.52
431.736	9133.26
431.943	9518.28
432.15	9368.77
432.358	9329.86
432.565	10065.08
432.772	9811.14
432.979	10235.07
433.187	10587.32
433.394	10517.68
433.601	11349.16
433.808	11336.87
434.016	11273.39
434.223	11750.56
434.43	12489.88
434.637	12285.08
434.844	13001.87
435.052	13098.13
435.259	13155.47
435.466	13122.7
435.673	13268.11
435.88	13814.91
436.087	14718.07
436.294	14437.5
436.501	14359.67
436.708	14566.52
436.915	15070.32
437.122	15875.17
437.329	15641.7
437.537	16352.35
437.743	16477.27
437.95	16315.48
438.157	17323.08
438.364	17792.07
438.571	17591.37
438.778	17886.28
438.985	19299.37
439.192	18545.72
439.399	19319.85
439.606	18836.53
439.813	20136.99
440.02	21341.2
440.227	20911.13
440.433	20374.56
440.64	21560.33
440.847	21140.5
441.054	21732.36
441.261	23020.53
441.467	22789.11
441.674	23286.77
441.881	24085.48
442.088	24120.29
442.294	23829.48
442.501	24167.4
442.708	24394.72
442.914	25629.65
443.121	26883
443.328	26110.92
443.534	28140.46
443.741	27319.22
443.948	26610.62
444.154	28687.26
444.361	28572.58
444.568	28838.81
444.774	28621.73
444.981	29117.34
445.187	29764.5
445.394	31497.08
445.6	30978.94
445.807	33874.77
446.013	31925.1
446.22	33037.15
446.426	34179.92
446.633	34380.62
446.839	35625.78
447.046	34347.85
447.252	35803.95
447.459	35922.74
447.665	35808.05
447.871	37399.32
448.078	39133.95
448.284	37176.09
448.491	38351.63
448.697	39693.05
448.903	40557.29
449.11	40452.84
449.316	39668.47
449.522	40598.25
449.728	41687.77
449.935	42080.98
450.141	42050.26
450.347	42447.57
450.553	41126.63
450.76	42134.23
450.966	43330.24
451.172	42787.53
451.378	44206.77
451.584	43539.13
451.791	43997.88
451.997	43893.43
452.203	44872.36
452.409	44696.24
452.615	44655.28
452.821	42777.29
453.027	42627.79
453.233	44677.8
453.44	42801.86
453.646	43524.8
453.852	43393.73
454.058	44274.35
454.264	42758.86
454.47	43807.42
454.676	42717.9
454.882	44384.94
455.088	40035.06
455.294	40581.87
455.5	41435.87
455.705	41726.68
455.911	40020.72
456.117	39805.69
456.323	38810.37
456.529	37014.3
456.735	38632.2
456.941	37501.72
457.147	36672.29
457.352	35775.28
457.558	35595.06
457.764	35717.94
457.97	34624.32
458.176	34380.62
458.381	33620.82
458.587	32488.29
458.793	32158.57
458.999	31007.61
459.204	33057.63
459.41	32117.61
459.616	29881.23
459.821	30110.6
460.027	29711.25
460.233	28926.88
460.438	27904.94
460.644	28238.76
460.85	26987.45
461.055	26737.6
461.261	26479.55
461.466	24112.1
461.672	23522.29
461.878	25529.3
462.083	23507.95
462.289	23131.12
462.494	22959.09
462.7	21988.36
462.905	21552.14
463.111	22068.23
463.316	21939.21
463.522	21658.63
463.727	21857.29
463.932	21707.79
464.138	21320.72
464.343	21171.22
464.549	20859.93
464.754	21259.28
464.959	21324.82
465.165	21300.24
465.37	20005.92
465.575	19772.46
465.781	20329.5
465.986	20417.57
466.191	19696.68
466.397	19313.71
466.602	18621.5
466.807	19012.66
467.012	19168.3
467.218	18912.31
467.423	18926.64
467.628	19104.82
467.833	19645.48
468.038	19061.81
468.244	18465.85
468.449	19029.04
468.654	18404.41
468.859	18351.17
469.064	18345.02
469.269	17597.51
469.474	17794.12
469.679	17857.6
469.885	17687.62
470.09	17734.73
470.295	17630.28
470.5	17034.32
470.705	17370.19
470.91	16862.29
471.115	16821.33
471.32	17013.84
471.525	16903.25
471.73	16489.56
471.935	16479.32
472.139	15973.47
472.344	16036.96
472.549	16028.77
472.754	15961.19
472.959	15402.09
473.164	15166.57
473.369	15066.22
473.574	15307.88
473.778	15178.86
473.983	15168.62
474.188	15137.9
474.393	14535.8
474.598	14605.43
474.802	14179.45
475.007	14085.25
475.212	14421.11
475.417	13710.47
475.621	13845.63
475.826	13782.15
476.031	13397.13
476.235	13313.16
476.44	13778.05
476.645	13399.18
476.849	13071.5
477.054	12991.63
477.259	12760.21
477.463	12856.47
477.668	12702.87
477.872	12901.52
478.077	12455.06
478.282	12209.31
478.486	12080.28
478.691	12117.15
478.895	12151.96
479.1	11836.58
479.304	11984.03
479.509	11613.35
479.713	11740.32
479.918	11474.09
480.122	11601.06
480.326	11560.1
480.531	11527.33
480.735	11291.82
480.94	11236.52
481.144	11693.22
481.348	11005.1
481.553	11076.78
481.757	11060.4
481.961	10980.53
482.166	11422.89
482.37	11388.07
482.574	11259.05
482.778	10972.33
482.983	11474.09
483.187	10962.09
483.391	11125.93
483.595	11097.26
483.8	10968.24
484.004	11023.53
484.208	11041.96
484.412	10796.21
484.616	11127.98
484.821	11191.47
485.025	10914.99
485.229	11101.36
485.433	11062.44
485.637	10955.95
485.841	10835.12
486.045	10900.65
486.249	11021.49
486.453	10953.9
486.657	10986.67
486.861	11084.97
487.065	10857.65
487.269	10884.27
487.473	10839.22
487.677	11164.84
487.881	11179.18
488.085	10923.18
488.289	11009.2
488.493	10876.08
488.697	11041.96
488.901	11023.53
489.105	11072.68
489.309	11058.35
489.512	11015.34
489.716	11271.34
489.92	11175.08
490.124	11058.35
490.328	11383.98
490.531	11226.28
490.735	11300.01
490.939	11185.32
491.143	11265.19
491.346	11189.42
491.55	11283.63
491.754	11285.67
491.958	11572.39
492.161	11295.91
492.365	11373.74
492.569	11629.73
492.772	11324.58
492.976	11412.65
493.18	11517.09
493.383	11713.7
493.587	11717.79
493.79	11863.2
493.994	11799.71
494.197	12031.13
494.401	12104.86
494.605	11900.06
494.808	12418.2
495.012	12268.7
495.215	12135.58
495.419	12498.07
495.622	12248.22
495.825	12614.8
496.029	12508.31
496.232	12739.73
496.436	12721.3
496.639	13067.41
496.843	12956.82
497.046	13284.49
497.249	13180.04
497.453	13294.73
497.656	13548.68
497.859	13630.6
498.063	13692.04
498.266	13980.8
498.469	13702.28
498.673	14255.23
498.876	14046.33
499.079	14390.39
499.282	14306.43
499.485	14814.32
499.689	14625.91
499.892	15019.12
500.095	14812.28
500.298	15518.82
500.501	15129.71
500.705	15641.7
500.908	15576.17
501.111	15862.88
501.314	15666.28
501.517	16006.24
501.72	16045.15
501.923	16170.08
502.126	16495.71
502.329	16608.34
502.532	17030.23
502.735	16706.65
502.938	17077.33
503.141	17615.94
503.344	17435.72
503.547	17740.87
503.75	17886.28
503.953	18213.95
504.156	18355.26
504.359	18689.08
504.562	18566.2
504.765	18940.98
504.968	19295.28
505.17	19524.65
505.373	19340.33
505.576	19715.11
505.779	19858.47
505.982	20157.47
506.185	20270.11
506.387	20294.69
506.59	20392.99
506.793	21091.35
506.996	20700.19
507.198	21290
507.401	21347.34
507.604	21275.66
507.807	21945.35
508.009	21953.54
508.212	22150.15
508.415	22420.48
508.617	22690.81
508.82	22934.52
509.022	22600.7
509.225	23415.79
509.428	23278.58
509.63	23645.16
509.833	23831.53
510.035	24173.54
510.238	24466.4
510.44	24605.66
510.643	24677.34
510.845	25123.8
511.048	24861.66
511.25	25218
511.453	25353.17
511.655	26489.79
511.858	25861.07
512.06	26629.05
512.262	26713.02
512.465	26512.32
512.667	27018.17
512.87	27200.44
513.072	27382.71
513.274	27591.6
513.477	28062.63
513.679	28638.11
513.881	28406.69
514.084	28949.4
514.286	28715.94
514.488	28883.87
514.69	29819.79
514.893	29891.47
515.095	29612.95
515.297	30131.08
515.499	29827.98
515.701	30849.92
515.904	30745.47
516.106	31019.9
516.308	31314.81
516.51	31560.56
516.712	31712.11
516.914	31816.56
517.116	33008.48
517.318	32631.65
517.52	32617.32
517.722	32727.91
517.925	33358.68
518.127	33729.36
518.329	33768.27
518.531	33725.27
518.733	34399.05
518.935	34499.4
519.136	34151.24
519.338	35095.36
519.54	35466.04
519.742	35668.79
519.944	35674.93
520.146	36141.87
520.348	36111.15
520.55	36129.58
520.752	36426.54
520.954	36946.72
521.155	36535.08
521.357	37104.42
521.559	37395.23
521.761	37927.7
521.963	37853.97
522.164	38132.5
522.366	38001.43
522.568	38681.35
522.77	38478.6
522.971	38718.21
523.173	38722.31
523.375	38748.93
523.576	39111.42
523.778	39009.03
523.98	39500.54
524.181	39453.44
524.383	39926.52
524.584	39652.09
524.786	40014.58
524.988	39891.7
525.189	40061.68
525.391	40264.43
525.592	40766.18
525.794	40757.99
525.995	40862.44
526.197	40420.08
526.398	40137.46
526.6	40985.32
526.801	41134.82
527.003	41374.43
527.204	41091.81
527.406	41239.26
527.607	41325.28
527.808	41861.85
528.01	40866.53
528.211	41407.2
528.412	41992.92
528.614	41564.89
528.815	41269.98
529.016	42490.57
529.218	41220.83
529.419	41706.2
529.62	41607.9
529.822	41640.67
530.023	41761.5
530.224	41863.89
530.425	41745.11
530.626	41499.36
530.828	41052.9
531.029	41894.61
531.23	41558.75
531.431	41738.97
531.632	41790.17
531.833	41779.93
532.035	41810.65
532.236	41882.33
532.437	41831.13
532.638	41292.51
532.839	41427.68
533.04	42101.46
533.241	41609.95
533.442	41935.57
533.643	41935.57
533.844	41577.18
534.045	41521.88
534.246	41073.38
534.447	41556.7
534.648	41059.04
534.849	41495.26
535.05	41140.96
535.251	41571.03
535.451	41513.69
535.652	41564.89
535.853	41749.21
536.054	41566.94
536.255	41583.32
536.456	41059.04
536.657	41816.79
536.857	40956.64
537.058	41272.03
537.259	41452.25
537.46	41499.36
537.66	40770.28
537.861	40696.55
538.062	41128.67
538.263	40948.45
538.463	41063.14
538.664	41034.47
538.865	41317.09
539.065	41280.22
539.266	40438.51
539.466	41247.46
539.667	40293.1
539.868	41140.96
540.068	40745.7
540.269	40676.07
540.469	41022.18
540.67	40469.23
540.87	40336.11
541.071	40528.62
541.271	40444.65
541.472	40854.25
541.672	40313.58
541.873	40768.23
542.073	40176.37
542.274	41022.18
542.474	40358.64
542.675	40200.94
542.875	40956.64
543.075	40454.89
543.276	40375.02
543.476	40458.99
543.676	40235.76
543.877	40671.98
544.077	40932.07
544.277	39936.76
544.478	39967.48
544.678	40588.01
544.878	40567.53
545.078	40473.32
545.279	40024.82
545.479	39897.84
545.679	40540.91
545.879	40280.81
546.079	40164.08
546.28	40018.67
546.48	39854.84
546.68	40166.13
546.88	40372.97
547.08	40477.42
547.28	40172.27
547.48	39973.62
547.68	40342.25
547.88	40010.48
548.081	40399.6
548.281	39885.56
548.481	39666.42
548.681	40764.14
548.881	40102.64
549.081	40010.48
549.28	39895.8
549.48	40286.96
549.68	40127.22
549.88	40782.57
550.08	39910.13
550.28	40403.69
550.48	40205.04
550.68	40407.79
550.88	39824.12
551.08	40063.73
551.279	40264.43
551.479	39852.79
551.679	40403.69
551.879	40239.86
552.079	40235.76
552.278	40057.59
552.478	40387.31
552.678	40516.33
552.878	40600.3
553.077	40254.19
553.277	39822.07
553.477	40899.3
553.676	40215.28
553.876	40252.14
554.076	40469.23
554.275	40022.77
554.475	39602.94
554.674	40301.29
554.874	40506.09
555.074	39967.48
555.273	40485.61
555.473	40504.04
555.672	40100.59
555.872	40274.67
556.071	40297.2
556.271	40772.33
556.47	40278.77
556.67	39992.05
556.869	40420.08
557.068	40293.1
557.268	40262.38
557.467	40409.84
557.667	40133.36
557.866	40233.71
558.065	40264.43
558.265	40278.77
558.464	39879.41
558.663	40532.71
558.863	39805.69
559.062	40860.39
559.261	40401.64
559.461	40583.91
559.66	39740.15
559.859	40133.36
560.058	40340.21
560.258	40469.23
560.457	40147.7
560.656	40731.37
560.855	40057.59
561.054	40612.59
561.253	39885.56
561.453	40174.32
561.652	40475.37
561.851	40114.93
562.05	40162.03
562.249	39811.83
562.448	40475.37
562.647	39871.22
562.846	39895.8
563.045	40006.39
563.244	40248.05
563.443	40407.79
563.642	39811.83
563.841	40000.24
564.04	39582.46
564.239	39910.13
564.438	39693.05
564.637	40020.72
564.836	39721.72
565.035	39617.27
565.234	39813.88
565.432	39428.86
565.631	39828.21
565.83	39731.96
566.029	39584.51
566.228	39287.55
566.427	39527.16
566.625	39248.64
566.824	39191.3
567.023	39543.55
567.222	38681.35
567.42	39637.75
567.619	38925.06
567.818	39009.03
568.016	38959.87
568.215	39166.72
568.414	38621.96
568.612	38798.09
568.811	38738.69
569.01	38740.74
569.208	38451.98
569.407	39066.37
569.605	38251.28
569.804	39189.25
570.002	38241.04
570.201	38359.82
570.4	37890.84
570.598	38200.08
570.797	37993.23
570.995	38288.14
571.193	37516.06
571.392	38466.31
571.59	37872.4
571.789	37913.36
571.987	37747.48
572.186	37628.7
572.384	37493.53
572.582	37886.74
572.781	37913.36
572.979	37323.55
573.177	37030.69
573.376	37464.86
573.574	37239.58
573.772	37403.42
573.971	37217.05
574.169	36746.02
574.367	36754.21
574.565	36594.47
574.763	36696.87
574.962	36205.36
575.16	36152.11
575.358	36387.63
575.556	36082.48
575.754	36746.02
575.952	35939.12
576.151	36606.76
576.349	35779.38
576.547	35908.4
576.745	35961.65
576.943	36070.19
577.141	35619.64
577.339	35697.46
577.537	35785.52
577.735	35822.39
577.933	35371.83
578.131	35302.2
578.329	35359.55
578.527	34693.96
578.725	35318.59
578.923	35054.4
579.121	34722.63
579.319	34802.5
579.516	35128.13
579.714	35007.3
579.912	34550.6
580.11	34249.55
580.308	34853.7
580.506	34431.82
580.704	33704.79
580.901	34069.33
581.099	34704.2
581.297	34065.23
581.495	34163.53
581.692	34048.85
581.89	33416.02
582.088	34235.21
582.285	33698.64
582.483	33604.44
582.681	33872.72
582.878	33725.27
583.076	33317.72
583.274	33819.47
583.471	33153.88
583.669	33413.98
583.866	33235.8
584.064	32842.59
584.262	32680.8
584.459	32981.85
584.657	32779.11
584.854	32885.6
585.052	32449.38
585.249	32486.25
585.447	32809.82
585.644	32344.94
585.841	32422.76
586.039	32688.99
586.236	32068.46
586.434	32146.28
586.631	31902.57
586.828	32043.88
587.026	31789.94
587.223	32295.78
587.42	31785.84
587.618	31923.05
587.815	31705.97
588.012	31892.33
588.21	31292.28
588.407	31968.11
588.604	31497.08
588.801	31171.45
588.999	31429.49
589.196	31413.11
589.393	31454.07
589.59	31087.48
589.787	31173.5
589.984	30813.06
590.182	30768
590.379	31163.26
590.576	30735.23
590.773	30610.31
590.97	30423.94
591.167	30690.18
591.364	30213
591.561	30673.79
591.758	30278.54
591.955	30477.19
592.152	30737.28
592.349	30356.36
592.546	30034.83
592.743	30237.58
592.94	29721.49
593.137	30342.02
593.334	29981.58
593.531	29539.22
593.727	29592.47
593.924	29836.17
594.121	29496.21
594.318	29899.66
594.515	29662.1
594.712	29766.54
594.908	29576.08
595.105	29670.29
595.302	29447.06
595.499	29455.25
595.696	29406.1
595.892	29068.19
596.089	29492.12
596.286	29393.81
596.482	29152.15
596.679	28828.57
596.876	29205.4
597.072	29045.66
597.269	29240.22
597.466	28631.97
597.662	28902.3
597.859	28908.44
598.055	29168.54
598.252	28785.57
598.448	28842.91
598.645	28564.39
598.841	28500.9
599.038	28564.39
599.234	28459.94
599.431	28359.59
599.627	28414.88
599.824	28466.08
600.02	28543.91
600.217	28410.79
600.413	28060.59
600.609	28502.95
600.806	28230.57
601.002	28199.85
601.198	28066.73
601.395	28144.55
601.591	27810.73
601.787	28326.82
601.984	28015.53
602.18	28261.29
602.376	28140.46
602.572	27949.99
602.769	28330.92
602.965	27759.53
603.161	28443.56
603.357	28152.74
603.553	27804.59
603.75	28079.02
603.946	27456.43
604.142	27812.78
604.338	27667.38
604.534	27773.87
604.73	28042.15
604.926	27882.41
605.122	27978.67
605.318	27644.85
605.514	27677.61
605.71	27536.31
605.906	27917.23
606.102	27831.21
606.298	27978.67
606.494	27820.97
606.69	27648.94
606.886	28130.22
607.082	27579.31
607.278	27710.38
607.474	27472.82
607.67	27917.23
607.866	27421.62
608.062	27958.19
608.257	28072.87
608.453	27954.09
608.649	27741.1
608.845	27591.6
609.041	28056.49
609.236	27716.53
609.432	27521.97
609.628	28107.69
609.824	28048.3
610.019	27521.97
610.215	27505.59
610.411	28042.15
610.606	27972.52
610.802	28031.91
610.998	27751.34
611.193	27845.55
611.389	27468.72
611.584	27583.41
611.78	27960.23
611.976	27909.04
612.171	27890.6
612.367	27949.99
612.562	27816.88
612.758	27569.07
612.953	27560.88
613.149	28060.59
613.344	27380.66
613.539	27984.81
613.735	27806.64
613.93	27648.94
614.126	27564.98
614.321	28097.45
614.517	27861.93
614.712	27290.55
614.907	27911.08
615.103	27917.23
615.298	27595.7
615.493	27616.18
615.688	27462.58
615.884	27870.12
616.079	27421.62
616.274	27853.74
616.47	27612.08
616.665	27909.04
616.86	27288.5
617.055	27624.37
617.25	27245.49
617.445	27683.76
617.641	27009.98
617.836	27390.9
618.031	27052.98
618.226	27296.69
618.421	27083.7
618.616	27581.36
618.811	26815.42
619.006	27182.01
619.201	26741.69
619.396	26960.83
619.591	26512.32
619.786	26977.21
619.981	26618.82
620.176	26975.16
620.371	26192.84
620.566	26344.39
620.761	26192.84
620.956	26287.04
621.151	26004.42
621.346	26364.87
621.541	25897.93
621.735	26000.33
621.93	25754.57
622.125	25750.48
622.32	25314.26
622.515	25377.75
622.709	25301.97
622.904	25400.27
623.099	24902.62
623.294	25091.03
623.488	25127.89
623.683	25023.45
623.878	24570.85
624.072	24894.43
624.267	24863.71
624.462	24554.46
624.656	24153.06
624.851	24044.52
625.046	23761.9
625.24	23897.06
625.435	23604.21
625.629	24155.11
625.824	23622.64
626.018	23561.2
626.213	23092.21
626.407	23079.93
626.602	22871.03
626.796	22936.57
626.991	23378.93
627.185	22658.04
627.38	22686.72
627.574	22682.62
627.768	22569.98
627.963	22742.01
628.157	22211.59
628.352	22125.57
628.546	22213.63
628.74	22086.66
628.935	22051.84
629.129	21869.58
629.323	21574.67
629.517	21756.94
629.712	21367.82
629.906	21619.72
630.1	21156.88
630.294	21171.22
630.489	21163.03
630.683	21277.71
630.877	20696.09
631.071	20677.66
631.265	20663.32
631.459	20628.51
631.653	20188.19
631.848	20446.24
632.042	20194.34
632.236	20450.33
632.43	20118.56
632.624	20261.92
632.818	20085.79
633.012	19506.22
633.206	19653.67
633.4	19612.71
633.594	19510.32
633.788	19616.81
633.982	19399.73
634.176	19199.02
634.369	19063.86
634.563	18986.04
634.757	18895.92
634.951	19008.56
635.145	18979.89
635.339	18723.9
635.533	18492.48
635.726	18764.85
635.92	18283.58
636.114	18375.74
636.308	18123.84
636.501	18357.31
636.695	17978.43
636.889	17929.28
637.083	18117.7
637.276	17488.97
637.47	17955.91
637.664	17263.69
637.857	17880.13
638.051	17466.44
638.244	17280.08
638.438	17210.45
638.632	17079.38
638.825	16886.87
639.019	17019.99
639.212	16813.14
639.406	16888.92
639.599	16890.96
639.793	16620.63
639.986	16303.2
640.18	16637.02
640.373	16376.92
640.567	16237.66
640.76	16145.5
640.954	16034.91
641.147	15924.32
641.34	15727.72
641.534	15799.4
641.727	15813.73
641.92	15789.16
642.114	15623.27
642.307	15387.75
642.5	15293.55
642.694	15148.14
642.887	15240.3
643.08	15029.36
643.273	15111.28
643.467	14961.78
643.66	14546.04
643.853	14806.13
644.046	14531.7
644.239	14462.07
644.432	14507.13
644.626	14412.92
644.819	14261.37
645.012	14316.67
645.205	14382.2
645.398	14007.42
645.591	13948.03
645.784	14019.71
645.977	13704.32
646.17	13786.24
646.363	13565.06
646.556	13718.66
646.749	13718.66
646.942	13491.34
647.135	13651.08
647.328	13429.9
647.521	13304.97
647.714	13333.64
647.907	13360.27
648.099	13128.84
648.292	13206.67
648.485	12946.58
648.678	12610.71
648.871	12846.23
649.064	12745.87
649.256	12666
649.449	12825.75
649.642	12412.06
649.835	12424.34
650.027	12356.76
650.22	12418.2
650.413	12086.43
650.605	12170.4
650.798	12219.55
650.991	11922.59
651.183	12147.87
651.376	11949.21
651.568	11748.51
651.761	11898.02
651.954	11842.72
652.146	11689.12
652.339	11601.06
652.531	11668.64
652.724	11281.58
652.916	11357.35
653.109	11547.81
653.301	11295.91
653.494	11431.08
653.686	11205.8
653.879	11316.39
654.071	11119.79
654.263	10763.44
654.456	10810.54
654.648	10919.09
654.84	10886.32
655.033	10818.74
655.225	10714.29
655.417	10876.08
655.61	10841.26
655.802	10687.67
655.994	10579.12
656.186	10626.23
656.379	10454.2
656.571	10257.59
656.763	10187.96
656.955	10417.33
657.148	10259.64
657.34	10259.64
657.532	10069.18
657.724	10034.36
657.916	9960.64
658.108	10032.32
658.3	9866.43
658.492	9878.72
658.684	9637.06
658.876	9839.81
659.068	9669.83
659.26	9555.14
659.452	9649.35
659.644	9448.65
659.836	9651.39
660.028	9415.88
660.22	9376.97
660.412	9213.13
660.604	9098.44
660.796	9227.46
660.988	9407.69
661.18	8969.42
661.372	8998.09
661.563	9080.01
661.755	8811.73
661.947	9014.48
662.139	8805.58
662.331	8834.25
662.522	8694.99
662.714	8932.56
662.906	8711.38
663.097	8578.26
663.289	8633.55
663.481	8666.32
663.673	8537.3
663.864	8393.94
664.056	8223.96
664.247	8451.28
664.439	8301.78
664.631	8375.51
664.822	8174.81
665.014	8187.1
665.205	8199.38
665.397	8148.19
665.588	8135.9
665.78	7916.76
665.971	7998.68
666.163	7888.09
666.354	7847.13
666.546	7779.55
666.737	7730.4
666.929	7828.7
667.12	7623.9
667.311	7574.75
667.503	7623.9
667.694	7763.17
667.885	7554.27
668.077	7623.9
668.268	7562.47
668.459	7474.4
668.651	7441.64
668.842	7560.42
669.033	7312.61
669.224	7302.37
669.416	7294.18
669.607	7218.41
669.798	7245.03
669.989	7431.4
670.18	7310.57
670.371	7099.63
670.563	7015.66
670.754	7195.88
670.945	7144.68
671.136	7034.09
671.327	7122.15
671.518	6974.7
671.709	6946.03
671.9	6907.12
672.091	6792.43
672.282	6804.72
672.473	6683.89
672.664	6630.64
672.855	6765.81
673.046	6802.67
673.237	6765.81
673.428	6702.32
673.619	6831.34
673.809	6640.88
674	6608.11
674.191	6577.39
674.382	6378.74
674.573	6679.79
674.764	6468.85
674.954	6540.53
675.145	6409.46
675.336	6415.6
675.527	6442.23
675.717	6329.59
675.908	6417.65
676.099	6409.46
676.289	6219
676.48	6417.65
676.671	6370.55
676.861	6356.21
677.052	6194.42
677.243	6229.24
677.433	6171.9
677.624	6180.09
677.814	5985.53
678.005	6106.36
678.195	6130.94
678.386	6089.98
678.576	5897.47
678.767	6038.78
678.957	6065.4
679.148	6012.15
679.338	6194.42
679.529	6057.21
679.719	5889.28
679.909	6147.32
680.1	5889.28
680.29	6036.73
680.481	5879.04
680.671	5901.56
680.861	6016.25
681.052	5797.12
681.242	5876.99
681.432	5928.19
681.622	5696.77
681.813	5745.92
682.003	5797.12
682.193	5821.69
682.383	5745.92
682.573	5758.21
682.764	5778.69
682.954	5780.73
683.144	5735.68
683.334	5723.39
683.524	5680.38
683.714	5627.14
683.904	5608.7
684.094	5799.16
684.284	5682.43
684.474	5811.45
684.664	5590.27
684.854	5534.98
685.044	5713.15
685.234	5561.6
685.424	5469.44
685.614	5397.76
685.804	5446.91
685.994	5506.31
686.184	5502.21
686.374	5541.12
686.564	5434.63
686.753	5567.74
686.943	5356.8
687.133	5231.88
687.323	5371.14
687.513	5485.83
687.702	5262.6
687.892	5330.18
688.082	5328.13
688.272	5319.94
688.461	5160.2
688.651	5350.66
688.841	5256.45
689.03	5090.57
689.22	5123.34
689.41	5115.14
689.599	5182.73
689.789	5061.9
689.979	5133.57
690.168	4932.87
690.358	5043.46
690.547	5100.81
690.737	4975.88
690.926	5074.18
691.116	4842.76
691.305	4900.11
691.495	4871.44
691.684	4975.88
691.874	4883.72
692.063	4883.72
692.252	4801.8
692.442	4881.67
692.631	4781.32
692.82	4855.05
693.01	4713.74
693.199	4695.31
693.388	4644.11
693.578	4646.16
693.767	4683.02
693.956	4650.25
694.146	4443.41
694.335	4568.34
694.524	4560.14
694.713	4701.45
694.902	4603.15
695.092	4590.86
695.281	4439.31
695.47	4605.2
695.659	4373.78
695.848	4422.93
696.037	4541.71
696.226	4490.51
696.415	4490.51
696.604	4472.08
696.793	4384.02
696.982	4404.5
697.171	4484.37
697.36	4412.69
697.549	4451.6
697.738	4441.36
697.927	4263.19
698.116	4435.22
698.305	4416.79
698.494	4363.54
698.683	4111.64
698.872	4338.96
699.061	4291.86
699.25	4175.13
699.438	4324.63
699.627	4134.17
699.816	4234.52
700.005	4183.32
700.193	4142.36
700.382	4275.48
700.571	4115.73
700.76	4111.64
700.948	4271.38
701.137	4050.2
701.326	4091.16
701.514	4142.36
701.703	4207.89
701.892	4068.63
702.08	4080.92
702.269	4054.3
702.457	3929.37
702.646	4078.87
702.834	4019.48
703.023	4052.25
703.212	3992.86
703.4	3972.38
703.589	3822.88
703.777	3820.83
703.965	3927.32
704.154	3814.68
704.342	3685.66
704.531	3872.03
704.719	3700
704.907	3796.25
705.096	3790.11
705.284	3724.57
705.472	3763.48
705.661	3829.02
705.849	3808.54
706.037	3669.28
706.226	3695.9
706.414	3792.16
706.602	3730.72
706.79	3673.37
706.979	3771.68
707.167	3706.14
707.355	3712.28
707.543	3611.93
707.731	3659.04
707.919	3542.3
708.107	3599.65
708.296	3595.55
708.484	3575.07
708.672	3534.11
708.86	3507.49
709.048	3616.03
709.236	3417.38
709.424	3648.8
709.612	3591.45
709.8	3497.25
709.988	3462.43
710.176	3575.07
710.364	3489.06
710.551	3441.95
710.739	3448.1
710.927	3398.95
711.115	3370.27
711.303	3300.64
711.491	3460.38
711.679	3456.29
711.866	3378.47
712.054	3394.85
712.242	3337.51
712.43	3317.03
712.617	3333.41
712.805	3233.06
712.993	3314.98
713.181	3032.36
713.368	3302.69
713.556	3231.01
713.744	3157.29
713.931	3339.55
714.119	3204.39
714.306	3165.48
714.494	3118.37
714.682	3194.15
714.869	3206.44
715.057	3120.42
715.244	3200.29
715.432	3124.52
715.619	3091.75
715.807	3140.9
715.994	3081.51
716.182	3114.28
716.369	3020.07
716.556	3231.01
716.744	3093.8
716.931	2938.15
717.119	3005.74
717.306	2927.91
717.493	2964.78
717.681	3001.64
717.868	2997.54
718.055	2917.67
718.242	2850.09
718.43	2854.19
718.617	2788.65
718.804	2956.58
718.991	2866.47
719.179	2977.06
719.366	2952.49
719.553	2944.3
719.74	2743.6
719.927	2831.66
720.114	2993.45
720.301	2919.72
720.488	2831.66
720.676	2833.71
720.863	2831.66
721.05	2792.75
721.237	2757.93
721.424	2682.16
721.611	2694.44
721.798	2616.62
721.985	2692.4
722.172	2635.05
722.358	2731.31
722.545	2624.81
722.732	2714.92
722.919	2845.99
723.106	2710.83
723.293	2649.39
723.48	2663.72
723.667	2692.4
723.853	2774.32
724.04	2661.68
724.227	2647.34
724.414	2667.82
724.6	2571.57
724.787	2649.39
724.974	2641.2
725.161	2708.78
725.347	2518.32
725.534	2487.6
725.72	2563.37
725.907	2592.05
726.094	2620.72
726.28	2596.14
726.467	2456.88
726.653	2456.88
726.84	2596.14
727.027	2684.2
727.213	2391.34
727.4	2528.56
727.586	2436.4
727.773	2499.89
727.959	2501.94
728.145	2469.17
728.332	2422.06
728.518	2501.94
728.705	2348.34
728.891	2514.22
729.077	2370.87
729.264	2372.91
729.45	2346.29
729.636	2440.5
729.823	2334
730.009	2440.5
730.195	2411.82
730.382	2407.73
730.568	2415.92
730.754	2288.95
730.94	2325.81
731.126	2379.06
731.313	2354.48
731.499	2200.88
731.685	2413.87
731.871	2233.65
732.057	2309.43
732.243	2264.37
732.429	2180.4
732.615	2338.1
732.801	2221.36
732.987	2344.24
733.173	2178.36
733.359	2313.52
733.545	2274.61
733.731	2241.84
733.917	2309.43
734.103	2215.22
734.289	2143.54
734.475	2219.32
734.661	2207.03
734.847	2198.84
735.033	2149.68
735.219	2194.74
735.404	2084.15
735.59	2239.8
735.776	2092.34
735.962	2155.83
736.148	2227.51
736.333	2114.87
736.519	2032.95
736.705	2071.86
736.89	2157.88
737.076	2213.17
737.262	2018.61
737.447	2272.56
737.633	2100.53
737.819	2092.34
738.004	2090.29
738.19	2096.44
738.375	2004.28
738.561	2014.52
738.747	1994.04
738.932	1977.66
739.118	2139.44
739.303	2010.42
739.489	2129.2
739.674	1922.36
739.859	1893.69
740.045	1885.5
740.23	2071.86
740.416	1813.82
740.601	2020.66
740.786	2018.61
740.972	1910.07
741.157	1953.08
741.342	1852.73
741.528	1735.99
741.713	1875.26
741.898	1920.31
742.084	1805.63
742.269	1873.21
742.454	1959.22
742.639	1862.97
742.824	1809.72
743.01	1865.02
743.195	1903.93
743.38	1840.44
743.565	1731.9
743.75	1758.52
743.935	1709.37
744.12	1840.44
744.305	1684.8
744.49	1717.56
744.675	1766.71
744.86	1733.95
745.045	1809.72
745.23	1654.08
745.415	1627.45
745.6	1699.13
745.785	1715.52
745.97	1768.76
746.155	1674.56
746.34	1643.84
746.525	1604.92
746.71	1733.95
746.895	1627.45
747.079	1602.88
747.264	1619.26
747.449	1699.13
747.634	1723.71
747.819	1625.4
748.003	1541.44
748.188	1580.35
748.373	1609.02
748.557	1572.16
748.742	1520.96
748.927	1561.92
749.111	1488.19
749.296	1531.2
749.481	1561.92
749.665	1477.95
749.85	1510.72
750.034	1570.11
750.219	1420.61
750.404	1539.39
750.588	1531.2
750.773	1406.27
750.957	1436.99
751.141	1426.75
751.326	1449.28
751.51	1453.38
751.695	1318.21
751.879	1299.78
752.064	1406.27
752.248	1344.83
752.432	1387.84
752.617	1336.64
752.801	1408.32
752.985	1379.65
753.17	1293.63
753.354	1383.74
753.538	1322.31
753.722	1281.35
753.907	1232.19
754.091	1348.93
754.275	1250.63
754.459	1324.35
754.643	1322.31
754.828	1164.61
755.012	1195.33
755.196	1150.28
755.38	1236.29
755.564	1150.28
755.748	1078.6
755.932	1162.56
756.116	1258.82
756.3	1221.95
756.484	1140.04
756.668	1172.8
756.852	986.44
757.036	1195.33
757.22	1060.17
757.404	1144.13
757.588	1031.49
757.772	1068.36
757.956	1103.17
758.14	1105.22
758.323	990.53
758.507	994.63
758.691	1019.21
758.875	1064.26
759.059	986.44
759.242	1082.69
759.426	1015.11
759.61	1064.26
759.794	1094.98
759.977	1094.98
760.161	1166.66
760.345	1031.49
760.528	1097.03
760.712	1039.69
760.895	980.29
761.079	984.39
761.263	992.58
761.446	908.62
761.63	953.67
761.813	1051.97
761.997	879.94
762.18	994.63
762.364	965.96
762.547	879.94
762.731	974.15
762.914	879.94
763.098	869.7
763.281	970.05
763.464	943.43
763.648	922.95
763.831	859.46
764.015	841.03
764.198	914.76
764.381	847.18
764.564	902.47
764.748	947.53
764.931	908.62
765.114	914.76
765.297	972.1
765.481	822.6
765.664	865.61
765.847	822.6
766.03	918.86
766.213	761.16
766.397	849.22
766.58	845.13
766.763	900.42
766.946	857.42
767.129	881.99
767.312	728.39
767.495	822.6
767.678	765.26
767.861	806.22
768.044	826.7
768.227	863.56
768.41	838.98
768.593	763.21
768.776	912.71
768.959	841.03
769.142	894.28
769.324	793.93
769.507	775.5
769.69	851.27
769.873	855.37
770.056	851.27
770.239	881.99
770.421	849.22
770.604	787.79
770.787	802.12
770.97	830.79
771.152	734.54
771.335	736.59
771.518	818.5
771.7	814.41
771.883	824.65
772.066	748.87
772.248	769.35
772.431	709.96
772.613	699.72
772.796	773.45
772.978	785.74
773.161	699.72
773.343	703.82
773.526	699.72
773.708	660.81
773.891	636.24
774.073	814.41
774.256	648.52
774.438	773.45
774.621	589.13
774.803	732.49
774.985	666.96
775.168	728.39
775.35	777.55
775.532	671.05
775.715	626
775.897	658.76
776.079	701.77
776.261	675.15
776.444	632.14
776.626	605.52
776.808	646.48
776.99	593.23
777.173	642.38
777.355	638.28
777.537	595.28
777.719	585.04
777.901	611.66
778.083	552.27
778.265	662.86
778.447	654.67
778.629	603.47
778.811	634.19
778.993	560.46
779.175	593.23
779.357	568.65
779.539	552.27
779.721	527.69
779.903	597.32
780.085	535.89
780.267	531.79
780.449	505.17
780.631	605.52
780.812	519.5
780.994	550.22
781.176	640.33
781.358	519.5
781.54	544.08
781.721	527.69
781.903	558.41
782.085	499.02
782.267	499.02
782.448	410.96
782.63	367.95
782.812	478.54
782.993	458.06
783.175	515.41
783.357	507.21
783.538	417.1
783.72	449.87
783.901	486.73
784.083	494.93
784.264	464.21
784.446	437.58
784.627	445.77
784.809	427.34
784.99	339.28
785.172	415.06
785.353	427.34
785.535	529.74
785.716	404.82
785.897	398.67
786.079	413.01
786.26	490.83
786.441	453.97
786.623	292.18
786.804	372.05
786.985	421.2
787.167	392.53
787.348	382.29
787.529	331.09
787.71	456.01
787.891	449.87
788.073	351.57
788.254	306.51
788.435	367.95
788.616	372.05
788.797	388.43
788.978	437.58
789.159	339.28
789.34	300.37
789.522	288.08
789.703	318.8
789.884	382.29
790.065	331.09
790.246	396.62
790.427	355.66
790.607	413.01
790.788	355.66
790.969	406.86
791.15	402.77
791.331	257.36
791.512	376.14
791.693	333.14
791.874	292.18
792.054	204.11
792.235	353.62
792.416	296.27
792.597	388.43
792.778	286.03
792.958	345.42
793.139	353.62
793.32	345.42
793.5	326.99
793.681	277.84
793.862	349.52
794.042	273.75
794.223	288.08
794.404	308.56
794.584	226.64
794.765	261.46
794.945	310.61
795.126	298.32
795.306	281.94
795.487	240.98
795.667	283.99
795.848	267.6
796.028	249.17
796.209	294.22
796.389	281.94
796.57	261.46
796.75	279.89
796.93	234.83
797.111	251.22
797.291	236.88
797.471	251.22
797.652	349.52
797.832	216.4
798.012	318.8
798.192	314.7
798.373	232.79
798.553	251.22
798.733	238.93
798.913	144.72
799.093	245.07
799.274	181.59
799.454	212.31
799.634	243.03
799.814	169.3
799.994	183.63
800.174	224.59
800.354	183.63
800.534	202.07
800.714	216.4
800.894	230.74
801.074	200.02
801.254	126.29
801.434	290.13
801.614	212.31
801.794	154.96
801.974	879.94
802.154	208.21
802.334	200.02
802.514	138.58
802.693	187.73
802.873	175.44
803.053	232.79
803.233	189.78
803.413	249.17
803.592	142.68
803.772	243.03
803.952	200.02
804.131	132.44
804.311	249.17
804.491	240.98
804.67	183.63
804.85	181.59
805.03	177.49
805.209	175.44
805.389	159.06
805.568	114
805.748	187.73
805.928	183.63
806.107	249.17
806.287	128.34
806.466	273.75
806.646	163.15
806.825	249.17
807.004	105.81
807.184	124.24
807.363	136.53
807.543	144.72
807.722	134.48
807.901	163.15
808.081	224.59
808.26	54.61
808.439	159.06
808.619	167.25
808.798	191.83
808.977	202.07
809.156	122.2
809.336	118.1
809.515	214.35
809.694	79.19
809.873	114
810.052	118.1
810.231	216.4
810.411	136.53
810.59	265.55
810.769	163.15
810.948	220.5
811.127	140.63
811.306	105.81
811.485	128.34
811.664	165.2
811.843	130.39
812.022	118.1
812.201	71
812.38	159.06
812.559	136.53
812.737	161.11
812.916	95.57
813.095	111.96
813.274	167.25
813.453	167.25
813.632	120.15
813.811	138.58
813.989	130.39
814.168	173.39
814.347	179.54
814.526	167.25
814.704	148.82
814.883	185.68
815.062	118.1
815.24	150.87
815.419	152.92
815.598	220.5
815.776	109.91
815.955	165.2
816.133	48.47
816.312	114
816.49	91.48
816.669	109.91
816.847	150.87
817.026	159.06
817.204	85.33
817.383	134.48
817.561	138.58
817.74	163.15
817.918	103.76
818.097	97.62
818.275	87.38
818.453	144.72
818.632	79.19
818.81	101.72
818.988	146.77
819.167	140.63
819.345	134.48
819.523	154.96
819.701	93.52
819.879	132.44
820.058	66.9
820.236	187.73
820.414	114
820.592	77.14
820.77	140.63
820.948	103.76
821.127	126.29
821.305	167.25
821.483	126.29
821.661	124.24
821.839	134.48
822.017	93.52
822.195	118.1
822.373	126.29
822.551	81.24
822.729	142.68
822.907	85.33
823.085	114
823.262	54.61
823.44	126.29
823.618	7.51
823.796	101.72
823.974	60.76
824.152	136.53
824.329	126.29
824.507	36.18
824.685	77.14
824.863	52.56
825.04	130.39
825.218	83.28
825.396	60.76
825.574	50.52
825.751	111.96
825.929	105.81
826.107	-12.97
826.284	134.48
826.462	73.04
826.639	134.48
826.817	3.41
826.994	99.67
827.172	-17.07
827.349	202.07
827.527	83.28
827.704	97.62
827.882	134.48
828.059	101.72
828.237	111.96
828.414	101.72
828.591	64.85
828.769	142.68
828.946	54.61
829.124	44.37
829.301	87.38
829.478	68.95
829.655	7.51
829.833	60.76
830.01	-39.59
830.187	89.43
830.364	87.38
830.542	118.1
830.719	136.53
830.896	77.14
831.073	-33.45
831.25	118.1
831.427	111.96
831.604	81.24
831.782	101.72
831.959	36.18
832.136	85.33
832.313	52.56
832.49	87.38
832.667	77.14
832.844	36.18
833.021	105.81
833.198	95.57
833.374	-10.92
833.551	81.24
833.728	87.38
833.905	44.37
834.082	11.61
834.259	114
834.436	142.68
834.612	17.75
834.789	85.33
834.966	48.47
835.143	58.71
835.319	5.46
835.496	152.92
835.673	27.99
835.85	103.76
836.026	81.24
836.203	40.28
836.38	34.13
836.556	134.48
836.733	-19.11
836.909	191.83
837.086	44.37
837.262	32.08
837.439	60.76
837.616	60.76
837.792	54.61
837.968	101.72
838.145	52.56
838.321	-2.73
838.498	159.06
838.674	48.47
838.851	36.18
839.027	34.13
839.203	87.38
839.38	126.29
839.556	62.8
839.732	62.8
839.909	30.04
840.085	103.76
840.261	60.76
840.437	62.8
840.614	54.61
840.79	5.46
840.966	54.61
841.142	109.91
841.318	58.71
841.494	52.56
841.671	89.43
841.847	23.89
842.023	-8.87
842.199	34.13
842.375	52.56
842.551	19.8
842.727	68.95
842.903	85.33
843.079	34.13
843.255	89.43
843.431	56.66
843.607	44.37
843.783	58.71
843.959	11.61
844.134	23.89
844.31	71
844.486	-45.74
844.662	11.61
844.838	-27.31
845.013	58.71
845.189	46.42
845.365	44.37
845.541	60.76
845.716	-12.97
845.892	111.96
846.068	93.52
846.244	3.41
846.419	44.37
846.595	5.46
846.77	-0.68
846.946	77.14
847.122	48.47
847.297	-27.31
847.473	103.76
847.648	-51.88
847.824	38.23
847.999	-27.31
848.175	60.76
848.35	-2.73
848.526	56.66
848.701	85.33
848.876	36.18
849.052	3.41
849.227	85.33
849.403	36.18
849.578	44.37
849.753	62.8
849.929	89.43
850.104	32.08
850.279	79.19
850.454	3.41
850.63	103.76
850.805	81.24
850.98	3.41
851.155	32.08
851.33	3.41
851.505	19.8
851.681	95.57
851.856	66.9
852.031	46.42
852.206	73.04
852.381	-35.5
852.556	21.85
852.731	30.04
852.906	48.47
853.081	-0.68
853.256	118.1
853.431	-23.21
853.606	-21.16
853.781	21.85
853.956	13.65
854.131	75.09
854.305	62.8
854.48	89.43
854.655	-4.78
854.83	3.41
855.005	21.85
855.18	19.8
855.354	25.94
855.529	1.37
855.704	32.08
855.879	126.29
856.053	-12.97
856.228	19.8
856.403	-19.11
856.577	46.42
856.752	-2.73
856.926	77.14
857.101	11.61
857.276	68.95
857.45	-10.92
857.625	71
857.799	19.8
857.974	87.38
858.148	-123.56
858.323	30.04
858.497	3.41
858.672	30.04
858.846	32.08
859.02	85.33
859.195	36.18
859.369	-19.11
859.543	89.43
859.718	60.76
859.892	5.46
860.066	60.76
860.241	-37.55
860.415	30.04
860.589	32.08
860.763	19.8
860.938	-6.83
861.112	77.14
861.286	44.37
861.46	46.42
861.634	56.66
861.808	21.85
861.982	15.7
862.157	-19.11
862.331	21.85
862.505	-4.78
862.679	-2.73
862.853	5.46
863.027	-33.45
863.201	25.94
863.375	11.61
863.549	77.14
863.722	44.37
863.896	93.52
864.07	-21.16
864.244	60.76
864.418	11.61
864.592	62.8
864.766	27.99
864.939	9.56
865.113	3.41
865.287	27.99
865.461	-21.16
865.634	7.51
865.808	-19.11
865.982	-21.16
866.156	-58.03
866.329	-25.26
866.503	36.18
866.676	50.52
866.85	-17.07
867.024	-43.69
867.197	54.61
867.371	30.04
867.544	73.04
867.718	3.41
867.891	66.9
868.065	7.51
868.238	-4.78
868.412	50.52
868.585	-17.07
868.759	-4.78
868.932	5.46
869.105	11.61
869.279	23.89
869.452	-33.45
869.625	30.04
869.799	60.76
869.972	-27.31
870.145	-21.16
870.319	54.61
870.492	11.61
870.665	-21.16
870.838	44.37
871.011	-33.45
871.185	3.41
871.358	-51.88
871.531	60.76
871.704	15.7
871.877	177.49
872.05	-90.79
872.223	-12.97
872.396	38.23
872.569	77.14
872.742	36.18
872.915	60.76
873.088	3.41
873.261	-41.64
873.434	44.37
873.607	-27.31
873.78	71
873.953	-27.31
874.126	66.9
874.299	19.8
874.471	-53.93
874.644	5.46
874.817	40.28
874.99	3.41
875.163	7.51
875.335	73.04
875.508	19.8
875.681	5.46
875.853	-2.73
876.026	38.23
876.199	85.33
876.371	11.61
876.544	-10.92
876.717	44.37
876.889	17.75
877.062	87.38
877.234	-78.51
877.407	11.61
877.579	38.23
877.752	36.18
877.924	-19.11
878.097	3.41
878.269	-6.83
878.442	32.08
878.614	-15.02
878.786	-23.21
878.959	50.52
879.131	11.61
879.303	-86.7
879.476	3.41
879.648	44.37
879.82	142.68
879.993	-19.11
880.165	-43.69
880.337	-21.16
880.509	44.37
880.681	-43.69
880.854	48.47
881.026	-12.97
881.198	21.85
881.37	-2.73
881.542	34.13
881.714	-80.55
881.886	-29.35
882.058	-41.64
882.23	-12.97
882.402	7.51
882.574	44.37
882.746	27.99
882.918	95.57
883.09	-27.31
883.262	56.66
883.434	-45.74
883.606	-45.74
883.778	52.56
883.95	52.56
884.122	-82.6
884.293	60.76
884.465	30.04
884.637	48.47
884.809	-109.22
884.98	13.65
885.152	11.61
885.324	42.32
885.496	13.65
885.667	-27.31
885.839	-49.83
886.011	1.37
886.182	9.56
886.354	38.23
886.525	66.9
886.697	23.89
886.869	-74.41
887.04	-29.35
887.212	77.14
887.383	11.61
887.555	-19.11
887.726	-10.92
887.897	-58.03
888.069	34.13
888.24	77.14
888.412	-33.45
888.583	42.32
888.754	-45.74
888.926	-27.31
889.097	15.7
889.268	-53.93
889.44	-19.11
889.611	-31.4
889.782	27.99
889.953	-45.74
890.125	13.65
890.296	27.99
890.467	1.37
890.638	-25.26
890.809	89.43
890.98	-17.07
891.151	32.08
891.323	-2.73
891.494	44.37
891.665	42.32
891.836	58.71
892.007	-25.26
892.178	21.85
892.349	27.99
892.52	-4.78
892.691	-45.74
892.862	103.76
893.032	-49.83
893.203	36.18
893.374	23.89
893.545	-19.11
893.716	-4.78
893.887	36.18
894.057	-64.17
894.228	3.41
894.399	13.65
894.57	52.56
894.74	-17.07
894.911	64.85
895.082	-29.35
895.253	50.52
895.423	48.47
895.594	-10.92
895.764	7.51
895.935	19.8
896.106	-45.74
896.276	19.8
896.447	-51.88
896.617	-29.35
896.788	-86.7
896.958	27.99
897.129	21.85
897.299	56.66
897.47	27.99
897.64	111.96
897.81	48.47
897.981	-25.26
898.151	-10.92
898.322	21.85
898.492	62.8
898.662	-4.78
898.832	-43.69
899.003	60.76
899.173	-55.98
899.343	19.8
899.513	-49.83
