Data from USB4F104151__64__14-30-11-453.txt Node

Date: Thu Mar 13 14:30:11 EDT 2025
User: louis
Spectrometer: USB4F10415
Trigger mode: 4
Integration Time (sec): 2.500000E-2
Scans to average: 1
Electric dark correction enabled: true
Nonlinearity correction enabled: false
Boxcar width: 0
XAxis mode: Wavelengths
Number of Pixels in Spectrum: 3648
>>>>>Begin Spectral Data<<<<<
178.204	-183.46
178.424	-183.46
178.644	-183.46
178.864	-117.93
179.084	-64.68
179.304	13.14
179.524	-7.34
179.744	-38.06
179.964	95.06
180.184	29.52
180.404	-21.67
180.624	-44.2
180.844	45.91
181.064	-56.49
181.283	-38.06
181.503	11.09
181.723	11.09
181.943	29.52
182.163	45.91
182.383	-19.63
182.602	39.76
182.822	107.35
183.042	-44.2
183.262	11.09
183.482	19.29
183.701	52.05
183.921	45.91
184.141	-79.02
184.361	47.96
184.58	37.72
184.8	-27.82
185.02	-42.15
185.239	23.38
185.459	54.1
185.679	9.05
185.898	-27.82
186.118	33.62
186.338	80.72
186.557	33.62
186.777	2.9
186.997	37.72
187.216	-19.63
187.436	23.38
187.655	56.15
187.875	103.25
188.095	-62.63
188.314	64.34
188.534	-3.24
188.753	33.62
188.973	56.15
189.192	15.19
189.412	58.2
189.631	13.14
189.851	7
190.07	86.87
190.29	-29.87
190.509	37.72
190.729	-19.63
190.948	62.29
191.168	133.97
191.387	21.33
191.607	-7.34
191.826	41.81
192.045	25.43
192.265	21.33
192.484	-15.53
192.704	-23.72
192.923	45.91
193.142	80.72
193.362	64.34
193.581	74.58
193.8	-27.82
194.02	62.29
194.239	-5.29
194.458	35.67
194.678	-11.43
194.897	99.16
195.116	35.67
195.335	29.52
195.555	29.52
195.774	13.14
195.993	64.34
196.212	-60.59
196.432	129.88
196.651	45.91
196.87	54.1
197.089	39.76
197.308	31.57
197.528	60.24
197.747	-25.77
197.966	19.29
198.185	54.1
198.404	4.95
198.623	56.15
198.842	56.15
199.062	11.09
199.281	4.95
199.5	-31.91
199.719	-27.82
199.938	13.14
200.157	84.82
200.376	140.12
200.595	13.14
200.814	45.91
201.033	21.33
201.252	82.77
201.471	70.48
201.69	54.1
201.909	29.52
202.128	0.85
202.347	21.33
202.566	56.15
202.785	0.85
203.004	56.15
203.223	90.96
203.442	78.68
203.661	33.62
203.879	33.62
204.098	78.68
204.317	-27.82
204.536	131.92
204.755	9.05
204.974	62.29
205.193	17.24
205.411	97.11
205.63	88.92
205.849	45.91
206.068	21.33
206.287	-3.24
206.505	58.2
206.724	45.91
206.943	37.72
207.162	-25.77
207.381	45.91
207.599	33.62
207.818	7
208.037	13.14
208.255	-3.24
208.474	21.33
208.693	4.95
208.911	23.38
209.13	-17.58
209.349	64.34
209.567	-38.06
209.786	15.19
210.005	54.1
210.223	78.68
210.442	-13.48
210.661	39.76
210.879	-7.34
211.098	86.87
211.316	-17.58
211.535	86.87
211.753	23.38
211.972	23.38
212.191	39.76
212.409	4.95
212.628	37.72
212.846	15.19
213.065	72.53
213.283	39.76
213.502	31.57
213.72	2.9
213.938	64.34
214.157	45.91
214.375	7
214.594	29.52
214.812	25.43
215.031	56.15
215.249	-9.39
215.467	4.95
215.686	-36.01
215.904	13.14
216.122	17.24
216.341	37.72
216.559	88.92
216.778	86.87
216.996	62.29
217.214	17.24
217.432	41.81
217.651	13.14
217.869	23.38
218.087	33.62
218.306	4.95
218.524	-9.39
218.742	2.9
218.96	21.33
219.179	56.15
219.397	50
219.615	80.72
219.833	27.48
220.051	-9.39
220.27	80.72
220.488	27.48
220.706	66.39
220.924	-15.53
221.142	-48.3
221.36	41.81
221.578	-42.15
221.796	-11.43
222.015	78.68
222.233	-9.39
222.451	29.52
222.669	25.43
222.887	39.76
223.105	103.25
223.323	7
223.541	-17.58
223.759	37.72
223.977	50
224.195	21.33
224.413	9.05
224.631	70.48
224.849	11.09
225.067	103.25
225.285	-19.63
225.503	23.38
225.721	4.95
225.939	41.81
226.157	70.48
226.375	80.72
226.592	-9.39
226.81	70.48
227.028	-36.01
227.246	88.92
227.464	47.96
227.682	62.29
227.9	115.54
228.117	23.38
228.335	-44.2
228.553	15.19
228.771	19.29
228.989	9.05
229.206	21.33
229.424	-9.39
229.642	86.87
229.86	17.24
230.077	45.91
230.295	21.33
230.513	-1.19
230.731	-1.19
230.948	78.68
231.166	103.25
231.384	-99.5
231.601	23.38
231.819	107.35
232.037	70.48
232.254	-60.59
232.472	33.62
232.689	-11.43
232.907	121.68
233.125	15.19
233.342	-42.15
233.56	-60.59
233.777	-42.15
233.995	31.57
234.213	21.33
234.43	54.1
234.648	45.91
234.865	-7.34
235.083	21.33
235.3	7
235.518	52.05
235.735	54.1
235.953	21.33
236.17	-50.35
236.388	-7.34
236.605	-3.24
236.822	78.68
237.04	66.39
237.257	39.76
237.475	-11.43
237.692	33.62
237.909	-1.19
238.127	-60.59
238.344	4.95
238.562	33.62
238.779	-23.72
238.996	-11.43
239.214	-13.48
239.431	54.1
239.648	-72.87
239.865	13.14
240.083	-11.43
240.3	13.14
240.517	7
240.735	7
240.952	25.43
241.169	9.05
241.386	29.52
241.603	70.48
241.821	107.35
242.038	78.68
242.255	21.33
242.472	4.95
242.689	68.44
242.907	56.15
243.124	-23.72
243.341	19.29
243.558	15.19
243.775	-29.87
243.992	4.95
244.209	-23.72
244.426	72.53
244.643	-5.29
244.86	-7.34
245.078	25.43
245.295	-3.24
245.512	-9.39
245.729	31.57
245.946	101.2
246.163	-1.19
246.38	56.15
246.597	74.58
246.814	80.72
247.031	-19.63
247.248	17.24
247.464	-62.63
247.681	41.81
247.898	-1.19
248.115	54.1
248.332	-44.2
248.549	45.91
248.766	-7.34
248.983	21.33
249.2	56.15
249.417	47.96
249.633	31.57
249.85	-3.24
250.067	9.05
250.284	-17.58
250.501	62.29
250.717	-31.91
250.934	31.57
251.151	-13.48
251.368	19.29
251.585	95.06
251.801	37.72
252.018	-36.01
252.235	25.43
252.451	4.95
252.668	43.86
252.885	25.43
253.102	-3.24
253.318	64.34
253.535	-38.06
253.752	-15.53
253.968	52.05
254.185	-31.91
254.401	-11.43
254.618	0.85
254.835	21.33
255.051	64.34
255.268	-19.63
255.484	47.96
255.701	-3.24
255.917	47.96
256.134	-91.31
256.351	-46.25
256.567	45.91
256.784	15.19
257	-50.35
257.217	119.64
257.433	86.87
257.65	50
257.866	66.39
258.082	29.52
258.299	-25.77
258.515	105.3
258.732	-91.31
258.948	58.2
259.165	13.14
259.381	15.19
259.597	-23.72
259.814	45.91
260.03	-44.2
260.246	7
260.463	54.1
260.679	2.9
260.895	-25.77
261.112	74.58
261.328	41.81
261.544	-13.48
261.761	56.15
261.977	-40.11
262.193	82.77
262.409	-42.15
262.626	-9.39
262.842	-11.43
263.058	33.62
263.274	54.1
263.49	56.15
263.707	95.06
263.923	-9.39
264.139	50
264.355	56.15
264.571	80.72
264.787	62.29
265.004	95.06
265.22	29.52
265.436	27.48
265.652	31.57
265.868	-19.63
266.084	45.91
266.3	13.14
266.516	-23.72
266.732	35.67
266.948	66.39
267.164	13.14
267.38	-19.63
267.596	-27.82
267.812	95.06
268.028	39.76
268.244	13.14
268.46	37.72
268.676	58.2
268.892	84.82
269.108	37.72
269.324	31.57
269.54	4.95
269.756	70.48
269.972	13.14
270.188	62.29
270.403	-15.53
270.619	25.43
270.835	31.57
271.051	-33.96
271.267	58.2
271.483	80.72
271.698	70.48
271.914	72.53
272.13	50
272.346	-38.06
272.562	50
272.777	7
272.993	99.16
273.209	-1.19
273.425	74.58
273.64	-52.39
273.856	7
274.072	33.62
274.287	-44.2
274.503	45.91
274.719	-25.77
274.934	19.29
275.15	-81.07
275.366	37.72
275.581	17.24
275.797	21.33
276.012	-19.63
276.228	13.14
276.444	37.72
276.659	119.64
276.875	-13.48
277.09	78.68
277.306	78.68
277.521	88.92
277.737	21.33
277.952	29.52
278.168	56.15
278.383	37.72
278.599	43.86
278.814	-3.24
279.03	9.05
279.245	58.2
279.461	29.52
279.676	119.64
279.892	45.91
280.107	37.72
280.322	-1.19
280.538	56.15
280.753	56.15
280.969	156.5
281.184	23.38
281.399	86.87
281.615	-7.34
281.83	-15.53
282.045	-1.19
282.26	-23.72
282.476	19.29
282.691	41.81
282.906	-23.72
283.122	37.72
283.337	-27.82
283.552	45.91
283.767	-19.63
283.983	33.62
284.198	15.19
284.413	-25.77
284.628	39.76
284.843	123.73
285.058	37.72
285.274	-25.77
285.489	-3.24
285.704	37.72
285.919	17.24
286.134	13.14
286.349	25.43
286.564	37.72
286.779	101.2
286.995	-7.34
287.21	4.95
287.425	19.29
287.64	11.09
287.855	80.72
288.07	-17.58
288.285	70.48
288.5	21.33
288.715	37.72
288.93	72.53
289.145	29.52
289.36	62.29
289.575	99.16
289.79	60.24
290.004	-19.63
290.219	80.72
290.434	-27.82
290.649	4.95
290.864	7
291.079	31.57
291.294	37.72
291.509	0.85
291.724	43.86
291.938	62.29
292.153	27.48
292.368	-52.39
292.583	29.52
292.798	62.29
293.012	66.39
293.227	117.59
293.442	39.76
293.657	31.57
293.871	129.88
294.086	45.91
294.301	78.68
294.516	-15.53
294.73	136.02
294.945	-19.63
295.16	47.96
295.374	72.53
295.589	78.68
295.804	-50.35
296.018	41.81
296.233	50
296.447	33.62
296.662	23.38
296.877	80.72
297.091	76.63
297.306	52.05
297.52	56.15
297.735	62.29
297.949	7
298.164	7
298.378	27.48
298.593	13.14
298.807	-48.3
299.022	129.88
299.236	43.86
299.451	-44.2
299.665	39.76
299.88	70.48
300.094	107.35
300.309	64.34
300.523	97.11
300.737	25.43
300.952	33.62
301.166	64.34
301.381	13.14
301.595	64.34
301.809	-9.39
302.024	21.33
302.238	17.24
302.452	-9.39
302.667	54.1
302.881	74.58
303.095	86.87
303.309	-9.39
303.524	21.33
303.738	17.24
303.952	0.85
304.166	-19.63
304.381	-52.39
304.595	78.68
304.809	-44.2
305.023	17.24
305.237	31.57
305.452	2.9
305.666	37.72
305.88	33.62
306.094	-21.67
306.308	60.24
306.522	109.4
306.736	2.9
306.95	-3.24
307.164	-27.82
307.379	50
307.593	156.5
307.807	13.14
308.021	50
308.235	23.38
308.449	-27.82
308.663	21.33
308.877	95.06
309.091	-15.53
309.305	60.24
309.519	-56.49
309.733	17.24
309.947	11.09
310.161	0.85
310.374	-21.67
310.588	56.15
310.802	-11.43
311.016	56.15
311.23	70.48
311.444	47.96
311.658	58.2
311.872	144.21
312.085	66.39
312.299	90.96
312.513	95.06
312.727	4.95
312.941	-11.43
313.154	68.44
313.368	58.2
313.582	21.33
313.796	62.29
314.009	54.1
314.223	-11.43
314.437	41.81
314.651	25.43
314.864	39.76
315.078	29.52
315.292	-36.01
315.505	29.52
315.719	47.96
315.933	86.87
316.146	60.24
316.36	-23.72
316.573	105.3
316.787	60.24
317.001	76.63
317.214	-36.01
317.428	54.1
317.641	-44.2
317.855	86.87
318.068	60.24
318.282	13.14
318.495	60.24
318.709	50
318.922	4.95
319.136	160.59
319.349	-42.15
319.563	29.52
319.776	47.96
319.99	-58.54
320.203	58.2
320.417	23.38
320.63	103.25
320.843	121.68
321.057	123.73
321.27	-33.96
321.483	-31.91
321.697	95.06
321.91	-7.34
322.124	13.14
322.337	103.25
322.55	4.95
322.763	109.4
322.977	86.87
323.19	99.16
323.403	41.81
323.617	37.72
323.83	148.31
324.043	23.38
324.256	50
324.469	-3.24
324.683	54.1
324.896	82.77
325.109	37.72
325.322	-3.24
325.535	62.29
325.748	31.57
325.962	19.29
326.175	76.63
326.388	54.1
326.601	7
326.814	-42.15
327.027	60.24
327.24	4.95
327.453	-21.67
327.666	45.91
327.879	80.72
328.092	66.39
328.305	9.05
328.518	39.76
328.731	27.48
328.944	82.77
329.157	66.39
329.37	21.33
329.583	52.05
329.796	127.83
330.009	72.53
330.222	127.83
330.435	29.52
330.648	78.68
330.861	80.72
331.073	86.87
331.286	82.77
331.499	15.19
331.712	15.19
331.925	4.95
332.138	97.11
332.35	29.52
332.563	-68.78
332.776	88.92
332.989	-17.58
333.202	29.52
333.414	70.48
333.627	-3.24
333.84	95.06
334.053	54.1
334.265	-36.01
334.478	70.48
334.691	31.57
334.903	78.68
335.116	2.9
335.329	60.24
335.541	21.33
335.754	21.33
335.966	-23.72
336.179	45.91
336.392	23.38
336.604	66.39
336.817	76.63
337.029	37.72
337.242	-5.29
337.454	58.2
337.667	-1.19
337.88	47.96
338.092	-11.43
338.305	47.96
338.517	-29.87
338.729	54.1
338.942	78.68
339.154	-46.25
339.367	33.62
339.579	54.1
339.792	23.38
340.004	41.81
340.217	19.29
340.429	35.67
340.641	-15.53
340.854	70.48
341.066	33.62
341.278	37.72
341.491	74.58
341.703	62.29
341.915	-76.97
342.128	17.24
342.34	136.02
342.552	21.33
342.764	45.91
342.977	4.95
343.189	129.88
343.401	62.29
343.613	72.53
343.826	31.57
344.038	-46.25
344.25	54.1
344.462	35.67
344.674	62.29
344.886	54.1
345.099	78.68
345.311	50
345.523	2.9
345.735	84.82
345.947	4.95
346.159	37.72
346.371	0.85
346.583	39.76
346.795	82.77
347.007	88.92
347.219	45.91
347.431	41.81
347.643	95.06
347.855	33.62
348.067	101.2
348.279	19.29
348.491	37.72
348.703	47.96
348.915	7
349.127	-58.54
349.339	64.34
349.551	-7.34
349.763	80.72
349.975	21.33
350.187	45.91
350.399	64.34
350.61	47.96
350.822	41.81
351.034	37.72
351.246	50
351.458	37.72
351.669	64.34
351.881	74.58
352.093	13.14
352.305	95.06
352.517	105.3
352.728	56.15
352.94	-31.91
353.152	70.48
353.363	25.43
353.575	54.1
353.787	127.83
353.999	111.44
354.21	78.68
354.422	72.53
354.633	72.53
354.845	54.1
355.057	31.57
355.268	54.1
355.48	107.35
355.692	-19.63
355.903	4.95
356.115	47.96
356.326	-42.15
356.538	121.68
356.749	37.72
356.961	80.72
357.172	70.48
357.384	21.33
357.595	95.06
357.807	-7.34
358.018	43.86
358.23	82.77
358.441	131.92
358.653	136.02
358.864	68.44
359.075	-7.34
359.287	31.57
359.498	99.16
359.709	70.48
359.921	-11.43
360.132	72.53
360.344	9.05
360.555	-66.73
360.766	56.15
360.977	-1.19
361.189	97.11
361.4	39.76
361.611	90.96
361.823	45.91
362.034	80.72
362.245	-72.87
362.456	74.58
362.667	121.68
362.879	66.39
363.09	-7.34
363.301	101.2
363.512	50
363.723	72.53
363.935	-19.63
364.146	95.06
364.357	-3.24
364.568	80.72
364.779	-52.39
364.99	66.39
365.201	58.2
365.412	27.48
365.623	-1.19
365.834	17.24
366.045	45.91
366.256	90.96
366.467	-36.01
366.678	7
366.889	37.72
367.1	-7.34
367.311	123.73
367.522	84.82
367.733	54.1
367.944	-25.77
368.155	31.57
368.366	23.38
368.577	90.96
368.788	0.85
368.999	47.96
369.209	33.62
369.42	93.01
369.631	109.4
369.842	-7.34
370.053	62.29
370.264	103.25
370.474	-1.19
370.685	15.19
370.896	88.92
371.107	23.38
371.317	25.43
371.528	-40.11
371.739	47.96
371.95	119.64
372.16	21.33
372.371	-11.43
372.582	74.58
372.792	84.82
373.003	39.76
373.214	37.72
373.424	47.96
373.635	-25.77
373.846	88.92
374.056	31.57
374.267	54.1
374.477	50
374.688	82.77
374.898	86.87
375.109	37.72
375.319	86.87
375.53	37.72
375.74	121.68
375.951	78.68
376.161	64.34
376.372	62.29
376.582	54.1
376.793	39.76
377.003	64.34
377.214	-1.19
377.424	21.33
377.635	7
377.845	39.76
378.055	80.72
378.266	15.19
378.476	103.25
378.686	109.4
378.897	78.68
379.107	68.44
379.317	37.72
379.528	58.2
379.738	39.76
379.948	-42.15
380.158	127.83
380.369	54.1
380.579	115.54
380.789	103.25
380.999	54.1
381.21	47.96
381.42	115.54
381.63	-13.48
381.84	95.06
382.05	62.29
382.261	15.19
382.471	54.1
382.681	136.02
382.891	37.72
383.101	45.91
383.311	13.14
383.521	156.5
383.731	31.57
383.941	66.39
384.151	33.62
384.361	50
384.571	33.62
384.781	21.33
384.991	142.16
385.201	105.3
385.411	80.72
385.621	54.1
385.831	95.06
386.041	-54.44
386.251	62.29
386.461	162.64
386.671	-42.15
386.881	-25.77
387.091	82.77
387.301	88.92
387.511	95.06
387.72	144.21
387.93	119.64
388.14	95.06
388.35	123.73
388.56	86.87
388.769	13.14
388.979	142.16
389.189	21.33
389.399	58.2
389.609	97.11
389.818	117.59
390.028	64.34
390.238	99.16
390.447	29.52
390.657	54.1
390.867	-13.48
391.076	33.62
391.286	-44.2
391.496	80.72
391.705	13.14
391.915	103.25
392.125	95.06
392.334	103.25
392.544	50
392.753	45.91
392.963	78.68
393.172	64.34
393.382	37.72
393.591	111.44
393.801	17.24
394.01	76.63
394.22	103.25
394.429	152.4
394.639	23.38
394.848	99.16
395.058	95.06
395.267	95.06
395.477	45.91
395.686	99.16
395.895	193.36
396.105	131.92
396.314	119.64
396.524	168.79
396.733	45.91
396.942	193.36
397.152	76.63
397.361	160.59
397.57	99.16
397.78	119.64
397.989	86.87
398.198	138.07
398.407	84.82
398.617	62.29
398.826	58.2
399.035	127.83
399.244	121.68
399.453	88.92
399.663	146.26
399.872	76.63
400.081	138.07
400.29	176.98
400.499	103.25
400.708	78.68
400.917	146.26
401.127	121.68
401.336	160.59
401.545	195.41
401.754	127.83
401.963	119.64
402.172	78.68
402.381	170.83
402.59	56.15
402.799	154.45
403.008	136.02
403.217	213.84
403.426	146.26
403.635	125.78
403.844	172.88
404.053	144.21
404.262	138.07
404.471	258.9
404.68	168.79
404.888	152.4
405.097	131.92
405.306	277.33
405.515	172.88
405.724	152.4
405.933	179.03
406.142	215.89
406.35	244.56
406.559	291.66
406.768	238.42
406.977	252.75
407.185	213.84
407.394	191.31
407.603	193.36
407.812	299.86
408.02	301.9
408.229	310.1
408.438	316.24
408.646	324.43
408.855	213.84
409.064	316.24
409.272	351.06
409.481	406.35
409.69	306
409.898	299.86
410.107	365.39
410.315	346.96
410.524	351.06
410.733	498.51
410.941	471.89
411.15	496.46
411.358	521.04
411.567	555.85
411.775	400.21
411.984	529.23
412.192	488.27
412.401	426.83
412.609	600.91
412.818	545.61
413.026	693.07
413.234	627.53
413.443	529.23
413.651	660.3
413.86	713.55
414.068	711.5
414.276	709.45
414.485	777.03
414.693	777.03
414.901	811.85
415.11	858.95
415.318	799.56
415.526	846.66
415.734	1000.26
415.943	947.01
416.151	1045.32
416.359	1037.13
416.567	981.83
416.776	1139.52
416.984	1114.95
417.192	1168.2
417.4	1252.16
417.608	1188.68
417.817	1248.07
418.025	1278.79
418.233	1436.48
418.441	1413.95
418.649	1487.68
418.857	1538.88
419.065	1545.02
419.273	1626.94
419.481	1680.19
419.689	1659.71
419.897	1809.21
420.105	1825.59
420.313	1811.26
420.521	1987.38
420.729	2136.88
420.937	2032.44
421.145	2192.18
421.353	2360.11
421.561	2306.87
421.769	2423.6
421.977	2624.3
422.185	2413.36
422.393	2542.38
422.601	2712.36
422.809	2655.02
423.017	2827.05
423.224	2951.98
423.432	2994.98
423.64	3044.13
423.848	3457.82
424.056	3183.4
424.263	3443.49
424.471	3484.45
424.679	3623.71
424.887	3625.76
425.094	3891.99
425.302	3904.28
425.51	4068.12
425.718	4240.15
425.925	4227.86
426.133	4242.2
426.341	4471.57
426.548	4594.45
426.756	4801.29
426.964	4817.68
427.171	4979.47
427.379	5243.65
427.586	5311.24
427.794	5587.71
428.001	5845.76
428.209	6019.83
428.417	5976.83
428.624	6292.21
428.832	6230.77
429.039	6028.03
429.247	6365.94
429.454	6949.61
429.662	7211.75
429.869	6722.29
430.076	7441.12
430.284	7164.65
430.491	7471.84
430.699	7766.75
430.906	7762.65
431.114	7811.81
431.321	8250.07
431.528	8336.09
431.736	9001.68
431.943	8952.52
432.15	9069.26
432.358	8991.44
432.565	9616.07
432.772	9659.07
432.979	10050.24
433.187	10267.32
433.394	10193.59
433.601	10990.25
433.808	11078.32
434.016	10988.21
434.223	11489.96
434.43	12014.24
434.637	11852.45
434.844	12481.17
435.052	12907.15
435.259	12792.47
435.466	12841.62
435.673	12583.57
435.88	13535.88
436.087	14269.05
436.294	14430.84
436.501	13611.65
436.708	14013.06
436.915	14686.84
437.122	15250.03
437.329	15145.58
437.537	15610.47
437.743	16046.69
437.95	15696.49
438.157	16714.33
438.364	16923.22
438.571	17101.39
438.778	17488.46
438.985	19274.29
439.192	18326.08
439.399	18534.97
439.606	18305.6
439.813	19104.31
440.02	20521.5
440.227	19935.78
440.433	19921.45
440.64	20466.21
440.847	20333.09
441.054	20816.41
441.261	22241.79
441.467	22123.01
441.674	22657.53
441.881	23241.2
442.088	23179.76
442.294	22811.13
442.501	23577.07
442.708	23775.72
442.914	24998.36
443.121	26165.7
443.328	25016.79
443.534	26956.22
443.741	26130.89
443.948	25641.42
444.154	27853.23
444.361	27546.03
444.568	27648.43
444.774	27941.29
444.981	27883.95
445.187	29118.87
445.394	30067.08
445.6	30081.42
445.807	32637.28
446.013	30966.14
446.22	32078.19
446.426	33040.73
446.633	33089.88
446.839	34451.78
447.046	32993.63
447.252	34808.13
447.459	34376.01
447.665	34662.72
447.871	36075.82
448.078	37826.84
448.284	35762.48
448.491	36792.61
448.697	38383.88
448.903	38928.64
449.11	39053.57
449.316	38623.5
449.522	39039.23
449.728	39895.28
449.935	40427.76
450.141	40415.47
450.347	41285.86
450.553	39766.26
450.76	40863.97
450.966	41773.27
451.172	41054.43
451.378	42291.41
451.584	42207.44
451.791	42475.73
451.997	42547.4
452.203	43395.26
452.409	43069.64
452.615	42705.1
452.821	41574.62
453.027	40796.39
453.233	42592.46
453.44	41122.02
453.646	42039.51
453.852	41943.25
454.058	42696.91
454.264	41089.25
454.47	42035.41
454.676	41320.67
454.882	42735.82
455.088	38684.94
455.294	39610.62
455.5	40136.94
455.705	40261.87
455.911	38570.25
456.117	37988.63
456.323	37304.6
456.529	35604.79
456.735	37124.38
456.941	36192.56
457.147	35709.24
457.352	34634.05
457.558	34165.07
457.764	34126.16
457.97	33483.09
458.176	32668
458.381	32682.34
458.587	30962.04
458.793	31246.71
458.999	29618.58
459.204	31674.74
459.41	30695.81
459.616	28762.53
459.821	28703.14
460.027	28664.22
460.233	28158.38
460.438	26819
460.644	27140.54
460.85	25555.41
461.055	25237.97
461.261	25041.37
461.466	23511.53
461.672	22413.82
461.878	24201.7
462.083	22723.07
462.289	22233.6
462.494	21795.34
462.7	20963.86
462.905	20435.49
463.111	21049.88
463.316	21254.67
463.522	20740.63
463.727	20867.61
463.932	20666.91
464.138	20830.74
464.343	20437.53
464.549	19954.21
464.754	20474.4
464.959	20304.42
465.165	20103.71
465.37	19079.73
465.575	18717.24
465.781	19556.91
465.986	19425.84
466.191	18829.88
466.397	18348.61
466.602	17748.55
466.807	18393.66
467.012	18299.45
467.218	17912.39
467.423	17742.41
467.628	18065.99
467.833	18618.94
468.038	18072.13
468.244	17752.65
468.449	18223.68
468.654	17482.31
468.859	17367.63
469.064	17302.09
469.269	16671.32
469.474	16734.81
469.679	17218.13
469.885	16570.97
470.09	17037.91
470.295	16759.38
470.5	16226.91
470.705	16351.84
470.91	16050.78
471.115	15850.08
471.32	16130.66
471.525	15987.3
471.73	15555.18
471.935	15430.25
472.139	15147.63
472.344	14948.98
472.549	14938.74
472.754	14963.31
472.959	14527.1
473.164	14293.63
473.369	14224
473.574	14557.82
473.778	14373.5
473.983	14279.29
474.188	14080.64
474.393	13720.2
474.598	13693.57
474.802	13478.54
475.007	13443.72
475.212	13382.28
475.417	12831.38
475.621	13142.67
475.826	12950.16
476.031	12769.94
476.235	12620.44
476.44	12765.84
476.645	12399.26
476.849	12528.28
477.054	12178.08
477.259	12333.72
477.463	11969.18
477.668	11682.47
477.872	12085.92
478.077	11795.11
478.282	11586.21
478.486	11303.59
478.691	11381.42
478.895	11455.14
479.1	11256.49
479.304	11236.01
479.509	10928.81
479.713	11240.11
479.918	10721.97
480.122	10734.26
480.326	10883.76
480.531	10810.03
480.735	10793.65
480.94	10689.2
481.144	10949.29
481.348	10214.07
481.553	10398.39
481.757	10492.6
481.961	10539.7
482.166	10562.23
482.37	10465.97
482.574	10193.59
482.778	10285.75
482.983	10465.97
483.187	10463.93
483.391	10343.1
483.595	10394.29
483.8	10326.71
484.004	10379.96
484.208	10408.63
484.412	10179.26
484.616	10506.93
484.821	10300.09
485.025	10080.96
485.229	10341.05
485.433	10142.39
485.637	10222.27
485.841	10404.53
486.045	10220.22
486.249	10191.55
486.453	10203.83
486.657	10367.67
486.861	10230.46
487.065	10166.97
487.269	10134.2
487.473	10056.38
487.677	10310.33
487.881	10443.45
488.085	10289.85
488.289	10363.58
488.493	10195.64
488.697	10449.59
488.901	10416.82
489.105	10187.45
489.309	10261.18
489.512	10158.78
489.716	10095.29
489.92	10195.64
490.124	10367.67
490.328	10554.04
490.531	10439.35
490.735	10330.81
490.939	10545.84
491.143	10459.83
491.346	10271.42
491.55	10535.6
491.754	10371.77
491.958	10724.02
492.161	10570.42
492.365	10638
492.569	10437.3
492.772	10728.11
492.976	10719.92
493.18	10769.07
493.383	10930.86
493.587	10744.5
493.79	11094.7
493.994	10902.19
494.197	11057.84
494.401	10982.06
494.605	11066.03
494.808	11287.21
495.012	11254.44
495.215	11412.14
495.419	11301.54
495.622	11500.2
495.825	11459.24
496.029	11451.05
496.232	11793.06
496.436	11737.76
496.639	12102.3
496.843	11969.18
497.046	12083.87
497.249	12278.43
497.453	12415.64
497.656	12227.23
497.859	12286.62
498.063	12513.94
498.266	12726.93
498.469	12487.32
498.673	12804.75
498.876	12984.98
499.079	13134.48
499.282	13390.47
499.485	13632.13
499.689	13322.89
499.892	13691.52
500.095	13771.4
500.298	13947.52
500.501	13935.23
500.705	14250.62
500.908	14389.88
501.111	14459.51
501.314	14479.99
501.517	14996.08
501.72	15000.18
501.923	14705.27
502.126	15286.89
502.329	15438.44
502.532	15643.24
502.735	15604.33
502.938	15940.19
503.141	16026.21
503.344	16110.18
503.547	16005.73
503.75	16392.8
503.953	16525.91
504.156	16697.94
504.359	17039.95
504.562	17066.58
504.765	17580.62
504.968	17547.85
505.17	17783.37
505.373	17924.68
505.576	18195.01
505.779	18119.23
505.982	18414.14
506.185	18620.99
506.387	18690.62
506.59	18860.6
506.793	18960.95
506.996	18930.23
507.198	19679.79
507.401	19544.62
507.604	19880.49
507.807	20077.09
508.009	20324.9
508.212	20234.78
508.415	20326.94
508.617	20541.98
508.82	21070.36
509.022	20853.27
509.225	21262.86
509.428	21846.54
509.63	21830.15
509.833	21901.83
510.035	22315.52
510.238	22270.47
510.44	22727.16
510.643	22839.8
510.845	22852.09
511.048	23042.55
511.25	23364.08
511.453	23335.41
511.655	24195.56
511.858	23867.88
512.06	24338.91
512.262	24668.64
512.465	24252.9
512.667	24961.5
512.87	25104.85
513.072	24990.17
513.274	25770.44
513.477	25825.74
513.679	26077.64
513.881	26360.26
514.084	26511.81
514.286	26485.19
514.488	26790.33
514.69	27353.52
514.893	27423.15
515.095	27183.54
515.297	27812.27
515.499	28039.59
515.701	28221.86
515.904	28350.88
516.106	28674.46
516.308	29147.54
516.51	29645.2
516.712	29493.65
516.914	29544.85
517.116	30005.64
517.318	30105.99
517.52	30366.09
517.722	30534.02
517.925	30572.93
518.127	30945.66
518.329	31234.42
518.531	31029.63
518.733	31498.61
518.935	32117.1
519.136	31871.34
519.338	32293.22
519.54	32407.91
519.742	32975.2
519.944	33046.88
520.146	33493.33
520.348	32952.67
520.55	33376.6
520.752	33323.35
520.954	33907.02
521.155	33841.49
521.357	34416.97
521.559	34531.65
521.761	35029.31
521.963	34894.14
522.164	35113.28
522.366	34957.63
522.568	35250.49
522.77	35545.4
522.971	36049.2
523.173	35211.58
523.375	35547.45
523.576	35787.06
523.778	35758.39
523.98	36497.7
524.181	36522.28
524.383	36530.47
524.584	36798.76
524.786	36593.96
524.988	36778.28
525.189	37454.11
525.391	37228.83
525.592	37427.48
525.794	37292.32
525.995	37046.56
526.197	37366.04
526.398	37605.66
526.6	37667.09
526.801	37564.7
527.003	37595.42
527.204	37906.71
527.406	38060.3
527.607	37875.99
527.808	38316.3
528.01	37779.73
528.211	37781.78
528.412	38603.02
528.614	38187.28
528.815	38359.31
529.016	38562.06
529.218	38052.11
529.419	38265.1
529.62	38017.3
529.822	37890.32
530.023	38385.93
530.224	38072.59
530.425	38394.12
530.626	38152.46
530.828	37716.25
531.029	38347.02
531.23	37787.92
531.431	37691.67
531.632	38179.09
531.833	38424.84
532.035	37962
532.236	38002.96
532.437	38244.62
532.638	38091.02
532.839	38406.41
533.04	38261.01
533.241	37542.17
533.442	38082.83
533.643	37923.09
533.844	37769.49
534.045	37558.55
534.246	37177.63
534.447	38025.49
534.648	37587.22
534.849	37865.75
535.05	36938.02
535.251	37325.08
535.451	37445.91
535.652	37595.42
535.853	37259.55
536.054	37527.83
536.255	37155.1
536.456	37191.97
536.657	37660.95
536.857	37247.26
537.058	37038.37
537.259	37296.41
537.46	37206.3
537.66	37075.23
537.861	37028.13
538.062	36981.03
538.263	36833.57
538.463	37040.42
538.664	36708.65
538.865	36991.26
539.065	36708.65
539.266	36477.22
539.466	36989.22
539.667	36391.21
539.868	37185.82
540.068	36698.41
540.269	36956.45
540.469	36950.31
540.67	36675.88
540.87	36442.41
541.071	36745.51
541.271	36866.34
541.472	36561.19
541.672	36540.71
541.873	36428.07
542.073	35526.97
542.274	36847.91
542.474	36315.44
542.675	36172.08
542.875	36720.93
543.075	36464.94
543.276	35938.61
543.476	36745.51
543.676	36229.42
543.877	36215.08
544.077	36608.29
544.277	36131.12
544.478	36112.69
544.678	36217.13
544.878	36102.45
545.078	36022.58
545.279	35731.76
545.479	36145.45
545.679	36301.1
545.879	36270.38
546.079	35975.47
546.28	35899.7
546.48	35660.09
546.68	36307.24
546.88	36360.49
547.08	36077.87
547.28	36077.87
547.48	35928.37
547.68	36010.29
547.88	35844.4
548.081	36604.2
548.281	35965.23
548.481	35703.09
548.681	36393.26
548.881	35785.01
549.081	35971.38
549.28	35907.89
549.48	36495.66
549.68	36034.86
549.88	36661.54
550.08	35801.4
550.28	35926.32
550.48	36102.45
550.68	36110.64
550.88	35916.08
551.08	35950.9
551.279	36057.39
551.479	35539.26
551.679	35926.32
551.879	35850.55
552.079	36069.68
552.278	36290.86
552.478	36190.51
552.678	36462.89
552.878	36282.67
553.077	35928.37
553.277	35780.92
553.477	36352.3
553.676	36096.3
553.876	36282.67
554.076	36180.27
554.275	36028.72
554.475	35696.95
554.674	36049.2
554.874	36188.46
555.074	36127.02
555.273	36307.24
555.473	36493.61
555.672	36055.34
555.872	36573.48
556.071	36399.4
556.271	36403.5
556.47	36254
556.67	36049.2
556.869	36096.3
557.068	36165.93
557.268	36301.1
557.467	36370.73
557.667	36319.53
557.866	36221.23
558.065	36360.49
558.265	36084.01
558.464	36178.22
558.663	36591.91
558.863	36315.44
559.062	36423.98
559.261	36129.07
559.461	36559.14
559.66	35866.93
559.859	36225.32
560.058	35983.66
560.258	35782.96
560.457	35965.23
560.656	36606.25
560.855	36096.3
561.054	36028.72
561.253	35918.13
561.453	36176.17
561.652	36405.55
561.851	36321.58
562.05	35963.18
562.249	35850.55
562.448	36032.82
562.647	36163.89
562.846	36243.76
563.045	36235.56
563.244	35940.66
563.443	36393.26
563.642	35789.11
563.841	35832.11
564.04	35567.93
564.239	36397.35
564.438	36055.34
564.637	36118.83
564.836	35914.03
565.035	35191.1
565.234	35688.76
565.432	35584.31
565.631	35481.91
565.83	36036.91
566.029	35356.99
566.228	35619.13
566.427	35234.11
566.625	35363.13
566.824	35070.27
567.023	35610.93
567.222	35031.36
567.42	35666.23
567.619	35412.28
567.818	35010.88
568.016	34593.09
568.215	35266.88
568.414	34873.67
568.612	35053.89
568.811	34906.43
569.01	35072.32
569.208	34625.86
569.407	34836.8
569.605	34195.79
569.804	34713.92
570.002	34462.02
570.201	34701.64
570.4	34312.52
570.598	34345.29
570.797	34423.11
570.995	34292.04
571.193	33593.68
571.392	33841.49
571.59	33651.03
571.789	33634.64
571.987	33679.7
572.186	33659.22
572.384	33421.66
572.582	33821.01
572.781	33605.97
572.979	33063.26
573.177	33390.94
573.376	33339.74
573.574	33132.89
573.772	33335.64
573.971	32940.38
574.169	33309.02
574.367	32659.81
574.565	32985.44
574.763	32860.51
574.962	32373.1
575.16	32557.41
575.358	32225.64
575.556	32233.83
575.754	32395.62
575.952	32000.37
576.151	32481.64
576.349	31863.15
576.547	32029.04
576.745	32094.57
576.943	31674.74
577.141	31447.41
577.339	31658.35
577.537	31533.43
577.735	31379.83
577.933	31314.3
578.131	31502.71
578.329	31244.66
578.527	31162.75
578.725	31367.54
578.923	31154.55
579.121	31074.68
579.319	31021.44
579.516	30966.14
579.714	31033.72
579.912	30974.33
580.11	30589.31
580.308	30792.06
580.506	30456.2
580.704	30044.55
580.901	30196.1
581.099	30290.31
581.297	29915.53
581.495	29696.4
581.692	29950.35
581.89	29993.36
582.088	30228.87
582.285	29964.68
582.483	29858.19
582.681	30050.7
582.878	29610.39
583.076	29495.7
583.274	29649.3
583.471	29432.21
583.669	29487.51
583.866	29014.43
584.064	29452.69
584.262	28639.65
584.459	29002.14
584.657	28823.97
584.854	29204.89
585.052	28557.73
585.249	28770.72
585.447	28789.15
585.644	28434.85
585.841	28860.83
586.039	28952.99
586.236	28205.48
586.434	28696.99
586.631	28322.21
586.828	28316.07
587.026	28314.02
587.223	28316.07
587.42	28156.33
587.618	28412.32
587.815	27785.65
588.012	27656.62
588.21	27814.32
588.407	27883.95
588.604	27746.73
588.801	27314.61
588.999	27376.05
589.196	27406.77
589.393	27509.17
589.59	27498.93
589.787	27539.89
589.984	27167.16
590.182	27070.9
590.379	27189.69
590.576	26913.21
590.773	27216.31
590.97	26616.26
591.167	26827.2
591.364	26806.72
591.561	27253.17
591.758	26880.44
591.955	26843.58
592.152	26726.85
592.349	26794.43
592.546	26679.74
592.743	26614.21
592.94	25993.67
593.137	26233.29
593.334	26565.06
593.531	26196.42
593.727	26266.05
593.924	26089.93
594.121	26087.88
594.318	25993.67
594.515	25899.47
594.712	26268.1
594.908	25940.43
595.105	25776.59
595.302	25770.44
595.499	26122.69
595.696	26016.2
595.892	25721.29
596.089	26091.98
596.286	25883.08
596.482	25622.99
596.679	25803.21
596.876	25860.55
597.072	25614.8
597.269	25700.81
597.466	25426.39
597.662	25303.51
597.859	25348.56
598.055	25752.01
598.252	25168.34
598.448	25553.36
598.645	25260.5
598.841	25387.47
599.038	25590.22
599.234	25481.68
599.431	25424.34
599.627	25080.28
599.824	25440.72
600.02	25405.91
600.217	25168.34
600.413	25364.95
600.609	25536.98
600.806	25430.48
601.002	25258.45
601.198	25129.43
601.395	25252.31
601.591	25434.58
601.787	25283.03
601.984	25102.81
602.18	25604.56
602.376	25354.71
602.572	25207.25
602.769	25504.21
602.965	25186.77
603.161	25422.29
603.357	25082.33
603.553	25272.79
603.75	25160.15
603.946	25127.38
604.142	25532.88
604.338	25065.94
604.534	25649.61
604.73	25252.31
604.926	25328.08
605.122	25299.41
605.318	25326.03
605.514	25264.6
605.71	25334.23
605.906	25377.23
606.102	25244.12
606.298	25610.7
606.494	25223.64
606.69	25418.19
606.886	25385.43
607.082	25364.95
607.278	25649.61
607.474	24830.43
607.67	25446.87
607.866	25156.05
608.062	25569.74
608.257	25631.18
608.453	25242.07
608.649	25565.65
608.845	25622.99
609.041	25534.93
609.236	25680.33
609.432	25483.73
609.628	25352.66
609.824	25752.01
610.019	25524.69
610.215	25565.65
610.411	25809.36
610.606	25567.7
610.802	25934.28
610.998	25809.36
611.193	25702.86
611.389	25795.02
611.584	25668.05
611.78	25643.47
611.976	25629.13
612.171	25797.07
612.367	25508.3
612.562	25661.9
612.758	25756.11
612.953	25680.33
613.149	26218.95
613.344	25551.31
613.539	26122.69
613.735	26171.85
613.93	26327.49
614.126	25805.26
614.321	25764.3
614.517	26114.5
614.712	25797.07
614.907	26184.13
615.103	26331.59
615.298	25870.79
615.493	26104.26
615.688	25493.97
615.884	26380.74
616.079	25825.74
616.274	26157.51
616.47	26053.06
616.665	26175.94
616.86	25917.9
617.055	25721.29
617.25	25868.75
617.445	26202.57
617.641	25821.64
617.836	25932.23
618.031	25539.02
618.226	25907.66
618.421	25706.96
618.616	25991.62
618.811	25278.93
619.006	25993.67
619.201	25319.89
619.396	25727.44
619.591	25348.56
619.786	25524.69
619.981	25184.73
620.176	25479.63
620.371	25141.72
620.566	25149.91
620.761	25221.59
620.956	25375.19
621.151	24662.49
621.346	24924.63
621.541	24535.52
621.735	25051.61
621.93	24533.47
622.125	24666.59
622.32	24433.12
622.515	24289.76
622.709	24211.94
622.904	24297.95
623.099	24148.45
623.294	24185.32
623.488	23949.8
623.683	23724.52
623.878	23517.68
624.072	23759.34
624.267	23384.56
624.462	23609.84
624.656	23249.39
624.851	23198.2
625.046	23079.41
625.24	22966.77
625.435	22542.85
625.629	22880.76
625.824	22589.95
626.018	22833.66
626.213	22194.69
626.407	22247.94
626.602	22180.35
626.796	22272.51
626.991	22059.52
627.185	22073.86
627.38	21602.83
627.574	21781
627.768	21627.4
627.963	21672.46
628.157	21445.13
628.352	21488.14
628.546	21078.55
628.74	21469.71
628.935	21019.16
629.129	20752.92
629.323	20714.01
629.517	20677.15
629.712	20331.04
629.906	20490.78
630.1	20240.93
630.294	20707.87
630.489	20130.34
630.683	20226.59
630.877	19870.25
631.071	19864.1
631.265	19946.02
631.459	19663.4
631.653	19796.52
631.848	19718.7
632.042	19579.43
632.236	19526.19
632.43	19112.5
632.624	19227.18
632.818	19157.55
633.012	19001.91
633.206	18735.67
633.4	19018.29
633.594	18747.96
633.788	18653.75
633.982	18465.34
634.176	18647.61
634.369	18276.93
634.563	18057.79
634.757	18299.45
634.951	17973.83
635.145	18219.58
635.339	17977.92
635.533	17764.93
635.726	17654.34
635.92	17592.9
636.114	17629.77
636.308	17640.01
636.501	17513.03
636.695	17597
636.889	17279.57
637.083	17154.64
637.276	17306.19
637.47	16861.78
637.664	16904.79
637.857	16738.9
638.051	16609.88
638.244	16233.05
638.438	16343.64
638.632	16233.05
638.825	16190.05
639.019	16196.19
639.212	16144.99
639.406	16226.91
639.599	16022.11
639.793	15891.04
639.986	15561.32
640.18	15542.89
640.373	15569.51
640.567	15288.94
640.76	15555.18
640.954	15243.88
641.147	15061.62
641.34	15116.91
641.534	15196.78
641.727	14803.57
641.92	14953.07
642.114	14748.28
642.307	14596.73
642.5	14496.38
642.694	14279.29
642.887	14510.71
643.08	14363.26
643.273	14396.03
643.467	14160.51
643.66	14076.54
643.853	13990.53
644.046	13857.41
644.239	13851.27
644.432	13759.11
644.626	13308.55
644.819	13644.42
645.012	13634.18
645.205	13748.87
645.398	13460.1
645.591	13140.62
645.784	13181.58
645.977	13077.13
646.17	12941.97
646.363	13054.61
646.556	12909.2
646.749	12688.02
646.942	12692.12
647.135	12583.57
647.328	12620.44
647.521	12602.01
647.714	12282.52
647.907	12456.6
648.099	12561.05
648.292	12073.63
648.485	12403.35
648.678	12067.49
648.871	12128.92
649.064	11903.65
649.256	11983.52
649.449	11809.44
649.642	11727.52
649.835	11473.57
650.027	11575.97
650.22	11498.15
650.413	11391.66
650.605	11559.59
650.798	11319.98
650.991	11147.95
651.183	11199.15
651.376	11145.9
651.568	11322.02
651.761	10871.47
651.954	10943.15
652.146	10836.66
652.339	10863.28
652.531	10795.7
652.724	10928.81
652.916	10470.07
653.109	10599.09
653.301	10547.89
653.494	10533.56
653.686	10433.21
653.879	10488.5
654.071	10312.38
654.263	10216.12
654.456	10183.35
654.648	10400.44
654.84	10085.05
655.033	10183.35
655.225	10232.51
655.417	10097.34
655.61	9982.65
655.802	10021.56
655.994	9632.45
656.186	9878.21
656.379	9814.72
656.571	9757.38
656.763	9595.59
656.955	9441.99
657.148	9704.13
657.34	9478.85
657.532	9401.03
657.724	9335.49
657.916	9280.2
658.108	9312.97
658.3	9194.19
658.492	9171.66
658.684	9011.92
658.876	9102.03
659.068	9149.13
659.26	8846.03
659.452	8958.67
659.644	8876.75
659.836	8987.34
660.028	8800.98
660.22	8698.58
660.412	8616.66
660.604	8559.31
660.796	8717.01
660.988	8647.38
661.18	8563.41
661.372	8274.65
661.563	8483.54
661.755	8319.7
661.947	8125.15
662.139	8278.74
662.331	8387.29
662.522	8250.07
662.714	8153.82
662.906	7979.74
663.097	8139.48
663.289	8012.51
663.481	7865.05
663.673	7895.77
663.864	7801.57
664.056	7707.36
664.247	7852.77
664.439	7576.29
664.631	7793.37
664.822	7369.44
665.014	7480.04
665.205	7428.84
665.397	7520.99
665.588	7285.48
665.78	7394.02
665.971	7385.83
666.163	7342.82
666.354	7119.59
666.546	7174.89
666.737	6947.56
666.929	7066.35
667.12	7232.23
667.311	7025.39
667.503	7070.44
667.694	7178.98
667.885	7049.96
668.077	6918.89
668.268	6806.25
668.459	7049.96
668.651	6732.53
668.842	6806.25
669.033	6798.06
669.224	6550.26
669.416	6761.2
669.607	6671.09
669.798	6662.9
669.989	6775.53
670.18	6546.16
670.371	6558.45
670.563	6566.64
670.754	6617.84
670.945	6329.08
671.136	6484.72
671.327	6281.97
671.518	6355.7
671.709	6380.28
671.9	6576.88
672.091	6365.94
672.282	6038.27
672.473	6288.12
672.664	6159.1
672.855	6140.66
673.046	6142.71
673.237	6226.68
673.428	6085.37
673.619	6046.46
673.809	6181.62
674	6005.5
674.191	5960.44
674.382	6150.9
674.573	5929.72
674.764	5913.34
674.954	6085.37
675.145	5849.85
675.336	5962.49
675.527	5808.89
675.717	5962.49
675.908	5731.07
676.099	5657.34
676.289	5831.42
676.48	5714.69
676.671	5747.45
676.861	5724.93
677.052	5636.86
677.243	5767.93
677.433	5690.11
677.624	5593.86
677.814	5528.32
678.005	5456.64
678.195	5616.38
678.386	5567.23
678.576	5284.61
678.767	5567.23
678.957	5403.39
679.148	5636.86
679.338	5487.36
679.529	5356.29
679.719	5452.55
679.909	5387.01
680.1	5358.34
680.29	5442.31
680.481	5298.95
680.671	5473.03
680.861	5260.04
681.052	5292.8
681.242	5452.55
681.432	5374.72
681.622	5241.61
681.813	5249.8
682.003	5399.3
682.193	5212.93
682.383	5337.86
682.573	5214.98
682.764	5333.76
682.954	5272.32
683.144	5182.21
683.334	5223.17
683.524	5108.49
683.714	5176.07
683.904	5083.91
684.094	5114.63
684.284	5047.05
684.474	5098.25
684.664	5145.35
684.854	5100.3
685.044	5139.21
685.234	5010.18
685.424	4907.79
685.614	5128.97
685.804	5077.77
685.994	4891.4
686.184	4872.97
686.374	5055.24
686.564	4846.35
686.753	4963.08
686.943	5124.87
687.133	4911.88
687.323	4944.65
687.513	4995.85
687.702	4997.9
687.892	4735.76
688.082	4918.03
688.272	4965.13
688.461	4913.93
688.651	4875.02
688.841	4752.14
689.03	4809.48
689.22	4754.19
689.41	4666.13
689.599	4756.24
689.789	4791.05
689.979	4670.22
690.168	4752.14
690.358	4592.4
690.547	4668.17
690.737	4723.47
690.926	4598.54
691.116	4764.43
691.305	4514.58
691.495	4555.54
691.684	4643.6
691.874	4539.15
692.063	4612.88
692.252	4633.36
692.442	4561.68
692.631	4440.85
692.82	4358.93
693.01	4510.48
693.199	4449.04
693.388	4442.9
693.578	4393.75
693.767	4485.9
693.956	4248.34
694.146	4412.18
694.335	4416.27
694.524	4422.42
694.713	4360.98
694.902	4266.77
695.092	4385.55
695.281	4258.58
695.47	4266.77
695.659	4293.4
695.848	4234
696.037	4393.75
696.226	4358.93
696.415	4225.81
696.604	4250.39
696.793	4334.36
696.982	4291.35
697.171	4195.09
697.36	4356.88
697.549	4102.93
697.738	4215.57
697.927	4287.25
698.116	4219.67
698.305	4078.36
698.494	4277.01
698.683	4119.32
698.872	4115.22
699.061	4039.45
699.25	4221.72
699.438	4057.88
699.627	4150.04
699.816	4193.05
700.005	4045.59
700.193	4035.35
700.382	4207.38
700.571	4133.65
700.76	3994.39
700.948	4037.4
701.137	4076.31
701.326	3978.01
701.514	3894.04
701.703	4043.54
701.892	4162.33
702.08	4029.21
702.269	4043.54
702.457	3922.71
702.646	3930.91
702.834	3808.03
703.023	3980.06
703.212	3953.43
703.4	3879.71
703.589	3891.99
703.777	3848.99
703.965	3904.28
704.154	3912.47
704.342	3797.79
704.531	3832.6
704.719	3752.73
704.907	3812.12
705.096	3758.88
705.284	3711.77
705.472	3627.81
705.661	3748.64
705.849	3767.07
706.037	3877.66
706.226	3808.03
706.414	3699.48
706.602	3717.92
706.79	3857.18
706.979	3543.84
707.167	3638.05
707.355	3545.89
707.543	3726.11
707.731	3760.92
707.919	3679.01
708.107	3570.46
708.296	3605.28
708.484	3662.62
708.672	3588.89
708.86	3486.5
709.048	3488.54
709.236	3584.8
709.424	3627.81
709.612	3552.03
709.8	3437.34
709.988	3527.46
710.176	3496.74
710.364	3576.61
710.551	3472.16
710.739	3529.5
710.927	3332.9
711.115	3418.91
711.303	3506.98
711.491	3490.59
711.679	3273.51
711.866	3466.02
712.054	3429.15
712.242	3240.74
712.43	3425.06
712.617	3349.28
712.805	3511.07
712.993	3490.59
713.181	3273.51
713.368	3279.65
713.556	3304.23
713.744	3263.27
713.931	3384.1
714.119	3377.95
714.306	3210.02
714.494	3253.03
714.682	3265.32
714.869	3128.1
715.057	3142.44
715.244	3113.77
715.432	3154.73
715.619	3048.23
715.807	3154.73
715.994	3271.46
716.182	2997.03
716.369	3134.25
716.556	3150.63
716.744	3126.05
716.931	3138.34
717.119	3183.4
717.306	3093.29
717.493	3103.53
717.681	3091.24
717.868	3109.67
718.055	3019.56
718.242	3007.27
718.43	3078.95
718.617	3027.75
718.804	2964.26
718.991	3097.38
719.179	2962.22
719.366	2937.64
719.553	2880.3
719.74	2931.5
719.927	2956.07
720.114	2874.15
720.301	2937.64
720.488	2886.44
720.676	2874.15
720.863	2945.83
721.05	2853.67
721.237	2833.19
721.424	2745.13
721.611	2831.15
721.798	2831.15
721.985	2855.72
722.172	2788.14
722.358	2743.08
722.545	2888.49
722.732	2550.57
722.919	2806.57
723.106	2741.04
723.293	2788.14
723.48	2667.31
723.667	2773.8
723.853	2587.44
724.04	2773.8
724.227	2681.64
724.414	2700.08
724.6	2628.4
724.787	2700.08
724.974	2685.74
725.161	2667.31
725.347	2528.05
725.534	2587.44
725.72	2679.6
725.907	2700.08
726.094	2591.53
726.28	2675.5
726.467	2650.92
726.653	2548.53
726.84	2511.66
727.027	2618.16
727.213	2487.09
727.4	2620.21
727.586	2622.25
727.773	2540.33
727.959	2577.2
728.145	2374.45
728.332	2470.7
728.518	2532.14
728.705	2546.48
728.891	2562.86
729.077	2425.65
729.264	2569.01
729.45	2505.52
729.636	2458.42
729.823	2382.64
730.009	2472.75
730.195	2323.25
730.382	2429.74
730.568	2452.27
730.754	2450.22
730.94	2364.21
731.126	2423.6
731.313	2544.43
731.499	2374.45
731.685	2396.98
731.871	2390.83
732.057	2478.9
732.243	2444.08
732.429	2323.25
732.615	2454.32
732.801	2360.11
732.987	2380.59
733.173	2333.49
733.359	2300.72
733.545	2335.54
733.731	2349.87
733.917	2339.63
734.103	2337.59
734.289	2368.31
734.475	2235.19
734.661	2315.06
734.847	2306.87
735.033	2331.44
735.219	2280.24
735.404	2270
735.59	2380.59
735.776	2233.14
735.962	2249.52
736.148	2298.67
736.333	2233.14
736.519	2251.57
736.705	2220.85
736.89	2282.29
737.076	2181.94
737.262	2181.94
737.447	2147.12
737.633	2175.8
737.819	2147.12
738.004	2104.12
738.19	2104.12
738.375	2171.7
738.561	2237.24
738.747	2040.63
738.932	2095.93
739.118	2179.89
739.303	2048.82
739.489	2100.02
739.674	2044.73
739.859	2050.87
740.045	2016.05
740.23	1999.67
740.416	1958.71
740.601	2042.68
740.786	1954.62
740.972	1987.38
741.157	1973.05
741.342	1911.61
741.528	1948.47
741.713	2007.86
741.898	2054.97
742.084	1915.7
742.269	1866.55
742.454	1913.66
742.639	1942.33
742.824	2028.34
743.01	1893.18
743.195	1891.13
743.38	1917.75
743.565	1930.04
743.75	1923.9
743.935	1880.89
744.12	1827.64
744.305	1891.13
744.49	1809.21
744.675	1770.3
744.86	1801.02
745.045	1841.98
745.23	1780.54
745.415	1774.39
745.6	1776.44
745.785	1801.02
745.97	1776.44
746.155	1776.44
746.34	1809.21
746.525	1686.33
746.71	1760.06
746.895	1694.52
747.079	1663.8
747.264	1598.27
747.449	1694.52
747.634	1661.76
747.819	1692.48
748.003	1604.41
748.188	1641.28
748.373	1622.84
748.557	1565.5
748.742	1696.57
748.927	1604.41
749.111	1628.99
749.296	1618.75
749.481	1635.13
749.665	1579.84
749.85	1585.98
750.034	1549.12
750.219	1506.11
750.404	1493.82
750.588	1536.83
750.773	1495.87
750.957	1487.68
751.141	1350.46
751.326	1518.4
751.51	1446.72
751.695	1405.76
751.879	1381.18
752.064	1438.53
752.248	1409.86
752.432	1495.87
752.617	1350.46
752.801	1463.1
752.985	1442.62
753.17	1397.57
753.354	1405.76
753.538	1403.71
753.722	1346.37
753.907	1266.5
754.091	1375.04
754.275	1403.71
754.459	1291.07
754.643	1246.02
754.828	1233.73
755.012	1237.83
755.196	1266.5
755.38	1280.83
755.564	1168.2
755.748	1340.22
755.932	1227.59
756.116	1131.33
756.3	1203.01
756.484	1293.12
756.668	1192.77
756.852	1069.89
757.036	1131.33
757.22	1229.63
757.404	1200.96
757.588	1073.99
757.772	1266.5
757.956	1143.62
758.14	1098.56
758.323	1112.9
758.507	1039.17
758.691	1237.83
758.875	1203.01
759.059	1094.47
759.242	1045.32
759.426	1094.47
759.61	1123.14
759.794	1086.28
759.977	1071.94
760.161	1168.2
760.345	1061.7
760.528	1102.66
760.712	1069.89
760.895	998.21
761.079	949.06
761.263	1012.55
761.446	959.3
761.63	963.4
761.813	1014.6
761.997	998.21
762.18	977.73
762.364	1045.32
762.547	957.25
762.731	1045.32
762.914	947.01
763.098	951.11
763.281	969.54
763.464	914.25
763.648	967.49
763.831	942.92
764.015	889.67
764.198	930.63
764.381	963.4
764.564	1012.55
764.748	955.21
764.931	922.44
765.114	922.44
765.297	977.73
765.481	914.25
765.664	940.87
765.847	873.29
766.03	1020.74
766.213	840.52
766.397	875.34
766.58	904.01
766.763	926.54
766.946	934.73
767.129	885.58
767.312	873.29
767.495	844.62
767.678	930.63
767.861	895.82
768.044	848.71
768.227	875.34
768.41	869.19
768.593	897.86
768.776	840.52
768.959	932.68
769.142	729.93
769.324	766.79
769.507	871.24
769.69	875.34
769.873	869.19
770.056	817.99
770.239	836.42
770.421	869.19
770.604	824.14
770.787	723.79
770.97	756.55
771.152	762.7
771.335	832.33
771.518	660.3
771.7	879.43
771.883	832.33
772.066	707.4
772.248	824.14
772.431	836.42
772.613	734.03
772.796	750.41
772.978	662.35
773.161	844.62
773.343	801.61
773.526	783.18
773.708	684.87
773.891	727.88
774.073	725.83
774.256	645.96
774.438	826.18
774.621	703.31
774.803	793.42
774.985	750.41
775.168	793.42
775.35	742.22
775.532	754.51
775.715	746.31
775.897	736.07
776.079	588.62
776.261	715.59
776.444	586.57
776.626	680.78
776.808	668.49
776.99	660.3
777.173	615.24
777.355	570.19
777.537	586.57
777.719	729.93
777.901	580.43
778.083	570.19
778.265	586.57
778.447	643.92
778.629	629.58
778.811	541.52
778.993	652.11
779.175	617.29
779.357	590.67
779.539	545.61
779.721	631.63
779.903	611.15
780.085	496.46
780.267	578.38
780.449	637.77
780.631	553.8
780.812	607.05
780.994	605
781.176	537.42
781.358	512.85
781.54	555.85
781.721	531.28
781.903	570.19
782.085	504.65
782.267	506.7
782.448	533.33
782.63	549.71
782.812	480.08
782.993	545.61
783.175	545.61
783.357	480.08
783.538	570.19
783.72	488.27
783.901	496.46
784.083	465.74
784.264	463.69
784.446	389.97
784.627	424.78
784.809	490.32
784.99	406.35
785.172	545.61
785.353	496.46
785.535	498.51
785.716	394.06
785.897	461.65
786.079	471.89
786.26	422.73
786.441	365.39
786.623	381.78
786.804	367.44
786.985	398.16
787.167	426.83
787.348	342.86
787.529	406.35
787.71	512.85
787.891	406.35
788.073	383.82
788.254	314.19
788.435	439.12
788.616	406.35
788.797	316.24
788.978	357.2
789.159	316.24
789.34	389.97
789.522	301.9
789.703	326.48
789.884	346.96
790.065	385.87
790.246	435.02
790.427	349.01
790.607	422.73
790.788	346.96
790.969	346.96
791.15	291.66
791.331	316.24
791.512	344.91
791.693	242.51
791.874	465.74
792.054	416.59
792.235	336.72
792.416	340.82
792.597	285.52
792.778	385.87
792.958	344.91
793.139	316.24
793.32	328.53
793.5	316.24
793.681	277.33
793.862	332.62
794.042	285.52
794.223	308.05
794.404	324.43
794.584	201.55
794.765	308.05
794.945	277.33
795.126	334.67
795.306	394.06
795.487	250.71
795.667	275.28
795.848	250.71
796.028	271.19
796.209	279.38
796.389	351.06
796.57	299.86
796.75	310.1
796.93	310.1
797.111	299.86
797.291	330.58
797.471	303.95
797.652	185.17
797.832	328.53
798.012	349.01
798.192	267.09
798.373	215.89
798.553	269.14
798.733	226.13
798.913	246.61
799.093	246.61
799.274	185.17
799.454	291.66
799.634	283.47
799.814	254.8
799.994	326.48
800.174	219.99
800.354	174.93
800.534	179.03
800.714	176.98
800.894	193.36
801.074	226.13
801.254	285.52
801.434	179.03
801.614	262.99
801.794	217.94
801.974	797.51
802.154	209.75
802.334	201.55
802.514	185.17
802.693	217.94
802.873	246.61
803.053	265.04
803.233	222.03
803.413	209.75
803.592	181.07
803.772	213.84
803.952	152.4
804.131	193.36
804.311	197.46
804.491	242.51
804.67	154.45
804.85	203.6
805.03	283.47
805.209	222.03
805.389	185.17
805.568	242.51
805.748	152.4
805.928	201.55
806.107	183.12
806.287	129.88
806.466	189.27
806.646	185.17
806.825	105.3
807.004	119.64
807.184	176.98
807.363	172.88
807.543	224.08
807.722	166.74
807.901	156.5
808.081	144.21
808.26	162.64
808.439	164.69
808.619	191.31
808.798	211.79
808.977	181.07
809.156	183.12
809.336	136.02
809.515	222.03
809.694	129.88
809.873	154.45
810.052	162.64
810.231	193.36
810.411	176.98
810.59	154.45
810.769	181.07
810.948	158.55
811.127	80.72
811.306	109.4
811.485	131.92
811.664	234.32
811.843	88.92
812.022	144.21
812.201	82.77
812.38	144.21
812.559	99.16
812.737	226.13
812.916	88.92
813.095	105.3
813.274	176.98
813.453	99.16
813.632	156.5
813.811	127.83
813.989	54.1
814.168	111.44
814.347	172.88
814.526	152.4
814.704	164.69
814.883	217.94
815.062	211.79
815.24	154.45
815.419	179.03
815.598	179.03
815.776	72.53
815.955	95.06
816.133	37.72
816.312	152.4
816.49	131.92
816.669	66.39
816.847	146.26
817.026	129.88
817.204	113.49
817.383	88.92
817.561	127.83
817.74	99.16
817.918	185.17
818.097	113.49
818.275	84.82
818.453	88.92
818.632	127.83
818.81	76.63
818.988	82.77
819.167	62.29
819.345	90.96
819.523	-1.19
819.701	47.96
819.879	60.24
820.058	129.88
820.236	160.59
820.414	140.12
820.592	88.92
820.77	37.72
820.948	82.77
821.127	140.12
821.305	64.34
821.483	107.35
821.661	195.41
821.839	144.21
822.017	13.14
822.195	95.06
822.373	93.01
822.551	88.92
822.729	148.31
822.907	115.54
823.085	187.22
823.262	160.59
823.44	117.59
823.618	68.44
823.796	103.25
823.974	123.73
824.152	170.83
824.329	97.11
824.507	54.1
824.685	70.48
824.863	146.26
825.04	152.4
825.218	21.33
825.396	154.45
825.574	54.1
825.751	123.73
825.929	146.26
826.107	37.72
826.284	76.63
826.462	136.02
826.639	-7.34
826.817	64.34
826.994	103.25
827.172	72.53
827.349	168.79
827.527	121.68
827.704	123.73
827.882	72.53
828.059	119.64
828.237	70.48
828.414	88.92
828.591	15.19
828.769	107.35
828.946	84.82
829.124	54.1
829.301	62.29
829.478	64.34
829.655	66.39
829.833	64.34
830.01	4.95
830.187	103.25
830.364	33.62
830.542	121.68
830.719	70.48
830.896	70.48
831.073	23.38
831.25	86.87
831.427	37.72
831.604	136.02
831.782	29.52
831.959	54.1
832.136	52.05
832.313	64.34
832.49	37.72
832.667	95.06
832.844	52.05
833.021	127.83
833.198	25.43
833.374	47.96
833.551	86.87
833.728	97.11
833.905	82.77
834.082	41.81
834.259	66.39
834.436	95.06
834.612	23.38
834.789	45.91
834.966	99.16
835.143	115.54
835.319	17.24
835.496	90.96
835.673	21.33
835.85	82.77
836.026	31.57
836.203	109.4
836.38	25.43
836.556	127.83
836.733	-27.82
836.909	78.68
837.086	13.14
837.262	29.52
837.439	107.35
837.616	54.1
837.792	23.38
837.968	39.76
838.145	-52.39
838.321	33.62
838.498	60.24
838.674	136.02
838.851	78.68
839.027	9.05
839.203	31.57
839.38	58.2
839.556	17.24
839.732	39.76
839.909	0.85
840.085	47.96
840.261	47.96
840.437	-25.77
840.614	-11.43
840.79	78.68
840.966	-31.91
841.142	127.83
841.318	37.72
841.494	113.49
841.671	119.64
841.847	86.87
842.023	25.43
842.199	97.11
842.375	45.91
842.551	-52.39
842.727	-25.77
842.903	121.68
843.079	7
843.255	113.49
843.431	21.33
843.607	90.96
843.783	-3.24
843.959	86.87
844.134	17.24
844.31	80.72
844.486	-7.34
844.662	45.91
844.838	29.52
845.013	29.52
845.189	70.48
845.365	56.15
845.541	56.15
845.716	78.68
845.892	21.33
846.068	7
846.244	-42.15
846.419	11.09
846.595	13.14
846.77	58.2
846.946	95.06
847.122	35.67
847.297	7
847.473	125.78
847.648	9.05
847.824	-44.2
847.999	-9.39
848.175	90.96
848.35	4.95
848.526	142.16
848.701	54.1
848.876	37.72
849.052	33.62
849.227	66.39
849.403	15.19
849.578	-3.24
849.753	37.72
849.929	76.63
850.104	4.95
850.279	-44.2
850.454	37.72
850.63	80.72
850.805	37.72
850.98	13.14
851.155	119.64
851.33	45.91
851.505	45.91
851.681	54.1
851.856	17.24
852.031	15.19
852.206	70.48
852.381	11.09
852.556	47.96
852.731	131.92
852.906	37.72
853.081	56.15
853.256	52.05
853.431	-31.91
853.606	74.58
853.781	25.43
853.956	-19.63
854.131	78.68
854.305	-13.48
854.48	78.68
854.655	60.24
854.83	13.14
855.005	-3.24
855.18	9.05
855.354	-38.06
855.529	27.48
855.704	25.43
855.879	25.43
856.053	39.76
856.228	4.95
856.403	-33.96
856.577	54.1
856.752	-7.34
856.926	-40.11
857.101	27.48
857.276	0.85
857.45	25.43
857.625	54.1
857.799	-1.19
857.974	101.2
858.148	45.91
858.323	-1.19
858.497	25.43
858.672	37.72
858.846	37.72
859.02	78.68
859.195	-3.24
859.369	-56.49
859.543	105.3
859.718	29.52
859.892	54.1
860.066	4.95
860.241	-3.24
860.415	-19.63
860.589	-19.63
860.763	31.57
860.938	-33.96
861.112	41.81
861.286	23.38
861.46	33.62
861.634	4.95
861.808	-27.82
861.982	-1.19
862.157	2.9
862.331	-27.82
862.505	-27.82
862.679	-58.54
862.853	-7.34
863.027	31.57
863.201	93.01
863.375	11.09
863.549	17.24
863.722	-15.53
863.896	39.76
864.07	33.62
864.244	17.24
864.418	37.72
864.592	-44.2
864.766	37.72
864.939	45.91
865.113	-31.91
865.287	39.76
865.461	-13.48
865.634	-15.53
865.808	58.2
865.982	-48.3
866.156	0.85
866.329	23.38
866.503	4.95
866.676	62.29
866.85	47.96
867.024	-3.24
867.197	25.43
867.371	58.2
867.544	-31.91
867.718	-1.19
867.891	-27.82
868.065	11.09
868.238	56.15
868.412	105.3
868.585	-27.82
868.759	-44.2
868.932	-56.49
869.105	-1.19
869.279	37.72
869.452	23.38
869.625	64.34
869.799	-33.96
869.972	-5.29
870.145	13.14
870.319	21.33
870.492	-1.19
870.665	-23.72
870.838	-27.82
871.011	-44.2
871.185	-48.3
871.358	9.05
871.531	23.38
871.704	-48.3
871.877	-9.39
872.05	-15.53
872.223	9.05
872.396	-46.25
872.569	25.43
872.742	-89.26
872.915	88.92
873.088	23.38
873.261	-25.77
873.434	-83.11
873.607	-38.06
873.78	23.38
873.953	17.24
874.126	-19.63
874.299	54.1
874.471	9.05
874.644	-11.43
874.817	62.29
874.99	113.49
875.163	-7.34
875.335	74.58
875.508	-19.63
875.681	0.85
875.853	-33.96
876.026	64.34
876.199	11.09
876.371	19.29
876.544	-68.78
876.717	-19.63
876.889	66.39
877.062	56.15
877.234	29.52
877.407	-33.96
877.579	-11.43
877.752	17.24
877.924	103.25
878.097	-13.48
878.269	33.62
878.442	41.81
878.614	-5.29
878.786	45.91
878.959	17.24
879.131	-11.43
879.303	-46.25
879.476	-52.39
879.648	13.14
879.82	-13.48
879.993	-23.72
880.165	4.95
880.337	-60.59
880.509	-23.72
880.681	-7.34
880.854	4.95
881.026	47.96
881.198	-7.34
881.37	21.33
881.542	13.14
881.714	37.72
881.886	-19.63
882.058	-5.29
882.23	37.72
882.402	-3.24
882.574	15.19
882.746	9.05
882.918	39.76
883.09	-36.01
883.262	45.91
883.434	-3.24
883.606	-11.43
883.778	-15.53
883.95	33.62
884.122	-48.3
884.293	80.72
884.465	-36.01
884.637	29.52
884.809	50
884.98	-3.24
885.152	54.1
885.324	-1.19
885.496	-56.49
885.667	-33.96
885.839	76.63
886.011	27.48
886.182	99.16
886.354	29.52
886.525	78.68
886.697	4.95
886.869	68.44
887.04	-9.39
887.212	33.62
887.383	103.25
887.555	0.85
887.726	-19.63
887.897	-89.26
888.069	35.67
888.24	7
888.412	-25.77
888.583	29.52
888.754	-11.43
888.926	54.1
889.097	-25.77
889.268	-66.73
889.44	21.33
889.611	-1.19
889.782	-17.58
889.953	-29.87
890.125	54.1
890.296	-15.53
890.467	-50.35
890.638	56.15
890.809	50
890.98	-42.15
891.151	31.57
891.323	52.05
891.494	25.43
891.665	4.95
891.836	-17.58
892.007	-60.59
892.178	101.2
892.349	-19.63
892.52	-66.73
892.691	72.53
892.862	-3.24
893.032	-48.3
893.203	-11.43
893.374	-60.59
893.545	31.57
893.716	-27.82
893.887	21.33
894.057	0.85
894.228	-11.43
894.399	-1.19
894.57	-29.87
894.74	-81.07
894.911	21.33
895.082	-27.82
895.253	-60.59
895.423	-52.39
895.594	76.63
895.764	58.2
895.935	19.29
896.106	50
896.276	-52.39
896.447	-25.77
896.617	-17.58
896.788	-3.24
896.958	47.96
897.129	-7.34
897.299	23.38
897.47	70.48
897.64	-54.44
897.81	-36.01
897.981	7
898.151	-21.67
898.322	80.72
898.492	-50.35
898.662	-33.96
898.832	-11.43
899.003	11.09
899.173	17.24
899.343	-19.63
899.513	-31.91
