Data from USB4F104151__280__14-34-45-325.txt Node

Date: Thu Mar 13 14:34:45 EDT 2025
User: louis
Spectrometer: USB4F10415
Trigger mode: 4
Integration Time (sec): 2.500000E-2
Scans to average: 1
Electric dark correction enabled: true
Nonlinearity correction enabled: false
Boxcar width: 0
XAxis mode: Wavelengths
Number of Pixels in Spectrum: 3648
>>>>>Begin Spectral Data<<<<<
178.204	-147.11
178.424	-147.11
178.644	-147.11
178.864	-159.4
179.084	-188.07
179.304	-83.63
179.524	-20.14
179.744	2.39
179.964	72.02
180.184	4.44
180.404	-18.09
180.624	-20.14
180.844	4.44
181.064	-9.9
181.283	31.06
181.503	8.53
181.723	29.01
181.943	-67.24
182.163	98.64
182.383	39.25
182.602	-7.85
182.822	4.44
183.042	45.4
183.262	-32.43
183.482	33.11
183.701	0.34
183.921	72.02
184.141	-1.71
184.361	78.16
184.58	10.58
184.8	51.54
185.02	29.01
185.239	39.25
185.459	55.64
185.679	69.97
185.898	-40.62
186.118	-9.9
186.338	65.88
186.557	53.59
186.777	-11.95
186.997	14.68
187.216	53.59
187.436	88.4
187.655	53.59
187.875	61.78
188.095	-36.52
188.314	47.44
188.534	61.78
188.753	12.63
188.973	10.58
189.192	108.88
189.412	31.06
189.631	72.02
189.851	96.6
190.07	104.79
190.29	-28.33
190.509	55.64
190.729	-63.15
190.948	72.02
191.168	186.71
191.387	90.45
191.607	-65.19
191.826	20.82
192.045	-7.85
192.265	39.25
192.484	65.88
192.704	14.68
192.923	2.39
193.142	127.32
193.362	61.78
193.581	88.4
193.8	69.97
194.02	-3.75
194.239	43.35
194.458	82.26
194.678	41.3
194.897	-5.8
195.116	86.36
195.335	37.2
195.555	112.98
195.774	37.2
195.993	69.97
196.212	10.58
196.432	43.35
196.651	92.5
196.87	33.11
197.089	119.12
197.308	12.63
197.528	94.55
197.747	-3.75
197.966	72.02
198.185	94.55
198.404	110.93
198.623	24.92
198.842	143.7
199.062	88.4
199.281	78.16
199.5	20.82
199.719	65.88
199.938	127.32
200.157	55.64
200.376	33.11
200.595	80.21
200.814	63.83
201.033	12.63
201.252	-20.14
201.471	102.74
201.69	69.97
201.909	104.79
202.128	63.83
202.347	53.59
202.566	72.02
202.785	2.39
203.004	86.36
203.223	82.26
203.442	106.84
203.661	-24.23
203.879	61.78
204.098	55.64
204.317	-26.28
204.536	76.12
204.755	18.77
204.974	96.6
205.193	22.87
205.411	61.78
205.63	57.68
205.849	14.68
206.068	100.69
206.287	45.4
206.505	80.21
206.724	53.59
206.943	29.01
207.162	26.96
207.381	127.32
207.599	14.68
207.818	8.53
208.037	41.3
208.255	37.2
208.474	74.07
208.693	57.68
208.911	137.56
209.13	18.77
209.349	45.4
209.567	45.4
209.786	67.92
210.005	61.78
210.223	12.63
210.442	-46.76
210.661	63.83
210.879	-22.19
211.098	65.88
211.316	39.25
211.535	59.73
211.753	78.16
211.972	39.25
212.191	24.92
212.409	37.2
212.628	65.88
212.846	-3.75
213.065	78.16
213.283	160.08
213.502	69.97
213.72	-34.47
213.938	12.63
214.157	31.06
214.375	110.93
214.594	24.92
214.812	61.78
215.031	4.44
215.249	53.59
215.467	-7.85
215.686	18.77
215.904	8.53
216.122	69.97
216.341	102.74
216.559	18.77
216.778	61.78
216.996	72.02
217.214	4.44
217.432	-44.71
217.651	-3.75
217.869	61.78
218.087	110.93
218.306	22.87
218.524	22.87
218.742	-11.95
218.96	69.97
219.179	82.26
219.397	69.97
219.615	170.32
219.833	182.61
220.051	96.6
220.27	37.2
220.488	94.55
220.706	8.53
220.924	39.25
221.142	51.54
221.36	16.73
221.578	43.35
221.796	104.79
222.015	90.45
222.233	96.6
222.451	41.3
222.669	20.82
222.887	57.68
223.105	53.59
223.323	86.36
223.541	-28.33
223.759	37.2
223.977	24.92
224.195	102.74
224.413	61.78
224.631	55.64
224.849	51.54
225.067	131.41
225.285	41.3
225.503	39.25
225.721	14.68
225.939	22.87
226.157	53.59
226.375	201.04
226.592	22.87
226.81	51.54
227.028	131.41
227.246	131.41
227.464	6.49
227.682	102.74
227.9	65.88
228.117	49.49
228.335	-3.75
228.553	53.59
228.771	37.2
228.989	69.97
229.206	55.64
229.424	-57
229.642	61.78
229.86	-9.9
230.077	121.17
230.295	135.51
230.513	78.16
230.731	76.12
230.948	96.6
231.166	168.27
231.384	78.16
231.601	55.64
231.819	90.45
232.037	31.06
232.254	43.35
232.472	80.21
232.689	37.2
232.907	155.99
233.125	6.49
233.342	96.6
233.56	-44.71
233.777	37.2
233.995	57.68
234.213	49.49
234.43	90.45
234.648	26.96
234.865	24.92
235.083	65.88
235.3	37.2
235.518	112.98
235.735	145.75
235.953	45.4
236.17	33.11
236.388	45.4
236.605	53.59
236.822	45.4
237.04	6.49
237.257	86.36
237.475	33.11
237.692	67.92
237.909	12.63
238.127	65.88
238.344	61.78
238.562	72.02
238.779	45.4
238.996	-50.86
239.214	14.68
239.431	55.64
239.648	69.97
239.865	96.6
240.083	45.4
240.3	-44.71
240.517	-40.62
240.735	45.4
240.952	4.44
241.169	76.12
241.386	12.63
241.603	55.64
241.821	-3.75
242.038	78.16
242.255	59.73
242.472	61.78
242.689	102.74
242.907	20.82
243.124	12.63
243.341	102.74
243.558	0.34
243.775	-18.09
243.992	-67.24
244.209	47.44
244.426	61.78
244.643	47.44
244.86	47.44
245.078	29.01
245.295	-26.28
245.512	47.44
245.729	45.4
245.946	94.55
246.163	6.49
246.38	74.07
246.597	43.35
246.814	45.4
247.031	-3.75
247.248	37.2
247.464	55.64
247.681	22.87
247.898	14.68
248.115	45.4
248.332	-42.67
248.549	110.93
248.766	55.64
248.983	86.36
249.2	78.16
249.417	86.36
249.633	49.49
249.85	94.55
250.067	10.58
250.284	55.64
250.501	74.07
250.717	102.74
250.934	-20.14
251.151	47.44
251.368	41.3
251.585	31.06
251.801	102.74
252.018	-3.75
252.235	37.2
252.451	37.2
252.668	12.63
252.885	72.02
253.102	22.87
253.318	20.82
253.535	37.2
253.752	69.97
253.968	24.92
254.185	12.63
254.401	14.68
254.618	69.97
254.835	22.87
255.051	37.2
255.268	61.78
255.484	20.82
255.701	39.25
255.917	55.64
256.134	-24.23
256.351	65.88
256.567	14.68
256.784	-1.71
257	20.82
257.217	22.87
257.433	47.44
257.65	90.45
257.866	80.21
258.082	51.54
258.299	-1.71
258.515	151.89
258.732	-28.33
258.948	72.02
259.165	55.64
259.381	65.88
259.597	26.96
259.814	39.25
260.03	86.36
260.246	31.06
260.463	29.01
260.679	55.64
260.895	4.44
261.112	20.82
261.328	74.07
261.544	41.3
261.761	82.26
261.977	16.73
262.193	39.25
262.409	102.74
262.626	84.31
262.842	69.97
263.058	45.4
263.274	104.79
263.49	57.68
263.707	160.08
263.923	39.25
264.139	45.4
264.355	78.16
264.571	78.16
264.787	-24.23
265.004	104.79
265.22	104.79
265.436	16.73
265.652	-1.71
265.868	92.5
266.084	98.64
266.3	45.4
266.516	31.06
266.732	10.58
266.948	41.3
267.164	0.34
267.38	78.16
267.596	31.06
267.812	110.93
268.028	29.01
268.244	29.01
268.46	108.88
268.676	37.2
268.892	78.16
269.108	-77.48
269.324	-20.14
269.54	12.63
269.756	76.12
269.972	61.78
270.188	104.79
270.403	45.4
270.619	69.97
270.835	110.93
271.051	53.59
271.267	-18.09
271.483	41.3
271.698	102.74
271.914	29.01
272.13	69.97
272.346	55.64
272.562	61.78
272.777	33.11
272.993	82.26
273.209	24.92
273.425	49.49
273.64	12.63
273.856	129.36
274.072	29.01
274.287	39.25
274.503	53.59
274.719	57.68
274.934	45.4
275.15	16.73
275.366	72.02
275.581	41.3
275.797	61.78
276.012	98.64
276.228	94.55
276.444	-59.05
276.659	86.36
276.875	49.49
277.09	57.68
277.306	63.83
277.521	80.21
277.737	20.82
277.952	74.07
278.168	29.01
278.383	47.44
278.599	-3.75
278.814	78.16
279.03	29.01
279.245	78.16
279.461	16.73
279.676	65.88
279.892	43.35
280.107	39.25
280.322	12.63
280.538	22.87
280.753	45.4
280.969	78.16
281.184	0.34
281.399	151.89
281.615	-32.43
281.83	55.64
282.045	-32.43
282.26	26.96
282.476	31.06
282.691	90.45
282.906	-9.9
283.122	4.44
283.337	63.83
283.552	139.6
283.767	12.63
283.983	69.97
284.198	143.7
284.413	112.98
284.628	29.01
284.843	29.01
285.058	69.97
285.274	160.08
285.489	-11.95
285.704	22.87
285.919	-40.62
286.134	24.92
286.349	8.53
286.564	6.49
286.779	137.56
286.995	20.82
287.21	-44.71
287.425	69.97
287.64	63.83
287.855	57.68
288.07	41.3
288.285	53.59
288.5	102.74
288.715	98.64
288.93	45.4
289.145	-1.71
289.36	96.6
289.575	65.88
289.79	6.49
290.004	12.63
290.219	102.74
290.434	37.2
290.649	29.01
290.864	37.2
291.079	-3.75
291.294	96.6
291.509	12.63
291.724	53.59
291.938	20.82
292.153	12.63
292.368	88.4
292.583	67.92
292.798	108.88
293.012	90.45
293.227	57.68
293.442	45.4
293.657	53.59
293.871	172.37
294.086	-9.9
294.301	69.97
294.516	16.73
294.73	37.2
294.945	-52.91
295.16	-20.14
295.374	57.68
295.589	129.36
295.804	45.4
296.018	88.4
296.233	115.03
296.447	20.82
296.662	80.21
296.877	96.6
297.091	55.64
297.306	18.77
297.52	74.07
297.735	12.63
297.949	143.7
298.164	6.49
298.378	102.74
298.593	16.73
298.807	-24.23
299.022	72.02
299.236	53.59
299.451	6.49
299.665	88.4
299.88	33.11
300.094	65.88
300.309	86.36
300.523	20.82
300.737	63.83
300.952	10.58
301.166	57.68
301.381	0.34
301.595	51.54
301.809	2.39
302.024	53.59
302.238	65.88
302.452	78.16
302.667	88.4
302.881	137.56
303.095	2.39
303.309	82.26
303.524	61.78
303.738	53.59
303.952	74.07
304.166	20.82
304.381	-18.09
304.595	86.36
304.809	-28.33
305.023	98.64
305.237	45.4
305.452	37.2
305.666	78.16
305.88	49.49
306.094	135.51
306.308	61.78
306.522	72.02
306.736	41.3
306.95	82.26
307.164	4.44
307.379	-18.09
307.593	82.26
307.807	117.08
308.021	47.44
308.235	55.64
308.449	-9.9
308.663	121.17
308.877	137.56
309.091	74.07
309.305	55.64
309.519	-40.62
309.733	55.64
309.947	-36.52
310.161	110.93
310.374	106.84
310.588	112.98
310.802	59.73
311.016	29.01
311.23	76.12
311.444	16.73
311.658	90.45
311.872	63.83
312.085	86.36
312.299	53.59
312.513	94.55
312.727	-1.71
312.941	53.59
313.154	88.4
313.368	-3.75
313.582	78.16
313.796	-18.09
314.009	94.55
314.223	94.55
314.437	49.49
314.651	41.3
314.864	4.44
315.078	104.79
315.292	74.07
315.505	57.68
315.719	61.78
315.933	31.06
316.146	69.97
316.36	-26.28
316.573	78.16
316.787	61.78
317.001	117.08
317.214	6.49
317.428	121.17
317.641	20.82
317.855	86.36
318.068	43.35
318.282	57.68
318.495	94.55
318.709	22.87
318.922	22.87
319.136	110.93
319.349	106.84
319.563	47.44
319.776	49.49
319.99	55.64
320.203	8.53
320.417	78.16
320.63	69.97
320.843	86.36
321.057	22.87
321.27	55.64
321.483	102.74
321.697	94.55
321.91	61.78
322.124	82.26
322.337	33.11
322.55	51.54
322.763	57.68
322.977	37.2
323.19	39.25
323.403	67.92
323.617	90.45
323.83	106.84
324.043	4.44
324.256	90.45
324.469	80.21
324.683	80.21
324.896	78.16
325.109	110.93
325.322	-52.91
325.535	121.17
325.748	110.93
325.962	-11.95
326.175	74.07
326.388	33.11
326.601	51.54
326.814	-26.28
327.027	61.78
327.24	65.88
327.453	-40.62
327.666	45.4
327.879	33.11
328.092	65.88
328.305	106.84
328.518	61.78
328.731	37.2
328.944	57.68
329.157	86.36
329.37	-3.75
329.583	162.13
329.796	47.44
330.009	-20.14
330.222	61.78
330.435	88.4
330.648	47.44
330.861	10.58
331.073	94.55
331.286	84.31
331.499	45.4
331.712	37.2
331.925	29.01
332.138	57.68
332.35	143.7
332.563	-44.71
332.776	61.78
332.989	45.4
333.202	4.44
333.414	55.64
333.627	84.31
333.84	31.06
334.053	57.68
334.265	29.01
334.478	37.2
334.691	153.94
334.903	72.02
335.116	-3.75
335.329	53.59
335.541	108.88
335.754	143.7
335.966	-3.75
336.179	45.4
336.392	55.64
336.604	96.6
336.817	65.88
337.029	-20.14
337.242	43.35
337.454	102.74
337.667	29.01
337.88	69.97
338.092	112.98
338.305	127.32
338.517	18.77
338.729	145.75
338.942	94.55
339.154	-13.99
339.367	31.06
339.579	88.4
339.792	24.92
340.004	4.44
340.217	29.01
340.429	4.44
340.641	20.82
340.854	53.59
341.066	72.02
341.278	65.88
341.491	78.16
341.703	65.88
341.915	41.3
342.128	35.16
342.34	131.41
342.552	45.4
342.764	16.73
342.977	16.73
343.189	86.36
343.401	63.83
343.613	22.87
343.826	61.78
344.038	20.82
344.25	41.3
344.462	-36.52
344.674	121.17
344.886	-44.71
345.099	57.68
345.311	115.03
345.523	86.36
345.735	-26.28
345.947	4.44
346.159	92.5
346.371	72.02
346.583	20.82
346.795	106.84
347.007	26.96
347.219	18.77
347.431	57.68
347.643	155.99
347.855	74.07
348.067	82.26
348.279	-9.9
348.491	0.34
348.703	18.77
348.915	69.97
349.127	29.01
349.339	57.68
349.551	63.83
349.763	112.98
349.975	80.21
350.187	53.59
350.399	119.12
350.61	37.2
350.822	43.35
351.034	151.89
351.246	24.92
351.458	31.06
351.669	57.68
351.881	96.6
352.093	129.36
352.305	74.07
352.517	94.55
352.728	86.36
352.94	37.2
353.152	80.21
353.363	20.82
353.575	102.74
353.787	78.16
353.999	72.02
354.21	143.7
354.422	65.88
354.633	24.92
354.845	63.83
355.057	88.4
355.268	63.83
355.48	137.56
355.692	63.83
355.903	55.64
356.115	72.02
356.326	-1.71
356.538	39.25
356.749	63.83
356.961	123.22
357.172	78.16
357.384	29.01
357.595	137.56
357.807	8.53
358.018	45.4
358.23	-20.14
358.441	129.36
358.653	22.87
358.864	86.36
359.075	45.4
359.287	16.73
359.498	47.44
359.709	47.44
359.921	53.59
360.132	4.44
360.344	86.36
360.555	4.44
360.766	147.8
360.977	110.93
361.189	94.55
361.4	6.49
361.611	90.45
361.823	121.17
362.034	102.74
362.245	45.4
362.456	69.97
362.667	37.2
362.879	45.4
363.09	74.07
363.301	6.49
363.512	-1.71
363.723	14.68
363.935	24.92
364.146	69.97
364.357	53.59
364.568	49.49
364.779	78.16
364.99	135.51
365.201	102.74
365.412	63.83
365.623	-11.95
365.834	65.88
366.045	53.59
366.256	135.51
366.467	53.59
366.678	69.97
366.889	24.92
367.1	106.84
367.311	106.84
367.522	4.44
367.733	86.36
367.944	80.21
368.155	31.06
368.366	112.98
368.577	35.16
368.788	143.7
368.999	51.54
369.209	80.21
369.42	112.98
369.631	102.74
369.842	102.74
370.053	47.44
370.264	86.36
370.474	55.64
370.685	82.26
370.896	37.2
371.107	51.54
371.317	82.26
371.528	47.44
371.739	112.98
371.95	47.44
372.16	20.82
372.371	90.45
372.582	55.64
372.792	69.97
373.003	80.21
373.214	94.55
373.424	53.59
373.635	45.4
373.846	94.55
374.056	72.02
374.267	119.12
374.477	127.32
374.688	16.73
374.898	6.49
375.109	-24.23
375.319	-3.75
375.53	80.21
375.74	29.01
375.951	-32.43
376.161	65.88
376.372	112.98
376.582	22.87
376.793	57.68
377.003	49.49
377.214	53.59
377.424	72.02
377.635	53.59
377.845	29.01
378.055	35.16
378.266	37.2
378.476	20.82
378.686	37.2
378.897	86.36
379.107	88.4
379.317	84.31
379.528	96.6
379.738	76.12
379.948	61.78
380.158	49.49
380.369	4.44
380.579	51.54
380.789	16.73
380.999	131.41
381.21	76.12
381.42	151.89
381.63	-9.9
381.84	82.26
382.05	65.88
382.261	94.55
382.471	127.32
382.681	45.4
382.891	123.22
383.101	112.98
383.311	45.4
383.521	39.25
383.731	63.83
383.941	119.12
384.151	65.88
384.361	63.83
384.571	65.88
384.781	69.97
384.991	168.27
385.201	127.32
385.411	31.06
385.621	127.32
385.831	45.4
386.041	102.74
386.251	45.4
386.461	110.93
386.671	82.26
386.881	41.3
387.091	-3.75
387.301	104.79
387.511	76.12
387.72	45.4
387.93	43.35
388.14	14.68
388.35	29.01
388.56	100.69
388.769	88.4
388.979	80.21
389.189	78.16
389.399	78.16
389.609	123.22
389.818	53.59
390.028	6.49
390.238	41.3
390.447	45.4
390.657	86.36
390.867	78.16
391.076	-24.23
391.286	65.88
391.496	47.44
391.705	86.36
391.915	139.6
392.125	90.45
392.334	88.4
392.544	151.89
392.753	14.68
392.963	39.25
393.172	78.16
393.382	123.22
393.591	151.89
393.801	53.59
394.01	63.83
394.22	151.89
394.429	84.31
394.639	63.83
394.848	123.22
395.058	22.87
395.267	-16.04
395.477	98.64
395.686	88.4
395.895	121.17
396.105	178.51
396.314	94.55
396.524	94.55
396.733	145.75
396.942	186.71
397.152	153.94
397.361	115.03
397.57	160.08
397.78	131.41
397.989	121.17
398.198	201.04
398.407	94.55
398.617	86.36
398.826	104.79
399.035	104.79
399.244	145.75
399.453	143.7
399.663	110.93
399.872	110.93
400.081	65.88
400.29	201.04
400.499	127.32
400.708	119.12
400.917	90.45
401.127	139.6
401.336	72.02
401.545	80.21
401.754	201.04
401.963	102.74
402.172	112.98
402.381	90.45
402.59	72.02
402.799	115.03
403.008	178.51
403.217	82.26
403.426	176.47
403.635	53.59
403.844	129.36
404.053	88.4
404.262	147.8
404.471	233.81
404.68	182.61
404.888	129.36
405.097	137.56
405.306	217.43
405.515	170.32
405.724	168.27
405.933	186.71
406.142	178.51
406.35	209.23
406.559	178.51
406.768	188.75
406.977	266.58
407.185	213.33
407.394	209.23
407.603	184.66
407.812	194.9
408.02	229.71
408.229	315.73
408.438	227.67
408.646	332.11
408.855	323.92
409.064	262.48
409.272	278.87
409.481	289.1
409.69	291.15
409.898	242
410.107	325.97
410.315	315.73
410.524	291.15
410.733	393.55
410.941	366.93
411.15	414.03
411.358	440.65
411.567	418.13
411.775	450.89
411.984	524.62
412.192	514.38
412.401	475.47
412.609	504.14
412.818	467.28
413.026	541.01
413.234	553.29
413.443	643.4
413.651	534.86
413.86	665.93
414.068	645.45
414.276	688.46
414.485	667.98
414.693	688.46
414.901	651.6
415.11	790.86
415.318	733.51
415.526	694.6
415.734	768.33
415.943	753.99
416.151	899.4
416.359	768.33
416.567	854.34
416.776	932.17
416.984	1044.81
417.192	1098.05
417.4	1034.57
417.608	971.08
417.817	1061.19
418.025	1034.57
418.233	1253.7
418.441	1143.11
418.649	1204.55
418.857	1347.9
419.065	1429.82
419.273	1274.18
419.481	1323.33
419.689	1448.26
419.897	1511.74
420.105	1636.67
420.313	1622.33
420.521	1743.16
420.729	1732.92
420.937	1636.67
421.145	1724.73
421.353	1921.34
421.561	2089.27
421.769	2038.07
421.977	2079.03
422.185	2113.85
422.393	2216.24
422.601	2390.32
422.809	2412.85
423.017	2455.86
423.224	2478.38
423.432	2681.13
423.64	2679.08
423.848	2896.17
424.056	2754.86
424.263	2894.12
424.471	2900.27
424.679	2906.41
424.887	3037.48
425.094	3143.97
425.302	3289.38
425.51	3447.07
425.718	3490.08
425.925	3539.23
426.133	3545.38
426.341	3932.44
426.548	4030.74
426.756	4100.37
426.964	4180.25
427.171	4380.95
427.379	4350.23
427.586	4522.26
427.794	4501.78
428.001	4788.49
428.209	4985.1
428.417	4837.64
428.624	5329.16
428.832	5306.63
429.039	5204.23
429.247	5357.83
429.454	5767.42
429.662	6035.71
429.869	5820.67
430.076	5992.7
430.284	5828.86
430.491	6158.58
430.699	6527.22
430.906	6500.59
431.114	6654.19
431.321	6834.41
431.528	7016.68
431.736	7321.83
431.943	7639.26
432.15	7512.29
432.358	7446.76
432.565	8007.9
432.772	8036.57
432.979	8382.68
433.187	8607.95
433.394	8425.68
433.601	9093.32
433.808	9230.54
434.016	9138.38
434.223	9240.78
434.43	9865.41
434.637	10033.34
434.844	10475.7
435.052	10614.96
435.259	10492.09
435.466	10729.65
435.673	10539.19
435.88	11321.51
436.087	11786.4
436.294	11681.96
436.501	11325.61
436.708	11659.43
436.915	12103.84
437.122	12656.79
437.329	12603.54
437.537	13039.76
437.743	13271.18
437.95	13070.48
438.157	13756.55
438.364	14006.4
438.571	14284.92
438.778	14174.33
438.985	15360.11
439.192	14936.18
439.399	15499.37
439.606	15061.1
439.813	15825
440.02	16722.01
440.227	16578.65
440.433	16414.81
440.64	16943.19
440.847	17031.25
441.054	17473.61
441.261	18606.14
441.467	18122.82
441.674	18575.42
441.881	19286.06
442.088	19152.95
442.294	18993.2
442.501	19456.04
442.708	19968.04
442.914	20461.6
443.121	21303.31
443.328	20836.38
443.534	22216.71
443.741	21592.08
443.948	21424.14
444.154	23158.77
444.361	22904.82
444.568	23019.51
444.774	22824.95
444.981	23310.32
445.187	23707.63
445.394	24748
445.6	24473.57
445.807	26728.38
446.013	25923.53
446.22	26036.17
446.426	27223.99
446.633	27862.96
446.839	28735.39
447.046	27135.93
447.252	28657.57
447.459	28948.38
447.665	28669.86
447.871	29802.38
448.078	31158.14
448.284	29613.97
448.491	30617.47
448.697	31813.49
448.903	32345.96
449.11	32069.48
449.316	31823.73
449.522	32137.07
449.728	33249.11
449.935	33402.71
450.141	33363.8
450.347	34105.16
450.553	33187.67
450.76	33490.77
450.966	34555.72
451.172	33906.51
451.378	35221.31
451.584	34221.9
451.791	34950.98
451.997	35712.82
452.203	35911.47
452.409	35909.43
452.615	35198.78
452.821	33916.75
453.027	33621.84
453.233	35890.99
453.44	33984.33
453.646	34455.37
453.852	34883.39
454.058	35333.95
454.264	34248.52
454.47	34971.46
454.676	34017.1
454.882	35151.68
455.088	32368.49
455.294	32497.51
455.5	32814.94
455.705	33294.17
455.911	31905.65
456.117	31381.37
456.323	31287.16
456.529	29038.49
456.735	30711.68
456.941	29732.75
457.147	29349.78
457.352	28475.3
457.558	28200.87
457.764	28125.1
457.97	27475.89
458.176	26597.31
458.381	26550.21
458.587	25403.35
458.793	25468.88
458.999	24311.78
459.204	25800.65
459.41	25350.1
459.616	23443.44
459.821	23363.57
460.027	23445.49
460.233	23015.41
460.438	21614.6
460.644	22011.91
460.85	20887.57
461.055	20922.39
461.261	20688.92
461.466	19048.5
461.672	18509.88
461.878	19849.25
462.083	18409.53
462.289	17928.26
462.494	18028.61
462.7	17229.9
462.905	16648.28
463.111	16975.95
463.316	17289.29
463.522	17051.73
463.727	16765.01
463.932	16842.84
464.138	16582.74
464.343	16621.66
464.549	16175.2
464.754	16846.93
464.959	16615.51
465.165	16150.62
465.37	15513.7
465.575	15120.49
465.781	15906.91
465.986	15872.1
466.191	15433.83
466.397	15118.45
466.602	14489.72
466.807	15143.02
467.012	15138.93
467.218	14631.03
467.423	14483.58
467.628	14682.23
467.833	15204.46
468.038	14399.61
468.244	14334.07
468.449	14727.28
468.654	14278.78
468.859	13930.62
469.064	14160
469.269	13668.48
469.474	13774.98
469.679	13875.33
469.885	13525.13
470.09	13713.54
470.295	13654.15
470.5	13123.73
470.705	13596.81
470.91	13035.66
471.115	12994.7
471.32	12931.22
471.525	13201.55
471.73	12890.26
471.935	12775.57
472.139	12277.91
472.344	12386.46
472.549	12269.72
472.754	12257.43
472.959	11958.43
473.164	11712.67
473.369	11509.93
473.574	11743.39
473.778	11739.3
473.983	11745.44
474.188	11720.87
474.393	11253.93
474.598	11118.76
474.802	11100.33
475.007	10961.07
475.212	10981.55
475.417	10531
475.621	10322.1
475.826	10629.3
476.031	10414.26
476.235	10201.27
476.44	10367.16
476.645	10354.87
476.849	10019
477.054	9930.94
477.259	9908.41
477.463	9980.09
477.668	9568.45
477.872	9676.99
478.077	9496.77
478.282	9392.33
478.486	9246.92
478.691	9167.05
478.895	9300.17
479.1	9109.71
479.304	9165
479.509	8657.11
479.713	8814.8
479.918	8763.6
480.122	8669.39
480.326	8886.48
480.531	8915.15
480.735	8790.22
480.94	8571.09
481.144	8816.85
481.348	8386.77
481.553	8601.81
481.757	8181.98
481.961	8532.18
482.166	8509.65
482.37	8638.67
482.574	8102.11
482.778	8245.46
482.983	8610
483.187	8507.6
483.391	8558.8
483.595	8503.51
483.8	8333.53
484.004	8366.29
484.208	8542.42
484.412	8542.42
484.616	8517.84
484.821	8569.04
485.025	8237.27
485.229	8431.83
485.433	8286.42
485.637	8354.01
485.841	8419.54
486.045	8433.88
486.249	8499.41
486.453	8229.08
486.657	8319.19
486.861	8321.24
487.065	7991.52
487.269	8448.21
487.473	8317.14
487.677	8335.57
487.881	8388.82
488.085	8302.81
488.289	8218.84
488.493	8159.45
488.697	8411.35
488.901	8308.95
489.105	8282.33
489.309	8311
489.512	8327.38
489.716	8327.38
489.92	8513.75
490.124	8360.15
490.328	8370.39
490.531	8429.78
490.735	8499.41
490.939	8589.52
491.143	8390.87
491.346	8311
491.55	8511.7
491.754	8429.78
491.958	8687.82
492.161	8589.52
492.365	8517.84
492.569	8532.18
492.772	8612.05
492.976	8628.43
493.18	8739.02
493.383	8736.98
493.587	8859.85
493.79	8984.78
493.994	8886.48
494.197	8960.2
494.401	9025.74
494.605	8923.34
494.808	9224.39
495.012	9072.84
495.215	9359.56
495.419	9136.33
495.622	9189.58
495.825	9402.57
496.029	9291.98
496.232	9515.2
496.436	9494.72
496.639	9760.96
496.843	9550.02
497.046	9887.93
497.249	9803.97
497.453	10023.1
497.656	10012.86
497.859	9879.74
498.063	10350.78
498.266	10422.45
498.469	10203.32
498.673	10408.12
498.876	10467.51
499.079	10641.59
499.282	10621.11
499.485	10993.84
499.689	10922.16
499.892	11071.66
500.095	11059.37
500.298	11184.3
500.501	11215.02
500.705	11409.58
500.908	11546.79
501.111	11849.89
501.314	11753.63
501.517	11810.98
501.72	12085.4
501.923	11919.52
502.126	12155.04
502.329	12581.01
502.532	12486.81
502.735	12681.36
502.938	12658.84
503.141	12705.94
503.344	13058.19
503.547	12933.26
503.75	13160.59
503.953	13291.66
504.156	13566.09
504.359	13512.84
504.562	13592.71
504.765	13742.21
504.968	14162.05
505.17	14203
505.373	14241.92
505.576	14403.71
505.779	14667.89
505.982	14682.23
506.185	15001.71
506.387	15130.73
506.59	15132.78
506.793	15380.59
506.996	15511.66
507.198	15689.83
507.401	15609.96
507.604	15855.72
507.807	16179.29
508.009	16097.38
508.212	16326.75
508.415	16650.33
508.617	16609.37
508.82	16914.52
509.022	16775.25
509.225	17166.42
509.428	17354.83
509.63	17410.12
509.833	17612.87
510.035	17889.35
510.238	17752.13
510.44	18108.48
510.643	18257.98
510.845	18452.54
511.048	18405.44
511.25	18995.25
511.453	18784.31
511.655	19587.11
511.858	19224.62
512.06	19550.25
512.262	19685.42
512.465	19636.27
512.667	19972.13
512.87	20512.8
513.072	20183.07
513.274	20492.32
513.477	20985.88
513.679	20789.27
513.881	21280.78
514.084	21432.33
514.286	21532.68
514.488	21327.89
514.69	21960.71
514.893	21907.46
515.095	22120.45
515.297	22437.89
515.499	22528
515.701	22845.43
515.904	22992.89
516.106	22982.65
516.308	23287.79
516.51	23603.18
516.712	23384.05
516.914	23746.54
517.116	24143.84
517.318	24195.04
517.52	24580.06
517.722	24219.62
517.925	24799.19
518.127	24768.48
518.329	24950.74
518.531	25024.47
518.733	25456.59
518.935	25671.63
519.136	25671.63
519.338	25862.09
519.54	26173.38
519.742	26288.07
519.944	26279.88
520.146	26843.07
520.348	27062.2
520.55	26933.18
520.752	26779.58
520.954	27676.59
521.155	27533.23
521.357	27498.42
521.559	27885.48
521.761	28094.38
521.963	28053.42
522.164	28071.85
522.366	27985.83
522.568	27985.83
522.77	28479.39
522.971	28948.38
523.173	28565.41
523.375	29003.67
523.576	28659.62
523.778	28796.83
523.98	29548.43
524.181	29478.8
524.383	29312.92
524.584	29685.65
524.786	29804.43
524.988	29484.95
525.189	29794.19
525.391	29822.86
525.592	29697.94
525.794	29853.58
525.995	30009.23
526.197	29824.91
526.398	29845.39
526.6	29915.02
526.801	30279.56
527.003	30234.5
527.204	30136.2
527.406	30517.12
527.607	30310.28
527.808	30545.8
528.01	30140.3
528.211	30025.61
528.412	30908.29
528.614	30388.1
528.815	30484.36
529.016	30771.07
529.218	30033.8
529.419	30769.02
529.62	30316.42
529.822	30312.33
530.023	30504.84
530.224	30418.82
530.425	30525.32
530.626	30703.49
530.828	30175.11
531.029	30830.46
531.23	30590.85
531.431	30240.65
531.632	30148.49
531.833	30205.83
532.035	30263.18
532.236	30154.63
532.437	30373.77
532.638	29841.29
532.839	30254.98
533.04	30308.23
533.241	30109.58
533.442	30341
533.643	30158.73
533.844	30123.91
534.045	30228.36
534.246	29818.77
534.447	30410.63
534.648	29923.21
534.849	29949.84
535.05	29867.92
535.251	29742.99
535.451	29970.32
535.652	29710.22
535.853	29521.81
536.054	30021.52
536.255	29640.59
536.456	29378.45
536.657	29843.34
536.857	29497.24
537.058	29552.53
537.259	29835.15
537.46	29656.98
537.66	29214.62
537.861	29333.4
538.062	29591.44
538.263	29564.82
538.463	29024.15
538.664	29609.87
538.865	29487
539.065	29663.12
539.266	29048.73
539.466	29728.66
539.667	29454.23
539.868	29509.52
540.068	29220.76
540.269	29099.93
540.469	29159.32
540.67	28837.79
540.87	29112.22
541.071	29038.49
541.271	29222.81
541.472	29192.09
541.672	29155.22
541.873	28780.45
542.073	28596.13
542.274	28876.7
542.474	29108.12
542.675	28546.98
542.875	29122.46
543.075	28880.8
543.276	28581.79
543.476	28938.14
543.676	29026.2
543.877	28999.58
544.077	28854.17
544.277	28645.28
544.478	28628.9
544.678	28788.64
544.878	28917.66
545.078	28751.77
545.279	28092.33
545.479	28489.63
545.679	28958.62
545.879	28630.94
546.079	28811.17
546.28	28577.7
546.48	28479.39
546.68	28557.22
546.88	28477.35
547.08	28575.65
547.28	28632.99
547.48	28620.7
547.68	28637.09
547.88	28831.65
548.081	29091.74
548.281	28551.07
548.481	28835.74
548.681	29013.91
548.881	28921.76
549.081	28671.9
549.28	28723.1
549.48	29018.01
549.68	28792.73
549.88	28796.83
550.08	28538.79
550.28	28858.27
550.48	28907.42
550.68	29034.39
550.88	28411.81
551.08	28546.98
551.279	28719.01
551.479	28620.7
551.679	29183.9
551.879	28919.71
552.079	28829.6
552.278	28671.9
552.478	28909.47
552.678	29097.88
552.878	29220.76
553.077	28946.33
553.277	28753.82
553.477	29341.59
553.676	28852.13
553.876	29087.64
554.076	28805.02
554.275	28952.48
554.475	28891.04
554.674	28934.04
554.874	29175.7
555.074	28970.91
555.273	28989.34
555.473	29149.08
555.672	28745.63
555.872	28966.81
556.071	29108.12
556.271	29001.63
556.47	28764.06
556.67	28884.89
556.869	29386.64
557.068	29431.7
557.268	28958.62
557.467	29149.08
557.667	29159.32
557.866	28993.43
558.065	29345.69
558.265	28950.43
558.464	28948.38
558.663	29661.07
558.863	28850.08
559.062	29575.06
559.261	29087.64
559.461	29345.69
559.66	28727.2
559.859	29058.97
560.058	28694.43
560.258	29085.59
560.457	28946.33
560.656	29380.5
560.855	29048.73
561.054	29267.86
561.253	29020.06
561.453	29300.63
561.652	29296.53
561.851	29095.83
562.05	28919.71
562.249	29067.16
562.448	29278.1
562.647	29063.07
562.846	29048.73
563.045	29085.59
563.244	28723.1
563.443	29665.17
563.642	29018.01
563.841	28835.74
564.04	28766.11
564.239	29091.74
564.438	28542.88
564.637	28688.29
564.836	29011.87
565.035	28757.92
565.234	28888.99
565.432	28708.77
565.631	28575.65
565.83	28919.71
566.029	28753.82
566.228	28653.47
566.427	28731.29
566.625	28612.51
566.824	28043.18
567.023	28690.34
567.222	28104.62
567.42	28618.66
567.619	28125.1
567.818	28043.18
568.016	28282.79
568.215	28395.43
568.414	28239.78
568.612	28305.32
568.811	27975.59
569.01	28112.81
569.208	27965.35
569.407	28084.14
569.605	27899.82
569.804	27912.11
570.002	27545.52
570.201	27498.42
570.4	27723.69
570.598	27428.79
570.797	27056.06
570.995	27643.82
571.193	27092.92
571.392	27584.43
571.59	27070.39
571.789	27473.84
571.987	27084.73
572.186	26974.14
572.384	26955.71
572.582	27119.54
572.781	26881.98
572.979	26558.4
573.177	26853.31
573.376	26550.21
573.574	26443.71
573.772	26560.45
573.971	26548.16
574.169	26277.83
574.367	26210.25
574.565	26374.08
574.763	26116.04
574.962	26161.09
575.16	25624.53
575.358	26017.74
575.556	25731.02
575.754	26410.95
575.952	25626.57
576.151	26107.85
576.349	25544.66
576.547	25458.64
576.745	25380.82
576.943	25475.02
577.141	25382.87
577.339	25587.66
577.537	25231.32
577.735	25079.77
577.933	24795.1
578.131	25014.23
578.329	24840.15
578.527	25034.71
578.725	24838.11
578.923	24764.38
579.121	24596.45
579.319	24647.65
579.516	24664.03
579.714	24713.18
579.912	24465.38
580.11	24522.72
580.308	24676.32
580.506	24170.47
580.704	23959.53
580.901	24324.07
581.099	24508.38
581.297	24106.98
581.495	23934.95
581.692	24047.59
581.89	23869.42
582.088	23967.72
582.285	23310.32
582.483	23662.57
582.681	23756.78
582.878	23627.76
583.076	23748.59
583.274	23769.07
583.471	23021.56
583.669	23681
583.866	22792.19
584.064	23224.31
584.262	22777.85
584.459	23418.86
584.657	23017.46
584.854	23259.12
585.052	22763.51
585.249	23169.01
585.447	22839.29
585.644	22466.56
585.841	22835.19
586.039	22765.56
586.236	22931.45
586.434	22544.38
586.631	22196.23
586.828	22628.35
587.026	22577.15
587.223	22511.61
587.42	22378.5
587.618	22532.09
587.815	21993.48
588.012	21938.18
588.21	22026.25
588.407	22292.48
588.604	22243.33
588.801	21706.76
588.999	21776.39
589.196	21901.32
589.393	22001.67
589.59	21782.54
589.787	21661.71
589.984	21497.87
590.182	21745.67
590.379	21899.27
590.576	21487.63
590.773	21841.93
590.97	21485.58
591.167	21497.87
591.364	21340.18
591.561	21516.3
591.758	21102.61
591.955	21329.94
592.152	21227.54
592.349	21426.19
592.546	21628.94
592.743	21233.68
592.94	20949.01
593.137	20981.78
593.334	21225.49
593.531	20996.12
593.727	21112.85
593.924	21084.18
594.121	20768.79
594.318	21188.63
594.515	20582.43
594.712	21008.4
594.908	20817.94
595.105	21176.34
595.302	20942.87
595.499	20824.09
595.696	20989.97
595.892	20664.35
596.089	21061.65
596.286	20920.34
596.482	20858.9
596.679	20705.31
596.876	20785.18
597.072	20582.43
597.269	20641.82
597.466	20662.3
597.662	20518.94
597.859	20404.25
598.055	20809.75
598.252	20746.26
598.448	20801.56
598.645	20549.66
598.841	20480.03
599.038	20254.75
599.234	20758.55
599.431	20432.93
599.627	20582.43
599.824	20529.18
600.02	20496.41
600.217	20420.64
600.413	20672.54
600.609	20426.78
600.806	20508.7
601.002	20502.56
601.198	20686.87
601.395	20496.41
601.591	20631.58
601.787	20805.66
601.984	20690.97
602.18	20709.4
602.376	20629.53
602.572	20772.89
602.769	20717.59
602.965	20635.67
603.161	20506.65
603.357	20492.32
603.553	20690.97
603.75	20893.72
603.946	20934.68
604.142	20844.57
604.338	20885.53
604.534	21227.54
604.73	20942.87
604.926	20807.7
605.122	20877.33
605.318	20756.5
605.514	20824.09
605.71	20983.83
605.906	20883.48
606.102	21043.22
606.298	21110.8
606.494	21260.3
606.69	21497.87
606.886	21583.88
607.082	21106.71
607.278	21372.94
607.474	21225.49
607.67	21577.74
607.866	21065.75
608.062	21479.44
608.257	21295.12
608.453	21739.53
608.649	21694.47
608.845	21409.81
609.041	21536.78
609.236	21809.16
609.432	21383.18
609.628	21962.76
609.824	21809.16
610.019	21649.42
610.215	21714.95
610.411	22022.15
610.606	22020.1
610.802	22089.73
610.998	21870.6
611.193	22056.96
611.389	21934.09
611.584	22122.5
611.78	22272
611.976	22161.41
612.171	22294.53
612.367	22302.72
612.562	21954.57
612.758	21915.65
612.953	21915.65
613.149	22278.15
613.344	22034.44
613.539	22269.95
613.735	22261.76
613.93	22439.93
614.126	22302.72
614.321	22673.4
614.517	22771.71
614.712	22411.26
614.907	22358.02
615.103	22777.85
615.298	22114.31
615.493	22634.49
615.688	22321.15
615.884	22700.03
616.079	22142.98
616.274	22630.4
616.47	22489.09
616.665	22638.59
616.86	22607.87
617.055	22630.4
617.25	22626.3
617.445	22740.99
617.641	22355.97
617.836	22706.17
618.031	22439.93
618.226	22650.88
618.421	22415.36
618.616	22693.88
618.811	22034.44
619.006	22620.16
619.201	21940.23
619.396	22452.22
619.591	22196.23
619.786	22120.45
619.981	21817.35
620.176	22210.56
620.371	21669.9
620.566	21688.33
620.761	21563.4
620.956	21929.99
621.151	21684.23
621.346	21809.16
621.541	21229.59
621.735	21856.26
621.93	21270.54
622.125	21356.56
622.32	21182.48
622.515	21385.23
622.709	21346.32
622.904	21297.17
623.099	20748.31
623.294	21032.98
623.488	20762.65
623.683	21086.23
623.878	20564
624.072	20721.69
624.267	20643.87
624.462	20418.59
624.656	20387.87
624.851	20400.16
625.046	20148.26
625.24	20111.39
625.435	19847.21
625.629	19884.07
625.824	19634.22
626.018	19857.45
626.213	19015.73
626.407	19492.91
626.602	19206.19
626.796	19392.56
626.991	19423.28
627.185	19171.38
627.38	18726.97
627.574	18806.84
627.768	18886.71
627.963	18849.85
628.157	18739.26
628.352	18749.5
628.546	18722.87
628.74	18708.54
628.935	18374.72
629.129	18458.68
629.323	18192.45
629.517	18384.96
629.712	17920.07
629.906	18262.08
630.1	17829.96
630.294	17854.53
630.489	17991.75
630.683	17811.53
630.877	17604.68
631.071	17553.48
631.265	17666.12
631.459	17438.8
631.653	17477.71
631.848	17477.71
632.042	17125.46
632.236	17281.1
632.43	16783.45
632.624	16957.52
632.818	16961.62
633.012	16781.4
633.206	16722.01
633.4	16638.04
633.594	16449.63
633.788	16502.87
633.982	16482.39
634.176	16451.67
634.369	16085.09
634.563	16177.25
634.757	16058.46
634.951	16164.96
635.145	15806.56
635.339	15906.91
635.533	15315.05
635.726	15595.62
635.92	15618.15
636.114	15564.9
636.308	15222.89
636.501	15435.88
636.695	15313
636.889	15073.39
637.083	15235.18
637.276	14784.63
637.47	14758
637.664	14925.94
637.857	14565.5
638.051	14686.33
638.244	14356.6
638.438	14606.45
638.632	14299.26
638.825	14309.5
639.019	14198.91
639.212	14102.65
639.406	14053.5
639.599	14078.08
639.793	13840.51
639.986	13623.43
640.18	13779.08
640.373	13787.27
640.567	13441.16
640.76	13514.89
640.954	13318.28
641.147	13590.66
641.34	13023.37
641.534	13295.75
641.727	13230.22
641.92	12943.5
642.114	12941.46
642.307	12908.69
642.5	12914.83
642.694	12632.21
642.887	12476.57
643.08	12757.14
643.273	12687.51
643.467	12415.13
643.66	12222.62
643.853	12312.73
644.046	12048.54
644.239	12112.03
644.432	11806.88
644.626	11856.03
644.819	11948.19
645.012	11923.62
645.205	11755.68
645.398	11776.16
645.591	11423.91
645.784	11690.15
645.977	11210.92
646.17	11442.34
646.363	11403.43
646.556	11139.24
646.749	11264.17
646.942	11382.95
647.135	11071.66
647.328	11073.71
647.521	10907.82
647.714	10870.96
647.907	10825.9
648.099	10737.84
648.292	10774.7
648.485	10485.94
648.678	10582.2
648.871	10586.29
649.064	10442.93
649.256	10553.52
649.449	10320.06
649.642	10326.2
649.835	10043.58
650.027	10143.93
650.22	10182.84
650.413	10047.68
650.605	10082.49
650.798	9976
650.991	9601.22
651.183	9846.98
651.376	9662.66
651.568	9826.5
651.761	9683.14
651.954	9521.35
652.146	9605.31
652.339	9527.49
652.531	9652.42
652.724	9478.34
652.916	9236.68
653.109	9347.27
653.301	9320.65
653.494	9068.75
653.686	9124.04
653.879	8999.12
654.071	9007.31
654.263	9038.03
654.456	9109.71
654.648	9081.03
654.84	8831.18
655.033	8712.4
655.225	8657.11
655.417	8736.98
655.61	8663.25
655.802	8655.06
655.994	8591.57
656.186	8673.49
656.379	8380.63
656.571	8354.01
656.763	8392.92
656.955	8345.81
657.148	8401.11
657.34	8059.1
657.532	8077.53
657.724	8081.63
657.916	8126.68
658.108	8202.46
658.3	8108.25
658.492	8028.38
658.684	7876.83
658.876	7719.14
659.068	7987.42
659.26	7833.82
659.452	7919.84
659.644	7758.05
659.836	7780.57
660.028	7747.81
660.22	7442.66
660.412	7450.85
660.604	7514.34
660.796	7534.82
660.988	7598.31
661.18	7315.69
661.372	7198.95
661.563	7364.84
661.755	7244.01
661.947	7266.53
662.139	7172.33
662.331	7262.44
662.522	6963.44
662.714	6988.01
662.906	6977.77
663.097	6922.48
663.289	6852.84
663.481	6926.57
663.673	6822.13
663.864	6758.64
664.056	6885.61
664.247	6648.05
664.439	6775.02
664.631	6660.34
664.822	6621.42
665.014	6576.37
665.205	6492.4
665.397	6648.05
665.588	6478.07
665.78	6467.83
665.971	6310.13
666.163	6426.87
666.354	6392.05
666.546	6363.38
666.737	6238.45
666.929	6279.41
667.12	6324.47
667.311	6265.08
667.503	5994.75
667.694	6134.01
667.885	6041.85
668.077	6269.17
668.268	5910.78
668.459	6035.71
668.651	6000.89
668.842	5853.44
669.033	5824.76
669.224	5886.2
669.416	5861.63
669.607	5812.48
669.798	5783.81
669.989	5857.53
670.18	5757.18
670.371	5730.56
670.563	5765.37
670.754	5759.23
670.945	5605.63
671.136	5533.95
671.327	5533.95
671.518	5603.58
671.709	5587.2
671.9	5775.61
672.091	5495.04
672.282	5617.92
672.473	5345.54
672.664	5509.38
672.855	5568.77
673.046	5480.71
673.237	5429.51
673.428	5411.07
673.619	5462.27
673.809	5402.88
674	5273.86
674.191	5460.23
674.382	5189.89
674.573	5265.67
674.764	5284.1
674.954	5304.58
675.145	5320.96
675.336	5437.7
675.527	5390.6
675.717	5261.57
675.908	5218.57
676.099	5191.94
676.289	5257.48
676.48	5091.59
676.671	5187.85
676.861	5153.03
677.052	5116.17
677.243	5107.98
677.433	4978.95
677.624	5062.92
677.814	5038.34
678.005	5058.82
678.195	5159.17
678.386	5175.56
678.576	4972.81
678.767	5083.4
678.957	5191.94
679.148	5038.34
679.338	5148.93
679.529	5032.2
679.719	5054.73
679.909	5099.78
680.1	5054.73
680.29	5009.67
680.481	4923.66
680.671	4892.94
680.861	4952.33
681.052	4948.23
681.242	4858.12
681.432	4866.32
681.622	4894.99
681.813	4972.81
682.003	4886.79
682.193	4948.23
682.383	4923.66
682.573	4894.99
682.764	4946.19
682.954	4847.88
683.144	4839.69
683.334	4870.41
683.524	4913.42
683.714	4806.92
683.904	4911.37
684.094	4989.19
684.284	4897.03
684.474	4866.32
684.664	4960.52
684.854	4968.71
685.044	4868.36
685.234	4849.93
685.424	4923.66
685.614	4954.38
685.804	4755.72
685.994	4772.11
686.184	4714.77
686.374	4716.81
686.564	4643.09
686.753	4813.07
686.943	4575.5
687.133	4512.02
687.323	4763.92
687.513	4624.65
687.702	4632.85
687.892	4514.06
688.082	4655.37
688.272	4686.09
688.461	4708.62
688.651	4772.11
688.841	4632.85
689.03	4591.89
689.22	4512.02
689.41	4528.4
689.599	4407.57
689.789	4559.12
689.979	4636.94
690.168	4550.93
690.358	4546.83
690.547	4491.54
690.737	4479.25
690.926	4505.87
691.116	4329.75
691.305	4462.87
691.495	4354.32
691.684	4413.71
691.874	4444.43
692.063	4391.19
692.252	4274.45
692.442	4403.47
692.631	4174.1
692.82	4325.65
693.01	4118.81
693.199	4198.68
693.388	4186.39
693.578	4198.68
693.767	4421.91
693.956	4368.66
694.146	4292.88
694.335	4200.73
694.524	4278.55
694.713	4462.87
694.902	4135.19
695.092	4239.64
695.281	4116.76
695.47	4118.81
695.659	4182.29
695.848	4088.09
696.037	4157.72
696.226	4141.33
696.415	4104.47
696.604	4159.77
696.793	4327.7
696.982	4108.57
697.171	4110.61
697.36	4083.99
697.549	4157.72
697.738	3993.88
697.927	4061.46
698.116	4061.46
698.305	4014.36
698.494	4182.29
698.683	4014.36
698.872	3971.35
699.061	4108.57
699.25	3997.98
699.438	4010.26
699.627	4061.46
699.816	4159.77
700.005	4032.79
700.193	4063.51
700.382	4059.42
700.571	3911.96
700.76	3871
700.948	3930.39
701.137	3987.74
701.326	3946.78
701.514	3840.28
701.703	3827.99
701.892	3875.1
702.08	3922.2
702.269	3911.96
702.457	3756.32
702.646	3748.12
702.834	3969.3
703.023	3920.15
703.212	3946.78
703.4	3682.59
703.589	3780.89
703.777	3842.33
703.965	3789.08
704.154	3717.4
704.342	3832.09
704.531	3649.82
704.719	3825.95
704.907	3768.6
705.096	3690.78
705.284	3612.96
705.472	3610.91
705.661	3674.4
705.849	3608.86
706.037	3537.18
706.226	3635.49
706.414	3604.77
706.602	3584.29
706.79	3510.56
706.979	3526.94
707.167	3572
707.355	3555.62
707.543	3502.37
707.731	3633.44
707.919	3539.23
708.107	3344.67
708.296	3397.92
708.484	3488.03
708.672	3553.57
708.86	3569.95
709.048	3445.02
709.236	3416.35
709.424	3555.62
709.612	3502.37
709.8	3438.88
709.988	3365.15
710.176	3375.39
710.364	3381.54
710.551	3322.15
710.739	3414.31
710.927	3379.49
711.115	3410.21
711.303	3371.3
711.491	3367.2
711.679	3330.34
711.866	3326.24
712.054	3371.3
712.242	3141.93
712.43	3332.39
712.617	3316
712.805	3254.56
712.993	3291.43
713.181	3354.91
713.368	3246.37
713.556	3209.51
713.744	3092.77
713.931	3199.27
714.119	3250.47
714.306	3152.17
714.494	3250.47
714.682	3248.42
714.869	3182.88
715.057	3133.73
715.244	3229.99
715.432	3268.9
715.619	3113.25
715.807	3105.06
715.994	3051.81
716.182	3113.25
716.369	3092.77
716.556	3105.06
716.744	3172.64
716.931	2988.33
717.119	3062.05
717.306	3045.67
717.493	3199.27
717.681	2986.28
717.868	3068.2
718.055	2949.42
718.242	3098.92
718.43	3150.12
718.617	2967.85
718.804	3012.9
718.991	3062.05
719.179	3051.81
719.366	2935.08
719.553	2937.13
719.74	2957.61
719.927	3062.05
720.114	2930.98
720.301	3002.66
720.488	2928.94
720.676	2887.98
720.863	2855.21
721.05	2896.17
721.237	2822.44
721.424	2933.03
721.611	2879.79
721.798	2824.49
721.985	2797.87
722.172	2724.14
722.358	2734.38
722.545	2879.79
722.732	2734.38
722.919	2771.24
723.106	2763.05
723.293	2709.8
723.48	2830.63
723.667	2758.96
723.853	2781.48
724.04	2758.96
724.227	2734.38
724.414	2797.87
724.6	2808.11
724.787	2662.7
724.974	2730.28
725.161	2634.03
725.347	2425.14
725.534	2654.51
725.72	2634.03
725.907	2556.21
726.094	2765.1
726.28	2732.33
726.467	2634.03
726.653	2584.88
726.84	2617.65
727.027	2828.59
727.213	2642.22
727.4	2658.6
727.586	2578.73
727.773	2601.26
727.959	2658.6
728.145	2488.62
728.332	2654.51
728.518	2459.95
728.705	2521.39
728.891	2519.34
729.077	2486.58
729.264	2580.78
729.45	2593.07
729.636	2584.88
729.823	2496.82
730.009	2441.52
730.195	2605.36
730.382	2523.44
730.568	2478.38
730.754	2621.74
730.94	2330.93
731.126	2470.19
731.313	2478.38
731.499	2457.9
731.685	2357.55
731.871	2439.47
732.057	2523.44
732.243	2449.71
732.429	2449.71
732.615	2486.58
732.801	2462
732.987	2390.32
733.173	2427.18
733.359	2418.99
733.545	2343.22
733.731	2466.1
733.917	2322.74
734.103	2257.2
734.289	2335.03
734.475	2224.44
734.661	2396.46
734.847	2306.35
735.033	2375.99
735.219	2390.32
735.404	2142.52
735.59	2285.87
735.776	2339.12
735.962	2234.68
736.148	2378.03
736.333	2332.98
736.519	2330.93
736.705	2261.3
736.89	2142.52
737.076	2236.72
737.262	2208.05
737.447	2246.96
737.633	2277.68
737.819	2212.15
738.004	2240.82
738.19	2265.39
738.375	2136.37
738.561	2257.2
738.747	2146.61
738.932	2210.1
739.118	2185.52
739.303	2103.61
739.489	2195.76
739.674	2138.42
739.859	2076.98
740.045	2210.1
740.23	2113.85
740.416	2007.35
740.601	2046.26
740.786	2054.45
740.972	2052.41
741.157	2052.41
741.342	1923.38
741.528	2072.89
741.713	2056.5
741.898	2062.65
742.084	1972.54
742.269	1929.53
742.454	2015.54
742.639	1925.43
742.824	2005.3
743.01	2052.41
743.195	2044.21
743.38	1857.85
743.565	1923.38
743.75	1831.23
743.935	1913.14
744.12	1962.3
744.305	1825.08
744.49	1978.68
744.675	1943.86
744.86	1872.18
745.045	2013.49
745.23	1913.14
745.415	1937.72
745.6	1859.9
745.785	1831.23
745.97	1886.52
746.155	1794.36
746.34	1866.04
746.525	1861.94
746.71	1814.84
746.895	1761.59
747.079	1831.23
747.264	1720.64
747.449	1775.93
747.634	1720.64
747.819	1700.16
748.003	1683.77
748.188	1708.35
748.373	1667.39
748.557	1677.63
748.742	1661.24
748.927	1657.15
749.111	1554.75
749.296	1675.58
749.481	1642.81
749.665	1546.56
749.85	1462.59
750.034	1562.94
750.219	1642.81
750.404	1567.04
750.588	1585.47
750.773	1515.84
750.957	1538.37
751.141	1411.39
751.326	1548.61
751.51	1438.02
751.695	1546.56
751.879	1511.74
752.064	1644.86
752.248	1470.78
752.432	1478.97
752.617	1519.93
752.801	1505.6
752.985	1544.51
753.17	1440.06
753.354	1423.68
753.538	1388.86
753.722	1458.5
753.907	1304.9
754.091	1401.15
754.275	1368.38
754.459	1399.1
754.643	1368.38
754.828	1374.53
755.012	1323.33
755.196	1278.27
755.38	1405.25
755.564	1177.92
755.748	1376.58
755.932	1229.12
756.116	1335.62
756.3	1241.41
756.484	1147.2
756.668	1270.08
756.852	1245.51
757.036	1261.89
757.22	1179.97
757.404	1202.5
757.588	1272.13
757.772	1165.64
757.956	1171.78
758.14	1284.42
758.323	1159.49
758.507	1218.88
758.691	1063.24
758.875	1202.5
759.059	1218.88
759.242	1159.49
759.426	1171.78
759.61	1212.74
759.794	1030.47
759.977	1046.85
760.161	1155.4
760.345	1020.23
760.528	1085.76
760.712	1071.43
760.895	1036.61
761.079	1069.38
761.263	1081.67
761.446	1005.89
761.63	1134.92
761.813	1067.33
761.997	979.27
762.18	987.46
762.364	1130.82
762.547	985.41
762.731	985.41
762.914	954.69
763.098	944.45
763.281	958.79
763.464	1046.85
763.648	1020.23
763.831	999.75
764.015	915.78
764.198	1036.61
764.381	1050.95
764.564	1040.71
764.748	991.56
764.931	1032.52
765.114	962.89
765.297	989.51
765.481	917.83
765.664	938.31
765.847	956.74
766.03	1012.04
766.213	823.62
766.397	985.41
766.58	921.93
766.763	905.54
766.946	831.82
767.129	911.69
767.312	913.74
767.495	889.16
767.678	946.5
767.861	827.72
768.044	885.06
768.227	926.02
768.41	858.44
768.593	872.78
768.776	815.43
768.959	815.43
769.142	921.93
769.324	815.43
769.507	805.19
769.69	891.21
769.873	799.05
770.056	942.41
770.239	684.36
770.421	930.12
770.604	842.06
770.787	725.32
770.97	825.67
771.152	829.77
771.335	772.43
771.518	782.67
771.7	782.67
771.883	848.2
772.066	827.72
772.248	829.77
772.431	774.47
772.613	858.44
772.796	774.47
772.978	831.82
773.161	741.71
773.343	717.13
773.526	717.13
773.708	719.18
773.891	766.28
774.073	721.23
774.256	751.95
774.438	749.9
774.621	676.17
774.803	719.18
774.985	760.14
775.168	708.94
775.35	784.71
775.532	737.61
775.715	596.3
775.897	704.84
776.079	659.79
776.261	692.55
776.444	627.02
776.626	725.32
776.808	645.45
776.99	663.88
777.173	702.79
777.355	682.31
777.537	702.79
777.719	612.68
777.901	667.98
778.083	563.53
778.265	602.44
778.447	661.84
778.629	532.81
778.811	571.72
778.993	688.46
779.175	676.17
779.357	672.08
779.539	588.11
779.721	500.05
779.903	649.55
780.085	577.87
780.267	569.68
780.449	512.33
780.631	516.43
780.812	645.45
780.994	526.67
781.176	553.29
781.358	547.15
781.54	541.01
781.721	588.11
781.903	590.16
782.085	573.77
782.267	524.62
782.448	452.94
782.63	543.05
782.812	561.48
782.993	594.25
783.175	524.62
783.357	538.96
783.538	495.95
783.72	504.14
783.901	563.53
784.083	495.95
784.264	485.71
784.446	516.43
784.627	438.61
784.809	516.43
784.99	504.14
785.172	477.52
785.353	485.71
785.535	473.42
785.716	434.51
785.897	422.22
786.079	491.85
786.26	475.47
786.441	446.8
786.623	371.02
786.804	393.55
786.985	438.61
787.167	418.13
787.348	364.88
787.529	432.46
787.71	520.53
787.891	479.57
788.073	409.94
788.254	323.92
788.435	407.89
788.616	389.46
788.797	375.12
788.978	332.11
789.159	358.74
789.34	405.84
789.522	381.26
789.703	379.22
789.884	348.5
790.065	307.54
790.246	397.65
790.427	373.07
790.607	401.74
790.788	328.02
790.969	287.06
791.15	434.51
791.331	328.02
791.512	332.11
791.693	432.46
791.874	352.59
792.054	397.65
792.235	364.88
792.416	332.11
792.597	305.49
792.778	334.16
792.958	293.2
793.139	325.97
793.32	342.35
793.5	338.26
793.681	395.6
793.862	321.87
794.042	323.92
794.223	285.01
794.404	242
794.584	315.73
794.765	313.68
794.945	262.48
795.126	305.49
795.306	375.12
795.487	309.58
795.667	301.39
795.848	264.53
796.028	270.67
796.209	366.93
796.389	334.16
796.57	352.59
796.75	285.01
796.93	258.39
797.111	282.96
797.291	229.71
797.471	217.43
797.652	301.39
797.832	266.58
798.012	299.34
798.192	268.63
798.373	266.58
798.553	242
798.733	260.43
798.913	299.34
799.093	309.58
799.274	254.29
799.454	268.63
799.634	246.1
799.814	287.06
799.994	209.23
800.174	317.78
800.354	244.05
800.534	291.15
800.714	268.63
800.894	293.2
801.074	160.08
801.254	215.38
801.434	242
801.614	211.28
801.794	196.95
801.974	966.98
802.154	219.47
802.334	309.58
802.514	201.04
802.693	334.16
802.873	325.97
803.053	299.34
803.233	192.85
803.413	221.52
803.592	256.34
803.772	205.14
803.952	217.43
804.131	268.63
804.311	334.16
804.491	209.23
804.67	117.08
804.85	205.14
805.03	209.23
805.209	266.58
805.389	184.66
805.568	176.47
805.748	244.05
805.928	242
806.107	182.61
806.287	215.38
806.466	235.86
806.646	196.95
806.825	192.85
807.004	201.04
807.184	219.47
807.363	254.29
807.543	192.85
807.722	221.52
807.901	196.95
808.081	231.76
808.26	147.8
808.439	170.32
808.619	209.23
808.798	145.75
808.977	217.43
809.156	188.75
809.336	178.51
809.515	160.08
809.694	180.56
809.873	217.43
810.052	184.66
810.231	201.04
810.411	217.43
810.59	233.81
810.769	98.64
810.948	201.04
811.127	104.79
811.306	153.94
811.485	176.47
811.664	262.48
811.843	135.51
812.022	160.08
812.201	108.88
812.38	194.9
812.559	186.71
812.737	145.75
812.916	86.36
813.095	127.32
813.274	153.94
813.453	180.56
813.632	201.04
813.811	235.86
813.989	84.31
814.168	291.15
814.347	129.36
814.526	160.08
814.704	250.19
814.883	174.42
815.062	110.93
815.24	131.41
815.419	106.84
815.598	168.27
815.776	205.14
815.955	168.27
816.133	129.36
816.312	153.94
816.49	106.84
816.669	164.18
816.847	100.69
817.026	168.27
817.204	158.03
817.383	178.51
817.561	180.56
817.74	168.27
817.918	186.71
818.097	82.26
818.275	129.36
818.453	123.22
818.632	139.6
818.81	127.32
818.988	94.55
819.167	94.55
819.345	102.74
819.523	61.78
819.701	176.47
819.879	102.74
820.058	102.74
820.236	225.62
820.414	117.08
820.592	139.6
820.77	98.64
820.948	69.97
821.127	170.32
821.305	153.94
821.483	141.65
821.661	174.42
821.839	162.13
822.017	94.55
822.195	104.79
822.373	176.47
822.551	155.99
822.729	94.55
822.907	98.64
823.085	166.23
823.262	129.36
823.44	55.64
823.618	121.17
823.796	110.93
823.974	104.79
824.152	131.41
824.329	119.12
824.507	98.64
824.685	110.93
824.863	61.78
825.04	102.74
825.218	166.23
825.396	119.12
825.574	55.64
825.751	160.08
825.929	137.56
826.107	33.11
826.284	121.17
826.462	151.89
826.639	96.6
826.817	33.11
826.994	201.04
827.172	74.07
827.349	121.17
827.527	90.45
827.704	129.36
827.882	112.98
828.059	78.16
828.237	86.36
828.414	59.73
828.591	49.49
828.769	106.84
828.946	47.44
829.124	41.3
829.301	94.55
829.478	168.27
829.655	76.12
829.833	72.02
830.01	67.92
830.187	45.4
830.364	110.93
830.542	88.4
830.719	172.37
830.896	61.78
831.073	88.4
831.25	112.98
831.427	86.36
831.604	139.6
831.782	115.03
831.959	90.45
832.136	63.83
832.313	53.59
832.49	110.93
832.667	78.16
832.844	57.68
833.021	119.12
833.198	133.46
833.374	139.6
833.551	115.03
833.728	82.26
833.905	74.07
834.082	29.01
834.259	33.11
834.436	137.56
834.612	31.06
834.789	82.26
834.966	80.21
835.143	94.55
835.319	41.3
835.496	155.99
835.673	94.55
835.85	123.22
836.026	53.59
836.203	59.73
836.38	61.78
836.556	61.78
836.733	92.5
836.909	98.64
837.086	78.16
837.262	8.53
837.439	53.59
837.616	51.54
837.792	65.88
837.968	57.68
838.145	39.25
838.321	47.44
838.498	115.03
838.674	55.64
838.851	47.44
839.027	24.92
839.203	14.68
839.38	147.8
839.556	53.59
839.732	94.55
839.909	69.97
840.085	112.98
840.261	94.55
840.437	29.01
840.614	57.68
840.79	129.36
840.966	53.59
841.142	119.12
841.318	-40.62
841.494	94.55
841.671	39.25
841.847	108.88
842.023	-28.33
842.199	86.36
842.375	119.12
842.551	31.06
842.727	86.36
842.903	69.97
843.079	26.96
843.255	147.8
843.431	55.64
843.607	119.12
843.783	51.54
843.959	61.78
844.134	35.16
844.31	53.59
844.486	37.2
844.662	80.21
844.838	94.55
845.013	110.93
845.189	47.44
845.365	67.92
845.541	61.78
845.716	78.16
845.892	131.41
846.068	94.55
846.244	41.3
846.419	72.02
846.595	86.36
846.77	88.4
846.946	78.16
847.122	-20.14
847.297	80.21
847.473	110.93
847.648	47.44
847.824	94.55
847.999	-5.8
848.175	76.12
848.35	16.73
848.526	88.4
848.701	119.12
848.876	29.01
849.052	47.44
849.227	55.64
849.403	0.34
849.578	-11.95
849.753	49.49
849.929	104.79
850.104	0.34
850.279	61.78
850.454	45.4
850.63	55.64
850.805	-18.09
850.98	10.58
851.155	29.01
851.33	31.06
851.505	41.3
851.681	16.73
851.856	-7.85
852.031	78.16
852.206	72.02
852.381	4.44
852.556	16.73
852.731	129.36
852.906	69.97
853.081	31.06
853.256	74.07
853.431	61.78
853.606	22.87
853.781	8.53
853.956	12.63
854.131	24.92
854.305	-7.85
854.48	74.07
854.655	-24.23
854.83	45.4
855.005	39.25
855.18	33.11
855.354	47.44
855.529	110.93
855.704	43.35
855.879	39.25
856.053	6.49
856.228	170.32
856.403	45.4
856.577	45.4
856.752	20.82
856.926	29.01
857.101	22.87
857.276	69.97
857.45	35.16
857.625	22.87
857.799	67.92
857.974	49.49
858.148	4.44
858.323	82.26
858.497	4.44
858.672	-3.75
858.846	35.16
859.02	88.4
859.195	24.92
859.369	2.39
859.543	37.2
859.718	29.01
859.892	14.68
860.066	49.49
860.241	29.01
860.415	53.59
860.589	8.53
860.763	33.11
860.938	31.06
861.112	-20.14
861.286	4.44
861.46	65.88
861.634	37.2
861.808	86.36
861.982	-3.75
862.157	12.63
862.331	-77.48
862.505	-44.71
862.679	-16.04
862.853	2.39
863.027	53.59
863.201	127.32
863.375	-9.9
863.549	-3.75
863.722	24.92
863.896	53.59
864.07	-28.33
864.244	102.74
864.418	45.4
864.592	-36.52
864.766	24.92
864.939	-1.71
865.113	8.53
865.287	31.06
865.461	6.49
865.634	69.97
865.808	61.78
865.982	-16.04
866.156	-54.95
866.329	-3.75
866.503	69.97
866.676	20.82
866.85	102.74
867.024	-16.04
867.197	37.2
867.371	80.21
867.544	24.92
867.718	-24.23
867.891	88.4
868.065	53.59
868.238	2.39
868.412	37.2
868.585	-3.75
868.759	45.4
868.932	0.34
869.105	55.64
869.279	18.77
869.452	-118.44
869.625	26.96
869.799	-7.85
869.972	10.58
870.145	-11.95
870.319	12.63
870.492	-18.09
870.665	-112.3
870.838	-3.75
871.011	-7.85
871.185	57.68
871.358	12.63
871.531	-3.75
871.704	-61.1
871.877	4.44
872.05	14.68
872.223	-7.85
872.396	-13.99
872.569	88.4
872.742	45.4
872.915	45.4
873.088	-1.71
873.261	33.11
873.434	37.2
873.607	20.82
873.78	57.68
873.953	4.44
874.126	-40.62
874.299	153.94
874.471	-59.05
874.644	-11.95
874.817	59.73
874.99	55.64
875.163	-48.81
875.335	26.96
875.508	-28.33
875.681	53.59
875.853	84.31
876.026	-20.14
876.199	92.5
876.371	78.16
876.544	39.25
876.717	20.82
876.889	41.3
877.062	76.12
877.234	-71.34
877.407	65.88
877.579	61.78
877.752	49.49
877.924	14.68
878.097	29.01
878.269	37.2
878.442	53.59
878.614	65.88
878.786	16.73
878.959	63.83
879.131	86.36
879.303	-3.75
879.476	65.88
879.648	78.16
879.82	29.01
879.993	2.39
880.165	-20.14
880.337	37.2
880.509	47.44
880.681	37.2
880.854	22.87
881.026	6.49
881.198	65.88
881.37	24.92
881.542	6.49
881.714	53.59
881.886	-32.43
882.058	-44.71
882.23	112.98
882.402	80.21
882.574	82.26
882.746	18.77
882.918	86.36
883.09	41.3
883.262	14.68
883.434	49.49
883.606	14.68
883.778	-28.33
883.95	57.68
884.122	-11.95
884.293	78.16
884.465	69.97
884.637	-9.9
884.809	24.92
884.98	6.49
885.152	102.74
885.324	53.59
885.496	-9.9
885.667	24.92
885.839	90.45
886.011	20.82
886.182	-30.38
886.354	39.25
886.525	-11.95
886.697	57.68
886.869	-28.33
887.04	80.21
887.212	63.83
887.383	102.74
887.555	20.82
887.726	55.64
887.897	-9.9
888.069	49.49
888.24	80.21
888.412	-9.9
888.583	-36.52
888.754	29.01
888.926	-3.75
889.097	10.58
889.268	-71.34
889.44	55.64
889.611	20.82
889.782	-61.1
889.953	12.63
890.125	86.36
890.296	41.3
890.467	45.4
890.638	12.63
890.809	72.02
890.98	86.36
891.151	16.73
891.323	-24.23
891.494	10.58
891.665	20.82
891.836	102.74
892.007	-48.81
892.178	39.25
892.349	-32.43
892.52	-3.75
892.691	-16.04
892.862	20.82
893.032	33.11
893.203	14.68
893.374	53.59
893.545	55.64
893.716	45.4
893.887	12.63
894.057	-18.09
894.228	4.44
894.399	-20.14
894.57	94.55
894.74	-20.14
894.911	2.39
895.082	-65.19
895.253	0.34
895.423	45.4
895.594	-38.57
895.764	-50.86
895.935	-3.75
896.106	92.5
896.276	18.77
896.447	-52.91
896.617	-34.47
896.788	53.59
896.958	35.16
897.129	-20.14
897.299	24.92
897.47	33.11
897.64	86.36
897.81	4.44
897.981	-1.71
898.151	-26.28
898.322	31.06
898.492	51.54
898.662	-46.76
898.832	-36.52
899.003	12.63
899.173	-5.8
899.343	-11.95
899.513	16.73
