Data from USB4F104151__201__14-33-15-901.txt Node

Date: Thu Mar 13 14:33:15 EDT 2025
User: louis
Spectrometer: USB4F10415
Trigger mode: 4
Integration Time (sec): 2.500000E-2
Scans to average: 1
Electric dark correction enabled: true
Nonlinearity correction enabled: false
Boxcar width: 0
XAxis mode: Wavelengths
Number of Pixels in Spectrum: 3648
>>>>>Begin Spectral Data<<<<<
178.204	-186.88
178.424	-186.88
178.644	-186.88
178.864	-168.45
179.084	-109.05
179.304	-16.9
179.524	-2.56
179.744	28.16
179.964	62.98
180.184	-94.72
180.404	-41.47
180.624	77.31
180.844	-29.18
181.064	48.64
181.283	-37.38
181.503	-2.56
181.723	7.68
181.943	-35.33
182.163	40.45
182.383	-20.99
182.602	52.74
182.822	13.82
183.042	-12.8
183.262	-18.94
183.482	3.58
183.701	-25.09
183.921	44.54
184.141	-37.38
184.361	69.12
184.58	-29.18
184.8	89.6
185.02	38.4
185.239	48.64
185.459	62.98
185.679	52.74
185.898	-10.75
186.118	28.16
186.338	77.31
186.557	75.26
186.777	-25.09
186.997	46.59
187.216	-4.61
187.436	46.59
187.655	-18.94
187.875	42.5
188.095	-12.8
188.314	44.54
188.534	77.31
188.753	-61.95
188.973	32.26
189.192	24.06
189.412	112.13
189.631	17.92
189.851	93.69
190.07	101.89
190.29	-16.9
190.509	48.64
190.729	-4.61
190.948	97.79
191.168	202.24
191.387	97.79
191.607	40.45
191.826	9.73
192.045	-16.9
192.265	44.54
192.484	36.35
192.704	19.97
192.923	-2.56
193.142	77.31
193.362	81.41
193.581	118.27
193.8	44.54
194.02	77.31
194.239	46.59
194.458	-29.18
194.678	36.35
194.897	19.97
195.116	36.35
195.335	52.74
195.555	65.02
195.774	101.89
195.993	93.69
196.212	19.97
196.432	5.63
196.651	15.87
196.87	22.02
197.089	93.69
197.308	54.78
197.528	48.64
197.747	-6.66
197.966	48.64
198.185	58.88
198.404	46.59
198.623	24.06
198.842	87.55
199.062	54.78
199.281	44.54
199.5	-8.7
199.719	-61.95
199.938	48.64
200.157	60.93
200.376	24.06
200.595	46.59
200.814	11.78
201.033	-59.9
201.252	60.93
201.471	110.08
201.69	17.92
201.909	3.58
202.128	36.35
202.347	52.74
202.566	28.16
202.785	58.88
203.004	48.64
203.223	69.12
203.442	38.4
203.661	-4.61
203.879	79.36
204.098	44.54
204.317	22.02
204.536	36.35
204.755	30.21
204.974	101.89
205.193	38.4
205.411	126.46
205.63	93.69
205.849	69.12
206.068	85.5
206.287	-33.28
206.505	-12.8
206.724	77.31
206.943	38.4
207.162	22.02
207.381	87.55
207.599	-4.61
207.818	40.45
208.037	28.16
208.255	9.73
208.474	73.21
208.693	-27.14
208.911	-20.99
209.13	28.16
209.349	19.97
209.567	60.93
209.786	65.02
210.005	81.41
210.223	-2.56
210.442	-2.56
210.661	-35.33
210.879	85.5
211.098	-8.7
211.316	22.02
211.535	67.07
211.753	1.54
211.972	-14.85
212.191	28.16
212.409	52.74
212.628	79.36
212.846	-94.72
213.065	79.36
213.283	58.88
213.502	-4.61
213.72	5.63
213.938	36.35
214.157	15.87
214.375	32.26
214.594	52.74
214.812	46.59
215.031	52.74
215.249	19.97
215.467	44.54
215.686	7.68
215.904	65.02
216.122	30.21
216.341	36.35
216.559	-4.61
216.778	42.5
216.996	-0.51
217.214	62.98
217.432	-29.18
217.651	44.54
217.869	95.74
218.087	44.54
218.306	73.21
218.524	30.21
218.742	32.26
218.96	3.58
219.179	75.26
219.397	75.26
219.615	77.31
219.833	101.89
220.051	-18.94
220.27	93.69
220.488	77.31
220.706	36.35
220.924	54.78
221.142	-84.48
221.36	71.17
221.578	-61.95
221.796	46.59
222.015	-10.75
222.233	22.02
222.451	126.46
222.669	-0.51
222.887	19.97
223.105	54.78
223.323	26.11
223.541	40.45
223.759	46.59
223.977	-35.33
224.195	60.93
224.413	85.5
224.631	11.78
224.849	13.82
225.067	130.56
225.285	-43.52
225.503	87.55
225.721	-45.57
225.939	52.74
226.157	-66.05
226.375	60.93
226.592	3.58
226.81	36.35
227.028	81.41
227.246	134.65
227.464	1.54
227.682	118.27
227.9	56.83
228.117	44.54
228.335	22.02
228.553	69.12
228.771	48.64
228.989	110.08
229.206	71.17
229.424	36.35
229.642	15.87
229.86	77.31
230.077	60.93
230.295	81.41
230.513	48.64
230.731	62.98
230.948	69.12
231.166	105.98
231.384	3.58
231.601	-2.56
231.819	30.21
232.037	11.78
232.254	34.3
232.472	38.4
232.689	44.54
232.907	24.06
233.125	7.68
233.342	-18.94
233.56	87.55
233.777	83.45
233.995	36.35
234.213	32.26
234.43	5.63
234.648	54.78
234.865	81.41
235.083	36.35
235.3	69.12
235.518	56.83
235.735	126.46
235.953	126.46
236.17	19.97
236.388	36.35
236.605	28.16
236.822	-4.61
237.04	52.74
237.257	15.87
237.475	93.69
237.692	28.16
237.909	7.68
238.127	28.16
238.344	69.12
238.562	13.82
238.779	11.78
238.996	-29.18
239.214	32.26
239.431	69.12
239.648	3.58
239.865	28.16
240.083	11.78
240.3	44.54
240.517	-0.51
240.735	36.35
240.952	42.5
241.169	144.89
241.386	19.97
241.603	48.64
241.821	28.16
242.038	79.36
242.255	73.21
242.472	62.98
242.689	69.12
242.907	128.51
243.124	3.58
243.341	52.74
243.558	-6.66
243.775	30.21
243.992	-2.56
244.209	17.92
244.426	56.83
244.643	69.12
244.86	60.93
245.078	85.5
245.295	32.26
245.512	-18.94
245.729	-2.56
245.946	7.68
246.163	7.68
246.38	13.82
246.597	-29.18
246.814	110.08
247.031	9.73
247.248	38.4
247.464	73.21
247.681	87.55
247.898	67.07
248.115	114.17
248.332	-4.61
248.549	95.74
248.766	161.28
248.983	44.54
249.2	40.45
249.417	118.27
249.633	-27.14
249.85	77.31
250.067	-20.99
250.284	-16.9
250.501	17.92
250.717	69.12
250.934	89.6
251.151	60.93
251.368	52.74
251.585	-0.51
251.801	5.63
252.018	15.87
252.235	75.26
252.451	40.45
252.668	46.59
252.885	77.31
253.102	85.5
253.318	60.93
253.535	-0.51
253.752	5.63
253.968	36.35
254.185	26.11
254.401	7.68
254.618	32.26
254.835	62.98
255.051	89.6
255.268	3.58
255.484	52.74
255.701	85.5
255.917	85.5
256.134	36.35
256.351	75.26
256.567	-0.51
256.784	56.83
257	-45.57
257.217	-18.94
257.433	71.17
257.65	7.68
257.866	69.12
258.082	77.31
258.299	69.12
258.515	22.02
258.732	7.68
258.948	40.45
259.165	28.16
259.381	85.5
259.597	77.31
259.814	77.31
260.03	36.35
260.246	44.54
260.463	101.89
260.679	134.65
260.895	-18.94
261.112	116.22
261.328	11.78
261.544	-29.18
261.761	93.69
261.977	-6.66
262.193	-47.62
262.409	22.02
262.626	26.11
262.842	85.5
263.058	-76.29
263.274	93.69
263.49	26.11
263.707	85.5
263.923	3.58
264.139	-70.14
264.355	15.87
264.571	65.02
264.787	54.78
265.004	62.98
265.22	-66.05
265.436	73.21
265.652	-16.9
265.868	67.07
266.084	-41.47
266.3	15.87
266.516	15.87
266.732	65.02
266.948	40.45
267.164	44.54
267.38	30.21
267.596	-0.51
267.812	105.98
268.028	19.97
268.244	95.74
268.46	28.16
268.676	-53.76
268.892	77.31
269.108	60.93
269.324	11.78
269.54	-53.76
269.756	36.35
269.972	11.78
270.188	48.64
270.403	-49.66
270.619	30.21
270.835	30.21
271.051	19.97
271.267	60.93
271.483	-4.61
271.698	36.35
271.914	46.59
272.13	36.35
272.346	105.98
272.562	36.35
272.777	69.12
272.993	71.17
273.209	26.11
273.425	60.93
273.64	9.73
273.856	60.93
274.072	56.83
274.287	50.69
274.503	44.54
274.719	89.6
274.934	11.78
275.15	17.92
275.366	28.16
275.581	3.58
275.797	67.07
276.012	11.78
276.228	-20.99
276.444	95.74
276.659	91.65
276.875	30.21
277.09	30.21
277.306	24.06
277.521	54.78
277.737	77.31
277.952	87.55
278.168	89.6
278.383	-4.61
278.599	34.3
278.814	69.12
279.03	56.83
279.245	93.69
279.461	-66.05
279.676	44.54
279.892	3.58
280.107	46.59
280.322	-12.8
280.538	19.97
280.753	19.97
280.969	48.64
281.184	73.21
281.399	128.51
281.615	32.26
281.83	58.88
282.045	24.06
282.26	15.87
282.476	9.73
282.691	73.21
282.906	52.74
283.122	101.89
283.337	-12.8
283.552	120.32
283.767	-4.61
283.983	62.98
284.198	69.12
284.413	46.59
284.628	7.68
284.843	56.83
285.058	32.26
285.274	3.58
285.489	30.21
285.704	48.64
285.919	11.78
286.134	69.12
286.349	52.74
286.564	36.35
286.779	87.55
286.995	-2.56
287.21	28.16
287.425	-4.61
287.64	44.54
287.855	99.84
288.07	11.78
288.285	83.45
288.5	56.83
288.715	19.97
288.93	-12.8
289.145	65.02
289.36	13.82
289.575	-2.56
289.79	71.17
290.004	42.5
290.219	126.46
290.434	40.45
290.649	28.16
290.864	69.12
291.079	54.78
291.294	60.93
291.509	54.78
291.724	44.54
291.938	-23.04
292.153	62.98
292.368	7.68
292.583	36.35
292.798	77.31
293.012	40.45
293.227	60.93
293.442	3.58
293.657	40.45
293.871	77.31
294.086	32.26
294.301	77.31
294.516	110.08
294.73	69.12
294.945	24.06
295.16	60.93
295.374	62.98
295.589	122.37
295.804	22.02
296.018	19.97
296.233	46.59
296.447	42.5
296.662	-37.38
296.877	77.31
297.091	-4.61
297.306	105.98
297.52	-6.66
297.735	85.5
297.949	44.54
298.164	-6.66
298.378	87.55
298.593	75.26
298.807	38.4
299.022	36.35
299.236	50.69
299.451	13.82
299.665	-6.66
299.88	44.54
300.094	54.78
300.309	-8.7
300.523	79.36
300.737	81.41
300.952	40.45
301.166	3.58
301.381	9.73
301.595	1.54
301.809	60.93
302.024	85.5
302.238	1.54
302.452	52.74
302.667	101.89
302.881	142.85
303.095	136.7
303.309	71.17
303.524	79.36
303.738	-12.8
303.952	-12.8
304.166	56.83
304.381	22.02
304.595	118.27
304.809	-10.75
305.023	118.27
305.237	-23.04
305.452	42.5
305.666	128.51
305.88	69.12
306.094	118.27
306.308	19.97
306.522	11.78
306.736	85.5
306.95	101.89
307.164	71.17
307.379	30.21
307.593	114.17
307.807	118.27
308.021	19.97
308.235	52.74
308.449	5.63
308.663	32.26
308.877	93.69
309.091	38.4
309.305	48.64
309.519	-61.95
309.733	26.11
309.947	38.4
310.161	54.78
310.374	36.35
310.588	144.89
310.802	28.16
311.016	101.89
311.23	87.55
311.444	15.87
311.658	65.02
311.872	118.27
312.085	97.79
312.299	30.21
312.513	56.83
312.727	71.17
312.941	-29.18
313.154	71.17
313.368	36.35
313.582	11.78
313.796	19.97
314.009	13.82
314.223	40.45
314.437	58.88
314.651	87.55
314.864	36.35
315.078	22.02
315.292	38.4
315.505	7.68
315.719	46.59
315.933	48.64
316.146	-39.42
316.36	-16.9
316.573	52.74
316.787	32.26
317.001	50.69
317.214	-14.85
317.428	11.78
317.641	79.36
317.855	71.17
318.068	40.45
318.282	26.11
318.495	87.55
318.709	69.12
318.922	103.93
319.136	91.65
319.349	48.64
319.563	30.21
319.776	77.31
319.99	-4.61
320.203	89.6
320.417	95.74
320.63	142.85
320.843	101.89
321.057	93.69
321.27	19.97
321.483	5.63
321.697	83.45
321.91	22.02
322.124	65.02
322.337	11.78
322.55	28.16
322.763	105.98
322.977	44.54
323.19	26.11
323.403	-12.8
323.617	-18.94
323.83	87.55
324.043	24.06
324.256	58.88
324.469	-29.18
324.683	44.54
324.896	60.93
325.109	-4.61
325.322	17.92
325.535	103.93
325.748	87.55
325.962	52.74
326.175	95.74
326.388	85.5
326.601	79.36
326.814	-10.75
327.027	30.21
327.24	52.74
327.453	38.4
327.666	69.12
327.879	73.21
328.092	-2.56
328.305	-14.85
328.518	52.74
328.731	56.83
328.944	46.59
329.157	48.64
329.37	-18.94
329.583	36.35
329.796	48.64
330.009	-51.71
330.222	44.54
330.435	34.3
330.648	101.89
330.861	87.55
331.073	69.12
331.286	50.69
331.499	112.13
331.712	-12.8
331.925	11.78
332.138	97.79
332.35	79.36
332.563	54.78
332.776	48.64
332.989	7.68
333.202	56.83
333.414	71.17
333.627	30.21
333.84	11.78
334.053	24.06
334.265	5.63
334.478	85.5
334.691	36.35
334.903	34.3
335.116	32.26
335.329	93.69
335.541	38.4
335.754	85.5
335.966	50.69
336.179	30.21
336.392	44.54
336.604	52.74
336.817	54.78
337.029	71.17
337.242	19.97
337.454	60.93
337.667	11.78
337.88	118.27
338.092	97.79
338.305	44.54
338.517	-20.99
338.729	97.79
338.942	54.78
339.154	22.02
339.367	83.45
339.579	60.93
339.792	-12.8
340.004	87.55
340.217	13.82
340.429	128.51
340.641	60.93
340.854	38.4
341.066	-27.14
341.278	136.7
341.491	110.08
341.703	46.59
341.915	79.36
342.128	48.64
342.34	95.74
342.552	69.12
342.764	62.98
342.977	36.35
343.189	93.69
343.401	120.32
343.613	-14.85
343.826	71.17
344.038	60.93
344.25	60.93
344.462	105.98
344.674	95.74
344.886	85.5
345.099	99.84
345.311	62.98
345.523	-4.61
345.735	1.54
345.947	24.06
346.159	52.74
346.371	5.63
346.583	36.35
346.795	52.74
347.007	83.45
347.219	110.08
347.431	36.35
347.643	44.54
347.855	3.58
348.067	85.5
348.279	28.16
348.491	30.21
348.703	28.16
348.915	7.68
349.127	-20.99
349.339	46.59
349.551	-6.66
349.763	97.79
349.975	26.11
350.187	83.45
350.399	32.26
350.61	28.16
350.822	97.79
351.034	85.5
351.246	120.32
351.458	163.33
351.669	52.74
351.881	54.78
352.093	65.02
352.305	65.02
352.517	134.65
352.728	19.97
352.94	77.31
353.152	75.26
353.363	60.93
353.575	77.31
353.787	124.41
353.999	60.93
354.21	97.79
354.422	32.26
354.633	-10.75
354.845	44.54
355.057	24.06
355.268	56.83
355.48	99.84
355.692	93.69
355.903	126.46
356.115	85.5
356.326	105.98
356.538	60.93
356.749	52.74
356.961	146.94
357.172	54.78
357.384	58.88
357.595	120.32
357.807	-16.9
358.018	56.83
358.23	24.06
358.441	130.56
358.653	79.36
358.864	24.06
359.075	24.06
359.287	69.12
359.498	52.74
359.709	44.54
359.921	87.55
360.132	5.63
360.344	89.6
360.555	46.59
360.766	46.59
360.977	54.78
361.189	110.08
361.4	38.4
361.611	103.93
361.823	153.09
362.034	118.27
362.245	-25.09
362.456	28.16
362.667	91.65
362.879	3.58
363.09	50.69
363.301	44.54
363.512	75.26
363.723	48.64
363.935	105.98
364.146	93.69
364.357	30.21
364.568	46.59
364.779	28.16
364.99	101.89
365.201	11.78
365.412	105.98
365.623	-51.71
365.834	-10.75
366.045	73.21
366.256	77.31
366.467	52.74
366.678	40.45
366.889	101.89
367.1	97.79
367.311	110.08
367.522	15.87
367.733	-16.9
367.944	69.12
368.155	-33.28
368.366	73.21
368.577	110.08
368.788	101.89
368.999	24.06
369.209	95.74
369.42	71.17
369.631	101.89
369.842	22.02
370.053	52.74
370.264	81.41
370.474	15.87
370.685	95.74
370.896	19.97
371.107	110.08
371.317	69.12
371.528	67.07
371.739	112.13
371.95	65.02
372.16	93.69
372.371	15.87
372.582	95.74
372.792	-16.9
373.003	-41.47
373.214	122.37
373.424	93.69
373.635	32.26
373.846	46.59
374.056	19.97
374.267	128.51
374.477	9.73
374.688	11.78
374.898	81.41
375.109	48.64
375.319	99.84
375.53	7.68
375.74	89.6
375.951	30.21
376.161	65.02
376.372	136.7
376.582	95.74
376.793	101.89
377.003	-20.99
377.214	19.97
377.424	58.88
377.635	36.35
377.845	67.07
378.055	110.08
378.266	30.21
378.476	60.93
378.686	77.31
378.897	128.51
379.107	77.31
379.317	85.5
379.528	-25.09
379.738	36.35
379.948	1.54
380.158	81.41
380.369	77.31
380.579	60.93
380.789	48.64
380.999	69.12
381.21	110.08
381.42	210.43
381.63	77.31
381.84	167.42
382.05	97.79
382.261	71.17
382.471	89.6
382.681	79.36
382.891	138.75
383.101	110.08
383.311	-25.09
383.521	52.74
383.731	112.13
383.941	85.5
384.151	101.89
384.361	36.35
384.571	118.27
384.781	126.46
384.991	167.42
385.201	89.6
385.411	103.93
385.621	71.17
385.831	112.13
386.041	52.74
386.251	24.06
386.461	56.83
386.671	58.88
386.881	48.64
387.091	48.64
387.301	81.41
387.511	79.36
387.72	126.46
387.93	52.74
388.14	-45.57
388.35	38.4
388.56	126.46
388.769	38.4
388.979	153.09
389.189	89.6
389.399	110.08
389.609	52.74
389.818	118.27
390.028	60.93
390.238	151.04
390.447	85.5
390.657	75.26
390.867	48.64
391.076	32.26
391.286	97.79
391.496	130.56
391.705	112.13
391.915	95.74
392.125	120.32
392.334	89.6
392.544	114.17
392.753	19.97
392.963	116.22
393.172	81.41
393.382	81.41
393.591	44.54
393.801	44.54
394.01	151.04
394.22	146.94
394.429	73.21
394.639	83.45
394.848	97.79
395.058	87.55
395.267	110.08
395.477	179.71
395.686	46.59
395.895	173.57
396.105	241.15
396.314	148.99
396.524	93.69
396.733	93.69
396.942	183.81
397.152	79.36
397.361	177.66
397.57	54.78
397.78	71.17
397.989	120.32
398.198	167.42
398.407	134.65
398.617	105.98
398.826	124.41
399.035	146.94
399.244	208.38
399.453	95.74
399.663	167.42
399.872	183.81
400.081	194.05
400.29	192
400.499	105.98
400.708	187.9
400.917	212.48
401.127	151.04
401.336	97.79
401.545	179.71
401.754	210.43
401.963	52.74
402.172	142.85
402.381	167.42
402.59	183.81
402.799	114.17
403.008	226.81
403.217	85.5
403.426	136.7
403.635	112.13
403.844	202.24
404.053	126.46
404.262	146.94
404.471	220.67
404.68	218.62
404.888	167.42
405.097	267.77
405.306	185.85
405.515	265.72
405.724	259.58
405.933	200.19
406.142	204.28
406.35	228.86
406.559	216.57
406.768	169.47
406.977	237.05
407.185	282.11
407.394	273.92
407.603	216.57
407.812	290.3
408.02	302.59
408.229	398.84
408.438	370.17
408.646	235
408.855	341.5
409.064	374.27
409.272	376.31
409.481	357.88
409.69	390.65
409.898	314.88
410.107	454.14
410.315	421.37
410.524	404.99
410.733	495.1
410.941	415.23
411.15	493.05
411.358	472.57
411.567	544.25
411.775	501.24
411.984	585.21
412.192	609.78
412.401	568.82
412.609	708.09
412.818	687.61
413.026	628.21
413.234	712.18
413.443	761.33
413.651	724.47
413.86	773.62
414.068	822.77
414.276	847.35
414.485	765.43
414.693	894.45
414.901	939.51
415.11	927.22
415.318	919.03
415.526	953.84
415.734	1089.01
415.943	1097.2
416.151	1183.21
416.359	1134.06
416.567	1281.52
416.776	1295.85
416.984	1281.52
417.192	1355.24
417.4	1347.05
417.608	1265.13
417.817	1355.24
418.025	1437.16
418.233	1592.81
418.441	1537.51
418.649	1613.29
418.857	1691.11
419.065	1719.78
419.273	1689.06
419.481	1922.53
419.689	1924.58
419.897	1906.15
420.105	2004.45
420.313	2170.33
420.521	2252.25
420.729	2207.2
420.937	2278.88
421.145	2471.39
421.353	2506.2
421.561	2530.78
421.769	2592.22
421.977	2731.48
422.185	2788.82
422.393	2915.8
422.601	3075.54
422.809	3136.98
423.017	3050.96
423.224	3227.09
423.432	3329.49
423.64	3317.2
423.848	3839.43
424.056	3634.63
424.263	3997.12
424.471	3780.04
424.679	3886.53
424.887	4130.24
425.094	4382.14
425.302	4109.76
425.51	4580.79
425.718	4591.03
425.925	4689.34
426.133	4746.68
426.341	5139.89
426.548	5219.76
426.756	5264.82
426.964	5162.42
427.171	5631.4
427.379	5782.95
427.586	5893.54
427.794	5901.73
428.001	6321.57
428.209	6632.86
428.417	6606.24
428.624	7011.73
428.832	6851.99
429.039	6927.77
429.247	6849.94
429.454	7794.06
429.662	8027.53
429.869	7642.51
430.076	8244.61
430.284	7933.32
430.491	8209.79
430.699	8635.77
430.906	8660.35
431.114	8748.41
431.321	9303.41
431.528	9362.8
431.736	9801.07
431.943	10259.81
432.15	9942.38
432.358	10296.67
432.565	10771.8
432.772	10808.67
432.979	11224.4
433.187	11335
433.394	11644.24
433.601	12358.98
433.808	12197.19
434.016	12088.65
434.223	12670.27
434.43	13464.88
434.637	13198.65
434.844	14109.99
435.052	14097.7
435.259	14159.14
435.466	14208.3
435.673	14308.65
435.88	15013.15
436.087	15867.15
436.294	15791.38
436.501	15426.84
436.708	15705.36
436.915	16278.79
437.122	16944.38
437.329	16950.53
437.537	17476.85
437.743	17771.76
437.95	17661.17
438.157	18357.48
438.364	18990.3
438.571	19113.18
438.778	19322.07
438.985	21112
439.192	19991.76
439.399	20815.04
439.606	20403.4
439.813	21351.61
440.02	22658.21
440.227	22342.83
440.433	22088.88
440.64	22838.44
440.847	22574.25
441.054	23080.1
441.261	24761.48
441.467	24550.54
441.674	25193.6
441.881	25793.65
442.088	26197.1
442.294	25291.9
442.501	26219.63
442.708	26543.21
442.914	27604.06
443.121	28818.5
443.328	27901.01
443.534	30114.87
443.741	29086.79
443.948	28658.76
444.154	30794.79
444.361	30854.19
444.568	31009.83
444.774	30501.93
444.981	31208.48
445.187	31829.02
445.394	33354.76
445.6	33016.84
445.807	35838.94
446.013	34599.92
446.22	35412.96
446.426	36606.93
446.633	37077.96
446.839	37948.35
447.046	36596.69
447.252	38632.37
447.459	38615.99
447.665	38593.46
447.871	39758.75
448.078	41628.55
448.284	39855.01
448.491	40367
448.697	42552.18
448.903	43174.77
449.11	43131.76
449.316	42625.91
449.522	43262.83
449.728	44378.97
449.935	44763.99
450.141	44761.94
450.347	45722.44
450.553	44262.24
450.76	44395.35
450.966	45683.53
451.172	46072.64
451.378	46848.82
451.584	45964.1
451.791	47090.48
451.997	47061.81
452.203	47952.68
452.409	47768.36
452.615	47528.75
452.821	45579.08
453.027	44913.49
453.233	47600.43
453.44	45769.54
453.646	46076.74
453.852	45917
454.058	47178.54
454.264	45556.55
454.47	46859.06
454.676	45646.66
454.882	46910.26
455.088	43303.79
455.294	43271.02
455.5	44133.21
455.705	44460.89
455.911	42933.1
456.117	42574.71
456.323	41509.77
456.529	39334.82
456.735	41200.52
456.941	39826.34
457.147	39576.48
457.352	38415.29
457.558	37721.02
457.764	38001.6
457.97	37170.12
458.176	36508.63
458.381	35908.57
458.587	34497.52
458.793	34401.27
458.999	32535.57
459.204	35017.71
459.41	34247.67
459.616	32240.66
459.821	31810.59
460.027	31960.09
460.233	30956.58
460.438	29789.24
460.644	29963.32
460.85	28376.14
461.055	28120.15
461.261	27962.45
461.466	25869.43
461.672	25193.6
461.878	26778.73
462.083	25001.09
462.289	24784.01
462.494	24679.56
462.7	23254.17
462.905	22650.02
463.111	23399.58
463.316	23319.71
463.522	22955.17
463.727	23139.49
463.932	23100.58
464.138	22797.48
464.343	22680.74
464.549	22262.96
464.754	22998.18
464.959	22559.91
465.165	22535.34
465.37	21320.89
465.575	20944.06
465.781	21695.67
465.986	22039.73
466.191	20853.95
466.397	20679.88
466.602	19840.21
466.807	20548.81
467.012	20182.22
467.218	20387.02
467.423	19717.33
467.628	20059.34
467.833	21193.92
468.038	20090.06
468.244	19576.02
468.449	20411.59
468.654	19623.12
468.859	19447
469.064	19279.07
469.269	18773.22
469.474	19066.08
469.679	19199.2
469.885	18838.75
470.09	18935.01
470.295	18738.4
470.5	18242.79
470.705	18488.55
470.91	17724.66
471.115	17818.86
471.32	18136.3
471.525	17990.89
471.73	17497.33
471.935	17804.53
472.139	17077.5
472.344	17059.07
472.549	16889.09
472.754	16760.06
472.959	16346.37
473.164	16051.47
473.369	16004.36
473.574	16413.96
473.778	16125.19
473.983	16217.35
474.188	15830.29
474.393	15156.5
474.598	15437.08
474.802	15447.32
475.007	15064.35
475.212	15027.48
475.417	14646.56
475.621	14423.33
475.826	14597.41
476.031	14269.73
476.235	14200.1
476.44	14447.91
476.645	13999.4
476.849	14331.17
477.054	13749.55
477.259	13622.58
477.463	13475.12
477.668	13473.07
477.872	13393.2
478.077	13235.51
478.282	13020.47
478.486	12827.96
478.691	12612.93
478.895	12457.28
479.1	12512.58
479.304	12533.06
479.509	12234.05
479.713	12475.71
479.918	12189
480.122	12242.25
480.326	12197.19
480.531	12209.48
480.735	12189
480.94	12025.16
481.144	12346.69
481.348	11730.25
481.553	11783.5
481.757	11644.24
481.961	11724.11
482.166	11879.75
482.37	11955.53
482.574	11677.01
482.778	11613.52
482.983	11914.57
483.187	11777.36
483.391	11826.51
483.595	11488.59
483.8	11533.65
484.004	11812.17
484.208	11634
484.412	11799.88
484.616	11842.89
484.821	11728.21
485.025	11586.9
485.229	11619.66
485.433	11435.35
485.637	11609.42
485.841	11638.09
486.045	11345.23
486.249	11662.67
486.453	11533.65
486.657	11654.48
486.861	11492.69
487.065	11349.33
487.269	11509.07
487.473	11496.78
487.677	11810.12
487.881	11840.84
488.085	11500.88
488.289	11576.66
488.493	11595.09
488.697	11744.59
488.901	11545.94
489.105	11586.9
489.309	11744.59
489.512	11613.52
489.716	11615.57
489.92	11507.02
490.124	11490.64
490.328	11783.5
490.531	11728.21
490.735	11851.08
490.939	11691.34
491.143	11865.42
491.346	11894.09
491.55	12156.23
491.754	11939.15
491.958	12131.65
492.161	12029.26
492.365	12129.61
492.569	11988.3
492.772	12209.48
492.976	12244.29
493.18	12338.5
493.383	12404.03
493.587	12389.7
493.79	12377.41
493.994	12268.87
494.197	12524.86
494.401	12766.53
494.605	12623.17
494.808	12772.67
495.012	12801.34
495.215	12981.56
495.419	13157.69
495.622	12803.39
495.825	13165.88
496.029	13122.87
496.232	13421.88
496.436	13391.16
496.639	13679.92
496.843	13651.25
497.046	13868.33
497.249	14114.09
497.453	14087.47
497.656	14122.28
497.859	13989.16
498.063	14419.24
498.266	14705.95
498.469	14507.3
498.673	14521.63
498.876	14871.84
499.079	15021.34
499.282	15156.5
499.485	15557.91
499.689	15205.66
499.892	15633.68
500.095	15619.35
500.298	16051.47
500.501	15983.88
500.705	16203.02
500.908	16264.46
501.111	16604.42
501.314	16817.41
501.517	16987.39
501.72	17050.88
501.923	17108.22
502.126	17431.8
502.329	17636.59
502.532	17802.48
502.735	17868.02
502.938	18171.11
503.141	18439.4
503.344	18330.86
503.547	18607.33
503.75	18840.8
503.953	19125.47
504.156	19049.69
504.359	19283.16
504.562	19186.91
504.765	19938.51
504.968	19950.8
505.17	20434.12
505.373	20399.3
505.576	20800.71
505.779	20604.1
505.982	21247.16
506.185	21189.82
506.387	21540.02
506.59	21462.2
506.793	22035.63
506.996	21841.07
507.198	22609.06
507.401	22228.14
507.604	22949.03
507.807	23049.38
508.009	23047.33
508.212	23368.86
508.415	23446.68
508.617	23868.56
508.82	24206.48
509.022	23813.27
509.225	24407.18
509.428	24528.01
509.63	24917.12
509.833	25035.91
510.035	25615.48
510.238	25279.61
510.44	25541.75
510.643	26098.8
510.845	26102.9
511.048	26397.81
511.25	26891.37
511.453	27272.29
511.655	27927.64
511.858	27640.92
512.06	27921.49
512.262	27778.14
512.465	27878.49
512.667	28505.17
512.87	28568.65
513.072	29207.62
513.274	29324.35
513.477	29215.81
513.679	29684.8
513.881	30141.49
514.084	30385.2
514.286	30452.78
514.488	30317.62
514.69	31384.61
514.893	31188
515.095	31345.7
515.297	32068.63
515.499	31765.53
515.701	32136.21
515.904	32445.46
516.106	32850.95
516.308	33012.74
516.51	33520.64
516.712	33457.15
516.914	33967.1
517.116	34124.79
517.318	34409.46
517.52	34415.6
517.722	34763.76
517.925	34964.46
518.127	35292.13
518.329	35529.7
518.531	35093.48
518.733	35742.69
518.935	35935.2
519.136	36475.86
519.338	36727.76
519.54	37020.62
519.742	37063.63
519.944	37125.07
520.146	37782.46
520.348	37878.72
520.55	37526.47
520.752	38278.07
520.954	38775.73
521.155	38417.33
521.357	39011.24
521.559	39455.65
521.761	39793.57
521.963	40022.94
522.164	39764.9
522.366	39992.22
522.568	40442.77
522.77	40125.34
522.971	40874.9
523.173	40328.09
523.375	41155.47
523.576	40856.46
523.778	40711.06
523.98	41536.39
524.181	41259.91
524.383	41204.62
524.584	41886.59
524.786	41499.53
524.988	41524.1
525.189	42802.03
525.391	42091.39
525.592	42615.67
525.794	42640.25
525.995	42402.68
526.197	42812.27
526.398	42324.86
526.6	42558.33
526.801	43150.19
527.003	42883.95
527.204	42603.38
527.406	43266.92
527.607	43066.22
527.808	43207.53
528.01	42625.91
528.211	42832.75
528.412	44200.8
528.614	43670.37
528.815	43547.5
529.016	43907.94
529.218	43123.57
529.419	43254.64
529.62	43475.82
529.822	43346.79
530.023	43410.28
530.224	43455.34
530.425	43729.76
530.626	43187.05
530.828	43008.88
531.029	43780.96
531.23	43074.41
531.431	43189.1
531.632	43531.11
531.833	43410.28
532.035	43406.19
532.236	43344.75
532.437	43293.55
532.638	42894.19
532.839	43547.5
533.04	43144.05
533.241	42652.53
533.442	44041.06
533.643	43090.8
533.844	42924.91
534.045	43660.13
534.246	42955.63
534.447	43250.54
534.648	43015.02
534.849	42849.14
535.05	42531.7
535.251	42904.43
535.451	42591.09
535.652	43113.33
535.853	42593.14
536.054	42449.78
536.255	42961.78
536.456	42433.4
536.657	42881.91
536.857	42775.41
537.058	42197.88
537.259	42630.01
537.46	42738.55
537.66	42353.53
537.861	42177.4
538.062	42509.18
538.263	42447.74
538.463	41800.58
538.664	42146.68
538.865	42468.22
539.065	42484.6
539.266	42009.47
539.466	42189.69
539.667	41687.94
539.868	42462.07
540.068	42163.07
540.269	42050.43
540.469	42158.97
540.67	41864.07
540.87	41771.91
541.071	41739.14
541.271	41730.95
541.472	41681.8
541.672	41644.93
541.873	41657.22
542.073	41425.8
542.274	41991.04
542.474	41313.16
542.675	41399.18
542.875	41907.07
543.075	41597.83
543.276	41284.49
543.476	41757.57
543.676	41354.12
543.877	41427.85
544.077	41479.05
544.277	41517.96
544.478	40995.73
544.678	41474.95
544.878	41489.29
545.078	41192.33
545.279	41255.82
545.479	41134.99
545.679	41120.65
545.879	41407.37
546.079	41343.88
546.28	41444.23
546.48	40692.63
546.68	41534.34
546.88	41307.02
547.08	41522.05
547.28	40985.49
547.48	40919.95
547.68	41491.33
547.88	41106.32
548.081	41520.01
548.281	41280.39
548.481	41587.59
548.681	41257.87
548.881	41374.6
549.081	41659.27
549.28	41071.5
549.48	41761.67
549.68	41384.84
549.88	41149.32
550.08	41173.9
550.28	41075.6
550.48	40995.73
550.68	41169.8
550.88	40983.44
551.08	41286.54
551.279	41329.55
551.479	41182.09
551.679	41206.67
551.879	41069.45
552.079	41597.83
552.278	41583.49
552.478	41579.4
552.678	41419.66
552.878	41640.84
553.077	41546.63
553.277	41132.94
553.477	41802.63
553.676	41388.94
553.876	41128.84
554.076	41102.22
554.275	41438.09
554.475	40999.82
554.674	41560.97
554.874	41499.53
555.074	41178
555.273	41231.24
555.473	41792.39
555.672	41358.22
555.872	41319.31
556.071	41579.4
556.271	42083.2
556.47	41622.4
556.67	41182.09
556.869	41540.49
557.068	41526.15
557.268	41223.05
557.467	41204.62
557.667	41479.05
557.866	41481.1
558.065	41646.98
558.265	41403.27
558.464	41102.22
558.663	41788.29
558.863	41302.92
559.062	41907.07
559.261	41329.55
559.461	41599.88
559.66	41055.12
559.859	41724.8
560.058	41429.9
560.258	41554.82
560.457	41061.26
560.656	41583.49
560.855	41429.9
561.054	41675.65
561.253	41229.19
561.453	41354.12
561.652	41268.11
561.851	41653.12
562.05	41425.8
562.249	41165.71
562.448	41925.5
562.647	41268.11
562.846	41231.24
563.045	41419.66
563.244	40680.34
563.443	41485.19
563.642	40872.85
563.841	40901.52
564.04	40946.58
564.239	41472.9
564.438	40690.58
564.637	40893.33
564.836	40846.22
565.035	40586.13
565.234	40932.24
565.432	40799.12
565.631	40827.79
565.83	40739.73
566.029	40375.19
566.228	40467.35
566.427	40584.08
566.625	40301.47
566.824	40485.78
567.023	40733.59
567.222	39568.29
567.42	40977.29
567.619	40346.52
567.818	39949.21
568.016	40393.62
568.215	39914.4
568.414	40190.87
568.612	40166.3
568.811	39787.42
569.01	39932.83
569.208	39875.49
569.407	39984.03
569.605	39627.68
569.804	39961.5
570.002	39375.78
570.201	39152.55
570.4	39230.38
570.598	39377.83
570.797	39179.18
570.995	39332.78
571.193	39023.53
571.392	39316.39
571.59	38745.01
571.789	38794.16
571.987	38816.69
572.186	38667.19
572.384	38403
572.582	38886.32
572.781	38695.86
572.979	38040.51
573.177	38599.6
573.376	38622.13
573.574	38452.15
573.772	38155.19
573.971	37626.82
574.169	37684.16
574.367	37196.74
574.565	37858.24
574.763	37692.35
574.962	37401.54
575.16	37118.92
575.358	37419.97
575.556	36914.12
575.754	37598.15
575.952	36897.74
576.151	36963.28
576.349	36393.94
576.547	36799.44
576.745	36764.62
576.943	36629.46
577.141	36330.45
577.339	36439
577.537	36434.9
577.735	35789.79
577.933	35994.59
578.131	36514.77
578.329	35890.14
578.527	35666.91
578.725	35855.32
578.923	35877.85
579.121	35503.07
579.319	35578.85
579.516	35732.45
579.714	35664.86
579.912	35212.26
580.11	34989.03
580.308	35070.95
580.506	35496.93
580.704	34507.76
580.901	34745.33
581.099	34925.55
581.297	34593.78
581.495	34270.2
581.692	34767.85
581.89	34282.48
582.088	34333.68
582.285	34472.95
582.483	34597.87
582.681	34190.33
582.878	33995.77
583.076	33917.95
583.274	34243.57
583.471	33328.13
583.669	34022.39
583.866	33487.87
584.064	33930.23
584.262	33446.91
584.459	33655.81
584.657	33315.84
584.854	33473.54
585.052	32752.65
585.249	33276.93
585.447	33281.03
585.644	32859.15
585.841	33049.61
586.039	33479.68
586.236	32560.14
586.434	32298
586.631	32554
586.828	32414.74
587.026	32390.16
587.223	32173.08
587.42	32107.54
587.618	32476.18
587.815	31951.9
588.012	31960.09
588.21	31747.1
588.407	31935.51
588.604	31874.07
588.801	31650.85
588.999	31720.48
589.196	31835.16
589.393	31493.15
589.59	31255.59
589.787	30936.1
589.984	31179.81
590.182	30979.11
590.379	31366.18
590.576	30864.43
590.773	31003.69
590.97	30676.01
591.167	31077.41
591.364	30903.34
591.561	31038.5
591.758	30661.68
591.955	30831.66
592.152	30927.91
592.349	30487.6
592.546	30774.31
592.743	31011.88
592.94	30522.41
593.137	30436.4
593.334	30594.09
593.531	30237.75
593.727	30235.7
593.924	30178.36
594.121	30184.5
594.318	30460.98
594.515	29813.82
594.712	30415.92
594.908	29824.06
595.105	30010.42
595.302	29826.1
595.499	30243.89
595.696	29576.25
595.892	29676.6
596.089	29791.29
596.286	29711.42
596.482	29799.48
596.679	29439.04
596.876	29609.02
597.072	29746.23
597.269	29574.2
597.466	29258.82
597.662	29412.42
597.859	29262.91
598.055	29416.51
598.252	28871.75
598.448	29164.61
598.645	29301.82
598.841	28859.46
599.038	29250.63
599.234	29285.44
599.431	28863.56
599.627	29011.01
599.824	28933.19
600.02	28628.04
600.217	29101.12
600.413	29047.88
600.609	29191.23
600.806	28771.4
601.002	29097.03
601.198	28701.77
601.395	28845.13
601.591	28996.68
601.787	29273.15
601.984	28722.25
602.18	29195.33
602.376	28871.75
602.572	28533.84
602.769	28804.17
602.965	28695.63
603.161	28683.34
603.357	28695.63
603.553	28718.15
603.75	28849.22
603.946	28691.53
604.142	28759.11
604.338	28476.49
604.534	28982.34
604.73	28664.91
604.926	28712.01
605.122	28957.77
605.318	28730.44
605.514	29006.92
605.71	28666.95
605.906	29015.11
606.102	28587.08
606.298	28740.68
606.494	28681.29
606.69	29062.21
606.886	29019.21
607.082	28257.36
607.278	28875.85
607.474	28720.2
607.67	29054.02
607.866	28720.2
608.062	28941.38
608.257	28834.89
608.453	28763.21
608.649	28744.78
608.845	28566.6
609.041	28918.85
609.236	28974.15
609.432	28853.32
609.628	29320.26
609.824	28865.61
610.019	28836.94
610.215	29006.92
610.411	28998.73
610.606	28881.99
610.802	28963.91
610.998	28994.63
611.193	29385.79
611.389	29006.92
611.584	29054.02
611.78	28896.33
611.976	29379.65
612.171	28984.39
612.367	29148.23
612.562	29527.1
612.758	28886.09
612.953	28740.68
613.149	29295.68
613.344	28888.14
613.539	29301.82
613.735	29191.23
613.93	29279.3
614.126	28974.15
614.321	29533.25
614.517	29482.05
614.712	29209.67
614.907	29035.59
615.103	29563.96
615.298	29025.35
615.493	29428.8
615.688	28908.61
615.884	29654.08
616.079	29074.5
616.274	29256.77
616.47	28945.48
616.665	29006.92
616.86	28795.98
617.055	29224
617.25	28947.53
617.445	29242.43
617.641	28601.42
617.836	29144.13
618.031	28556.36
618.226	29043.78
618.421	28941.38
618.616	29203.52
618.811	28429.39
619.006	29361.22
619.201	28351.57
619.396	28716.11
619.591	28320.85
619.786	28662.86
619.981	28003.41
620.176	28515.4
620.371	27751.51
620.566	28249.17
620.761	27872.34
620.956	28281.94
621.151	27698.27
621.346	27829.34
621.541	27778.14
621.735	28021.84
621.93	27096.16
622.125	27624.54
622.32	27077.73
622.515	27393.12
622.709	27022.44
622.904	27034.72
623.099	26977.38
623.294	26614.89
623.488	26383.47
623.683	26874.98
623.878	26061.94
624.072	26661.99
624.267	26031.22
624.462	26289.26
624.656	26070.13
624.851	25728.12
625.046	25756.79
625.24	25906.29
625.435	25287.81
625.629	25474.17
625.824	25341.05
626.018	25224.32
626.213	24767.62
626.407	25017.47
626.602	24687.75
626.796	24743.05
626.991	24652.94
627.185	24429.71
627.38	24204.43
627.574	24390.8
627.768	24192.14
627.963	23899.28
628.157	23858.32
628.352	23831.7
628.546	23579.8
628.74	23903.38
628.935	23489.69
629.129	23772.31
629.323	22992.03
629.517	23098.53
629.712	23182.49
629.906	22992.03
630.1	22801.57
630.294	22809.76
630.489	22592.68
630.683	22940.83
630.877	22193.33
631.071	22088.88
631.265	22291.63
631.459	21875.89
631.653	22099.12
631.848	21748.92
632.042	21916.85
632.236	21572.79
632.43	21427.39
632.624	21267.64
632.818	21308.6
633.012	21050.56
633.206	20890.82
633.4	21132.48
633.594	20821.19
633.788	20798.66
633.982	20985.02
634.176	20917.44
634.369	20264.14
634.563	20360.39
634.757	20204.75
634.951	20589.77
635.145	20083.92
635.339	20233.42
635.533	20040.91
635.726	20135.12
635.92	19487.96
636.114	19557.59
636.308	19440.86
636.501	19477.72
636.695	19494.1
636.889	19201.24
637.083	18918.62
637.276	18947.29
637.47	18636
637.664	18537.7
637.857	18660.58
638.051	18693.35
638.244	18420.97
638.438	18416.87
638.632	18408.68
638.825	17847.54
639.019	17878.26
639.212	17759.47
639.406	18150.64
639.599	17702.13
639.793	17892.59
639.986	17353.98
640.18	17540.34
640.373	17403.13
640.567	17196.28
640.76	17362.17
640.954	17026.3
641.147	16887.04
641.34	16921.85
641.534	16819.46
641.727	16897.28
641.92	16618.75
642.114	16545.03
642.307	16336.13
642.5	16389.38
642.694	16168.2
642.887	16078.09
643.08	16286.98
643.273	15996.17
643.467	15861.01
643.66	15641.87
643.853	15797.52
644.046	15625.49
644.239	15523.09
644.432	15416.6
644.626	15414.55
644.819	15435.03
645.012	15131.93
645.205	15070.49
645.398	15011.1
645.591	14914.84
645.784	14937.37
645.977	14763.29
646.17	14583.07
646.363	14581.03
646.556	14284.07
646.749	14392.61
646.942	14234.92
647.135	14239.01
647.328	14060.84
647.521	14222.63
647.714	13952.3
647.907	13995.31
648.099	13790.51
648.292	13915.44
648.485	13628.72
648.678	13276.47
648.871	13507.89
649.064	13417.78
649.256	13622.58
649.449	13253.94
649.642	13346.1
649.835	13188.41
650.027	12965.18
650.22	12954.94
650.413	13026.62
650.605	12987.71
650.798	12969.27
650.991	12563.78
651.183	12561.73
651.376	12727.61
651.568	12528.96
651.761	12393.79
651.954	12246.34
652.146	12434.75
652.339	12473.67
652.531	12406.08
652.724	12123.46
652.916	12033.35
653.109	12119.37
653.301	11984.2
653.494	12137.8
653.686	11734.35
653.879	11754.83
654.071	11631.95
654.263	11601.23
654.456	11547.98
654.648	11644.24
654.84	11271.51
655.033	11423.06
655.225	11238.74
655.417	11136.34
655.61	11138.39
655.802	11033.94
655.994	10982.74
656.186	10976.6
656.379	10751.32
656.571	10941.79
656.763	10800.48
656.955	10884.44
657.148	10700.12
657.34	10866.01
657.532	10519.9
657.724	10534.24
657.916	10448.22
658.108	10288.48
658.3	10239.33
658.492	10227.04
658.684	10235.24
658.876	10136.93
659.068	10253.67
659.26	9969
659.452	9901.42
659.644	9772.39
659.836	9837.93
660.028	10179.94
660.22	9764.2
660.412	9649.52
660.604	9665.9
660.796	9749.87
660.988	9534.83
661.18	9432.43
661.372	9364.85
661.563	9301.36
661.755	9244.02
661.947	9186.68
662.139	9239.92
662.331	9194.87
662.522	8959.35
662.714	9178.48
662.906	8994.17
663.097	8973.69
663.289	8992.12
663.481	8746.36
663.673	8826.23
663.864	8715.64
664.056	8582.53
664.247	8564.09
664.439	8623.48
664.631	8547.71
664.822	8605.05
665.014	8502.65
665.205	8402.3
665.397	8379.78
665.588	8244.61
665.78	8156.55
665.971	8230.27
666.163	8213.89
666.354	8252.8
666.546	8213.89
666.737	8097.16
666.929	7998.85
667.12	7964.04
667.311	8101.25
667.503	7966.09
667.694	7855.5
667.885	7875.98
668.077	7818.63
668.268	7775.63
668.459	7605.64
668.651	7654.8
668.842	7654.8
669.033	7622.03
669.224	7515.53
669.416	7546.25
669.607	7552.4
669.798	7435.66
669.989	7495.05
670.18	7394.7
670.371	7343.5
670.563	7280.02
670.754	7343.5
670.945	7310.74
671.136	7187.86
671.327	7220.63
671.518	7150.99
671.709	7310.74
671.9	7007.64
672.091	7150.99
672.282	7001.49
672.473	7056.79
672.664	7036.31
672.855	6958.49
673.046	7040.4
673.237	6962.58
673.428	6968.73
673.619	6729.11
673.809	6796.7
674	6718.87
674.191	6825.37
674.382	6737.31
674.573	6665.63
674.764	6669.72
674.954	6737.31
675.145	6708.63
675.336	6708.63
675.527	6663.58
675.717	6499.74
675.908	6579.61
676.099	6528.41
676.289	6704.54
676.48	6466.97
676.671	6524.32
676.861	6516.12
677.052	6606.24
677.243	6198.69
677.433	6315.42
677.624	6421.92
677.814	6237.6
678.005	6452.64
678.195	6229.41
678.386	6305.18
678.576	6159.78
678.767	6100.39
678.957	6180.26
679.148	6231.46
679.338	6131.11
679.529	6100.39
679.719	6217.12
679.909	6221.22
680.1	6262.18
680.29	6206.88
680.481	6100.39
680.671	6059.43
680.861	6155.68
681.052	6100.39
681.242	6069.67
681.432	6225.31
681.622	6204.83
681.813	6073.76
682.003	5873.06
682.193	5918.12
682.383	6133.15
682.573	6071.72
682.764	6098.34
682.954	5942.69
683.144	5873.06
683.334	5952.93
683.524	5655.98
683.714	6147.49
683.904	5821.86
684.094	5864.87
684.284	5922.21
684.474	5993.89
684.664	5823.91
684.854	5977.51
685.044	5830.06
685.234	5813.67
685.424	5922.21
685.614	5690.79
685.804	5807.53
685.994	5690.79
686.184	5778.86
686.374	5766.57
686.564	5590.44
686.753	5828.01
686.943	5590.44
687.133	5543.34
687.323	5533.1
687.513	5735.85
687.702	5584.3
687.892	5428.65
688.082	5520.81
688.272	5510.57
688.461	5520.81
688.651	5569.96
688.841	5397.93
689.03	5459.37
689.22	5371.31
689.41	5473.71
689.599	5459.37
689.789	5393.84
689.979	5340.59
690.168	5320.11
690.358	5156.27
690.547	5320.11
690.737	5344.69
690.926	5356.97
691.116	5090.74
691.305	5363.12
691.495	5186.99
691.684	5131.7
691.874	5295.54
692.063	5184.94
692.252	5117.36
692.442	5178.8
692.631	5148.08
692.82	5240.24
693.01	4869.56
693.199	5143.99
693.388	5045.68
693.578	4986.29
693.767	4945.33
693.956	4926.9
694.146	4988.34
694.335	5004.72
694.524	5156.27
694.713	4902.33
694.902	4955.57
695.092	5119.41
695.281	4715.96
695.47	4967.86
695.659	4863.41
695.848	4822.45
696.037	4804.02
696.226	4894.13
696.415	4863.41
696.604	4836.79
696.793	4814.26
696.982	4754.87
697.171	4937.14
697.36	4726.2
697.549	4670.9
697.738	4658.62
697.927	4718.01
698.116	4529.59
698.305	4740.54
698.494	4869.56
698.683	4631.99
698.872	4648.38
699.061	4593.08
699.25	4648.38
699.438	4570.55
699.627	4738.49
699.816	4537.79
700.005	4556.22
700.193	4566.46
700.382	4607.42
700.571	4355.52
700.76	4507.07
700.948	4611.51
701.137	4496.83
701.326	4419
701.514	4435.39
701.703	4584.89
701.892	4474.3
702.08	4459.96
702.269	4484.54
702.457	4378.05
702.646	4238.78
702.834	4398.52
703.023	4431.29
703.212	4425.15
703.4	4369.85
703.589	4181.44
703.777	4421.05
703.965	4197.82
704.154	4124.1
704.342	4146.62
704.531	4212.16
704.719	4148.67
704.907	4263.36
705.096	4103.62
705.284	4095.43
705.472	4167.1
705.661	4111.81
705.849	4083.14
706.037	4109.76
706.226	3986.88
706.414	4197.82
706.602	3976.64
706.79	4134.34
706.979	3993.03
707.167	3952.07
707.355	3976.64
707.543	3933.64
707.731	3880.39
707.919	3984.84
708.107	3962.31
708.296	3913.16
708.484	3812.81
708.672	3894.72
708.86	3806.66
709.048	3919.3
709.236	3831.24
709.424	3845.57
709.612	3870.15
709.8	3868.1
709.988	3747.27
710.176	3792.33
710.364	3804.61
710.551	3788.23
710.739	3585.48
710.927	3841.48
711.115	3780.04
711.303	3765.7
711.491	3722.7
711.679	3710.41
711.866	3798.47
712.054	3667.4
712.242	3673.54
712.43	3710.41
712.617	3755.46
712.805	3679.69
712.993	3515.85
713.181	3573.19
713.368	3620.3
713.556	3558.86
713.744	3542.47
713.931	3624.39
714.119	3554.76
714.306	3648.97
714.494	3511.75
714.682	3476.94
714.869	3468.75
715.057	3444.17
715.244	3384.78
715.432	3640.78
715.619	3521.99
715.807	3495.37
715.994	3493.32
716.182	3380.68
716.369	3374.54
716.556	3403.21
716.744	3347.92
716.931	3272.14
717.119	3354.06
717.306	3304.91
717.493	3409.36
717.681	3380.68
717.868	3286.48
718.055	3405.26
718.242	3337.68
718.43	3333.58
718.617	3290.57
718.804	3249.61
718.991	3198.42
719.179	3386.83
719.366	3100.11
719.553	3247.57
719.74	3124.69
719.927	3214.8
720.114	3161.55
720.301	3222.99
720.488	3044.82
720.676	2989.52
720.863	3065.3
721.05	3145.17
721.237	3067.35
721.424	3132.88
721.611	3202.51
721.798	2993.62
721.985	3116.5
722.172	3141.07
722.358	3042.77
722.545	3005.91
722.732	2991.57
722.919	2991.57
723.106	3014.1
723.293	2948.56
723.48	2981.33
723.667	2854.36
723.853	2932.18
724.04	2913.75
724.227	2987.47
724.414	2987.47
724.6	2921.94
724.787	2895.32
724.974	3005.91
725.161	2880.98
725.347	2780.63
725.534	2858.45
725.72	2934.23
725.907	2813.4
726.094	2913.75
726.28	2964.95
726.467	2749.91
726.653	2829.78
726.84	2895.32
727.027	2864.6
727.213	2893.27
727.4	2932.18
727.586	2821.59
727.773	2731.48
727.959	2870.74
728.145	2792.92
728.332	2727.38
728.518	2627.03
728.705	2651.61
728.891	2751.96
729.077	2706.9
729.264	2657.75
729.45	2764.25
729.636	2698.71
729.823	2711
730.009	2678.23
730.195	2739.67
730.382	2776.53
730.568	2743.77
730.754	2682.33
730.94	2549.21
731.126	2686.42
731.313	2706.9
731.499	2708.95
731.685	2633.18
731.871	2524.63
732.057	2528.73
732.243	2569.69
732.429	2631.13
732.615	2538.97
732.801	2684.38
732.987	2489.82
733.173	2489.82
733.359	2467.29
733.545	2653.66
733.731	2534.87
733.917	2465.24
734.103	2481.63
734.289	2534.87
734.475	2485.72
734.661	2461.15
734.847	2487.77
735.033	2465.24
735.219	2405.85
735.404	2387.42
735.59	2493.91
735.776	2379.23
735.962	2409.95
736.148	2414.04
736.333	2522.59
736.519	2395.61
736.705	2379.23
736.89	2362.84
737.076	2455
737.262	2297.31
737.447	2346.46
737.633	2436.57
737.819	2467.29
738.004	2379.23
738.19	2223.58
738.375	2362.84
738.561	2379.23
738.747	2272.73
738.932	2186.72
739.118	2321.88
739.303	2182.62
739.489	2366.94
739.674	2311.64
739.859	2248.16
740.045	2301.4
740.23	2264.54
740.416	2303.45
740.601	2332.12
740.786	2172.38
740.972	2170.33
741.157	2225.63
741.342	2127.33
741.528	2133.47
741.713	2266.59
741.898	2162.14
742.084	2190.81
742.269	2174.43
742.454	2201.05
742.639	2098.66
742.824	2053.6
743.01	2067.94
743.195	2059.74
743.38	2082.27
743.565	2037.22
743.75	2092.51
743.935	2031.07
744.12	2115.04
744.305	1990.11
744.49	2053.6
744.675	1963.49
744.86	1916.39
745.045	1988.07
745.23	1977.83
745.415	2000.35
745.6	1906.15
745.785	1936.87
745.97	1977.83
746.155	2026.98
746.34	1764.84
746.525	1828.32
746.71	1895.91
746.895	1889.76
747.079	1945.06
747.264	1799.65
747.449	1795.56
747.634	1773.03
747.819	1859.04
748.003	1680.87
748.188	1766.89
748.373	1715.69
748.557	1834.47
748.742	1756.65
748.927	1795.56
749.111	1785.32
749.296	1639.91
749.481	1723.88
749.665	1756.65
749.85	1658.34
750.034	1695.21
750.219	1730.02
750.404	1691.11
750.588	1707.49
750.773	1691.11
750.957	1674.73
751.141	1578.47
751.326	1605.1
751.51	1590.76
751.695	1580.52
751.879	1555.94
752.064	1517.03
752.248	1588.71
752.432	1562.09
752.617	1611.24
752.801	1560.04
752.985	1517.03
753.17	1496.55
753.354	1519.08
753.538	1494.51
753.722	1406.44
753.907	1564.14
754.091	1471.98
754.275	1396.2
754.459	1396.2
754.643	1330.67
754.828	1471.98
755.012	1390.06
755.196	1431.02
755.38	1367.53
755.564	1400.3
755.748	1289.71
755.932	1381.87
756.116	1400.3
756.3	1424.87
756.484	1359.34
756.668	1302
756.852	1242.61
757.036	1336.81
757.22	1267.18
757.404	1203.69
757.588	1142.25
757.772	1246.7
757.956	1199.6
758.14	1195.5
758.323	1256.94
758.507	1170.93
758.691	1207.79
758.875	1289.71
759.059	1232.37
759.242	1123.82
759.426	1183.21
759.61	1209.84
759.794	1234.41
759.977	1134.06
760.161	1162.73
760.345	1125.87
760.528	1160.69
760.712	1093.1
760.895	1164.78
761.079	1160.69
761.263	1058.29
761.446	1117.68
761.63	1056.24
761.813	1158.64
761.997	1002.99
762.18	1115.63
762.364	1181.17
762.547	1074.67
762.731	1127.92
762.914	1158.64
763.098	974.32
763.281	1015.28
763.464	1068.53
763.648	996.85
763.831	1015.28
764.015	1037.81
764.198	980.47
764.381	1011.18
764.564	1011.18
764.748	1056.24
764.931	1037.81
765.114	970.23
765.297	1043.95
765.481	929.27
765.664	914.93
765.847	1033.71
766.03	1093.1
766.213	916.98
766.397	964.08
766.58	937.46
766.763	945.65
766.946	884.21
767.129	962.03
767.312	939.51
767.495	974.32
767.678	896.5
767.861	849.4
768.044	876.02
768.227	994.8
768.41	949.75
768.593	880.11
768.776	972.27
768.959	962.03
769.142	964.08
769.324	974.32
769.507	914.93
769.69	898.55
769.873	937.46
770.056	978.42
770.239	839.16
770.421	988.66
770.604	861.68
770.787	880.11
770.97	935.41
771.152	828.92
771.335	839.16
771.518	798.2
771.7	929.27
771.883	808.44
772.066	849.4
772.248	900.59
772.431	896.5
772.613	830.96
772.796	880.11
772.978	767.48
773.161	810.48
773.343	806.39
773.526	830.96
773.708	740.85
773.891	732.66
774.073	804.34
774.256	808.44
774.438	781.81
774.621	804.34
774.803	775.67
774.985	652.79
775.168	814.58
775.35	703.99
775.532	724.47
775.715	790
775.897	757.24
776.079	673.27
776.261	806.39
776.444	677.37
776.626	703.99
776.808	703.99
776.99	613.88
777.173	722.42
777.355	724.47
777.537	628.21
777.719	611.83
777.901	660.98
778.083	683.51
778.265	665.08
778.447	712.18
778.629	601.59
778.811	615.93
778.993	675.32
779.175	675.32
779.357	611.83
779.539	597.49
779.721	703.99
779.903	601.59
780.085	613.88
780.267	630.26
780.449	601.59
780.631	638.45
780.812	671.22
780.994	581.11
781.176	583.16
781.358	538.1
781.54	552.44
781.721	570.87
781.903	589.3
782.085	513.53
782.267	597.49
782.448	511.48
782.63	562.68
782.812	548.34
782.993	470.52
783.175	544.25
783.357	583.16
783.538	536.06
783.72	488.95
783.901	511.48
784.083	581.11
784.264	568.82
784.446	544.25
784.627	472.57
784.809	650.74
784.99	437.75
785.172	527.86
785.353	478.71
785.535	503.29
785.716	542.2
785.897	431.61
786.079	486.9
786.26	466.42
786.441	482.81
786.623	349.69
786.804	495.1
786.985	454.14
787.167	454.14
787.348	404.99
787.529	388.6
787.71	491
787.891	454.14
788.073	454.14
788.254	339.45
788.435	402.94
788.616	452.09
788.797	445.95
788.978	476.66
789.159	372.22
789.34	374.27
789.522	431.61
789.703	398.84
789.884	417.27
790.065	407.03
790.246	427.51
790.427	364.03
790.607	404.99
790.788	347.64
790.969	323.07
791.15	435.71
791.331	368.12
791.512	398.84
791.693	294.4
791.874	437.75
792.054	443.9
792.235	394.75
792.416	357.88
792.597	327.16
792.778	341.5
792.958	388.6
793.139	335.35
793.32	273.92
793.5	366.07
793.681	364.03
793.862	417.27
794.042	318.97
794.223	347.64
794.404	331.26
794.584	308.73
794.765	300.54
794.945	316.92
795.126	353.79
795.306	355.83
795.487	302.59
795.667	239.1
795.848	339.45
796.028	275.96
796.209	275.96
796.389	282.11
796.57	308.73
796.75	310.78
796.93	331.26
797.111	314.88
797.291	275.96
797.471	273.92
797.652	347.64
797.832	251.39
798.012	241.15
798.192	312.83
798.373	284.16
798.553	194.05
798.733	294.4
798.913	249.34
799.093	265.72
799.274	222.72
799.454	284.16
799.634	282.11
799.814	316.92
799.994	292.35
800.174	355.83
800.354	249.34
800.534	185.85
800.714	265.72
800.894	218.62
801.074	241.15
801.254	265.72
801.434	265.72
801.614	183.81
801.794	255.48
801.974	966.13
802.154	204.28
802.334	302.59
802.514	212.48
802.693	216.57
802.873	214.52
803.053	232.96
803.233	314.88
803.413	216.57
803.592	237.05
803.772	208.38
803.952	290.3
804.131	200.19
804.311	171.52
804.491	290.3
804.67	208.38
804.85	232.96
805.03	224.76
805.209	220.67
805.389	142.85
805.568	159.23
805.748	208.38
805.928	210.43
806.107	239.1
806.287	265.72
806.466	216.57
806.646	243.2
806.825	171.52
807.004	192
807.184	265.72
807.363	249.34
807.543	185.85
807.722	200.19
807.901	257.53
808.081	161.28
808.26	60.93
808.439	177.66
808.619	142.85
808.798	212.48
808.977	128.51
809.156	241.15
809.336	183.81
809.515	153.09
809.694	167.42
809.873	194.05
810.052	202.24
810.231	187.9
810.411	159.23
810.59	237.05
810.769	116.22
810.948	177.66
811.127	142.85
811.306	165.37
811.485	159.23
811.664	183.81
811.843	194.05
812.022	194.05
812.201	265.72
812.38	136.7
812.559	200.19
812.737	183.81
812.916	138.75
813.095	138.75
813.274	185.85
813.453	208.38
813.632	136.7
813.811	134.65
813.989	114.17
814.168	179.71
814.347	71.17
814.526	151.04
814.704	253.44
814.883	187.9
815.062	67.07
815.24	157.18
815.419	157.18
815.598	194.05
815.776	126.46
815.955	194.05
816.133	50.69
816.312	179.71
816.49	159.23
816.669	134.65
816.847	71.17
817.026	118.27
817.204	110.08
817.383	167.42
817.561	22.02
817.74	134.65
817.918	200.19
818.097	163.33
818.275	15.87
818.453	112.13
818.632	175.61
818.81	97.79
818.988	128.51
819.167	120.32
819.345	83.45
819.523	85.5
819.701	142.85
819.879	95.74
820.058	60.93
820.236	167.42
820.414	110.08
820.592	54.78
820.77	79.36
820.948	124.41
821.127	85.5
821.305	118.27
821.483	60.93
821.661	110.08
821.839	97.79
822.017	81.41
822.195	97.79
822.373	118.27
822.551	56.83
822.729	155.13
822.907	38.4
823.085	167.42
823.262	120.32
823.44	105.98
823.618	77.31
823.796	36.35
823.974	79.36
824.152	87.55
824.329	97.79
824.507	114.17
824.685	138.75
824.863	114.17
825.04	101.89
825.218	126.46
825.396	128.51
825.574	103.93
825.751	87.55
825.929	79.36
826.107	97.79
826.284	194.05
826.462	69.12
826.639	85.5
826.817	71.17
826.994	175.61
827.172	48.64
827.349	185.85
827.527	1.54
827.704	105.98
827.882	69.12
828.059	126.46
828.237	134.65
828.414	153.09
828.591	89.6
828.769	144.89
828.946	19.97
829.124	126.46
829.301	95.74
829.478	65.02
829.655	159.23
829.833	77.31
830.01	77.31
830.187	159.23
830.364	48.64
830.542	146.94
830.719	122.37
830.896	124.41
831.073	52.74
831.25	69.12
831.427	97.79
831.604	44.54
831.782	73.21
831.959	50.69
832.136	120.32
832.313	85.5
832.49	60.93
832.667	101.89
832.844	65.02
833.021	167.42
833.198	130.56
833.374	108.03
833.551	22.02
833.728	71.17
833.905	110.08
834.082	-41.47
834.259	208.38
834.436	116.22
834.612	3.58
834.789	93.69
834.966	11.78
835.143	46.59
835.319	89.6
835.496	144.89
835.673	110.08
835.85	101.89
836.026	122.37
836.203	146.94
836.38	99.84
836.556	60.93
836.733	28.16
836.909	118.27
837.086	50.69
837.262	11.78
837.439	128.51
837.616	32.26
837.792	81.41
837.968	44.54
838.145	36.35
838.321	91.65
838.498	95.74
838.674	48.64
838.851	112.13
839.027	48.64
839.203	128.51
839.38	144.89
839.556	30.21
839.732	87.55
839.909	17.92
840.085	-6.66
840.261	44.54
840.437	44.54
840.614	-4.61
840.79	85.5
840.966	103.93
841.142	11.78
841.318	34.3
841.494	36.35
841.671	101.89
841.847	-18.94
842.023	44.54
842.199	75.26
842.375	87.55
842.551	38.4
842.727	60.93
842.903	30.21
843.079	48.64
843.255	99.84
843.431	99.84
843.607	48.64
843.783	-59.9
843.959	93.69
844.134	85.5
844.31	54.78
844.486	38.4
844.662	7.68
844.838	52.74
845.013	24.06
845.189	52.74
845.365	69.12
845.541	126.46
845.716	44.54
845.892	89.6
846.068	19.97
846.244	7.68
846.419	69.12
846.595	3.58
846.77	17.92
846.946	30.21
847.122	62.98
847.297	87.55
847.473	73.21
847.648	-10.75
847.824	60.93
847.999	28.16
848.175	103.93
848.35	34.3
848.526	81.41
848.701	13.82
848.876	62.98
849.052	46.59
849.227	42.5
849.403	3.58
849.578	36.35
849.753	69.12
849.929	77.31
850.104	-49.66
850.279	73.21
850.454	81.41
850.63	44.54
850.805	83.45
850.98	15.87
851.155	54.78
851.33	28.16
851.505	36.35
851.681	85.5
851.856	9.73
852.031	28.16
852.206	-6.66
852.381	1.54
852.556	19.97
852.731	42.5
852.906	65.02
853.081	69.12
853.256	71.17
853.431	89.6
853.606	-33.28
853.781	38.4
853.956	-29.18
854.131	62.98
854.305	-12.8
854.48	75.26
854.655	19.97
854.83	40.45
855.005	-18.94
855.18	54.78
855.354	9.73
855.529	19.97
855.704	138.75
855.879	93.69
856.053	1.54
856.228	81.41
856.403	-8.7
856.577	24.06
856.752	3.58
856.926	69.12
857.101	28.16
857.276	22.02
857.45	24.06
857.625	28.16
857.799	-49.66
857.974	52.74
858.148	-68.09
858.323	40.45
858.497	19.97
858.672	19.97
858.846	38.4
859.02	56.83
859.195	44.54
859.369	110.08
859.543	-53.76
859.718	60.93
859.892	62.98
860.066	71.17
860.241	-10.75
860.415	38.4
860.589	11.78
860.763	24.06
860.938	-59.9
861.112	73.21
861.286	28.16
861.46	11.78
861.634	11.78
861.808	48.64
861.982	-29.18
862.157	-4.61
862.331	-10.75
862.505	-84.48
862.679	50.69
862.853	60.93
863.027	-51.71
863.201	155.13
863.375	-16.9
863.549	11.78
863.722	62.98
863.896	97.79
864.07	-23.04
864.244	52.74
864.418	13.82
864.592	56.83
864.766	79.36
864.939	44.54
865.113	22.02
865.287	95.74
865.461	44.54
865.634	42.5
865.808	77.31
865.982	-10.75
866.156	-20.99
866.329	19.97
866.503	24.06
866.676	48.64
866.85	28.16
867.024	69.12
867.197	71.17
867.371	28.16
867.544	101.89
867.718	-31.23
867.891	77.31
868.065	5.63
868.238	7.68
868.412	97.79
868.585	75.26
868.759	-61.95
868.932	32.26
869.105	36.35
869.279	-20.99
869.452	24.06
869.625	40.45
869.799	40.45
869.972	13.82
870.145	28.16
870.319	54.78
870.492	11.78
870.665	62.98
870.838	-6.66
871.011	-35.33
871.185	24.06
871.358	-33.28
871.531	30.21
871.704	44.54
871.877	36.35
872.05	65.02
872.223	11.78
872.396	60.93
872.569	52.74
872.742	-51.71
872.915	11.78
873.088	32.26
873.261	-20.99
873.434	-4.61
873.607	13.82
873.78	69.12
873.953	36.35
874.126	-14.85
874.299	144.89
874.471	11.78
874.644	-16.9
874.817	-29.18
874.99	132.61
875.163	-98.81
875.335	-20.99
875.508	-59.9
875.681	62.98
875.853	-61.95
876.026	-20.99
876.199	-4.61
876.371	40.45
876.544	7.68
876.717	-12.8
876.889	-37.38
877.062	87.55
877.234	-57.86
877.407	28.16
877.579	3.58
877.752	-53.76
877.924	22.02
878.097	30.21
878.269	-51.71
878.442	87.55
878.614	-49.66
878.786	3.58
878.959	44.54
879.131	93.69
879.303	-37.38
879.476	7.68
879.648	62.98
879.82	30.21
879.993	11.78
880.165	-37.38
880.337	-27.14
880.509	44.54
880.681	-33.28
880.854	-0.51
881.026	15.87
881.198	65.02
881.37	-61.95
881.542	5.63
881.714	-18.94
881.886	-4.61
882.058	-16.9
882.23	46.59
882.402	-53.76
882.574	34.3
882.746	3.58
882.918	69.12
883.09	30.21
883.262	85.5
883.434	-4.61
883.606	-98.81
883.778	40.45
883.95	3.58
884.122	3.58
884.293	-14.85
884.465	5.63
884.637	28.16
884.809	34.3
884.98	15.87
885.152	-33.28
885.324	9.73
885.496	36.35
885.667	-45.57
885.839	-8.7
886.011	85.5
886.182	40.45
886.354	-76.29
886.525	46.59
886.697	-72.19
886.869	-82.43
887.04	-76.29
887.212	69.12
887.383	17.92
887.555	19.97
887.726	24.06
887.897	28.16
888.069	36.35
888.24	54.78
888.412	13.82
888.583	-6.66
888.754	-57.86
888.926	3.58
889.097	-18.94
889.268	-4.61
889.44	36.35
889.611	-59.9
889.782	-27.14
889.953	-4.61
890.125	93.69
890.296	15.87
890.467	9.73
890.638	-37.38
890.809	52.74
890.98	-35.33
891.151	73.21
891.323	13.82
891.494	65.02
891.665	69.12
891.836	-18.94
892.007	-18.94
892.178	7.68
892.349	30.21
892.52	-4.61
892.691	56.83
892.862	-0.51
893.032	-37.38
893.203	7.68
893.374	-49.66
893.545	-16.9
893.716	-53.76
893.887	97.79
894.057	-41.47
894.228	9.73
894.399	26.11
894.57	69.12
894.74	79.36
894.911	17.92
895.082	-70.14
895.253	-2.56
895.423	-94.72
895.594	7.68
895.764	-74.24
895.935	54.78
896.106	60.93
896.276	3.58
896.447	-45.57
896.617	-20.99
896.788	-4.61
896.958	71.17
897.129	-23.04
897.299	-37.38
897.47	7.68
897.64	36.35
897.81	-33.28
897.981	22.02
898.151	-25.09
898.322	3.58
898.492	-82.43
898.662	-18.94
898.832	-29.18
899.003	30.21
899.173	30.21
899.343	46.59
899.513	36.35
