Data from USB4F104151__243__14-34-10-036.txt Node

Date: Thu Mar 13 14:34:10 EDT 2025
User: louis
Spectrometer: USB4F10415
Trigger mode: 4
Integration Time (sec): 2.500000E-2
Scans to average: 1
Electric dark correction enabled: true
Nonlinearity correction enabled: false
Boxcar width: 0
XAxis mode: Wavelengths
Number of Pixels in Spectrum: 3648
>>>>>Begin Spectral Data<<<<<
178.204	-193.36
178.424	-193.36
178.644	-193.36
178.864	-193.36
179.084	-152.4
179.304	5.29
179.524	-31.57
179.744	11.43
179.964	-29.52
180.184	-45.91
180.404	36.01
180.624	-27.48
180.844	-9.05
181.064	13.48
181.283	-11.09
181.503	27.82
181.723	60.59
181.943	-125.78
182.163	113.83
182.383	-37.72
182.602	33.96
182.822	27.82
183.042	52.39
183.262	11.43
183.482	-62.29
183.701	38.06
183.921	72.87
184.141	5.29
184.361	56.49
184.58	72.87
184.8	66.73
185.02	31.91
185.239	48.3
185.459	13.48
185.679	81.07
185.898	-29.52
186.118	-37.72
186.338	-43.86
186.557	27.82
186.777	-33.62
186.997	-4.95
187.216	-54.1
187.436	54.44
187.655	23.72
187.875	93.35
188.095	-21.33
188.314	38.06
188.534	38.06
188.753	11.43
188.973	60.59
189.192	68.78
189.412	13.48
189.631	11.43
189.851	-2.9
190.07	101.55
190.29	-33.62
190.509	-9.05
190.729	-11.09
190.948	48.3
191.168	165.03
191.387	19.63
191.607	31.91
191.826	-31.57
192.045	-4.95
192.265	-2.9
192.484	21.67
192.704	70.83
192.923	-52.05
193.142	87.21
193.362	48.3
193.581	79.02
193.8	95.4
194.02	74.92
194.239	-64.34
194.458	3.24
194.678	-19.29
194.897	29.87
195.116	109.74
195.335	-21.33
195.555	-4.95
195.774	70.83
195.993	46.25
196.212	15.53
196.432	-7
196.651	27.82
196.87	17.58
197.089	44.2
197.308	60.59
197.528	60.59
197.747	-43.86
197.966	-25.43
198.185	58.54
198.404	-9.05
198.623	13.48
198.842	36.01
199.062	27.82
199.281	46.25
199.5	-13.14
199.719	-54.1
199.938	11.43
200.157	76.97
200.376	52.39
200.595	38.06
200.814	5.29
201.033	11.43
201.252	40.11
201.471	38.06
201.69	46.25
201.909	52.39
202.128	68.78
202.347	50.35
202.566	19.63
202.785	5.29
203.004	-21.33
203.223	70.83
203.442	3.24
203.661	29.87
203.879	-41.81
204.098	64.68
204.317	5.29
204.536	62.63
204.755	40.11
204.974	36.01
205.193	23.72
205.411	33.96
205.63	31.91
205.849	15.53
206.068	50.35
206.287	3.24
206.505	27.82
206.724	11.43
206.943	56.49
207.162	13.48
207.381	1.19
207.599	29.87
207.818	66.73
208.037	-45.91
208.255	-25.43
208.474	-11.09
208.693	11.43
208.911	15.53
209.13	40.11
209.349	31.91
209.567	21.67
209.786	101.55
210.005	36.01
210.223	58.54
210.442	-60.24
210.661	52.39
210.879	56.49
211.098	-33.62
211.316	89.26
211.535	56.49
211.753	74.92
211.972	36.01
212.191	44.2
212.409	68.78
212.628	-7
212.846	76.97
213.065	23.72
213.283	70.83
213.502	3.24
213.72	-0.85
213.938	48.3
214.157	52.39
214.375	54.44
214.594	38.06
214.812	27.82
215.031	-4.95
215.249	52.39
215.467	25.77
215.686	15.53
215.904	29.87
216.122	40.11
216.341	79.02
216.559	29.87
216.778	60.59
216.996	76.97
217.214	3.24
217.432	-35.67
217.651	-29.52
217.869	-4.95
218.087	-0.85
218.306	-27.48
218.524	72.87
218.742	-35.67
218.96	36.01
219.179	50.35
219.397	76.97
219.615	93.35
219.833	3.24
220.051	29.87
220.27	103.59
220.488	66.73
220.706	3.24
220.924	19.63
221.142	19.63
221.36	-2.9
221.578	29.87
221.796	97.45
222.015	27.82
222.233	85.16
222.451	56.49
222.669	29.87
222.887	-13.14
223.105	-13.14
223.323	-25.43
223.541	93.35
223.759	76.97
223.977	54.44
224.195	152.74
224.413	46.25
224.631	19.63
224.849	-13.14
225.067	107.69
225.285	11.43
225.503	19.63
225.721	52.39
225.939	40.11
226.157	62.63
226.375	111.78
226.592	-50
226.81	87.21
227.028	79.02
227.246	122.02
227.464	23.72
227.682	19.63
227.9	19.63
228.117	11.43
228.335	60.59
228.553	5.29
228.771	27.82
228.989	-2.9
229.206	56.49
229.424	-13.14
229.642	-37.72
229.86	-2.9
230.077	89.26
230.295	27.82
230.513	29.87
230.731	44.2
230.948	64.68
231.166	83.11
231.384	-37.72
231.601	-47.96
231.819	60.59
232.037	-45.91
232.254	31.91
232.472	60.59
232.689	36.01
232.907	15.53
233.125	1.19
233.342	-62.29
233.56	23.72
233.777	13.48
233.995	36.01
234.213	81.07
234.43	-17.24
234.648	13.48
234.865	-25.43
235.083	-45.91
235.3	48.3
235.518	-60.24
235.735	95.4
235.953	85.16
236.17	87.21
236.388	-9.05
236.605	-4.95
236.822	38.06
237.04	38.06
237.257	7.34
237.475	-13.14
237.692	7.34
237.909	-29.52
238.127	27.82
238.344	46.25
238.562	60.59
238.779	-4.95
238.996	-9.05
239.214	58.54
239.431	76.97
239.648	-2.9
239.865	33.96
240.083	89.26
240.3	-7
240.517	11.43
240.735	87.21
240.952	36.01
241.169	23.72
241.386	72.87
241.603	101.55
241.821	3.24
242.038	117.93
242.255	66.73
242.472	-0.85
242.689	27.82
242.907	38.06
243.124	46.25
243.341	-23.38
243.558	31.91
243.775	-58.2
243.992	-0.85
244.209	44.2
244.426	19.63
244.643	21.67
244.86	36.01
245.078	7.34
245.295	27.82
245.512	27.82
245.729	-21.33
245.946	7.34
246.163	52.39
246.38	-21.33
246.597	3.24
246.814	23.72
247.031	46.25
247.248	21.67
247.464	56.49
247.681	13.48
247.898	-0.85
248.115	19.63
248.332	-62.29
248.549	117.93
248.766	79.02
248.983	89.26
249.2	-45.91
249.417	56.49
249.633	13.48
249.85	54.44
250.067	31.91
250.284	60.59
250.501	33.96
250.717	48.3
250.934	-27.48
251.151	7.34
251.368	50.35
251.585	72.87
251.801	85.16
252.018	58.54
252.235	-23.38
252.451	-37.72
252.668	-37.72
252.885	11.43
253.102	29.87
253.318	27.82
253.535	5.29
253.752	27.82
253.968	-21.33
254.185	19.63
254.401	89.26
254.618	70.83
254.835	54.44
255.051	134.31
255.268	13.48
255.484	-41.81
255.701	-21.33
255.917	-21.33
256.134	-9.05
256.351	1.19
256.567	-43.86
256.784	-9.05
257	-19.29
257.217	62.63
257.433	85.16
257.65	44.2
257.866	31.91
258.082	-29.52
258.299	-4.95
258.515	52.39
258.732	5.29
258.948	25.77
259.165	7.34
259.381	19.63
259.597	103.59
259.814	40.11
260.03	-66.39
260.246	27.82
260.463	-13.14
260.679	27.82
260.895	76.97
261.112	25.77
261.328	122.02
261.544	27.82
261.761	44.2
261.977	-13.14
262.193	-60.24
262.409	3.24
262.626	97.45
262.842	-4.95
263.058	-58.2
263.274	29.87
263.49	48.3
263.707	44.2
263.923	3.24
264.139	5.29
264.355	-29.52
264.571	27.82
264.787	11.43
265.004	46.25
265.22	-2.9
265.436	-21.33
265.652	76.97
265.868	46.25
266.084	-0.85
266.3	36.01
266.516	-66.39
266.732	-21.33
266.948	-19.29
267.164	5.29
267.38	76.97
267.596	85.16
267.812	52.39
268.028	62.63
268.244	48.3
268.46	76.97
268.676	70.83
268.892	79.02
269.108	87.21
269.324	11.43
269.54	-54.1
269.756	97.45
269.972	-21.33
270.188	17.58
270.403	-52.05
270.619	31.91
270.835	21.67
271.051	64.68
271.267	-13.14
271.483	-4.95
271.698	105.64
271.914	52.39
272.13	44.2
272.346	29.87
272.562	11.43
272.777	50.35
272.993	-2.9
273.209	72.87
273.425	3.24
273.64	48.3
273.856	76.97
274.072	-2.9
274.287	27.82
274.503	101.55
274.719	81.07
274.934	44.2
275.15	-29.52
275.366	-11.09
275.581	81.07
275.797	44.2
276.012	17.58
276.228	-25.43
276.444	-13.14
276.659	105.64
276.875	-52.05
277.09	21.67
277.306	58.54
277.521	56.49
277.737	134.31
277.952	29.87
278.168	-45.91
278.383	-2.9
278.599	38.06
278.814	11.43
279.03	15.53
279.245	52.39
279.461	11.43
279.676	-21.33
279.892	-64.34
280.107	5.29
280.322	5.29
280.538	-2.9
280.753	36.01
280.969	42.15
281.184	58.54
281.399	33.96
281.615	54.44
281.83	93.35
282.045	68.78
282.26	13.48
282.476	54.44
282.691	1.19
282.906	3.24
283.122	40.11
283.337	13.48
283.552	81.07
283.767	15.53
283.983	113.83
284.198	-11.09
284.413	46.25
284.628	3.24
284.843	76.97
285.058	13.48
285.274	27.82
285.489	-39.76
285.704	113.83
285.919	-39.76
286.134	21.67
286.349	11.43
286.564	52.39
286.779	76.97
286.995	52.39
287.21	-19.29
287.425	119.98
287.64	-78.68
287.855	89.26
288.07	40.11
288.285	27.82
288.5	97.45
288.715	31.91
288.93	31.91
289.145	-19.29
289.36	31.91
289.575	-4.95
289.79	46.25
290.004	-19.29
290.219	109.74
290.434	15.53
290.649	36.01
290.864	19.63
291.079	31.91
291.294	-43.86
291.509	44.2
291.724	72.87
291.938	58.54
292.153	54.44
292.368	3.24
292.583	19.63
292.798	60.59
293.012	85.16
293.227	-11.09
293.442	68.78
293.657	56.49
293.871	68.78
294.086	56.49
294.301	103.59
294.516	83.11
294.73	-4.95
294.945	-13.14
295.16	38.06
295.374	81.07
295.589	60.59
295.804	36.01
296.018	70.83
296.233	68.78
296.447	38.06
296.662	-70.48
296.877	56.49
297.091	33.96
297.306	-19.29
297.52	17.58
297.735	27.82
297.949	7.34
298.164	27.82
298.378	13.48
298.593	3.24
298.807	-54.1
299.022	103.59
299.236	81.07
299.451	-54.1
299.665	62.63
299.88	27.82
300.094	64.68
300.309	31.91
300.523	-4.95
300.737	-54.1
300.952	64.68
301.166	126.12
301.381	44.2
301.595	-9.05
301.809	-21.33
302.024	62.63
302.238	3.24
302.452	54.44
302.667	-23.38
302.881	97.45
303.095	46.25
303.309	-7
303.524	76.97
303.738	3.24
303.952	38.06
304.166	31.91
304.381	-66.39
304.595	93.35
304.809	-4.95
305.023	79.02
305.237	11.43
305.452	109.74
305.666	38.06
305.88	93.35
306.094	64.68
306.308	62.63
306.522	36.01
306.736	-29.52
306.95	-4.95
307.164	46.25
307.379	38.06
307.593	9.39
307.807	56.49
308.021	36.01
308.235	-2.9
308.449	5.29
308.663	44.2
308.877	85.16
309.091	68.78
309.305	27.82
309.519	11.43
309.733	52.39
309.947	3.24
310.161	3.24
310.374	11.43
310.588	36.01
310.802	64.68
311.016	87.21
311.23	48.3
311.444	5.29
311.658	40.11
311.872	31.91
312.085	109.74
312.299	36.01
312.513	11.43
312.727	38.06
312.941	36.01
313.154	64.68
313.368	15.53
313.582	11.43
313.796	48.3
314.009	-7
314.223	36.01
314.437	7.34
314.651	-4.95
314.864	87.21
315.078	23.72
315.292	40.11
315.505	7.34
315.719	21.67
315.933	29.87
316.146	-74.58
316.36	-25.43
316.573	54.44
316.787	93.35
317.001	-19.29
317.214	85.16
317.428	76.97
317.641	46.25
317.855	-17.24
318.068	27.82
318.282	70.83
318.495	23.72
318.709	-9.05
318.922	-45.91
319.136	60.59
319.349	117.93
319.563	68.78
319.776	50.35
319.99	-41.81
320.203	-2.9
320.417	27.82
320.63	138.41
320.843	46.25
321.057	44.2
321.27	81.07
321.483	56.49
321.697	138.41
321.91	68.78
322.124	50.35
322.337	167.08
322.55	21.67
322.763	-13.14
322.977	27.82
323.19	3.24
323.403	36.01
323.617	27.82
323.83	97.45
324.043	40.11
324.256	33.96
324.469	-25.43
324.683	46.25
324.896	36.01
325.109	89.26
325.322	-19.29
325.535	7.34
325.748	85.16
325.962	36.01
326.175	-13.14
326.388	-37.72
326.601	19.63
326.814	13.48
327.027	52.39
327.24	42.15
327.453	5.29
327.666	38.06
327.879	52.39
328.092	81.07
328.305	-17.24
328.518	44.2
328.731	42.15
328.944	46.25
329.157	44.2
329.37	113.83
329.583	68.78
329.796	70.83
330.009	-13.14
330.222	-27.48
330.435	70.83
330.648	126.12
330.861	-0.85
331.073	66.73
331.286	56.49
331.499	48.3
331.712	46.25
331.925	5.29
332.138	52.39
332.35	76.97
332.563	-11.09
332.776	-0.85
332.989	15.53
333.202	15.53
333.414	44.2
333.627	72.87
333.84	64.68
334.053	23.72
334.265	33.96
334.478	27.82
334.691	11.43
334.903	-70.48
335.116	36.01
335.329	85.16
335.541	46.25
335.754	70.83
335.966	3.24
336.179	54.44
336.392	93.35
336.604	38.06
336.817	91.31
337.029	33.96
337.242	54.44
337.454	169.13
337.667	40.11
337.88	134.31
338.092	52.39
338.305	44.2
338.517	-4.95
338.729	66.73
338.942	72.87
339.154	-21.33
339.367	40.11
339.579	52.39
339.792	-33.62
340.004	31.91
340.217	36.01
340.429	1.19
340.641	38.06
340.854	48.3
341.066	68.78
341.278	85.16
341.491	179.37
341.703	68.78
341.915	-4.95
342.128	85.16
342.34	-37.72
342.552	60.59
342.764	36.01
342.977	-25.43
343.189	62.63
343.401	-11.09
343.613	-52.05
343.826	-4.95
344.038	-70.48
344.25	68.78
344.462	13.48
344.674	33.96
344.886	36.01
345.099	109.74
345.311	56.49
345.523	29.87
345.735	-9.05
345.947	38.06
346.159	64.68
346.371	7.34
346.583	13.48
346.795	144.55
347.007	68.78
347.219	1.19
347.431	3.24
347.643	134.31
347.855	-0.85
348.067	87.21
348.279	76.97
348.491	46.25
348.703	36.01
348.915	36.01
349.127	19.63
349.339	36.01
349.551	-21.33
349.763	44.2
349.975	79.02
350.187	87.21
350.399	83.11
350.61	103.59
350.822	-62.29
351.034	36.01
351.246	48.3
351.458	27.82
351.669	72.87
351.881	111.78
352.093	150.7
352.305	87.21
352.517	101.55
352.728	99.5
352.94	19.63
353.152	19.63
353.363	36.01
353.575	36.01
353.787	68.78
353.999	81.07
354.21	109.74
354.422	56.49
354.633	13.48
354.845	60.59
355.057	109.74
355.268	-23.38
355.48	44.2
355.692	3.24
355.903	7.34
356.115	50.35
356.326	-4.95
356.538	93.35
356.749	48.3
356.961	50.35
357.172	15.53
357.384	-19.29
357.595	99.5
357.807	44.2
358.018	68.78
358.23	56.49
358.441	134.31
358.653	81.07
358.864	5.29
359.075	3.24
359.287	74.92
359.498	150.7
359.709	29.87
359.921	56.49
360.132	15.53
360.344	60.59
360.555	-0.85
360.766	58.54
360.977	44.2
361.189	109.74
361.4	-13.14
361.611	60.59
361.823	23.72
362.034	25.77
362.245	-37.72
362.456	42.15
362.667	66.73
362.879	-13.14
363.09	46.25
363.301	-15.19
363.512	-62.29
363.723	105.64
363.935	19.63
364.146	89.26
364.357	56.49
364.568	-4.95
364.779	36.01
364.99	101.55
365.201	33.96
365.412	54.44
365.623	44.2
365.834	-11.09
366.045	54.44
366.256	50.35
366.467	119.98
366.678	-0.85
366.889	9.39
367.1	-4.95
367.311	-21.33
367.522	13.48
367.733	19.63
367.944	60.59
368.155	42.15
368.366	48.3
368.577	95.4
368.788	68.78
368.999	44.2
369.209	105.64
369.42	105.64
369.631	109.74
369.842	103.59
370.053	19.63
370.264	3.24
370.474	-2.9
370.685	19.63
370.896	109.74
371.107	87.21
371.317	46.25
371.528	11.43
371.739	103.59
371.95	66.73
372.16	76.97
372.371	46.25
372.582	-13.14
372.792	62.63
373.003	76.97
373.214	76.97
373.424	54.44
373.635	60.59
373.846	58.54
374.056	27.82
374.267	15.53
374.477	46.25
374.688	79.02
374.898	101.55
375.109	42.15
375.319	56.49
375.53	46.25
375.74	-2.9
375.951	-13.14
376.161	142.5
376.372	72.87
376.582	-25.43
376.793	42.15
377.003	-17.24
377.214	40.11
377.424	93.35
377.635	62.63
377.845	19.63
378.055	64.68
378.266	17.58
378.476	25.77
378.686	105.64
378.897	23.72
379.107	64.68
379.317	27.82
379.528	60.59
379.738	52.39
379.948	52.39
380.158	85.16
380.369	21.67
380.579	15.53
380.789	40.11
380.999	79.02
381.21	29.87
381.42	103.59
381.63	36.01
381.84	54.44
382.05	21.67
382.261	21.67
382.471	109.74
382.681	89.26
382.891	-2.9
383.101	68.78
383.311	46.25
383.521	44.2
383.731	52.39
383.941	31.91
384.151	5.29
384.361	40.11
384.571	56.49
384.781	79.02
384.991	128.17
385.201	87.21
385.411	99.5
385.621	7.34
385.831	95.4
386.041	64.68
386.251	21.67
386.461	70.83
386.671	27.82
386.881	60.59
387.091	-9.05
387.301	109.74
387.511	122.02
387.72	68.78
387.93	93.35
388.14	52.39
388.35	85.16
388.56	52.39
388.769	109.74
388.979	85.16
389.189	42.15
389.399	89.26
389.609	101.55
389.818	142.5
390.028	48.3
390.238	54.44
390.447	-21.33
390.657	68.78
390.867	48.3
391.076	62.63
391.286	44.2
391.496	156.84
391.705	3.24
391.915	38.06
392.125	103.59
392.334	48.3
392.544	54.44
392.753	117.93
392.963	60.59
393.172	23.72
393.382	27.82
393.591	142.5
393.801	58.54
394.01	185.51
394.22	76.97
394.429	93.35
394.639	44.2
394.848	134.31
395.058	97.45
395.267	-35.67
395.477	126.12
395.686	150.7
395.895	93.35
396.105	150.7
396.314	70.83
396.524	130.22
396.733	162.98
396.942	126.12
397.152	76.97
397.361	158.89
397.57	44.2
397.78	109.74
397.989	-4.95
398.198	93.35
398.407	146.6
398.617	171.18
398.826	146.6
399.035	85.16
399.244	99.5
399.453	113.83
399.663	48.3
399.872	208.04
400.081	50.35
400.29	134.31
400.499	76.97
400.708	173.22
400.917	150.7
401.127	117.93
401.336	208.04
401.545	101.55
401.754	89.26
401.963	199.85
402.172	128.17
402.381	62.63
402.59	119.98
402.799	122.02
403.008	220.33
403.217	119.98
403.426	175.27
403.635	136.36
403.844	142.5
404.053	175.27
404.262	99.5
404.471	152.74
404.68	228.52
404.888	234.66
405.097	203.94
405.306	249
405.515	212.14
405.724	154.79
405.933	261.29
406.142	169.13
406.35	265.38
406.559	175.27
406.768	199.85
406.977	292.01
407.185	244.9
407.394	322.73
407.603	132.26
407.812	230.57
408.02	249
408.229	249
408.438	312.49
408.646	257.19
408.855	253.09
409.064	296.1
409.272	289.96
409.481	343.21
409.69	343.21
409.898	304.29
410.107	328.87
410.315	369.83
410.524	363.69
410.733	421.03
410.941	410.79
411.15	455.84
411.358	437.41
411.567	511.14
411.775	400.55
411.984	461.99
412.192	543.91
412.401	519.33
412.609	527.52
412.818	631.97
413.026	625.83
413.234	568.48
413.443	560.29
413.651	601.25
413.86	660.64
414.068	691.36
414.276	748.7
414.485	691.36
414.693	787.61
414.901	789.66
415.11	867.49
415.318	777.37
415.526	945.31
415.734	900.25
415.943	890.01
416.151	963.74
416.359	890.01
416.567	1064.09
416.776	1068.19
416.984	1109.15
417.192	1029.27
417.4	1137.82
417.608	1203.35
417.817	1223.83
418.025	1275.03
418.233	1285.27
418.441	1334.42
418.649	1430.68
418.857	1473.68
419.065	1590.42
419.273	1453.2
419.481	1651.86
419.689	1741.97
419.897	1731.73
420.105	1797.26
420.313	1873.04
420.521	1969.29
420.729	1932.43
420.937	2063.5
421.145	2067.6
421.353	2126.99
421.561	2268.3
421.769	2329.74
421.977	2385.03
422.185	2460.81
422.393	2563.2
422.601	2585.73
422.809	2661.51
423.017	2665.6
423.224	2862.21
423.432	2905.21
423.64	2931.84
423.848	3165.31
424.056	3077.24
424.263	3279.99
424.471	3265.66
424.679	3345.53
424.887	3538.04
425.094	3677.3
425.302	3765.36
425.51	3771.51
425.718	3968.11
425.925	3972.21
426.133	4287.59
426.341	4463.72
426.548	4525.16
426.756	4635.75
426.964	4625.51
427.171	4977.76
427.379	4967.52
427.586	5315.67
427.794	5211.23
428.001	5532.76
428.209	5659.73
428.417	5856.34
428.624	6196.3
428.832	6089.81
429.039	5932.11
429.247	6218.83
429.454	6657.09
429.662	6984.77
429.869	6528.07
430.076	6874.18
430.284	6831.17
430.491	7226.43
430.699	7519.29
430.906	7515.19
431.114	7613.49
431.321	7908.4
431.528	8133.68
431.736	8674.34
431.943	8983.59
432.15	8741.93
432.358	8604.71
432.565	9249.82
432.772	9141.28
432.979	9651.22
433.187	9825.3
433.394	9917.46
433.601	10568.71
433.808	10517.51
434.016	10460.17
434.223	11076.61
434.43	11602.94
434.637	11260.93
434.844	12405.74
435.052	12295.15
435.259	12344.3
435.466	12436.46
435.673	12270.58
435.88	13036.52
436.087	13861.85
436.294	13759.45
436.501	13497.31
436.708	13773.78
436.915	13908.95
437.122	14973.89
437.329	14824.39
437.537	15006.66
437.743	15338.43
437.95	15158.21
438.157	16108.47
438.364	16655.28
438.571	16774.06
438.778	16698.28
438.985	18164.63
439.192	17468.32
439.399	18109.33
439.606	17687.45
439.813	18942.86
440.02	19827.58
440.227	19618.69
440.433	19116.93
440.64	19932.03
440.847	19665.79
441.054	20247.41
441.261	21834.59
441.467	21154.66
441.674	21771.1
441.881	22483.8
442.088	22096.73
442.294	22328.15
442.501	22721.36
442.708	23087.95
442.914	24443.7
443.121	25125.68
443.328	24429.37
443.534	26223.39
443.741	25725.73
443.948	25084.72
444.154	27038.48
444.361	26614.55
444.568	27009.81
444.774	27210.51
444.981	27278.09
445.187	27732.74
445.394	29246.19
445.6	28711.67
445.807	31623.88
446.013	30186.21
446.22	30665.43
446.426	31918.79
446.633	32230.08
446.839	33426.09
447.046	31517.39
447.252	33938.08
447.459	33909.41
447.665	33702.57
447.871	35189.39
448.078	36684.41
448.284	34783.9
448.491	35807.88
448.697	36768.38
448.903	37741.16
449.11	37737.07
449.316	37032.57
449.522	38365.79
449.728	39002.71
449.935	39193.17
450.141	39354.96
450.347	40190.53
450.553	38853.21
450.76	39918.15
450.966	40651.33
451.172	40145.48
451.378	41157.17
451.584	40000.07
451.791	41472.56
451.997	41065.02
452.203	41804.33
452.409	41892.4
452.615	42115.62
452.821	40215.11
453.027	39928.39
453.233	41919.02
453.44	40051.27
453.646	40415.81
453.852	40784.44
454.058	41654.83
454.264	40254.02
454.47	41005.62
454.676	40262.21
454.882	41628.21
455.088	37737.07
455.294	38765.15
455.5	38980.18
455.705	39682.64
455.911	37993.06
456.117	37300.85
456.323	36663.93
456.529	34667.16
456.735	36192.9
456.941	35451.53
457.147	34568.86
457.352	34085.54
457.558	33522.35
457.764	33366.7
457.97	32551.61
458.176	32066.24
458.381	31763.14
458.587	30730.97
458.793	30227.17
458.999	28711.67
459.204	30702.29
459.41	30096.1
459.616	28455.67
459.821	27826.95
460.027	27972.35
460.233	27296.52
460.438	26331.93
460.644	26301.21
460.85	25119.53
461.055	24546.1
461.261	24601.4
461.466	22973.26
461.672	21869.4
461.878	23460.68
462.083	22078.3
462.289	21705.57
462.494	21295.97
462.7	20474.74
462.905	20099.96
463.111	20581.23
463.316	20826.99
463.522	20362.1
463.727	20282.23
463.932	20241.27
464.138	20026.23
464.343	19811.2
464.549	19444.61
464.754	19749.76
464.959	20069.24
465.165	19829.63
465.37	18889.61
465.575	18600.85
465.781	19090.31
465.986	19241.86
466.191	18430.87
466.397	17951.64
466.602	17333.15
466.807	17798.04
467.012	17873.82
467.218	17619.87
467.423	17601.44
467.628	17507.23
467.833	18486.16
468.038	17814.43
468.244	16923.56
468.449	17810.33
468.654	17314.72
468.859	17257.38
469.064	16702.38
469.269	16298.93
469.474	16395.18
469.679	16860.07
469.885	15989.69
470.09	16346.03
470.295	16069.56
470.5	15891.38
470.705	15997.88
470.91	15825.85
471.115	15375.3
471.32	15707.07
471.525	15774.65
471.73	15315.9
471.935	15240.13
472.139	14711.75
472.344	14773.19
472.549	14740.43
472.754	14846.92
472.959	14308.3
473.164	13726.68
473.369	13917.14
473.574	14048.21
473.778	14207.95
473.983	13904.85
474.188	13919.19
474.393	13069.28
474.598	13202.4
474.802	13439.97
475.007	13276.13
475.212	13128.67
475.417	12764.14
475.621	12588.01
475.826	12616.68
476.031	12569.58
476.235	12223.47
476.44	12413.93
476.645	12069.87
476.849	12315.63
477.054	11910.13
477.259	11834.36
477.463	12164.08
477.668	11457.53
477.872	11850.74
478.077	11621.37
478.282	11377.66
478.486	11299.84
478.691	10966.02
478.895	11080.71
479.1	11187.2
479.304	10990.59
479.509	10681.35
479.713	11078.66
479.918	10472.46
480.122	10480.65
480.326	10738.69
480.531	10818.57
480.735	10501.13
480.94	10380.3
481.144	10775.56
481.348	10253.33
481.553	10325.01
481.757	10167.31
481.961	10249.23
482.166	10437.64
482.37	10144.78
482.574	10155.02
482.778	9985.04
482.983	10322.96
483.187	10316.81
483.391	10241.04
483.595	10226.7
483.8	10152.98
484.004	10152.98
484.208	10206.22
484.412	10028.05
484.616	10157.07
484.821	10120.21
485.025	9964.56
485.229	10099.73
485.433	10103.82
485.637	10093.58
485.841	10038.29
486.045	9911.32
486.249	10183.7
486.453	9989.14
486.657	10107.92
486.861	10202.13
487.065	9776.15
487.269	10140.69
487.473	9980.95
487.677	10226.7
487.881	10222.61
488.085	9968.66
488.289	10124.3
488.493	10015.76
488.697	10124.3
488.901	9808.92
489.105	10140.69
489.309	10193.94
489.512	10187.79
489.716	10277.9
489.92	10093.58
490.124	10167.31
490.328	10417.16
490.531	10089.49
490.735	10296.33
490.939	10267.66
491.143	10021.91
491.346	10312.72
491.55	10384.4
491.754	10521.61
491.958	10368.01
492.161	10581
492.365	10382.35
492.569	10537.99
492.772	10429.45
492.976	10345.48
493.18	10525.71
493.383	10951.68
493.587	10839.05
493.79	10744.84
493.994	10783.75
494.197	10931.2
494.401	10857.48
494.605	10902.53
494.808	11113.47
495.012	11009.03
495.215	11400.19
495.419	11373.57
495.622	11179.01
495.825	11615.23
496.029	11396.09
496.232	11512.83
496.436	11512.83
496.639	11854.84
496.843	11781.11
497.046	12061.68
497.249	12014.58
497.453	12170.22
497.656	11969.52
497.859	12028.92
498.063	12628.97
498.266	12489.71
498.469	12567.53
498.673	12700.65
498.876	12741.61
499.079	12930.02
499.282	12946.41
499.485	13329.38
499.689	13175.78
499.892	13380.57
500.095	13587.42
500.298	13792.22
500.501	13439.97
500.705	14199.76
500.908	14210
501.111	14091.22
501.314	14367.7
501.517	14711.75
501.72	14730.19
501.923	14805.96
502.126	14930.89
502.329	15299.52
502.532	15285.19
502.735	15356.86
502.938	15676.35
503.141	15504.32
503.344	15829.95
503.547	16065.46
503.75	15999.93
503.953	16405.42
504.156	16538.54
504.359	16634.8
504.562	16815.02
504.765	17052.58
504.968	17181.6
505.17	17728.41
505.373	17376.16
505.576	17705.88
505.779	18025.37
505.982	17875.87
506.185	18535.31
506.387	18195.35
506.59	18348.95
506.793	18975.63
506.996	19073.93
507.198	19452.8
507.401	19282.82
507.604	19651.45
507.807	19995.51
508.009	20040.57
508.212	19995.51
508.415	20114.3
508.617	20589.42
508.82	20566.9
509.022	20546.42
509.225	21042.03
509.428	21336.93
509.63	21068.65
509.833	21597.03
510.035	21822.3
510.238	21906.27
510.44	22313.81
510.643	22276.95
510.845	22598.48
511.048	22922.06
511.25	22903.63
511.453	22874.96
511.655	23771.97
511.858	23796.54
512.06	24062.78
512.262	24056.64
512.465	24048.44
512.667	24761.14
512.87	24857.39
513.072	24886.06
513.274	25332.52
513.477	25086.76
513.679	25903.9
513.881	25658.15
514.084	26020.64
514.286	26063.64
514.488	26536.73
514.69	27101.97
514.893	27079.44
515.095	26784.53
515.297	27339.53
515.499	27634.44
515.701	27763.46
515.904	28164.86
516.106	28175.1
516.308	28494.58
516.51	28756.72
516.712	28891.89
516.914	29154.03
517.116	29346.54
517.318	29547.24
517.52	29672.17
517.722	29713.13
517.925	30198.49
518.127	30483.16
518.329	30989.01
518.531	30864.08
518.733	31445.71
518.935	31345.36
519.136	31447.75
519.338	31738.57
519.54	31775.43
519.742	31967.94
519.944	32246.46
520.146	32953.01
520.348	32729.78
520.55	32996.02
520.752	33147.57
520.954	33573.55
521.155	33319.6
521.357	33925.8
521.559	34071.2
521.761	34437.79
521.963	34437.79
522.164	34075.3
522.366	34818.71
522.568	34757.27
522.77	34783.9
522.971	35500.68
523.173	34857.62
523.375	35351.18
523.576	35652.23
523.778	35336.85
523.98	35928.71
524.181	36115.08
524.383	35934.85
524.584	36264.58
524.786	36401.79
524.988	36067.97
525.189	36504.19
525.391	36993.65
525.592	36764.28
525.794	36817.53
525.995	36825.72
526.197	36760.19
526.398	37061.24
526.6	37335.66
526.801	37331.57
527.003	37544.56
527.204	37487.21
527.406	37300.85
527.607	37454.45
527.808	38050.41
528.01	37071.48
528.211	37483.12
528.412	37913.19
528.614	37896.81
528.815	37773.93
529.016	38275.68
529.218	37630.57
529.419	37952.1
529.62	37802.6
529.822	37749.35
530.023	38048.36
530.224	37853.8
530.425	37726.83
530.626	37712.49
530.828	37122.68
531.029	38384.22
531.23	37735.02
531.431	37606
531.632	37560.94
531.833	37663.34
532.035	37575.28
532.236	37886.57
532.437	38281.83
532.638	37227.12
532.839	37636.72
533.04	37986.92
533.241	37288.56
533.442	38224.48
533.643	37552.75
533.844	37290.61
534.045	37593.71
534.246	37057.14
534.447	37628.52
534.648	37001.85
534.849	37347.95
535.05	37126.77
535.251	37319.28
535.451	36807.29
535.652	36987.51
535.853	37290.61
536.054	37274.23
536.255	37235.31
536.456	36612.73
536.657	37186.16
536.857	36995.7
537.058	36680.31
537.259	37077.62
537.46	36799.1
537.66	36430.46
537.861	36850.3
538.062	36541.05
538.263	36721.27
538.463	36213.38
538.664	36962.93
538.865	36416.13
539.065	36913.78
539.266	36319.87
539.466	36582.01
539.667	36067.97
539.868	37026.42
540.068	36397.7
540.269	36012.68
540.469	36559.48
540.67	36172.42
540.87	36469.37
541.071	36321.92
541.271	36348.54
541.472	36463.23
541.672	36143.75
541.873	35838.6
542.073	36014.73
542.274	36512.38
542.474	35969.67
542.675	35764.87
542.875	36338.3
543.075	35928.71
543.276	35619.47
543.476	36455.04
543.676	35711.63
543.877	36004.49
544.077	36072.07
544.277	35689.1
544.478	35889.8
544.678	36194.95
544.878	35607.18
545.078	36092.55
545.279	35707.53
545.479	35967.62
545.679	35947.14
545.879	35914.37
546.079	35748.49
546.28	35990.15
546.48	35463.82
546.68	35654.28
546.88	36027.01
547.08	35762.82
547.28	35674.76
547.48	35422.86
547.68	35758.73
547.88	35512.97
548.081	36072.07
548.281	35930.76
548.481	35467.92
548.681	35842.7
548.881	36070.02
549.081	35619.47
549.28	35574.41
549.48	36504.19
549.68	35895.94
549.88	36219.52
550.08	35678.86
550.28	36180.61
550.48	35863.18
550.68	36151.94
550.88	35613.32
551.08	35842.7
551.279	36184.71
551.479	35447.44
551.679	36233.86
551.879	36084.36
552.079	36110.98
552.278	35934.85
552.478	36244.1
552.678	36076.16
552.878	36469.37
553.077	35674.76
553.277	35811.98
553.477	36475.52
553.676	36293.25
553.876	36108.93
554.076	36072.07
554.275	36149.89
554.475	35975.81
554.674	36407.94
554.874	35992.2
555.074	36276.87
555.273	36301.44
555.473	36297.34
555.672	36078.21
555.872	36315.78
556.071	36293.25
556.271	36416.13
556.47	36352.64
556.67	36018.82
556.869	36223.62
557.068	35998.34
557.268	36006.53
557.467	36321.92
557.667	36582.01
557.866	36256.39
558.065	36684.41
558.265	36389.5
558.464	35904.13
558.663	36770.43
558.863	35525.26
559.062	36835.96
559.261	36213.38
559.461	36530.81
559.66	36016.77
559.859	36190.85
560.058	36190.85
560.258	36326.02
560.457	36080.26
560.656	36299.39
560.855	36403.84
561.054	36336.26
561.253	36225.67
561.453	36305.54
561.652	36407.94
561.851	36606.59
562.05	36266.63
562.249	35912.33
562.448	36326.02
562.647	36020.87
562.846	36082.31
563.045	36113.03
563.244	35947.14
563.443	36280.96
563.642	35422.86
563.841	36141.7
564.04	35611.28
564.239	36412.03
564.438	35797.64
564.637	35904.13
564.836	36115.08
565.035	35455.63
565.234	36047.49
565.432	35961.48
565.631	35613.32
565.83	36143.75
566.029	35437.2
566.228	35773.06
566.427	35570.32
566.625	35535.5
566.824	35222.16
567.023	35627.66
567.222	34988.69
567.42	35629.71
567.619	35322.51
567.818	35357.33
568.016	35054.23
568.215	35386
568.414	35125.91
568.612	35015.32
568.811	34935.45
569.01	35310.22
569.208	34765.46
569.407	34994.84
569.605	34335.39
569.804	34949.78
570.002	34276
570.201	34548.38
570.4	34464.41
570.598	34349.73
570.797	34093.73
570.995	34484.89
571.193	34177.7
571.392	34640.54
571.59	33831.59
571.789	34185.89
571.987	33868.45
572.186	33755.82
572.384	33434.28
572.582	33882.79
572.781	33972.9
572.979	33407.66
573.177	33581.74
573.376	33604.27
573.574	33446.57
573.772	33475.24
573.971	33176.24
574.169	33174.19
574.367	32797.37
574.565	32864.95
574.763	33036.98
574.962	32608.95
575.16	32701.11
575.358	32563.9
575.556	32291.52
575.754	32717.5
575.952	32230.08
576.151	32934.58
576.349	31785.67
576.547	31947.46
576.745	31881.92
576.943	31869.64
577.141	31713.99
577.339	31836.87
577.537	31797.96
577.735	31675.08
577.933	31468.23
578.131	31345.36
578.329	31369.93
578.527	31460.04
578.725	31277.77
578.923	31390.41
579.121	30986.96
579.319	30921.43
579.516	31189.71
579.714	31105.74
579.912	30954.19
580.11	30595.8
580.308	31066.83
580.506	30438.11
580.704	30319.32
580.901	30552.79
581.099	30661.33
581.297	30333.66
581.495	30386.91
581.692	30190.3
581.89	30061.28
582.088	30112.48
582.285	30081.76
582.483	29840.1
582.681	29723.37
582.878	29936.35
583.076	29393.64
583.274	29807.33
583.471	29405.93
583.669	29573.86
583.866	29367.02
584.064	29616.87
584.262	28805.88
584.459	29283.05
584.657	28953.33
584.854	29260.52
585.052	28633.85
585.249	29143.79
585.447	29025.01
585.644	28488.44
585.841	29025.01
586.039	28861.17
586.236	28523.26
586.434	28623.61
586.631	28066.56
586.828	28353.27
587.026	28314.36
587.223	28394.23
587.42	28199.68
587.618	28365.56
587.815	27640.58
588.012	28005.12
588.21	27935.49
588.407	27812.61
588.604	27757.32
588.801	28044.03
588.999	27800.32
589.196	27699.97
589.393	27331.34
589.59	27554.57
589.787	27364.11
589.984	27587.33
590.182	27165.45
590.379	27552.52
590.576	27153.16
590.773	27296.52
590.97	27007.76
591.167	27220.75
591.364	26925.84
591.561	26911.5
591.758	26647.32
591.955	26780.43
592.152	26991.37
592.349	26700.56
592.546	26704.66
592.743	26530.58
592.94	26319.64
593.137	26651.41
593.334	26946.32
593.531	26293.02
593.727	26780.43
593.924	26348.31
594.121	26329.88
594.318	26925.84
594.515	26508.05
594.712	26559.25
594.908	25946.91
595.105	26270.49
595.302	25934.62
595.499	26342.17
595.696	26129.18
595.892	25871.14
596.089	26198.81
596.286	26430.23
596.482	25725.73
596.679	26041.12
596.876	25922.34
597.072	25840.42
597.269	26258.2
597.466	26172.19
597.662	25709.35
597.859	25948.96
598.055	25946.91
598.252	25756.45
598.448	25824.03
598.645	25738.02
598.841	25604.9
599.038	25576.23
599.234	25770.79
599.431	25559.84
599.627	25893.66
599.824	25768.74
600.02	25717.54
600.217	25680.67
600.413	25643.81
600.609	25602.85
600.806	25824.03
601.002	25903.9
601.198	25463.59
601.395	25623.33
601.591	25572.13
601.787	25703.2
601.984	25547.56
602.18	26147.61
602.376	25660.2
602.572	25406.25
602.769	25619.24
602.965	25312.04
603.161	25721.63
603.357	25801.5
603.553	25889.57
603.75	25733.92
603.946	25486.12
604.142	25699.11
604.338	25361.19
604.534	25850.66
604.73	25664.29
604.926	25842.46
605.122	25858.85
605.318	25572.13
605.514	25475.88
605.71	25731.87
605.906	25754.4
606.102	25633.57
606.298	25842.46
606.494	25615.14
606.69	26102.56
606.886	25932.57
607.082	25613.09
607.278	26272.54
607.474	25365.29
607.67	25942.81
607.866	25856.8
608.062	26180.38
608.257	25764.64
608.453	26325.78
608.649	26305.31
608.845	26104.6
609.041	26209.05
609.236	26305.31
609.432	26131.23
609.628	26381.08
609.824	26028.83
610.019	26065.69
610.215	26045.21
610.411	26583.83
610.606	26059.55
610.802	26221.34
610.998	26514.2
611.193	26569.49
611.389	26180.38
611.584	26391.32
611.78	26256.15
611.976	26479.38
612.171	26432.28
612.367	26370.84
612.562	26514.2
612.758	26256.15
612.953	26071.84
613.149	26718.99
613.344	26229.53
613.539	26860.3
613.735	26718.99
613.93	26503.96
614.126	26528.53
614.321	27020.05
614.517	26577.69
614.712	26290.97
614.907	26471.19
615.103	26729.23
615.298	26368.79
615.493	26854.16
615.688	26477.33
615.884	27026.19
616.079	26426.14
616.274	26807.06
616.47	26573.59
616.665	26663.7
616.86	26239.77
617.055	26473.24
617.25	26460.95
617.445	26954.51
617.641	25942.81
617.836	26469.14
618.031	26274.59
618.226	26512.15
618.421	25776.93
618.616	26589.97
618.811	26053.41
619.006	26522.39
619.201	25729.83
619.396	26049.31
619.591	25731.87
619.786	26077.98
619.981	25709.35
620.176	25973.53
620.371	25398.06
620.566	25899.81
620.761	25373.48
620.956	25864.99
621.151	25264.94
621.346	25322.28
621.541	25074.48
621.735	25639.72
621.93	24922.93
622.125	25283.37
622.32	24888.11
622.515	24847.15
622.709	24660.79
622.904	24838.96
623.099	24623.92
623.294	24668.98
623.488	24249.14
623.683	24464.18
623.878	23731.01
624.072	24228.66
624.267	24066.88
624.462	23583.55
624.656	23618.37
624.851	23761.73
625.046	23221.06
625.24	23386.95
625.435	23305.03
625.629	23186.25
625.824	23061.32
626.018	23182.15
626.213	22889.29
626.407	22991.69
626.602	22590.29
626.796	22766.42
626.991	22553.43
627.185	22442.84
627.38	22158.17
627.574	22201.18
627.768	21926.75
627.963	21867.36
628.157	21822.3
628.352	21746.53
628.546	21472.1
628.74	22031.19
628.935	21687.14
629.129	21691.23
629.323	21252.97
629.517	21052.27
629.712	21201.77
629.906	21240.68
630.1	20622.19
630.294	20880.24
630.489	20630.38
630.683	20697.97
630.877	20505.46
631.071	20444.02
631.265	20771.69
631.459	20312.95
631.653	20138.87
631.848	19731.33
632.042	19983.23
632.236	20081.53
632.43	19794.81
632.624	19854.2
632.818	19725.18
633.012	19567.49
633.206	19655.55
633.4	19532.67
633.594	19164.04
633.788	19393.41
633.982	19278.72
634.176	19022.73
634.369	18781.07
634.563	19192.71
634.757	18617.23
634.951	18527.12
635.145	18480.02
635.339	18594.7
635.533	18504.59
635.726	18195.35
635.92	18164.63
636.114	18307.99
636.308	17857.43
636.501	17963.93
636.695	17642.4
636.889	17662.88
637.083	17298.34
637.276	17494.94
637.47	17380.26
637.664	17415.07
637.857	17271.72
638.051	17191.84
638.244	16935.85
638.438	16935.85
638.632	16876.46
638.825	16755.63
639.019	16774.06
639.212	16485.3
639.406	16346.03
639.599	16214.96
639.793	16489.39
639.986	15983.54
640.18	16135.09
640.373	16096.18
640.567	15821.75
640.76	16075.7
640.954	15461.31
641.147	15662.01
641.34	15551.42
641.534	15543.23
641.727	15389.63
641.92	15346.62
642.114	15152.07
642.307	15193.03
642.5	15086.53
642.694	15145.92
642.887	14808.01
643.08	14881.74
643.273	14672.84
643.467	14629.84
643.66	14783.43
643.853	14289.87
644.046	14422.99
644.239	14414.8
644.432	14253.01
644.626	14150.61
644.819	13939.67
645.012	14085.08
645.205	13806.55
645.398	13992.92
645.591	13710.3
645.784	13738.97
645.977	13446.11
646.17	13482.97
646.363	13536.22
646.556	13284.32
646.749	13077.48
646.942	13405.15
647.135	13011.94
647.328	13175.78
647.521	12948.45
647.714	12925.93
647.907	12807.14
648.099	12581.87
648.292	12841.96
648.485	12719.08
648.678	12487.66
648.871	12489.71
649.064	12360.69
649.256	12372.97
649.449	12270.58
649.642	12229.62
649.835	12119.03
650.027	12145.65
650.22	12063.73
650.413	11963.38
650.605	11987.96
650.798	11754.49
650.991	11611.13
651.183	11676.66
651.376	11701.24
651.568	11525.11
651.761	11406.33
651.954	11471.87
652.146	11344.89
652.339	11248.64
652.531	11252.73
652.724	11365.37
652.916	10929.16
653.109	11103.23
653.301	10886.15
653.494	11168.77
653.686	10771.46
653.879	11148.29
654.071	10650.63
654.263	10652.68
654.456	10720.26
654.648	10681.35
654.84	10533.9
655.033	10325.01
655.225	10476.55
655.417	10509.32
655.61	10271.76
655.802	10226.7
655.994	10032.15
656.186	10112.02
656.379	10222.61
656.571	10017.81
656.763	9964.56
656.955	9858.07
657.148	9890.84
657.34	9776.15
657.532	9960.47
657.724	9610.26
657.916	9733.14
658.108	9624.6
658.3	9554.97
658.492	9438.23
658.684	9514.01
658.876	9378.84
659.068	9552.92
659.26	9366.56
659.452	9174.05
659.644	9409.56
659.836	9274.4
660.028	9128.99
660.22	8961.06
660.412	9098.27
660.604	8956.96
660.796	8772.64
660.988	8856.61
661.18	8922.15
661.372	8848.42
661.563	8653.86
661.755	8635.43
661.947	8848.42
662.139	8526.89
662.331	8498.22
662.522	8461.35
662.714	8469.55
662.906	8305.71
663.097	8256.56
663.289	8043.57
663.481	8272.94
663.673	8244.27
663.864	8082.48
664.056	8117.29
664.247	8090.67
664.439	8055.86
664.631	7844.91
664.822	7932.98
665.014	7875.63
665.205	7760.95
665.397	7793.72
665.588	7644.21
665.78	7576.63
665.971	7801.91
666.163	7756.85
666.354	7650.36
666.546	7556.15
666.737	7584.82
666.929	7447.61
667.12	7439.42
667.311	7392.31
667.503	7275.58
667.694	7380.03
667.885	7361.59
668.077	7351.35
668.268	7167.04
668.459	7285.82
668.651	7222.33
668.842	7126.08
669.033	7093.31
669.224	7040.06
669.416	7007.3
669.607	6925.38
669.798	6872.13
669.989	6949.95
670.18	6794.31
670.371	6900.8
670.563	6868.03
670.754	6861.89
670.945	6736.96
671.136	6782.02
671.327	6657.09
671.518	6675.52
671.709	6474.82
671.9	6569.03
672.091	6556.74
672.282	6671.43
672.473	6386.76
672.664	6540.36
672.855	6417.48
673.046	6548.55
673.237	6634.57
673.428	6583.37
673.619	6390.86
673.809	6433.86
674	6343.75
674.191	6224.97
674.382	6366.28
674.573	6290.51
674.764	6335.56
674.954	6423.62
675.145	6098
675.336	6179.92
675.527	6179.92
675.717	6241.36
675.908	6175.82
676.099	5997.65
676.289	6044.75
676.48	6030.41
676.671	5999.7
676.861	5956.69
677.052	5876.82
677.243	5934.16
677.433	6048.85
677.624	5860.43
677.814	5921.87
678.005	5971.02
678.195	5905.49
678.386	5923.92
678.576	5807.19
678.767	5852.24
678.957	5911.63
679.148	5788.75
679.338	5895.25
679.529	5837.91
679.719	5803.09
679.909	5823.57
680.1	5844.05
680.29	5870.67
680.481	5678.16
680.671	5712.98
680.861	5624.92
681.052	5657.68
681.242	5805.14
681.432	5702.74
681.622	5690.45
681.813	5686.36
682.003	5690.45
682.193	5604.44
682.383	5641.3
682.573	5690.45
682.764	5641.3
682.954	5696.6
683.144	5618.77
683.334	5647.44
683.524	5573.72
683.714	5610.58
683.904	5477.46
684.094	5614.68
684.284	5348.44
684.474	5577.81
684.664	5624.92
684.854	5649.49
685.044	5626.96
685.234	5518.42
685.424	5545.05
685.614	5434.46
685.804	5516.37
685.994	5356.63
686.184	5305.43
686.374	5469.27
686.564	5491.8
686.753	5512.28
686.943	5319.77
687.133	5352.54
687.323	5403.74
687.513	5327.96
687.702	5231.71
687.892	5174.36
688.082	5194.84
688.272	5297.24
688.461	5287
688.651	5336.15
688.841	5198.94
689.03	5287
689.22	5192.8
689.41	5287
689.599	5147.74
689.789	5151.84
689.979	5231.71
690.168	5176.41
690.358	4977.76
690.547	4938.85
690.737	5074.01
690.926	5190.75
691.116	4928.61
691.305	5028.96
691.495	5020.77
691.684	4836.45
691.874	4875.36
692.063	4858.98
692.252	4985.95
692.442	4977.76
692.631	4949.09
692.82	4912.22
693.01	4813.92
693.199	5008.48
693.388	4689
693.578	4662.37
693.767	4684.9
693.956	4803.68
694.146	4748.39
694.335	4648.04
694.524	4629.6
694.713	4797.54
694.902	4693.09
695.092	4904.03
695.281	4650.08
695.47	4670.56
695.659	4752.48
695.848	4715.62
696.037	4566.12
696.226	4557.93
696.415	4533.35
696.604	4709.47
696.793	4678.76
696.982	4531.3
697.171	4676.71
697.36	4631.65
697.549	4615.27
697.738	4488.29
697.927	4473.96
698.116	4478.05
698.305	4451.43
698.494	4428.9
698.683	4496.49
698.872	4426.86
699.061	4377.7
699.25	4461.67
699.438	4371.56
699.627	4394.09
699.816	4445.29
700.005	4322.41
700.193	4519.01
700.382	4336.74
700.571	4389.99
700.76	4355.18
700.948	4263.02
701.137	4205.67
701.326	4420.71
701.514	4365.42
701.703	4287.59
701.892	4295.79
702.08	4424.81
702.269	4291.69
702.457	4140.14
702.646	4234.35
702.834	4273.26
703.023	4115.56
703.212	4295.79
703.4	4168.81
703.589	4074.6
703.777	4263.02
703.965	4158.57
704.154	4090.99
704.342	4097.13
704.531	4156.52
704.719	4002.93
704.907	4160.62
705.096	3873.9
705.284	3955.82
705.472	4099.18
705.661	4068.46
705.849	3994.73
706.037	4090.99
706.226	3970.16
706.414	3945.58
706.602	3943.53
706.79	3918.96
706.979	3861.62
707.167	3959.92
707.355	4017.26
707.543	3910.77
707.731	4043.88
707.919	3947.63
708.107	3912.81
708.296	3779.7
708.484	3738.74
708.672	3779.7
708.86	3708.02
709.048	3867.76
709.236	3886.19
709.424	3824.75
709.612	3712.11
709.8	3640.44
709.988	3837.04
710.176	3791.98
710.364	3878
710.551	3718.26
710.739	3681.39
710.927	3624.05
711.115	3753.07
711.303	3691.63
711.491	3609.72
711.679	3646.58
711.866	3607.67
712.054	3449.97
712.242	3437.69
712.43	3566.71
712.617	3597.43
712.805	3513.46
712.993	3566.71
713.181	3505.27
713.368	3462.26
713.556	3574.9
713.744	3398.77
713.931	3544.18
714.119	3587.19
714.306	3466.36
714.494	3447.93
714.682	3462.26
714.869	3320.95
715.057	3435.64
715.244	3259.51
715.432	3421.3
715.619	3382.39
715.807	3282.04
715.994	3335.29
716.182	3402.87
716.369	3357.82
716.556	3394.68
716.744	3277.94
716.931	3337.34
717.119	3255.42
717.306	3384.44
717.493	3331.19
717.681	3239.03
717.868	3202.17
718.055	3257.46
718.242	3259.51
718.43	3357.82
718.617	3304.57
718.804	3001.47
718.991	3304.57
719.179	3196.03
719.366	3226.75
719.553	3175.55
719.74	3177.59
719.927	3218.55
720.114	3067
720.301	3212.41
720.488	2929.79
720.676	3015.8
720.863	3134.59
721.05	3075.2
721.237	3052.67
721.424	3273.85
721.611	3157.11
721.798	3026.04
721.985	3040.38
722.172	3038.33
722.358	3050.62
722.545	2980.99
722.732	2985.09
722.919	3107.96
723.106	2929.79
723.293	2937.98
723.48	3050.62
723.667	2968.7
723.853	3046.52
724.04	3124.35
724.227	3085.44
724.414	2837.63
724.6	2890.88
724.787	2917.5
724.974	3093.63
725.161	2960.51
725.347	2749.57
725.534	2927.74
725.72	2913.41
725.907	2831.49
726.094	2903.17
726.28	2874.49
726.467	2827.39
726.653	2858.11
726.84	2862.21
727.027	2903.17
727.213	2862.21
727.4	2802.82
727.586	2763.9
727.773	2866.3
727.959	2749.57
728.145	2772.1
728.332	2763.9
728.518	2722.95
728.705	2813.06
728.891	2702.47
729.077	2798.72
729.264	2729.09
729.45	2608.26
729.636	2641.03
729.823	2690.18
730.009	2753.66
730.195	2776.19
730.382	2768
730.568	2536.58
730.754	2735.23
730.94	2579.59
731.126	2776.19
731.313	2727.04
731.499	2620.55
731.685	2741.38
731.871	2671.75
732.057	2700.42
732.243	2600.07
732.429	2548.87
732.615	2681.99
732.801	2604.16
732.987	2544.77
733.173	2591.88
733.359	2565.25
733.545	2477.19
733.731	2522.24
733.917	2645.12
734.103	2593.92
734.289	2602.11
734.475	2587.78
734.661	2606.21
734.847	2501.76
735.033	2469
735.219	2444.42
735.404	2673.79
735.59	2440.33
735.776	2501.76
735.962	2428.04
736.148	2579.59
736.333	2479.24
736.519	2387.08
736.705	2436.23
736.89	2520.2
737.076	2329.74
737.262	2497.67
737.447	2428.04
737.633	2395.27
737.819	2423.94
738.004	2444.42
738.19	2440.33
738.375	2309.26
738.561	2288.78
738.747	2391.17
738.932	2256.01
739.118	2372.74
739.303	2393.22
739.489	2356.36
739.674	2251.91
739.859	2362.5
740.045	2307.21
740.23	2186.38
740.416	2288.78
740.601	2282.63
740.786	2296.97
740.972	2157.71
741.157	2264.2
741.342	2198.67
741.528	2192.52
741.713	2174.09
741.898	2163.85
742.084	2083.98
742.269	2251.91
742.454	2067.6
742.639	1993.87
742.824	2190.47
743.01	2135.18
743.195	2184.33
743.38	2141.32
743.565	2141.32
743.75	2047.12
743.935	2100.36
744.12	2129.03
744.305	2139.27
744.49	2071.69
744.675	2079.88
744.86	2133.13
745.045	2010.25
745.23	2094.22
745.415	1944.72
745.6	1911.95
745.785	1997.96
745.97	2083.98
746.155	2020.49
746.34	1895.57
746.525	1911.95
746.71	2063.5
746.895	1936.53
747.079	1840.27
747.264	1914
747.449	2004.11
747.634	1959.05
747.819	1934.48
748.003	1916.05
748.188	1844.37
748.373	1821.84
748.557	1834.13
748.742	1860.75
748.927	1729.68
749.111	1780.88
749.296	1752.21
749.481	1821.84
749.665	1701.01
749.85	1621.14
750.034	1774.74
750.219	1668.24
750.404	1692.82
750.588	1709.2
750.773	1715.34
750.957	1551.51
751.141	1658
751.326	1631.38
751.51	1578.13
751.695	1608.85
751.879	1473.68
752.064	1617.04
752.248	1621.14
752.432	1567.89
752.617	1653.91
752.801	1555.6
752.985	1549.46
753.17	1528.98
753.354	1520.79
753.538	1641.62
753.722	1449.11
753.907	1600.66
754.091	1404.05
754.275	1408.15
754.459	1506.45
754.643	1346.71
754.828	1408.15
755.012	1510.55
755.196	1424.53
755.38	1428.63
755.564	1336.47
755.748	1490.07
755.932	1526.93
756.116	1373.33
756.3	1412.25
756.484	1383.57
756.668	1416.34
756.852	1375.38
757.036	1315.99
757.22	1379.48
757.404	1305.75
757.588	1354.9
757.772	1227.93
757.956	1256.6
758.14	1287.32
758.323	1238.17
758.507	1285.27
758.691	1283.22
758.875	1313.94
759.059	1217.69
759.242	1209.5
759.426	1240.22
759.61	1133.72
759.794	1170.58
759.977	1236.12
760.161	1338.52
760.345	1252.5
760.528	1232.02
760.712	1182.87
760.895	1182.87
761.079	1160.34
761.263	1103
761.446	1150.11
761.63	1133.72
761.813	1146.01
761.997	1182.87
762.18	1158.3
762.364	1125.53
762.547	1105.05
762.731	1076.38
762.914	1092.76
763.098	1045.66
763.281	1043.61
763.464	1092.76
763.648	1164.44
763.831	1141.91
764.015	1107.1
764.198	1109.15
764.381	1039.51
764.564	1055.9
764.748	1051.8
764.931	1111.19
765.114	935.07
765.297	1006.75
765.481	1064.09
765.664	1064.09
765.847	990.36
766.03	1062.04
766.213	920.73
766.397	969.88
766.58	1019.04
766.763	994.46
766.946	937.12
767.129	978.08
767.312	930.97
767.495	1027.23
767.678	990.36
767.861	951.45
768.044	969.88
768.227	947.36
768.41	955.55
768.593	926.88
768.776	937.12
768.959	896.16
769.142	961.69
769.324	945.31
769.507	961.69
769.69	998.56
769.873	978.08
770.056	1012.89
770.239	855.2
770.421	953.5
770.604	818.33
770.787	996.51
770.97	855.2
771.152	924.83
771.335	933.02
771.518	879.77
771.7	990.36
771.883	890.01
772.066	928.92
772.248	930.97
772.431	902.3
772.613	883.87
772.796	814.24
772.978	898.2
773.161	898.2
773.343	773.28
773.526	822.43
773.708	806.05
773.891	707.74
774.073	781.47
774.256	756.9
774.438	945.31
774.621	765.09
774.803	879.77
774.985	752.8
775.168	758.94
775.35	830.62
775.532	806.05
775.715	806.05
775.897	691.36
776.079	773.28
776.261	832.67
776.444	830.62
776.626	713.89
776.808	726.18
776.99	773.28
777.173	707.74
777.355	720.03
777.537	787.61
777.719	674.98
777.901	674.98
778.083	668.83
778.265	634.02
778.447	717.98
778.629	638.11
778.811	634.02
778.993	689.31
779.175	767.13
779.357	599.2
779.539	660.64
779.721	650.4
779.903	644.26
780.085	552.1
780.267	674.98
780.449	593.06
780.631	738.46
780.812	644.26
780.994	660.64
781.176	660.64
781.358	580.77
781.54	564.39
781.721	654.5
781.903	629.92
782.085	560.29
782.267	707.74
782.448	652.45
782.63	519.33
782.812	634.02
782.993	515.23
783.175	504.99
783.357	476.32
783.538	588.96
783.72	511.14
783.901	509.09
784.083	552.1
784.264	494.76
784.446	560.29
784.627	603.3
784.809	638.11
784.99	545.95
785.172	494.76
785.353	511.14
785.535	437.41
785.716	457.89
785.897	464.04
786.079	464.04
786.26	521.38
786.441	492.71
786.623	378.02
786.804	408.74
786.985	461.99
787.167	408.74
787.348	449.7
787.529	511.14
787.71	445.6
787.891	429.22
788.073	445.6
788.254	441.51
788.435	494.76
788.616	398.5
788.797	390.31
788.978	341.16
789.159	437.41
789.34	380.07
789.522	470.18
789.703	390.31
789.884	324.77
790.065	429.22
790.246	361.64
790.427	414.88
790.607	457.89
790.788	380.07
790.969	367.78
791.15	421.03
791.331	300.2
791.512	461.99
791.693	373.92
791.874	357.54
792.054	328.87
792.235	382.12
792.416	335.01
792.597	265.38
792.778	306.34
792.958	332.97
793.139	343.21
793.32	427.17
793.5	363.69
793.681	429.22
793.862	294.05
794.042	371.88
794.223	355.49
794.404	359.59
794.584	308.39
794.765	314.53
794.945	384.16
795.126	308.39
795.306	416.93
795.487	308.39
795.667	300.2
795.848	328.87
796.028	322.73
796.209	357.54
796.389	275.62
796.57	322.73
796.75	208.04
796.93	267.43
797.111	314.53
797.291	257.19
797.471	373.92
797.652	406.69
797.832	298.15
798.012	201.9
798.192	185.51
798.373	246.95
798.553	257.19
798.733	289.96
798.913	306.34
799.093	224.42
799.274	236.71
799.454	273.57
799.634	269.48
799.814	267.43
799.994	228.52
800.174	210.09
800.354	240.81
800.534	240.81
800.714	230.57
800.894	232.62
801.074	267.43
801.254	253.09
801.434	246.95
801.614	292.01
801.794	205.99
801.974	978.08
802.154	177.32
802.334	287.91
802.514	232.62
802.693	185.51
802.873	220.33
803.053	257.19
803.233	216.23
803.413	318.63
803.592	240.81
803.772	230.57
803.952	234.66
804.131	150.7
804.311	253.09
804.491	199.85
804.67	183.46
804.85	259.24
805.03	240.81
805.209	234.66
805.389	130.22
805.568	122.02
805.748	175.27
805.928	189.61
806.107	257.19
806.287	167.08
806.466	261.29
806.646	138.41
806.825	201.9
807.004	228.52
807.184	208.04
807.363	179.37
807.543	177.32
807.722	93.35
807.901	199.85
808.081	144.55
808.26	183.46
808.439	259.24
808.619	212.14
808.798	218.28
808.977	205.99
809.156	253.09
809.336	187.56
809.515	228.52
809.694	152.74
809.873	175.27
810.052	249
810.231	240.81
810.411	246.95
810.59	222.38
810.769	191.66
810.948	136.36
811.127	146.6
811.306	150.7
811.485	187.56
811.664	185.51
811.843	160.94
812.022	257.19
812.201	93.35
812.38	169.13
812.559	154.79
812.737	154.79
812.916	132.26
813.095	171.18
813.274	183.46
813.453	185.51
813.632	179.37
813.811	191.66
813.989	107.69
814.168	199.85
814.347	162.98
814.526	150.7
814.704	197.8
814.883	210.09
815.062	109.74
815.24	212.14
815.419	85.16
815.598	117.93
815.776	93.35
815.955	128.17
816.133	83.11
816.312	167.08
816.49	154.79
816.669	177.32
816.847	130.22
817.026	142.5
817.204	150.7
817.383	101.55
817.561	85.16
817.74	165.03
817.918	113.83
818.097	175.27
818.275	68.78
818.453	109.74
818.632	132.26
818.81	158.89
818.988	105.64
819.167	158.89
819.345	103.59
819.523	160.94
819.701	128.17
819.879	89.26
820.058	126.12
820.236	203.94
820.414	122.02
820.592	93.35
820.77	85.16
820.948	93.35
821.127	76.97
821.305	136.36
821.483	101.55
821.661	150.7
821.839	89.26
822.017	56.49
822.195	74.92
822.373	162.98
822.551	136.36
822.729	103.59
822.907	101.55
823.085	136.36
823.262	68.78
823.44	46.25
823.618	111.78
823.796	87.21
823.974	87.21
824.152	130.22
824.329	167.08
824.507	64.68
824.685	60.59
824.863	97.45
825.04	119.98
825.218	72.87
825.396	91.31
825.574	119.98
825.751	122.02
825.929	150.7
826.107	21.67
826.284	136.36
826.462	122.02
826.639	36.01
826.817	29.87
826.994	93.35
827.172	42.15
827.349	144.55
827.527	76.97
827.704	85.16
827.882	46.25
828.059	87.21
828.237	46.25
828.414	70.83
828.591	29.87
828.769	93.35
828.946	36.01
829.124	91.31
829.301	148.65
829.478	140.46
829.655	85.16
829.833	111.78
830.01	3.24
830.187	144.55
830.364	50.35
830.542	117.93
830.719	111.78
830.896	97.45
831.073	36.01
831.25	83.11
831.427	72.87
831.604	56.49
831.782	68.78
831.959	93.35
832.136	42.15
832.313	142.5
832.49	76.97
832.667	130.22
832.844	93.35
833.021	70.83
833.198	119.98
833.374	58.54
833.551	52.39
833.728	46.25
833.905	85.16
834.082	40.11
834.259	44.2
834.436	167.08
834.612	-4.95
834.789	68.78
834.966	117.93
835.143	130.22
835.319	31.91
835.496	60.59
835.673	40.11
835.85	101.55
836.026	101.55
836.203	119.98
836.38	36.01
836.556	52.39
836.733	-7
836.909	146.6
837.086	60.59
837.262	-4.95
837.439	76.97
837.616	95.4
837.792	11.43
837.968	36.01
838.145	60.59
838.321	48.3
838.498	44.2
838.674	29.87
838.851	60.59
839.027	40.11
839.203	48.3
839.38	89.26
839.556	54.44
839.732	138.41
839.909	-0.85
840.085	134.31
840.261	19.63
840.437	44.2
840.614	87.21
840.79	89.26
840.966	79.02
841.142	79.02
841.318	-13.14
841.494	68.78
841.671	111.78
841.847	21.67
842.023	-13.14
842.199	27.82
842.375	74.92
842.551	29.87
842.727	19.63
842.903	117.93
843.079	-39.76
843.255	-2.9
843.431	44.2
843.607	89.26
843.783	-2.9
843.959	38.06
844.134	46.25
844.31	111.78
844.486	46.25
844.662	9.39
844.838	72.87
845.013	42.15
845.189	42.15
845.365	36.01
845.541	50.35
845.716	76.97
845.892	134.31
846.068	52.39
846.244	-4.95
846.419	48.3
846.595	95.4
846.77	-0.85
846.946	56.49
847.122	23.72
847.297	56.49
847.473	68.78
847.648	13.48
847.824	23.72
847.999	-33.62
848.175	62.63
848.35	76.97
848.526	87.21
848.701	21.67
848.876	-0.85
849.052	136.36
849.227	-43.86
849.403	27.82
849.578	81.07
849.753	76.97
849.929	-13.14
850.104	50.35
850.279	-4.95
850.454	60.59
850.63	60.59
850.805	113.83
850.98	46.25
851.155	68.78
851.33	103.59
851.505	-33.62
851.681	44.2
851.856	40.11
852.031	-4.95
852.206	79.02
852.381	-13.14
852.556	48.3
852.731	15.53
852.906	-27.48
853.081	79.02
853.256	81.07
853.431	-13.14
853.606	68.78
853.781	44.2
853.956	-29.52
854.131	-27.48
854.305	-2.9
854.48	21.67
854.655	23.72
854.83	-0.85
855.005	44.2
855.18	29.87
855.354	21.67
855.529	70.83
855.704	-27.48
855.879	-13.14
856.053	5.29
856.228	5.29
856.403	-37.72
856.577	46.25
856.752	5.29
856.926	-27.48
857.101	66.73
857.276	-86.87
857.45	50.35
857.625	48.3
857.799	52.39
857.974	-11.09
858.148	-27.48
858.323	76.97
858.497	33.96
858.672	-13.14
858.846	52.39
859.02	-0.85
859.195	-78.68
859.369	64.68
859.543	9.39
859.718	-90.96
859.892	-15.19
860.066	36.01
860.241	-21.33
860.415	40.11
860.589	33.96
860.763	56.49
860.938	19.63
861.112	21.67
861.286	68.78
861.46	11.43
861.634	19.63
861.808	117.93
861.982	7.34
862.157	-2.9
862.331	-11.09
862.505	-21.33
862.679	-37.72
862.853	27.82
863.027	7.34
863.201	81.07
863.375	-37.72
863.549	11.43
863.722	27.82
863.896	36.01
864.07	27.82
864.244	-9.05
864.418	60.59
864.592	19.63
864.766	36.01
864.939	52.39
865.113	-58.2
865.287	40.11
865.461	52.39
865.634	31.91
865.808	52.39
865.982	27.82
866.156	-13.14
866.329	50.35
866.503	40.11
866.676	87.21
866.85	70.83
867.024	27.82
867.197	44.2
867.371	25.77
867.544	-23.38
867.718	21.67
867.891	7.34
868.065	-9.05
868.238	21.67
868.412	87.21
868.585	-11.09
868.759	-0.85
868.932	9.39
869.105	-37.72
869.279	-41.81
869.452	54.44
869.625	64.68
869.799	-2.9
869.972	44.2
870.145	17.58
870.319	15.53
870.492	40.11
870.665	54.44
870.838	29.87
871.011	-37.72
871.185	38.06
871.358	-19.29
871.531	27.82
871.704	36.01
871.877	11.43
872.05	36.01
872.223	-4.95
872.396	3.24
872.569	27.82
872.742	-2.9
872.915	54.44
873.088	-21.33
873.261	11.43
873.434	64.68
873.607	-23.38
873.78	46.25
873.953	-15.19
874.126	64.68
874.299	-9.05
874.471	44.2
874.644	42.15
874.817	58.54
874.99	58.54
875.163	-13.14
875.335	95.4
875.508	-78.68
875.681	11.43
875.853	56.49
876.026	-43.86
876.199	-58.2
876.371	52.39
876.544	-7
876.717	25.77
876.889	-19.29
877.062	52.39
877.234	54.44
877.407	-13.14
877.579	-41.81
877.752	76.97
877.924	36.01
878.097	93.35
878.269	-15.19
878.442	-35.67
878.614	15.53
878.786	11.43
878.959	-29.52
879.131	72.87
879.303	-37.72
879.476	1.19
879.648	-19.29
879.82	52.39
879.993	21.67
880.165	85.16
880.337	-39.76
880.509	-13.14
880.681	-11.09
880.854	21.67
881.026	-39.76
881.198	19.63
881.37	5.29
881.542	19.63
881.714	70.83
881.886	-7
882.058	64.68
882.23	27.82
882.402	-33.62
882.574	-13.14
882.746	9.39
882.918	23.72
883.09	-23.38
883.262	-33.62
883.434	29.87
883.606	-21.33
883.778	-13.14
883.95	27.82
884.122	-29.52
884.293	-11.09
884.465	3.24
884.637	-27.48
884.809	-37.72
884.98	15.53
885.152	52.39
885.324	44.2
885.496	40.11
885.667	38.06
885.839	-70.48
886.011	60.59
886.182	-23.38
886.354	54.44
886.525	29.87
886.697	-33.62
886.869	-80.72
887.04	85.16
887.212	-0.85
887.383	44.2
887.555	13.48
887.726	11.43
887.897	36.01
888.069	11.43
888.24	-0.85
888.412	-58.2
888.583	23.72
888.754	-25.43
888.926	-37.72
889.097	11.43
889.268	-54.1
889.44	27.82
889.611	-45.91
889.782	-0.85
889.953	-33.62
890.125	25.77
890.296	-86.87
890.467	11.43
890.638	19.63
890.809	52.39
890.98	44.2
891.151	-13.14
891.323	68.78
891.494	-23.38
891.665	-4.95
891.836	23.72
892.007	87.21
892.178	5.29
892.349	1.19
892.52	-56.15
892.691	42.15
892.862	13.48
893.032	-105.3
893.203	-70.48
893.374	-58.2
893.545	29.87
893.716	-4.95
893.887	50.35
894.057	-72.53
894.228	-37.72
894.399	-19.29
894.57	36.01
894.74	-21.33
894.911	-37.72
895.082	36.01
895.253	-33.62
895.423	-29.52
895.594	52.39
895.764	70.83
895.935	21.67
896.106	62.63
896.276	13.48
896.447	44.2
896.617	-2.9
896.788	-43.86
896.958	-13.14
897.129	-9.05
897.299	-50
897.47	31.91
897.64	31.91
897.81	5.29
897.981	-11.09
898.151	-37.72
898.322	-39.76
898.492	-58.2
898.662	-25.43
898.832	9.39
899.003	66.73
899.173	-21.33
899.343	-37.72
899.513	31.91
