Data from USB4F104151__6__14-28-25-160.txt Node

Date: Thu Mar 13 14:28:25 EDT 2025
User: louis
Spectrometer: USB4F10415
Trigger mode: 4
Integration Time (sec): 2.500000E-2
Scans to average: 1
Electric dark correction enabled: true
Nonlinearity correction enabled: false
Boxcar width: 0
XAxis mode: Wavelengths
Number of Pixels in Spectrum: 3648
>>>>>Begin Spectral Data<<<<<
178.204	-140.8
178.424	-140.8
178.644	-140.8
178.864	-165.37
179.084	-165.37
179.304	18.94
179.524	-28.16
179.744	25.09
179.964	35.33
180.184	-32.26
180.404	53.76
180.624	-40.45
180.844	-34.3
181.064	-56.83
181.283	53.76
181.503	-22.02
181.723	27.14
181.943	35.33
182.163	78.33
182.383	29.18
182.602	117.25
182.822	86.53
183.042	16.9
183.262	31.23
183.482	-19.97
183.701	49.66
183.921	2.56
184.141	18.94
184.361	47.62
184.58	10.75
184.8	45.57
185.02	53.76
185.239	51.71
185.459	37.38
185.679	70.14
185.898	-46.59
186.118	94.72
186.338	59.9
186.557	64
186.777	23.04
186.997	78.33
187.216	35.33
187.436	84.48
187.655	37.38
187.875	37.38
188.095	41.47
188.314	27.14
188.534	135.68
188.753	-11.78
188.973	20.99
189.192	53.76
189.412	39.42
189.631	-1.54
189.851	-1.54
190.07	53.76
190.29	27.14
190.509	4.61
190.729	-28.16
190.948	55.81
191.168	137.73
191.387	61.95
191.607	-34.3
191.826	18.94
192.045	57.86
192.265	-11.78
192.484	51.71
192.704	59.9
192.923	76.29
193.142	160.25
193.362	100.86
193.581	125.44
193.8	107.01
194.02	6.66
194.239	35.33
194.458	68.09
194.678	64
194.897	57.86
195.116	18.94
195.335	29.18
195.555	45.57
195.774	59.9
195.993	23.04
196.212	-17.92
196.432	18.94
196.651	78.33
196.87	10.75
197.089	92.67
197.308	-5.63
197.528	72.19
197.747	-30.21
197.966	51.71
198.185	90.62
198.404	-46.59
198.623	10.75
198.842	51.71
199.062	76.29
199.281	80.38
199.5	35.33
199.719	16.9
199.938	92.67
200.157	76.29
200.376	109.05
200.595	109.05
200.814	-1.54
201.033	55.81
201.252	70.14
201.471	43.52
201.69	10.75
201.909	94.72
202.128	20.99
202.347	-22.02
202.566	-36.35
202.785	51.71
203.004	0.51
203.223	10.75
203.442	35.33
203.661	-32.26
203.879	53.76
204.098	35.33
204.317	59.9
204.536	14.85
204.755	41.47
204.974	70.14
205.193	27.14
205.411	117.25
205.63	94.72
205.849	64
206.068	70.14
206.287	27.14
206.505	113.15
206.724	-13.82
206.943	-5.63
207.162	53.76
207.381	51.71
207.599	78.33
207.818	12.8
208.037	49.66
208.255	4.61
208.474	4.61
208.693	51.71
208.911	35.33
209.13	76.29
209.349	88.57
209.567	68.09
209.786	-38.4
210.005	27.14
210.223	43.52
210.442	-77.31
210.661	39.42
210.879	23.04
211.098	104.96
211.316	29.18
211.535	102.91
211.753	-42.5
211.972	74.24
212.191	23.04
212.409	10.75
212.628	31.23
212.846	80.38
213.065	53.76
213.283	35.33
213.502	80.38
213.72	64
213.938	35.33
214.157	96.77
214.375	84.48
214.594	-15.87
214.812	68.09
215.031	33.28
215.249	6.66
215.467	-13.82
215.686	51.71
215.904	78.33
216.122	-7.68
216.341	109.05
216.559	53.76
216.778	78.33
216.996	113.15
217.214	51.71
217.432	61.95
217.651	18.94
217.869	55.81
218.087	51.71
218.306	31.23
218.524	109.05
218.742	64
218.96	37.38
219.179	18.94
219.397	2.56
219.615	43.52
219.833	127.49
220.051	-38.4
220.27	150.01
220.488	94.72
220.706	133.63
220.924	84.48
221.142	47.62
221.36	6.66
221.578	27.14
221.796	-5.63
222.015	47.62
222.233	-30.21
222.451	133.63
222.669	-11.78
222.887	59.9
223.105	18.94
223.323	41.47
223.541	39.42
223.759	10.75
223.977	37.38
224.195	68.09
224.413	35.33
224.631	55.81
224.849	76.29
225.067	176.64
225.285	8.7
225.503	-7.68
225.721	-50.69
225.939	-3.58
226.157	10.75
226.375	78.33
226.592	51.71
226.81	68.09
227.028	43.52
227.246	94.72
227.464	84.48
227.682	76.29
227.9	61.95
228.117	39.42
228.335	10.75
228.553	84.48
228.771	-24.06
228.989	113.15
229.206	70.14
229.424	51.71
229.642	-22.02
229.86	57.86
230.077	111.1
230.295	-11.78
230.513	53.76
230.731	82.43
230.948	68.09
231.166	68.09
231.384	84.48
231.601	53.76
231.819	96.77
232.037	29.18
232.254	47.62
232.472	8.7
232.689	18.94
232.907	51.71
233.125	33.28
233.342	25.09
233.56	96.77
233.777	-30.21
233.995	6.66
234.213	31.23
234.43	27.14
234.648	16.9
234.865	45.57
235.083	43.52
235.3	137.73
235.518	45.57
235.735	131.58
235.953	113.15
236.17	-13.82
236.388	37.38
236.605	82.43
236.822	92.67
237.04	113.15
237.257	74.24
237.475	-5.63
237.692	20.99
237.909	68.09
238.127	12.8
238.344	23.04
238.562	57.86
238.779	-1.54
238.996	2.56
239.214	31.23
239.431	37.38
239.648	51.71
239.865	10.75
240.083	18.94
240.3	55.81
240.517	0.51
240.735	90.62
240.952	59.9
241.169	4.61
241.386	-30.21
241.603	64
241.821	-3.58
242.038	51.71
242.255	47.62
242.472	43.52
242.689	31.23
242.907	86.53
243.124	45.57
243.341	8.7
243.558	-15.87
243.775	-22.02
243.992	0.51
244.209	-65.02
244.426	96.77
244.643	94.72
244.86	49.66
245.078	-1.54
245.295	43.52
245.512	43.52
245.729	2.56
245.946	92.67
246.163	121.34
246.38	57.86
246.597	27.14
246.814	35.33
247.031	35.33
247.248	51.71
247.464	102.91
247.681	90.62
247.898	8.7
248.115	-42.5
248.332	-28.16
248.549	53.76
248.766	96.77
248.983	27.14
249.2	59.9
249.417	27.14
249.633	59.9
249.85	51.71
250.067	-13.82
250.284	68.09
250.501	31.23
250.717	135.68
250.934	29.18
251.151	57.86
251.368	37.38
251.585	47.62
251.801	78.33
252.018	86.53
252.235	61.95
252.451	100.86
252.668	45.57
252.885	2.56
253.102	94.72
253.318	51.71
253.535	2.56
253.752	80.38
253.968	35.33
254.185	35.33
254.401	-22.02
254.618	49.66
254.835	39.42
255.051	94.72
255.268	47.62
255.484	-15.87
255.701	84.48
255.917	-9.73
256.134	-7.68
256.351	70.14
256.567	-19.97
256.784	-3.58
257	8.7
257.217	51.71
257.433	94.72
257.65	-22.02
257.866	92.67
258.082	-17.92
258.299	10.75
258.515	84.48
258.732	18.94
258.948	55.81
259.165	49.66
259.381	53.76
259.597	10.75
259.814	-3.58
260.03	35.33
260.246	43.52
260.463	94.72
260.679	90.62
260.895	68.09
261.112	18.94
261.328	51.71
261.544	43.52
261.761	117.25
261.977	-5.63
262.193	10.75
262.409	100.86
262.626	72.19
262.842	72.19
263.058	-7.68
263.274	41.47
263.49	35.33
263.707	76.29
263.923	84.48
264.139	-5.63
264.355	-3.58
264.571	76.29
264.787	68.09
265.004	68.09
265.22	84.48
265.436	68.09
265.652	47.62
265.868	94.72
266.084	-22.02
266.3	68.09
266.516	55.81
266.732	64
266.948	33.28
267.164	12.8
267.38	168.45
267.596	-13.82
267.812	119.29
268.028	84.48
268.244	-13.82
268.46	111.1
268.676	92.67
268.892	70.14
269.108	-42.5
269.324	14.85
269.54	6.66
269.756	84.48
269.972	-30.21
270.188	45.57
270.403	-13.82
270.619	-9.73
270.835	51.71
271.051	92.67
271.267	84.48
271.483	-11.78
271.698	31.23
271.914	55.81
272.13	68.09
272.346	35.33
272.562	84.48
272.777	74.24
272.993	8.7
273.209	86.53
273.425	10.75
273.64	20.99
273.856	6.66
274.072	39.42
274.287	27.14
274.503	68.09
274.719	37.38
274.934	37.38
275.15	0.51
275.366	68.09
275.581	23.04
275.797	-9.73
276.012	51.71
276.228	-13.82
276.444	111.1
276.659	35.33
276.875	64
277.09	33.28
277.306	45.57
277.521	10.75
277.737	12.8
277.952	68.09
278.168	2.56
278.383	35.33
278.599	23.04
278.814	68.09
279.03	29.18
279.245	115.2
279.461	43.52
279.676	109.05
279.892	-19.97
280.107	4.61
280.322	35.33
280.538	39.42
280.753	-24.06
280.969	141.82
281.184	61.95
281.399	98.81
281.615	84.48
281.83	111.1
282.045	76.29
282.26	-5.63
282.476	35.33
282.691	70.14
282.906	80.38
283.122	-5.63
283.337	27.14
283.552	133.63
283.767	-1.54
283.983	59.9
284.198	64
284.413	-13.82
284.628	-9.73
284.843	10.75
285.058	119.29
285.274	27.14
285.489	45.57
285.704	117.25
285.919	35.33
286.134	43.52
286.349	-22.02
286.564	10.75
286.779	80.38
286.995	82.43
287.21	-36.35
287.425	119.29
287.64	18.94
287.855	-44.54
288.07	10.75
288.285	100.86
288.5	51.71
288.715	100.86
288.93	111.1
289.145	-5.63
289.36	68.09
289.575	-1.54
289.79	55.81
290.004	35.33
290.219	68.09
290.434	-1.54
290.649	80.38
290.864	-38.4
291.079	66.05
291.294	14.85
291.509	68.09
291.724	100.86
291.938	18.94
292.153	18.94
292.368	39.42
292.583	92.67
292.798	119.29
293.012	109.05
293.227	-1.54
293.442	182.78
293.657	109.05
293.871	125.44
294.086	43.52
294.301	145.92
294.516	61.95
294.73	82.43
294.945	55.81
295.16	6.66
295.374	66.05
295.589	113.15
295.804	12.8
296.018	74.24
296.233	76.29
296.447	12.8
296.662	76.29
296.877	68.09
297.091	64
297.306	20.99
297.52	53.76
297.735	20.99
297.949	96.77
298.164	78.33
298.378	59.9
298.593	10.75
298.807	-26.11
299.022	117.25
299.236	76.29
299.451	53.76
299.665	76.29
299.88	-36.35
300.094	59.9
300.309	45.57
300.523	119.29
300.737	43.52
300.952	10.75
301.166	6.66
301.381	4.61
301.595	41.47
301.809	35.33
302.024	137.73
302.238	61.95
302.452	92.67
302.667	47.62
302.881	96.77
303.095	107.01
303.309	102.91
303.524	59.9
303.738	-11.78
303.952	59.9
304.166	2.56
304.381	45.57
304.595	94.72
304.809	61.95
305.023	113.15
305.237	-36.35
305.452	141.82
305.666	109.05
305.88	37.38
306.094	23.04
306.308	35.33
306.522	129.53
306.736	88.57
306.95	74.24
307.164	10.75
307.379	23.04
307.593	61.95
307.807	166.4
308.021	133.63
308.235	174.59
308.449	96.77
308.663	84.48
308.877	53.76
309.091	72.19
309.305	59.9
309.519	31.23
309.733	100.86
309.947	2.56
310.161	94.72
310.374	78.33
310.588	113.15
310.802	-11.78
311.016	88.57
311.23	29.18
311.444	111.1
311.658	88.57
311.872	96.77
312.085	107.01
312.299	182.78
312.513	68.09
312.727	59.9
312.941	20.99
313.154	29.18
313.368	59.9
313.582	72.19
313.796	82.43
314.009	94.72
314.223	88.57
314.437	70.14
314.651	31.23
314.864	16.9
315.078	68.09
315.292	35.33
315.505	-13.82
315.719	35.33
315.933	35.33
316.146	39.42
316.36	10.75
316.573	90.62
316.787	37.38
317.001	12.8
317.214	18.94
317.428	2.56
317.641	61.95
317.855	43.52
318.068	59.9
318.282	104.96
318.495	109.05
318.709	74.24
318.922	35.33
319.136	59.9
319.349	152.06
319.563	84.48
319.776	117.25
319.99	10.75
320.203	68.09
320.417	18.94
320.63	166.4
320.843	96.77
321.057	80.38
321.27	49.66
321.483	2.56
321.697	45.57
321.91	12.8
322.124	20.99
322.337	43.52
322.55	51.71
322.763	10.75
322.977	51.71
323.19	76.29
323.403	68.09
323.617	133.63
323.83	68.09
324.043	23.04
324.256	76.29
324.469	45.57
324.683	117.25
324.896	55.81
325.109	111.1
325.322	-38.4
325.535	29.18
325.748	139.77
325.962	82.43
326.175	82.43
326.388	141.82
326.601	12.8
326.814	45.57
327.027	107.01
327.24	109.05
327.453	4.61
327.666	59.9
327.879	109.05
328.092	80.38
328.305	-11.78
328.518	10.75
328.731	27.14
328.944	-3.58
329.157	84.48
329.37	59.9
329.583	129.53
329.796	119.29
330.009	51.71
330.222	45.57
330.435	27.14
330.648	-1.54
330.861	51.71
331.073	20.99
331.286	70.14
331.499	100.86
331.712	43.52
331.925	-22.02
332.138	57.86
332.35	88.57
332.563	-1.54
332.776	100.86
332.989	51.71
333.202	57.86
333.414	51.71
333.627	12.8
333.84	78.33
334.053	18.94
334.265	-17.92
334.478	100.86
334.691	29.18
334.903	109.05
335.116	2.56
335.329	-3.58
335.541	-15.87
335.754	102.91
335.966	-52.74
336.179	117.25
336.392	4.61
336.604	64
336.817	92.67
337.029	35.33
337.242	-11.78
337.454	61.95
337.667	-7.68
337.88	92.67
338.092	90.62
338.305	49.66
338.517	8.7
338.729	78.33
338.942	111.1
339.154	2.56
339.367	2.56
339.579	47.62
339.792	45.57
340.004	86.53
340.217	39.42
340.429	70.14
340.641	35.33
340.854	14.85
341.066	12.8
341.278	119.29
341.491	84.48
341.703	68.09
341.915	80.38
342.128	129.53
342.34	94.72
342.552	70.14
342.764	111.1
342.977	158.21
343.189	61.95
343.401	64
343.613	59.9
343.826	39.42
344.038	-13.82
344.25	137.73
344.462	2.56
344.674	61.95
344.886	43.52
345.099	150.01
345.311	14.85
345.523	55.81
345.735	68.09
345.947	86.53
346.159	37.38
346.371	35.33
346.583	51.71
346.795	102.91
347.007	64
347.219	12.8
347.431	-17.92
347.643	35.33
347.855	72.19
348.067	174.59
348.279	84.48
348.491	68.09
348.703	88.57
348.915	104.96
349.127	12.8
349.339	70.14
349.551	-17.92
349.763	117.25
349.975	45.57
350.187	147.97
350.399	137.73
350.61	49.66
350.822	55.81
351.034	96.77
351.246	117.25
351.458	43.52
351.669	119.29
351.881	68.09
352.093	133.63
352.305	70.14
352.517	92.67
352.728	176.64
352.94	92.67
353.152	92.67
353.363	74.24
353.575	59.9
353.787	64
353.999	23.04
354.21	137.73
354.422	10.75
354.633	-30.21
354.845	53.76
355.057	43.52
355.268	86.53
355.48	57.86
355.692	43.52
355.903	-11.78
356.115	29.18
356.326	70.14
356.538	80.38
356.749	74.24
356.961	100.86
357.172	150.01
357.384	39.42
357.595	145.92
357.807	84.48
358.018	37.38
358.23	82.43
358.441	123.39
358.653	107.01
358.864	64
359.075	35.33
359.287	-9.73
359.498	125.44
359.709	76.29
359.921	10.75
360.132	35.33
360.344	76.29
360.555	64
360.766	-9.73
360.977	8.7
361.189	147.97
361.4	-3.58
361.611	80.38
361.823	147.97
362.034	51.71
362.245	43.52
362.456	-19.97
362.667	10.75
362.879	68.09
363.09	43.52
363.301	43.52
363.512	76.29
363.723	31.23
363.935	72.19
364.146	119.29
364.357	-1.54
364.568	174.59
364.779	-19.97
364.99	113.15
365.201	29.18
365.412	111.1
365.623	100.86
365.834	64
366.045	129.53
366.256	64
366.467	61.95
366.678	20.99
366.889	33.28
367.1	31.23
367.311	109.05
367.522	51.71
367.733	35.33
367.944	121.34
368.155	96.77
368.366	86.53
368.577	61.95
368.788	59.9
368.999	59.9
369.209	100.86
369.42	84.48
369.631	174.59
369.842	51.71
370.053	68.09
370.264	78.33
370.474	-3.58
370.685	27.14
370.896	35.33
371.107	104.96
371.317	102.91
371.528	76.29
371.739	109.05
371.95	82.43
372.16	29.18
372.371	31.23
372.582	25.09
372.792	98.81
373.003	88.57
373.214	51.71
373.424	111.1
373.635	68.09
373.846	43.52
374.056	66.05
374.267	92.67
374.477	70.14
374.688	27.14
374.898	51.71
375.109	80.38
375.319	43.52
375.53	96.77
375.74	121.34
375.951	-3.58
376.161	61.95
376.372	147.97
376.582	39.42
376.793	117.25
377.003	94.72
377.214	109.05
377.424	86.53
377.635	84.48
377.845	12.8
378.055	141.82
378.266	84.48
378.476	37.38
378.686	86.53
378.897	47.62
379.107	35.33
379.317	102.91
379.528	27.14
379.738	102.91
379.948	109.05
380.158	80.38
380.369	10.75
380.579	53.76
380.789	51.71
380.999	37.38
381.21	80.38
381.42	84.48
381.63	76.29
381.84	78.33
382.05	43.52
382.261	139.77
382.471	88.57
382.681	31.23
382.891	66.05
383.101	113.15
383.311	31.23
383.521	92.67
383.731	61.95
383.941	125.44
384.151	59.9
384.361	27.14
384.571	45.57
384.781	109.05
384.991	143.87
385.201	86.53
385.411	39.42
385.621	78.33
385.831	51.71
386.041	94.72
386.251	57.86
386.461	88.57
386.671	37.38
386.881	154.11
387.091	96.77
387.301	104.96
387.511	86.53
387.72	80.38
387.93	127.49
388.14	14.85
388.35	78.33
388.56	113.15
388.769	143.87
388.979	94.72
389.189	35.33
389.399	141.82
389.609	2.56
389.818	92.67
390.028	98.81
390.238	133.63
390.447	45.57
390.657	141.82
390.867	82.43
391.076	43.52
391.286	100.86
391.496	72.19
391.705	55.81
391.915	123.39
392.125	164.35
392.334	35.33
392.544	176.64
392.753	90.62
392.963	27.14
393.172	92.67
393.382	92.67
393.591	150.01
393.801	109.05
394.01	133.63
394.22	64
394.429	84.48
394.639	100.86
394.848	154.11
395.058	125.44
395.267	115.2
395.477	84.48
395.686	72.19
395.895	121.34
396.105	166.4
396.314	74.24
396.524	129.53
396.733	111.1
396.942	166.4
397.152	160.25
397.361	117.25
397.57	82.43
397.78	117.25
397.989	115.2
398.198	150.01
398.407	45.57
398.617	102.91
398.826	115.2
399.035	100.86
399.244	182.78
399.453	143.87
399.663	199.16
399.872	166.4
400.081	133.63
400.29	121.34
400.499	137.73
400.708	178.69
400.917	150.01
401.127	207.36
401.336	190.97
401.545	227.84
401.754	199.16
401.963	141.82
402.172	158.21
402.381	129.53
402.59	223.74
402.799	190.97
403.008	203.26
403.217	133.63
403.426	201.21
403.635	174.59
403.844	193.02
404.053	119.29
404.262	227.84
404.471	221.69
404.68	225.79
404.888	252.41
405.097	211.45
405.306	207.36
405.515	215.55
405.724	209.4
405.933	158.21
406.142	248.32
406.35	268.8
406.559	283.13
406.768	322.04
406.977	311.8
407.185	268.8
407.394	238.08
407.603	291.32
407.812	317.95
408.02	375.29
408.229	334.33
408.438	336.38
408.646	313.85
408.855	313.85
409.064	346.62
409.272	363
409.481	373.24
409.69	379.39
409.898	412.15
410.107	418.3
410.315	381.43
410.524	420.35
410.733	479.74
410.941	461.3
411.15	573.94
411.358	463.35
411.567	569.85
411.775	545.27
411.984	575.99
412.192	584.18
412.401	537.08
412.609	641.53
412.818	645.62
413.026	696.82
413.234	649.72
413.443	698.87
413.651	653.81
413.86	758.26
414.068	780.79
414.276	932.34
414.485	815.6
414.693	874.99
414.901	938.48
415.11	885.23
415.318	938.48
415.526	1044.98
415.734	1061.36
415.943	1022.45
416.151	1190.38
416.359	1061.36
416.567	1167.85
416.776	1190.38
416.984	1249.77
417.192	1296.88
417.4	1333.74
417.608	1393.13
417.817	1434.09
418.025	1487.34
418.233	1624.55
418.441	1511.91
418.649	1681.89
418.857	1815.01
419.065	1774.05
419.273	1714.66
419.481	1765.86
419.689	1925.6
419.897	2091.49
420.105	1982.95
420.313	2148.83
420.521	2294.24
420.729	2273.76
420.937	2185.69
421.145	2370.01
421.353	2492.89
421.561	2640.34
421.769	2646.49
421.977	2724.31
422.185	2779.61
422.393	2904.53
422.601	3078.61
422.809	3209.68
423.017	3144.14
423.224	3160.53
423.432	3328.46
423.64	3267.02
423.848	3680.71
424.056	3600.84
424.263	3781.06
424.471	3699.14
424.679	3992
424.887	4133.31
425.094	4186.56
425.302	4301.25
425.51	4454.84
425.718	4610.49
425.925	4643.26
426.133	4796.85
426.341	5026.23
426.548	5274.03
426.756	5282.22
426.964	5401.01
427.171	5491.12
427.379	5710.25
427.586	5818.79
427.794	6115.75
428.001	6244.77
428.209	6633.88
428.417	6408.61
428.624	6973.85
428.832	6963.61
429.039	6928.79
429.247	6789.53
429.454	7666.06
429.662	8059.27
429.869	7528.85
430.076	7981.45
430.284	7881.1
430.491	8063.36
430.699	8499.58
430.906	8659.32
431.114	8536.45
431.321	8939.9
431.528	9261.43
431.736	9853.29
431.943	10275.17
432.15	9906.54
432.358	10015.08
432.565	10592.61
432.772	10680.67
432.979	11032.92
433.187	11266.39
433.394	11176.28
433.601	11977.03
433.808	12056.9
434.016	12196.17
434.223	12423.49
434.43	13062.46
434.637	13285.69
434.844	13785.39
435.052	14055.72
435.259	14039.34
435.466	14252.33
435.673	14119.21
435.88	14702.88
436.087	15544.59
436.294	15405.33
436.501	15300.89
436.708	15401.24
436.915	16288.01
437.122	16765.18
437.329	16816.38
437.537	17369.33
437.743	17694.96
437.95	17441.01
438.157	18274.54
438.364	18733.28
438.571	18981.09
438.778	18950.37
438.985	20842.69
439.192	20218.06
439.399	20357.32
439.606	20156.62
439.813	21203.13
440.02	22581.42
440.227	22139.05
440.433	21723.32
440.64	22745.25
440.847	22565.03
441.054	23128.22
441.261	24475.79
441.467	24270.99
441.674	24674.44
441.881	25716.86
442.088	25550.97
442.294	25546.87
442.501	25968.76
442.708	25995.38
442.914	27435.1
443.121	28743.75
443.328	27664.47
443.534	29737.02
443.741	29038.66
443.948	28242
444.154	30603.31
444.361	30029.88
444.568	30064.69
444.774	30431.28
444.981	30707.76
445.187	31672.35
445.394	33454.08
445.6	32817.16
445.807	35594.21
446.013	33945.59
446.22	34822.12
446.426	36290.52
446.633	36349.91
446.839	37838.78
447.046	35889.12
447.252	38199.23
447.459	38430.65
447.665	37529.54
447.871	39753.63
448.078	41383.82
448.284	39387.05
448.491	40574.87
448.697	41983.87
448.903	42704.76
449.11	42794.87
449.316	42157.95
449.522	43038.58
449.728	44210.01
449.935	44644.18
450.141	44117.85
450.347	45195.09
450.553	44001.12
450.76	44359.52
450.966	46088
451.172	44951.38
451.378	46614.33
451.584	45832
451.791	46942
451.997	46899
452.203	46978.87
452.409	47357.74
452.615	47136.56
452.821	45227.85
453.027	44951.38
453.233	47300.4
453.44	45600.58
453.646	46206.78
453.852	45987.65
454.058	47202.1
454.264	45281.1
454.47	46323.52
454.676	45066.06
454.882	46806.84
455.088	42876.79
455.294	43399.02
455.5	44130.14
455.705	44728.15
455.911	42653.56
456.117	41813.89
456.323	41334.67
456.529	39417.77
456.735	41160.59
456.941	39976.86
457.147	39622.56
457.352	38285.24
457.558	38016.96
457.764	37769.15
457.97	37085.13
458.176	36405.2
458.381	36515.79
458.587	34586.61
458.793	34678.77
458.999	32858.12
459.204	35323.88
459.41	34213.88
459.616	31899.67
459.821	32184.34
460.027	31684.64
460.233	30939.18
460.438	29571.13
460.644	29704.25
460.85	28485.71
461.055	28049.49
461.261	28016.72
461.466	25968.76
461.672	25313.41
461.878	27019.36
462.083	25143.42
462.289	24645.77
462.494	24367.24
462.7	23023.78
462.905	22890.66
463.111	23486.62
463.316	23646.36
463.522	22683.81
463.727	22786.21
463.932	23156.89
464.138	22892.71
464.343	22845.6
464.549	21811.38
464.754	23066.78
464.959	22837.41
465.165	22519.98
465.37	21547.19
465.575	20990.14
465.781	21751.99
465.986	21821.62
466.191	20814.02
466.397	20615.37
466.602	19591.38
466.807	20607.17
467.012	20082.89
467.218	20078.8
467.423	19902.67
467.628	20080.85
467.833	20943.04
468.038	20250.83
468.244	19380.44
468.449	20318.41
468.654	19605.72
468.859	19626.2
469.064	19177.69
469.269	18682.08
469.474	18757.86
469.679	19134.68
469.885	18192.62
470.09	18952.41
470.295	18637.03
470.5	17975.53
470.705	18125.04
470.91	18104.56
471.115	17600.76
471.32	18106.6
471.525	18012.4
471.73	17256.7
471.935	17283.32
472.139	16812.29
472.344	17012.99
472.549	16941.31
472.754	16718.08
472.959	16351.49
473.164	16079.11
473.369	15853.84
473.574	16525.57
473.778	16134.41
473.983	15960.33
474.188	15769.87
474.393	15296.79
474.598	15214.87
474.802	15116.57
475.007	14969.12
475.212	15206.68
475.417	14455.08
475.621	14545.19
475.826	14784.8
476.031	14229.8
476.235	14004.52
476.44	14223.65
476.645	13863.21
476.849	13652.27
477.054	13799.73
477.259	13609.26
477.463	13537.59
477.668	13158.71
477.872	13377.84
478.077	13134.14
478.282	12753.21
478.486	12736.83
478.691	12681.53
478.895	12659.01
479.1	12577.09
479.304	12519.74
479.509	12061
479.713	12239.17
479.918	12224.84
480.122	11839.82
480.326	12386.63
480.531	12147.01
480.735	11995.46
480.94	11845.96
481.144	12185.93
481.348	11792.72
481.553	11792.72
481.757	11444.56
481.961	11532.62
482.166	11698.51
482.37	11536.72
482.574	11438.42
482.778	11514.19
482.983	11784.52
483.187	11573.58
483.391	11682.13
483.595	11491.66
483.8	11540.82
484.004	11706.7
484.208	11712.85
484.412	11514.19
484.616	11557.2
484.821	11430.23
485.025	11440.47
485.229	11397.46
485.433	11204.95
485.637	11221.33
485.841	11364.69
486.045	11467.09
486.249	11422.03
486.453	11327.83
486.657	11276.63
486.861	11632.97
487.065	11159.89
487.269	11293.01
487.473	11432.27
487.677	11616.59
487.881	11483.47
488.085	11376.98
488.289	11387.22
488.493	11129.17
488.697	11524.43
488.901	11465.04
489.105	11497.81
489.309	11549.01
489.512	11569.49
489.716	11475.28
489.92	11376.98
490.124	11442.51
490.328	11575.63
490.531	11438.42
490.735	11520.34
490.939	11710.8
491.143	11446.61
491.346	11559.25
491.55	11618.64
491.754	11749.71
491.958	11866.44
492.161	11905.35
492.365	11823.44
492.569	11794.76
492.772	11946.31
492.976	11970.89
493.18	11819.34
493.383	11960.65
493.587	12259.65
493.79	12247.37
493.994	12181.83
494.197	12278.08
494.401	12435.78
494.605	12433.73
494.808	12489.03
495.012	12626.24
495.215	12564.8
495.419	12724.54
495.622	12519.74
495.825	13021.5
496.029	12742.97
496.232	13119.8
496.436	13080.89
496.639	13183.29
496.843	12984.63
497.046	13726
497.249	13650.22
497.453	13676.85
497.656	13955.37
497.859	13474.1
498.063	13955.37
498.266	14084.39
498.469	14182.7
498.673	14346.53
498.876	14592.29
499.079	14838.05
499.282	14502.18
499.485	15288.6
499.689	15147.29
499.892	15210.78
500.095	15206.68
500.298	15581.46
500.501	15421.72
500.705	15819.02
500.908	15886.61
501.111	16118.03
501.314	16048.4
501.517	16369.93
501.72	16570.63
501.923	16288.01
502.126	16926.97
502.329	16912.64
502.532	17344.76
502.735	17246.46
502.938	17711.35
503.141	17436.92
503.344	17928.43
503.547	18084.08
503.75	18049.26
503.953	18639.08
504.156	18381.03
504.359	18880.74
504.562	18807.01
504.765	19101.92
504.968	19476.69
505.17	19771.6
505.373	19712.21
505.576	19837.14
505.779	20498.63
505.982	20052.17
506.185	20463.82
506.387	20641.99
506.59	20852.93
506.793	21364.92
506.996	21037.25
507.198	21997.74
507.401	21596.34
507.604	21899.44
507.807	22319.28
508.009	22728.87
508.212	22472.87
508.415	22726.82
508.617	22964.39
508.82	23328.92
509.022	23074.98
509.225	23935.12
509.428	24029.33
509.63	24379.53
509.833	24428.68
510.035	25012.35
510.238	24715.4
510.44	25028.74
510.643	25098.37
510.845	25442.43
511.048	25495.67
511.25	25929.84
511.453	26151.02
511.655	26765.42
511.858	26550.38
512.06	26970.21
512.262	26898.53
512.465	26990.69
512.667	27443.29
512.87	27875.41
513.072	27897.94
513.274	28244.05
513.477	28608.59
513.679	29003.85
513.881	29179.97
514.084	29366.34
514.286	29487.17
514.488	29366.34
514.69	30304.31
514.893	30382.13
515.095	30380.08
515.297	30681.13
515.499	31068.2
515.701	31668.25
515.904	31729.69
516.106	31555.61
516.308	32086.04
516.51	32342.03
516.712	32272.4
516.914	32786.44
517.116	33355.78
517.318	33550.34
517.52	33390.59
517.722	33656.83
517.925	33738.75
518.127	34201.59
518.329	34633.71
518.531	34527.22
518.733	35135.46
518.935	35348.45
519.136	35188.71
519.338	35700.7
519.54	36128.73
519.742	36093.91
519.944	36437.97
520.146	37093.32
520.348	37101.51
520.55	36888.53
520.752	37330.89
520.954	37894.08
521.155	37758.91
521.357	38227.9
521.559	38121.4
521.761	38547.38
521.963	38264.76
522.164	38766.51
522.366	38864.81
522.568	39053.23
522.77	39286.7
522.971	39813.02
523.173	39298.98
523.375	40279.96
523.576	39716.77
523.778	39913.37
523.98	40230.81
524.181	40359.83
524.383	40116.12
524.584	41291.66
524.786	40863.63
524.988	40437.65
525.189	41052.05
525.391	41074.57
525.592	41535.37
525.794	41230.22
525.995	41443.21
526.197	41435.02
526.398	41111.44
526.6	41936.77
526.801	41697.16
527.003	42057.6
527.204	41860.99
527.406	42014.59
527.607	41848.71
527.808	42499.96
528.01	41721.73
528.211	42139.52
528.412	42495.86
528.614	42411.9
528.815	42368.89
529.016	43009.9
529.218	42469.24
529.419	42616.69
529.62	42248.06
529.822	42393.47
530.023	42246.01
530.224	42319.74
530.425	42448.76
530.626	41934.72
530.828	41852.8
531.029	42479.48
531.23	42332.03
531.431	41977.73
531.632	42389.37
531.833	42198.91
532.035	42506.1
532.236	42360.7
532.437	42401.66
532.638	41928.58
532.839	42266.49
533.04	42411.9
533.241	41748.35
533.442	42272.63
533.643	41846.66
533.844	42088.32
534.045	42047.36
534.246	41602.95
534.447	41899.9
534.648	41475.98
534.849	41533.32
535.05	41631.62
535.251	41844.61
535.451	41824.13
535.652	41695.11
535.853	41473.93
536.054	41148.3
536.255	41619.33
536.456	41279.37
536.657	41985.92
536.857	41162.64
537.058	40949.65
537.259	41285.51
537.46	41312.14
537.66	41500.55
537.861	41162.64
538.062	41095.05
538.263	41301.9
538.463	41084.81
538.664	40693.65
538.865	40865.68
539.065	41156.49
539.266	40587.16
539.466	41269.13
539.667	40239
539.868	41295.75
540.068	40810.39
540.269	40581.01
540.469	40798.1
540.67	40884.11
540.87	40681.36
541.071	40859.54
541.271	40546.2
541.472	40351.64
541.672	40499.09
541.873	40273.82
542.073	40239
542.274	40814.48
542.474	40359.83
542.675	40075.16
542.875	40193.95
543.075	40206.23
543.276	39933.85
543.476	40306.58
543.676	40198.04
543.877	40361.88
544.077	40228.76
544.277	39983.01
544.478	39817.12
544.678	40296.35
544.878	40030.11
545.078	39860.13
545.279	39929.76
545.479	39829.41
545.679	40079.26
545.879	40228.76
546.079	40320.92
546.28	39667.62
546.48	39649.19
546.68	39907.23
546.88	39874.46
547.08	40103.84
547.28	40105.88
547.48	39673.76
547.68	39901.09
547.88	39796.64
548.081	40026.01
548.281	39747.49
548.481	40163.23
548.681	40206.23
548.881	39708.58
549.081	39843.74
549.28	39860.13
549.48	39585.7
549.68	39729.06
549.88	40353.69
550.08	40097.69
550.28	40167.32
550.48	39794.59
550.68	40030.11
550.88	39888.8
551.08	40044.44
551.279	39899.04
551.479	39722.91
551.679	39905.18
551.879	39491.49
552.079	40148.89
552.278	39647.14
552.478	39985.05
552.678	40155.04
552.878	39669.67
553.077	39915.42
553.277	39696.29
553.477	40787.86
553.676	39880.61
553.876	40105.88
554.076	40120.22
554.275	39890.85
554.475	39747.49
554.674	40308.63
554.874	40392.6
555.074	40054.68
555.273	40062.88
555.473	40220.57
555.672	40312.73
555.872	40083.36
556.071	40056.73
556.271	40443.8
556.47	40566.68
556.67	39780.26
556.869	40075.16
557.068	40318.87
557.268	39671.71
557.467	40001.44
557.667	40148.89
557.866	40511.38
558.065	40228.76
558.265	40148.89
558.464	39735.2
558.663	40656.79
558.863	39808.93
559.062	40495
559.261	39767.97
559.461	40517.53
559.66	39976.86
559.859	40673.17
560.058	39952.29
560.258	40275.87
560.457	40150.94
560.656	40572.82
560.855	39944.09
561.054	40677.27
561.253	40107.93
561.453	39890.85
561.652	39894.94
561.851	40241.05
562.05	40458.13
562.249	40054.68
562.448	40472.47
562.647	40140.7
562.846	40040.35
563.045	40146.84
563.244	39978.91
563.443	40501.14
563.642	39475.11
563.841	39817.12
564.04	39763.87
564.239	40286.11
564.438	40007.58
564.637	39931.81
564.836	39917.47
565.035	39272.36
565.234	39864.22
565.432	39526.31
565.631	39724.96
565.83	39698.34
566.029	39436.2
566.228	39554.98
566.427	39395.24
566.625	39307.18
566.824	39174.06
567.023	39298.98
567.222	38514.61
567.42	39409.57
567.619	39153.58
567.818	39067.56
568.016	38590.39
568.215	39344.04
568.414	39098.28
568.612	39331.75
568.811	38969.26
569.01	39014.32
569.208	38383.54
569.407	38666.16
569.605	38174.65
569.804	38676.4
570.002	38336.44
570.201	38576.05
570.4	37988.28
570.598	37726.14
570.797	37629.89
570.995	38178.75
571.193	38080.44
571.392	38287.29
571.59	37744.58
571.789	38045.63
571.987	37613.51
572.186	37679.04
572.384	37273.54
572.582	37341.13
572.781	37126.09
572.979	36931.53
573.177	37181.38
573.376	37263.3
573.574	36947.92
573.772	37150.67
573.971	36749.26
574.169	36702.16
574.367	36425.68
574.565	36747.22
574.763	36728.78
574.962	36331.48
575.16	36075.48
575.358	36388.82
575.556	36003.8
575.754	36327.38
575.952	35745.76
576.151	36059.1
576.349	35821.53
576.547	35796.96
576.745	35704.8
576.943	35796.96
577.141	35706.85
577.339	35362.79
577.537	35157.99
577.735	35188.71
577.933	35045.35
578.131	35323.88
578.329	34955.24
578.527	34840.56
578.725	35002.35
578.923	35395.56
579.121	34621.42
579.319	35084.26
579.516	34420.72
579.714	34547.7
579.912	34394.1
580.11	34461.68
580.308	34453.49
580.506	33880.06
580.704	33708.03
580.901	34076.66
581.099	33931.26
581.297	33720.32
581.495	33538.05
581.692	33601.54
581.89	33472.51
582.088	33847.29
582.285	33237
582.483	33546.24
582.681	33421.31
582.878	33124.36
583.076	32995.34
583.274	33110.02
583.471	32796.68
583.669	32794.64
583.866	32714.76
584.064	33052.68
584.262	31995.93
584.459	32604.17
584.657	32284.69
584.854	32894.99
585.052	31963.16
585.249	32544.78
585.447	32288.79
585.644	32028.7
585.841	32104.47
586.039	32526.35
586.236	31594.53
586.434	31856.67
586.631	31729.69
586.828	31784.99
587.026	31756.32
587.223	31729.69
587.42	31428.64
587.618	31627.29
587.815	31332.39
588.012	31299.62
588.21	31002.66
588.407	31430.69
588.604	31027.24
588.801	30986.28
588.999	31002.66
589.196	30654.51
589.393	30996.52
589.59	30812.2
589.787	30511.15
589.984	30394.42
590.182	30519.34
590.379	30574.64
590.576	30124.08
590.773	30326.83
590.97	30040.12
591.167	30500.91
591.364	29841.46
591.561	30431.28
591.758	30367.79
591.955	30087.22
592.152	30091.32
592.349	30064.69
592.546	30064.69
592.743	29935.67
592.94	29507.65
593.137	29681.72
593.334	29761.59
593.531	29222.98
593.727	29667.39
593.924	29552.7
594.121	29368.38
594.318	29708.35
594.515	29040.71
594.712	29556.8
594.908	29302.85
595.105	29485.12
595.302	28919.88
595.499	29036.61
595.696	29087.81
595.892	28983.37
596.089	29182.02
596.286	29151.3
596.482	29001.8
596.679	28964.93
596.876	29167.68
597.072	29036.61
597.269	28958.79
597.466	28653.64
597.662	28655.69
597.859	28764.23
598.055	28692.55
598.252	28362.83
598.448	28555.34
598.645	29014.09
598.841	28702.79
599.038	28723.27
599.234	28905.54
599.431	28774.47
599.627	28723.27
599.824	28590.16
600.02	28811.34
600.217	28598.35
600.413	28301.39
600.609	28579.92
600.806	28446.8
601.002	28119.12
601.198	28348.5
601.395	28366.93
601.591	28459.09
601.787	28489.81
601.984	28164.18
602.18	28559.44
602.376	28379.21
602.572	28373.07
602.769	28655.69
602.965	28309.58
603.161	28426.32
603.357	28457.04
603.553	28518.48
603.75	28258.38
603.946	28604.49
604.142	28887.11
604.338	28112.98
604.534	28737.61
604.73	28442.7
604.926	28309.58
605.122	28436.56
605.318	28364.88
605.514	28493.9
605.71	28155.99
605.906	28287.06
606.102	28708.94
606.298	28889.16
606.494	28328.02
606.69	28377.17
606.886	28498
607.082	28293.2
607.278	28934.21
607.474	28389.45
607.67	28749.9
607.866	28715.08
608.062	29145.16
608.257	28538.96
608.453	28710.99
608.649	28897.35
608.845	28719.18
609.041	28708.94
609.236	29032.52
609.432	29091.91
609.628	29040.71
609.824	29075.52
610.019	28721.23
610.215	29128.77
610.411	29261.89
610.606	29005.89
610.802	29286.47
610.998	29435.97
611.193	29413.44
611.389	29225.03
611.584	29243.46
611.78	29128.77
611.976	29399.1
612.171	29460.54
612.367	29333.57
612.562	29143.11
612.758	28954.69
612.953	29397.06
613.149	29677.63
613.344	29407.3
613.539	29800.51
613.735	29675.58
613.93	29454.4
614.126	29763.64
614.321	29567.04
614.517	29726.78
614.712	29655.1
614.907	29608
615.103	29601.85
615.298	29227.07
615.493	29847.61
615.688	29122.63
615.884	29816.89
616.079	29395.01
616.274	29792.31
616.47	29835.32
616.665	29745.21
616.86	29763.64
617.055	29392.96
617.25	29487.17
617.445	29868.09
617.641	29139.01
617.836	29694.01
618.031	29425.73
618.226	29884.47
618.421	29261.89
618.616	29718.59
618.811	28860.49
619.006	29325.38
619.201	28991.56
619.396	29294.66
619.591	28551.24
619.786	29044.8
619.981	28663.88
620.176	29198.4
620.371	28338.26
620.566	28893.26
620.761	28471.37
620.956	29007.94
621.151	28256.34
621.346	28477.52
621.541	28184.66
621.735	28575.82
621.93	27674.71
622.125	28158.03
622.32	27455.58
622.515	27764.82
622.709	27373.66
622.904	27535.45
623.099	27111.52
623.294	27535.45
623.488	26833
623.683	27066.47
623.878	26912.87
624.072	27068.51
624.267	26613.87
624.462	26816.61
624.656	26345.58
624.851	26447.98
625.046	26198.13
625.24	26321.01
625.435	25702.52
625.629	25856.12
625.824	25704.57
626.018	25819.25
626.213	25104.51
626.407	25643.13
626.602	24819.85
626.796	25251.97
626.991	25315.45
627.185	25086.08
627.38	24739.97
627.574	24668.3
627.768	24473.74
627.963	24289.42
628.157	24340.62
628.352	24205.45
628.546	23793.81
628.74	24184.97
628.935	23593.11
629.129	23986.32
629.323	23367.84
629.517	23599.26
629.712	23394.46
629.906	23296.16
630.1	22868.13
630.294	23117.98
630.489	22988.96
630.683	23081.12
630.877	22790.31
631.071	22724.77
631.265	22968.48
631.459	22411.43
631.653	22311.08
631.848	22177.97
632.042	22085.81
632.236	22302.89
632.43	22063.28
632.624	21766.32
632.818	21616.82
633.012	21520.57
633.206	21700.79
633.4	21395.64
633.594	21051.58
633.788	21067.97
633.982	21235.9
634.176	21176.51
634.369	21151.93
634.563	20785.35
634.757	20656.32
634.951	20699.33
635.145	20590.79
635.339	20689.09
635.533	20166.86
635.726	20089.04
635.92	19910.86
636.114	20068.56
636.308	19863.76
636.501	19824.85
636.695	19777.75
636.889	19607.76
637.083	19386.58
637.276	19300.57
637.47	19312.86
637.664	18966.75
637.857	18909.41
638.051	19065.05
638.244	18753.76
638.438	18594.02
638.632	18573.54
638.825	18397.42
639.019	18452.71
639.212	18249.96
639.406	18209
639.599	18059.5
639.793	18133.23
639.986	17762.54
640.18	17742.07
640.373	17789.17
640.567	17340.66
640.76	17737.97
640.954	17490.17
641.147	17303.8
641.34	17012.99
641.534	17146.11
641.727	17185.02
641.92	16980.22
642.114	16947.45
642.307	16726.27
642.5	16685.31
642.694	16363.78
642.887	16189.7
643.08	16673.03
643.273	16038.16
643.467	16095.5
643.66	15802.64
643.853	15839.5
644.046	15718.67
644.239	15687.95
644.432	15771.92
644.626	15522.07
644.819	15526.16
645.012	15479.06
645.205	15319.32
645.398	15483.16
645.591	14801.18
645.784	15202.58
645.977	15001.88
646.17	14889.24
646.363	14432.55
646.556	14561.57
646.749	14817.57
646.942	14516.51
647.135	14782.75
647.328	14444.84
647.521	14233.89
647.714	14332.2
647.907	13973.8
648.099	14010.67
648.292	13924.65
648.485	13568.3
648.678	13713.71
648.871	13832.49
649.064	13648.18
649.256	13779.25
649.449	13470
649.642	13461.81
649.835	13281.59
650.027	13138.23
650.22	13035.83
650.413	13050.17
650.605	13031.74
650.798	12763.45
650.991	12740.93
651.183	12708.16
651.376	12642.62
651.568	12761.41
651.761	12626.24
651.954	12540.22
652.146	12472.64
652.339	12458.31
652.531	12405.06
652.724	12028.23
652.916	11807.05
653.109	12040.52
653.301	12028.23
653.494	12046.66
653.686	11872.59
653.879	12058.95
654.071	11782.48
654.263	11786.57
654.456	11786.57
654.648	11927.88
654.84	11546.96
655.033	11561.3
655.225	11368.79
655.417	11323.73
655.61	11241.81
655.802	11176.28
655.994	11159.89
656.186	11198.81
656.379	10969.43
656.571	11030.87
656.763	10727.77
656.955	10762.59
657.148	11077.97
657.34	10762.59
657.532	10778.97
657.724	10762.59
657.916	10537.31
658.108	10555.74
658.3	10633.57
658.492	10262.88
658.684	10299.75
658.876	10418.53
659.068	10045.8
659.26	10211.68
659.452	10238.31
659.644	10176.87
659.836	10326.37
660.028	10174.82
660.22	9849.19
660.412	9951.59
660.604	9638.25
660.796	10006.89
660.988	9746.8
661.18	9525.61
661.372	9380.21
661.563	9539.95
661.755	9441.65
661.947	9611.63
662.139	9376.11
662.331	9232.76
662.522	9269.62
662.714	9075.06
662.906	9042.29
663.097	9060.73
663.289	9034.1
663.481	8943.99
663.673	9005.43
663.864	8939.9
664.056	8700.28
664.247	8751.48
664.439	8567.17
664.631	8657.28
664.822	8694.14
665.014	8595.84
665.205	8569.21
665.397	8450.43
665.588	8651.13
665.78	8284.55
665.971	8391.04
666.163	8466.81
666.354	8335.74
666.546	8198.53
666.737	8079.75
666.929	8180.1
667.12	8180.1
667.311	8079.75
667.503	8061.32
667.694	7956.87
667.885	7913.86
668.077	7872.9
668.268	7612.81
668.459	7793.03
668.651	7879.05
668.842	7790.99
669.033	7631.24
669.224	7551.37
669.416	7702.92
669.607	7764.36
669.798	7487.89
669.989	7483.79
670.18	7571.85
670.371	7391.63
670.563	7195.03
670.754	7434.64
670.945	7223.7
671.136	7344.53
671.327	7203.22
671.518	7227.79
671.709	7375.25
671.9	7301.52
672.091	7094.68
672.282	7096.72
672.473	6941.08
672.664	7039.38
672.855	6934.93
673.046	7039.38
673.237	6920.6
673.428	7002.52
673.619	7014.8
673.809	7000.47
674	6760.86
674.191	6820.25
674.382	6824.34
674.573	6617.5
674.764	6644.12
674.954	6691.23
675.145	6687.13
675.336	6707.61
675.527	6617.5
675.717	6650.27
675.908	6566.3
676.099	6646.17
676.289	6494.62
676.48	6588.83
676.671	6445.47
676.861	6388.13
677.052	6351.26
677.243	6334.88
677.433	6236.58
677.624	6361.5
677.814	6363.55
678.005	6252.96
678.195	6255.01
678.386	6255.01
678.576	6318.5
678.767	6252.96
678.957	6359.45
679.148	6240.67
679.338	6281.63
679.529	6179.23
679.719	6162.85
679.909	6347.17
680.1	6076.84
680.29	6250.91
680.481	5949.86
680.671	6148.51
680.861	6187.43
681.052	6220.19
681.242	5804.46
681.432	6261.15
681.622	5941.67
681.813	6078.88
682.003	6076.84
682.193	5984.68
682.383	6060.45
682.573	5986.72
682.764	5853.61
682.954	5962.15
683.144	5966.24
683.334	5867.94
683.524	5915.05
683.714	5878.18
683.904	5853.61
684.094	5730.73
684.284	5857.7
684.474	5814.7
684.664	5896.61
684.854	5904.81
685.044	5851.56
685.234	5802.41
685.424	5626.28
685.614	5630.38
685.804	5835.17
685.994	5616.04
686.184	5708.2
686.374	5601.71
686.564	5704.1
686.753	5534.12
686.943	5718.44
687.133	5624.23
687.323	5714.34
687.513	5642.67
687.702	5527.98
687.892	5644.71
688.082	5607.85
688.272	5632.43
688.461	5654.95
688.651	5558.7
688.841	5335.47
689.03	5450.16
689.22	5401.01
689.41	5343.66
689.599	5401.01
689.789	5347.76
689.979	5468.59
690.168	5503.4
690.358	5269.94
690.547	5294.51
690.737	5507.5
690.926	5202.35
691.116	5145.01
691.305	5392.81
691.495	5319.09
691.684	5102
691.874	5274.03
692.063	5228.98
692.252	5259.7
692.442	5222.83
692.631	5261.74
692.82	5181.87
693.01	5194.16
693.199	5263.79
693.388	5108.15
693.578	5106.1
693.767	5179.82
693.956	5050.8
694.146	5136.82
694.335	5104.05
694.524	5040.56
694.713	5018.04
694.902	5026.23
695.092	4993.46
695.281	4987.32
695.47	5075.38
695.659	4913.59
695.848	4991.41
696.037	4919.73
696.226	4993.46
696.415	4942.26
696.604	4909.49
696.793	4977.08
696.982	4923.83
697.171	4968.88
697.36	4934.07
697.549	4893.11
697.738	4856.25
697.927	4852.15
698.116	4839.86
698.305	4827.57
698.494	4784.57
698.683	4612.54
698.872	4807.09
699.061	4747.7
699.25	4698.55
699.438	4782.52
699.627	4702.65
699.816	4669.88
700.005	4704.7
700.193	4762.04
700.382	4719.03
700.571	4721.08
700.76	4630.97
700.948	4622.78
701.137	4596.15
701.326	4608.44
701.514	4549.05
701.703	4696.5
701.892	4469.18
702.08	4532.67
702.269	4460.99
702.457	4577.72
702.646	4508.09
702.834	4469.18
703.023	4538.81
703.212	4475.32
703.4	4467.13
703.589	4444.6
703.777	4512.19
703.965	4313.53
704.154	4413.88
704.342	4166.08
704.531	4344.25
704.719	4372.93
704.907	4364.73
705.096	4329.92
705.284	4223.42
705.472	4299.2
705.661	4176.32
705.849	4352.45
706.037	4354.49
706.226	4317.63
706.414	4086.21
706.602	4217.28
706.79	4174.27
706.979	4270.53
707.167	4211.14
707.355	4172.22
707.543	4164.03
707.731	4176.32
707.919	4008.39
708.107	4063.68
708.296	4086.21
708.484	4004.29
708.672	3975.62
708.86	4106.69
709.048	4092.35
709.236	4041.15
709.424	3975.62
709.612	3992
709.8	3918.28
709.988	4008.39
710.176	4078.02
710.364	3987.91
710.551	3928.52
710.739	3822.02
710.927	3860.93
711.115	4028.87
711.303	3914.18
711.491	3901.89
711.679	3779.01
711.866	3910.08
712.054	3856.84
712.242	3838.41
712.43	3729.86
712.617	3729.86
712.805	3738.05
712.993	3654.09
713.181	3725.77
713.368	3674.57
713.556	3686.86
713.744	3697.1
713.931	3793.35
714.119	3611.08
714.306	3613.13
714.494	3721.67
714.682	3613.13
714.869	3713.48
715.057	3748.29
715.244	3518.92
715.432	3629.51
715.619	3494.35
715.807	3568.07
715.994	3480.01
716.182	3371.47
716.369	3455.44
716.556	3459.53
716.744	3264.97
716.931	3539.4
717.119	3586.51
717.306	3467.72
717.493	3389.9
717.681	3443.15
717.868	3500.49
718.055	3285.45
718.242	3396.04
718.43	3437
718.617	3391.95
718.804	3318.22
718.991	3422.67
719.179	3344.84
719.366	3451.34
719.553	3305.93
719.74	3428.81
719.927	3334.61
720.114	3369.42
720.301	3267.02
720.488	3273.17
720.676	3221.97
720.863	3156.43
721.05	3271.12
721.237	3205.58
721.424	3181.01
721.611	3156.43
721.798	3168.72
721.985	3041.75
722.172	3078.61
722.358	3049.94
722.545	3183.06
722.732	3142.1
722.919	3166.67
723.106	3004.88
723.293	3131.86
723.48	3152.34
723.667	3049.94
723.853	3011.03
724.04	3144.14
724.227	3072.47
724.414	3004.88
724.6	2968.02
724.787	3070.42
724.974	3000.79
725.161	2959.83
725.347	2828.76
725.534	2994.64
725.72	2836.95
725.907	2918.87
726.094	2894.29
726.28	2841.04
726.467	2884.05
726.653	2746.84
726.84	2941.4
727.027	2869.72
727.213	2804.18
727.4	2955.73
727.586	2877.91
727.773	2890.2
727.959	2828.76
728.145	2806.23
728.332	2804.18
728.518	2820.56
728.705	2869.72
728.891	2656.73
729.077	2783.7
729.264	2636.25
729.45	2763.22
729.636	2963.92
729.823	2763.22
730.009	2832.85
730.195	2722.26
730.382	2798.04
730.568	2795.99
730.754	2742.74
730.94	2765.27
731.126	2804.18
731.313	2626.01
731.499	2693.59
731.685	2619.86
731.871	2558.42
732.057	2632.15
732.243	2683.35
732.429	2648.54
732.615	2712.02
732.801	2666.97
732.987	2480.6
733.173	2478.55
733.359	2566.62
733.545	2476.51
733.731	2527.71
733.917	2621.91
734.103	2503.13
734.289	2492.89
734.475	2525.66
734.661	2513.37
734.847	2513.37
735.033	2492.89
735.219	2480.6
735.404	2525.66
735.59	2361.82
735.776	2468.31
735.962	2468.31
736.148	2445.79
736.333	2378.2
736.519	2367.96
736.705	2462.17
736.89	2316.76
737.076	2435.55
737.262	2339.29
737.447	2365.92
737.633	2312.67
737.819	2333.15
738.004	2349.53
738.19	2374.11
738.375	2263.52
738.561	2314.72
738.747	2345.44
738.932	2222.56
739.118	2322.91
739.303	2249.18
739.489	2202.08
739.674	2251.23
739.859	2337.24
740.045	2255.33
740.23	2259.42
740.416	2150.88
740.601	2224.61
740.786	2165.21
740.972	2085.34
741.157	2122.21
741.342	2068.96
741.528	2095.58
741.713	2161.12
741.898	2173.41
742.084	2146.78
742.269	2200.03
742.454	2181.6
742.639	2247.13
742.824	2060.77
743.01	2050.53
743.195	2005.47
743.38	2120.16
743.565	2046.43
743.75	2032.1
743.935	2013.67
744.12	2068.96
744.305	2058.72
744.49	1968.61
744.675	1972.71
744.86	2011.62
745.045	1921.51
745.23	1980.9
745.415	1931.75
745.6	2099.68
745.785	1935.84
745.97	1944.03
746.155	1944.03
746.34	1841.64
746.525	1972.71
746.71	1890.79
746.895	1843.68
747.079	1931.75
747.264	1860.07
747.449	1864.16
747.634	1849.83
747.819	1831.4
748.003	1804.77
748.188	1837.54
748.373	1952.23
748.557	1722.85
748.742	1755.62
748.927	1759.72
749.111	1757.67
749.296	1767.91
749.481	1653.22
749.665	1743.33
749.85	1731.05
750.034	1698.28
750.219	1634.79
750.404	1685.99
750.588	1559.02
750.773	1573.35
750.957	1657.32
751.141	1602.02
751.326	1579.5
751.51	1491.43
751.695	1503.72
751.879	1518.06
752.064	1583.59
752.248	1444.33
752.432	1505.77
752.617	1507.82
752.801	1503.72
752.985	1456.62
753.17	1507.82
753.354	1493.48
753.538	1462.76
753.722	1450.47
753.907	1382.89
754.091	1442.28
754.275	1378.79
754.459	1419.75
754.643	1446.38
754.828	1413.61
755.012	1382.89
755.196	1407.47
755.38	1350.12
755.564	1415.66
755.748	1335.79
755.932	1395.18
756.116	1356.27
756.3	1274.35
756.484	1268.2
756.668	1460.71
756.852	1366.51
757.036	1362.41
757.22	1288.68
757.404	1192.43
757.588	1247.72
757.772	1239.53
757.956	1225.2
758.14	1292.78
758.323	1206.77
758.507	1329.64
758.691	1217.01
758.875	1165.81
759.059	1169.9
759.242	1192.43
759.426	1235.44
759.61	1167.85
759.794	1161.71
759.977	1278.44
760.161	1274.35
760.345	1051.12
760.528	1178.09
760.712	1165.81
760.895	1116.65
761.079	1108.46
761.263	1067.5
761.446	1094.13
761.63	1112.56
761.813	1155.57
761.997	1075.7
762.18	1079.79
762.364	1116.65
762.547	1059.31
762.731	1085.94
762.914	1116.65
763.098	1102.32
763.281	985.58
763.464	1057.26
763.648	1157.61
763.831	1051.12
764.015	1012.21
764.198	1079.79
764.381	995.82
764.564	1042.93
764.748	1038.83
764.931	1087.98
765.114	1012.21
765.297	1026.54
765.481	948.72
765.664	944.63
765.847	905.71
766.03	971.25
766.213	1034.74
766.397	973.3
766.58	995.82
766.763	911.86
766.946	1030.64
767.129	922.1
767.312	950.77
767.495	903.67
767.678	928.24
767.861	993.78
768.044	969.2
768.227	954.87
768.41	903.67
768.593	950.77
768.776	895.47
768.959	891.38
769.142	946.67
769.324	909.81
769.507	874.99
769.69	870.9
769.873	903.67
770.056	954.87
770.239	920.05
770.421	879.09
770.604	924.15
770.787	881.14
770.97	903.67
771.152	907.76
771.335	938.48
771.518	887.28
771.7	946.67
771.883	872.95
772.066	846.32
772.248	823.8
772.431	844.28
772.613	784.88
772.796	823.8
772.978	952.82
773.161	838.13
773.343	774.64
773.526	791.03
773.708	829.94
773.891	831.99
774.073	854.51
774.256	883.19
774.438	815.6
774.621	891.38
774.803	805.36
774.985	844.28
775.168	791.03
775.35	772.6
775.532	870.9
775.715	815.6
775.897	791.03
776.079	756.21
776.261	741.88
776.444	750.07
776.626	735.73
776.808	670.2
776.99	764.4
777.173	750.07
777.355	768.5
777.537	682.49
777.719	651.77
777.901	641.53
778.083	690.68
778.265	711.16
778.447	690.68
778.629	707.06
778.811	727.54
778.993	602.61
779.175	616.95
779.357	614.9
779.539	616.95
779.721	608.76
779.903	623.09
780.085	633.33
780.267	567.8
780.449	602.61
780.631	678.39
780.812	586.23
780.994	625.14
781.176	592.37
781.358	590.33
781.54	619
781.721	666.1
781.903	627.19
782.085	598.52
782.267	596.47
782.448	612.85
782.63	598.52
782.812	606.71
782.993	561.66
783.175	561.66
783.357	498.17
783.538	606.71
783.72	592.37
783.901	479.74
784.083	600.57
784.264	586.23
784.446	434.68
784.627	487.93
784.809	575.99
784.99	485.88
785.172	518.65
785.353	535.03
785.535	551.42
785.716	502.26
785.897	502.26
786.079	504.31
786.26	449.02
786.441	553.46
786.623	461.3
786.804	518.65
786.985	461.3
787.167	510.46
787.348	436.73
787.529	473.59
787.71	436.73
787.891	399.87
788.073	442.87
788.254	414.2
788.435	455.16
788.616	485.88
788.797	481.78
788.978	485.88
789.159	381.43
789.34	512.5
789.522	375.29
789.703	424.44
789.884	479.74
790.065	387.58
790.246	477.69
790.427	471.54
790.607	449.02
790.788	416.25
790.969	391.67
791.15	358.91
791.331	356.86
791.512	387.58
791.693	324.09
791.874	379.39
792.054	457.21
792.235	438.78
792.416	346.62
792.597	348.67
792.778	387.58
792.958	338.43
793.139	440.83
793.32	379.39
793.5	313.85
793.681	408.06
793.862	369.15
794.042	299.52
794.223	268.8
794.404	326.14
794.584	297.47
794.765	320
794.945	322.04
795.126	412.15
795.306	338.43
795.487	379.39
795.667	268.8
795.848	369.15
796.028	287.23
796.209	332.28
796.389	315.9
796.57	350.71
796.75	377.34
796.93	320
797.111	295.42
797.291	287.23
797.471	287.23
797.652	242.17
797.832	281.08
798.012	248.32
798.192	291.32
798.373	338.43
798.553	360.95
798.733	233.98
798.913	291.32
799.093	315.9
799.274	209.4
799.454	315.9
799.634	291.32
799.814	301.56
799.994	258.56
800.174	240.12
800.354	274.94
800.534	301.56
800.714	328.19
800.894	215.55
801.074	190.97
801.254	340.47
801.434	342.52
801.614	229.88
801.794	233.98
801.974	807.41
802.154	227.84
802.334	338.43
802.514	197.12
802.693	309.76
802.873	307.71
803.053	244.22
803.233	197.12
803.413	250.36
803.592	315.9
803.772	266.75
803.952	240.12
804.131	229.88
804.311	258.56
804.491	244.22
804.67	274.94
804.85	233.98
805.03	248.32
805.209	223.74
805.389	182.78
805.568	211.45
805.748	180.73
805.928	240.12
806.107	260.6
806.287	217.6
806.466	297.47
806.646	184.83
806.825	184.83
807.004	240.12
807.184	262.65
807.363	127.49
807.543	190.97
807.722	236.03
807.901	215.55
808.081	223.74
808.26	125.44
808.439	252.41
808.619	195.07
808.798	152.06
808.977	166.4
809.156	248.32
809.336	201.21
809.515	258.56
809.694	127.49
809.873	170.49
810.052	166.4
810.231	268.8
810.411	291.32
810.59	164.35
810.769	211.45
810.948	221.69
811.127	143.87
811.306	209.4
811.485	227.84
811.664	281.08
811.843	162.3
812.022	215.55
812.201	115.2
812.38	80.38
812.559	162.3
812.737	274.94
812.916	102.91
813.095	102.91
813.274	162.3
813.453	172.54
813.632	147.97
813.811	209.4
813.989	141.82
814.168	158.21
814.347	78.33
814.526	186.88
814.704	168.45
814.883	168.45
815.062	176.64
815.24	154.11
815.419	109.05
815.598	164.35
815.776	76.29
815.955	154.11
816.133	47.62
816.312	125.44
816.49	125.44
816.669	127.49
816.847	133.63
817.026	125.44
817.204	121.34
817.383	139.77
817.561	174.59
817.74	168.45
817.918	193.02
818.097	100.86
818.275	166.4
818.453	162.3
818.632	160.25
818.81	129.53
818.988	78.33
819.167	111.1
819.345	215.55
819.523	111.1
819.701	150.01
819.879	193.02
820.058	100.86
820.236	176.64
820.414	125.44
820.592	174.59
820.77	51.71
820.948	141.82
821.127	203.26
821.305	70.14
821.483	143.87
821.661	256.51
821.839	190.97
822.017	117.25
822.195	76.29
822.373	86.53
822.551	25.09
822.729	133.63
822.907	70.14
823.085	184.83
823.262	139.77
823.44	158.21
823.618	61.95
823.796	113.15
823.974	141.82
824.152	168.45
824.329	107.01
824.507	184.83
824.685	174.59
824.863	152.06
825.04	92.67
825.218	141.82
825.396	68.09
825.574	100.86
825.751	104.96
825.929	102.91
826.107	119.29
826.284	152.06
826.462	45.57
826.639	94.72
826.817	86.53
826.994	76.29
827.172	72.19
827.349	102.91
827.527	96.77
827.704	78.33
827.882	125.44
828.059	43.52
828.237	84.48
828.414	68.09
828.591	100.86
828.769	37.38
828.946	119.29
829.124	86.53
829.301	100.86
829.478	82.43
829.655	145.92
829.833	55.81
830.01	64
830.187	96.77
830.364	141.82
830.542	88.57
830.719	121.34
830.896	199.16
831.073	100.86
831.25	100.86
831.427	90.62
831.604	133.63
831.782	61.95
831.959	96.77
832.136	35.33
832.313	100.86
832.49	96.77
832.667	109.05
832.844	90.62
833.021	111.1
833.198	80.38
833.374	88.57
833.551	115.2
833.728	104.96
833.905	117.25
834.082	23.04
834.259	125.44
834.436	98.81
834.612	-1.54
834.789	53.76
834.966	-9.73
835.143	47.62
835.319	80.38
835.496	98.81
835.673	94.72
835.85	94.72
836.026	39.42
836.203	100.86
836.38	51.71
836.556	88.57
836.733	88.57
836.909	80.38
837.086	43.52
837.262	43.52
837.439	88.57
837.616	51.71
837.792	55.81
837.968	35.33
838.145	20.99
838.321	53.76
838.498	150.01
838.674	117.25
838.851	45.57
839.027	23.04
839.203	37.38
839.38	119.29
839.556	-22.02
839.732	98.81
839.909	-11.78
840.085	59.9
840.261	8.7
840.437	94.72
840.614	74.24
840.79	113.15
840.966	45.57
841.142	51.71
841.318	78.33
841.494	113.15
841.671	96.77
841.847	80.38
842.023	27.14
842.199	113.15
842.375	53.76
842.551	-5.63
842.727	14.85
842.903	92.67
843.079	-26.11
843.255	84.48
843.431	55.81
843.607	123.39
843.783	18.94
843.959	68.09
844.134	59.9
844.31	84.48
844.486	107.01
844.662	45.57
844.838	59.9
845.013	55.81
845.189	68.09
845.365	27.14
845.541	59.9
845.716	10.75
845.892	121.34
846.068	43.52
846.244	37.38
846.419	14.85
846.595	-58.88
846.77	35.33
846.946	55.81
847.122	72.19
847.297	35.33
847.473	92.67
847.648	-19.97
847.824	109.05
847.999	76.29
848.175	20.99
848.35	64
848.526	152.06
848.701	45.57
848.876	127.49
849.052	80.38
849.227	53.76
849.403	84.48
849.578	39.42
849.753	-15.87
849.929	-3.58
850.104	12.8
850.279	59.9
850.454	31.23
850.63	70.14
850.805	51.71
850.98	86.53
851.155	78.33
851.33	84.48
851.505	20.99
851.681	109.05
851.856	55.81
852.031	64
852.206	104.96
852.381	4.61
852.556	68.09
852.731	70.14
852.906	72.19
853.081	107.01
853.256	94.72
853.431	20.99
853.606	-38.4
853.781	27.14
853.956	51.71
854.131	45.57
854.305	43.52
854.48	92.67
854.655	47.62
854.83	29.18
855.005	84.48
855.18	80.38
855.354	10.75
855.529	16.9
855.704	53.76
855.879	61.95
856.053	76.29
856.228	39.42
856.403	70.14
856.577	55.81
856.752	-46.59
856.926	29.18
857.101	47.62
857.276	43.52
857.45	27.14
857.625	68.09
857.799	0.51
857.974	64
858.148	-62.98
858.323	43.52
858.497	43.52
858.672	82.43
858.846	49.66
859.02	61.95
859.195	0.51
859.369	27.14
859.543	31.23
859.718	31.23
859.892	-17.92
860.066	23.04
860.241	31.23
860.415	-5.63
860.589	29.18
860.763	43.52
860.938	27.14
861.112	10.75
861.286	-1.54
861.46	37.38
861.634	35.33
861.808	57.86
861.982	47.62
862.157	31.23
862.331	37.38
862.505	10.75
862.679	-28.16
862.853	-3.58
863.027	18.94
863.201	68.09
863.375	-48.64
863.549	37.38
863.722	104.96
863.896	72.19
864.07	10.75
864.244	35.33
864.418	43.52
864.592	20.99
864.766	35.33
864.939	10.75
865.113	33.28
865.287	59.9
865.461	-38.4
865.634	-3.58
865.808	18.94
865.982	-71.17
866.156	14.85
866.329	-9.73
866.503	-5.63
866.676	113.15
866.85	2.56
867.024	6.66
867.197	82.43
867.371	45.57
867.544	47.62
867.718	-24.06
867.891	70.14
868.065	-36.35
868.238	14.85
868.412	66.05
868.585	35.33
868.759	59.9
868.932	-5.63
869.105	53.76
869.279	-17.92
869.452	51.71
869.625	20.99
869.799	-19.97
869.972	12.8
870.145	12.8
870.319	-3.58
870.492	43.52
870.665	-42.5
870.838	14.85
871.011	-52.74
871.185	68.09
871.358	23.04
871.531	47.62
871.704	27.14
871.877	-22.02
872.05	35.33
872.223	10.75
872.396	43.52
872.569	39.42
872.742	-58.88
872.915	41.47
873.088	20.99
873.261	-5.63
873.434	-46.59
873.607	27.14
873.78	14.85
873.953	-38.4
874.126	76.29
874.299	-22.02
874.471	35.33
874.644	41.47
874.817	-52.74
874.99	70.14
875.163	-3.58
875.335	49.66
875.508	33.28
875.681	64
875.853	-26.11
876.026	29.18
876.199	35.33
876.371	121.34
876.544	4.61
876.717	0.51
876.889	-13.82
877.062	4.61
877.234	35.33
877.407	6.66
877.579	150.01
877.752	43.52
877.924	2.56
878.097	2.56
878.269	74.24
878.442	14.85
878.614	25.09
878.786	74.24
878.959	45.57
879.131	4.61
879.303	-71.17
879.476	45.57
879.648	29.18
879.82	-19.97
879.993	-5.63
880.165	41.47
880.337	-77.31
880.509	76.29
880.681	4.61
880.854	49.66
881.026	74.24
881.198	104.96
881.37	-44.54
881.542	16.9
881.714	-42.5
881.886	37.38
882.058	12.8
882.23	45.57
882.402	43.52
882.574	-3.58
882.746	100.86
882.918	68.09
883.09	84.48
883.262	-17.92
883.434	41.47
883.606	55.81
883.778	-42.5
883.95	43.52
884.122	29.18
884.293	76.29
884.465	78.33
884.637	35.33
884.809	-5.63
884.98	-11.78
885.152	10.75
885.324	18.94
885.496	10.75
885.667	-11.78
885.839	35.33
886.011	47.62
886.182	4.61
886.354	16.9
886.525	31.23
886.697	2.56
886.869	-30.21
887.04	0.51
887.212	31.23
887.383	45.57
887.555	53.76
887.726	-46.59
887.897	8.7
888.069	-11.78
888.24	117.25
888.412	51.71
888.583	18.94
888.754	76.29
888.926	-62.98
889.097	-85.5
889.268	-91.65
889.44	68.09
889.611	18.94
889.782	39.42
889.953	6.66
890.125	127.49
890.296	-17.92
890.467	10.75
890.638	27.14
890.809	14.85
890.98	35.33
891.151	45.57
891.323	-11.78
891.494	35.33
891.665	43.52
891.836	70.14
892.007	39.42
892.178	2.56
892.349	16.9
892.52	-5.63
892.691	4.61
892.862	-69.12
893.032	-7.68
893.203	20.99
893.374	-30.21
893.545	61.95
893.716	51.71
893.887	61.95
894.057	-38.4
894.228	117.25
894.399	39.42
894.57	61.95
894.74	70.14
894.911	-38.4
895.082	45.57
895.253	-54.78
895.423	35.33
895.594	72.19
895.764	-38.4
895.935	-54.78
896.106	70.14
896.276	-9.73
896.447	-36.35
896.617	20.99
896.788	-7.68
896.958	-15.87
897.129	29.18
897.299	74.24
897.47	59.9
897.64	27.14
897.81	-7.68
897.981	2.56
898.151	-52.74
898.322	6.66
898.492	12.8
898.662	-22.02
898.832	-38.4
899.003	47.62
899.173	31.23
899.343	-52.74
899.513	51.71
