Data from USB4F104151__228__14-33-58-639.txt Node

Date: Thu Mar 13 14:33:58 EDT 2025
User: louis
Spectrometer: USB4F10415
Trigger mode: 4
Integration Time (sec): 2.500000E-2
Scans to average: 1
Electric dark correction enabled: true
Nonlinearity correction enabled: false
Boxcar width: 0
XAxis mode: Wavelengths
Number of Pixels in Spectrum: 3648
>>>>>Begin Spectral Data<<<<<
178.204	-224.76
178.424	-224.76
178.644	-224.76
178.864	-208.38
179.084	-124.41
179.304	-7.68
179.524	35.33
179.744	-30.21
179.964	86.53
180.184	41.47
180.404	-32.26
180.624	-15.87
180.844	-26.11
181.064	-71.17
181.283	20.99
181.503	-15.87
181.723	14.85
181.943	-19.97
182.163	37.38
182.383	8.7
182.602	86.53
182.822	115.2
183.042	102.91
183.262	57.86
183.482	-40.45
183.701	-5.63
183.921	-24.06
184.141	4.61
184.361	2.56
184.58	78.33
184.8	-1.54
185.02	25.09
185.239	-3.58
185.459	20.99
185.679	47.62
185.898	-17.92
186.118	86.53
186.338	33.28
186.557	100.86
186.777	-28.16
186.997	41.47
187.216	78.33
187.436	102.91
187.655	29.18
187.875	88.57
188.095	12.8
188.314	84.48
188.534	37.38
188.753	45.57
188.973	43.52
189.192	100.86
189.412	70.14
189.631	86.53
189.851	37.38
190.07	39.42
190.29	70.14
190.509	33.28
190.729	-24.06
190.948	123.39
191.168	125.44
191.387	86.53
191.607	-38.4
191.826	41.47
192.045	41.47
192.265	29.18
192.484	80.38
192.704	64
192.923	33.28
193.142	143.87
193.362	29.18
193.581	115.2
193.8	6.66
194.02	43.52
194.239	-42.5
194.458	25.09
194.678	29.18
194.897	53.76
195.116	29.18
195.335	-3.58
195.555	12.8
195.774	94.72
195.993	96.77
196.212	4.61
196.432	-50.69
196.651	43.52
196.87	55.81
197.089	96.77
197.308	47.62
197.528	29.18
197.747	-26.11
197.966	78.33
198.185	111.1
198.404	-28.16
198.623	68.09
198.842	86.53
199.062	64
199.281	6.66
199.5	41.47
199.719	123.39
199.938	-15.87
200.157	74.24
200.376	82.43
200.595	6.66
200.814	39.42
201.033	66.05
201.252	20.99
201.471	86.53
201.69	109.05
201.909	45.57
202.128	84.48
202.347	66.05
202.566	6.66
202.785	49.66
203.004	53.76
203.223	45.57
203.442	121.34
203.661	37.38
203.879	61.95
204.098	94.72
204.317	20.99
204.536	27.14
204.755	53.76
204.974	16.9
205.193	57.86
205.411	78.33
205.63	53.76
205.849	35.33
206.068	45.57
206.287	86.53
206.505	53.76
206.724	4.61
206.943	37.38
207.162	-1.54
207.381	74.24
207.599	0.51
207.818	2.56
208.037	29.18
208.255	-36.35
208.474	4.61
208.693	23.04
208.911	25.09
209.13	41.47
209.349	-28.16
209.567	84.48
209.786	31.23
210.005	88.57
210.223	2.56
210.442	-15.87
210.661	39.42
210.879	37.38
211.098	86.53
211.316	37.38
211.535	66.05
211.753	-85.5
211.972	53.76
212.191	53.76
212.409	41.47
212.628	27.14
212.846	-32.26
213.065	41.47
213.283	96.77
213.502	29.18
213.72	18.94
213.938	49.66
214.157	39.42
214.375	104.96
214.594	86.53
214.812	-11.78
215.031	14.85
215.249	20.99
215.467	-9.73
215.686	41.47
215.904	94.72
216.122	59.9
216.341	102.91
216.559	90.62
216.778	127.49
216.996	98.81
217.214	53.76
217.432	31.23
217.651	20.99
217.869	47.62
218.087	86.53
218.306	53.76
218.524	20.99
218.742	61.95
218.96	66.05
219.179	12.8
219.397	57.86
219.615	104.96
219.833	86.53
220.051	82.43
220.27	135.68
220.488	8.7
220.706	4.61
220.924	70.14
221.142	57.86
221.36	-3.58
221.578	61.95
221.796	-1.54
222.015	39.42
222.233	35.33
222.451	86.53
222.669	16.9
222.887	123.39
223.105	66.05
223.323	-17.92
223.541	33.28
223.759	-1.54
223.977	88.57
224.195	10.75
224.413	61.95
224.631	84.48
224.849	14.85
225.067	70.14
225.285	-11.78
225.503	29.18
225.721	-30.21
225.939	94.72
226.157	20.99
226.375	127.49
226.592	23.04
226.81	31.23
227.028	57.86
227.246	98.81
227.464	113.15
227.682	39.42
227.9	39.42
228.117	-3.58
228.335	25.09
228.553	29.18
228.771	41.47
228.989	57.86
229.206	12.8
229.424	12.8
229.642	78.33
229.86	18.94
230.077	14.85
230.295	64
230.513	61.95
230.731	92.67
230.948	8.7
231.166	74.24
231.384	0.51
231.601	98.81
231.819	64
232.037	-3.58
232.254	-19.97
232.472	66.05
232.689	-3.58
232.907	119.29
233.125	74.24
233.342	78.33
233.56	14.85
233.777	-24.06
233.995	49.66
234.213	23.04
234.43	53.76
234.648	53.76
234.865	25.09
235.083	55.81
235.3	53.76
235.518	61.95
235.735	98.81
235.953	119.29
236.17	80.38
236.388	-26.11
236.605	12.8
236.822	92.67
237.04	39.42
237.257	-1.54
237.475	45.57
237.692	64
237.909	12.8
238.127	-17.92
238.344	55.81
238.562	25.09
238.779	55.81
238.996	37.38
239.214	72.19
239.431	-13.82
239.648	10.75
239.865	104.96
240.083	49.66
240.3	31.23
240.517	43.52
240.735	16.9
240.952	51.71
241.169	104.96
241.386	59.9
241.603	57.86
241.821	4.61
242.038	53.76
242.255	127.49
242.472	-32.26
242.689	53.76
242.907	-5.63
243.124	16.9
243.341	16.9
243.558	61.95
243.775	-19.97
243.992	-36.35
244.209	61.95
244.426	176.64
244.643	10.75
244.86	0.51
245.078	107.01
245.295	12.8
245.512	20.99
245.729	8.7
245.946	45.57
246.163	29.18
246.38	-11.78
246.597	59.9
246.814	57.86
247.031	20.99
247.248	86.53
247.464	82.43
247.681	51.71
247.898	86.53
248.115	4.61
248.332	31.23
248.549	80.38
248.766	88.57
248.983	113.15
249.2	53.76
249.417	178.69
249.633	14.85
249.85	6.66
250.067	31.23
250.284	12.8
250.501	68.09
250.717	164.35
250.934	45.57
251.151	31.23
251.368	61.95
251.585	133.63
251.801	72.19
252.018	-58.88
252.235	20.99
252.451	86.53
252.668	29.18
252.885	72.19
253.102	92.67
253.318	31.23
253.535	-1.54
253.752	20.99
253.968	64
254.185	94.72
254.401	119.29
254.618	25.09
254.835	20.99
255.051	135.68
255.268	113.15
255.484	37.38
255.701	23.04
255.917	47.62
256.134	33.28
256.351	8.7
256.567	41.47
256.784	2.56
257	57.86
257.217	25.09
257.433	119.29
257.65	88.57
257.866	111.1
258.082	33.28
258.299	-34.3
258.515	-17.92
258.732	14.85
258.948	29.18
259.165	12.8
259.381	29.18
259.597	37.38
259.814	-3.58
260.03	8.7
260.246	78.33
260.463	70.14
260.679	18.94
260.895	-3.58
261.112	61.95
261.328	51.71
261.544	25.09
261.761	156.16
261.977	8.7
262.193	-50.69
262.409	37.38
262.626	64
262.842	78.33
263.058	-9.73
263.274	64
263.49	16.9
263.707	113.15
263.923	90.62
264.139	41.47
264.355	102.91
264.571	74.24
264.787	4.61
265.004	31.23
265.22	-7.68
265.436	0.51
265.652	-1.54
265.868	39.42
266.084	-24.06
266.3	53.76
266.516	4.61
266.732	45.57
266.948	53.76
267.164	20.99
267.38	53.76
267.596	45.57
267.812	90.62
268.028	94.72
268.244	66.05
268.46	78.33
268.676	61.95
268.892	49.66
269.108	-34.3
269.324	14.85
269.54	-19.97
269.756	61.95
269.972	-19.97
270.188	53.76
270.403	43.52
270.619	20.99
270.835	86.53
271.051	-44.54
271.267	70.14
271.483	74.24
271.698	92.67
271.914	111.1
272.13	133.63
272.346	80.38
272.562	111.1
272.777	47.62
272.993	70.14
273.209	29.18
273.425	14.85
273.64	-1.54
273.856	64
274.072	20.99
274.287	-77.31
274.503	78.33
274.719	74.24
274.934	45.57
275.15	-1.54
275.366	113.15
275.581	-11.78
275.797	45.57
276.012	61.95
276.228	23.04
276.444	100.86
276.659	55.81
276.875	23.04
277.09	68.09
277.306	49.66
277.521	82.43
277.737	61.95
277.952	41.47
278.168	29.18
278.383	-28.16
278.599	-5.63
278.814	2.56
279.03	-32.26
279.245	86.53
279.461	74.24
279.676	107.01
279.892	-34.3
280.107	12.8
280.322	86.53
280.538	88.57
280.753	-11.78
280.969	45.57
281.184	23.04
281.399	96.77
281.615	16.9
281.83	23.04
282.045	-52.74
282.26	-36.35
282.476	86.53
282.691	102.91
282.906	16.9
283.122	29.18
283.337	29.18
283.552	51.71
283.767	18.94
283.983	78.33
284.198	8.7
284.413	139.77
284.628	6.66
284.843	25.09
285.058	27.14
285.274	49.66
285.489	-1.54
285.704	74.24
285.919	29.18
286.134	29.18
286.349	37.38
286.564	49.66
286.779	37.38
286.995	-3.58
287.21	-11.78
287.425	80.38
287.64	18.94
287.855	117.25
288.07	-17.92
288.285	94.72
288.5	72.19
288.715	-3.58
288.93	98.81
289.145	16.9
289.36	98.81
289.575	14.85
289.79	37.38
290.004	64
290.219	139.77
290.434	6.66
290.649	-32.26
290.864	61.95
291.079	45.57
291.294	104.96
291.509	39.42
291.724	45.57
291.938	29.18
292.153	78.33
292.368	16.9
292.583	10.75
292.798	55.81
293.012	61.95
293.227	14.85
293.442	64
293.657	72.19
293.871	80.38
294.086	6.66
294.301	119.29
294.516	45.57
294.73	37.38
294.945	-24.06
295.16	64
295.374	82.43
295.589	104.96
295.804	-38.4
296.018	127.49
296.233	131.58
296.447	70.14
296.662	-103.93
296.877	53.76
297.091	96.77
297.306	31.23
297.52	-11.78
297.735	86.53
297.949	68.09
298.164	23.04
298.378	14.85
298.593	20.99
298.807	43.52
299.022	102.91
299.236	131.58
299.451	16.9
299.665	96.77
299.88	29.18
300.094	102.91
300.309	57.86
300.523	74.24
300.737	14.85
300.952	64
301.166	-1.54
301.381	8.7
301.595	51.71
301.809	61.95
302.024	135.68
302.238	20.99
302.452	104.96
302.667	18.94
302.881	96.77
303.095	107.01
303.309	49.66
303.524	4.61
303.738	16.9
303.952	-7.68
304.166	115.2
304.381	-3.58
304.595	137.73
304.809	20.99
305.023	72.19
305.237	61.95
305.452	64
305.666	8.7
305.88	20.99
306.094	98.81
306.308	64
306.522	139.77
306.736	94.72
306.95	57.86
307.164	23.04
307.379	-9.73
307.593	66.05
307.807	78.33
308.021	78.33
308.235	96.77
308.449	31.23
308.663	31.23
308.877	78.33
309.091	4.61
309.305	90.62
309.519	4.61
309.733	29.18
309.947	-13.82
310.161	70.14
310.374	61.95
310.588	37.38
310.802	64
311.016	76.29
311.23	-9.73
311.444	64
311.658	61.95
311.872	137.73
312.085	82.43
312.299	47.62
312.513	70.14
312.727	53.76
312.941	-9.73
313.154	23.04
313.368	20.99
313.582	-11.78
313.796	74.24
314.009	33.28
314.223	90.62
314.437	59.9
314.651	0.51
314.864	72.19
315.078	-9.73
315.292	76.29
315.505	59.9
315.719	53.76
315.933	-9.73
316.146	61.95
316.36	-28.16
316.573	109.05
316.787	45.57
317.001	64
317.214	23.04
317.428	86.53
317.641	127.49
317.855	49.66
318.068	57.86
318.282	64
318.495	135.68
318.709	72.19
318.922	-3.58
319.136	121.34
319.349	61.95
319.563	8.7
319.776	35.33
319.99	-3.58
320.203	-11.78
320.417	78.33
320.63	117.25
320.843	133.63
321.057	86.53
321.27	55.81
321.483	88.57
321.697	88.57
321.91	41.47
322.124	119.29
322.337	70.14
322.55	29.18
322.763	68.09
322.977	23.04
323.19	8.7
323.403	96.77
323.617	84.48
323.83	55.81
324.043	61.95
324.256	96.77
324.469	16.9
324.683	47.62
324.896	39.42
325.109	37.38
325.322	-28.16
325.535	135.68
325.748	47.62
325.962	76.29
326.175	74.24
326.388	47.62
326.601	152.06
326.814	82.43
327.027	-9.73
327.24	86.53
327.453	-24.06
327.666	80.38
327.879	72.19
328.092	88.57
328.305	111.1
328.518	61.95
328.731	84.48
328.944	70.14
329.157	72.19
329.37	96.77
329.583	102.91
329.796	109.05
330.009	-28.16
330.222	92.67
330.435	86.53
330.648	39.42
330.861	20.99
331.073	27.14
331.286	104.96
331.499	82.43
331.712	49.66
331.925	53.76
332.138	29.18
332.35	70.14
332.563	8.7
332.776	66.05
332.989	6.66
333.202	76.29
333.414	-3.58
333.627	119.29
333.84	82.43
334.053	107.01
334.265	23.04
334.478	70.14
334.691	-40.45
334.903	70.14
335.116	74.24
335.329	-3.58
335.541	12.8
335.754	195.07
335.966	37.38
336.179	33.28
336.392	90.62
336.604	23.04
336.817	143.87
337.029	86.53
337.242	64
337.454	53.76
337.667	90.62
337.88	113.15
338.092	45.57
338.305	45.57
338.517	78.33
338.729	117.25
338.942	88.57
339.154	-34.3
339.367	47.62
339.579	53.76
339.792	78.33
340.004	45.57
340.217	74.24
340.429	104.96
340.641	25.09
340.854	-7.68
341.066	45.57
341.278	129.53
341.491	154.11
341.703	61.95
341.915	-1.54
342.128	133.63
342.34	-7.68
342.552	8.7
342.764	2.56
342.977	86.53
343.189	90.62
343.401	55.81
343.613	4.61
343.826	70.14
344.038	6.66
344.25	53.76
344.462	57.86
344.674	102.91
344.886	100.86
345.099	57.86
345.311	94.72
345.523	57.86
345.735	33.28
345.947	12.8
346.159	94.72
346.371	16.9
346.583	57.86
346.795	141.82
347.007	-5.63
347.219	72.19
347.431	57.86
347.643	70.14
347.855	23.04
348.067	23.04
348.279	61.95
348.491	66.05
348.703	82.43
348.915	35.33
349.127	39.42
349.339	102.91
349.551	12.8
349.763	117.25
349.975	90.62
350.187	74.24
350.399	12.8
350.61	102.91
350.822	25.09
351.034	70.14
351.246	-9.73
351.458	53.76
351.669	102.91
351.881	109.05
352.093	53.76
352.305	66.05
352.517	94.72
352.728	96.77
352.94	113.15
353.152	113.15
353.363	45.57
353.575	96.77
353.787	113.15
353.999	47.62
354.21	150.01
354.422	39.42
354.633	35.33
354.845	16.9
355.057	61.95
355.268	80.38
355.48	86.53
355.692	72.19
355.903	45.57
356.115	64
356.326	6.66
356.538	135.68
356.749	53.76
356.961	143.87
357.172	16.9
357.384	61.95
357.595	127.49
357.807	53.76
358.018	-3.58
358.23	57.86
358.441	129.53
358.653	109.05
358.864	70.14
359.075	78.33
359.287	49.66
359.498	88.57
359.709	57.86
359.921	123.39
360.132	47.62
360.344	127.49
360.555	-65.02
360.766	4.61
360.977	45.57
361.189	121.34
361.4	61.95
361.611	84.48
361.823	109.05
362.034	86.53
362.245	25.09
362.456	121.34
362.667	107.01
362.879	43.52
363.09	20.99
363.301	64
363.512	2.56
363.723	68.09
363.935	53.76
364.146	70.14
364.357	96.77
364.568	111.1
364.779	4.61
364.99	82.43
365.201	12.8
365.412	78.33
365.623	-32.26
365.834	100.86
366.045	94.72
366.256	119.29
366.467	45.57
366.678	55.81
366.889	45.57
367.1	23.04
367.311	12.8
367.522	94.72
367.733	150.01
367.944	41.47
368.155	64
368.366	139.77
368.577	107.01
368.788	145.92
368.999	8.7
369.209	131.58
369.42	154.11
369.631	135.68
369.842	119.29
370.053	141.82
370.264	31.23
370.474	57.86
370.685	35.33
370.896	29.18
371.107	94.72
371.317	70.14
371.528	80.38
371.739	49.66
371.95	135.68
372.16	49.66
372.371	55.81
372.582	-7.68
372.792	111.1
373.003	72.19
373.214	61.95
373.424	156.16
373.635	74.24
373.846	100.86
374.056	8.7
374.267	31.23
374.477	31.23
374.688	80.38
374.898	64
375.109	57.86
375.319	37.38
375.53	109.05
375.74	127.49
375.951	104.96
376.161	-32.26
376.372	139.77
376.582	45.57
376.793	37.38
377.003	53.76
377.214	64
377.424	113.15
377.635	29.18
377.845	45.57
378.055	94.72
378.266	74.24
378.476	16.9
378.686	90.62
378.897	55.81
379.107	104.96
379.317	102.91
379.528	96.77
379.738	168.45
379.948	49.66
380.158	176.64
380.369	102.91
380.579	45.57
380.789	88.57
380.999	78.33
381.21	113.15
381.42	131.58
381.63	88.57
381.84	182.78
382.05	80.38
382.261	86.53
382.471	129.53
382.681	74.24
382.891	129.53
383.101	43.52
383.311	16.9
383.521	90.62
383.731	119.29
383.941	98.81
384.151	78.33
384.361	84.48
384.571	113.15
384.781	82.43
384.991	78.33
385.201	72.19
385.411	31.23
385.621	78.33
385.831	68.09
386.041	23.04
386.251	86.53
386.461	90.62
386.671	109.05
386.881	74.24
387.091	72.19
387.301	139.77
387.511	61.95
387.72	82.43
387.93	88.57
388.14	39.42
388.35	98.81
388.56	115.2
388.769	117.25
388.979	80.38
389.189	6.66
389.399	82.43
389.609	107.01
389.818	96.77
390.028	29.18
390.238	127.49
390.447	84.48
390.657	66.05
390.867	74.24
391.076	59.9
391.286	102.91
391.496	143.87
391.705	43.52
391.915	94.72
392.125	127.49
392.334	76.29
392.544	100.86
392.753	86.53
392.963	104.96
393.172	74.24
393.382	119.29
393.591	127.49
393.801	160.25
394.01	162.3
394.22	102.91
394.429	152.06
394.639	102.91
394.848	195.07
395.058	147.97
395.267	80.38
395.477	94.72
395.686	113.15
395.895	217.6
396.105	231.93
396.314	139.77
396.524	115.2
396.733	107.01
396.942	164.35
397.152	147.97
397.361	180.73
397.57	135.68
397.78	129.53
397.989	156.16
398.198	250.36
398.407	174.59
398.617	135.68
398.826	113.15
399.035	211.45
399.244	170.49
399.453	195.07
399.663	186.88
399.872	80.38
400.081	178.69
400.29	160.25
400.499	80.38
400.708	160.25
400.917	150.01
401.127	176.64
401.336	94.72
401.545	201.21
401.754	111.1
401.963	238.08
402.172	250.36
402.381	143.87
402.59	123.39
402.799	174.59
403.008	160.25
403.217	272.89
403.426	184.83
403.635	168.45
403.844	231.93
404.053	209.4
404.262	156.16
404.471	311.8
404.68	219.64
404.888	193.02
405.097	190.97
405.306	242.17
405.515	168.45
405.724	209.4
405.933	274.94
406.142	320
406.35	287.23
406.559	315.9
406.768	276.99
406.977	352.76
407.185	332.28
407.394	320
407.603	274.94
407.812	332.28
408.02	395.77
408.229	305.66
408.438	377.34
408.646	297.47
408.855	371.19
409.064	428.54
409.272	408.06
409.481	412.15
409.69	420.35
409.898	414.2
410.107	496.12
410.315	537.08
410.524	498.17
410.733	586.23
410.941	522.74
411.15	619
411.358	606.71
411.567	657.91
411.775	705.01
411.984	592.37
412.192	719.35
412.401	741.88
412.609	799.22
412.818	739.83
413.026	825.84
413.234	827.89
413.443	864.75
413.651	866.8
413.86	840.18
414.068	1030.64
414.276	942.58
414.485	993.78
414.693	1012.21
414.901	1200.62
415.11	1038.83
415.318	1163.76
415.526	1253.87
415.734	1217.01
415.943	1243.63
416.151	1298.92
416.359	1325.55
416.567	1429.99
416.776	1382.89
416.984	1610.22
417.192	1569.26
417.4	1569.26
417.608	1679.85
417.817	1739.24
418.025	1802.72
418.233	1864.16
418.441	1794.53
418.649	1937.89
418.857	2023.91
419.065	2208.22
419.273	2118.11
419.481	2152.93
419.689	2243.04
419.897	2380.25
420.105	2413.02
420.313	2601.43
420.521	2675.16
420.729	2669.02
420.937	2798.04
421.145	2726.36
421.353	2980.31
421.561	3183.06
421.769	3144.14
421.977	3369.42
422.185	3412.43
422.393	3391.95
422.601	3733.96
422.809	3619.27
423.017	3649.99
423.224	3899.84
423.432	3912.13
423.64	4143.55
423.848	4317.63
424.056	4272.57
424.263	4686.26
424.471	4641.21
424.679	4678.07
424.887	4870.58
425.094	5198.26
425.302	5198.26
425.51	5411.25
425.718	5546.41
425.925	5618.09
426.133	5710.25
426.341	6150.56
426.548	6410.65
426.756	6437.28
426.964	6470.05
427.171	6902.17
427.379	6963.61
427.586	7086.48
427.794	7233.94
428.001	7414.16
428.209	7901.58
428.417	7702.92
428.624	8487.29
428.832	8470.91
429.039	8509.82
429.247	8370.56
429.454	9197.94
429.662	9711.98
429.869	9089.4
430.076	9656.68
430.284	9515.37
430.491	9834.86
430.699	10482.02
430.906	10375.52
431.114	10658.14
431.321	10963.29
431.528	11198.81
431.736	11991.37
431.943	12491.07
432.15	12204.36
432.358	12054.86
432.565	12767.55
432.772	12695.87
432.979	13490.48
433.187	13740.33
433.394	13877.55
433.601	14668.06
433.808	14754.08
434.016	14588.19
434.223	15368.47
434.43	16386.31
434.637	15868.17
434.844	16806.14
435.052	17096.96
435.259	17109.24
435.466	17228.03
435.673	16980.22
435.88	18114.8
436.087	18962.65
436.294	19114.2
436.501	18761.95
436.708	18929.89
436.915	19601.62
437.122	20402.38
437.329	20420.81
437.537	21184.7
437.743	21541.05
437.95	21033.15
438.157	22489.26
438.364	23181.47
438.571	22847.65
438.778	23257.25
438.985	25012.35
439.192	24127.63
439.399	25000.07
439.606	24502.41
439.813	25540.73
440.02	27347.04
440.227	26964.07
440.433	26716.26
440.64	27627.61
440.847	27349.09
441.054	28000.34
441.261	29927.48
441.467	29591.61
441.674	30097.46
441.881	30939.18
442.088	30980.14
442.294	30773.29
442.501	31242.28
442.708	32006.17
442.914	33243.14
443.121	34744.3
443.328	33746.94
443.534	36091.87
443.741	35086.31
443.948	34559.98
444.154	37142.47
444.361	36997.07
444.568	36986.83
444.774	37078.99
444.981	37773.25
445.187	38496.18
445.394	40294.3
445.6	39972.77
445.807	43652.97
446.013	41541.51
446.22	41795.46
446.426	43771.75
446.633	44334.94
446.839	46116.67
447.046	43767.65
447.252	46434.11
447.459	46178.11
447.665	46411.58
447.871	48019.24
448.078	49686.28
448.284	47896.36
448.491	48924.44
448.697	51306.23
448.903	51443.44
449.11	52072.17
449.316	50773.75
449.522	51996.39
449.728	53118.68
449.935	53606.09
450.141	53874.38
450.347	54748.86
450.553	52967.13
450.76	53704.4
450.966	55396.02
451.172	54542.02
451.378	56364.71
451.584	54927.03
451.791	56403.62
451.997	56166.05
452.203	57024.15
452.409	56927.9
452.615	56632.99
452.821	54675.13
453.027	54517.44
453.233	57177.75
453.44	54462.14
453.646	55379.63
453.852	55467.7
454.058	56280.74
454.264	54625.98
454.47	55903.91
454.676	54173.38
454.882	55844.52
455.088	51523.31
455.294	52076.26
455.5	53479.12
455.705	53319.38
455.911	51658.48
456.117	50290.43
456.323	49784.58
456.529	47587.11
456.735	49622.79
456.941	48183.07
457.147	47359.79
457.352	46300.99
457.558	45481.8
457.764	45827.91
457.97	44871.51
458.176	43474.79
458.381	43605.86
458.587	41578.37
458.793	41756.55
458.999	39612.32
459.204	42444.66
459.41	40898.45
459.616	38322.1
459.821	38287.29
460.027	38447.03
460.233	37550.02
460.438	35960.8
460.644	36085.72
460.85	34684.91
461.055	33984.51
461.261	34029.56
461.466	31375.39
461.672	30441.52
461.878	32423.95
462.083	30484.53
462.289	29874.23
462.494	29528.13
462.7	28201.04
462.905	27717.72
463.111	28616.78
463.316	28622.92
463.522	27760.73
463.727	27981.91
463.932	27717.72
464.138	27682.91
464.343	27787.35
464.549	26949.73
464.754	27715.67
464.959	27961.43
465.165	27529.31
465.37	26153.07
465.575	25606.27
465.781	26654.83
465.986	26949.73
466.191	25849.97
466.397	25258.11
466.602	23935.12
466.807	24780.93
467.012	24869
467.218	24387.72
467.423	24760.45
467.628	24510.6
467.833	25727.1
468.038	24416.4
468.244	23650.46
468.449	24574.09
468.654	23736.47
468.859	23777.43
469.064	23670.93
469.269	22728.87
469.474	22913.19
469.679	23576.73
469.885	22988.96
470.09	22919.33
470.295	22835.36
470.5	22249.64
470.705	22616.23
470.91	22001.84
471.115	21756.08
471.32	22177.97
471.525	22122.67
471.73	21518.52
471.935	21252.28
472.139	20445.38
472.344	20924.61
472.549	20631.75
472.754	20472.01
472.959	20216.01
473.164	19701.97
473.369	19425.5
473.574	20082.89
473.778	20146.38
473.983	19851.47
474.188	19415.26
474.393	18673.89
474.598	18864.35
474.802	18696.42
475.007	18530.53
475.212	18657.51
475.417	17725.68
475.621	17846.51
475.826	17623.28
476.031	17742.07
476.235	17146.11
476.44	17744.11
476.645	17215.74
476.849	17209.59
477.054	17199.35
477.259	16779.52
477.463	16562.44
477.668	16140.55
477.872	16431.37
478.077	16197.9
478.282	15730.96
478.486	15915.28
478.691	15577.36
478.895	15773.97
479.1	15626.51
479.304	15810.83
479.509	15122.71
479.713	15407.38
479.918	14999.84
480.122	14971.16
480.326	15126.81
480.531	14934.3
480.735	14987.55
480.94	14483.75
481.144	15173.91
481.348	14496.03
481.553	14692.64
481.757	14158.12
481.961	14670.11
482.166	14668.06
482.37	14604.58
482.574	14170.41
482.778	14414.12
482.983	14479.65
483.187	14500.13
483.391	14563.62
483.595	14315.81
483.8	14242.09
484.004	14375.2
484.208	14528.8
484.412	14432.55
484.616	14426.4
484.821	14162.22
485.025	14197.03
485.229	14479.65
485.433	14600.48
485.637	14555.43
485.841	14274.85
486.045	14336.29
486.249	14106.92
486.453	14313.77
486.657	14344.49
486.861	14367.01
487.065	13852.97
487.269	14514.47
487.473	14217.51
487.677	14465.32
487.881	14397.73
488.085	14203.18
488.289	14412.07
488.493	14225.7
488.697	14584.1
488.901	14510.37
489.105	14557.47
489.309	14350.63
489.512	14543.14
489.716	14387.49
489.92	14663.97
490.124	14250.28
490.328	14608.67
490.531	14457.12
490.735	14651.68
490.939	14670.11
491.143	14424.36
491.346	14594.34
491.55	14915.87
491.754	15061.27
491.958	15008.03
492.161	14907.68
492.365	15104.28
492.569	14747.93
492.772	14760.22
492.976	15071.51
493.18	15335.7
493.383	15419.67
493.587	15120.67
493.79	15329.56
493.994	15421.72
494.197	15628.56
494.401	15479.06
494.605	15560.98
494.808	15806.73
495.012	15925.52
495.215	15927.56
495.419	16105.74
495.622	16093.45
495.825	16161.03
496.029	16163.08
496.232	16783.62
496.436	16562.44
496.639	16926.97
496.843	16871.68
497.046	16990.46
497.249	17383.67
497.453	17492.21
497.656	17617.14
497.859	17504.5
498.063	17672.43
498.266	18268.39
498.469	17987.82
498.673	18571.49
498.876	18374.89
499.079	18632.93
499.282	18862.3
499.485	18915.55
499.689	19312.86
499.892	19468.5
500.095	19384.54
500.298	20007.12
500.501	19687.64
500.705	20308.17
500.908	20482.25
501.111	20586.69
501.314	20648.13
501.517	21035.2
501.72	21246.14
501.923	21391.55
502.126	21729.46
502.329	22003.89
502.532	21622.97
502.735	22532.26
502.938	22565.03
503.141	22585.51
503.344	22925.47
503.547	23218.33
503.75	23625.88
503.953	23740.57
504.156	24230.03
504.359	24098.96
504.562	24131.73
504.765	24764.55
504.968	24834.18
505.17	25110.66
505.373	25303.17
505.576	25671.8
505.779	25929.84
505.982	26028.15
506.185	26644.59
506.387	26624.11
506.59	26847.33
506.793	27355.23
506.996	27013.22
507.198	28041.3
507.401	28000.34
507.604	28178.51
507.807	28678.22
508.009	28997.7
508.212	29012.04
508.415	29411.39
508.617	29374.53
508.82	29556.8
509.022	29603.9
509.225	30562.35
509.428	30861.35
509.63	31006.76
509.833	31137.83
510.035	31399.97
510.238	31750.17
510.44	31987.74
510.643	32473.1
510.845	32892.94
511.048	32749.58
511.25	33241.09
511.453	33181.7
511.655	34535.41
511.858	34013.18
512.06	34211.83
512.262	34449.39
512.465	34594.8
512.667	35291.11
512.87	35723.23
513.072	35440.61
513.274	35774.43
513.477	36591.57
513.679	36956.11
513.881	36743.12
514.084	37566.4
514.286	37566.4
514.488	37838.78
514.69	38967.21
514.893	38668.21
515.095	38623.15
515.297	39344.04
515.499	39591.84
515.701	39718.82
515.904	40333.21
516.106	40427.42
516.308	41084.81
516.51	41310.09
516.712	41518.98
516.914	41787.27
517.116	42282.87
517.318	42354.55
517.52	42700.66
517.722	42911.6
517.925	43339.63
518.127	43827.04
518.329	43915.11
518.531	43763.56
518.733	44439.39
518.935	44644.18
519.136	44863.32
519.338	45567.82
519.54	45109.07
519.742	45698.89
519.944	45926.21
520.146	46397.24
520.348	46380.86
520.55	46917.43
520.752	47195.95
520.954	48068.39
521.155	47705.9
521.357	48543.52
521.559	48381.73
521.761	49059.6
521.963	48754.46
522.164	49299.22
522.366	49118.99
522.568	49915.65
522.77	49899.27
522.971	50351.87
523.173	49948.42
523.375	50454.27
523.576	50304.77
523.778	50239.23
523.98	51062.52
524.181	51093.24
524.383	51228.4
524.584	51558.13
524.786	51871.46
524.988	51787.5
525.189	52035.3
525.391	51893.99
525.592	52639.45
525.794	52618.97
525.995	52797.15
526.197	52805.34
526.398	52307.68
526.6	52559.58
526.801	53219.03
527.003	53409.49
527.204	53094.1
527.406	53403.35
527.607	53511.89
527.808	53429.97
528.01	52467.42
528.211	53389.01
528.412	54214.34
528.614	54011.59
528.815	53728.97
529.016	53888.71
529.218	53266.13
529.419	53679.82
529.62	54064.84
529.822	53493.46
530.023	53585.61
530.224	53929.67
530.425	53622.48
530.626	53679.82
530.828	53774.03
531.029	54460.1
531.23	53935.82
531.431	53591.76
531.632	53831.37
531.833	54077.13
532.035	54073.03
532.236	54070.98
532.437	54124.23
532.638	53479.12
532.839	54183.62
533.04	54230.72
533.241	53466.83
533.442	54216.39
533.643	53950.15
533.844	53950.15
534.045	53827.27
534.246	53049.05
534.447	54183.62
534.648	53462.74
534.849	53749.45
535.05	53255.89
535.251	53782.22
535.451	53350.1
535.652	53397.2
535.853	53624.53
536.054	53270.23
536.255	53618.38
536.456	53071.57
536.657	53814.99
536.857	53194.45
537.058	53173.97
537.259	53780.17
537.46	53432.02
537.66	53520.08
537.861	53491.41
538.062	53429.97
538.263	53233.36
538.463	52596.45
538.664	53157.59
538.865	53120.73
539.065	53649.1
539.266	52356.83
539.466	53300.95
539.667	52461.28
539.868	53389.01
540.068	53231.32
540.269	52707.04
540.469	53182.16
540.67	52774.62
540.87	52565.73
541.071	52618.97
541.271	53059.29
541.472	52987.61
541.672	52553.44
541.873	52520.67
542.073	51955.43
542.274	52526.81
542.474	52190.95
542.675	52199.14
542.875	52838.11
543.075	52266.72
543.276	51633.9
543.476	52639.45
543.676	51959.53
543.877	52600.54
544.077	52328.16
544.277	52489.95
544.478	52168.42
544.678	52471.52
544.878	52559.58
545.078	52604.64
545.279	52104.93
545.479	51932.9
545.679	52422.37
545.879	51988.2
546.079	52223.72
546.28	51844.84
546.48	51853.03
546.68	52324.07
546.88	52340.45
547.08	52258.53
547.28	51898.09
547.48	51734.25
547.68	52252.39
547.88	51750.63
548.081	52317.92
548.281	52047.59
548.481	51977.96
548.681	52461.28
548.881	52145.89
549.081	51853.03
549.28	51832.55
549.48	52053.73
549.68	51783.4
549.88	52666.08
550.08	51959.53
550.28	52078.31
550.48	52315.87
550.68	52340.45
550.88	51896.04
551.08	52020.97
551.279	52135.65
551.479	51652.33
551.679	52231.91
551.879	51615.47
552.079	52500.19
552.278	51947.24
552.478	52051.69
552.678	51881.7
552.878	52367.07
553.077	51898.09
553.277	51719.91
553.477	52477.66
553.676	51652.33
553.876	52133.6
554.076	51977.96
554.275	51869.42
554.475	51945.19
554.674	52371.17
554.874	52262.63
555.074	51910.38
555.273	52184.8
555.473	52717.28
555.672	52023.01
555.872	51629.8
556.071	52500.19
556.271	52092.65
556.47	52348.64
556.67	51861.22
556.869	52018.92
557.068	52149.99
557.268	51855.08
557.467	51930.86
557.667	52162.28
557.866	52444.9
558.065	52057.83
558.265	51594.99
558.464	51494.64
558.663	52344.55
558.863	51568.37
559.062	52731.61
559.261	51914.47
559.461	52403.94
559.66	51810.03
559.859	52231.91
560.058	51980.01
560.258	52082.41
560.457	51656.43
560.656	52217.57
560.855	51709.67
561.054	52104.93
561.253	51560.17
561.453	51889.9
561.652	51797.74
561.851	51926.76
562.05	51746.54
562.249	51611.37
562.448	52236
562.647	51832.55
562.846	51908.33
563.045	52020.97
563.244	51164.92
563.443	51855.08
563.642	51332.85
563.841	51529.45
564.04	51494.64
564.239	51986.15
564.438	51496.69
564.637	51468.01
564.836	51840.74
565.035	51080.95
565.234	51392.24
565.432	51121.91
565.631	50896.63
565.83	51482.35
566.029	51035.89
566.228	51263.22
566.427	51255.03
566.625	50616.06
566.824	50792.18
567.023	51097.33
567.222	50237.19
567.42	51144.44
567.619	50949.88
567.818	50501.37
568.016	50421.5
568.215	50814.71
568.414	50224.9
568.612	50614.01
568.811	50290.43
569.01	50382.59
569.208	49706.76
569.407	50353.92
569.605	49934.09
569.804	50632.44
570.002	49563.4
570.201	50050.82
570.4	49465.1
570.598	49579.79
570.797	49585.93
570.995	49805.06
571.193	48850.71
571.392	49620.75
571.59	48819.99
571.789	48897.81
571.987	49813.26
572.186	49135.38
572.384	48903.96
572.582	48967.44
572.781	48844.57
572.979	47947.56
573.177	48774.94
573.376	48690.97
573.574	48127.78
573.772	48434.97
573.971	47918.88
574.169	47589.16
574.367	47851.3
574.565	47957.8
574.763	47433.52
574.962	47646.5
575.16	47378.22
575.358	47447.85
575.556	47179.57
575.754	47189.81
575.952	46931.76
576.151	47570.73
576.349	46948.15
576.547	47019.83
576.745	46800.69
576.943	46843.7
577.141	46382.91
577.339	46518.07
577.537	46423.87
577.735	46384.96
577.933	45901.64
578.131	46335.8
578.329	45698.89
578.527	45729.61
578.725	45705.03
578.923	46135.1
579.121	45676.36
579.319	45582.15
579.516	45760.33
579.714	45547.34
579.912	45213.52
580.11	45107.02
580.308	45422.41
580.506	44842.84
580.704	44509.02
580.901	44732.25
581.099	45244.24
581.297	44304.22
581.495	44300.12
581.692	44582.74
581.89	44048.22
582.088	44658.52
582.285	44175.2
582.483	44562.26
582.681	44099.42
582.878	43673.45
583.076	43382.63
583.274	44230.49
583.471	43321.19
583.669	43200.36
583.866	42911.6
584.064	43624.29
584.262	42747.76
584.459	43597.67
584.657	43026.29
584.854	42932.08
585.052	42420.09
585.249	42827.63
585.447	42827.63
585.644	42149.76
585.841	42715
586.039	42923.89
586.236	42051.45
586.434	41979.78
586.631	42020.73
586.828	42186.62
587.026	41748.35
587.223	41869.19
587.42	41543.56
587.618	41951.1
587.815	41385.86
588.012	41336.71
588.21	41322.38
588.407	41461.64
588.604	41219.98
588.801	41142.16
588.999	40963.98
589.196	40785.81
589.393	41011.09
589.59	40359.83
589.787	40673.17
589.984	40650.64
590.182	39804.83
590.379	40357.78
590.576	40339.35
590.773	40175.51
590.97	40181.66
591.167	40048.54
591.364	39872.42
591.561	39833.5
591.758	39903.14
591.955	39331.75
592.152	39753.63
592.349	39661.47
592.546	39645.09
592.743	39509.93
592.94	39006.12
593.137	38987.69
593.334	39239.59
593.531	38705.07
593.727	38987.69
593.924	38909.87
594.121	39061.42
594.318	38887.34
594.515	38623.15
594.712	39200.68
594.908	38569.91
595.105	38961.07
595.302	38328.25
595.499	38027.2
595.696	38506.42
595.892	37726.14
596.089	38475.7
596.286	38246.33
596.482	38062.01
596.679	38158.27
596.876	38035.39
597.072	37521.35
597.269	37896.13
597.466	37472.2
597.662	37470.15
597.859	37666.75
598.055	37453.76
598.252	37046.22
598.448	37621.7
598.645	37332.93
598.841	37134.28
599.038	37187.53
599.234	37281.74
599.431	37285.83
599.627	37271.5
599.824	37201.86
600.02	37394.37
600.217	37398.47
600.413	37052.36
600.609	36798.41
600.806	37007.31
601.002	37248.97
601.198	36669.39
601.395	36546.51
601.591	36878.29
601.787	36560.85
601.984	36673.49
602.18	36798.41
602.376	36564.95
602.572	36341.72
602.769	36511.7
602.965	36306.9
603.161	36941.77
603.357	36495.32
603.553	36558.8
603.75	36257.75
603.946	36198.36
604.142	36372.44
604.338	35862.49
604.534	36247.51
604.73	36327.38
604.926	36141.02
605.122	36632.53
605.318	36245.46
605.514	36313.05
605.71	35909.6
605.906	35909.6
606.102	36171.74
606.298	36233.18
606.494	36108.25
606.69	36290.52
606.886	36425.68
607.082	35669.98
607.278	36032.47
607.474	35938.27
607.67	36048.86
607.866	35553.25
608.062	36360.15
608.257	35911.64
608.453	35940.32
608.649	36345.81
608.845	35807.2
609.041	35620.83
609.236	36184.02
609.432	36059.1
609.628	35829.73
609.824	36044.76
610.019	35909.6
610.215	35973.08
610.411	36079.58
610.606	35620.83
610.802	35909.6
610.998	35674.08
611.193	36120.54
611.389	35614.69
611.584	35940.32
611.78	35899.36
611.976	36095.96
612.171	35665.89
612.367	36161.5
612.562	35807.2
612.758	35579.87
612.953	35463.14
613.149	35866.59
613.344	35471.33
613.539	36376.53
613.735	35809.25
613.93	36003.8
614.126	35921.88
614.321	36239.32
614.517	35925.98
614.712	35543.01
614.907	35655.65
615.103	36095.96
615.298	35782.62
615.493	36243.41
615.688	35413.99
615.884	36413.4
616.079	35086.31
616.274	36081.63
616.47	35549.15
616.665	35366.88
616.86	35534.82
617.055	35612.64
617.25	35842.01
617.445	35610.59
617.641	35205.09
617.836	35299.3
618.031	34793.45
618.226	35710.94
618.421	35330.02
618.616	35805.15
618.811	34578.42
619.006	35770.33
619.201	34611.18
619.396	35164.14
619.591	34269.17
619.786	34848.75
619.981	34275.32
620.176	34637.81
620.371	34039.8
620.566	34146.29
620.761	34248.69
620.956	33976.31
621.151	33593.34
621.346	33966.07
621.541	33259.52
621.735	33718.27
621.93	33220.61
622.125	33112.07
622.32	32743.44
622.515	33024.01
622.709	32845.83
622.904	32645.13
623.099	32315.41
623.294	32800.78
623.488	32327.7
623.683	32348.18
623.878	31911.96
624.072	32210.96
624.267	32116.76
624.462	31621.15
624.656	31537.18
624.851	31535.13
625.046	31322.15
625.24	31002.66
625.435	30836.78
625.629	30963.75
625.824	30711.85
626.018	30683.18
626.213	29820.98
626.407	30416.94
626.602	30027.83
626.796	29868.09
626.991	29796.41
627.185	29644.86
627.38	29700.15
627.574	29208.64
627.768	29130.82
627.963	28936.26
628.157	28819.53
628.352	29018.18
628.546	28442.7
628.74	28477.52
628.935	27979.86
629.129	28272.72
629.323	27910.23
629.517	27928.66
629.712	27932.76
629.906	27811.93
630.1	27314.27
630.294	27390.05
630.489	27398.24
630.683	27361.37
630.877	26955.88
631.071	26685.54
631.265	26998.88
631.459	26646.63
631.653	26224.75
631.848	26323.05
632.042	26445.93
632.236	26425.45
632.43	26114.16
632.624	26075.25
632.818	25854.07
633.012	25612.41
633.206	25288.83
633.4	25344.13
633.594	25133.18
633.788	24936.58
633.982	25258.11
634.176	24897.67
634.369	24920.2
634.563	24619.14
634.757	24600.71
634.951	24717.45
635.145	24264.85
635.339	24205.45
635.533	24285.33
635.726	24416.4
635.92	23904.4
636.114	23715.99
636.308	23679.13
636.501	23582.87
636.695	23261.34
636.889	23439.51
637.083	22958.24
637.276	23128.22
637.47	22855.84
637.664	23191.71
637.857	22919.33
638.051	22405.29
638.244	22526.12
638.438	22374.57
638.632	22083.76
638.825	21924.02
639.019	21686.45
639.212	21674.17
639.406	21985.46
639.599	21606.58
639.793	21575.86
639.986	21297.34
640.18	21526.71
640.373	20922.56
640.567	20910.27
640.76	21153.98
640.954	20582.6
641.147	20703.43
641.34	20357.32
641.534	20404.42
641.727	20535.49
641.92	20240.59
642.114	20099.28
642.307	20076.75
642.5	19886.29
642.694	19734.74
642.887	19628.24
643.08	19593.43
643.273	19566.81
643.467	19230.94
643.66	19269.85
643.853	19290.33
644.046	18940.13
644.239	18782.43
644.432	19052.77
644.626	18710.75
644.819	18778.34
645.012	18694.37
645.205	18313.45
645.398	18333.93
645.591	18401.51
645.784	18077.93
645.977	18184.43
646.17	18106.6
646.363	17862.9
646.556	17783.02
646.749	17668.34
646.942	17563.89
647.135	17430.77
647.328	17187.07
647.521	17197.31
647.714	16877.82
647.907	17041.66
648.099	16967.93
648.292	16881.92
648.485	16941.31
648.678	16670.98
648.871	16640.26
649.064	16511.24
649.256	16697.6
649.449	16341.25
649.642	16288.01
649.835	16087.31
650.027	16095.5
650.22	16101.64
650.413	15894.8
650.605	15788.3
650.798	15737.1
650.991	15440.15
651.183	15563.03
651.376	15286.55
651.568	15503.64
651.761	15376.66
651.954	15364.37
652.146	15278.36
652.339	15048.99
652.531	15163.67
652.724	15001.88
652.916	14786.85
653.109	14686.5
653.301	14694.69
653.494	14936.35
653.686	14244.13
653.879	14643.49
654.071	14332.2
654.263	14393.64
654.456	14410.02
654.648	14278.95
654.84	14182.7
655.033	14190.89
655.225	14090.54
655.417	13898.03
655.61	13955.37
655.802	13844.78
655.994	13766.96
656.186	13742.38
656.379	13349.17
656.571	13476.15
656.763	13267.25
656.955	13164.86
657.148	13340.98
657.34	13295.93
657.532	12886.33
657.724	13078.84
657.916	13031.74
658.108	12915
658.3	12808.51
658.492	12880.19
658.684	12677.44
658.876	12583.23
659.068	12587.33
659.26	12646.72
659.452	12544.32
659.644	12261.7
659.836	12286.28
660.028	12472.64
660.22	11913.55
660.412	12032.33
660.604	11903.31
660.796	11870.54
660.988	11874.63
661.18	11817.29
661.372	11694.41
661.563	11817.29
661.755	11526.48
661.947	11479.38
662.139	11458.9
662.331	11608.4
662.522	11522.38
662.714	11293.01
662.906	11118.93
663.097	11325.78
663.289	11129.17
663.481	11184.47
663.673	11063.64
663.864	10844.51
664.056	10713.44
664.247	11037.02
664.439	10705.24
664.631	10711.39
664.822	10746.2
665.014	10639.71
665.205	10451.3
665.397	10295.65
665.588	10637.66
665.78	10318.18
665.971	10273.12
666.163	10408.29
666.354	10252.64
666.546	10129.77
666.737	9988.46
666.929	9978.22
667.12	10041.7
667.311	10121.57
667.503	9933.16
667.694	9871.72
667.885	9861.48
668.077	9797.99
668.268	9759.08
668.459	9537.9
668.651	9675.12
668.842	9507.18
669.033	9404.78
669.224	9230.71
669.416	9609.58
669.607	9298.29
669.798	9404.78
669.989	9486.7
670.18	9365.87
670.371	9052.53
670.563	9324.91
670.754	9130.36
670.945	8999.29
671.136	8993.14
671.327	8919.42
671.518	8966.52
671.709	8860.02
671.9	8925.56
672.091	8911.22
672.282	8829.31
672.473	8616.32
672.664	8704.38
672.855	8622.46
673.046	8628.6
673.237	8561.02
673.428	8466.81
673.619	8655.23
673.809	8536.45
674	8372.61
674.191	8296.83
674.382	8360.32
674.573	8573.31
674.764	8284.55
674.954	8442.24
675.145	8200.58
675.336	8188.29
675.527	8173.96
675.717	8141.19
675.908	7917.96
676.099	8055.17
676.289	7928.2
676.48	7999.88
676.671	7827.85
676.861	7987.59
677.052	8100.23
677.243	7901.58
677.433	7917.96
677.624	8003.97
677.814	7829.9
678.005	7872.9
678.195	7842.18
678.386	7735.69
678.576	7575.95
678.767	7524.75
678.957	7672.2
679.148	7831.94
679.338	7604.62
679.529	7752.07
679.719	7573.9
679.909	7737.74
680.1	7655.82
680.29	7434.64
680.481	7315.86
680.671	7485.84
680.861	7645.58
681.052	7473.55
681.242	7223.7
681.432	7410.06
681.622	7264.66
681.813	7145.87
682.003	7309.71
682.193	7264.66
682.383	7262.61
682.573	7326.1
682.764	7043.48
682.954	7147.92
683.144	7192.98
683.334	7149.97
683.524	7016.85
683.714	7168.4
683.904	6963.61
684.094	7068.05
684.284	7057.81
684.474	7066
684.664	6918.55
684.854	6869.4
685.044	7049.62
685.234	6912.41
685.424	6912.41
685.614	6799.77
685.804	6871.45
685.994	6957.46
686.184	6910.36
686.374	6764.95
686.564	6685.08
686.753	6795.67
686.943	6658.46
687.133	6705.56
687.323	6599.07
687.513	6418.85
687.702	6414.75
687.892	6541.72
688.082	6465.95
688.272	6476.19
688.461	6484.38
688.651	6574.49
688.841	6287.78
689.03	6324.64
689.22	6308.26
689.41	6384.03
689.599	6320.54
689.789	6328.74
689.979	6255.01
690.168	6353.31
690.358	6216.1
690.547	6214.05
690.737	6109.6
690.926	6123.94
691.116	6042.02
691.305	6341.02
691.495	5923.24
691.684	6076.84
691.874	5931.43
692.063	5904.81
692.252	5976.48
692.442	6085.03
692.631	5880.23
692.82	5833.13
693.01	5837.22
693.199	5810.6
693.388	5757.35
693.578	5693.87
693.767	5972.39
693.956	5689.77
694.146	5732.78
694.335	5550.51
694.524	5745.06
694.713	5616.04
694.902	5747.11
695.092	5583.27
695.281	5685.67
695.47	5487.02
695.659	5595.56
695.848	5570.99
696.037	5550.51
696.226	5624.23
696.415	5484.97
696.604	5624.23
696.793	5444.01
696.982	5425.58
697.171	5476.78
697.36	5439.92
697.549	5394.86
697.738	5472.68
697.927	5493.16
698.116	5343.66
698.305	5345.71
698.494	5437.87
698.683	5405.1
698.872	5304.75
699.061	5249.46
699.25	5218.74
699.438	5224.88
699.627	5190.06
699.816	5069.23
700.005	5198.26
700.193	5106.1
700.382	5321.13
700.571	5095.86
700.76	5210.54
700.948	5190.06
701.137	5026.23
701.326	5034.42
701.514	4979.12
701.703	4995.51
701.892	5106.1
702.08	5222.83
702.269	4960.69
702.457	4968.88
702.646	4917.68
702.834	4856.25
703.023	4749.75
703.212	4782.52
703.4	4864.44
703.589	4796.85
703.777	4858.29
703.965	4678.07
704.154	4776.38
704.342	4520.38
704.531	4780.47
704.719	4639.16
704.907	4659.64
705.096	4592.06
705.284	4641.21
705.472	4491.71
705.661	4647.35
705.849	4702.65
706.037	4544.95
706.226	4610.49
706.414	4471.23
706.602	4563.39
706.79	4524.47
706.979	4387.26
707.167	4551.1
707.355	4508.09
707.543	4495.8
707.731	4428.22
707.919	4374.97
708.107	4356.54
708.296	4241.86
708.484	4311.49
708.672	4288.96
708.86	4350.4
709.048	4166.08
709.236	4139.46
709.424	4258.24
709.612	4223.42
709.8	4272.57
709.988	4116.93
710.176	4116.93
710.364	4305.34
710.551	4153.79
710.739	4280.77
710.927	4143.55
711.115	4100.55
711.303	4178.37
711.491	4063.68
711.679	3949
711.866	4026.82
712.054	4037.06
712.242	4010.43
712.43	4106.69
712.617	4002.24
712.805	3944.9
712.993	3987.91
713.181	3951.04
713.368	3940.8
713.556	3842.5
713.744	3848.65
713.931	3961.28
714.119	3781.06
714.306	3797.45
714.494	3723.72
714.682	3834.31
714.869	3680.71
715.057	3731.91
715.244	3746.25
715.432	3830.21
715.619	3594.7
715.807	3627.46
715.994	3701.19
716.182	3690.95
716.369	3748.29
716.556	3680.71
716.744	3570.12
716.931	3666.38
717.119	3502.54
717.306	3586.51
717.493	3500.49
717.681	3496.39
717.868	3486.15
718.055	3486.15
718.242	3502.54
718.43	3592.65
718.617	3559.88
718.804	3518.92
718.991	3471.82
719.179	3514.83
719.366	3584.46
719.553	3494.35
719.74	3371.47
719.927	3510.73
720.114	3514.83
720.301	3367.37
720.488	3334.61
720.676	3502.54
720.863	3379.66
721.05	3383.76
721.237	3303.89
721.424	3207.63
721.611	3348.94
721.798	3088.85
721.985	3156.43
722.172	3236.3
722.358	3314.13
722.545	3170.77
722.732	3166.67
722.919	3283.41
723.106	3142.1
723.293	3207.63
723.48	3269.07
723.667	3082.7
723.853	3154.38
724.04	3203.54
724.227	3185.1
724.414	3123.66
724.6	3099.09
724.787	3080.66
724.974	3045.84
725.161	3025.36
725.347	3011.03
725.534	2955.73
725.72	3076.56
725.907	3060.18
726.094	2955.73
726.28	2896.34
726.467	3101.14
726.653	2906.58
726.84	2984.4
727.027	3109.33
727.213	2882
727.4	2847.19
727.586	2812.37
727.773	2996.69
727.959	2767.32
728.145	2922.96
728.332	2695.64
728.518	2795.99
728.705	2882
728.891	2953.68
729.077	2806.23
729.264	2847.19
729.45	2707.93
729.636	2818.52
729.823	2740.69
730.009	2892.24
730.195	2832.85
730.382	2728.41
730.568	2707.93
730.754	2662.87
730.94	2765.27
731.126	2767.32
731.313	2775.51
731.499	2578.9
731.685	2691.54
731.871	2757.08
732.057	2675.16
732.243	2718.17
732.429	2666.97
732.615	2642.39
732.801	2642.39
732.987	2607.58
733.173	2802.13
733.359	2505.18
733.545	2607.58
733.731	2570.71
733.917	2556.38
734.103	2568.66
734.289	2597.34
734.475	2564.57
734.661	2707.93
734.847	2568.66
735.033	2521.56
735.219	2550.23
735.404	2562.52
735.59	2435.55
735.776	2503.13
735.962	2640.34
736.148	2515.42
736.333	2533.85
736.519	2417.12
736.705	2427.35
736.89	2410.97
737.076	2433.5
737.262	2271.71
737.447	2421.21
737.633	2343.39
737.819	2408.92
738.004	2408.92
738.19	2445.79
738.375	2347.48
738.561	2421.21
738.747	2339.29
738.932	2234.85
739.118	2306.52
739.303	2269.66
739.489	2384.35
739.674	2394.59
739.859	2316.76
740.045	2243.04
740.23	2355.68
740.416	2288.09
740.601	2240.99
740.786	2179.55
740.972	2208.22
741.157	2087.39
741.342	2175.45
741.528	2173.41
741.713	2208.22
741.898	2150.88
742.084	2150.88
742.269	2179.55
742.454	2099.68
742.639	2161.12
742.824	2077.15
743.01	2226.65
743.195	2111.97
743.38	2212.32
743.565	2175.45
743.75	2144.74
743.935	1972.71
744.12	2091.49
744.305	2025.95
744.49	1976.8
744.675	2028
744.86	1956.32
745.045	2036.19
745.23	1905.12
745.415	2005.47
745.6	1995.23
745.785	1933.79
745.97	1946.08
746.155	2011.62
746.34	1872.36
746.525	1913.31
746.71	1950.18
746.895	1880.55
747.079	1720.81
747.264	1872.36
747.449	1884.64
747.634	1896.93
747.819	1851.88
748.003	1749.48
748.188	1839.59
748.373	1823.2
748.557	1767.91
748.742	1729
748.927	1679.85
749.111	1626.6
749.296	1741.29
749.481	1645.03
749.665	1685.99
749.85	1733.09
750.034	1634.79
750.219	1733.09
750.404	1700.33
750.588	1669.61
750.773	1636.84
750.957	1636.84
751.141	1634.79
751.326	1675.75
751.51	1505.77
751.695	1642.98
751.879	1516.01
752.064	1577.45
752.248	1550.82
752.432	1522.15
752.617	1462.76
752.801	1569.26
752.985	1528.3
753.17	1552.87
753.354	1454.57
753.538	1464.81
753.722	1432.04
753.907	1454.57
754.091	1421.8
754.275	1464.81
754.459	1382.89
754.643	1352.17
754.828	1413.61
755.012	1454.57
755.196	1425.9
755.38	1307.12
755.564	1278.44
755.748	1315.31
755.932	1434.09
756.116	1397.23
756.3	1378.79
756.484	1292.78
756.668	1257.96
756.852	1303.02
757.036	1208.81
757.22	1280.49
757.404	1257.96
757.588	1380.84
757.772	1311.21
757.956	1272.3
758.14	1241.58
758.323	1176.05
758.507	1276.4
758.691	1219.05
758.875	1204.72
759.059	1241.58
759.242	1251.82
759.426	1190.38
759.61	1135.09
759.794	1094.13
759.977	1204.72
760.161	1210.86
760.345	1200.62
760.528	1180.14
760.712	1204.72
760.895	1008.11
761.079	1202.67
761.263	1102.32
761.446	1114.61
761.63	1055.22
761.813	1167.85
761.997	1079.79
762.18	1120.75
762.364	1094.13
762.547	1055.22
762.731	1073.65
762.914	1163.76
763.098	1036.78
763.281	1018.35
763.464	1106.42
763.648	1085.94
763.831	1016.3
764.015	1151.47
764.198	1047.02
764.381	1063.41
764.564	1028.59
764.748	1092.08
764.931	987.63
765.114	1008.11
765.297	1137.13
765.481	1016.3
765.664	1065.46
765.847	987.63
766.03	1067.5
766.213	1012.21
766.397	975.35
766.58	965.11
766.763	1014.26
766.946	969.2
767.129	1004.02
767.312	965.11
767.495	954.87
767.678	963.06
767.861	981.49
768.044	969.2
768.227	1006.06
768.41	961.01
768.593	852.47
768.776	993.78
768.959	965.11
769.142	915.95
769.324	922.1
769.507	862.71
769.69	979.44
769.873	995.82
770.056	979.44
770.239	877.04
770.421	903.67
770.604	840.18
770.787	971.25
770.97	905.71
771.152	842.23
771.335	950.77
771.518	905.71
771.7	971.25
771.883	811.51
772.066	881.14
772.248	932.34
772.431	911.86
772.613	889.33
772.796	907.76
772.978	848.37
773.161	825.84
773.343	815.6
773.526	776.69
773.708	729.59
773.891	793.08
774.073	819.7
774.256	850.42
774.438	877.04
774.621	795.12
774.803	760.31
774.985	817.65
775.168	733.68
775.35	823.8
775.532	840.18
775.715	737.78
775.897	762.36
776.079	739.83
776.261	750.07
776.444	750.07
776.626	819.7
776.808	737.78
776.99	760.31
777.173	719.35
777.355	780.79
777.537	778.74
777.719	764.4
777.901	696.82
778.083	643.57
778.265	739.83
778.447	741.88
778.629	709.11
778.811	774.64
778.993	602.61
779.175	694.77
779.357	719.35
779.539	578.04
779.721	696.82
779.903	645.62
780.085	684.53
780.267	647.67
780.449	666.1
780.631	619
780.812	684.53
780.994	651.77
781.176	619
781.358	614.9
781.54	635.38
781.721	604.66
781.903	571.9
782.085	559.61
782.267	721.4
782.448	578.04
782.63	582.14
782.812	545.27
782.993	666.1
783.175	604.66
783.357	551.42
783.538	588.28
783.72	571.9
783.901	571.9
784.083	612.85
784.264	522.74
784.446	565.75
784.627	461.3
784.809	532.98
784.99	522.74
785.172	616.95
785.353	582.14
785.535	553.46
785.716	512.5
785.897	520.7
786.079	526.84
786.26	545.27
786.441	545.27
786.623	391.67
786.804	424.44
786.985	537.08
787.167	438.78
787.348	561.66
787.529	430.59
787.71	580.09
787.891	422.39
788.073	479.74
788.254	453.11
788.435	502.26
788.616	442.87
788.797	451.07
788.978	455.16
789.159	395.77
789.34	463.35
789.522	385.53
789.703	442.87
789.884	377.34
790.065	393.72
790.246	369.15
790.427	436.73
790.607	369.15
790.788	481.78
790.969	459.26
791.15	363
791.331	414.2
791.512	440.83
791.693	389.63
791.874	387.58
792.054	487.93
792.235	373.24
792.416	430.59
792.597	397.82
792.778	375.29
792.958	414.2
793.139	414.2
793.32	336.38
793.5	334.33
793.681	354.81
793.862	385.53
794.042	348.67
794.223	233.98
794.404	430.59
794.584	322.04
794.765	283.13
794.945	295.42
795.126	385.53
795.306	383.48
795.487	358.91
795.667	315.9
795.848	367.1
796.028	307.71
796.209	369.15
796.389	303.61
796.57	334.33
796.75	270.84
796.93	307.71
797.111	324.09
797.291	295.42
797.471	348.67
797.652	260.6
797.832	274.94
798.012	301.56
798.192	285.18
798.373	287.23
798.553	311.8
798.733	348.67
798.913	213.5
799.093	182.78
799.274	285.18
799.454	324.09
799.634	283.13
799.814	276.99
799.994	225.79
800.174	320
800.354	264.7
800.534	152.06
800.714	227.84
800.894	268.8
801.074	205.31
801.254	152.06
801.434	266.75
801.614	201.21
801.794	199.16
801.974	899.57
802.154	201.21
802.334	317.95
802.514	223.74
802.693	250.36
802.873	164.35
803.053	260.6
803.233	258.56
803.413	295.42
803.592	227.84
803.772	233.98
803.952	233.98
804.131	262.65
804.311	219.64
804.491	242.17
804.67	178.69
804.85	205.31
805.03	258.56
805.209	324.09
805.389	203.26
805.568	127.49
805.748	217.6
805.928	154.11
806.107	176.64
806.287	209.4
806.466	250.36
806.646	197.12
806.825	242.17
807.004	225.79
807.184	242.17
807.363	324.09
807.543	233.98
807.722	162.3
807.901	213.5
808.081	252.41
808.26	168.45
808.439	233.98
808.619	213.5
808.798	195.07
808.977	264.7
809.156	242.17
809.336	86.53
809.515	162.3
809.694	135.68
809.873	217.6
810.052	203.26
810.231	162.3
810.411	188.93
810.59	248.32
810.769	127.49
810.948	242.17
811.127	133.63
811.306	193.02
811.485	164.35
811.664	295.42
811.843	166.4
812.022	180.73
812.201	168.45
812.38	211.45
812.559	164.35
812.737	268.8
812.916	154.11
813.095	164.35
813.274	133.63
813.453	129.53
813.632	172.54
813.811	168.45
813.989	82.43
814.168	129.53
814.347	143.87
814.526	213.5
814.704	184.83
814.883	162.3
815.062	113.15
815.24	219.64
815.419	78.33
815.598	150.01
815.776	186.88
815.955	201.21
816.133	80.38
816.312	160.25
816.49	215.55
816.669	217.6
816.847	115.2
817.026	145.92
817.204	197.12
817.383	113.15
817.561	158.21
817.74	160.25
817.918	100.86
818.097	201.21
818.275	64
818.453	123.39
818.632	172.54
818.81	152.06
818.988	143.87
819.167	137.73
819.345	96.77
819.523	70.14
819.701	154.11
819.879	168.45
820.058	152.06
820.236	96.77
820.414	193.02
820.592	127.49
820.77	94.72
820.948	168.45
821.127	98.81
821.305	174.59
821.483	90.62
821.661	154.11
821.839	66.05
822.017	164.35
822.195	113.15
822.373	172.54
822.551	139.77
822.729	184.83
822.907	61.95
823.085	119.29
823.262	127.49
823.44	121.34
823.618	98.81
823.796	139.77
823.974	154.11
824.152	49.66
824.329	139.77
824.507	109.05
824.685	111.1
824.863	233.98
825.04	113.15
825.218	107.01
825.396	123.39
825.574	127.49
825.751	104.96
825.929	170.49
826.107	70.14
826.284	55.81
826.462	129.53
826.639	104.96
826.817	96.77
826.994	113.15
827.172	109.05
827.349	135.68
827.527	201.21
827.704	164.35
827.882	170.49
828.059	119.29
828.237	82.43
828.414	98.81
828.591	111.1
828.769	72.19
828.946	43.52
829.124	100.86
829.301	78.33
829.478	61.95
829.655	104.96
829.833	45.57
830.01	-24.06
830.187	55.81
830.364	107.01
830.542	74.24
830.719	72.19
830.896	96.77
831.073	139.77
831.25	82.43
831.427	145.92
831.604	78.33
831.782	113.15
831.959	172.54
832.136	94.72
832.313	86.53
832.49	111.1
832.667	129.53
832.844	78.33
833.021	152.06
833.198	20.99
833.374	123.39
833.551	143.87
833.728	-17.92
833.905	-28.16
834.082	51.71
834.259	131.58
834.436	115.2
834.612	70.14
834.789	111.1
834.966	78.33
835.143	86.53
835.319	-38.4
835.496	68.09
835.673	102.91
835.85	70.14
836.026	160.25
836.203	86.53
836.38	100.86
836.556	125.44
836.733	-11.78
836.909	94.72
837.086	72.19
837.262	45.57
837.439	123.39
837.616	78.33
837.792	92.67
837.968	74.24
838.145	16.9
838.321	80.38
838.498	133.63
838.674	107.01
838.851	80.38
839.027	57.86
839.203	57.86
839.38	137.73
839.556	29.18
839.732	98.81
839.909	29.18
840.085	115.2
840.261	80.38
840.437	49.66
840.614	78.33
840.79	61.95
840.966	115.2
841.142	45.57
841.318	4.61
841.494	139.77
841.671	61.95
841.847	53.76
842.023	-48.64
842.199	90.62
842.375	125.44
842.551	92.67
842.727	8.7
842.903	45.57
843.079	29.18
843.255	61.95
843.431	41.47
843.607	127.49
843.783	-24.06
843.959	37.38
844.134	47.62
844.31	94.72
844.486	23.04
844.662	18.94
844.838	12.8
845.013	53.76
845.189	33.28
845.365	59.9
845.541	107.01
845.716	86.53
845.892	53.76
846.068	29.18
846.244	31.23
846.419	135.68
846.595	20.99
846.77	4.61
846.946	45.57
847.122	70.14
847.297	-32.26
847.473	94.72
847.648	-3.58
847.824	100.86
847.999	57.86
848.175	29.18
848.35	0.51
848.526	135.68
848.701	90.62
848.876	180.73
849.052	94.72
849.227	39.42
849.403	53.76
849.578	70.14
849.753	53.76
849.929	115.2
850.104	12.8
850.279	49.66
850.454	-34.3
850.63	37.38
850.805	33.28
850.98	27.14
851.155	14.85
851.33	61.95
851.505	-11.78
851.681	115.2
851.856	102.91
852.031	80.38
852.206	74.24
852.381	49.66
852.556	29.18
852.731	53.76
852.906	68.09
853.081	80.38
853.256	47.62
853.431	-9.73
853.606	64
853.781	31.23
853.956	-50.69
854.131	78.33
854.305	12.8
854.48	37.38
854.655	57.86
854.83	94.72
855.005	45.57
855.18	82.43
855.354	107.01
855.529	82.43
855.704	31.23
855.879	43.52
856.053	45.57
856.228	35.33
856.403	-28.16
856.577	31.23
856.752	74.24
856.926	86.53
857.101	37.38
857.276	2.56
857.45	20.99
857.625	94.72
857.799	-17.92
857.974	41.47
858.148	-19.97
858.323	78.33
858.497	4.61
858.672	70.14
858.846	-22.02
859.02	55.81
859.195	-24.06
859.369	37.38
859.543	0.51
859.718	76.29
859.892	96.77
860.066	107.01
860.241	18.94
860.415	47.62
860.589	-3.58
860.763	80.38
860.938	-9.73
861.112	78.33
861.286	29.18
861.46	25.09
861.634	25.09
861.808	74.24
861.982	-7.68
862.157	0.51
862.331	51.71
862.505	160.25
862.679	6.66
862.853	70.14
863.027	88.57
863.201	53.76
863.375	102.91
863.549	-44.54
863.722	33.28
863.896	64
864.07	-44.54
864.244	121.34
864.418	129.53
864.592	8.7
864.766	53.76
864.939	125.44
865.113	-48.64
865.287	61.95
865.461	-32.26
865.634	18.94
865.808	74.24
865.982	14.85
866.156	-28.16
866.329	39.42
866.503	12.8
866.676	-1.54
866.85	8.7
867.024	8.7
867.197	23.04
867.371	-15.87
867.544	25.09
867.718	31.23
867.891	49.66
868.065	-56.83
868.238	6.66
868.412	61.95
868.585	20.99
868.759	49.66
868.932	29.18
869.105	43.52
869.279	0.51
869.452	-26.11
869.625	104.96
869.799	2.56
869.972	-97.79
870.145	-15.87
870.319	-15.87
870.492	47.62
870.665	12.8
870.838	-17.92
871.011	-50.69
871.185	55.81
871.358	61.95
871.531	90.62
871.704	45.57
871.877	-28.16
872.05	61.95
872.223	-42.5
872.396	-36.35
872.569	55.81
872.742	20.99
872.915	96.77
873.088	59.9
873.261	16.9
873.434	88.57
873.607	20.99
873.78	51.71
873.953	20.99
874.126	-11.78
874.299	-26.11
874.471	20.99
874.644	-11.78
874.817	82.43
874.99	109.05
875.163	68.09
875.335	102.91
875.508	-9.73
875.681	2.56
875.853	74.24
876.026	78.33
876.199	45.57
876.371	-19.97
876.544	33.28
876.717	12.8
876.889	-34.3
877.062	39.42
877.234	-3.58
877.407	23.04
877.579	25.09
877.752	109.05
877.924	37.38
878.097	51.71
878.269	-17.92
878.442	12.8
878.614	12.8
878.786	-36.35
878.959	0.51
879.131	-11.78
879.303	31.23
879.476	-9.73
879.648	70.14
879.82	59.9
879.993	12.8
880.165	-11.78
880.337	-28.16
880.509	-9.73
880.681	-11.78
880.854	16.9
881.026	-11.78
881.198	33.28
881.37	31.23
881.542	-24.06
881.714	29.18
881.886	-17.92
882.058	-15.87
882.23	35.33
882.402	14.85
882.574	-28.16
882.746	23.04
882.918	37.38
883.09	47.62
883.262	78.33
883.434	39.42
883.606	12.8
883.778	23.04
883.95	72.19
884.122	-65.02
884.293	31.23
884.465	-54.78
884.637	10.75
884.809	76.29
884.98	4.61
885.152	31.23
885.324	47.62
885.496	4.61
885.667	25.09
885.839	8.7
886.011	61.95
886.182	41.47
886.354	70.14
886.525	4.61
886.697	113.15
886.869	53.76
887.04	49.66
887.212	90.62
887.383	90.62
887.555	-13.82
887.726	-1.54
887.897	-1.54
888.069	-69.12
888.24	37.38
888.412	-7.68
888.583	14.85
888.754	29.18
888.926	-60.93
889.097	-32.26
889.268	-36.35
889.44	0.51
889.611	-48.64
889.782	-42.5
889.953	-62.98
890.125	57.86
890.296	-19.97
890.467	25.09
890.638	8.7
890.809	-9.73
890.98	16.9
891.151	66.05
891.323	-1.54
891.494	47.62
891.665	-32.26
891.836	-24.06
892.007	33.28
892.178	-15.87
892.349	29.18
892.52	-1.54
892.691	-19.97
892.862	20.99
893.032	-34.3
893.203	20.99
893.374	-7.68
893.545	47.62
893.716	4.61
893.887	23.04
894.057	4.61
894.228	74.24
894.399	-36.35
894.57	-22.02
894.74	-17.92
894.911	64
895.082	-75.26
895.253	-15.87
895.423	-44.54
895.594	31.23
895.764	47.62
895.935	-15.87
896.106	76.29
896.276	14.85
896.447	-75.26
896.617	47.62
896.788	23.04
896.958	4.61
897.129	-54.78
897.299	-11.78
897.47	20.99
897.64	25.09
897.81	41.47
897.981	-28.16
898.151	29.18
898.322	-7.68
898.492	-17.92
898.662	61.95
898.832	25.09
899.003	29.18
899.173	61.95
899.343	-17.92
899.513	-11.78
