Data from USB4F104151__105__14-31-03-639.txt Node

Date: Thu Mar 13 14:31:03 EDT 2025
User: louis
Spectrometer: USB4F10415
Trigger mode: 4
Integration Time (sec): 2.500000E-2
Scans to average: 1
Electric dark correction enabled: true
Nonlinearity correction enabled: false
Boxcar width: 0
XAxis mode: Wavelengths
Number of Pixels in Spectrum: 3648
>>>>>Begin Spectral Data<<<<<
178.204	-166.4
178.424	-166.4
178.644	-166.4
178.864	-127.49
179.084	-139.77
179.304	-43.52
179.524	-6.66
179.744	-90.62
179.964	69.12
180.184	-10.75
180.404	-6.66
180.624	34.3
180.844	17.92
181.064	-51.71
181.283	32.26
181.503	-31.23
181.723	87.55
181.943	73.21
182.163	30.21
182.383	-8.7
182.602	71.17
182.822	-10.75
183.042	-33.28
183.262	17.92
183.482	-43.52
183.701	54.78
183.921	52.74
184.141	-2.56
184.361	46.59
184.58	9.73
184.8	13.82
185.02	5.63
185.239	38.4
185.459	-35.33
185.679	79.36
185.898	38.4
186.118	87.55
186.338	-43.52
186.557	87.55
186.777	11.78
186.997	-8.7
187.216	48.64
187.436	17.92
187.655	36.35
187.875	44.54
188.095	15.87
188.314	93.69
188.534	56.83
188.753	40.45
188.973	-51.71
189.192	62.98
189.412	26.11
189.631	28.16
189.851	62.98
190.07	42.5
190.29	-23.04
190.509	-49.66
190.729	46.59
190.948	30.21
191.168	146.94
191.387	58.88
191.607	95.74
191.826	95.74
192.045	-27.14
192.265	15.87
192.484	-25.09
192.704	-33.28
192.923	-33.28
193.142	136.7
193.362	71.17
193.581	32.26
193.8	34.3
194.02	5.63
194.239	28.16
194.458	48.64
194.678	24.06
194.897	-104.96
195.116	32.26
195.335	-23.04
195.555	91.65
195.774	101.89
195.993	15.87
196.212	26.11
196.432	32.26
196.651	-18.94
196.87	-35.33
197.089	93.69
197.308	46.59
197.528	-8.7
197.747	-43.52
197.966	13.82
198.185	65.02
198.404	-27.14
198.623	56.83
198.842	-35.33
199.062	38.4
199.281	62.98
199.5	30.21
199.719	128.51
199.938	97.79
200.157	17.92
200.376	32.26
200.595	26.11
200.814	-18.94
201.033	-23.04
201.252	77.31
201.471	81.41
201.69	42.5
201.909	-6.66
202.128	56.83
202.347	40.45
202.566	19.97
202.785	62.98
203.004	91.65
203.223	73.21
203.442	73.21
203.661	-57.86
203.879	50.69
204.098	52.74
204.317	-33.28
204.536	-16.9
204.755	-23.04
204.974	54.78
205.193	7.68
205.411	87.55
205.63	26.11
205.849	38.4
206.068	24.06
206.287	124.41
206.505	85.5
206.724	-68.09
206.943	-6.66
207.162	-23.04
207.381	48.64
207.599	87.55
207.818	11.78
208.037	9.73
208.255	54.78
208.474	-16.9
208.693	52.74
208.911	7.68
209.13	54.78
209.349	-4.61
209.567	7.68
209.786	24.06
210.005	24.06
210.223	22.02
210.442	5.63
210.661	-20.99
210.879	-23.04
211.098	-14.85
211.316	13.82
211.535	26.11
211.753	-4.61
211.972	-16.9
212.191	56.83
212.409	-6.66
212.628	95.74
212.846	-18.94
213.065	130.56
213.283	-0.51
213.502	50.69
213.72	24.06
213.938	-35.33
214.157	42.5
214.375	-8.7
214.594	5.63
214.812	34.3
215.031	7.68
215.249	71.17
215.467	-6.66
215.686	26.11
215.904	103.93
216.122	11.78
216.341	71.17
216.559	54.78
216.778	81.41
216.996	81.41
217.214	30.21
217.432	-12.8
217.651	-37.38
217.869	-2.56
218.087	38.4
218.306	-10.75
218.524	81.41
218.742	19.97
218.96	108.03
219.179	-18.94
219.397	-18.94
219.615	67.07
219.833	67.07
220.051	30.21
220.27	38.4
220.488	22.02
220.706	50.69
220.924	42.5
221.142	5.63
221.36	58.88
221.578	50.69
221.796	44.54
222.015	1.54
222.233	19.97
222.451	30.21
222.669	-4.61
222.887	54.78
223.105	-23.04
223.323	46.59
223.541	-49.66
223.759	62.98
223.977	-41.47
224.195	67.07
224.413	-29.18
224.631	99.84
224.849	32.26
225.067	112.13
225.285	-20.99
225.503	15.87
225.721	1.54
225.939	15.87
226.157	13.82
226.375	114.17
226.592	-51.71
226.81	1.54
227.028	-6.66
227.246	91.65
227.464	-18.94
227.682	120.32
227.9	40.45
228.117	-14.85
228.335	13.82
228.553	11.78
228.771	73.21
228.989	15.87
229.206	-37.38
229.424	22.02
229.642	58.88
229.86	-47.62
230.077	-10.75
230.295	3.58
230.513	138.75
230.731	42.5
230.948	38.4
231.166	85.5
231.384	87.55
231.601	-35.33
231.819	103.93
232.037	-92.67
232.254	15.87
232.472	-18.94
232.689	52.74
232.907	46.59
233.125	54.78
233.342	50.69
233.56	-82.43
233.777	19.97
233.995	1.54
234.213	17.92
234.43	5.63
234.648	73.21
234.865	71.17
235.083	56.83
235.3	19.97
235.518	87.55
235.735	46.59
235.953	91.65
236.17	-6.66
236.388	7.68
236.605	50.69
236.822	124.41
237.04	54.78
237.257	24.06
237.475	1.54
237.692	38.4
237.909	-14.85
238.127	17.92
238.344	-10.75
238.562	108.03
238.779	-25.09
238.996	1.54
239.214	32.26
239.431	71.17
239.648	50.69
239.865	105.98
240.083	30.21
240.3	48.64
240.517	-8.7
240.735	87.55
240.952	32.26
241.169	108.03
241.386	48.64
241.603	7.68
241.821	19.97
242.038	56.83
242.255	1.54
242.472	28.16
242.689	30.21
242.907	85.5
243.124	15.87
243.341	-2.56
243.558	-18.94
243.775	-31.23
243.992	-20.99
244.209	-33.28
244.426	83.45
244.643	44.54
244.86	30.21
245.078	77.31
245.295	62.98
245.512	-6.66
245.729	-82.43
245.946	120.32
246.163	48.64
246.38	-0.51
246.597	54.78
246.814	36.35
247.031	-18.94
247.248	7.68
247.464	-2.56
247.681	50.69
247.898	-0.51
248.115	116.22
248.332	30.21
248.549	30.21
248.766	142.85
248.983	32.26
249.2	15.87
249.417	128.51
249.633	13.82
249.85	79.36
250.067	-51.71
250.284	30.21
250.501	87.55
250.717	-39.42
250.934	-33.28
251.151	54.78
251.368	-51.71
251.585	122.37
251.801	-18.94
252.018	-39.42
252.235	24.06
252.451	28.16
252.668	54.78
252.885	30.21
253.102	13.82
253.318	9.73
253.535	-2.56
253.752	75.26
253.968	15.87
254.185	-2.56
254.401	54.78
254.618	24.06
254.835	-10.75
255.051	-0.51
255.268	-18.94
255.484	73.21
255.701	17.92
255.917	46.59
256.134	-74.24
256.351	13.82
256.567	34.3
256.784	89.6
257	-2.56
257.217	-2.56
257.433	54.78
257.65	48.64
257.866	17.92
258.082	19.97
258.299	15.87
258.515	99.84
258.732	34.3
258.948	-25.09
259.165	71.17
259.381	-16.9
259.597	69.12
259.814	-2.56
260.03	79.36
260.246	-2.56
260.463	91.65
260.679	71.17
260.895	15.87
261.112	5.63
261.328	-8.7
261.544	30.21
261.761	46.59
261.977	40.45
262.193	-18.94
262.409	13.82
262.626	79.36
262.842	34.3
263.058	-2.56
263.274	103.93
263.49	62.98
263.707	32.26
263.923	81.41
264.139	46.59
264.355	3.58
264.571	32.26
264.787	34.3
265.004	-0.51
265.22	26.11
265.436	60.93
265.652	79.36
265.868	56.83
266.084	13.82
266.3	22.02
266.516	9.73
266.732	48.64
266.948	52.74
267.164	17.92
267.38	124.41
267.596	87.55
267.812	54.78
268.028	128.51
268.244	7.68
268.46	-10.75
268.676	-23.04
268.892	38.4
269.108	-14.85
269.324	-45.57
269.54	-14.85
269.756	65.02
269.972	1.54
270.188	65.02
270.403	38.4
270.619	15.87
270.835	38.4
271.051	65.02
271.267	22.02
271.483	54.78
271.698	44.54
271.914	54.78
272.13	26.11
272.346	-25.09
272.562	91.65
272.777	38.4
272.993	-6.66
273.209	-6.66
273.425	40.45
273.64	79.36
273.856	34.3
274.072	-18.94
274.287	26.11
274.503	36.35
274.719	13.82
274.934	-27.14
275.15	-10.75
275.366	62.98
275.581	-37.38
275.797	34.3
276.012	-20.99
276.228	1.54
276.444	9.73
276.659	153.09
276.875	-35.33
277.09	-6.66
277.306	-23.04
277.521	7.68
277.737	22.02
277.952	32.26
278.168	71.17
278.383	-8.7
278.599	122.37
278.814	73.21
279.03	26.11
279.245	118.27
279.461	13.82
279.676	13.82
279.892	-10.75
280.107	46.59
280.322	38.4
280.538	79.36
280.753	79.36
280.969	42.5
281.184	-82.43
281.399	91.65
281.615	-2.56
281.83	95.74
282.045	-29.18
282.26	-2.56
282.476	1.54
282.691	128.51
282.906	24.06
283.122	-2.56
283.337	46.59
283.552	56.83
283.767	-8.7
283.983	130.56
284.198	-39.42
284.413	56.83
284.628	-0.51
284.843	-10.75
285.058	79.36
285.274	30.21
285.489	15.87
285.704	103.93
285.919	13.82
286.134	26.11
286.349	-35.33
286.564	-0.51
286.779	62.98
286.995	24.06
287.21	24.06
287.425	-10.75
287.64	-49.66
287.855	3.58
288.07	-29.18
288.285	26.11
288.5	7.68
288.715	38.4
288.93	5.63
289.145	48.64
289.36	65.02
289.575	22.02
289.79	71.17
290.004	5.63
290.219	95.74
290.434	122.37
290.649	9.73
290.864	-27.14
291.079	-2.56
291.294	7.68
291.509	40.45
291.724	-2.56
291.938	-59.9
292.153	-2.56
292.368	1.54
292.583	46.59
292.798	48.64
293.012	-6.66
293.227	48.64
293.442	17.92
293.657	87.55
293.871	108.03
294.086	-18.94
294.301	79.36
294.516	40.45
294.73	65.02
294.945	48.64
295.16	46.59
295.374	91.65
295.589	26.11
295.804	42.5
296.018	46.59
296.233	46.59
296.447	54.78
296.662	5.63
296.877	13.82
297.091	-10.75
297.306	13.82
297.52	62.98
297.735	32.26
297.949	15.87
298.164	38.4
298.378	69.12
298.593	75.26
298.807	-37.38
299.022	-10.75
299.236	28.16
299.451	-10.75
299.665	22.02
299.88	32.26
300.094	-31.23
300.309	19.97
300.523	83.45
300.737	-35.33
300.952	-18.94
301.166	1.54
301.381	30.21
301.595	-10.75
301.809	3.58
302.024	9.73
302.238	7.68
302.452	24.06
302.667	95.74
302.881	38.4
303.095	99.84
303.309	-51.71
303.524	5.63
303.738	65.02
303.952	83.45
304.166	11.78
304.381	26.11
304.595	155.13
304.809	26.11
305.023	19.97
305.237	-0.51
305.452	54.78
305.666	17.92
305.88	5.63
306.094	67.07
306.308	65.02
306.522	38.4
306.736	62.98
306.95	-0.51
307.164	-49.66
307.379	-0.51
307.593	30.21
307.807	77.31
308.021	71.17
308.235	-0.51
308.449	-6.66
308.663	-16.9
308.877	112.13
309.091	79.36
309.305	54.78
309.519	81.41
309.733	71.17
309.947	81.41
310.161	93.69
310.374	87.55
310.588	54.78
310.802	-0.51
311.016	83.45
311.23	13.82
311.444	-6.66
311.658	81.41
311.872	85.5
312.085	62.98
312.299	69.12
312.513	38.4
312.727	71.17
312.941	32.26
313.154	103.93
313.368	28.16
313.582	87.55
313.796	58.88
314.009	62.98
314.223	87.55
314.437	58.88
314.651	87.55
314.864	13.82
315.078	60.93
315.292	-23.04
315.505	-2.56
315.719	65.02
315.933	79.36
316.146	-10.75
316.36	-49.66
316.573	81.41
316.787	-10.75
317.001	-10.75
317.214	-2.56
317.428	26.11
317.641	-37.38
317.855	50.69
318.068	38.4
318.282	32.26
318.495	54.78
318.709	22.02
318.922	24.06
319.136	50.69
319.349	69.12
319.563	44.54
319.776	26.11
319.99	-23.04
320.203	122.37
320.417	17.92
320.63	-16.9
320.843	50.69
321.057	-39.42
321.27	24.06
321.483	38.4
321.697	3.58
321.91	81.41
322.124	73.21
322.337	87.55
322.55	-6.66
322.763	17.92
322.977	22.02
323.19	-27.14
323.403	62.98
323.617	-27.14
323.83	108.03
324.043	-29.18
324.256	85.5
324.469	-0.51
324.683	54.78
324.896	17.92
325.109	-27.14
325.322	13.82
325.535	50.69
325.748	-6.66
325.962	32.26
326.175	65.02
326.388	24.06
326.601	54.78
326.814	30.21
327.027	73.21
327.24	54.78
327.453	13.82
327.666	54.78
327.879	105.98
328.092	22.02
328.305	5.63
328.518	54.78
328.731	-35.33
328.944	73.21
329.157	-0.51
329.37	-2.56
329.583	118.27
329.796	65.02
330.009	5.63
330.222	28.16
330.435	73.21
330.648	34.3
330.861	42.5
331.073	54.78
331.286	5.63
331.499	46.59
331.712	-0.51
331.925	58.88
332.138	38.4
332.35	79.36
332.563	62.98
332.776	38.4
332.989	9.73
333.202	-35.33
333.414	46.59
333.627	54.78
333.84	13.82
334.053	87.55
334.265	105.98
334.478	17.92
334.691	71.17
334.903	62.98
335.116	34.3
335.329	22.02
335.541	-2.56
335.754	58.88
335.966	24.06
336.179	-27.14
336.392	-23.04
336.604	81.41
336.817	15.87
337.029	24.06
337.242	44.54
337.454	48.64
337.667	42.5
337.88	67.07
338.092	32.26
338.305	34.3
338.517	26.11
338.729	36.35
338.942	130.56
339.154	5.63
339.367	-39.42
339.579	85.5
339.792	1.54
340.004	56.83
340.217	1.54
340.429	52.74
340.641	62.98
340.854	15.87
341.066	67.07
341.278	9.73
341.491	153.09
341.703	24.06
341.915	54.78
342.128	148.99
342.34	48.64
342.552	15.87
342.764	-25.09
342.977	54.78
343.189	79.36
343.401	40.45
343.613	-66.05
343.826	34.3
344.038	13.82
344.25	9.73
344.462	7.68
344.674	105.98
344.886	5.63
345.099	-8.7
345.311	30.21
345.523	65.02
345.735	-82.43
345.947	40.45
346.159	71.17
346.371	71.17
346.583	67.07
346.795	89.6
347.007	-6.66
347.219	19.97
347.431	-8.7
347.643	120.32
347.855	-29.18
348.067	62.98
348.279	-10.75
348.491	40.45
348.703	46.59
348.915	22.02
349.127	-39.42
349.339	46.59
349.551	-6.66
349.763	73.21
349.975	73.21
350.187	48.64
350.399	95.74
350.61	17.92
350.822	-27.14
351.034	40.45
351.246	73.21
351.458	22.02
351.669	62.98
351.881	140.8
352.093	24.06
352.305	97.79
352.517	-10.75
352.728	34.3
352.94	-10.75
353.152	54.78
353.363	44.54
353.575	54.78
353.787	148.99
353.999	46.59
354.21	97.79
354.422	30.21
354.633	46.59
354.845	75.26
355.057	79.36
355.268	79.36
355.48	46.59
355.692	-8.7
355.903	73.21
356.115	91.65
356.326	11.78
356.538	46.59
356.749	38.4
356.961	116.22
357.172	46.59
357.384	56.83
357.595	114.17
357.807	58.88
358.018	71.17
358.23	99.84
358.441	114.17
358.653	87.55
358.864	79.36
359.075	54.78
359.287	65.02
359.498	13.82
359.709	24.06
359.921	38.4
360.132	30.21
360.344	-18.94
360.555	-10.75
360.766	58.88
360.977	1.54
361.189	56.83
361.4	-12.8
361.611	99.84
361.823	42.5
362.034	42.5
362.245	-84.48
362.456	34.3
362.667	103.93
362.879	71.17
363.09	32.26
363.301	81.41
363.512	38.4
363.723	95.74
363.935	-25.09
364.146	62.98
364.357	62.98
364.568	46.59
364.779	-76.29
364.99	112.13
365.201	46.59
365.412	46.59
365.623	46.59
365.834	13.82
366.045	-49.66
366.256	73.21
366.467	79.36
366.678	30.21
366.889	56.83
367.1	83.45
367.311	67.07
367.522	38.4
367.733	7.68
367.944	73.21
368.155	15.87
368.366	-18.94
368.577	62.98
368.788	177.66
368.999	-53.76
369.209	-16.9
369.42	136.7
369.631	69.12
369.842	44.54
370.053	13.82
370.264	54.78
370.474	-10.75
370.685	-18.94
370.896	91.65
371.107	79.36
371.317	161.28
371.528	-49.66
371.739	67.07
371.95	48.64
372.16	71.17
372.371	5.63
372.582	-16.9
372.792	73.21
373.003	87.55
373.214	38.4
373.424	124.41
373.635	22.02
373.846	81.41
374.056	-55.81
374.267	58.88
374.477	103.93
374.688	22.02
374.898	13.82
375.109	38.4
375.319	75.26
375.53	171.52
375.74	3.58
375.951	13.82
376.161	46.59
376.372	62.98
376.582	-35.33
376.793	71.17
377.003	-25.09
377.214	-8.7
377.424	79.36
377.635	22.02
377.845	44.54
378.055	153.09
378.266	-51.71
378.476	15.87
378.686	54.78
378.897	71.17
379.107	114.17
379.317	83.45
379.528	-8.7
379.738	9.73
379.948	40.45
380.158	24.06
380.369	95.74
380.579	52.74
380.789	-23.04
380.999	42.5
381.21	1.54
381.42	34.3
381.63	17.92
381.84	79.36
382.05	101.89
382.261	99.84
382.471	46.59
382.681	-2.56
382.891	116.22
383.101	95.74
383.311	22.02
383.521	34.3
383.731	58.88
383.941	3.58
384.151	34.3
384.361	15.87
384.571	22.02
384.781	138.75
384.991	87.55
385.201	128.51
385.411	144.89
385.621	71.17
385.831	65.02
386.041	62.98
386.251	-47.62
386.461	67.07
386.671	36.35
386.881	62.98
387.091	87.55
387.301	81.41
387.511	30.21
387.72	81.41
387.93	103.93
388.14	30.21
388.35	56.83
388.56	65.02
388.769	24.06
388.979	71.17
389.189	46.59
389.399	50.69
389.609	105.98
389.818	169.47
390.028	24.06
390.238	30.21
390.447	30.21
390.657	62.98
390.867	38.4
391.076	-0.51
391.286	116.22
391.496	46.59
391.705	60.93
391.915	136.7
392.125	122.37
392.334	163.33
392.544	134.65
392.753	103.93
392.963	58.88
393.172	56.83
393.382	69.12
393.591	130.56
393.801	48.64
394.01	196.09
394.22	97.79
394.429	97.79
394.639	71.17
394.848	89.6
395.058	65.02
395.267	79.36
395.477	136.7
395.686	-10.75
395.895	99.84
396.105	177.66
396.314	48.64
396.524	32.26
396.733	73.21
396.942	185.85
397.152	89.6
397.361	95.74
397.57	60.93
397.78	71.17
397.989	112.13
398.198	105.98
398.407	71.17
398.617	91.65
398.826	130.56
399.035	91.65
399.244	54.78
399.453	101.89
399.663	144.89
399.872	189.95
400.081	40.45
400.29	187.9
400.499	71.17
400.708	148.99
400.917	126.46
401.127	161.28
401.336	200.19
401.545	161.28
401.754	105.98
401.963	148.99
402.172	144.89
402.381	89.6
402.59	155.13
402.799	87.55
403.008	218.62
403.217	187.9
403.426	108.03
403.635	105.98
403.844	222.72
404.053	179.71
404.262	194.05
404.471	194.05
404.68	179.71
404.888	226.81
405.097	198.14
405.306	144.89
405.515	253.44
405.724	218.62
405.933	237.05
406.142	269.82
406.35	222.72
406.559	122.37
406.768	235
406.977	278.01
407.185	304.64
407.394	267.77
407.603	232.96
407.812	308.73
408.02	316.92
408.229	206.33
408.438	304.64
408.646	155.13
408.855	273.92
409.064	275.96
409.272	255.48
409.481	390.65
409.69	310.78
409.898	398.84
410.107	392.7
410.315	304.64
410.524	427.51
410.733	472.57
410.941	327.16
411.15	423.42
411.358	433.66
411.567	513.53
411.775	464.38
411.984	513.53
412.192	644.6
412.401	491
412.609	677.37
412.818	630.26
413.026	640.5
413.234	691.7
413.443	646.65
413.651	630.26
413.86	734.71
414.068	808.44
414.276	861.68
414.485	734.71
414.693	794.1
414.901	865.78
415.11	880.11
415.318	853.49
415.526	839.16
415.734	949.75
415.943	951.79
416.151	1025.52
416.359	1017.33
416.567	1097.2
416.776	1170.93
416.984	1258.99
417.192	1218.03
417.4	1127.92
417.608	1250.8
417.817	1224.17
418.025	1410.54
418.233	1482.22
418.441	1332.72
418.649	1439.21
418.857	1572.33
419.065	1721.83
419.273	1584.62
419.481	1682.92
419.689	1795.56
419.897	1873.38
420.105	1924.58
420.313	1922.53
420.521	2008.55
420.729	2037.22
420.937	2166.24
421.145	2274.78
421.353	2287.07
421.561	2342.36
421.769	2479.58
421.977	2598.36
422.185	2618.84
422.393	2698.71
422.601	2909.65
422.809	2878.93
423.017	2659.8
423.224	3143.12
423.432	3196.37
423.64	2989.52
423.848	3315.15
424.056	3372.49
424.263	3712.46
424.471	3591.63
424.679	3593.67
424.887	3818.95
425.094	3859.91
425.302	4089.28
425.51	4038.08
425.718	4390.33
425.925	4269.5
426.133	4545.98
426.341	4734.39
426.548	4863.41
426.756	4914.61
426.964	5092.79
427.171	5309.87
427.379	5582.25
427.586	5471.66
427.794	5588.39
428.001	5809.58
428.209	6041
428.417	6028.71
428.624	6491.55
428.832	6428.06
429.039	6458.78
429.247	6399.39
429.454	6895
429.662	7427.47
429.869	7177.62
430.076	7591.31
430.284	7275.92
430.491	7695.75
430.699	8156.55
430.906	7914.89
431.114	8320.39
431.321	8566.14
431.528	8574.33
431.736	9172.34
431.943	9516.4
432.15	9227.64
432.358	9473.39
432.565	10075.49
432.772	10034.53
432.979	10360.16
433.187	10542.43
433.394	10839.39
433.601	11304.28
433.808	11500.88
434.016	11304.28
434.223	11908.43
434.43	12459.33
434.637	12246.34
434.844	13086.01
435.052	13434.16
435.259	13276.47
435.466	13454.64
435.673	13141.3
435.88	13944.11
436.087	14624.03
436.294	14748.96
436.501	14558.5
436.708	14675.23
436.915	15121.69
437.122	15709.46
437.329	15818
437.537	16313.61
437.743	16520.45
437.95	16446.73
438.157	17343.74
438.364	17765.62
438.571	17597.68
438.778	17966.32
438.985	19266.78
439.192	19049.69
439.399	19348.7
439.606	18945.25
439.813	20286.67
440.02	21179.58
440.227	20843.71
440.433	20956.35
440.64	21447.86
440.847	21114.05
441.054	21775.54
441.261	23045.28
441.467	22965.41
441.674	23493.79
441.881	24233.1
442.088	24050.83
442.294	23862.42
442.501	24591.5
442.708	24616.07
442.914	25957.49
443.121	26868.84
443.328	26434.67
443.534	28175.44
443.741	27685.98
443.948	27024.48
444.154	29103.17
444.361	28908.61
444.568	28972.1
444.774	28822.6
444.981	29019.21
445.187	30223.41
445.394	31476.77
445.6	30899.24
445.807	33735.68
446.013	32162.84
446.22	32857.1
446.426	34567.15
446.633	34585.58
446.839	35548.13
447.046	34249.72
447.252	36262.87
447.459	36254.68
447.665	36434.9
447.871	37751.74
448.078	39021.48
448.284	37397.45
448.491	38392.76
448.697	39639.97
448.903	40825.75
449.11	40432.54
449.316	40012.7
449.522	40891.28
449.728	41778.05
449.935	42156.92
450.141	41945.98
450.347	43240.3
450.553	41272.2
450.76	42142.59
450.966	43393.9
451.172	43111.28
451.378	44200.8
451.584	43217.77
451.791	44385.11
451.997	44159.84
452.203	44878.68
452.409	44983.12
452.615	44997.46
452.821	43109.23
453.027	42546.04
453.233	44694.36
453.44	43012.98
453.646	43379.56
453.852	43793.25
454.058	44376.92
454.264	42693.49
454.47	43729.76
454.676	43004.78
454.882	44239.71
455.088	40993.68
455.294	41137.04
455.5	41685.89
455.705	42066.81
455.911	40479.64
456.117	39791.52
456.323	38929.33
456.529	37331.91
456.735	38763.44
456.941	37917.63
457.147	37012.43
457.352	35916.76
457.558	35443.68
457.764	35982.3
457.97	35034.09
458.176	34202.61
458.381	34327.54
458.587	32611.34
458.793	32459.79
458.999	31208.48
459.204	33113.09
459.41	32287.76
459.616	30041.14
459.821	30354.48
460.027	30176.31
460.233	29340.74
460.438	28027.99
460.644	28267.6
460.85	26823.78
461.055	26569.83
461.261	26598.51
461.466	24548.49
461.672	23805.08
461.878	25527.42
462.083	23356.57
462.289	23317.66
462.494	22899.87
462.7	21920.95
462.905	21456.06
463.111	21970.1
463.316	22289.58
463.522	22006.96
463.727	21888.18
463.932	21576.89
464.138	21038.27
464.343	21822.64
464.549	20915.39
464.754	21931.19
464.959	21290.17
465.165	21122.24
465.37	20557
465.575	19598.55
465.781	20622.53
465.986	20448.46
466.191	19842.26
466.397	19535.06
466.602	18488.55
466.807	19377.37
467.012	19328.22
467.218	19191
467.423	18830.56
467.628	18867.42
467.833	19606.74
468.038	19254.49
468.244	18578.66
468.449	19203.29
468.654	18613.48
468.859	18345.19
469.064	18269.42
469.269	17730.8
469.474	17964.27
469.679	18015.47
469.885	17755.38
470.09	17945.84
470.295	17630.45
470.5	17042.68
470.705	17630.45
470.91	16758.02
471.115	17016.06
471.32	17315.06
471.525	16803.07
471.73	16487.68
471.935	16567.56
472.139	16047.37
472.344	16123.15
472.549	15906.06
472.754	15643.92
472.959	15516.95
473.164	15041.82
473.369	15050.01
473.574	15422.74
473.778	15230.23
473.983	15293.72
474.188	14890.27
474.393	14468.39
474.598	14409
474.802	14452
475.007	14300.45
475.212	14204.2
475.417	13905.2
475.621	13874.48
475.826	14171.43
476.031	13550.9
476.235	13309.24
476.44	13493.55
476.645	13319.48
476.849	13243.7
477.054	13206.84
477.259	13057.34
477.463	13059.38
477.668	12698.94
477.872	12997.95
478.077	12531.01
478.282	12115.27
478.486	12332.36
478.691	12174.66
478.895	12123.46
479.1	11875.66
479.304	12068.17
479.509	11590.99
479.713	11953.48
479.918	11533.65
480.122	11421.01
480.326	11560.27
480.531	11728.21
480.735	11466.07
480.94	11386.19
481.144	11629.9
481.348	11205.97
481.553	11578.7
481.757	11117.91
481.961	10997.08
482.166	11423.06
482.37	11289.94
482.574	10906.97
482.778	10958.17
482.983	11541.84
483.187	11246.93
483.391	11335
483.595	11144.53
483.8	11050.33
484.004	11064.66
484.208	11263.32
484.412	11242.84
484.616	11306.32
484.821	11193.69
485.025	10667.36
485.229	11158.87
485.433	11165.01
485.637	11212.12
485.841	11068.76
486.045	11058.52
486.249	11015.51
486.453	10859.87
486.657	10958.17
486.861	11130.2
487.065	10894.68
487.269	10995.03
487.473	10892.63
487.677	11056.47
487.881	11162.97
488.085	11029.85
488.289	11097.43
488.493	10927.45
488.697	10962.26
488.901	11232.6
489.105	11191.64
489.309	11124.05
489.512	11199.83
489.716	11056.47
489.92	10937.69
490.124	11281.75
490.328	11341.14
490.531	11113.81
490.735	11277.65
490.939	11287.89
491.143	11273.56
491.346	11117.91
491.55	11466.07
491.754	11341.14
491.958	11365.71
492.161	11523.41
492.365	11543.89
492.569	11580.75
492.772	11414.87
492.976	11670.86
493.18	11773.26
493.383	11687.25
493.587	11959.63
493.79	11918.67
493.994	11840.84
494.197	12105.03
494.401	12014.92
494.605	12025.16
494.808	12154.18
495.012	12238.15
495.215	12285.25
495.419	12330.31
495.622	12348.74
495.825	12641.6
496.029	12320.07
496.232	12737.85
496.436	12696.89
496.639	12776.77
496.843	12868.92
497.046	13178.17
497.249	13229.37
497.453	13436.21
497.656	13704.49
497.859	13667.63
498.063	13651.25
498.266	14013.74
498.469	13514.03
498.673	13866.28
498.876	14357.8
499.079	14425.38
499.282	14509.35
499.485	14728.48
499.689	14677.28
499.892	14826.78
500.095	14986.52
500.298	15344.92
500.501	15015.19
500.705	15559.95
500.908	15600.91
501.111	15793.42
501.314	15715.6
501.517	16329.99
501.72	16516.36
501.923	16006.41
502.126	16516.36
502.329	16768.26
502.532	16880.89
502.735	17153.27
502.938	17284.34
503.141	17323.26
503.344	17825.01
503.547	17616.12
503.75	18154.73
503.953	18412.78
504.156	18244.84
504.359	18607.33
504.562	18570.47
504.765	18932.96
504.968	19035.36
505.17	19324.12
505.373	19475.67
505.576	19799.25
505.779	19834.07
505.982	20114.64
506.185	20331.72
506.387	20448.46
506.59	20954.3
506.793	21046.46
506.996	20944.06
507.198	21437.62
507.401	21517.5
507.604	21890.23
507.807	22052.02
508.009	22152.37
508.212	22230.19
508.415	22815.91
508.617	22658.21
508.82	22936.74
509.022	22736.04
509.225	23436.44
509.428	23327.9
509.63	23649.43
509.833	23987.35
510.035	24458.38
510.238	24210.57
510.44	24460.43
510.643	24812.68
510.845	25177.22
511.048	24925.32
511.25	25595
511.453	25547.9
511.655	26477.68
511.858	26172.53
512.06	26569.83
512.262	26760.3
512.465	26825.83
512.667	27223.14
512.87	27516
513.072	27651.16
513.274	27964.5
513.477	27999.32
513.679	28390.48
513.881	28888.14
514.084	28935.24
514.286	29172.8
514.488	29172.8
514.69	30145.59
514.893	30106.68
515.095	29924.41
515.297	30522.41
515.499	30594.09
515.701	30938.15
515.904	31413.28
516.106	31380.51
516.308	31564.83
516.51	31814.68
516.712	31810.59
516.914	32322.58
517.116	32934.92
517.318	32848.91
517.52	32977.93
517.722	32930.83
517.925	33500.16
518.127	33850.36
518.329	33987.58
518.531	34053.11
518.733	34116.6
518.935	34755.57
519.136	34749.42
519.338	35275.75
519.54	35693.54
519.742	35625.95
519.944	35324.9
520.146	36137.94
520.348	36131.8
520.55	36494.29
520.752	36416.47
520.954	37112.78
521.155	36950.99
521.357	37489.6
521.559	37469.12
521.761	37913.53
521.963	38030.27
522.164	38011.84
522.366	37985.21
522.568	38466.49
522.77	38732.72
522.971	39121.84
523.173	38796.21
523.375	39101.36
523.576	39230.38
523.778	39007.15
523.98	39551.91
524.181	39736.23
524.383	39601.06
524.584	40158.11
524.786	39947.17
524.988	39764.9
525.189	40467.35
525.391	40385.43
525.592	40653.72
525.794	40903.57
525.995	40854.42
526.197	40735.63
526.398	41061.26
526.6	41235.34
526.801	41378.7
527.003	41309.07
527.204	41413.51
527.406	41376.65
527.607	41563.01
527.808	41829.25
528.01	41315.21
528.211	41352.07
528.412	42107.77
528.614	41743.24
528.815	41515.91
529.016	42271.61
529.218	41915.26
529.419	42128.25
529.62	42134.4
529.822	41622.4
530.023	41829.25
530.224	42109.82
530.425	41767.81
530.626	41718.66
530.828	41626.5
531.029	42707.83
531.23	41896.83
531.431	41606.02
531.632	41986.94
531.833	42068.86
532.035	42050.43
532.236	41937.79
532.437	41778.05
532.638	42025.85
532.839	42142.59
533.04	41700.23
533.241	41548.68
533.442	42267.52
533.643	41913.22
533.844	42003.33
534.045	41737.09
534.246	41419.66
534.447	41962.37
534.648	41618.31
534.849	42015.61
535.05	41206.67
535.251	41528.2
535.451	40967.05
535.652	41728.9
535.853	41468.81
536.054	41599.88
536.255	41798.53
536.456	41024.4
536.657	41976.7
536.857	41386.89
537.058	41110.41
537.259	41870.21
537.46	41724.8
537.66	41495.43
537.861	41622.4
538.062	41100.17
538.263	41380.74
538.463	41040.78
538.664	41005.97
538.865	41433.99
539.065	41419.66
539.266	40926.1
539.466	41548.68
539.667	40453.01
539.868	41442.18
540.068	41091.98
540.269	40770.45
540.469	41231.24
540.67	40547.22
540.87	40682.39
541.071	40833.94
541.271	40848.27
541.472	40545.17
541.672	40618.9
541.873	40715.15
542.073	40680.34
542.274	40883.09
542.474	40680.34
542.675	40268.7
542.875	40835.98
543.075	40536.98
543.276	40352.66
543.476	40608.66
543.676	40528.79
543.877	40682.39
544.077	40565.65
544.277	40666
544.478	40371.1
544.678	40620.95
544.878	40604.56
545.078	40700.82
545.279	40151.96
545.479	40289.18
545.679	40076.19
545.879	40174.49
546.079	40453.01
546.28	40143.77
546.48	40225.69
546.68	40977.29
546.88	40780.69
547.08	40242.07
547.28	40127.39
547.48	40190.87
547.68	40498.07
547.88	40258.46
548.081	40379.29
548.281	40594.32
548.481	40438.68
548.681	40551.32
548.881	40260.51
549.081	40360.86
549.28	39869.34
549.48	40487.83
549.68	40231.83
549.88	40799.12
550.08	39633.83
550.28	40416.15
550.48	40348.57
550.68	40764.31
550.88	40102.81
551.08	40215.45
551.279	40713.11
551.479	40090.52
551.679	40061.85
551.879	40229.79
552.079	40467.35
552.278	40600.47
552.478	40307.61
552.678	40805.27
552.878	40815.51
553.077	40438.68
553.277	40061.85
553.477	41188.24
553.676	40274.84
553.876	40788.88
554.076	40536.98
554.275	40373.14
554.475	40154.01
554.674	40848.27
554.874	40907.66
555.074	40455.06
555.273	40633.24
555.473	40668.05
555.672	40379.29
555.872	40604.56
556.071	40485.78
556.271	40608.66
556.47	40541.08
556.67	40205.21
556.869	40471.45
557.068	40706.96
557.268	40287.13
557.467	40291.23
557.667	40332.18
557.866	40285.08
558.065	40432.54
558.265	40016.8
558.464	40352.66
558.663	40965.01
558.863	40412.06
559.062	41087.89
559.261	40186.78
559.461	40608.66
559.66	40203.16
559.859	40498.07
560.058	40244.12
560.258	40811.41
560.457	40442.77
560.656	40749.97
560.855	40326.04
561.054	40672.15
561.253	40201.11
561.453	40479.64
561.652	40436.63
561.851	40403.86
562.05	40299.42
562.249	40442.77
562.448	40749.97
562.647	40248.22
562.846	40455.06
563.045	40012.7
563.244	39482.28
563.443	40846.22
563.642	39746.47
563.841	39881.63
564.04	39728.03
564.239	40002.46
564.438	39979.93
564.637	40262.55
564.836	40418.2
565.035	39529.38
565.234	39850.91
565.432	39486.37
565.631	39596.96
565.83	40141.72
566.029	39494.57
566.228	39422.89
566.427	39594.92
566.625	39289.77
566.824	39168.94
567.023	39445.41
567.222	39011.24
567.42	39576.48
567.619	39371.69
567.818	39232.43
568.016	38947.76
568.215	39463.85
568.414	38941.61
568.612	39713.7
568.811	39080.88
569.01	39664.55
569.208	38370.23
569.407	38972.33
569.605	38652.85
569.804	38800.3
570.002	38452.15
570.201	38489.01
570.4	38056.89
570.598	38300.6
570.797	37874.62
570.995	38501.3
571.193	37514.18
571.392	38550.45
571.59	38202.3
571.789	38116.28
571.987	37753.79
572.186	37678.02
572.384	37972.92
572.582	37794.75
572.781	37501.89
572.979	37356.49
573.177	37438.4
573.376	37567.43
573.574	37366.73
573.772	37409.73
573.971	37260.23
574.169	37094.35
574.367	37137.35
574.565	37225.42
574.763	36608.98
574.962	37075.91
575.16	36393.94
575.358	36774.86
575.556	36144.09
575.754	36725.71
575.952	36228.06
576.151	36285.4
576.349	35951.58
576.547	35853.28
576.745	35884
576.943	36015.07
577.141	35818.46
577.339	36021.21
577.537	35941.34
577.735	35636.19
577.933	35482.59
578.131	35851.23
578.329	35359.72
578.527	35374.05
578.725	35634.14
578.923	35148.78
579.121	35216.36
579.319	35126.25
579.516	35062.76
579.714	35232.74
579.912	35169.26
580.11	34718.7
580.308	34778.09
580.506	34728.94
580.704	33971.19
580.901	34393.08
581.099	34567.15
581.297	34049.02
581.495	34102.26
581.692	34348.02
581.89	34145.27
582.088	34407.41
582.285	33659.9
582.483	33973.24
582.681	33932.28
582.878	33397.76
583.076	33389.57
583.274	33684.48
583.471	33403.91
583.669	33629.18
583.866	32740.36
584.064	33514.5
584.262	32986.12
584.459	33330.18
584.657	33389.57
584.854	33082.38
585.052	32779.28
585.249	33041.42
585.447	32930.83
585.644	32617.49
585.841	32482.32
586.039	32683.02
586.236	32562.19
586.434	32238.61
586.631	32138.26
586.828	32414.74
587.026	32152.6
587.223	31988.76
587.42	31988.76
587.618	31757.34
587.815	31849.5
588.012	31966.23
588.21	31691.8
588.407	31984.66
588.604	31648.8
588.801	31546.4
588.999	31593.5
589.196	31747.1
589.393	31243.3
589.59	31140.9
589.787	31292.45
589.984	31036.45
590.182	30815.27
590.379	31044.65
590.576	30516.27
590.773	30839.85
590.97	30823.47
591.167	31165.48
591.364	30116.92
591.561	30444.59
591.758	30456.88
591.955	30616.62
592.152	30606.38
592.349	30372.91
592.546	30172.21
592.743	30364.72
592.94	30012.47
593.137	30503.98
593.334	30125.11
593.531	29961.27
593.727	30362.67
593.924	30135.35
594.121	29758.52
594.318	30016.57
594.515	29332.54
594.712	29594.68
594.908	29541.44
595.105	29875.26
595.302	29987.89
595.499	29803.58
595.696	29254.72
595.892	29295.68
596.089	29561.92
596.286	29545.53
596.482	29158.47
596.679	29256.77
596.876	29660.22
597.072	29340.74
597.269	29275.2
597.466	28982.34
597.662	29267.01
597.859	29215.81
598.055	29056.07
598.252	28898.38
598.448	28785.74
598.645	28886.09
598.841	28695.63
599.038	28869.7
599.234	29094.98
599.431	28433.49
599.627	28501.07
599.824	28814.41
600.02	28697.67
600.217	28613.71
600.413	28650.57
600.609	28441.68
600.806	28515.4
601.002	28572.75
601.198	28730.44
601.395	28380.24
601.591	28163.15
601.787	28247.12
601.984	27976.79
602.18	28945.48
602.376	28365.9
602.572	28128.34
602.769	28296.27
602.965	28136.53
603.161	28329.04
603.357	28175.44
603.553	28427.34
603.75	28222.55
603.946	28224.59
604.142	28267.6
604.338	28021.84
604.534	28185.68
604.73	27874.39
604.926	27679.83
605.122	28339.28
605.318	27898.97
605.514	27829.34
605.71	27573.34
605.906	27841.62
606.102	28197.97
606.298	28093.52
606.494	27747.42
606.69	28116.05
606.886	28030.04
607.082	28093.52
607.278	28003.41
607.474	27694.17
607.67	28056.66
607.866	27915.35
608.062	28007.51
608.257	27690.07
608.453	27976.79
608.649	27966.55
608.845	27718.75
609.041	27999.32
609.236	27987.03
609.432	27978.84
609.628	28032.08
609.824	28048.47
610.019	27810.9
610.215	27851.86
610.411	28171.35
610.606	28066.9
610.802	28032.08
610.998	27798.62
611.193	28079.19
611.389	27843.67
611.584	27980.89
611.78	27593.82
611.976	28099.67
612.171	28202.07
612.367	28003.41
612.562	27651.16
612.758	27645.02
612.953	27706.46
613.149	28238.93
613.344	27622.49
613.539	28021.84
613.735	28197.97
613.93	28009.56
614.126	27905.11
614.321	28003.41
614.517	27907.16
614.712	27696.22
614.907	27358.3
615.103	27958.36
615.298	27581.53
615.493	27778.14
615.688	27534.43
615.884	27911.25
616.079	27286.62
616.274	27743.32
616.47	27651.16
616.665	27690.07
616.86	27614.3
617.055	27835.48
617.25	27546.72
617.445	27829.34
617.641	27360.35
617.836	27907.16
618.031	27194.47
618.226	27589.72
618.421	27090.02
618.616	27206.75
618.811	26977.38
619.006	27401.31
619.201	26770.54
619.396	26694.76
619.591	26969.19
619.786	27112.55
619.981	26457.2
620.176	26735.72
620.371	26344.56
620.566	26635.37
620.761	26563.69
620.956	26635.37
621.151	26074.23
621.346	26231.92
621.541	25967.73
621.735	25967.73
621.93	25859.19
622.125	25984.12
622.32	25584.76
622.515	25592.95
622.709	25410.68
622.904	25480.32
623.099	25361.53
623.294	25142.4
623.488	24829.06
623.683	24728.71
623.878	24724.61
624.072	24958.08
624.267	24790.15
624.462	24917.12
624.656	24192.14
624.851	24335.5
625.046	24335.5
625.24	24439.95
625.435	23940.24
625.629	23936.15
625.824	23784.6
626.018	23774.36
626.213	22838.44
626.407	23264.41
626.602	23108.77
626.796	23395.48
626.991	23356.57
627.185	22756.52
627.38	22949.03
627.574	22578.34
627.768	22443.18
627.963	22506.66
628.157	22496.42
628.352	22359.21
628.546	21959.86
628.74	22133.93
628.935	22430.89
629.129	22164.65
629.323	22140.08
629.517	21642.42
629.712	21429.43
629.906	21374.14
630.1	21193.92
630.294	21300.41
630.489	21042.37
630.683	21009.6
630.877	20847.81
631.071	20587.72
631.265	20911.3
631.459	20739.27
631.653	20518.09
631.848	20593.86
632.042	20233.42
632.236	20292.81
632.43	20206.8
632.624	20100.3
632.818	19825.87
633.012	19633.36
633.206	19770.58
633.4	19795.15
633.594	19274.97
633.788	19557.59
633.982	19750.1
634.176	19508.44
634.369	19473.62
634.563	19031.26
634.757	19254.49
634.951	18865.38
635.145	19242.2
635.339	18945.25
635.533	18535.65
635.726	18676.96
635.92	18429.16
636.114	18498.79
636.308	18300.14
636.501	18420.97
636.695	18076.91
636.889	17984.75
637.083	17990.89
637.276	17984.75
637.47	17798.38
637.664	17751.28
637.857	17650.93
638.051	17591.54
638.244	17177.85
638.438	17423.61
638.632	17345.78
638.825	16872.7
639.019	16983.29
639.212	16948.48
639.406	16825.6
639.599	16989.44
639.793	16882.94
639.986	16686.34
640.18	16383.24
640.373	16446.73
640.567	16272.65
640.76	16401.67
640.954	16108.81
641.147	16020.75
641.34	15889.68
641.534	15711.5
641.727	15899.92
641.92	15885.58
642.114	15672.59
642.307	15385.88
642.5	15336.73
642.694	15441.17
642.887	15021.34
643.08	15158.55
643.273	15219.99
643.467	15000.86
643.66	14785.82
643.853	14843.17
644.046	14687.52
644.239	14675.23
644.432	14517.54
644.626	14400.8
644.819	14185.77
645.012	14468.39
645.205	14441.76
645.398	14243.11
645.591	14226.73
645.784	14013.74
645.977	14046.51
646.17	13712.69
646.363	13747.5
646.556	13468.98
646.749	13675.82
646.942	13659.44
647.135	13614.38
647.328	13489.46
647.521	13448.5
647.714	13174.07
647.907	13215.03
648.099	13034.81
648.292	13360.44
648.485	13149.5
648.678	12811.58
648.871	12887.36
649.064	12744
649.256	12899.64
649.449	12625.22
649.642	12641.6
649.835	12428.61
650.027	12373.32
650.22	12430.66
650.413	12252.49
650.605	12256.58
650.798	12395.84
650.991	11920.71
651.183	11881.8
651.376	11990.35
651.568	11930.95
651.761	11926.86
651.954	11902.28
652.146	11687.25
652.339	11664.72
652.531	11494.74
652.724	11466.07
652.916	11316.56
653.109	11515.22
653.301	11470.16
653.494	11418.96
653.686	11175.25
653.879	11355.47
654.071	11228.5
654.263	11140.44
654.456	11103.57
654.648	11138.39
654.84	10904.92
655.033	10966.36
655.225	10722.65
655.417	10769.76
655.61	10714.46
655.802	10808.67
655.994	10446.18
656.186	10515.81
656.379	10507.62
656.571	10532.19
656.763	10229.09
656.955	10069.35
657.148	10405.22
657.34	10098.02
657.532	10001.77
657.724	10220.9
657.916	10155.37
658.108	10028.39
658.3	9928.04
658.492	9954.66
658.684	9977.19
658.876	9872.75
659.068	9622.89
659.26	9647.47
659.452	9811.31
659.644	9655.66
659.836	9444.72
660.028	9477.49
660.22	9233.78
660.412	9508.21
660.604	9217.4
660.796	9067.89
660.988	9278.83
661.18	9086.33
661.372	9000.31
661.563	9180.53
661.755	9076.09
661.947	9057.65
662.139	8895.86
662.331	8801.66
662.522	8740.22
662.714	8813.95
662.906	8799.61
663.097	8672.64
663.289	8775.03
663.481	8508.8
663.673	8598.91
663.864	8385.92
664.056	8230.27
664.247	8357.25
664.439	8336.77
664.631	8412.54
664.822	8379.78
665.014	8160.64
665.205	8168.84
665.397	8142.21
665.588	8232.32
665.78	8058.25
665.971	7978.37
666.163	8220.03
666.354	8035.72
666.546	8041.86
666.737	7749
666.929	7835.02
667.12	7869.83
667.311	7746.95
667.503	7495.05
667.694	7527.82
667.885	7576.97
668.077	7679.37
668.268	7576.97
668.459	7546.25
668.651	7634.32
668.842	7470.48
669.033	7249.3
669.224	7300.5
669.416	7429.52
669.607	7230.87
669.798	7495.05
669.989	7347.6
670.18	7280.02
670.371	7093.65
670.563	7239.06
670.754	7216.53
670.945	6923.67
671.136	7107.99
671.327	6935.96
671.518	7257.49
671.709	7067.03
671.9	7134.61
672.091	7091.6
672.282	6903.19
672.473	6759.83
672.664	6886.81
672.855	6872.47
673.046	6849.94
673.237	6716.83
673.428	6610.33
673.619	6641.05
673.809	6665.63
674	6636.95
674.191	6667.67
674.382	6653.34
674.573	6483.36
674.764	6432.16
674.954	6669.72
675.145	6526.36
675.336	6370.72
675.527	6540.7
675.717	6477.21
675.908	6403.49
676.099	6413.73
676.289	6358.43
676.48	6321.57
676.671	6292.9
676.861	6329.76
677.052	6329.76
677.243	6161.83
677.433	6084
677.624	6266.27
677.814	6165.92
678.005	6153.63
678.195	6243.74
678.386	6204.83
678.576	6167.97
678.767	6176.16
678.957	6053.28
679.148	6108.58
679.338	5971.36
679.529	6006.18
679.719	6104.48
679.909	6094.24
680.1	5903.78
680.29	5924.26
680.481	6104.48
680.671	6137.25
680.861	6010.28
681.052	6174.11
681.242	6004.13
681.432	6067.62
681.622	5789.1
681.813	5928.36
682.003	5840.29
682.193	5944.74
682.383	5893.54
682.573	5846.44
682.764	5801.38
682.954	5842.34
683.144	5914.02
683.334	5645.74
683.524	5768.62
683.714	5723.56
683.904	5727.66
684.094	5772.71
684.284	5764.52
684.474	5633.45
684.664	5811.62
684.854	5682.6
685.044	5559.72
685.234	5518.76
685.424	5619.11
685.614	5633.45
685.804	5539.24
685.994	5627.31
686.184	5526.96
686.374	5367.21
686.564	5526.96
686.753	5539.24
686.943	5406.13
687.133	5555.63
687.323	5520.81
687.513	5346.73
687.702	5201.33
687.892	5322.16
688.082	5402.03
688.272	5404.08
688.461	5250.48
688.651	5336.49
688.841	5309.87
689.03	5193.14
689.22	5211.57
689.41	5225.9
689.599	5129.65
689.789	5166.51
689.979	5098.93
690.168	5164.47
690.358	5103.03
690.547	5076.4
690.737	5023.16
690.926	5191.09
691.116	4912.57
691.305	5006.77
691.495	5158.32
691.684	4941.24
691.874	4957.62
692.063	4949.43
692.252	4922.8
692.442	4916.66
692.631	4806.07
692.82	4959.67
693.01	4834.74
693.199	4953.52
693.388	4652.47
693.578	4709.82
693.767	4750.78
693.956	4748.73
694.146	4668.86
694.335	4640.19
694.524	4584.89
694.713	4683.19
694.902	4584.89
695.092	4748.73
695.281	4584.89
695.47	4609.47
695.659	4425.15
695.848	4597.18
696.037	4472.25
696.226	4541.88
696.415	4511.16
696.604	4554.17
696.793	4496.83
696.982	4550.07
697.171	4425.15
697.36	4445.63
697.549	4373.95
697.738	4216.26
697.927	4414.91
698.116	4273.6
698.305	4554.17
698.494	4298.17
698.683	4306.37
698.872	4273.6
699.061	4228.54
699.25	4363.71
699.438	4445.63
699.627	4175.3
699.816	4294.08
700.005	4263.36
700.193	4076.99
700.382	4296.13
700.571	4253.12
700.76	4183.49
700.948	4259.26
701.137	4083.14
701.326	4150.72
701.514	4193.73
701.703	4222.4
701.892	4138.43
702.08	4060.61
702.269	4048.32
702.457	3896.77
702.646	3937.73
702.834	4126.15
703.023	3898.82
703.212	3962.31
703.4	3880.39
703.589	3851.72
703.777	3937.73
703.965	3927.49
704.154	3872.2
704.342	3847.62
704.531	3847.62
704.719	3859.91
704.907	3892.68
705.096	3841.48
705.284	3884.48
705.472	3882.44
705.661	3786.18
705.849	3831.24
706.037	3849.67
706.226	3741.13
706.414	3753.41
706.602	3610.06
706.79	3683.78
706.979	3687.88
707.167	3698.12
707.355	3622.34
707.543	3616.2
707.731	3761.61
707.919	3614.15
708.107	3552.71
708.296	3655.11
708.484	3612.1
708.672	3610.06
708.86	3712.46
709.048	3644.87
709.236	3560.91
709.424	3567.05
709.612	3560.91
709.8	3429.84
709.988	3374.54
710.176	3577.29
710.364	3562.95
710.551	3474.89
710.739	3419.6
710.927	3423.69
711.115	3513.8
711.303	3319.25
711.491	3384.78
711.679	3286.48
711.866	3440.08
712.054	3339.73
712.242	3227.09
712.43	3352.01
712.617	3339.73
712.805	3319.25
712.993	3177.94
713.181	3313.1
713.368	3302.86
713.556	3315.15
713.744	3143.12
713.931	3317.2
714.119	3374.54
714.306	3126.74
714.494	3143.12
714.682	3036.63
714.869	3239.37
715.057	3268.05
715.244	3061.2
715.432	3266
715.619	3169.74
715.807	3214.8
715.994	3065.3
716.182	3053.01
716.369	3018.19
716.556	3134.93
716.744	3032.53
716.931	3102.16
717.119	3048.91
717.306	3007.95
717.493	3079.63
717.681	3030.48
717.868	2973.14
718.055	3065.3
718.242	2944.47
718.43	3065.3
718.617	3018.19
718.804	2819.54
718.991	2946.52
719.179	3012.05
719.366	2960.85
719.553	2799.06
719.74	2956.75
719.927	2858.45
720.114	2854.36
720.301	2846.16
720.488	2766.29
720.676	2776.53
720.863	2831.83
721.05	2899.41
721.237	2813.4
721.424	2827.73
721.611	2704.85
721.798	2696.66
721.985	2672.09
722.172	2766.29
722.358	2807.25
722.545	2803.16
722.732	2782.68
722.919	2680.28
723.106	2749.91
723.293	2692.57
723.48	2602.46
723.667	2670.04
723.853	2661.85
724.04	2639.32
724.227	2670.04
724.414	2684.38
724.6	2590.17
724.787	2577.88
724.974	2676.18
725.161	2620.89
725.347	2618.84
725.534	2479.58
725.72	2674.14
725.907	2514.39
726.094	2479.58
726.28	2565.59
726.467	2573.78
726.653	2455
726.84	2598.36
727.027	2659.8
727.213	2479.58
727.4	2622.94
727.586	2581.98
727.773	2407.9
727.959	2414.04
728.145	2487.77
728.332	2418.14
728.518	2409.95
728.705	2397.66
728.891	2477.53
729.077	2389.47
729.264	2391.52
729.45	2479.58
729.636	2270.69
729.823	2356.7
730.009	2428.38
730.195	2455
730.382	2448.86
730.568	2373.08
730.754	2325.98
730.94	2401.76
731.126	2299.36
731.313	2385.37
731.499	2356.7
731.685	2397.66
731.871	2317.79
732.057	2391.52
732.243	2340.32
732.429	2348.51
732.615	2340.32
732.801	2350.56
732.987	2356.7
733.173	2352.6
733.359	2221.53
733.545	2287.07
733.731	2217.44
733.917	2268.64
734.103	2338.27
734.289	2203.1
734.475	2104.8
734.661	2248.16
734.847	2217.44
735.033	2176.48
735.219	2153.95
735.404	2201.05
735.59	2180.57
735.776	2119.14
735.962	2104.8
736.148	2151.9
736.333	2217.44
736.519	2211.29
736.705	2086.37
736.89	2119.14
737.076	2162.14
737.262	2143.71
737.447	2045.41
737.633	2188.77
737.819	2147.81
738.004	2115.04
738.19	2020.83
738.375	2121.18
738.561	1988.07
738.747	2129.38
738.932	1918.43
739.118	2104.8
739.303	2012.64
739.489	2129.38
739.674	1926.63
739.859	1889.76
740.045	2000.35
740.23	2065.89
740.416	1975.78
740.601	1828.32
740.786	1914.34
740.972	1861.09
741.157	1934.82
741.342	1930.72
741.528	1840.61
741.713	1949.15
741.898	1979.87
742.084	1867.24
742.269	1877.48
742.454	1881.57
742.639	1809.89
742.824	1791.46
743.01	1930.72
743.195	1947.11
743.38	1807.84
743.565	1820.13
743.75	1881.57
743.935	1807.84
744.12	1779.17
744.305	1779.17
744.49	1850.85
744.675	1684.97
744.86	1826.28
745.045	1793.51
745.23	1742.31
745.415	1742.31
745.6	1738.21
745.785	1713.64
745.97	1707.49
746.155	1766.89
746.34	1750.5
746.525	1676.77
746.71	1756.65
746.895	1629.67
747.079	1662.44
747.264	1619.43
747.449	1594.86
747.634	1613.29
747.819	1668.58
748.003	1676.77
748.188	1547.75
748.373	1627.62
748.557	1517.03
748.742	1676.77
748.927	1547.75
749.111	1512.94
749.296	1572.33
749.481	1537.51
749.665	1498.6
749.85	1433.07
750.034	1439.21
750.219	1377.77
750.404	1535.46
750.588	1484.27
750.773	1488.36
750.957	1431.02
751.141	1367.53
751.326	1414.63
751.51	1474.03
751.695	1375.72
751.879	1457.64
752.064	1357.29
752.248	1402.35
752.432	1310.19
752.617	1422.83
752.801	1367.53
752.985	1306.09
753.17	1414.63
753.354	1316.33
753.538	1285.61
753.722	1334.76
753.907	1318.38
754.091	1222.13
754.275	1277.42
754.459	1254.89
754.643	1226.22
754.828	1148.4
755.012	1250.8
755.196	1197.55
755.38	1228.27
755.564	1179.12
755.748	1218.03
755.932	1162.73
756.116	1168.88
756.3	1168.88
756.484	1066.48
756.668	1189.36
756.852	1158.64
757.036	1095.15
757.22	1080.82
757.404	1078.77
757.588	1058.29
757.772	1048.05
757.956	1021.42
758.14	1144.3
758.323	1084.91
758.507	1064.43
758.691	1046
758.875	1013.23
759.059	1132.01
759.242	1033.71
759.426	1037.81
759.61	1009.14
759.794	1021.42
759.977	1043.95
760.161	1146.35
760.345	949.75
760.528	1046
760.712	931.31
760.895	996.85
761.079	972.27
761.263	910.83
761.446	1037.81
761.63	1064.43
761.813	996.85
761.997	939.51
762.18	914.93
762.364	857.59
762.547	925.17
762.731	865.78
762.914	941.55
763.098	941.55
763.281	976.37
763.464	1009.14
763.648	1021.42
763.831	951.79
764.015	837.11
764.198	955.89
764.381	949.75
764.564	849.4
764.748	914.93
764.931	890.35
765.114	882.16
765.297	984.56
765.481	882.16
765.664	892.4
765.847	810.48
766.03	843.25
766.213	783.86
766.397	908.79
766.58	790
766.763	927.22
766.946	816.63
767.129	849.4
767.312	800.24
767.495	857.59
767.678	742.9
767.861	906.74
768.044	880.11
768.227	759.28
768.41	763.38
768.593	865.78
768.776	830.96
768.959	751.09
769.142	865.78
769.324	904.69
769.507	783.86
769.69	761.33
769.873	841.2
770.056	802.29
770.239	894.45
770.421	804.34
770.604	800.24
770.787	749.04
770.97	779.76
771.152	796.15
771.335	835.06
771.518	767.48
771.7	835.06
771.883	759.28
772.066	722.42
772.248	800.24
772.431	790
772.613	734.71
772.796	769.52
772.978	652.79
773.161	779.76
773.343	665.08
773.526	726.52
773.708	720.37
773.891	697.85
774.073	767.48
774.256	734.71
774.438	794.1
774.621	622.07
774.803	751.09
774.985	648.69
775.168	679.41
775.35	646.65
775.532	681.46
775.715	636.41
775.897	660.98
776.079	740.85
776.261	706.04
776.444	558.58
776.626	677.37
776.808	587.26
776.99	611.83
777.173	605.69
777.355	660.98
777.537	536.06
777.719	636.41
777.901	675.32
778.083	570.87
778.265	595.45
778.447	677.37
778.629	548.34
778.811	607.73
778.993	597.49
779.175	572.92
779.357	531.96
779.539	509.43
779.721	556.54
779.903	554.49
780.085	515.58
780.267	554.49
780.449	515.58
780.631	556.54
780.812	564.73
780.994	499.19
781.176	472.57
781.358	536.06
781.54	407.03
781.721	648.69
781.903	470.52
782.085	497.14
782.267	550.39
782.448	458.23
782.63	493.05
782.812	464.38
782.993	505.34
783.175	466.42
783.357	447.99
783.538	505.34
783.72	464.38
783.901	499.19
784.083	419.32
784.264	466.42
784.446	433.66
784.627	376.31
784.809	433.66
784.99	384.51
785.172	396.79
785.353	392.7
785.535	443.9
785.716	450.04
785.897	402.94
786.079	464.38
786.26	353.79
786.441	359.93
786.623	312.83
786.804	345.59
786.985	355.83
787.167	361.98
787.348	396.79
787.529	376.31
787.71	521.72
787.891	351.74
788.073	452.09
788.254	316.92
788.435	396.79
788.616	441.85
788.797	370.17
788.978	302.59
789.159	288.25
789.34	390.65
789.522	312.83
789.703	278.01
789.884	384.51
790.065	341.5
790.246	386.55
790.427	345.59
790.607	390.65
790.788	429.56
790.969	278.01
791.15	368.12
791.331	376.31
791.512	296.44
791.693	384.51
791.874	302.59
792.054	349.69
792.235	380.41
792.416	292.35
792.597	284.16
792.778	210.43
792.958	302.59
793.139	286.2
793.32	316.92
793.5	194.05
793.681	265.72
793.862	302.59
794.042	259.58
794.223	314.88
794.404	239.1
794.584	196.09
794.765	337.4
794.945	239.1
795.126	349.69
795.306	263.68
795.487	245.24
795.667	210.43
795.848	300.54
796.028	275.96
796.209	243.2
796.389	280.06
796.57	235
796.75	206.33
796.93	239.1
797.111	286.2
797.291	308.73
797.471	292.35
797.652	267.77
797.832	251.39
798.012	335.35
798.192	243.2
798.373	212.48
798.553	284.16
798.733	255.48
798.913	300.54
799.093	116.22
799.274	263.68
799.454	235
799.634	232.96
799.814	261.63
799.994	239.1
800.174	273.92
800.354	189.95
800.534	210.43
800.714	329.21
800.894	267.77
801.074	218.62
801.254	210.43
801.434	224.76
801.614	173.57
801.794	185.85
801.974	783.86
802.154	126.46
802.334	255.48
802.514	134.65
802.693	228.86
802.873	194.05
803.053	239.1
803.233	226.81
803.413	142.85
803.592	177.66
803.772	189.95
803.952	169.47
804.131	136.7
804.311	177.66
804.491	243.2
804.67	171.52
804.85	161.28
805.03	222.72
805.209	181.76
805.389	173.57
805.568	128.51
805.748	144.89
805.928	194.05
806.107	179.71
806.287	226.81
806.466	220.67
806.646	136.7
806.825	206.33
807.004	175.61
807.184	132.61
807.363	138.75
807.543	112.13
807.722	130.56
807.901	148.99
808.081	218.62
808.26	138.75
808.439	148.99
808.619	173.57
808.798	151.04
808.977	171.52
809.156	130.56
809.336	144.89
809.515	239.1
809.694	163.33
809.873	144.89
810.052	155.13
810.231	243.2
810.411	153.09
810.59	222.72
810.769	163.33
810.948	222.72
811.127	130.56
811.306	120.32
811.485	89.6
811.664	214.52
811.843	116.22
812.022	73.21
812.201	151.04
812.38	144.89
812.559	163.33
812.737	142.85
812.916	122.37
813.095	93.69
813.274	112.13
813.453	167.42
813.632	187.9
813.811	148.99
813.989	46.59
814.168	81.41
814.347	85.5
814.526	71.17
814.704	95.74
814.883	146.94
815.062	58.88
815.24	185.85
815.419	42.5
815.598	120.32
815.776	75.26
815.955	155.13
816.133	22.02
816.312	202.24
816.49	128.51
816.669	108.03
816.847	124.41
817.026	108.03
817.204	177.66
817.383	89.6
817.561	54.78
817.74	173.57
817.918	126.46
818.097	38.4
818.275	77.31
818.453	87.55
818.632	103.93
818.81	56.83
818.988	128.51
819.167	87.55
819.345	144.89
819.523	153.09
819.701	114.17
819.879	144.89
820.058	136.7
820.236	62.98
820.414	85.5
820.592	85.5
820.77	103.93
820.948	103.93
821.127	110.08
821.305	151.04
821.483	38.4
821.661	230.91
821.839	103.93
822.017	91.65
822.195	112.13
822.373	73.21
822.551	132.61
822.729	169.47
822.907	122.37
823.085	136.7
823.262	112.13
823.44	87.55
823.618	24.06
823.796	116.22
823.974	136.7
824.152	36.35
824.329	65.02
824.507	81.41
824.685	132.61
824.863	89.6
825.04	169.47
825.218	138.75
825.396	30.21
825.574	95.74
825.751	103.93
825.929	116.22
826.107	91.65
826.284	34.3
826.462	116.22
826.639	75.26
826.817	26.11
826.994	130.56
827.172	34.3
827.349	185.85
827.527	30.21
827.704	163.33
827.882	97.79
828.059	120.32
828.237	65.02
828.414	46.59
828.591	48.64
828.769	34.3
828.946	99.84
829.124	46.59
829.301	165.37
829.478	48.64
829.655	67.07
829.833	48.64
830.01	79.36
830.187	46.59
830.364	95.74
830.542	75.26
830.719	105.98
830.896	40.45
831.073	165.37
831.25	73.21
831.427	69.12
831.604	114.17
831.782	91.65
831.959	71.17
832.136	38.4
832.313	75.26
832.49	114.17
832.667	26.11
832.844	54.78
833.021	32.26
833.198	17.92
833.374	120.32
833.551	58.88
833.728	58.88
833.905	112.13
834.082	7.68
834.259	83.45
834.436	79.36
834.612	-16.9
834.789	50.69
834.966	105.98
835.143	112.13
835.319	24.06
835.496	54.78
835.673	91.65
835.85	48.64
836.026	50.69
836.203	40.45
836.38	46.59
836.556	62.98
836.733	48.64
836.909	71.17
837.086	-2.56
837.262	52.74
837.439	103.93
837.616	40.45
837.792	46.59
837.968	54.78
838.145	48.64
838.321	1.54
838.498	67.07
838.674	67.07
838.851	13.82
839.027	56.83
839.203	62.98
839.38	148.99
839.556	112.13
839.732	99.84
839.909	22.02
840.085	99.84
840.261	42.5
840.437	65.02
840.614	15.87
840.79	93.69
840.966	103.93
841.142	32.26
841.318	52.74
841.494	13.82
841.671	112.13
841.847	26.11
842.023	65.02
842.199	95.74
842.375	60.93
842.551	34.3
842.727	71.17
842.903	122.37
843.079	-18.94
843.255	42.5
843.431	7.68
843.607	69.12
843.783	-55.81
843.959	38.4
844.134	44.54
844.31	26.11
844.486	-27.14
844.662	7.68
844.838	5.63
845.013	71.17
845.189	30.21
845.365	73.21
845.541	11.78
845.716	19.97
845.892	56.83
846.068	11.78
846.244	24.06
846.419	-18.94
846.595	-43.52
846.77	13.82
846.946	42.5
847.122	36.35
847.297	54.78
847.473	30.21
847.648	-49.66
847.824	62.98
847.999	-43.52
848.175	22.02
848.35	50.69
848.526	116.22
848.701	38.4
848.876	130.56
849.052	26.11
849.227	79.36
849.403	-31.23
849.578	24.06
849.753	-35.33
849.929	30.21
850.104	17.92
850.279	38.4
850.454	32.26
850.63	54.78
850.805	17.92
850.98	11.78
851.155	9.73
851.33	-0.51
851.505	26.11
851.681	46.59
851.856	42.5
852.031	91.65
852.206	1.54
852.381	38.4
852.556	48.64
852.731	-6.66
852.906	93.69
853.081	62.98
853.256	-12.8
853.431	28.16
853.606	-41.47
853.781	19.97
853.956	9.73
854.131	81.41
854.305	26.11
854.48	17.92
854.655	-4.61
854.83	73.21
855.005	38.4
855.18	79.36
855.354	54.78
855.529	-0.51
855.704	24.06
855.879	17.92
856.053	-86.53
856.228	-18.94
856.403	-2.56
856.577	15.87
856.752	-57.86
856.926	7.68
857.101	-82.43
857.276	-6.66
857.45	-10.75
857.625	65.02
857.799	-0.51
857.974	24.06
858.148	13.82
858.323	42.5
858.497	-16.9
858.672	46.59
858.846	-35.33
859.02	81.41
859.195	-51.71
859.369	-10.75
859.543	79.36
859.718	-64
859.892	-23.04
860.066	38.4
860.241	-43.52
860.415	73.21
860.589	28.16
860.763	38.4
860.938	-10.75
861.112	48.64
861.286	46.59
861.46	40.45
861.634	-55.81
861.808	50.69
861.982	46.59
862.157	-31.23
862.331	17.92
862.505	15.87
862.679	-72.19
862.853	28.16
863.027	-8.7
863.201	17.92
863.375	-45.57
863.549	-0.51
863.722	19.97
863.896	22.02
864.07	54.78
864.244	-0.51
864.418	75.26
864.592	50.69
864.766	48.64
864.939	1.54
865.113	-94.72
865.287	87.55
865.461	-49.66
865.634	60.93
865.808	9.73
865.982	30.21
866.156	1.54
866.329	-51.71
866.503	-16.9
866.676	-18.94
866.85	34.3
867.024	15.87
867.197	22.02
867.371	32.26
867.544	17.92
867.718	1.54
867.891	91.65
868.065	-18.94
868.238	34.3
868.412	95.74
868.585	17.92
868.759	65.02
868.932	-74.24
869.105	-18.94
869.279	17.92
869.452	-18.94
869.625	17.92
869.799	42.5
869.972	-18.94
870.145	42.5
870.319	56.83
870.492	-20.99
870.665	-53.76
870.838	-76.29
871.011	-0.51
871.185	-2.56
871.358	40.45
871.531	-27.14
871.704	-20.99
871.877	30.21
872.05	-29.18
872.223	38.4
872.396	-6.66
872.569	52.74
872.742	17.92
872.915	26.11
873.088	13.82
873.261	40.45
873.434	9.73
873.607	-41.47
873.78	38.4
873.953	30.21
874.126	13.82
874.299	48.64
874.471	-55.81
874.644	-33.28
874.817	24.06
874.99	91.65
875.163	-14.85
875.335	50.69
875.508	-8.7
875.681	26.11
875.853	11.78
876.026	5.63
876.199	75.26
876.371	-8.7
876.544	-57.86
876.717	3.58
876.889	-2.56
877.062	17.92
877.234	-27.14
877.407	48.64
877.579	30.21
877.752	22.02
877.924	17.92
878.097	71.17
878.269	5.63
878.442	30.21
878.614	-16.9
878.786	95.74
878.959	15.87
879.131	54.78
879.303	-57.86
879.476	-68.09
879.648	3.58
879.82	112.13
879.993	-35.33
880.165	24.06
880.337	24.06
880.509	108.03
880.681	-18.94
880.854	48.64
881.026	30.21
881.198	38.4
881.37	46.59
881.542	-35.33
881.714	-59.9
881.886	5.63
882.058	50.69
882.23	54.78
882.402	62.98
882.574	-6.66
882.746	13.82
882.918	-23.04
883.09	-10.75
883.262	54.78
883.434	-61.95
883.606	-82.43
883.778	32.26
883.95	36.35
884.122	26.11
884.293	73.21
884.465	15.87
884.637	-43.52
884.809	26.11
884.98	-23.04
885.152	38.4
885.324	34.3
885.496	-35.33
885.667	-0.51
885.839	-2.56
886.011	-25.09
886.182	28.16
886.354	62.98
886.525	-23.04
886.697	13.82
886.869	-37.38
887.04	15.87
887.212	-35.33
887.383	9.73
887.555	-8.7
887.726	38.4
887.897	-20.99
888.069	36.35
888.24	-57.86
888.412	34.3
888.583	-61.95
888.754	3.58
888.926	19.97
889.097	36.35
889.268	22.02
889.44	1.54
889.611	-111.1
889.782	1.54
889.953	-47.62
890.125	-16.9
890.296	-43.52
890.467	-29.18
890.638	15.87
890.809	-78.33
890.98	-14.85
891.151	15.87
891.323	42.5
891.494	-25.09
891.665	-27.14
891.836	-6.66
892.007	-33.28
892.178	-25.09
892.349	-31.23
892.52	-35.33
892.691	24.06
892.862	81.41
893.032	-51.71
893.203	-27.14
893.374	-80.38
893.545	-0.51
893.716	-14.85
893.887	22.02
894.057	-82.43
894.228	13.82
894.399	7.68
894.57	52.74
894.74	-27.14
894.911	30.21
895.082	-49.66
895.253	-2.56
895.423	-10.75
895.594	19.97
895.764	-27.14
895.935	-41.47
896.106	56.83
896.276	-47.62
896.447	26.11
896.617	87.55
896.788	30.21
896.958	-66.05
897.129	-2.56
897.299	-43.52
897.47	56.83
897.64	42.5
897.81	-59.9
897.981	-47.62
898.151	-14.85
898.322	46.59
898.492	-76.29
898.662	9.73
898.832	-25.09
899.003	-74.24
899.173	73.21
899.343	-66.05
899.513	-51.71
