Data from USB4F104151__203__14-33-16-726.txt Node

Date: Thu Mar 13 14:33:16 EDT 2025
User: louis
Spectrometer: USB4F10415
Trigger mode: 4
Integration Time (sec): 2.500000E-2
Scans to average: 1
Electric dark correction enabled: true
Nonlinearity correction enabled: false
Boxcar width: 0
XAxis mode: Wavelengths
Number of Pixels in Spectrum: 3648
>>>>>Begin Spectral Data<<<<<
178.204	-133.46
178.424	-133.46
178.644	-133.46
178.864	-186.71
179.084	-129.36
179.304	-55.64
179.524	-0.34
179.744	-6.49
179.964	42.67
180.184	59.05
180.404	-22.87
180.624	42.67
180.844	28.33
181.064	-14.68
181.283	5.8
181.503	-65.88
181.723	-12.63
181.943	-10.58
182.163	77.48
182.383	28.33
182.602	128.68
182.822	95.91
183.042	93.87
183.262	-31.06
183.482	36.52
183.701	18.09
183.921	-4.44
184.141	-31.06
184.361	38.57
184.58	22.19
184.8	67.24
185.02	42.67
185.239	5.8
185.459	18.09
185.679	26.28
185.898	18.09
186.118	79.53
186.338	44.71
186.557	128.68
186.777	-14.68
186.997	30.38
187.216	13.99
187.436	38.57
187.655	9.9
187.875	59.05
188.095	71.34
188.314	79.53
188.534	134.82
188.753	28.33
188.973	42.67
189.192	38.57
189.412	18.09
189.631	50.86
189.851	57
190.07	108.2
190.29	-47.44
190.509	24.23
190.729	38.57
190.948	52.91
191.168	140.97
191.387	18.09
191.607	59.05
191.826	65.19
192.045	18.09
192.265	26.28
192.484	136.87
192.704	-6.49
192.923	-14.68
193.142	85.67
193.362	-4.44
193.581	75.43
193.8	40.62
194.02	100.01
194.239	24.23
194.458	50.86
194.678	50.86
194.897	44.71
195.116	22.19
195.335	83.63
195.555	52.91
195.774	-6.49
195.993	104.11
196.212	-6.49
196.432	42.67
196.651	34.47
196.87	-8.53
197.089	149.16
197.308	52.91
197.528	38.57
197.747	5.8
197.966	-6.49
198.185	104.11
198.404	13.99
198.623	38.57
198.842	83.63
199.062	9.9
199.281	61.1
199.5	61.1
199.719	83.63
199.938	22.19
200.157	67.24
200.376	106.15
200.595	38.57
200.814	28.33
201.033	153.26
201.252	28.33
201.471	42.67
201.69	28.33
201.909	1.71
202.128	-14.68
202.347	67.24
202.566	44.71
202.785	-14.68
203.004	-14.68
203.223	95.91
203.442	24.23
203.661	42.67
203.879	30.38
204.098	-20.82
204.317	28.33
204.536	-31.06
204.755	79.53
204.974	83.63
205.193	34.47
205.411	118.44
205.63	13.99
205.849	118.44
206.068	71.34
206.287	61.1
206.505	18.09
206.724	9.9
206.943	30.38
207.162	13.99
207.381	54.95
207.599	16.04
207.818	67.24
208.037	42.67
208.255	20.14
208.474	44.71
208.693	149.16
208.911	30.38
209.13	-6.49
209.349	50.86
209.567	71.34
209.786	87.72
210.005	16.04
210.223	79.53
210.442	-18.77
210.661	79.53
210.879	71.34
211.098	61.1
211.316	85.67
211.535	71.34
211.753	11.95
211.972	67.24
212.191	13.99
212.409	83.63
212.628	50.86
212.846	18.09
213.065	50.86
213.283	95.91
213.502	83.63
213.72	-22.87
213.938	77.48
214.157	3.75
214.375	104.11
214.594	26.28
214.812	38.57
215.031	42.67
215.249	36.52
215.467	-2.39
215.686	9.9
215.904	69.29
216.122	22.19
216.341	140.97
216.559	65.19
216.778	28.33
216.996	54.95
217.214	20.14
217.432	-31.06
217.651	-61.78
217.869	38.57
218.087	3.75
218.306	7.85
218.524	91.82
218.742	-26.96
218.96	91.82
219.179	50.86
219.397	20.14
219.615	13.99
219.833	71.34
220.051	18.09
220.27	85.67
220.488	77.48
220.706	50.86
220.924	128.68
221.142	-29.01
221.36	5.8
221.578	83.63
221.796	26.28
222.015	44.71
222.233	54.95
222.451	100.01
222.669	36.52
222.887	83.63
223.105	11.95
223.323	42.67
223.541	1.71
223.759	3.75
223.977	-29.01
224.195	46.76
224.413	67.24
224.631	18.09
224.849	42.67
225.067	22.19
225.285	28.33
225.503	34.47
225.721	42.67
225.939	40.62
226.157	28.33
226.375	116.39
226.592	-6.49
226.81	13.99
227.028	22.19
227.246	59.05
227.464	46.76
227.682	69.29
227.9	50.86
228.117	134.82
228.335	20.14
228.553	1.71
228.771	24.23
228.989	71.34
229.206	54.95
229.424	34.47
229.642	46.76
229.86	16.04
230.077	95.91
230.295	22.19
230.513	83.63
230.731	50.86
230.948	192.17
231.166	87.72
231.384	42.67
231.601	11.95
231.819	69.29
232.037	116.39
232.254	52.91
232.472	-20.82
232.689	34.47
232.907	52.91
233.125	116.39
233.342	46.76
233.56	38.57
233.777	9.9
233.995	28.33
234.213	93.87
234.43	126.63
234.648	50.86
234.865	32.43
235.083	93.87
235.3	3.75
235.518	67.24
235.735	132.78
235.953	118.44
236.17	71.34
236.388	40.62
236.605	-0.34
236.822	44.71
237.04	85.67
237.257	34.47
237.475	65.19
237.692	34.47
237.909	63.15
238.127	75.43
238.344	28.33
238.562	13.99
238.779	34.47
238.996	-2.39
239.214	22.19
239.431	122.54
239.648	34.47
239.865	42.67
240.083	13.99
240.3	75.43
240.517	42.67
240.735	-45.4
240.952	26.28
241.169	30.38
241.386	26.28
241.603	50.86
241.821	28.33
242.038	61.1
242.255	50.86
242.472	-14.68
242.689	77.48
242.907	52.91
243.124	18.09
243.341	11.95
243.558	9.9
243.775	-26.96
243.992	-22.87
244.209	59.05
244.426	85.67
244.643	42.67
244.86	71.34
245.078	42.67
245.295	91.82
245.512	11.95
245.729	9.9
245.946	83.63
246.163	71.34
246.38	112.3
246.597	-37.2
246.814	40.62
247.031	-6.49
247.248	36.52
247.464	34.47
247.681	77.48
247.898	69.29
248.115	13.99
248.332	-14.68
248.549	118.44
248.766	52.91
248.983	30.38
249.2	140.97
249.417	18.09
249.633	28.33
249.85	95.91
250.067	26.28
250.284	-18.77
250.501	91.82
250.717	9.9
250.934	-2.39
251.151	-6.49
251.368	61.1
251.585	52.91
251.801	52.91
252.018	18.09
252.235	77.48
252.451	-24.92
252.668	26.28
252.885	87.72
253.102	108.2
253.318	134.82
253.535	7.85
253.752	28.33
253.968	-0.34
254.185	9.9
254.401	36.52
254.618	30.38
254.835	-18.77
255.051	26.28
255.268	93.87
255.484	13.99
255.701	26.28
255.917	77.48
256.134	-22.87
256.351	20.14
256.567	20.14
256.784	134.82
257	59.05
257.217	67.24
257.433	83.63
257.65	50.86
257.866	85.67
258.082	-24.92
258.299	-8.53
258.515	112.3
258.732	-31.06
258.948	59.05
259.165	54.95
259.381	18.09
259.597	118.44
259.814	81.58
260.03	42.67
260.246	-31.06
260.463	-2.39
260.679	167.59
260.895	97.96
261.112	83.63
261.328	61.1
261.544	-37.2
261.761	42.67
261.977	22.19
262.193	-14.68
262.409	50.86
262.626	-14.68
262.842	67.24
263.058	16.04
263.274	89.77
263.49	69.29
263.707	-14.68
263.923	124.58
264.139	24.23
264.355	71.34
264.571	204.46
264.787	67.24
265.004	116.39
265.22	7.85
265.436	30.38
265.652	34.47
265.868	140.97
266.084	11.95
266.3	13.99
266.516	-35.16
266.732	30.38
266.948	7.85
267.164	-45.4
267.38	34.47
267.596	87.72
267.812	112.3
268.028	57
268.244	-8.53
268.46	13.99
268.676	5.8
268.892	52.91
269.108	-14.68
269.324	1.71
269.54	9.9
269.756	44.71
269.972	1.71
270.188	9.9
270.403	-20.82
270.619	91.82
270.835	-29.01
271.051	46.76
271.267	59.05
271.483	11.95
271.698	46.76
271.914	102.06
272.13	89.77
272.346	52.91
272.562	61.1
272.777	38.57
272.993	85.67
273.209	-20.82
273.425	87.72
273.64	46.76
273.856	30.38
274.072	34.47
274.287	18.09
274.503	79.53
274.719	36.52
274.934	26.28
275.15	-39.25
275.366	79.53
275.581	59.05
275.797	110.25
276.012	95.91
276.228	73.39
276.444	116.39
276.659	67.24
276.875	-20.82
277.09	81.58
277.306	42.67
277.521	95.91
277.737	-26.96
277.952	-12.63
278.168	34.47
278.383	77.48
278.599	59.05
278.814	67.24
279.03	110.25
279.245	97.96
279.461	-14.68
279.676	85.67
279.892	18.09
280.107	67.24
280.322	-49.49
280.538	7.85
280.753	-22.87
280.969	-31.06
281.184	-4.44
281.399	81.58
281.615	122.54
281.83	69.29
282.045	-26.96
282.26	102.06
282.476	54.95
282.691	75.43
282.906	54.95
283.122	67.24
283.337	18.09
283.552	87.72
283.767	-37.2
283.983	136.87
284.198	59.05
284.413	100.01
284.628	-14.68
284.843	91.82
285.058	-0.34
285.274	-24.92
285.489	24.23
285.704	44.71
285.919	69.29
286.134	-35.16
286.349	73.39
286.564	20.14
286.779	102.06
286.995	54.95
287.21	-31.06
287.425	93.87
287.64	34.47
287.855	42.67
288.07	-6.49
288.285	3.75
288.5	69.29
288.715	77.48
288.93	-6.49
289.145	50.86
289.36	116.39
289.575	46.76
289.79	132.78
290.004	11.95
290.219	100.01
290.434	13.99
290.649	-12.63
290.864	67.24
291.079	44.71
291.294	57
291.509	46.76
291.724	18.09
291.938	26.28
292.153	-6.49
292.368	3.75
292.583	36.52
292.798	52.91
293.012	36.52
293.227	-0.34
293.442	85.67
293.657	-2.39
293.871	57
294.086	97.96
294.301	124.58
294.516	42.67
294.73	-22.87
294.945	-0.34
295.16	54.95
295.374	57
295.589	83.63
295.804	73.39
296.018	11.95
296.233	75.43
296.447	79.53
296.662	-12.63
296.877	18.09
297.091	-0.34
297.306	28.33
297.52	79.53
297.735	38.57
297.949	11.95
298.164	67.24
298.378	18.09
298.593	-39.25
298.807	-72.02
299.022	138.92
299.236	116.39
299.451	67.24
299.665	9.9
299.88	20.14
300.094	-8.53
300.309	67.24
300.523	1.71
300.737	50.86
300.952	79.53
301.166	61.1
301.381	67.24
301.595	3.75
301.809	61.1
302.024	-31.06
302.238	-55.64
302.452	102.06
302.667	34.47
302.881	128.68
303.095	132.78
303.309	46.76
303.524	102.06
303.738	-18.77
303.952	42.67
304.166	108.2
304.381	-24.92
304.595	155.3
304.809	1.71
305.023	85.67
305.237	77.48
305.452	-20.82
305.666	38.57
305.88	71.34
306.094	91.82
306.308	26.28
306.522	44.71
306.736	34.47
306.95	108.2
307.164	13.99
307.379	13.99
307.593	48.81
307.807	46.76
308.021	36.52
308.235	116.39
308.449	-6.49
308.663	69.29
308.877	132.78
309.091	91.82
309.305	65.19
309.519	3.75
309.733	18.09
309.947	36.52
310.161	46.76
310.374	83.63
310.588	61.1
310.802	1.71
311.016	30.38
311.23	114.34
311.444	18.09
311.658	11.95
311.872	112.3
312.085	100.01
312.299	11.95
312.513	89.77
312.727	100.01
312.941	102.06
313.154	52.91
313.368	67.24
313.582	100.01
313.796	67.24
314.009	83.63
314.223	91.82
314.437	61.1
314.651	20.14
314.864	69.29
315.078	9.9
315.292	54.95
315.505	50.86
315.719	91.82
315.933	91.82
316.146	26.28
316.36	-43.35
316.573	104.11
316.787	13.99
317.001	63.15
317.214	116.39
317.428	67.24
317.641	63.15
317.855	-29.01
318.068	132.78
318.282	63.15
318.495	75.43
318.709	42.67
318.922	-10.58
319.136	102.06
319.349	67.24
319.563	44.71
319.776	65.19
319.99	13.99
320.203	95.91
320.417	-4.44
320.63	26.28
320.843	124.58
321.057	-4.44
321.27	44.71
321.483	59.05
321.697	102.06
321.91	87.72
322.124	91.82
322.337	75.43
322.55	69.29
322.763	61.1
322.977	52.91
323.19	-6.49
323.403	108.2
323.617	79.53
323.83	18.09
324.043	3.75
324.256	83.63
324.469	120.49
324.683	108.2
324.896	67.24
325.109	79.53
325.322	61.1
325.535	100.01
325.748	67.24
325.962	16.04
326.175	28.33
326.388	61.1
326.601	83.63
326.814	151.21
327.027	75.43
327.24	122.54
327.453	-4.44
327.666	26.28
327.879	79.53
328.092	50.86
328.305	65.19
328.518	3.75
328.731	42.67
328.944	42.67
329.157	57
329.37	34.47
329.583	71.34
329.796	147.11
330.009	42.67
330.222	50.86
330.435	18.09
330.648	75.43
330.861	57
331.073	91.82
331.286	110.25
331.499	50.86
331.712	54.95
331.925	104.11
332.138	108.2
332.35	79.53
332.563	22.19
332.776	75.43
332.989	16.04
333.202	-31.06
333.414	46.76
333.627	13.99
333.84	75.43
334.053	18.09
334.265	1.71
334.478	-22.87
334.691	40.62
334.903	63.15
335.116	13.99
335.329	-2.39
335.541	91.82
335.754	95.91
335.966	24.23
336.179	50.86
336.392	42.67
336.604	34.47
336.817	75.43
337.029	46.76
337.242	59.05
337.454	24.23
337.667	-6.49
337.88	104.11
338.092	36.52
338.305	83.63
338.517	-6.49
338.729	124.58
338.942	50.86
339.154	36.52
339.367	30.38
339.579	75.43
339.792	-14.68
340.004	110.25
340.217	16.04
340.429	28.33
340.641	18.09
340.854	28.33
341.066	42.67
341.278	128.68
341.491	106.15
341.703	59.05
341.915	1.71
342.128	149.16
342.34	44.71
342.552	63.15
342.764	83.63
342.977	75.43
343.189	71.34
343.401	63.15
343.613	-6.49
343.826	34.47
344.038	-53.59
344.25	85.67
344.462	91.82
344.674	54.95
344.886	18.09
345.099	83.63
345.311	52.91
345.523	91.82
345.735	-22.87
345.947	93.87
346.159	87.72
346.371	54.95
346.583	36.52
346.795	116.39
347.007	-61.78
347.219	77.48
347.431	-18.77
347.643	83.63
347.855	9.9
348.067	63.15
348.279	79.53
348.491	104.11
348.703	91.82
348.915	3.75
349.127	9.9
349.339	36.52
349.551	63.15
349.763	26.28
349.975	-14.68
350.187	59.05
350.399	67.24
350.61	67.24
350.822	91.82
351.034	104.11
351.246	-14.68
351.458	36.52
351.669	50.86
351.881	169.64
352.093	102.06
352.305	93.87
352.517	-18.77
352.728	118.44
352.94	9.9
353.152	69.29
353.363	-26.96
353.575	71.34
353.787	83.63
353.999	52.91
354.21	194.22
354.422	50.86
354.633	91.82
354.845	5.8
355.057	106.15
355.268	134.82
355.48	112.3
355.692	75.43
355.903	36.52
356.115	79.53
356.326	-29.01
356.538	151.21
356.749	79.53
356.961	59.05
357.172	67.24
357.384	20.14
357.595	110.25
357.807	13.99
358.018	75.43
358.23	52.91
358.441	69.29
358.653	120.49
358.864	110.25
359.075	38.57
359.287	77.48
359.498	77.48
359.709	157.35
359.921	36.52
360.132	71.34
360.344	50.86
360.555	71.34
360.766	18.09
360.977	71.34
361.189	26.28
361.4	-47.44
361.611	116.39
361.823	83.63
362.034	79.53
362.245	-8.53
362.456	83.63
362.667	26.28
362.879	-22.87
363.09	112.3
363.301	52.91
363.512	3.75
363.723	-29.01
363.935	-8.53
364.146	104.11
364.357	3.75
364.568	83.63
364.779	11.95
364.99	69.29
365.201	61.1
365.412	151.21
365.623	81.58
365.834	71.34
366.045	40.62
366.256	87.72
366.467	42.67
366.678	-6.49
366.889	-4.44
367.1	77.48
367.311	26.28
367.522	95.91
367.733	54.95
367.944	91.82
368.155	102.06
368.366	108.2
368.577	120.49
368.788	126.63
368.999	104.11
369.209	59.05
369.42	167.59
369.631	140.97
369.842	136.87
370.053	-22.87
370.264	79.53
370.474	42.67
370.685	46.76
370.896	75.43
371.107	11.95
371.317	54.95
371.528	46.76
371.739	83.63
371.95	22.19
372.16	134.82
372.371	110.25
372.582	136.87
372.792	63.15
373.003	52.91
373.214	85.67
373.424	83.63
373.635	-55.64
373.846	91.82
374.056	9.9
374.267	34.47
374.477	-31.06
374.688	54.95
374.898	24.23
375.109	34.47
375.319	34.47
375.53	87.72
375.74	48.81
375.951	59.05
376.161	108.2
376.372	140.97
376.582	54.95
376.793	67.24
377.003	108.2
377.214	-35.16
377.424	83.63
377.635	79.53
377.845	28.33
378.055	132.78
378.266	81.58
378.476	93.87
378.686	79.53
378.897	132.78
379.107	16.04
379.317	75.43
379.528	30.38
379.738	106.15
379.948	3.75
380.158	26.28
380.369	18.09
380.579	100.01
380.789	-14.68
380.999	91.82
381.21	42.67
381.42	149.16
381.63	30.38
381.84	69.29
382.05	28.33
382.261	59.05
382.471	116.39
382.681	87.72
382.891	183.98
383.101	118.44
383.311	134.82
383.521	-12.63
383.731	77.48
383.941	83.63
384.151	75.43
384.361	11.95
384.571	50.86
384.781	26.28
384.991	112.3
385.201	173.74
385.411	61.1
385.621	89.77
385.831	91.82
386.041	38.57
386.251	48.81
386.461	161.45
386.671	63.15
386.881	134.82
387.091	42.67
387.301	167.59
387.511	128.68
387.72	140.97
387.93	59.05
388.14	42.67
388.35	5.8
388.56	159.4
388.769	116.39
388.979	59.05
389.189	50.86
389.399	81.58
389.609	186.02
389.818	136.87
390.028	134.82
390.238	63.15
390.447	95.91
390.657	87.72
390.867	-22.87
391.076	91.82
391.286	143.02
391.496	89.77
391.705	93.87
391.915	108.2
392.125	69.29
392.334	71.34
392.544	77.48
392.753	177.83
392.963	151.21
393.172	61.1
393.382	36.52
393.591	143.02
393.801	134.82
394.01	165.54
394.22	132.78
394.429	100.01
394.639	97.96
394.848	120.49
395.058	126.63
395.267	91.82
395.477	167.59
395.686	85.67
395.895	104.11
396.105	200.36
396.314	81.58
396.524	128.68
396.733	83.63
396.942	177.83
397.152	95.91
397.361	181.93
397.57	140.97
397.78	157.35
397.989	140.97
398.198	167.59
398.407	143.02
398.617	91.82
398.826	59.05
399.035	161.45
399.244	153.26
399.453	149.16
399.663	159.4
399.872	167.59
400.081	75.43
400.29	161.45
400.499	116.39
400.708	249.51
400.917	112.3
401.127	126.63
401.336	132.78
401.545	192.17
401.754	218.79
401.963	83.63
402.172	104.11
402.381	118.44
402.59	157.35
402.799	198.31
403.008	251.56
403.217	188.07
403.426	157.35
403.635	134.82
403.844	169.64
404.053	175.78
404.262	190.12
404.471	194.22
404.68	257.7
404.888	132.78
405.097	159.4
405.306	233.13
405.515	214.7
405.724	218.79
405.933	132.78
406.142	202.41
406.35	255.65
406.559	288.42
406.768	226.98
406.977	323.24
407.185	239.27
407.394	222.89
407.603	280.23
407.812	280.23
408.02	337.57
408.229	278.18
408.438	300.71
408.646	329.38
408.855	362.15
409.064	358.05
409.272	298.66
409.481	476.84
409.69	394.92
409.898	353.96
410.107	446.12
410.315	487.08
410.524	413.35
410.733	554.66
410.941	444.07
411.15	476.84
411.358	517.79
411.567	513.7
411.775	509.6
411.984	568.99
412.192	583.33
412.401	650.91
412.609	626.34
412.818	599.71
413.026	669.34
413.234	624.29
413.443	659.1
413.651	734.88
413.86	683.68
414.068	841.37
414.276	781.98
414.485	814.75
414.693	911
414.901	978.59
415.11	888.48
415.318	935.58
415.526	1005.21
415.734	1037.98
415.943	1031.83
416.151	1183.38
416.359	1134.23
416.567	1152.67
416.776	1261.21
416.984	1205.91
417.192	1420.95
417.4	1345.17
417.608	1265.3
417.817	1443.48
418.025	1562.26
418.233	1623.7
418.441	1525.4
418.649	1601.17
418.857	1732.24
419.065	1783.44
419.273	1738.38
419.481	1881.74
419.689	2021
419.897	2014.86
420.105	2033.29
420.313	2053.77
420.521	2131.59
420.729	2182.79
420.937	2420.36
421.145	2414.21
421.353	2518.66
421.561	2594.44
421.769	2748.03
421.977	2795.14
422.185	2737.79
422.393	2887.29
422.601	3004.03
422.809	3212.92
423.017	3133.05
423.224	3266.17
423.432	3497.59
423.64	3327.61
423.848	3640.95
424.056	3694.19
424.263	3827.31
424.471	4042.35
424.679	4073.07
424.887	4171.37
425.094	4224.62
425.302	4277.87
425.51	4421.22
425.718	4490.85
425.925	4507.24
426.133	4765.28
426.341	5115.48
426.548	5416.54
426.756	5434.97
426.964	5346.91
427.171	5584.47
427.379	5807.7
427.586	5838.42
427.794	6088.27
428.001	6327.88
428.209	6655.56
428.417	6678.08
428.624	6956.61
428.832	7048.77
429.039	6927.94
429.247	7001.66
429.454	7638.58
429.662	8109.61
429.869	7538.23
430.076	8037.94
430.284	7974.45
430.491	8277.55
430.699	8644.13
430.906	8760.87
431.114	8715.81
431.321	9117.22
431.528	9264.67
431.736	9952.79
431.943	10374.67
432.15	10085.9
432.358	10145.3
432.565	10755.59
432.772	10649.1
432.979	11253.25
433.187	11453.95
433.394	11374.08
433.601	12199.41
433.808	12275.18
434.016	12002.8
434.223	12701.16
434.43	13436.38
434.637	13194.72
434.844	14005.72
435.052	14155.22
435.259	14003.67
435.466	14300.62
435.673	14077.4
435.88	15015.37
436.087	15742.39
436.294	15807.93
436.501	15398.34
436.708	15769.02
436.915	16188.85
437.122	16645.55
437.329	17407.39
437.537	17556.89
437.743	17413.54
437.95	17601.95
438.157	18609.55
438.364	19162.5
438.571	19088.78
438.778	19101.06
438.985	20862.32
439.192	20335.99
439.399	20800.88
439.606	19944.83
439.813	21658.98
440.02	22787.41
440.227	22424.92
440.433	22005.08
440.64	23207.24
440.847	22349.14
441.054	22986.06
441.261	25011.5
441.467	24331.58
441.674	25007.41
441.881	25951.52
442.088	25548.07
442.294	25513.25
442.501	26025.25
442.708	26834.19
442.914	27475.21
443.121	28974.32
443.328	28146.94
443.534	29869.28
443.741	29162.73
443.948	28775.67
444.154	30938.32
444.361	30854.36
444.568	31040.72
444.774	30700.76
444.981	31413.45
445.187	32253.12
445.394	33107.12
445.6	33209.52
445.807	36148.36
446.013	34434.21
446.22	35101.84
446.426	36605.05
446.633	36727.93
446.839	37655.66
447.046	36281.47
447.252	38618.21
447.459	38648.92
447.665	38354.02
447.871	40395.84
448.078	41661.49
448.284	39613.52
448.491	41049.14
448.697	42359.84
448.903	43062.3
449.11	43334.68
449.316	42621.98
449.522	43465.75
449.728	44147.72
449.935	44610.56
450.141	44856.32
450.347	45552.63
450.553	44205.06
450.76	44727.3
450.966	45882.35
451.172	45534.2
451.378	47084.51
451.584	45548.53
451.791	47041.5
451.997	47037.4
452.203	47549.4
452.409	47610.84
452.615	46992.35
452.821	45634.55
453.027	45138.94
453.233	47559.64
453.44	45423.61
453.646	46224.36
453.852	46177.26
454.058	46943.2
454.264	45888.49
454.47	46601.19
454.676	45337.59
454.882	46928.86
455.088	43107.35
455.294	43574.29
455.5	44350.47
455.705	44213.26
455.911	43056.15
456.117	42130.47
456.323	41806.89
456.529	39470.16
456.735	41266.23
456.941	39896.14
457.147	39568.46
457.352	37911.66
457.558	37768.3
457.764	38073.45
457.97	37102.71
458.176	36478.08
458.381	36185.22
458.587	34714.78
458.793	34483.36
458.999	32945.33
459.204	35136.66
459.41	34307.23
459.616	31818.95
459.821	31567.05
460.027	31739.08
460.233	31337.68
460.438	29721.83
460.644	29775.08
460.85	28759.28
461.055	27940.1
461.261	27731.2
461.466	25488.68
461.672	24890.67
461.878	26924.3
462.083	24956.21
462.289	24773.94
462.494	24120.63
462.7	23276.87
462.905	22910.29
463.111	23506.24
463.316	23688.51
463.522	22916.43
463.727	22885.71
463.932	22984.01
464.138	22773.07
464.343	22900.05
464.549	22285.65
464.754	22916.43
464.959	22740.3
465.165	22455.64
465.37	21308.77
465.575	20804.97
465.781	21687.65
465.986	21658.98
466.191	21136.74
466.397	20522.35
466.602	19821.95
466.807	20307.32
467.012	20295.03
467.218	19985.79
467.423	19977.59
467.628	20233.59
467.833	20913.52
468.038	20133.24
468.244	19502.47
468.449	20299.12
468.654	19451.27
468.859	19674.49
469.064	19197.32
469.269	18460.05
469.474	18748.81
469.679	19035.53
469.885	18400.66
470.09	18859.4
470.295	18605.45
470.5	18177.43
470.705	18441.62
470.91	17859.99
471.115	17735.07
471.32	18050.46
471.525	18034.07
471.73	17427.87
471.935	17499.55
472.139	16766.38
472.344	17157.54
472.549	16874.92
472.754	16477.62
472.959	16459.18
473.164	15773.11
473.369	15807.93
473.574	16387.5
473.778	16166.32
473.983	16045.49
474.188	16051.64
474.393	15427.01
474.598	15648.19
474.802	15160.77
475.007	14937.54
475.212	14921.16
475.417	14568.91
475.621	14519.76
475.826	14785.99
476.031	14486.99
476.235	13807.06
476.44	14319.06
476.645	14038.48
476.849	14011.86
477.054	13561.31
477.259	13579.74
477.463	13616.6
477.668	13149.67
477.872	13403.61
478.077	13037.03
478.282	13022.69
478.486	12803.56
478.691	12768.74
478.895	12570.09
479.1	12768.74
479.304	12445.16
479.509	12256.75
479.713	12398.06
479.918	12144.11
480.122	12105.2
480.326	12275.18
480.531	12133.87
480.735	12097.01
480.94	12015.09
481.144	12490.22
481.348	11728.38
481.553	11824.63
481.757	11374.08
481.961	11800.05
482.166	11937.27
482.37	12002.8
482.574	11679.22
482.778	11625.98
482.983	11654.65
483.187	11666.94
483.391	11793.91
483.595	11759.1
483.8	11539.96
484.004	11707.9
484.208	11644.41
484.412	11843.06
484.616	11537.91
484.821	11652.6
485.025	11380.22
485.229	11693.56
485.433	11748.86
485.637	11755
485.841	11456
486.045	11625.98
486.249	11798.01
486.453	11578.87
486.657	11703.8
486.861	11785.72
487.065	11367.93
487.269	11632.12
487.473	11324.93
487.677	11671.03
487.881	11757.05
488.085	11320.83
488.289	11879.93
488.493	11570.68
488.697	11806.2
488.901	11537.91
489.105	11685.37
489.309	11417.08
489.512	11558.39
489.716	11607.55
489.92	11832.82
490.124	11650.55
490.328	11748.86
490.531	11742.71
490.735	11740.66
490.939	11738.62
491.143	11716.09
491.346	11699.7
491.55	11769.34
491.754	11888.12
491.958	11896.31
492.161	11996.66
492.365	11838.97
492.569	12092.91
492.772	12051.95
492.976	12158.45
493.18	12271.09
493.383	12283.38
493.587	12506.6
493.79	12396.01
493.994	12166.64
494.197	12535.28
494.401	12666.35
494.605	12568.04
494.808	12764.65
495.012	12842.47
495.215	12948.97
495.419	12973.54
495.622	13141.47
495.825	13184.48
496.029	13024.74
496.232	13338.08
496.436	13276.64
496.639	13690.33
496.843	13516.25
497.046	13743.58
497.249	13952.47
497.453	14034.39
497.656	14130.64
497.859	14124.5
498.063	14331.34
498.266	14523.85
498.469	14544.33
498.673	14699.98
498.876	14892.49
499.079	15113.67
499.282	14998.98
499.485	15445.44
499.689	15250.88
499.892	15828.41
500.095	15539.65
500.298	16465.33
500.501	15951.29
500.705	16307.63
500.908	16305.59
501.111	16545.2
501.314	16788.91
501.517	16926.12
501.72	17137.06
501.923	16958.89
502.126	17524.13
502.329	17810.84
502.532	17696.16
502.735	17950.1
502.938	18271.64
503.141	18126.23
503.344	18132.37
503.547	18513.3
503.75	18953.61
503.953	19103.11
504.156	19299.72
504.359	19383.68
504.562	19318.15
504.765	20008.31
504.968	20018.55
505.17	20235.64
505.373	20282.74
505.576	20594.03
505.779	20802.93
505.982	20610.42
506.185	21345.64
506.387	21419.36
506.59	21482.85
506.793	22007.13
506.996	21589.35
507.198	22619.47
507.401	22222.17
507.604	22318.42
507.807	22947.15
508.009	23063.88
508.212	23381.32
508.415	23678.27
508.617	23885.12
508.82	24016.19
509.022	24200.51
509.225	24616.24
509.428	24919.34
509.63	24698.16
509.833	24943.92
510.035	25672.99
510.238	25355.56
510.44	25830.69
510.643	26002.72
510.845	26367.26
511.048	26381.59
511.25	26400.02
511.453	26705.17
511.655	28189.95
511.858	27419.91
512.06	27735.3
512.262	27917.57
512.465	27938.05
512.667	28837.11
512.87	28863.73
513.072	28497.14
513.274	29238.51
513.477	29531.37
513.679	29711.59
513.881	29750.5
514.084	30246.11
514.286	30311.64
514.488	30610.65
514.69	31204.56
514.893	31239.37
515.095	31403.21
515.297	32040.13
515.499	31950.02
515.701	32369.85
515.904	32478.4
516.106	32785.59
516.308	33078.45
516.51	33496.24
516.712	33397.93
516.914	33825.96
517.116	34303.14
517.318	34321.57
517.52	34340
517.722	34684.06
517.925	34929.81
518.127	35462.29
518.329	35673.23
518.531	35325.07
518.733	36310.14
518.935	36340.86
519.136	36232.32
519.338	37024.89
519.54	36621.44
519.742	37231.73
519.944	37287.03
520.146	37930.09
520.348	37887.08
520.55	38024.29
520.752	37940.33
520.954	38802.52
521.155	38718.56
521.357	38933.59
521.559	39394.39
521.761	39728.2
521.963	39826.51
522.164	39486.54
522.366	39558.22
522.568	40401.99
522.77	39947.34
522.971	40739.9
523.173	40537.15
523.375	40631.36
523.576	40782.91
523.778	40703.04
523.98	41614.38
524.181	41251.89
524.383	41520.18
524.584	41966.63
524.786	41845.8
524.988	41688.11
525.189	42220.58
525.391	42570.79
525.592	42437.67
525.794	42693.66
525.995	42144.81
526.197	42345.51
526.398	42691.62
526.6	42687.52
526.801	43066.39
527.003	42826.78
527.204	42755.1
527.406	43555.86
527.607	43119.64
527.808	43473.94
528.01	42441.76
528.211	42832.93
528.412	43662.35
528.614	43275.29
528.815	43289.62
529.016	44149.77
529.218	43160.6
529.419	43291.67
529.62	43080.73
529.822	43744.27
530.023	43162.65
530.224	43136.02
530.425	43445.27
530.626	43090.97
530.828	42982.43
531.029	44088.33
531.23	43336.73
531.431	43287.57
531.632	43234.33
531.833	43447.32
532.035	43353.11
532.236	43217.94
532.437	43590.67
532.638	43105.3
532.839	43119.64
533.04	43523.09
533.241	42843.16
533.442	43654.16
533.643	43369.49
533.844	42851.36
534.045	43351.06
534.246	42660.9
534.447	43023.39
534.648	43033.63
534.849	42933.28
535.05	42884.12
535.251	43029.53
535.451	42802.21
535.652	42785.82
535.853	42900.51
536.054	42748.96
536.255	42714.14
536.456	42181.67
536.657	42959.9
536.857	42171.43
537.058	42554.4
537.259	42843.16
537.46	42365.99
537.66	42583.07
537.861	42638.37
538.062	42230.82
538.263	42538.02
538.463	42220.58
538.664	42224.68
538.865	42275.88
539.065	42167.34
539.266	41999.4
539.466	42716.19
539.667	41759.79
539.868	42294.31
540.068	42144.81
540.269	41819.18
540.469	42171.43
540.67	42032.17
540.87	41649.2
541.071	41985.07
541.271	41946.15
541.472	41790.51
541.672	41192.5
541.873	41569.33
542.073	41315.38
542.274	42196.01
542.474	41862.19
542.675	41446.45
542.875	41909.29
543.075	41757.74
543.276	40913.98
543.476	41794.6
543.676	41884.72
543.877	41614.38
544.077	41487.41
544.277	41419.83
544.478	41587.76
544.678	42239.01
544.878	41344.05
545.078	41350.2
545.279	41094.2
545.479	41182.26
545.679	41524.27
545.879	41176.12
546.079	41315.38
546.28	41405.49
546.48	40787
546.68	41636.91
546.88	41200.69
547.08	41202.74
547.28	41325.62
547.48	41499.7
547.68	41274.42
547.88	40924.22
548.081	41239.61
548.281	41421.87
548.481	41219.13
548.681	41536.56
548.881	41456.69
549.081	41073.72
549.28	41122.87
549.48	41663.53
549.68	41014.33
549.88	41727.02
550.08	41333.81
550.28	41380.92
550.48	41290.8
550.68	41360.44
550.88	41200.69
551.08	41028.66
551.279	41303.09
551.479	41129.02
551.679	41557.04
551.879	41432.11
552.079	41739.31
552.278	41116.73
552.478	41522.23
552.678	41307.19
552.878	41436.21
553.077	41327.67
553.277	41110.58
553.477	41698.35
553.676	41376.82
553.876	41409.59
554.076	41243.7
554.275	41333.81
554.475	40842.3
554.674	41796.65
554.874	41354.29
555.074	41114.68
555.273	41704.49
555.473	41878.57
555.672	41550.9
555.872	41466.93
556.071	41255.99
556.271	41530.42
556.47	41329.72
556.67	41260.09
556.869	41395.25
557.068	41663.53
557.268	41419.83
557.467	41579.57
557.667	41356.34
557.866	41387.06
558.065	41186.36
558.265	41487.41
558.464	41137.21
558.663	41872.43
558.863	41448.5
559.062	41962.54
559.261	41172.02
559.461	41952.3
559.66	41069.62
559.859	41493.55
560.058	41485.36
560.258	41671.73
560.457	40922.17
560.656	41696.3
560.855	41301.04
561.054	41358.39
561.253	41395.25
561.453	41258.04
561.652	41485.36
561.851	41655.34
562.05	41364.53
562.249	41137.21
562.448	41389.11
562.647	41497.65
562.846	41219.13
563.045	41028.66
563.244	40758.33
563.443	41698.35
563.642	41131.06
563.841	40932.41
564.04	40942.65
564.239	41368.63
564.438	40821.82
564.637	41385.01
564.836	40959.03
565.035	40547.39
565.234	40660.03
565.432	40754.24
565.631	40754.24
565.83	40565.82
566.029	40471.62
566.228	40410.18
566.427	40582.21
566.625	40567.87
566.824	40158.28
567.023	40578.11
567.222	40117.32
567.42	40784.96
567.619	40565.82
567.818	40156.23
568.016	40186.95
568.215	40541.25
568.414	40086.6
568.612	40414.27
568.811	39793.74
569.01	39580.75
569.208	39642.19
569.407	40223.81
569.605	39361.62
569.804	40098.89
570.002	39414.87
570.201	39482.45
570.4	39300.18
570.598	39040.09
570.797	38933.59
570.995	39468.11
571.193	39042.13
571.392	39115.86
571.59	38538.33
571.789	38812.76
571.987	38497.38
572.186	38368.35
572.384	38663.26
572.582	38227.04
572.781	38814.81
572.979	38055.01
573.177	38577.25
573.376	38161.51
573.574	37833.83
573.772	37993.57
573.971	38018.15
574.169	37557.36
574.367	37327.99
574.565	37719.15
574.763	37549.17
574.962	37694.57
575.16	37172.34
575.358	37473.39
575.556	36721.79
575.754	37549.17
575.952	37028.98
576.151	37276.79
576.349	36451.45
576.547	36764.79
576.745	36738.17
576.943	36385.92
577.141	36396.16
577.339	36457.6
577.537	36265.09
577.735	36062.34
577.933	35863.69
578.131	36179.07
578.329	36019.33
578.527	35685.51
578.725	35652.75
578.923	35996.81
579.121	35792.01
579.319	35560.59
579.516	35476.62
579.714	35376.27
579.912	35042.45
580.11	35021.97
580.308	35079.32
580.506	35028.12
580.704	34702.49
580.901	34849.94
581.099	34892.95
581.297	34256.03
581.495	34602.14
581.692	34696.35
581.89	34286.75
582.088	34409.63
582.285	34311.33
582.483	34479.26
582.681	34452.64
582.878	34153.63
583.076	33875.11
583.274	33801.38
583.471	33293.49
583.669	33940.64
583.866	33449.13
584.064	33373.36
584.262	33612.97
584.459	33547.43
584.657	33211.57
584.854	33572.01
585.052	32640.18
585.249	33709.22
585.447	32937.14
585.644	32599.23
585.841	33092.79
586.039	33178.8
586.236	32629.94
586.434	32412.86
586.631	32758.97
586.828	32472.25
587.026	32781.49
587.223	32490.68
587.42	32341.18
587.618	32300.22
587.815	32056.51
588.012	31876.29
588.21	31798.47
588.407	32097.47
588.604	31882.44
588.801	31605.96
588.999	31565
589.196	32109.76
589.393	31622.34
589.59	31585.48
589.787	31309
589.984	31237.33
590.182	31134.93
590.379	31192.27
590.576	31380.68
590.773	31311.05
590.97	30981.33
591.167	31042.77
591.364	30747.86
591.561	31042.77
591.758	30659.8
591.955	30414.04
592.152	30729.43
592.349	30293.21
592.546	30579.93
592.743	30688.47
592.94	30207.2
593.137	30487.77
593.334	30645.46
593.531	29875.43
593.727	30295.26
593.924	30266.59
594.121	30186.72
594.318	30258.4
594.515	29902.05
594.712	30274.78
594.908	29897.95
595.105	30344.41
595.302	29400.3
595.499	30141.66
595.696	29928.67
595.892	29566.18
596.089	29879.52
596.286	29822.18
596.482	29852.9
596.679	29740.26
596.876	29478.12
597.072	29541.61
597.269	29572.33
597.466	29373.67
597.662	29261.04
597.859	29482.22
598.055	29736.16
598.252	29048.05
598.448	29306.09
598.645	29007.09
598.841	29007.09
599.038	29144.3
599.234	28953.84
599.431	28962.03
599.627	28914.93
599.824	28830.96
600.02	28994.8
600.217	29138.16
600.413	28869.87
600.609	28968.18
600.806	28775.67
601.002	28714.23
601.198	28638.45
601.395	29009.14
601.591	28806.39
601.787	28943.6
601.984	28919.03
602.18	29211.88
602.376	28726.52
602.572	28587.25
602.769	28939.51
602.965	28751.09
603.161	28781.81
603.357	28878.07
603.553	28673.27
603.75	28712.18
603.946	28390.65
604.142	28808.44
604.338	28478.71
604.534	29218.03
604.73	28626.17
604.926	28546.3
605.122	28837.11
605.318	28443.9
605.514	28550.39
605.71	28693.75
605.906	28959.98
606.102	28542.2
606.298	29091.05
606.494	29140.21
606.69	28974.32
606.886	29287.66
607.082	28544.25
607.278	28912.88
607.474	28726.52
607.67	28835.06
607.866	28409.08
608.062	29121.77
608.257	28959.98
608.453	29076.72
608.649	29091.05
608.845	28919.03
609.041	28847.35
609.236	29242.6
609.432	28984.56
609.628	29091.05
609.824	29175.02
610.019	28941.55
610.215	29107.44
610.411	29388.01
610.606	28781.81
610.802	29011.18
610.998	28955.89
611.193	29445.35
611.389	28880.11
611.584	29181.17
611.78	29086.96
611.976	29195.5
612.171	29277.42
612.367	28959.98
612.562	29547.75
612.758	28716.28
612.953	28953.84
613.149	29474.02
613.344	28976.37
613.539	29471.98
613.735	29052.14
613.93	29367.53
614.126	29058.29
614.321	29594.86
614.517	29142.25
614.712	29277.42
614.907	28937.46
615.103	29517.03
615.298	28937.46
615.493	29576.42
615.688	29099.25
615.884	29852.9
616.079	28992.75
616.274	29394.15
616.47	29195.5
616.665	29113.58
616.86	29021.42
617.055	28830.96
617.25	29328.62
617.445	29179.12
617.641	28617.97
617.836	29054.19
618.031	28796.15
618.226	28898.55
618.421	28908.79
618.616	29242.6
618.811	28611.83
619.006	29091.05
619.201	28390.65
619.396	28660.98
619.591	28026.11
619.786	28466.42
619.981	28075.26
620.176	28450.04
620.371	27995.39
620.566	28228.86
620.761	27704.58
620.956	28230.91
621.151	27741.44
621.346	28071.17
621.541	27598.09
621.735	27913.47
621.93	27497.74
622.125	27505.93
622.32	27079.95
622.515	27147.53
622.709	27135.24
622.904	27043.09
623.099	26881.3
623.294	26938.64
623.488	26602.77
623.683	26770.71
623.878	26006.81
624.072	26619.16
624.267	26275.1
624.462	26148.12
624.656	25926.94
624.851	26199.32
625.046	25685.28
625.24	25380.14
625.435	25613.6
625.629	25339.18
625.824	25564.45
626.018	25306.41
626.213	24728.88
626.407	25195.82
626.602	24581.43
626.796	24788.27
626.991	24851.76
627.185	24620.34
627.38	24247.61
627.574	24151.35
627.768	23788.86
627.963	23905.6
628.157	23776.58
628.352	23895.36
628.546	23498.05
628.74	23780.67
628.935	23266.63
629.129	23534.92
629.323	22938.96
629.517	23125.32
629.712	23027.02
629.906	23192.9
630.1	22515.03
630.294	22768.98
630.489	22488.4
630.683	22693.2
630.877	22459.73
631.071	21622.11
631.265	22166.87
631.459	21998.94
631.653	21716.32
631.848	21935.45
632.042	21669.22
632.236	21822.81
632.43	21470.56
632.624	21665.12
632.818	21677.41
633.012	21040.49
633.206	20979.05
633.4	21263.72
633.594	20786.54
633.788	20813.17
633.982	20688.24
634.176	20675.95
634.369	20591.98
634.563	20299.12
634.757	20438.39
634.951	20546.93
635.145	20178.29
635.339	20153.72
635.533	19778.94
635.726	19989.88
635.92	19670.4
636.114	19588.48
636.308	19301.76
636.501	19502.47
636.695	19418.5
636.889	19172.74
637.083	18982.28
637.276	19088.78
637.47	18869.64
637.664	18945.42
637.857	18865.55
638.051	18484.62
638.244	18587.02
638.438	18253.2
638.632	18165.14
638.825	18204.05
639.019	17943.96
639.212	18134.42
639.406	17810.84
639.599	18056.6
639.793	17784.22
639.986	17454.5
640.18	17477.02
640.373	17348
640.567	17386.91
640.76	17180.07
640.954	16965.03
641.147	17087.91
641.34	16799.15
641.534	16706.99
641.727	16782.76
641.92	16733.61
642.114	16426.42
642.307	16385.46
642.5	16575.92
642.694	16080.31
642.887	16035.25
643.08	16186.8
643.273	15771.07
643.467	15879.61
643.66	15707.58
643.853	15836.6
644.046	15562.17
644.239	15465.92
644.432	15459.77
644.626	15263.17
644.819	15332.8
645.012	15183.3
645.205	15410.62
645.398	14992.84
645.591	14714.31
645.784	14648.78
645.977	14620.11
646.17	14683.59
646.363	14513.61
646.556	14437.84
646.749	14257.62
646.942	14386.64
647.135	14224.85
647.328	14157.27
647.521	14239.19
647.714	13944.28
647.907	13817.3
648.099	13905.37
648.292	13975
648.485	13841.88
648.678	13430.24
648.871	13432.29
649.064	13325.79
649.256	13471.2
649.449	13329.89
649.642	13198.82
649.835	13182.43
650.027	12821.99
650.22	12879.33
650.413	12781.03
650.605	13049.32
650.798	12756.46
650.991	12623.34
651.183	12649.96
651.376	12432.88
651.568	12625.39
651.761	12463.6
651.954	12269.04
652.146	12207.6
652.339	12221.94
652.531	12135.92
652.724	12166.64
652.916	12037.62
653.109	12101.11
653.301	12094.96
653.494	11781.62
653.686	11515.39
653.879	11808.25
654.071	11736.57
654.263	11603.45
654.456	11740.66
654.648	11515.39
654.84	11286.01
655.033	11355.65
655.225	11232.77
655.417	11054.59
655.61	11128.32
655.802	11130.37
655.994	11419.13
656.186	11245.06
656.379	10759.69
656.571	10716.68
656.763	10808.84
656.955	10784.26
657.148	10884.61
657.34	10968.58
657.532	10515.98
657.724	10565.13
657.916	10362.38
658.108	10290.7
658.3	10264.08
658.492	10446.35
658.684	10212.88
658.876	10061.33
659.068	10266.13
659.26	10006.03
659.452	10210.83
659.644	10036.75
659.836	9917.97
660.028	9856.53
660.22	9686.55
660.412	9657.88
660.604	9586.2
660.796	9741.85
660.988	9745.94
661.18	9561.62
661.372	9510.43
661.563	9539.1
661.755	9307.68
661.947	9313.82
662.139	9145.89
662.331	9080.35
662.522	9176.61
662.714	9080.35
662.906	8969.76
663.097	8916.51
663.289	8844.84
663.481	8975.91
663.673	8646.18
663.864	8791.59
664.056	8631.85
664.247	8721.96
664.439	8531.5
664.631	8558.12
664.822	8517.16
665.014	8414.76
665.205	8578.6
665.397	8414.76
665.588	8318.51
665.78	8414.76
665.971	8158.77
666.163	8267.31
666.354	8367.66
666.546	8136.24
666.737	7996.98
666.929	8279.6
667.12	8152.62
667.311	8103.47
667.503	7921.2
667.694	8060.46
667.885	7843.38
668.077	7886.39
668.268	7669.3
668.459	7802.42
668.651	7679.54
668.842	7808.56
669.033	7673.4
669.224	7654.97
669.416	7695.93
669.607	7765.56
669.798	7566.9
669.989	7525.94
670.18	7489.08
670.371	7382.59
670.563	7276.09
670.754	7267.9
670.945	7177.79
671.136	7216.7
671.327	7310.91
671.518	7159.36
671.709	7263.8
671.9	7202.36
672.091	7147.07
672.282	7075.39
672.473	7194.17
672.664	6907.46
672.855	6940.22
673.046	6923.84
673.237	6934.08
673.428	6966.85
673.619	6905.41
673.809	6915.65
674	6813.25
674.191	6749.76
674.382	6811.2
674.573	6825.54
674.764	6708.8
674.954	6661.7
675.145	6698.56
675.336	6671.94
675.527	6534.73
675.717	6663.75
675.908	6583.88
676.099	6524.49
676.289	6448.71
676.48	6448.71
676.671	6491.72
676.861	6563.4
677.052	6309.45
677.243	6557.25
677.433	6436.42
677.624	6377.03
677.814	6321.74
678.005	6499.91
678.195	6297.16
678.386	6432.33
678.576	6235.72
678.767	6313.55
678.957	6198.86
679.148	6137.42
679.338	6268.49
679.529	6280.78
679.719	6137.42
679.909	6202.96
680.1	6194.76
680.29	6229.58
680.481	6032.97
680.671	6096.46
680.861	5938.77
681.052	6139.47
681.242	6118.99
681.432	6129.23
681.622	6157.9
681.813	6071.89
682.003	6022.73
682.193	6012.49
682.383	6043.21
682.573	6153.8
682.764	6090.32
682.954	6002.26
683.144	5949.01
683.334	5903.95
683.524	5994.06
683.714	5969.49
683.904	6002.26
684.094	6030.93
684.284	5819.99
684.474	5928.53
684.664	5895.76
684.854	5846.61
685.044	5836.37
685.234	5746.26
685.424	5928.53
685.614	5760.59
685.804	5668.44
685.994	5756.5
686.184	5832.27
686.374	5834.32
686.564	5551.7
686.753	5568.09
686.943	5686.87
687.133	5514.84
687.323	5570.13
687.513	5430.87
687.702	5498.45
687.892	5496.41
688.082	5557.85
688.272	5658.2
688.461	5457.5
688.651	5508.69
688.841	5498.45
689.03	5512.79
689.22	5457.5
689.41	5283.42
689.599	5416.54
689.789	5310.04
689.979	5512.79
690.168	5391.96
690.358	5256.79
690.547	5408.34
690.737	5310.04
690.926	5291.61
691.116	5303.9
691.305	5240.41
691.495	5193.31
691.684	5238.36
691.874	5269.08
692.063	5340.76
692.252	5213.79
692.442	5117.53
692.631	5105.24
692.82	5113.44
693.01	4867.68
693.199	5148.25
693.388	4968.03
693.578	5031.52
693.767	5021.28
693.956	5121.63
694.146	4957.79
694.335	5023.33
694.524	4900.45
694.713	4972.13
694.902	4965.98
695.092	4832.86
695.281	4843.1
695.47	4961.89
695.659	4894.3
695.848	4957.79
696.037	4820.58
696.226	4806.24
696.415	4898.4
696.604	4900.45
696.793	4695.65
696.982	4961.89
697.171	4826.72
697.36	4798.05
697.549	4742.75
697.738	4853.34
697.927	4779.62
698.116	4687.46
698.305	4830.82
698.494	4615.78
698.683	4638.31
698.872	4789.86
699.061	4593.25
699.25	4599.4
699.438	4679.27
699.627	4595.3
699.816	4593.25
700.005	4619.88
700.193	4560.49
700.382	4648.55
700.571	4437.61
700.76	4456.04
700.948	4499.05
701.137	4417.13
701.326	4427.37
701.514	4466.28
701.703	4552.29
701.892	4337.26
702.08	4474.47
702.269	4431.46
702.457	4374.12
702.646	4310.63
702.834	4372.07
703.023	4357.74
703.212	4337.26
703.4	4292.2
703.589	4114.03
703.777	4146.8
703.965	4308.58
704.154	4271.72
704.342	4421.22
704.531	4279.91
704.719	4253.29
704.907	4255.34
705.096	4064.88
705.284	4105.84
705.472	4273.77
705.661	3993.2
705.849	4195.95
706.037	4220.52
706.226	4126.32
706.414	4144.75
706.602	4028.01
706.79	4157.04
706.979	4093.55
707.167	4009.58
707.355	4130.41
707.543	3933.81
707.731	3925.61
707.919	3982.96
708.107	3976.81
708.296	3970.67
708.484	3851.89
708.672	4001.39
708.86	3843.7
709.048	3780.21
709.236	3892.85
709.424	4028.01
709.612	3778.16
709.8	3790.45
709.988	3860.08
710.176	3821.17
710.364	3765.87
710.551	3724.91
710.739	3819.12
710.927	3739.25
711.115	3739.25
711.303	3819.12
711.491	3708.53
711.679	3729.01
711.866	3749.49
712.054	3704.43
712.242	3634.8
712.43	3681.91
712.617	3729.01
712.805	3612.28
712.993	3657.33
713.181	3671.67
713.368	3540.6
713.556	3649.14
713.744	3634.8
713.931	3653.23
714.119	3597.94
714.306	3509.88
714.494	3491.45
714.682	3499.64
714.869	3483.25
715.057	3556.98
715.244	3491.45
715.432	3384.95
715.619	3569.27
715.807	3436.15
715.994	3366.52
716.182	3411.57
716.369	3370.62
716.556	3466.87
716.744	3305.08
716.931	3460.73
717.119	3503.73
717.306	3376.76
717.493	3434.1
717.681	3266.17
717.868	3307.13
718.055	3378.81
718.242	3362.42
718.43	3335.8
718.617	3270.26
718.804	3169.91
718.991	3354.23
719.179	3165.82
719.366	3223.16
719.553	3229.31
719.74	3292.79
719.927	3231.35
720.114	3153.53
720.301	3288.7
720.488	3010.17
720.676	3212.92
720.863	3171.96
721.05	3094.14
721.237	3079.8
721.424	2983.55
721.611	3171.96
721.798	3067.52
721.985	3090.04
722.172	3094.14
722.358	3018.36
722.545	3161.72
722.732	3028.6
722.919	3032.7
723.106	2903.68
723.293	3014.27
723.48	2993.79
723.667	3024.51
723.853	3018.36
724.04	3036.8
724.227	3044.99
724.414	2983.55
724.6	2952.83
724.787	2985.6
724.974	3032.7
725.161	2852.48
725.347	2825.86
725.534	2774.66
725.72	2786.94
725.907	2860.67
726.094	2813.57
726.28	2819.71
726.467	2741.89
726.653	2778.75
726.84	2733.7
727.027	2840.19
727.213	2797.18
727.4	2766.46
727.586	2862.72
727.773	2733.7
727.959	2715.27
728.145	2709.12
728.332	2733.7
728.518	2754.18
728.705	2748.03
728.891	2672.26
729.077	2709.12
729.264	2745.98
729.45	2682.5
729.636	2731.65
729.823	2565.76
730.009	2635.39
730.195	2612.87
730.382	2705.03
730.568	2584.2
730.754	2696.83
730.94	2619.01
731.126	2729.6
731.313	2729.6
731.499	2715.27
731.685	2678.4
731.871	2598.53
732.057	2791.04
732.243	2614.91
732.429	2641.54
732.615	2567.81
732.801	2631.3
732.987	2647.68
733.173	2543.24
733.359	2549.38
733.545	2559.62
733.731	2463.37
733.917	2586.24
734.103	2688.64
734.289	2588.29
734.475	2586.24
734.661	2494.08
734.847	2510.47
735.033	2512.52
735.219	2496.13
735.404	2477.7
735.59	2475.65
735.776	2442.89
735.962	2418.31
736.148	2336.39
736.333	2424.45
736.519	2475.65
736.705	2535.04
736.89	2399.88
737.076	2348.68
737.262	2356.87
737.447	2291.34
737.633	2346.63
737.819	2422.41
738.004	2350.73
738.19	2393.73
738.375	2365.06
738.561	2565.76
738.747	2344.58
738.932	2297.48
739.118	2403.97
739.303	2279.05
739.489	2283.14
739.674	2309.77
739.859	2328.2
740.045	2199.18
740.23	2258.57
740.416	2217.61
740.601	2344.58
740.786	2246.28
740.972	2297.48
741.157	2281.1
741.342	2170.51
741.528	2184.84
741.713	2264.71
741.898	2176.65
742.084	2152.07
742.269	2139.79
742.454	2100.87
742.639	2088.59
742.824	2217.61
743.01	2201.23
743.195	2076.3
743.38	2066.06
743.565	2082.44
743.75	2070.16
743.935	1971.85
744.12	2190.99
744.305	1959.56
744.49	2115.21
744.675	2021
744.86	1951.37
745.045	1922.7
745.23	2025.1
745.415	1934.99
745.6	1951.37
745.785	1965.71
745.97	1922.7
746.155	2061.96
746.34	1922.7
746.525	1904.27
746.71	1971.85
746.895	1906.32
747.079	1810.06
747.264	1844.88
747.449	1820.3
747.634	1926.8
747.819	1865.36
748.003	1793.68
748.188	1791.63
748.373	1805.97
748.557	1742.48
748.742	1738.38
748.927	1683.09
749.111	1703.57
749.296	1853.07
749.481	1773.2
749.665	1724.05
749.85	1744.53
750.034	1722
750.219	1713.81
750.404	1603.22
750.588	1689.23
750.773	1549.97
750.957	1660.56
751.141	1633.94
751.326	1619.6
751.51	1619.6
751.695	1648.27
751.879	1572.5
752.064	1635.99
752.248	1529.49
752.432	1549.97
752.617	1599.12
752.801	1486.48
752.985	1568.4
753.17	1578.64
753.354	1566.35
753.538	1472.15
753.722	1410.71
753.907	1431.19
754.091	1435.28
754.275	1427.09
754.459	1484.44
754.643	1468.05
754.828	1476.24
755.012	1511.06
755.196	1443.48
755.38	1330.84
755.564	1377.94
755.748	1373.85
755.932	1371.8
756.116	1429.14
756.3	1316.5
756.484	1271.45
756.668	1400.47
756.852	1306.26
757.036	1293.97
757.22	1257.11
757.404	1318.55
757.588	1226.39
757.772	1275.54
757.956	1240.73
758.14	1279.64
758.323	1230.49
758.507	1246.87
758.691	1164.95
758.875	1246.87
759.059	1177.24
759.242	1083.03
759.426	1193.62
759.61	1210.01
759.794	1201.82
759.977	1189.53
760.161	1289.88
760.345	1224.34
760.528	1214.1
760.712	1152.67
760.895	1205.91
761.079	1107.61
761.263	1101.47
761.446	1156.76
761.63	1111.71
761.813	1152.67
761.997	1091.23
762.18	1123.99
762.364	1074.84
762.547	1009.31
762.731	1134.23
762.914	1138.33
763.098	1099.42
763.281	1029.79
763.464	1044.12
763.648	1181.34
763.831	1101.47
764.015	1035.93
764.198	1197.72
764.381	1056.41
764.564	1050.27
764.748	1111.71
764.931	1066.65
765.114	976.54
765.297	1025.69
765.481	1013.4
765.664	904.86
765.847	1115.8
766.03	1093.27
766.213	943.77
766.397	992.92
766.58	931.48
766.763	896.67
766.946	951.96
767.129	988.83
767.312	937.63
767.495	970.4
767.678	902.81
767.861	986.78
768.044	954.01
768.227	849.57
768.41	919.2
768.593	970.4
768.776	908.96
768.959	927.39
769.142	1029.79
769.324	886.43
769.507	974.49
769.69	954.01
769.873	927.39
770.056	954.01
770.239	878.24
770.421	943.77
770.604	917.15
770.787	814.75
770.97	941.72
771.152	859.81
771.335	894.62
771.518	880.29
771.7	898.72
771.883	882.33
772.066	839.33
772.248	849.57
772.431	865.95
772.613	790.17
772.796	788.13
772.978	902.81
773.161	886.43
773.343	816.8
773.526	814.75
773.708	878.24
773.891	833.18
774.073	763.55
774.256	784.03
774.438	804.51
774.621	775.84
774.803	738.98
774.985	712.35
775.168	765.6
775.35	779.93
775.532	810.65
775.715	757.41
775.897	724.64
776.079	728.74
776.261	730.78
776.444	681.63
776.626	755.36
776.808	798.37
776.99	757.41
777.173	755.36
777.355	781.98
777.537	732.83
777.719	706.21
777.901	743.07
778.083	706.21
778.265	648.86
778.447	716.45
778.629	689.82
778.811	603.81
778.993	702.11
779.175	675.49
779.357	616.1
779.539	616.1
779.721	767.65
779.903	640.67
780.085	601.76
780.267	624.29
780.449	616.1
780.631	560.8
780.812	665.25
780.994	616.1
781.176	497.32
781.358	562.85
781.54	616.1
781.721	593.57
781.903	607.91
782.085	599.71
782.267	642.72
782.448	560.8
782.63	587.43
782.812	525.99
782.993	575.14
783.175	583.33
783.357	585.38
783.538	568.99
783.72	519.84
783.901	534.18
784.083	466.6
784.264	509.6
784.446	485.03
784.627	550.56
784.809	493.22
784.99	476.84
785.172	456.36
785.353	509.6
785.535	575.14
785.716	501.41
785.897	427.68
786.079	480.93
786.26	478.88
786.441	444.07
786.623	468.64
786.804	413.35
786.985	472.74
787.167	513.7
787.348	444.07
787.529	353.96
787.71	468.64
787.891	485.03
788.073	466.6
788.254	427.68
788.435	452.26
788.616	476.84
788.797	399.01
788.978	323.24
789.159	374.44
789.34	446.12
789.522	364.2
789.703	470.69
789.884	396.96
790.065	444.07
790.246	417.44
790.427	388.77
790.607	386.72
790.788	423.59
790.969	380.58
791.15	347.81
791.331	407.2
791.512	353.96
791.693	386.72
791.874	345.77
792.054	435.88
792.235	401.06
792.416	362.15
792.597	362.15
792.778	341.67
792.958	360.1
793.139	419.49
793.32	296.61
793.5	337.57
793.681	345.77
793.862	425.64
794.042	372.39
794.223	382.63
794.404	313
794.584	280.23
794.765	278.18
794.945	304.81
795.126	341.67
795.306	349.86
795.487	325.29
795.667	255.65
795.848	380.58
796.028	317.09
796.209	337.57
796.389	399.01
796.57	222.89
796.75	249.51
796.93	308.9
797.111	272.04
797.291	304.81
797.471	226.98
797.652	272.04
797.832	265.89
798.012	337.57
798.192	327.33
798.373	290.47
798.553	247.46
798.733	259.75
798.913	249.51
799.093	298.66
799.274	374.44
799.454	263.85
799.634	241.32
799.814	290.47
799.994	308.9
800.174	401.06
800.354	255.65
800.534	341.67
800.714	239.27
800.894	222.89
801.074	224.94
801.254	276.13
801.434	216.74
801.614	216.74
801.794	247.46
801.974	994.97
802.154	208.55
802.334	308.9
802.514	177.83
802.693	173.74
802.873	222.89
803.053	284.33
803.233	208.55
803.413	249.51
803.592	247.46
803.772	249.51
803.952	190.12
804.131	218.79
804.311	206.5
804.491	239.27
804.67	165.54
804.85	231.08
805.03	190.12
805.209	198.31
805.389	292.52
805.568	226.98
805.748	286.37
805.928	134.82
806.107	188.07
806.287	233.13
806.466	171.69
806.646	218.79
806.825	214.7
807.004	198.31
807.184	249.51
807.363	194.22
807.543	218.79
807.722	214.7
807.901	251.56
808.081	216.74
808.26	151.21
808.439	143.02
808.619	165.54
808.798	241.32
808.977	216.74
809.156	247.46
809.336	220.84
809.515	222.89
809.694	214.7
809.873	239.27
810.052	177.83
810.231	214.7
810.411	173.74
810.59	276.13
810.769	241.32
810.948	222.89
811.127	145.06
811.306	202.41
811.485	179.88
811.664	171.69
811.843	190.12
812.022	214.7
812.201	190.12
812.38	140.97
812.559	190.12
812.737	190.12
812.916	104.11
813.095	165.54
813.274	202.41
813.453	114.34
813.632	218.79
813.811	214.7
813.989	186.02
814.168	108.2
814.347	169.64
814.526	177.83
814.704	247.46
814.883	140.97
815.062	155.3
815.24	183.98
815.419	126.63
815.598	157.35
815.776	145.06
815.955	183.98
816.133	169.64
816.312	77.48
816.49	79.53
816.669	151.21
816.847	136.87
817.026	151.21
817.204	67.24
817.383	194.22
817.561	67.24
817.74	192.17
817.918	124.58
818.097	159.4
818.275	124.58
818.453	198.31
818.632	140.97
818.81	149.16
818.988	112.3
819.167	100.01
819.345	124.58
819.523	87.72
819.701	161.45
819.879	145.06
820.058	52.91
820.236	145.06
820.414	198.31
820.592	140.97
820.77	114.34
820.948	73.39
821.127	67.24
821.305	140.97
821.483	151.21
821.661	265.89
821.839	112.3
822.017	67.24
822.195	91.82
822.373	171.69
822.551	95.91
822.729	112.3
822.907	110.25
823.085	95.91
823.262	149.16
823.44	77.48
823.618	18.09
823.796	161.45
823.974	108.2
824.152	116.39
824.329	100.01
824.507	157.35
824.685	116.39
824.863	97.96
825.04	87.72
825.218	91.82
825.396	104.11
825.574	59.05
825.751	145.06
825.929	181.93
826.107	120.49
826.284	89.77
826.462	65.19
826.639	167.59
826.817	75.43
826.994	112.3
827.172	140.97
827.349	157.35
827.527	61.1
827.704	65.19
827.882	181.93
828.059	157.35
828.237	149.16
828.414	190.12
828.591	34.47
828.769	102.06
828.946	61.1
829.124	149.16
829.301	161.45
829.478	140.97
829.655	151.21
829.833	108.2
830.01	100.01
830.187	128.68
830.364	91.82
830.542	112.3
830.719	83.63
830.896	149.16
831.073	89.77
831.25	118.44
831.427	85.67
831.604	112.3
831.782	65.19
831.959	75.43
832.136	59.05
832.313	89.77
832.49	-10.58
832.667	134.82
832.844	128.68
833.021	140.97
833.198	91.82
833.374	116.39
833.551	126.63
833.728	59.05
833.905	112.3
834.082	73.39
834.259	175.78
834.436	157.35
834.612	81.58
834.789	71.34
834.966	114.34
835.143	85.67
835.319	24.23
835.496	157.35
835.673	30.38
835.85	161.45
836.026	79.53
836.203	83.63
836.38	77.48
836.556	75.43
836.733	26.28
836.909	46.76
837.086	34.47
837.262	50.86
837.439	50.86
837.616	83.63
837.792	50.86
837.968	87.72
838.145	18.09
838.321	13.99
838.498	38.57
838.674	118.44
838.851	42.67
839.027	93.87
839.203	120.49
839.38	81.58
839.556	75.43
839.732	93.87
839.909	-4.44
840.085	87.72
840.261	-24.92
840.437	42.67
840.614	40.62
840.79	59.05
840.966	100.01
841.142	124.58
841.318	-14.68
841.494	54.95
841.671	-39.25
841.847	38.57
842.023	-20.82
842.199	112.3
842.375	95.91
842.551	-49.49
842.727	83.63
842.903	75.43
843.079	57
843.255	77.48
843.431	124.58
843.607	95.91
843.783	67.24
843.959	157.35
844.134	75.43
844.31	67.24
844.486	77.48
844.662	-8.53
844.838	54.95
845.013	30.38
845.189	22.19
845.365	128.68
845.541	75.43
845.716	71.34
845.892	40.62
846.068	26.28
846.244	30.38
846.419	50.86
846.595	34.47
846.77	11.95
846.946	54.95
847.122	77.48
847.297	67.24
847.473	36.52
847.648	100.01
847.824	108.2
847.999	40.62
848.175	75.43
848.35	54.95
848.526	100.01
848.701	75.43
848.876	75.43
849.052	79.53
849.227	38.57
849.403	52.91
849.578	40.62
849.753	57
849.929	83.63
850.104	-31.06
850.279	34.47
850.454	18.09
850.63	77.48
850.805	20.14
850.98	108.2
851.155	1.71
851.33	20.14
851.505	79.53
851.681	114.34
851.856	-22.87
852.031	36.52
852.206	36.52
852.381	79.53
852.556	69.29
852.731	91.82
852.906	149.16
853.081	22.19
853.256	24.23
853.431	-4.44
853.606	5.8
853.781	18.09
853.956	-43.35
854.131	54.95
854.305	30.38
854.48	26.28
854.655	36.52
854.83	18.09
855.005	67.24
855.18	104.11
855.354	7.85
855.529	61.1
855.704	40.62
855.879	118.44
856.053	44.71
856.228	61.1
856.403	-18.77
856.577	75.43
856.752	-18.77
856.926	38.57
857.101	34.47
857.276	26.28
857.45	9.9
857.625	34.47
857.799	69.29
857.974	59.05
858.148	-20.82
858.323	85.67
858.497	-14.68
858.672	61.1
858.846	-37.2
859.02	75.43
859.195	30.38
859.369	110.25
859.543	-24.92
859.718	65.19
859.892	75.43
860.066	104.11
860.241	-0.34
860.415	-45.4
860.589	-29.01
860.763	91.82
860.938	-31.06
861.112	32.43
861.286	-43.35
861.46	-12.63
861.634	30.38
861.808	-31.06
861.982	30.38
862.157	-12.63
862.331	5.8
862.505	30.38
862.679	-47.44
862.853	28.33
863.027	-4.44
863.201	91.82
863.375	-47.44
863.549	42.67
863.722	46.76
863.896	132.78
864.07	50.86
864.244	89.77
864.418	77.48
864.592	-12.63
864.766	20.14
864.939	85.67
865.113	26.28
865.287	81.58
865.461	-37.2
865.634	50.86
865.808	34.47
865.982	-72.02
866.156	28.33
866.329	20.14
866.503	34.47
866.676	61.1
866.85	69.29
867.024	-55.64
867.197	100.01
867.371	18.09
867.544	-6.49
867.718	36.52
867.891	42.67
868.065	-47.44
868.238	18.09
868.412	42.67
868.585	42.67
868.759	-31.06
868.932	20.14
869.105	9.9
869.279	59.05
869.452	3.75
869.625	100.01
869.799	-61.78
869.972	-14.68
870.145	3.75
870.319	48.81
870.492	-24.92
870.665	34.47
870.838	54.95
871.011	13.99
871.185	73.39
871.358	3.75
871.531	42.67
871.704	-55.64
871.877	44.71
872.05	-16.73
872.223	-20.82
872.396	108.2
872.569	18.09
872.742	-31.06
872.915	-10.58
873.088	-6.49
873.261	-14.68
873.434	24.23
873.607	102.06
873.78	59.05
873.953	79.53
874.126	28.33
874.299	69.29
874.471	30.38
874.644	1.71
874.817	50.86
874.99	116.39
875.163	-4.44
875.335	59.05
875.508	-2.39
875.681	-6.49
875.853	-47.44
876.026	63.15
876.199	13.99
876.371	59.05
876.544	95.91
876.717	36.52
876.889	-6.49
877.062	108.2
877.234	-31.06
877.407	42.67
877.579	-31.06
877.752	5.8
877.924	28.33
878.097	-22.87
878.269	28.33
878.442	-4.44
878.614	28.33
878.786	3.75
878.959	-26.96
879.131	69.29
879.303	-14.68
879.476	-10.58
879.648	83.63
879.82	-6.49
879.993	18.09
880.165	30.38
880.337	-51.54
880.509	34.47
880.681	-59.73
880.854	-20.82
881.026	61.1
881.198	75.43
881.37	34.47
881.542	-22.87
881.714	71.34
881.886	-43.35
882.058	26.28
882.23	-4.44
882.402	7.85
882.574	75.43
882.746	71.34
882.918	9.9
883.09	7.85
883.262	1.71
883.434	1.71
883.606	40.62
883.778	44.71
883.95	122.54
884.122	-26.96
884.293	102.06
884.465	-72.02
884.637	40.62
884.809	-2.39
884.98	36.52
885.152	18.09
885.324	67.24
885.496	67.24
885.667	-8.53
885.839	13.99
886.011	-16.73
886.182	-49.49
886.354	28.33
886.525	32.43
886.697	26.28
886.869	-41.3
887.04	26.28
887.212	44.71
887.383	28.33
887.555	-31.06
887.726	-37.2
887.897	-22.87
888.069	71.34
888.24	54.95
888.412	34.47
888.583	9.9
888.754	28.33
888.926	-47.44
889.097	-82.26
889.268	-45.4
889.44	50.86
889.611	9.9
889.782	-6.49
889.953	20.14
890.125	85.67
890.296	61.1
890.467	-22.87
890.638	-14.68
890.809	36.52
890.98	26.28
891.151	26.28
891.323	104.11
891.494	83.63
891.665	59.05
891.836	-37.2
892.007	9.9
892.178	5.8
892.349	32.43
892.52	83.63
892.691	16.04
892.862	50.86
893.032	7.85
893.203	-2.39
893.374	83.63
893.545	83.63
893.716	5.8
893.887	42.67
894.057	-31.06
894.228	26.28
894.399	-16.73
894.57	3.75
894.74	67.24
894.911	-6.49
895.082	5.8
895.253	57
895.423	-20.82
895.594	69.29
895.764	30.38
895.935	-14.68
896.106	13.99
896.276	77.48
896.447	52.91
896.617	-31.06
896.788	-47.44
896.958	-41.3
897.129	-14.68
897.299	65.19
897.47	57
897.64	69.29
897.81	-41.3
897.981	-20.82
898.151	-53.59
898.322	79.53
898.492	-6.49
898.662	5.8
898.832	22.19
899.003	42.67
899.173	-22.87
899.343	-31.06
899.513	26.28
