Data from USB4F104151__264__14-34-32-879.txt Node

Date: Thu Mar 13 14:34:32 EDT 2025
User: louis
Spectrometer: USB4F10415
Trigger mode: 4
Integration Time (sec): 2.500000E-2
Scans to average: 1
Electric dark correction enabled: true
Nonlinearity correction enabled: false
Boxcar width: 0
XAxis mode: Wavelengths
Number of Pixels in Spectrum: 3648
>>>>>Begin Spectral Data<<<<<
178.204	-208.38
178.424	-208.38
178.644	-208.38
178.864	-161.28
179.084	-210.43
179.304	33.28
179.524	-19.97
179.744	-32.26
179.964	16.9
180.184	6.66
180.404	-34.3
180.624	0.51
180.844	23.04
181.064	-1.54
181.283	14.85
181.503	-24.06
181.723	16.9
181.943	-83.45
182.163	33.28
182.383	6.66
182.602	-9.73
182.822	-9.73
183.042	51.71
183.262	-1.54
183.482	8.7
183.701	-9.73
183.921	31.23
184.141	-89.6
184.361	27.14
184.58	23.04
184.8	-30.21
185.02	-19.97
185.239	6.66
185.459	-7.68
185.679	43.52
185.898	-95.74
186.118	-24.06
186.338	-9.73
186.557	23.04
186.777	31.23
186.997	-15.87
187.216	6.66
187.436	-5.63
187.655	16.9
187.875	33.28
188.095	-13.82
188.314	64
188.534	59.9
188.753	-34.3
188.973	-50.69
189.192	43.52
189.412	6.66
189.631	55.81
189.851	-7.68
190.07	47.62
190.29	-54.78
190.509	25.09
190.729	25.09
190.948	14.85
191.168	129.53
191.387	31.23
191.607	45.57
191.826	-1.54
192.045	-9.73
192.265	-3.58
192.484	-42.5
192.704	47.62
192.923	-3.58
193.142	92.67
193.362	-32.26
193.581	43.52
193.8	16.9
194.02	-9.73
194.239	-13.82
194.458	64
194.678	-5.63
194.897	47.62
195.116	72.19
195.335	27.14
195.555	23.04
195.774	49.66
195.993	6.66
196.212	-22.02
196.432	-15.87
196.651	-81.41
196.87	-42.5
197.089	115.2
197.308	-22.02
197.528	80.38
197.747	43.52
197.966	47.62
198.185	113.15
198.404	-1.54
198.623	68.09
198.842	31.23
199.062	88.57
199.281	139.77
199.5	-26.11
199.719	2.56
199.938	100.86
200.157	27.14
200.376	35.33
200.595	33.28
200.814	6.66
201.033	-83.45
201.252	33.28
201.471	-7.68
201.69	-38.4
201.909	-32.26
202.128	27.14
202.347	-7.68
202.566	-71.17
202.785	-19.97
203.004	2.56
203.223	64
203.442	61.95
203.661	6.66
203.879	-30.21
204.098	25.09
204.317	23.04
204.536	68.09
204.755	-9.73
204.974	37.38
205.193	10.75
205.411	96.77
205.63	59.9
205.849	72.19
206.068	-9.73
206.287	72.19
206.505	-3.58
206.724	-28.16
206.943	-40.45
207.162	-24.06
207.381	16.9
207.599	-75.26
207.818	14.85
208.037	23.04
208.255	33.28
208.474	96.77
208.693	39.42
208.911	4.61
209.13	-17.92
209.349	43.52
209.567	31.23
209.786	16.9
210.005	31.23
210.223	-17.92
210.442	-54.78
210.661	23.04
210.879	47.62
211.098	-1.54
211.316	0.51
211.535	2.56
211.753	-7.68
211.972	-22.02
212.191	16.9
212.409	88.57
212.628	31.23
212.846	-24.06
213.065	-26.11
213.283	35.33
213.502	-7.68
213.72	43.52
213.938	-9.73
214.157	29.18
214.375	23.04
214.594	-19.97
214.812	14.85
215.031	-9.73
215.249	-48.64
215.467	4.61
215.686	-38.4
215.904	18.94
216.122	-75.26
216.341	119.29
216.559	45.57
216.778	82.43
216.996	82.43
217.214	35.33
217.432	-1.54
217.651	23.04
217.869	-1.54
218.087	-15.87
218.306	-38.4
218.524	-17.92
218.742	-38.4
218.96	43.52
219.179	31.23
219.397	-9.73
219.615	123.39
219.833	6.66
220.051	-79.36
220.27	27.14
220.488	47.62
220.706	64
220.924	-83.45
221.142	-26.11
221.36	41.47
221.578	90.62
221.796	-44.54
222.015	-9.73
222.233	-17.92
222.451	41.47
222.669	25.09
222.887	76.29
223.105	-24.06
223.323	33.28
223.541	6.66
223.759	55.81
223.977	-3.58
224.195	82.43
224.413	51.71
224.631	0.51
224.849	-1.54
225.067	43.52
225.285	14.85
225.503	84.48
225.721	-15.87
225.939	27.14
226.157	14.85
226.375	145.92
226.592	55.81
226.81	-1.54
227.028	35.33
227.246	47.62
227.464	6.66
227.682	57.86
227.9	74.24
228.117	14.85
228.335	-34.3
228.553	-9.73
228.771	-19.97
228.989	-17.92
229.206	-7.68
229.424	-34.3
229.642	-46.59
229.86	4.61
230.077	33.28
230.295	-19.97
230.513	43.52
230.731	57.86
230.948	47.62
231.166	80.38
231.384	-62.98
231.601	-7.68
231.819	10.75
232.037	14.85
232.254	-24.06
232.472	18.94
232.689	-73.21
232.907	25.09
233.125	41.47
233.342	-13.82
233.56	-65.02
233.777	23.04
233.995	23.04
234.213	2.56
234.43	-17.92
234.648	-9.73
234.865	6.66
235.083	64
235.3	-17.92
235.518	2.56
235.735	2.56
235.953	61.95
236.17	64
236.388	-34.3
236.605	82.43
236.822	72.19
237.04	39.42
237.257	74.24
237.475	-24.06
237.692	66.05
237.909	6.66
238.127	-56.83
238.344	70.14
238.562	35.33
238.779	-136.7
238.996	-62.98
239.214	53.76
239.431	2.56
239.648	64
239.865	31.23
240.083	8.7
240.3	31.23
240.517	-22.02
240.735	4.61
240.952	-17.92
241.169	64
241.386	-62.98
241.603	-48.64
241.821	-58.88
242.038	23.04
242.255	-40.45
242.472	-7.68
242.689	55.81
242.907	35.33
243.124	8.7
243.341	2.56
243.558	-67.07
243.775	-56.83
243.992	-83.45
244.209	-67.07
244.426	96.77
244.643	25.09
244.86	45.57
245.078	8.7
245.295	0.51
245.512	-13.82
245.729	-24.06
245.946	25.09
246.163	18.94
246.38	-79.36
246.597	-28.16
246.814	-1.54
247.031	-9.73
247.248	27.14
247.464	14.85
247.681	10.75
247.898	-17.92
248.115	90.62
248.332	-73.21
248.549	14.85
248.766	20.99
248.983	-5.63
249.2	47.62
249.417	31.23
249.633	12.8
249.85	88.57
250.067	18.94
250.284	8.7
250.501	-50.69
250.717	-15.87
250.934	-50.69
251.151	-26.11
251.368	-50.69
251.585	-9.73
251.801	-42.5
252.018	84.48
252.235	31.23
252.451	-34.3
252.668	57.86
252.885	61.95
253.102	25.09
253.318	-50.69
253.535	8.7
253.752	43.52
253.968	39.42
254.185	-13.82
254.401	-77.31
254.618	41.47
254.835	-30.21
255.051	59.9
255.268	31.23
255.484	-9.73
255.701	-32.26
255.917	27.14
256.134	-69.12
256.351	-130.56
256.567	-120.32
256.784	23.04
257	-60.93
257.217	2.56
257.433	8.7
257.65	84.48
257.866	2.56
258.082	-26.11
258.299	6.66
258.515	16.9
258.732	23.04
258.948	74.24
259.165	-36.35
259.381	-46.59
259.597	-15.87
259.814	49.66
260.03	2.56
260.246	2.56
260.463	23.04
260.679	25.09
260.895	-9.73
261.112	-5.63
261.328	-9.73
261.544	-1.54
261.761	88.57
261.977	14.85
262.193	-46.59
262.409	55.81
262.626	84.48
262.842	14.85
263.058	107.01
263.274	14.85
263.49	68.09
263.707	57.86
263.923	-17.92
264.139	-73.21
264.355	-73.21
264.571	127.49
264.787	47.62
265.004	64
265.22	127.49
265.436	-9.73
265.652	-34.3
265.868	6.66
266.084	-9.73
266.3	-36.35
266.516	-65.02
266.732	23.04
266.948	-26.11
267.164	47.62
267.38	-1.54
267.596	8.7
267.812	82.43
268.028	18.94
268.244	4.61
268.46	-42.5
268.676	-46.59
268.892	92.67
269.108	-32.26
269.324	-67.07
269.54	2.56
269.756	45.57
269.972	-42.5
270.188	57.86
270.403	-9.73
270.619	31.23
270.835	55.81
271.051	6.66
271.267	-13.82
271.483	43.52
271.698	2.56
271.914	14.85
272.13	-1.54
272.346	-17.92
272.562	12.8
272.777	23.04
272.993	-32.26
273.209	14.85
273.425	2.56
273.64	-40.45
273.856	10.75
274.072	27.14
274.287	6.66
274.503	92.67
274.719	31.23
274.934	55.81
275.15	-50.69
275.366	10.75
275.581	14.85
275.797	55.81
276.012	-50.69
276.228	49.66
276.444	14.85
276.659	47.62
276.875	18.94
277.09	14.85
277.306	31.23
277.521	2.56
277.737	14.85
277.952	-7.68
278.168	-34.3
278.383	-13.82
278.599	-62.98
278.814	41.47
279.03	-50.69
279.245	35.33
279.461	14.85
279.676	-26.11
279.892	-67.07
280.107	6.66
280.322	-9.73
280.538	4.61
280.753	6.66
280.969	-17.92
281.184	-24.06
281.399	72.19
281.615	-67.07
281.83	-58.88
282.045	-52.74
282.26	29.18
282.476	-17.92
282.691	82.43
282.906	31.23
283.122	6.66
283.337	-56.83
283.552	-7.68
283.767	53.76
283.983	55.81
284.198	0.51
284.413	6.66
284.628	-54.78
284.843	23.04
285.058	-3.58
285.274	14.85
285.489	37.38
285.704	23.04
285.919	-34.3
286.134	47.62
286.349	2.56
286.564	-34.3
286.779	51.71
286.995	31.23
287.21	-108.03
287.425	98.81
287.64	-17.92
287.855	55.81
288.07	-28.16
288.285	14.85
288.5	-15.87
288.715	23.04
288.93	-50.69
289.145	-7.68
289.36	47.62
289.575	8.7
289.79	55.81
290.004	39.42
290.219	23.04
290.434	33.28
290.649	-67.07
290.864	70.14
291.079	-44.54
291.294	96.77
291.509	39.42
291.724	-15.87
291.938	-30.21
292.153	-9.73
292.368	8.7
292.583	29.18
292.798	47.62
293.012	57.86
293.227	49.66
293.442	-13.82
293.657	18.94
293.871	64
294.086	-7.68
294.301	66.05
294.516	117.25
294.73	98.81
294.945	-38.4
295.16	-48.64
295.374	76.29
295.589	-3.58
295.804	6.66
296.018	-26.11
296.233	39.42
296.447	-17.92
296.662	68.09
296.877	-24.06
297.091	82.43
297.306	-26.11
297.52	-5.63
297.735	23.04
297.949	39.42
298.164	-17.92
298.378	45.57
298.593	-13.82
298.807	-79.36
299.022	-17.92
299.236	35.33
299.451	33.28
299.665	-42.5
299.88	-38.4
300.094	2.56
300.309	64
300.523	35.33
300.737	16.9
300.952	23.04
301.166	-32.26
301.381	-15.87
301.595	-9.73
301.809	-26.11
302.024	51.71
302.238	31.23
302.452	49.66
302.667	25.09
302.881	23.04
303.095	88.57
303.309	12.8
303.524	51.71
303.738	10.75
303.952	-79.36
304.166	68.09
304.381	-26.11
304.595	45.57
304.809	-24.06
305.023	35.33
305.237	25.09
305.452	-26.11
305.666	-13.82
305.88	82.43
306.094	57.86
306.308	35.33
306.522	10.75
306.736	43.52
306.95	31.23
307.164	-46.59
307.379	-3.58
307.593	55.81
307.807	14.85
308.021	31.23
308.235	-42.5
308.449	31.23
308.663	47.62
308.877	96.77
309.091	-40.45
309.305	8.7
309.519	-26.11
309.733	35.33
309.947	-38.4
310.161	12.8
310.374	64
310.588	88.57
310.802	-17.92
311.016	8.7
311.23	18.94
311.444	6.66
311.658	-40.45
311.872	47.62
312.085	57.86
312.299	33.28
312.513	68.09
312.727	64
312.941	-24.06
313.154	35.33
313.368	-9.73
313.582	18.94
313.796	23.04
314.009	23.04
314.223	47.62
314.437	14.85
314.651	4.61
314.864	16.9
315.078	59.9
315.292	-67.07
315.505	8.7
315.719	-7.68
315.933	2.56
316.146	8.7
316.36	-87.55
316.573	64
316.787	76.29
317.001	88.57
317.214	29.18
317.428	2.56
317.641	-26.11
317.855	-17.92
318.068	-9.73
318.282	-1.54
318.495	92.67
318.709	-50.69
318.922	8.7
319.136	2.56
319.349	0.51
319.563	-58.88
319.776	80.38
319.99	-5.63
320.203	-34.3
320.417	0.51
320.63	-17.92
320.843	51.71
321.057	45.57
321.27	23.04
321.483	37.38
321.697	31.23
321.91	8.7
322.124	51.71
322.337	-13.82
322.55	43.52
322.763	23.04
322.977	14.85
323.19	37.38
323.403	35.33
323.617	27.14
323.83	6.66
324.043	-38.4
324.256	80.38
324.469	-22.02
324.683	-52.74
324.896	-15.87
325.109	31.23
325.322	-24.06
325.535	64
325.748	51.71
325.962	25.09
326.175	-56.83
326.388	-9.73
326.601	47.62
326.814	2.56
327.027	-13.82
327.24	96.77
327.453	-15.87
327.666	39.42
327.879	86.53
328.092	0.51
328.305	-83.45
328.518	6.66
328.731	-22.02
328.944	-22.02
329.157	-52.74
329.37	8.7
329.583	16.9
329.796	66.05
330.009	-26.11
330.222	-7.68
330.435	16.9
330.648	35.33
330.861	47.62
331.073	90.62
331.286	8.7
331.499	74.24
331.712	-40.45
331.925	-1.54
332.138	-38.4
332.35	-30.21
332.563	-7.68
332.776	-5.63
332.989	-56.83
333.202	4.61
333.414	-1.54
333.627	16.9
333.84	35.33
334.053	96.77
334.265	29.18
334.478	-34.3
334.691	47.62
334.903	47.62
335.116	14.85
335.329	31.23
335.541	64
335.754	100.86
335.966	23.04
336.179	-17.92
336.392	16.9
336.604	49.66
336.817	96.77
337.029	25.09
337.242	-28.16
337.454	10.75
337.667	-34.3
337.88	109.05
338.092	45.57
338.305	-15.87
338.517	-60.93
338.729	31.23
338.942	35.33
339.154	-34.3
339.367	-42.5
339.579	57.86
339.792	-9.73
340.004	68.09
340.217	-26.11
340.429	14.85
340.641	-34.3
340.854	20.99
341.066	-9.73
341.278	25.09
341.491	-1.54
341.703	57.86
341.915	41.47
342.128	-1.54
342.34	10.75
342.552	41.47
342.764	-5.63
342.977	31.23
343.189	10.75
343.401	107.01
343.613	4.61
343.826	6.66
344.038	39.42
344.25	14.85
344.462	0.51
344.674	45.57
344.886	-42.5
345.099	2.56
345.311	8.7
345.523	33.28
345.735	-60.93
345.947	-30.21
346.159	29.18
346.371	35.33
346.583	23.04
346.795	64
347.007	18.94
347.219	68.09
347.431	-7.68
347.643	33.28
347.855	-40.45
348.067	59.9
348.279	47.62
348.491	-28.16
348.703	23.04
348.915	70.14
349.127	25.09
349.339	-9.73
349.551	-40.45
349.763	49.66
349.975	51.71
350.187	90.62
350.399	-42.5
350.61	-44.54
350.822	-13.82
351.034	72.19
351.246	-46.59
351.458	-15.87
351.669	-9.73
351.881	-17.92
352.093	96.77
352.305	27.14
352.517	68.09
352.728	68.09
352.94	12.8
353.152	2.56
353.363	-22.02
353.575	-1.54
353.787	23.04
353.999	43.52
354.21	64
354.422	-34.3
354.633	-44.54
354.845	31.23
355.057	6.66
355.268	-9.73
355.48	35.33
355.692	12.8
355.903	-7.68
356.115	14.85
356.326	12.8
356.538	90.62
356.749	90.62
356.961	57.86
357.172	25.09
357.384	-17.92
357.595	68.09
357.807	-38.4
358.018	31.23
358.23	88.57
358.441	66.05
358.653	25.09
358.864	88.57
359.075	64
359.287	-9.73
359.498	45.57
359.709	-48.64
359.921	51.71
360.132	2.56
360.344	-15.87
360.555	-9.73
360.766	-1.54
360.977	29.18
361.189	64
361.4	-1.54
361.611	72.19
361.823	29.18
362.034	37.38
362.245	-11.78
362.456	-13.82
362.667	47.62
362.879	-54.78
363.09	23.04
363.301	-24.06
363.512	-5.63
363.723	-42.5
363.935	6.66
364.146	129.53
364.357	57.86
364.568	70.14
364.779	4.61
364.99	129.53
365.201	31.23
365.412	16.9
365.623	-42.5
365.834	49.66
366.045	14.85
366.256	70.14
366.467	45.57
366.678	64
366.889	14.85
367.1	-85.5
367.311	-9.73
367.522	-7.68
367.733	-56.83
367.944	33.28
368.155	12.8
368.366	84.48
368.577	2.56
368.788	0.51
368.999	64
369.209	6.66
369.42	66.05
369.631	80.38
369.842	33.28
370.053	8.7
370.264	59.9
370.474	-1.54
370.685	-46.59
370.896	-7.68
371.107	27.14
371.317	39.42
371.528	14.85
371.739	14.85
371.95	8.7
372.16	-1.54
372.371	-26.11
372.582	47.62
372.792	45.57
373.003	14.85
373.214	-19.97
373.424	70.14
373.635	-7.68
373.846	129.53
374.056	33.28
374.267	27.14
374.477	66.05
374.688	-22.02
374.898	-50.69
375.109	20.99
375.319	29.18
375.53	-42.5
375.74	-9.73
375.951	-1.54
376.161	0.51
376.372	55.81
376.582	8.7
376.793	10.75
377.003	31.23
377.214	14.85
377.424	59.9
377.635	27.14
377.845	-34.3
378.055	55.81
378.266	16.9
378.476	72.19
378.686	23.04
378.897	14.85
379.107	18.94
379.317	98.81
379.528	8.7
379.738	61.95
379.948	25.09
380.158	-17.92
380.369	-60.93
380.579	6.66
380.789	74.24
380.999	98.81
381.21	18.94
381.42	10.75
381.63	64
381.84	59.9
382.05	92.67
382.261	-1.54
382.471	104.96
382.681	80.38
382.891	43.52
383.101	-9.73
383.311	-26.11
383.521	47.62
383.731	57.86
383.941	43.52
384.151	4.61
384.361	18.94
384.571	41.47
384.781	-7.68
384.991	143.87
385.201	53.76
385.411	51.71
385.621	-5.63
385.831	0.51
386.041	20.99
386.251	-32.26
386.461	-17.92
386.671	6.66
386.881	49.66
387.091	-11.78
387.301	-48.64
387.511	2.56
387.72	115.2
387.93	23.04
388.14	-26.11
388.35	-58.88
388.56	139.77
388.769	14.85
388.979	-9.73
389.189	23.04
389.399	-24.06
389.609	-1.54
389.818	0.51
390.028	18.94
390.238	51.71
390.447	51.71
390.657	59.9
390.867	-1.54
391.076	-42.5
391.286	-9.73
391.496	51.71
391.705	-5.63
391.915	31.23
392.125	10.75
392.334	14.85
392.544	68.09
392.753	-28.16
392.963	2.56
393.172	51.71
393.382	-7.68
393.591	10.75
393.801	-17.92
394.01	45.57
394.22	-24.06
394.429	23.04
394.639	35.33
394.848	33.28
395.058	41.47
395.267	18.94
395.477	6.66
395.686	72.19
395.895	35.33
396.105	115.2
396.314	88.57
396.524	27.14
396.733	72.19
396.942	6.66
397.152	88.57
397.361	57.86
397.57	88.57
397.78	6.66
397.989	-7.68
398.198	109.05
398.407	150.01
398.617	137.73
398.826	16.9
399.035	-15.87
399.244	64
399.453	55.81
399.663	55.81
399.872	86.53
400.081	-28.16
400.29	117.25
400.499	74.24
400.708	137.73
400.917	6.66
401.127	80.38
401.336	-9.73
401.545	129.53
401.754	76.29
401.963	90.62
402.172	107.01
402.381	90.62
402.59	92.67
402.799	72.19
403.008	31.23
403.217	47.62
403.426	47.62
403.635	84.48
403.844	76.29
404.053	64
404.262	98.81
404.471	150.01
404.68	129.53
404.888	72.19
405.097	162.3
405.306	74.24
405.515	133.63
405.724	113.15
405.933	186.88
406.142	164.35
406.35	178.69
406.559	92.67
406.768	111.1
406.977	178.69
407.185	145.92
407.394	166.4
407.603	84.48
407.812	147.97
408.02	154.11
408.229	203.26
408.438	160.25
408.646	170.49
408.855	104.96
409.064	190.97
409.272	252.41
409.481	229.88
409.69	274.94
409.898	219.64
410.107	215.55
410.315	223.74
410.524	188.93
410.733	330.23
410.941	242.17
411.15	311.8
411.358	242.17
411.567	332.28
411.775	350.71
411.984	330.23
412.192	379.39
412.401	297.47
412.609	375.29
412.818	358.91
413.026	420.35
413.234	391.67
413.443	387.58
413.651	418.3
413.86	451.07
414.068	502.26
414.276	551.42
414.485	494.07
414.693	444.92
414.901	573.94
415.11	571.9
415.318	489.98
415.526	588.28
415.734	559.61
415.943	598.52
416.151	694.77
416.359	694.77
416.567	729.59
416.776	817.65
416.984	831.99
417.192	786.93
417.4	784.88
417.608	750.07
417.817	858.61
418.025	969.2
418.233	1008.11
418.441	909.81
418.649	924.15
418.857	899.57
419.065	1040.88
419.273	1010.16
419.481	1155.57
419.689	1186.29
419.897	1231.34
420.105	1145.33
420.313	1235.44
420.521	1278.44
420.729	1395.18
420.937	1366.51
421.145	1358.32
421.353	1475.05
421.561	1571.3
421.769	1597.93
421.977	1663.46
422.185	1573.35
422.393	1753.57
422.601	1751.53
422.809	1876.45
423.017	1765.86
423.224	1966.56
423.432	2071.01
423.64	1952.23
423.848	2169.31
424.056	2097.63
424.263	2277.85
424.471	2349.53
424.679	2327
424.887	2443.74
425.094	2488.79
425.302	2505.18
425.51	2714.07
425.718	2660.82
425.925	2845.14
426.133	2908.63
426.341	3004.88
426.548	3164.62
426.756	3156.43
426.964	3178.96
427.171	3398.09
427.379	3434.96
427.586	3494.35
427.794	3666.38
428.001	3672.52
428.209	3934.66
428.417	3891.65
428.624	4186.56
428.832	4143.55
429.039	4176.32
429.247	4135.36
429.454	4413.88
429.662	4630.97
429.869	4561.34
430.076	4794.81
430.284	4489.66
430.491	4864.44
430.699	5122.48
430.906	5206.45
431.114	5188.02
431.321	5374.38
431.528	5396.91
431.736	6035.88
431.943	6031.78
432.15	5978.53
432.358	5849.51
432.565	6408.61
432.772	6322.59
432.979	6570.4
433.187	6607.26
433.394	6670.75
433.601	7195.03
433.808	7326.1
434.016	6994.33
434.223	7389.58
434.43	7905.67
434.637	7797.13
434.844	8169.86
435.052	8331.65
435.259	8157.57
435.466	8247.68
435.673	8290.69
435.88	8663.42
436.087	9189.75
436.294	9402.74
436.501	9165.17
436.708	9144.69
436.915	9333.11
437.122	9918.82
437.329	9902.44
437.537	10197.35
437.743	10484.06
437.95	10357.09
438.157	10781.02
438.364	11004.25
438.571	11080.02
438.778	11198.81
438.985	12235.08
439.192	11565.39
439.399	12058.95
439.606	11796.81
439.813	12554.56
440.02	13269.3
440.227	12902.72
440.433	12917.05
440.64	13494.58
440.847	13224.25
441.054	13484.34
441.261	14301.48
441.467	14442.79
441.674	14467.36
441.881	15098.14
442.088	14952.73
442.294	14948.64
442.501	15354.13
442.708	15464.72
442.914	16175.37
443.121	16625.92
443.328	16359.69
443.534	17506.55
443.741	16922.88
443.948	16668.93
444.154	17981.68
444.361	17946.86
444.568	17957.1
444.774	18149.61
444.981	17971.44
445.187	18505.96
445.394	19599.57
445.6	19218.65
445.807	21182.65
446.013	20179.15
446.22	20687.04
446.426	21522.62
446.633	21426.36
446.839	22626.47
447.046	21565.62
447.252	22456.49
447.459	22782.12
447.665	22593.7
447.871	23304.35
448.078	24428.68
448.284	23222.43
448.491	24041.62
448.697	24854.66
448.903	25161.86
449.11	25124.99
449.316	25032.83
449.522	25575.55
449.728	25763.96
449.935	26294.38
450.141	26542.19
450.347	26916.97
450.553	26177.65
450.76	26355.82
450.966	27121.76
451.172	27111.52
451.378	27959.38
451.584	26937.44
451.791	27998.29
451.997	27711.58
452.203	28151.89
452.409	28274.77
452.615	28323.92
452.821	26822.76
453.027	26648.68
453.233	27842.65
453.44	26992.74
453.646	27392.09
453.852	27371.61
454.058	27813.98
454.264	26708.07
454.47	27480.16
454.676	26566.76
454.882	27521.12
455.088	25452.67
455.294	25454.72
455.5	26189.94
455.705	26155.12
455.911	25053.31
456.117	24680.58
456.323	24559.75
456.529	22868.13
456.735	24107.15
456.941	23247.01
457.147	22911.14
457.352	22522.02
457.558	22038.7
457.764	22276.27
457.97	21713.08
458.176	21113.02
458.381	21301.43
458.587	19974.35
458.793	19951.82
458.999	18981.09
459.204	20316.36
459.41	19683.54
459.616	18813.15
459.821	18325.74
460.027	18114.8
460.233	17910
460.438	17088.76
460.644	17195.26
460.85	16253.19
461.055	16042.25
461.261	16279.82
461.466	14803.23
461.672	14227.75
461.878	15618.32
462.083	14506.27
462.289	14100.78
462.494	13932.84
462.7	13359.41
462.905	13295.93
463.111	13367.6
463.316	13285.69
463.522	13244.73
463.727	13164.86
463.932	13295.93
464.138	12779.84
464.343	13199.67
464.549	12591.42
464.754	12910.91
464.959	12937.53
465.165	12583.23
465.37	12153.16
465.575	12142.92
465.781	12292.42
465.986	12360
466.191	12130.63
466.397	11927.88
466.602	11077.97
466.807	11430.23
467.012	11592.02
467.218	11618.64
467.423	11278.68
467.628	11383.12
467.833	11780.43
468.038	11166.04
468.244	10778.97
468.449	11569.49
468.654	11000.15
468.859	10733.92
469.064	11065.69
469.269	10396
469.474	10529.12
469.679	10731.87
469.885	10484.06
470.09	10525.02
470.295	10449.25
470.5	10193.25
470.705	10510.69
470.91	9933.16
471.115	10070.37
471.32	9972.07
471.525	9978.22
471.73	9898.34
471.935	9652.59
472.139	9255.28
472.344	9664.88
472.549	9492.85
472.754	9443.7
472.959	9083.25
473.164	8927.61
473.369	8604.03
473.574	8948.09
473.778	9079.16
473.983	8778.11
474.188	8898.94
474.393	8419.71
474.598	8417.66
474.802	8524.16
475.007	8395.14
475.212	8434.05
475.417	8094.08
475.621	8085.89
475.826	7854.47
476.031	7922.06
476.235	7764.36
476.44	7920.01
476.645	7649.68
476.849	7813.51
477.054	7760.27
477.259	7293.33
477.463	7637.39
477.668	7471.5
477.872	7420.3
478.077	7348.62
478.282	7346.58
478.486	7203.22
478.691	7082.39
478.895	6971.8
479.1	6941.08
479.304	7000.47
479.509	6795.67
479.713	6941.08
479.918	6767
480.122	6511
480.326	6652.31
480.531	6787.48
480.735	6691.23
480.94	6594.97
481.144	6660.51
481.348	6357.41
481.553	6494.62
481.757	6441.37
481.961	6427.04
482.166	6414.75
482.37	6521.24
482.574	6310.3
482.778	6355.36
482.983	6594.97
483.187	6355.36
483.391	6396.32
483.595	6441.37
483.8	6304.16
484.004	6599.07
484.208	6265.25
484.412	6408.61
484.616	6367.65
484.821	6361.5
485.025	6283.68
485.229	6322.59
485.433	6240.67
485.637	6347.17
485.841	6275.49
486.045	6281.63
486.249	6324.64
486.453	6226.34
486.657	6259.1
486.861	6527.39
487.065	6119.84
487.269	6154.66
487.473	6205.86
487.677	6216.1
487.881	6322.59
488.085	6379.93
488.289	6345.12
488.493	6343.07
488.697	6265.25
488.901	6357.41
489.105	6259.1
489.309	6236.58
489.512	6267.3
489.716	6332.83
489.92	6474.14
490.124	6201.76
490.328	6248.86
490.531	6214.05
490.735	6406.56
490.939	6400.41
491.143	6398.37
491.346	6283.68
491.55	6185.38
491.754	6416.8
491.958	6486.43
492.161	6541.72
492.365	6408.61
492.569	6314.4
492.772	6478.24
492.976	6390.17
493.18	6490.52
493.383	6506.91
493.587	6463.9
493.79	6678.94
493.994	6527.39
494.197	6570.4
494.401	6543.77
494.605	6719.9
494.808	6758.81
495.012	6891.93
495.215	6834.58
495.419	6801.82
495.622	6789.53
495.825	6934.93
496.029	6844.82
496.232	7182.74
496.436	7041.43
496.639	7242.13
496.843	7160.21
497.046	7154.07
497.249	7438.73
497.453	7227.79
497.656	7240.08
497.859	7512.46
498.063	7485.84
498.266	7772.55
498.469	7575.95
498.673	7465.36
498.876	7764.36
499.079	7616.91
499.282	7897.48
499.485	8036.74
499.689	8083.84
499.892	8085.89
500.095	7987.59
500.298	8135.04
500.501	8198.53
500.705	8452.48
500.908	8536.45
501.111	8427.9
501.314	8722.81
501.517	8819.07
501.72	8706.43
501.923	8610.17
502.126	9068.92
502.329	9038.2
502.532	9120.12
502.735	9218.42
502.938	9337.2
503.141	9306.48
503.344	9372.02
503.547	9400.69
503.75	9574.77
503.953	9818.47
504.156	9820.52
504.359	9957.74
504.562	10010.98
504.765	10068.33
504.968	10447.2
505.17	10320.23
505.373	10365.28
505.576	10670.43
505.779	10652
505.982	10729.82
506.185	10836.31
506.387	10854.75
506.59	10983.77
506.793	11262.29
506.996	11235.67
507.198	11489.62
507.401	11514.19
507.604	11424.08
507.807	11710.8
508.009	11884.87
508.212	11786.57
508.415	12233.03
508.617	12114.25
508.82	12310.85
509.022	12360
509.225	12568.9
509.428	12654.91
509.63	12779.84
509.833	12638.53
510.035	13230.39
510.238	13334.84
510.44	13203.77
510.643	13461.81
510.845	13457.71
511.048	13642.03
511.25	13437.23
511.453	13869.36
511.655	14369.06
511.858	14182.7
512.06	14225.7
512.262	14416.16
512.465	14094.63
512.667	14778.65
512.87	14723.36
513.072	14842.14
513.274	15155.48
513.477	15036.7
513.679	15536.4
513.881	15728.91
514.084	15722.77
514.286	15802.64
514.488	15751.44
514.69	16427.27
514.893	16128.27
515.095	16285.96
515.297	16605.44
515.499	16439.56
515.701	16929.02
515.904	16984.32
516.106	16992.51
516.308	17123.58
516.51	17381.62
516.712	17283.32
516.914	17418.49
517.116	17922.29
517.318	18012.4
517.52	17955.05
517.722	17973.49
517.925	18284.78
518.127	18553.06
518.329	18432.23
518.531	18344.17
518.733	19052.77
518.935	19015.9
519.136	19206.36
519.338	19515.61
519.54	19306.71
519.742	19577.05
519.944	19556.57
520.146	19785.94
520.348	20148.43
520.55	20021.45
520.752	20066.51
520.954	20564.17
521.155	20037.84
521.357	20627.65
521.559	20574.41
521.761	21039.29
521.963	20842.69
522.164	20940.99
522.366	21156.03
522.568	21156.03
522.77	21178.56
522.971	21588.15
523.173	21350.59
523.375	21233.85
523.576	21395.64
523.778	21475.51
523.98	21903.54
524.181	21719.22
524.383	21829.81
524.584	21969.07
524.786	22040.75
524.988	21571.77
525.189	22194.35
525.391	22331.56
525.592	22263.98
525.794	22454.44
525.995	22024.37
526.197	22175.92
526.398	22511.78
526.6	22538.41
526.801	22511.78
527.003	22315.18
527.204	22413.48
527.406	22393
527.607	22446.25
527.808	22755.49
528.01	22192.3
528.211	22444.2
528.412	22638.76
528.614	22591.66
528.815	22198.45
529.016	22628.52
529.218	22313.13
529.419	22560.94
529.62	22180.01
529.822	22257.84
530.023	22399.15
530.224	22192.3
530.425	22429.87
530.626	22292.65
530.828	22065.33
531.029	22366.38
531.23	22223.02
531.431	22137.01
531.632	22427.82
531.833	21975.22
532.035	22182.06
532.236	22141.1
532.437	21915.83
532.638	21881.01
532.839	21477.56
533.04	21936.31
533.241	21536.95
533.442	22034.61
533.643	21711.03
533.844	21700.79
534.045	21713.08
534.246	21379.26
534.447	21860.53
534.648	21475.51
534.849	21373.11
535.05	21342.39
535.251	21362.87
535.451	20969.66
535.652	21434.55
535.853	21100.73
536.054	21184.7
536.255	21199.04
536.456	20934.85
536.657	21307.58
536.857	21086.4
537.058	20926.66
537.259	20979.9
537.46	20934.85
537.66	20701.38
537.861	20318.41
538.062	20803.78
538.263	20994.24
538.463	20545.73
538.664	20570.31
538.865	20654.28
539.065	20547.78
539.266	20402.38
539.466	20564.17
539.667	20318.41
539.868	20555.97
540.068	20293.83
540.269	20351.18
540.469	20482.25
540.67	20388.04
540.87	20213.96
541.071	20142.28
541.271	20342.99
541.472	20199.63
541.672	20199.63
541.873	20140.24
542.073	19917.01
542.274	20457.67
542.474	20121.8
542.675	20152.52
542.875	20510.92
543.075	19777.75
543.276	20011.21
543.476	20232.4
543.676	20168.91
543.877	19943.63
544.077	20189.39
544.277	19882.19
544.478	19814.61
544.678	20056.27
544.878	20052.17
545.078	19830.99
545.279	19874
545.479	19794.13
545.679	20119.76
545.879	19931.34
546.079	19945.68
546.28	19794.13
546.48	19957.97
546.68	20252.87
546.88	19912.91
547.08	20218.06
547.28	19810.51
547.48	19716.31
547.68	20263.11
547.88	19769.55
548.081	20101.33
548.281	19800.27
548.481	19890.38
548.681	20279.5
548.881	19824.85
549.081	20060.37
549.28	20103.37
549.48	20007.12
549.68	19927.25
549.88	20314.31
550.08	19785.94
550.28	20074.7
550.48	20363.47
550.68	20422.86
550.88	20033.74
551.08	20183.24
551.279	20568.26
551.479	20003.02
551.679	20441.29
551.879	20431.05
552.079	20158.67
552.278	20093.13
552.478	20316.36
552.678	20332.75
552.878	20398.28
553.077	20316.36
553.277	20295.88
553.477	20775.11
553.676	20220.11
553.876	20533.45
554.076	20646.08
554.275	20342.99
554.475	20443.34
554.674	20822.21
554.874	20836.55
555.074	20668.61
555.273	20672.71
555.473	20588.74
555.672	20603.08
555.872	20435.14
556.071	20760.77
556.271	20865.22
556.47	20576.45
556.67	20506.82
556.869	20881.6
557.068	21117.12
557.268	20914.37
557.467	21024.96
557.667	21041.34
557.866	20934.85
558.065	20828.35
558.265	21098.69
558.464	21037.25
558.663	21252.28
558.863	21039.29
559.062	21127.36
559.261	21010.62
559.461	21213.37
559.66	20926.66
559.859	20957.38
560.058	20949.18
560.258	21061.82
560.457	20930.75
560.656	21262.52
560.855	20961.47
561.054	20930.75
561.253	21131.45
561.453	21172.41
561.652	20908.22
561.851	21340.35
562.05	20955.33
562.249	20857.03
562.448	21240
562.647	21319.87
562.846	21108.93
563.045	21158.08
563.244	21012.67
563.443	21381.31
563.642	21045.44
563.841	21194.94
564.04	20969.66
564.239	20887.75
564.438	21016.77
564.637	20791.49
564.836	20959.42
565.035	20961.47
565.234	21012.67
565.432	20848.83
565.631	21004.48
565.83	20885.7
566.029	20820.16
566.228	20895.94
566.427	20713.67
566.625	20433.1
566.824	20437.19
567.023	20564.17
567.222	20623.56
567.42	20512.97
567.619	20521.16
567.818	20361.42
568.016	20375.75
568.215	20543.69
568.414	20439.24
568.612	20601.03
568.811	20543.69
569.01	20273.35
569.208	20175.05
569.407	20056.27
569.605	19824.85
569.804	20377.8
570.002	20046.03
570.201	20093.13
570.4	19734.74
570.598	19810.51
570.797	19685.59
570.995	19716.31
571.193	19701.97
571.392	19583.19
571.59	19525.85
571.789	19286.23
571.987	19452.12
572.186	19144.92
572.384	19405.02
572.582	19513.56
572.781	19155.16
572.979	18825.44
573.177	19302.62
573.376	18792.67
573.574	18946.27
573.772	18893.02
573.971	18710.75
574.169	18567.4
574.367	18524.39
574.565	18675.94
574.763	18378.98
574.962	18198.76
575.16	18030.83
575.358	18282.73
575.556	18061.55
575.754	18303.21
575.952	17965.29
576.151	18047.21
576.349	17918.19
576.547	17578.23
576.745	17725.68
576.943	17539.32
577.141	17629.43
577.339	17606.9
577.537	17531.12
577.735	17565.94
577.933	17074.43
578.131	17578.23
578.329	17266.94
578.527	17271.03
578.725	17273.08
578.923	17301.75
579.121	17250.55
579.319	17162.49
579.516	17369.33
579.714	16974.08
579.912	17090.81
580.11	16697.6
580.308	16619.78
580.506	16916.73
580.704	16468.23
580.901	16722.18
581.099	16744.7
581.297	16761.09
581.495	16507.14
581.692	16765.18
581.89	16326.92
582.088	16595.2
582.285	16480.52
582.483	16425.22
582.681	16097.55
582.878	16216.33
583.076	16075.02
583.274	16103.69
583.471	15767.82
583.669	16017.68
583.866	15864.08
584.064	15743.25
584.262	15753.49
584.459	15874.32
584.657	15773.97
584.854	15972.62
585.052	15915.28
585.249	15790.35
585.447	15790.35
585.644	15608.08
585.841	15601.94
586.039	15661.33
586.236	15485.2
586.434	15481.11
586.631	15479.06
586.828	15399.19
587.026	15501.59
587.223	15231.26
587.42	15139.1
587.618	15388.95
587.815	15194.39
588.012	15128.86
588.21	15194.39
588.407	15423.76
588.604	15300.89
588.801	14954.78
588.999	15137.05
589.196	14852.38
589.393	15073.56
589.59	15087.9
589.787	15137.05
589.984	15042.84
590.182	14704.93
590.379	14930.2
590.576	14670.11
590.773	14973.21
590.97	14936.35
591.167	14770.46
591.364	14635.3
591.561	14983.45
591.758	14627.1
591.955	14811.42
592.152	14672.16
592.349	14694.69
592.546	14936.35
592.743	14958.88
592.94	14539.04
593.137	14614.82
593.334	14774.56
593.531	14608.67
593.727	14786.85
593.924	14719.26
594.121	14289.19
594.318	14655.78
594.515	14250.28
594.712	14614.82
594.908	14553.38
595.105	14678.3
595.302	14612.77
595.499	14717.22
595.696	14629.15
595.892	14596.39
596.089	14735.65
596.286	14897.44
596.482	14690.59
596.679	14575.91
596.876	14715.17
597.072	14706.98
597.269	14727.46
597.466	14522.66
597.662	14604.58
597.859	14846.24
598.055	14858.53
598.252	14655.78
598.448	15216.92
598.645	14858.53
598.841	14760.22
599.038	15046.94
599.234	14979.36
599.431	14907.68
599.627	14962.97
599.824	15120.67
600.02	14932.25
600.217	15016.22
600.413	15300.89
600.609	14969.12
600.806	15085.85
601.002	15448.34
601.198	15268.12
601.395	14924.06
601.591	15442.2
601.787	15401.24
601.984	15458.58
602.18	15726.86
602.376	15173.91
602.572	15489.3
602.769	15771.92
602.965	15515.92
603.161	15573.27
603.357	15665.42
603.553	15730.96
603.75	15739.15
603.946	15534.35
604.142	16079.11
604.338	15882.51
604.534	15927.56
604.73	15851.79
604.926	15972.62
605.122	16328.97
605.318	15960.33
605.514	16175.37
605.71	15845.65
605.906	16503.04
606.102	16066.83
606.298	16488.71
606.494	16439.56
606.69	16251.14
606.886	16513.28
607.082	16142.6
607.278	16384.26
607.474	16425.22
607.67	16380.17
607.866	16296.2
608.062	16750.85
608.257	16664.83
608.453	16621.83
608.649	16914.69
608.845	16908.54
609.041	16832.77
609.236	17025.28
609.432	16904.45
609.628	17129.72
609.824	17103.1
610.019	16857.34
610.215	17314.04
610.411	17357.05
610.606	17012.99
610.802	17365.24
610.998	17398.01
611.193	17348.86
611.389	17502.45
611.584	17385.72
611.78	17400.05
611.976	17506.55
612.171	17459.45
612.367	17629.43
612.562	17445.11
612.758	17438.97
612.953	17389.81
613.149	17672.43
613.344	17809.65
613.539	18034.92
613.735	17807.6
613.93	17776.88
614.126	17766.64
614.321	17891.57
614.517	17912.05
614.712	17823.98
614.907	17899.76
615.103	17930.48
615.298	17721.59
615.493	17957.1
615.688	18061.55
615.884	18327.78
616.079	17864.94
616.274	18051.31
616.47	17979.63
616.665	18088.17
616.86	17873.14
617.055	18127.08
617.25	18053.36
617.445	18122.99
617.641	17619.19
617.836	18067.69
618.031	17770.74
618.226	18266.35
618.421	17928.43
618.616	18088.17
618.811	17883.38
619.006	18264.3
619.201	17883.38
619.396	17817.84
619.591	17719.54
619.786	17791.22
619.981	17549.56
620.176	17684.72
620.371	17506.55
620.566	17633.52
620.761	17453.3
620.956	17461.49
621.151	17432.82
621.346	17764.59
621.541	17201.4
621.735	17508.6
621.93	17299.7
622.125	17043.71
622.32	17146.11
622.515	17246.46
622.709	16824.58
622.904	16867.58
623.099	16791.81
623.294	16726.27
623.488	16544
623.683	16851.2
623.878	16417.03
624.072	16544
624.267	16382.21
624.462	16339.21
624.656	16429.32
624.851	16236.81
625.046	16208.14
625.24	15864.08
625.435	16060.68
625.629	16079.11
625.824	15964.43
626.018	15993.1
626.213	15597.84
626.407	15743.25
626.602	15515.92
626.796	15804.69
626.991	15784.21
627.185	15460.63
627.38	15493.4
627.574	15073.56
627.768	15247.64
627.963	15122.71
628.157	15223.06
628.352	15065.37
628.546	14749.98
628.74	14962.97
628.935	14813.47
629.129	14795.04
629.323	14733.6
629.517	14790.94
629.712	14582.05
629.906	14641.44
630.1	14182.7
630.294	14346.53
630.489	14348.58
630.683	14301.48
630.877	14000.43
631.071	13842.73
631.265	14342.44
631.459	13953.32
631.653	13900.08
631.848	13916.46
632.042	13578.54
632.236	13863.21
632.43	13416.76
632.624	13713.71
632.818	13578.54
633.012	13648.18
633.206	13365.56
633.4	13388.08
633.594	13386.04
633.788	13138.23
633.982	13035.83
634.176	13064.5
634.369	13216.05
634.563	12900.67
634.757	12659.01
634.951	12849.47
635.145	12536.13
635.339	12611.9
635.533	12458.31
635.726	12392.77
635.92	12286.28
636.114	12343.62
636.308	12302.66
636.501	12040.52
636.695	12001.61
636.889	12206.41
637.083	11993.42
637.276	12089.67
637.47	11909.45
637.664	11854.16
637.857	11669.84
638.051	11612.49
638.244	11544.91
638.438	11544.91
638.632	11569.49
638.825	11385.17
639.019	11385.17
639.212	11188.57
639.406	11118.93
639.599	11092.31
639.793	11241.81
639.986	10916.19
640.18	11022.68
640.373	10740.06
640.567	10783.07
640.76	10750.3
640.954	10672.48
641.147	10463.58
641.34	10402.15
641.534	10445.15
641.727	10467.68
641.92	10441.06
642.114	10154.34
642.307	10324.32
642.5	10269.03
642.694	9871.72
642.887	10008.94
643.08	10123.62
643.273	9912.68
643.467	9757.04
643.66	9705.84
643.853	9458.03
644.046	9519.47
644.239	9548.14
644.432	9412.98
644.626	9585.01
644.819	9374.06
645.012	9329.01
645.205	9443.7
645.398	9288.05
645.591	9128.31
645.784	8999.29
645.977	8966.52
646.17	8925.56
646.363	8804.73
646.556	8630.65
646.749	8796.54
646.942	8679.8
647.135	8550.78
647.328	8681.85
647.521	8544.64
647.714	8542.59
647.907	8409.47
648.099	8329.6
648.292	8503.68
648.485	8395.14
648.678	8219.01
648.871	8276.35
649.064	8214.91
649.256	8167.81
649.449	8069.51
649.642	8067.46
649.835	8143.24
650.027	7848.33
650.22	8102.28
650.413	7797.13
650.605	7801.22
650.798	7643.53
650.991	7592.33
651.183	7733.64
651.376	7340.43
651.568	7569.8
651.761	7567.76
651.954	7600.52
652.146	7496.08
652.339	7485.84
652.531	7362.96
652.724	7231.89
652.916	7223.7
653.109	7223.7
653.301	7256.47
653.494	7068.05
653.686	7008.66
653.879	7160.21
654.071	7029.14
654.263	6855.06
654.456	6977.94
654.648	7109.01
654.84	6875.54
655.033	6822.3
655.225	6789.53
655.417	6773.14
655.61	6756.76
655.802	6740.38
655.994	6869.4
656.186	6650.27
656.379	6744.47
656.571	6443.42
656.763	6478.24
656.955	6441.37
657.148	6429.09
657.34	6453.66
657.532	6422.94
657.724	6367.65
657.916	6252.96
658.108	6371.74
658.3	6209.95
658.492	6232.48
658.684	6150.56
658.876	6113.7
659.068	6164.9
659.26	6007.2
659.452	5931.43
659.644	5935.53
659.836	6044.07
660.028	6003.11
660.22	5896.61
660.412	5913
660.604	5738.92
660.796	5822.89
660.988	5786.02
661.18	5675.43
661.372	5667.24
661.563	5865.89
661.755	5659.05
661.947	5487.02
662.139	5427.63
662.331	5491.12
662.522	5589.42
662.714	5532.08
662.906	5435.82
663.097	5441.96
663.289	5437.87
663.481	5355.95
663.673	5274.03
663.864	5210.54
664.056	5106.1
664.247	5126.58
664.439	5145.01
664.631	5181.87
664.822	5087.67
665.014	5161.39
665.205	4962.74
665.397	5157.3
665.588	4839.86
665.78	5050.8
665.971	4968.88
666.163	4827.57
666.354	5032.37
666.546	4872.63
666.737	4823.48
666.929	4800.95
667.12	4913.59
667.311	4702.65
667.503	4792.76
667.694	4684.22
667.885	4491.71
668.077	4716.98
668.268	4661.69
668.459	4622.78
668.651	4479.42
668.842	4561.34
669.033	4477.37
669.224	4473.28
669.416	4573.63
669.607	4469.18
669.798	4489.66
669.989	4659.64
670.18	4536.76
670.371	4460.99
670.563	4506.04
670.754	4522.43
670.945	4489.66
671.136	4413.88
671.327	4340.16
671.518	4348.35
671.709	4381.12
671.9	4331.97
672.091	4350.4
672.282	4211.14
672.473	4227.52
672.664	4215.23
672.855	4131.26
673.046	4258.24
673.237	4295.1
673.428	4268.48
673.619	4045.25
673.809	4192.7
674	4178.37
674.191	4155.84
674.382	4102.59
674.573	4127.17
674.764	4086.21
674.954	4127.17
675.145	4045.25
675.336	4102.59
675.527	4209.09
675.717	4200.9
675.908	4073.92
676.099	4174.27
676.289	3951.04
676.48	4022.72
676.671	4045.25
676.861	4002.24
677.052	4061.63
677.243	3834.31
677.433	4026.82
677.624	3973.57
677.814	4080.07
678.005	4018.63
678.195	4061.63
678.386	4012.48
678.576	3905.99
678.767	4012.48
678.957	3791.3
679.148	4086.21
679.338	4073.92
679.529	4069.83
679.719	3930.56
679.909	3918.28
680.1	3860.93
680.29	3981.76
680.481	4018.63
680.671	3905.99
680.861	3910.08
681.052	4022.72
681.242	3957.19
681.432	3987.91
681.622	3805.64
681.813	3844.55
682.003	4055.49
682.193	3926.47
682.383	4006.34
682.573	3983.81
682.764	3889.6
682.954	3922.37
683.144	4055.49
683.334	3918.28
683.524	3877.32
683.714	3930.56
683.904	3955.14
684.094	3932.61
684.284	3930.56
684.474	3717.58
684.664	3965.38
684.854	3940.8
685.044	3922.37
685.234	3856.84
685.424	4020.67
685.614	3695.05
685.804	3840.45
685.994	3875.27
686.184	3854.79
686.374	3881.41
686.564	3850.69
686.753	3885.51
686.943	3799.49
687.133	3856.84
687.323	3785.16
687.513	3856.84
687.702	3871.17
687.892	3693
688.082	3717.58
688.272	3766.73
688.461	3738.05
688.651	3733.96
688.841	3725.77
689.03	3824.07
689.22	3678.66
689.41	3914.18
689.599	3664.33
689.789	3733.96
689.979	3690.95
690.168	3873.22
690.358	3709.38
690.547	3727.82
690.737	3727.82
690.926	3678.66
691.116	3637.7
691.305	3738.05
691.495	3742.15
691.684	3561.93
691.874	3703.24
692.063	3566.03
692.252	3621.32
692.442	3658.18
692.631	3723.72
692.82	3736.01
693.01	3553.74
693.199	3467.72
693.388	3658.18
693.578	3545.55
693.767	3635.66
693.956	3613.13
694.146	3611.08
694.335	3570.12
694.524	3623.37
694.713	3664.33
694.902	3553.74
695.092	3594.7
695.281	3629.51
695.47	3547.59
695.659	3570.12
695.848	3510.73
696.037	3580.36
696.226	3480.01
696.415	3480.01
696.604	3525.07
696.793	3449.29
696.982	3340.75
697.171	3457.48
697.36	3553.74
697.549	3482.06
697.738	3457.48
697.927	3490.25
698.116	3434.96
698.305	3447.24
698.494	3449.29
698.683	3350.99
698.872	3488.2
699.061	3287.5
699.25	3469.77
699.438	3606.98
699.627	3482.06
699.816	3553.74
700.005	3283.41
700.193	3416.52
700.382	3406.28
700.571	3328.46
700.76	3353.04
700.948	3477.96
701.137	3279.31
701.326	3363.28
701.514	3355.08
701.703	3447.24
701.892	3439.05
702.08	3381.71
702.269	3373.52
702.457	3420.62
702.646	3312.08
702.834	3334.61
703.023	3285.45
703.212	3412.43
703.4	3348.94
703.589	3219.92
703.777	3324.37
703.965	3168.72
704.154	3303.89
704.342	3205.58
704.531	3197.39
704.719	3228.11
704.907	3299.79
705.096	3097.04
705.284	3185.1
705.472	3326.41
705.661	3099.09
705.849	3385.8
706.037	3230.16
706.226	3174.86
706.414	3105.23
706.602	3113.42
706.79	3133.9
706.979	3217.87
707.167	3160.53
707.355	3072.47
707.543	3080.66
707.731	3004.88
707.919	3049.94
708.107	3185.1
708.296	3008.98
708.484	2963.92
708.672	3015.12
708.86	3150.29
709.048	2900.44
709.236	3111.38
709.424	3092.94
709.612	3056.08
709.8	2968.02
709.988	3119.57
710.176	3088.85
710.364	2988.5
710.551	3060.18
710.739	2884.05
710.927	2980.31
711.115	3045.84
711.303	2939.35
711.491	2947.54
711.679	2974.16
711.866	2927.06
712.054	2968.02
712.242	2931.16
712.43	3006.93
712.617	2853.33
712.805	2886.1
712.993	2904.53
713.181	2884.05
713.368	2734.55
713.556	2824.66
713.744	2783.7
713.931	2787.8
714.119	2892.24
714.306	2806.23
714.494	2777.56
714.682	2804.18
714.869	2816.47
715.057	2845.14
715.244	2742.74
715.432	2707.93
715.619	2785.75
715.807	2697.69
715.994	2818.52
716.182	2716.12
716.369	2791.89
716.556	2767.32
716.744	2685.4
716.931	2648.54
717.119	2693.59
717.306	2736.6
717.493	2718.17
717.681	2593.24
717.868	2623.96
718.055	2660.82
718.242	2636.25
718.43	2703.83
718.617	2595.29
718.804	2621.91
718.991	2589.14
719.179	2591.19
719.366	2587.1
719.553	2640.34
719.74	2439.64
719.927	2599.38
720.114	2556.38
720.301	2597.34
720.488	2578.9
720.676	2513.37
720.863	2382.3
721.05	2513.37
721.237	2496.99
721.424	2574.81
721.611	2537.95
721.798	2445.79
721.985	2449.88
722.172	2451.93
722.358	2462.17
722.545	2415.07
722.732	2460.12
722.919	2542.04
723.106	2367.96
723.293	2441.69
723.48	2361.82
723.667	2374.11
723.853	2456.03
724.04	2378.2
724.227	2345.44
724.414	2417.12
724.6	2361.82
724.787	2390.49
724.974	2275.81
725.161	2316.76
725.347	2286.05
725.534	2378.2
725.72	2392.54
725.907	2357.72
726.094	2384.35
726.28	2380.25
726.467	2232.8
726.653	2318.81
726.84	2316.76
727.027	2376.16
727.213	2406.88
727.4	2277.85
727.586	2339.29
727.773	2144.74
727.959	2236.89
728.145	2185.69
728.332	2185.69
728.518	2423.26
728.705	2120.16
728.891	2267.61
729.077	2185.69
729.264	2200.03
729.45	2296.28
729.636	2310.62
729.823	2187.74
730.009	2228.7
730.195	2146.78
730.382	2095.58
730.568	2179.55
730.754	2163.17
730.94	2210.27
731.126	2107.87
731.313	2122.21
731.499	2128.35
731.685	2095.58
731.871	2146.78
732.057	2208.22
732.243	2202.08
732.429	2085.34
732.615	2079.2
732.801	2044.38
732.987	2066.91
733.173	2087.39
733.359	2034.14
733.545	2154.98
733.731	2167.26
733.917	2079.2
734.103	2099.68
734.289	2023.91
734.475	2011.62
734.661	2058.72
734.847	2073.06
735.033	2103.78
735.219	2095.58
735.404	2046.43
735.59	2015.71
735.776	1919.46
735.962	2013.67
736.148	1997.28
736.333	2046.43
736.519	2003.43
736.705	1970.66
736.89	1890.79
737.076	2056.67
737.262	1964.51
737.447	1968.61
737.633	1978.85
737.819	1948.13
738.004	1956.32
738.19	1964.51
738.375	1841.64
738.561	1876.45
738.747	1931.75
738.932	1868.26
739.118	1956.32
739.303	1946.08
739.489	1964.51
739.674	1737.19
739.859	1794.53
740.045	1874.4
740.23	1948.13
740.416	1794.53
740.601	1882.6
740.786	1827.3
740.972	1788.39
741.157	1759.72
741.342	1825.25
741.528	1845.73
741.713	1888.74
741.898	1745.38
742.084	1886.69
742.269	1788.39
742.454	1804.77
742.639	1825.25
742.824	1720.81
743.01	1735.14
743.195	1837.54
743.38	1731.05
743.565	1745.38
743.75	1704.42
743.935	1661.41
744.12	1802.72
744.305	1681.89
744.49	1640.93
744.675	1595.88
744.86	1628.65
745.045	1683.94
745.23	1712.61
745.415	1597.93
745.6	1624.55
745.785	1595.88
745.97	1663.46
746.155	1645.03
746.34	1737.19
746.525	1606.12
746.71	1520.1
746.895	1524.2
747.079	1561.06
747.264	1489.39
747.449	1559.02
747.634	1563.11
747.819	1526.25
748.003	1454.57
748.188	1432.04
748.373	1489.39
748.557	1606.12
748.742	1436.14
748.927	1436.14
749.111	1448.43
749.296	1448.43
749.481	1401.32
749.665	1386.99
749.85	1403.37
750.034	1366.51
750.219	1432.04
750.404	1319.4
750.588	1432.04
750.773	1331.69
750.957	1255.92
751.141	1288.68
751.326	1341.93
751.51	1296.88
751.695	1432.04
751.879	1262.06
752.064	1403.37
752.248	1249.77
752.432	1307.12
752.617	1300.97
752.801	1300.97
752.985	1251.82
753.17	1284.59
753.354	1221.1
753.538	1251.82
753.722	1165.81
753.907	1145.33
754.091	1239.53
754.275	1178.09
754.459	1040.88
754.643	1165.81
754.828	1210.86
755.012	1104.37
755.196	1092.08
755.38	1147.37
755.564	1061.36
755.748	1030.64
755.932	1202.67
756.116	1096.18
756.3	1141.23
756.484	1122.8
756.668	1120.75
756.852	1026.54
757.036	1008.11
757.22	1104.37
757.404	1040.88
757.588	977.39
757.772	932.34
757.956	985.58
758.14	1047.02
758.323	989.68
758.507	909.81
758.691	1038.83
758.875	967.15
759.059	1051.12
759.242	985.58
759.426	1008.11
759.61	989.68
759.794	973.3
759.977	975.35
760.161	1024.5
760.345	918
760.528	1022.45
760.712	965.11
760.895	965.11
761.079	948.72
761.263	879.09
761.446	825.84
761.63	836.08
761.813	868.85
761.997	813.56
762.18	879.09
762.364	899.57
762.547	793.08
762.731	809.46
762.914	801.27
763.098	989.68
763.281	813.56
763.464	842.23
763.648	874.99
763.831	801.27
764.015	788.98
764.198	885.23
764.381	942.58
764.564	932.34
764.748	805.36
764.931	831.99
765.114	795.12
765.297	842.23
765.481	805.36
765.664	825.84
765.847	717.3
766.03	731.64
766.213	860.66
766.397	737.78
766.58	690.68
766.763	764.4
766.946	817.65
767.129	793.08
767.312	696.82
767.495	762.36
767.678	788.98
767.861	760.31
768.044	776.69
768.227	745.97
768.41	715.25
768.593	737.78
768.776	770.55
768.959	782.84
769.142	723.44
769.324	629.24
769.507	713.21
769.69	719.35
769.873	686.58
770.056	752.12
770.239	696.82
770.421	678.39
770.604	739.83
770.787	762.36
770.97	731.64
771.152	631.29
771.335	762.36
771.518	709.11
771.7	760.31
771.883	731.64
772.066	700.92
772.248	657.91
772.431	631.29
772.613	664.05
772.796	623.09
772.978	666.1
773.161	784.88
773.343	684.53
773.526	653.81
773.708	623.09
773.891	608.76
774.073	662.01
774.256	649.72
774.438	641.53
774.621	549.37
774.803	559.61
774.985	649.72
775.168	711.16
775.35	637.43
775.532	621.05
775.715	561.66
775.897	592.37
776.079	702.97
776.261	551.42
776.444	487.93
776.626	567.8
776.808	555.51
776.99	530.94
777.173	604.66
777.355	498.17
777.537	567.8
777.719	555.51
777.901	522.74
778.083	557.56
778.265	520.7
778.447	514.55
778.629	475.64
778.811	571.9
778.993	465.4
779.175	416.25
779.357	502.26
779.539	424.44
779.721	489.98
779.903	477.69
780.085	449.02
780.267	506.36
780.449	430.59
780.631	580.09
780.812	600.57
780.994	463.35
781.176	508.41
781.358	367.1
781.54	434.68
781.721	477.69
781.903	434.68
782.085	461.3
782.267	496.12
782.448	412.15
782.63	346.62
782.812	383.48
782.993	528.89
783.175	481.78
783.357	320
783.538	389.63
783.72	369.15
783.901	424.44
784.083	379.39
784.264	418.3
784.446	360.95
784.627	399.87
784.809	383.48
784.99	401.91
785.172	498.17
785.353	358.91
785.535	377.34
785.716	352.76
785.897	305.66
786.079	371.19
786.26	403.96
786.441	352.76
786.623	330.23
786.804	311.8
786.985	352.76
787.167	389.63
787.348	301.56
787.529	317.95
787.71	457.21
787.891	399.87
788.073	293.37
788.254	309.76
788.435	412.15
788.616	336.38
788.797	320
788.978	358.91
789.159	311.8
789.34	326.14
789.522	248.32
789.703	303.61
789.884	276.99
790.065	293.37
790.246	313.85
790.427	309.76
790.607	326.14
790.788	375.29
790.969	297.47
791.15	276.99
791.331	354.81
791.512	240.12
791.693	211.45
791.874	344.57
792.054	336.38
792.235	322.04
792.416	270.84
792.597	281.08
792.778	258.56
792.958	240.12
793.139	291.32
793.32	260.6
793.5	285.18
793.681	236.03
793.862	229.88
794.042	240.12
794.223	256.51
794.404	178.69
794.584	217.6
794.765	276.99
794.945	219.64
795.126	217.6
795.306	262.65
795.487	262.65
795.667	211.45
795.848	256.51
796.028	227.84
796.209	317.95
796.389	270.84
796.57	213.5
796.75	238.08
796.93	193.02
797.111	221.69
797.291	205.31
797.471	268.8
797.652	170.49
797.832	227.84
798.012	279.04
798.192	182.78
798.373	180.73
798.553	174.59
798.733	229.88
798.913	178.69
799.093	162.3
799.274	248.32
799.454	213.5
799.634	164.35
799.814	236.03
799.994	193.02
800.174	156.16
800.354	213.5
800.534	137.73
800.714	190.97
800.894	100.86
801.074	178.69
801.254	219.64
801.434	236.03
801.614	188.93
801.794	90.62
801.974	907.76
802.154	186.88
802.334	152.06
802.514	133.63
802.693	246.27
802.873	152.06
803.053	254.46
803.233	143.87
803.413	186.88
803.592	152.06
803.772	154.11
803.952	186.88
804.131	150.01
804.311	199.16
804.491	170.49
804.67	139.77
804.85	78.33
805.03	137.73
805.209	145.92
805.389	154.11
805.568	143.87
805.748	104.96
805.928	117.25
806.107	229.88
806.287	203.26
806.466	100.86
806.646	156.16
806.825	92.67
807.004	74.24
807.184	186.88
807.363	248.32
807.543	145.92
807.722	166.4
807.901	180.73
808.081	193.02
808.26	39.42
808.439	59.9
808.619	113.15
808.798	109.05
808.977	197.12
809.156	133.63
809.336	141.82
809.515	229.88
809.694	141.82
809.873	119.29
810.052	90.62
810.231	145.92
810.411	84.48
810.59	188.93
810.769	104.96
810.948	139.77
811.127	76.29
811.306	129.53
811.485	147.97
811.664	164.35
811.843	129.53
812.022	174.59
812.201	121.34
812.38	35.33
812.559	121.34
812.737	168.45
812.916	25.09
813.095	55.81
813.274	109.05
813.453	102.91
813.632	133.63
813.811	137.73
813.989	121.34
814.168	76.29
814.347	80.38
814.526	131.58
814.704	156.16
814.883	84.48
815.062	90.62
815.24	158.21
815.419	119.29
815.598	64
815.776	20.99
815.955	98.81
816.133	92.67
816.312	98.81
816.49	115.2
816.669	72.19
816.847	141.82
817.026	145.92
817.204	-5.63
817.383	86.53
817.561	41.47
817.74	129.53
817.918	90.62
818.097	74.24
818.275	-1.54
818.453	115.2
818.632	64
818.81	129.53
818.988	35.33
819.167	74.24
819.345	49.66
819.523	127.49
819.701	96.77
819.879	133.63
820.058	6.66
820.236	107.01
820.414	113.15
820.592	47.62
820.77	88.57
820.948	74.24
821.127	68.09
821.305	68.09
821.483	76.29
821.661	104.96
821.839	123.39
822.017	41.47
822.195	35.33
822.373	51.71
822.551	64
822.729	129.53
822.907	113.15
823.085	82.43
823.262	37.38
823.44	2.56
823.618	35.33
823.796	55.81
823.974	55.81
824.152	78.33
824.329	16.9
824.507	-3.58
824.685	123.39
824.863	45.57
825.04	100.86
825.218	129.53
825.396	14.85
825.574	41.47
825.751	-13.82
825.929	8.7
826.107	-22.02
826.284	74.24
826.462	-38.4
826.639	68.09
826.817	45.57
826.994	84.48
827.172	12.8
827.349	92.67
827.527	64
827.704	92.67
827.882	49.66
828.059	82.43
828.237	39.42
828.414	35.33
828.591	-13.82
828.769	37.38
828.946	80.38
829.124	137.73
829.301	64
829.478	90.62
829.655	39.42
829.833	90.62
830.01	23.04
830.187	66.05
830.364	37.38
830.542	14.85
830.719	88.57
830.896	59.9
831.073	147.97
831.25	64
831.427	64
831.604	88.57
831.782	-1.54
831.959	39.42
832.136	33.28
832.313	8.7
832.49	18.94
832.667	18.94
832.844	80.38
833.021	90.62
833.198	82.43
833.374	64
833.551	143.87
833.728	47.62
833.905	55.81
834.082	-19.97
834.259	76.29
834.436	88.57
834.612	53.76
834.789	31.23
834.966	14.85
835.143	72.19
835.319	-9.73
835.496	49.66
835.673	-5.63
835.85	64
836.026	-26.11
836.203	29.18
836.38	25.09
836.556	23.04
836.733	82.43
836.909	88.57
837.086	37.38
837.262	-19.97
837.439	-17.92
837.616	59.9
837.792	64
837.968	88.57
838.145	-26.11
838.321	-1.54
838.498	39.42
838.674	113.15
838.851	61.95
839.027	-26.11
839.203	94.72
839.38	33.28
839.556	23.04
839.732	0.51
839.909	72.19
840.085	88.57
840.261	47.62
840.437	14.85
840.614	-30.21
840.79	96.77
840.966	49.66
841.142	-9.73
841.318	25.09
841.494	41.47
841.671	59.9
841.847	25.09
842.023	-7.68
842.199	-7.68
842.375	31.23
842.551	-40.45
842.727	25.09
842.903	59.9
843.079	45.57
843.255	121.34
843.431	72.19
843.607	-65.02
843.783	-9.73
843.959	45.57
844.134	-32.26
844.31	100.86
844.486	51.71
844.662	35.33
844.838	104.96
845.013	35.33
845.189	39.42
845.365	0.51
845.541	27.14
845.716	-83.45
845.892	39.42
846.068	27.14
846.244	39.42
846.419	55.81
846.595	-1.54
846.77	47.62
846.946	66.05
847.122	31.23
847.297	-30.21
847.473	72.19
847.648	10.75
847.824	90.62
847.999	2.56
848.175	-5.63
848.35	39.42
848.526	31.23
848.701	43.52
848.876	59.9
849.052	14.85
849.227	-24.06
849.403	-13.82
849.578	-1.54
849.753	-42.5
849.929	-24.06
850.104	0.51
850.279	-30.21
850.454	31.23
850.63	35.33
850.805	14.85
850.98	39.42
851.155	20.99
851.33	-26.11
851.505	-7.68
851.681	49.66
851.856	-3.58
852.031	31.23
852.206	33.28
852.381	61.95
852.556	-17.92
852.731	51.71
852.906	-11.78
853.081	23.04
853.256	0.51
853.431	57.86
853.606	2.56
853.781	-67.07
853.956	-42.5
854.131	-13.82
854.305	0.51
854.48	31.23
854.655	-50.69
854.83	10.75
855.005	2.56
855.18	82.43
855.354	27.14
855.529	-9.73
855.704	10.75
855.879	-1.54
856.053	-58.88
856.228	61.95
856.403	-11.78
856.577	39.42
856.752	6.66
856.926	35.33
857.101	-7.68
857.276	-24.06
857.45	-5.63
857.625	121.34
857.799	8.7
857.974	-28.16
858.148	-32.26
858.323	78.33
858.497	8.7
858.672	-9.73
858.846	-71.17
859.02	74.24
859.195	-118.27
859.369	-1.54
859.543	-5.63
859.718	-56.83
859.892	14.85
860.066	72.19
860.241	-7.68
860.415	0.51
860.589	-73.21
860.763	37.38
860.938	-42.5
861.112	27.14
861.286	-15.87
861.46	-52.74
861.634	-1.54
861.808	12.8
861.982	2.56
862.157	0.51
862.331	-5.63
862.505	-48.64
862.679	-9.73
862.853	-75.26
863.027	33.28
863.201	33.28
863.375	25.09
863.549	53.76
863.722	-17.92
863.896	23.04
864.07	-50.69
864.244	25.09
864.418	107.01
864.592	6.66
864.766	-24.06
864.939	-9.73
865.113	-1.54
865.287	47.62
865.461	-34.3
865.634	-7.68
865.808	-19.97
865.982	2.56
866.156	6.66
866.329	-73.21
866.503	41.47
866.676	55.81
866.85	-13.82
867.024	6.66
867.197	49.66
867.371	-15.87
867.544	88.57
867.718	-99.84
867.891	23.04
868.065	-79.36
868.238	-60.93
868.412	47.62
868.585	-17.92
868.759	-50.69
868.932	-58.88
869.105	20.99
869.279	10.75
869.452	-46.59
869.625	2.56
869.799	35.33
869.972	55.81
870.145	-50.69
870.319	-44.54
870.492	-77.31
870.665	-71.17
870.838	-42.5
871.011	-50.69
871.185	31.23
871.358	-48.64
871.531	51.71
871.704	-13.82
871.877	-65.02
872.05	16.9
872.223	-30.21
872.396	10.75
872.569	41.47
872.742	-24.06
872.915	-52.74
873.088	14.85
873.261	-22.02
873.434	-24.06
873.607	68.09
873.78	-30.21
873.953	-38.4
874.126	-11.78
874.299	82.43
874.471	31.23
874.644	-7.68
874.817	31.23
874.99	6.66
875.163	18.94
875.335	41.47
875.508	6.66
875.681	129.53
875.853	-1.54
876.026	14.85
876.199	-44.54
876.371	43.52
876.544	-22.02
876.717	-24.06
876.889	27.14
877.062	23.04
877.234	-42.5
877.407	-26.11
877.579	23.04
877.752	31.23
877.924	-13.82
878.097	23.04
878.269	-1.54
878.442	49.66
878.614	-7.68
878.786	-36.35
878.959	-73.21
879.131	47.62
879.303	-26.11
879.476	0.51
879.648	-50.69
879.82	-3.58
879.993	-75.26
880.165	41.47
880.337	-71.17
880.509	18.94
880.681	-73.21
880.854	-30.21
881.026	-34.3
881.198	31.23
881.37	-26.11
881.542	-17.92
881.714	8.7
881.886	14.85
882.058	33.28
882.23	14.85
882.402	-48.64
882.574	31.23
882.746	-9.73
882.918	82.43
883.09	27.14
883.262	-3.58
883.434	-7.68
883.606	-34.3
883.778	-40.45
883.95	-1.54
884.122	-7.68
884.293	-9.73
884.465	-9.73
884.637	-9.73
884.809	-7.68
884.98	-13.82
885.152	-40.45
885.324	-1.54
885.496	-5.63
885.667	-9.73
885.839	-67.07
886.011	35.33
886.182	23.04
886.354	55.81
886.525	31.23
886.697	-7.68
886.869	-26.11
887.04	14.85
887.212	45.57
887.383	104.96
887.555	-13.82
887.726	-13.82
887.897	-58.88
888.069	-9.73
888.24	55.81
888.412	39.42
888.583	-73.21
888.754	-7.68
888.926	-9.73
889.097	-22.02
889.268	-36.35
889.44	-22.02
889.611	-26.11
889.782	10.75
889.953	-30.21
890.125	49.66
890.296	10.75
890.467	-40.45
890.638	35.33
890.809	-54.78
890.98	-54.78
891.151	31.23
891.323	-7.68
891.494	-15.87
891.665	-89.6
891.836	-7.68
892.007	-26.11
892.178	-9.73
892.349	18.94
892.52	2.56
892.691	0.51
892.862	-17.92
893.032	-15.87
893.203	8.7
893.374	-5.63
893.545	6.66
893.716	-75.26
893.887	8.7
894.057	-32.26
894.228	-122.37
894.399	-83.45
894.57	27.14
894.74	-46.59
894.911	-54.78
895.082	-36.35
895.253	-34.3
895.423	-42.5
895.594	-9.73
895.764	-38.4
895.935	-65.02
896.106	-116.22
896.276	-83.45
896.447	-19.97
896.617	-19.97
896.788	-67.07
896.958	-42.5
897.129	6.66
897.299	-17.92
897.47	18.94
897.64	-50.69
897.81	-58.88
897.981	29.18
898.151	-42.5
898.322	-75.26
898.492	39.42
898.662	-65.02
898.832	31.23
899.003	-99.84
899.173	-50.69
899.343	-99.84
899.513	-34.3
