Data from USB4F104151__319__14-35-09-743.txt Node

Date: Thu Mar 13 14:35:09 EDT 2025
User: louis
Spectrometer: USB4F10415
Trigger mode: 4
Integration Time (sec): 2.500000E-2
Scans to average: 1
Electric dark correction enabled: true
Nonlinearity correction enabled: false
Boxcar width: 0
XAxis mode: Wavelengths
Number of Pixels in Spectrum: 3648
>>>>>Begin Spectral Data<<<<<
178.204	-105.81
178.424	-105.81
178.644	-105.81
178.864	-66.9
179.084	-83.28
179.304	-56.66
179.524	23.21
179.744	-23.89
179.964	74.41
180.184	49.83
180.404	25.26
180.624	-42.32
180.844	-32.08
181.064	-66.9
181.283	23.21
181.503	17.07
181.723	8.87
181.943	6.83
182.163	154.28
182.383	25.26
182.602	76.46
182.822	72.36
183.042	66.22
183.262	39.59
183.482	-32.08
183.701	80.55
183.921	64.17
184.141	-17.75
184.361	41.64
184.58	-32.08
184.8	62.12
185.02	0.68
185.239	96.94
185.459	74.41
185.679	76.46
185.898	23.21
186.118	23.21
186.338	41.64
186.557	55.98
186.777	-32.08
186.997	-42.32
187.216	23.21
187.436	113.32
187.655	113.32
187.875	31.4
188.095	70.31
188.314	80.55
188.534	66.22
188.753	-1.37
188.973	62.12
189.192	146.09
189.412	105.13
189.631	66.22
189.851	72.36
190.07	33.45
190.29	-21.85
190.509	82.6
190.729	-48.47
190.948	29.35
191.168	219.82
191.387	55.98
191.607	23.21
191.826	23.21
192.045	74.41
192.265	-1.37
192.484	4.78
192.704	96.94
192.923	-38.23
193.142	41.64
193.362	8.87
193.581	146.09
193.8	-15.7
194.02	58.03
194.239	43.69
194.458	55.98
194.678	15.02
194.897	-9.56
195.116	35.5
195.335	68.27
195.555	51.88
195.774	33.45
195.993	55.98
196.212	33.45
196.432	-30.04
196.651	35.5
196.87	-34.13
197.089	82.6
197.308	72.36
197.528	60.07
197.747	17.07
197.966	62.12
198.185	76.46
198.404	-11.61
198.623	66.22
198.842	47.79
199.062	68.27
199.281	103.08
199.5	2.73
199.719	96.94
199.938	35.5
200.157	88.75
200.376	47.79
200.595	39.59
200.814	60.07
201.033	80.55
201.252	84.65
201.471	47.79
201.69	53.93
201.909	39.59
202.128	111.27
202.347	19.11
202.566	58.03
202.785	-40.28
203.004	0.68
203.223	107.18
203.442	55.98
203.661	39.59
203.879	105.13
204.098	23.21
204.317	6.83
204.536	80.55
204.755	31.4
204.974	96.94
205.193	51.88
205.411	148.14
205.63	39.59
205.849	64.17
206.068	-7.51
206.287	-42.32
206.505	47.79
206.724	19.11
206.943	-23.89
207.162	0.68
207.381	35.5
207.599	58.03
207.818	15.02
208.037	10.92
208.255	86.7
208.474	10.92
208.693	45.74
208.911	55.98
209.13	55.98
209.349	55.98
209.567	33.45
209.786	123.56
210.005	41.64
210.223	6.83
210.442	68.27
210.661	8.87
210.879	23.21
211.098	-25.94
211.316	17.07
211.535	80.55
211.753	31.4
211.972	129.7
212.191	-13.65
212.409	96.94
212.628	51.88
212.846	31.4
213.065	90.79
213.283	96.94
213.502	53.93
213.72	74.41
213.938	43.69
214.157	-95.57
214.375	107.18
214.594	72.36
214.812	15.02
215.031	10.92
215.249	-38.23
215.467	105.13
215.686	43.69
215.904	51.88
216.122	35.5
216.341	131.75
216.559	33.45
216.778	4.78
216.996	74.41
217.214	-56.66
217.432	39.59
217.651	29.35
217.869	10.92
218.087	55.98
218.306	23.21
218.524	90.79
218.742	101.03
218.96	23.21
219.179	23.21
219.397	33.45
219.615	45.74
219.833	74.41
220.051	25.26
220.27	96.94
220.488	66.22
220.706	-21.85
220.924	-7.51
221.142	78.51
221.36	62.12
221.578	64.17
221.796	68.27
222.015	74.41
222.233	33.45
222.451	111.27
222.669	47.79
222.887	49.83
223.105	39.59
223.323	72.36
223.541	74.41
223.759	137.9
223.977	58.03
224.195	117.42
224.413	-1.37
224.631	-13.65
224.849	43.69
225.067	105.13
225.285	39.59
225.503	64.17
225.721	6.83
225.939	31.4
226.157	64.17
226.375	178.86
226.592	88.75
226.81	90.79
227.028	-13.65
227.246	10.92
227.464	23.21
227.682	113.32
227.9	80.55
228.117	6.83
228.335	41.64
228.553	8.87
228.771	15.02
228.989	80.55
229.206	123.56
229.424	-1.37
229.642	86.7
229.86	-13.65
230.077	94.89
230.295	-5.46
230.513	66.22
230.731	80.55
230.948	139.94
231.166	74.41
231.384	21.16
231.601	19.11
231.819	121.51
232.037	39.59
232.254	19.11
232.472	19.11
232.689	27.31
232.907	25.26
233.125	131.75
233.342	31.4
233.56	19.11
233.777	4.78
233.995	-19.8
234.213	80.55
234.43	8.87
234.648	45.74
234.865	23.21
235.083	60.07
235.3	15.02
235.518	80.55
235.735	51.88
235.953	66.22
236.17	88.75
236.388	131.75
236.605	27.31
236.822	66.22
237.04	125.61
237.257	66.22
237.475	-56.66
237.692	90.79
237.909	41.64
238.127	-34.13
238.344	55.98
238.562	96.94
238.779	-5.46
238.996	92.84
239.214	-3.41
239.431	105.13
239.648	-23.89
239.865	47.79
240.083	74.41
240.3	-7.51
240.517	6.83
240.735	58.03
240.952	33.45
241.169	64.17
241.386	58.03
241.603	12.97
241.821	-34.13
242.038	121.51
242.255	115.37
242.472	39.59
242.689	-13.65
242.907	66.22
243.124	31.4
243.341	43.69
243.558	6.83
243.775	80.55
243.992	-21.85
244.209	39.59
244.426	105.13
244.643	74.41
244.86	82.6
245.078	-9.56
245.295	68.27
245.512	76.46
245.729	64.17
245.946	55.98
246.163	88.75
246.38	2.73
246.597	51.88
246.814	19.11
247.031	-13.65
247.248	90.79
247.464	64.17
247.681	-1.37
247.898	64.17
248.115	107.18
248.332	53.93
248.549	47.79
248.766	51.88
248.983	55.98
249.2	23.21
249.417	84.65
249.633	10.92
249.85	31.4
250.067	27.31
250.284	121.51
250.501	0.68
250.717	47.79
250.934	-9.56
251.151	58.03
251.368	21.16
251.585	6.83
251.801	-13.65
252.018	15.02
252.235	98.99
252.451	-3.41
252.668	31.4
252.885	98.99
253.102	45.74
253.318	15.02
253.535	55.98
253.752	25.26
253.968	72.36
254.185	66.22
254.401	96.94
254.618	76.46
254.835	10.92
255.051	84.65
255.268	101.03
255.484	33.45
255.701	-38.23
255.917	60.07
256.134	64.17
256.351	41.64
256.567	21.16
256.784	23.21
257	39.59
257.217	80.55
257.433	82.6
257.65	49.83
257.866	139.94
258.082	47.79
258.299	-3.41
258.515	6.83
258.732	-48.47
258.948	47.79
259.165	72.36
259.381	-32.08
259.597	23.21
259.814	64.17
260.03	-38.23
260.246	107.18
260.463	23.21
260.679	80.55
260.895	31.4
261.112	101.03
261.328	-23.89
261.544	-9.56
261.761	115.37
261.977	31.4
262.193	-38.23
262.409	64.17
262.626	76.46
262.842	33.45
263.058	105.13
263.274	82.6
263.49	-1.37
263.707	70.31
263.923	8.87
264.139	74.41
264.355	43.69
264.571	58.03
264.787	47.79
265.004	123.56
265.22	88.75
265.436	41.64
265.652	76.46
265.868	117.42
266.084	-17.75
266.3	47.79
266.516	-17.75
266.732	33.45
266.948	15.02
267.164	43.69
267.38	129.7
267.596	49.83
267.812	105.13
268.028	72.36
268.244	23.21
268.46	105.13
268.676	47.79
268.892	82.6
269.108	-1.37
269.324	-1.37
269.54	-34.13
269.756	0.68
269.972	-21.85
270.188	90.79
270.403	-25.94
270.619	10.92
270.835	-25.94
271.051	25.26
271.267	-7.51
271.483	29.35
271.698	90.79
271.914	21.16
272.13	19.11
272.346	-9.56
272.562	68.27
272.777	105.13
272.993	-34.13
273.209	0.68
273.425	37.55
273.64	-46.42
273.856	164.52
274.072	72.36
274.287	-30.04
274.503	43.69
274.719	43.69
274.934	53.93
275.15	-54.61
275.366	6.83
275.581	15.02
275.797	53.93
276.012	25.26
276.228	41.64
276.444	55.98
276.659	31.4
276.875	55.98
277.09	19.11
277.306	25.26
277.521	94.89
277.737	23.21
277.952	47.79
278.168	33.45
278.383	39.59
278.599	17.07
278.814	15.02
279.03	-17.75
279.245	127.66
279.461	39.59
279.676	66.22
279.892	-42.32
280.107	66.22
280.322	10.92
280.538	70.31
280.753	19.11
280.969	15.02
281.184	62.12
281.399	96.94
281.615	88.75
281.83	43.69
282.045	23.21
282.26	15.02
282.476	68.27
282.691	2.73
282.906	35.5
283.122	47.79
283.337	0.68
283.552	74.41
283.767	72.36
283.983	90.79
284.198	27.31
284.413	129.7
284.628	0.68
284.843	33.45
285.058	141.99
285.274	-1.37
285.489	29.35
285.704	88.75
285.919	72.36
286.134	68.27
286.349	49.83
286.564	-15.7
286.779	178.86
286.995	88.75
287.21	-44.37
287.425	64.17
287.64	39.59
287.855	60.07
288.07	-9.56
288.285	0.68
288.5	76.46
288.715	58.03
288.93	35.5
289.145	0.68
289.36	139.94
289.575	0.68
289.79	131.75
290.004	39.59
290.219	113.32
290.434	23.21
290.649	58.03
290.864	66.22
291.079	0.68
291.294	64.17
291.509	43.69
291.724	72.36
291.938	15.02
292.153	-1.37
292.368	6.83
292.583	55.98
292.798	58.03
293.012	66.22
293.227	21.16
293.442	10.92
293.657	82.6
293.871	127.66
294.086	41.64
294.301	39.59
294.516	15.02
294.73	51.88
294.945	-7.51
295.16	10.92
295.374	68.27
295.589	51.88
295.804	23.21
296.018	58.03
296.233	78.51
296.447	49.83
296.662	23.21
296.877	39.59
297.091	96.94
297.306	47.79
297.52	80.55
297.735	15.02
297.949	25.26
298.164	45.74
298.378	125.61
298.593	39.59
298.807	33.45
299.022	47.79
299.236	17.07
299.451	17.07
299.665	-34.13
299.88	17.07
300.094	6.83
300.309	88.75
300.523	55.98
300.737	-1.37
300.952	82.6
301.166	96.94
301.381	8.87
301.595	-32.08
301.809	21.16
302.024	121.51
302.238	-13.65
302.452	74.41
302.667	31.4
302.881	90.79
303.095	74.41
303.309	23.21
303.524	-38.23
303.738	66.22
303.952	-34.13
304.166	109.22
304.381	33.45
304.595	166.57
304.809	-1.37
305.023	25.26
305.237	15.02
305.452	6.83
305.666	76.46
305.88	43.69
306.094	19.11
306.308	90.79
306.522	2.73
306.736	88.75
306.95	23.21
307.164	51.88
307.379	-7.51
307.593	84.65
307.807	115.37
308.021	-9.56
308.235	-23.89
308.449	23.21
308.663	31.4
308.877	62.12
309.091	21.16
309.305	-19.8
309.519	-30.04
309.733	113.32
309.947	-99.67
310.161	-52.56
310.374	78.51
310.588	101.03
310.802	6.83
311.016	47.79
311.23	103.08
311.444	-1.37
311.658	76.46
311.872	107.18
312.085	72.36
312.299	84.65
312.513	96.94
312.727	66.22
312.941	15.02
313.154	64.17
313.368	41.64
313.582	43.69
313.796	66.22
314.009	33.45
314.223	113.32
314.437	-7.51
314.651	101.03
314.864	39.59
315.078	41.64
315.292	74.41
315.505	72.36
315.719	51.88
315.933	-21.85
316.146	47.79
316.36	43.69
316.573	121.51
316.787	47.79
317.001	55.98
317.214	96.94
317.428	55.98
317.641	-107.86
317.855	94.89
318.068	49.83
318.282	33.45
318.495	137.9
318.709	2.73
318.922	15.02
319.136	70.31
319.349	62.12
319.563	74.41
319.776	-19.8
319.99	27.31
320.203	8.87
320.417	-13.65
320.63	6.83
320.843	117.42
321.057	86.7
321.27	64.17
321.483	33.45
321.697	68.27
321.91	105.13
322.124	68.27
322.337	33.45
322.55	80.55
322.763	55.98
322.977	-1.37
323.19	47.79
323.403	80.55
323.617	31.4
323.83	125.61
324.043	2.73
324.256	-1.37
324.469	0.68
324.683	74.41
324.896	-23.89
325.109	139.94
325.322	-25.94
325.535	58.03
325.748	168.62
325.962	53.93
326.175	-9.56
326.388	107.18
326.601	35.5
326.814	33.45
327.027	141.99
327.24	125.61
327.453	-42.32
327.666	58.03
327.879	111.27
328.092	-13.65
328.305	-25.94
328.518	-1.37
328.731	0.68
328.944	51.88
329.157	101.03
329.37	72.36
329.583	45.74
329.796	80.55
330.009	82.6
330.222	80.55
330.435	66.22
330.648	96.94
330.861	74.41
331.073	19.11
331.286	47.79
331.499	39.59
331.712	45.74
331.925	47.79
332.138	0.68
332.35	80.55
332.563	-42.32
332.776	88.75
332.989	41.64
333.202	131.75
333.414	-15.7
333.627	41.64
333.84	43.69
334.053	125.61
334.265	39.59
334.478	82.6
334.691	-17.75
334.903	51.88
335.116	-1.37
335.329	74.41
335.541	98.99
335.754	55.98
335.966	72.36
336.179	17.07
336.392	33.45
336.604	84.65
336.817	111.27
337.029	49.83
337.242	58.03
337.454	109.22
337.667	39.59
337.88	109.22
338.092	74.41
338.305	125.61
338.517	72.36
338.729	47.79
338.942	74.41
339.154	58.03
339.367	10.92
339.579	84.65
339.792	35.5
340.004	76.46
340.217	47.79
340.429	31.4
340.641	31.4
340.854	-13.65
341.066	105.13
341.278	94.89
341.491	109.22
341.703	68.27
341.915	31.4
342.128	72.36
342.34	37.55
342.552	-1.37
342.764	33.45
342.977	66.22
343.189	90.79
343.401	27.31
343.613	55.98
343.826	72.36
344.038	58.03
344.25	109.22
344.462	-38.23
344.674	60.07
344.886	19.11
345.099	49.83
345.311	72.36
345.523	31.4
345.735	64.17
345.947	31.4
346.159	8.87
346.371	58.03
346.583	6.83
346.795	148.14
347.007	41.64
347.219	80.55
347.431	62.12
347.643	98.99
347.855	6.83
348.067	156.33
348.279	43.69
348.491	113.32
348.703	109.22
348.915	62.12
349.127	23.21
349.339	66.22
349.551	0.68
349.763	55.98
349.975	51.88
350.187	98.99
350.399	115.37
350.61	55.98
350.822	58.03
351.034	-17.75
351.246	98.99
351.458	74.41
351.669	55.98
351.881	68.27
352.093	148.14
352.305	84.65
352.517	137.9
352.728	66.22
352.94	31.4
353.152	92.84
353.363	45.74
353.575	84.65
353.787	39.59
353.999	43.69
354.21	117.42
354.422	55.98
354.633	15.02
354.845	23.21
355.057	25.26
355.268	25.26
355.48	58.03
355.692	-9.56
355.903	107.18
356.115	-66.9
356.326	-58.71
356.538	33.45
356.749	74.41
356.961	90.79
357.172	37.55
357.384	47.79
357.595	154.28
357.807	72.36
358.018	29.35
358.23	133.8
358.441	141.99
358.653	33.45
358.864	23.21
359.075	80.55
359.287	47.79
359.498	146.09
359.709	39.59
359.921	72.36
360.132	96.94
360.344	70.31
360.555	17.07
360.766	33.45
360.977	76.46
361.189	78.51
361.4	66.22
361.611	105.13
361.823	117.42
362.034	129.7
362.245	58.03
362.456	31.4
362.667	90.79
362.879	58.03
363.09	101.03
363.301	80.55
363.512	80.55
363.723	41.64
363.935	164.52
364.146	29.35
364.357	51.88
364.568	101.03
364.779	19.11
364.99	96.94
365.201	78.51
365.412	31.4
365.623	107.18
365.834	150.18
366.045	21.16
366.256	33.45
366.467	53.93
366.678	55.98
366.889	84.65
367.1	37.55
367.311	148.14
367.522	47.79
367.733	117.42
367.944	111.27
368.155	78.51
368.366	88.75
368.577	70.31
368.788	113.32
368.999	82.6
369.209	88.75
369.42	88.75
369.631	152.23
369.842	121.51
370.053	15.02
370.264	141.99
370.474	70.31
370.685	115.37
370.896	-30.04
371.107	27.31
371.317	60.07
371.528	68.27
371.739	43.69
371.95	84.65
372.16	170.66
372.371	15.02
372.582	74.41
372.792	96.94
373.003	101.03
373.214	121.51
373.424	148.14
373.635	66.22
373.846	84.65
374.056	49.83
374.267	72.36
374.477	94.89
374.688	62.12
374.898	47.79
375.109	64.17
375.319	58.03
375.53	76.46
375.74	0.68
375.951	141.99
376.161	121.51
376.372	90.79
376.582	31.4
376.793	82.6
377.003	-15.7
377.214	-36.18
377.424	74.41
377.635	29.35
377.845	105.13
378.055	39.59
378.266	-9.56
378.476	23.21
378.686	-75.09
378.897	23.21
379.107	82.6
379.317	170.66
379.528	23.21
379.738	148.14
379.948	58.03
380.158	88.75
380.369	45.74
380.579	109.22
380.789	72.36
380.999	84.65
381.21	88.75
381.42	98.99
381.63	74.41
381.84	96.94
382.05	113.32
382.261	2.73
382.471	60.07
382.681	80.55
382.891	131.75
383.101	68.27
383.311	35.5
383.521	33.45
383.731	15.02
383.941	47.79
384.151	76.46
384.361	121.51
384.571	90.79
384.781	-17.75
384.991	174.76
385.201	74.41
385.411	137.9
385.621	115.37
385.831	55.98
386.041	58.03
386.251	72.36
386.461	64.17
386.671	55.98
386.881	29.35
387.091	-1.37
387.301	127.66
387.511	86.7
387.72	88.75
387.93	27.31
388.14	-17.75
388.35	58.03
388.56	62.12
388.769	64.17
388.979	64.17
389.189	45.74
389.399	23.21
389.609	64.17
389.818	47.79
390.028	4.78
390.238	51.88
390.447	-9.56
390.657	113.32
390.867	72.36
391.076	23.21
391.286	55.98
391.496	2.73
391.705	80.55
391.915	125.61
392.125	137.9
392.334	150.18
392.544	137.9
392.753	148.14
392.963	45.74
393.172	123.56
393.382	82.6
393.591	172.71
393.801	41.64
394.01	105.13
394.22	121.51
394.429	96.94
394.639	35.5
394.848	68.27
395.058	72.36
395.267	88.75
395.477	121.51
395.686	70.31
395.895	178.86
396.105	164.52
396.314	137.9
396.524	80.55
396.733	35.5
396.942	127.66
397.152	109.22
397.361	135.85
397.57	129.7
397.78	105.13
397.989	150.18
398.198	135.85
398.407	121.51
398.617	187.05
398.826	144.04
399.035	219.82
399.244	137.9
399.453	58.03
399.663	66.22
399.872	113.32
400.081	88.75
400.29	174.76
400.499	154.28
400.708	174.76
400.917	96.94
401.127	117.42
401.336	121.51
401.545	221.86
401.754	166.57
401.963	129.7
402.172	117.42
402.381	55.98
402.59	187.05
402.799	107.18
403.008	115.37
403.217	170.66
403.426	178.86
403.635	168.62
403.844	76.46
404.053	182.95
404.262	139.94
404.471	174.76
404.68	133.8
404.888	191.14
405.097	129.7
405.306	205.48
405.515	86.7
405.724	166.57
405.933	203.43
406.142	162.47
406.35	232.1
406.559	205.48
406.768	209.58
406.977	172.71
407.185	228.01
407.394	205.48
407.603	164.52
407.812	228.01
408.02	268.97
408.229	260.77
408.438	285.35
408.646	328.36
408.855	197.29
409.064	238.25
409.272	271.01
409.481	318.12
409.69	215.72
409.898	277.16
410.107	387.75
410.315	309.93
410.524	326.31
410.733	350.89
410.941	418.47
411.15	383.65
411.358	383.65
411.567	467.62
411.775	457.38
411.984	428.71
412.192	457.38
412.401	496.29
412.609	481.96
412.818	512.67
413.026	606.88
413.234	539.3
413.443	567.97
413.651	625.31
413.86	653.98
414.068	629.41
414.276	764.57
414.485	735.9
414.693	703.14
414.901	768.67
415.11	817.82
415.318	705.18
415.526	715.42
415.734	871.07
415.943	834.21
416.151	858.78
416.359	920.22
416.567	889.5
416.776	1041.05
416.984	1049.24
417.192	1082.01
417.4	1073.82
417.608	1059.48
417.817	1112.73
418.025	1268.38
418.233	1278.62
418.441	1219.22
418.649	1290.9
418.857	1417.88
419.065	1444.5
419.273	1376.92
419.481	1497.75
419.689	1591.95
419.897	1542.8
420.105	1604.24
420.313	1727.12
420.521	1749.65
420.729	1747.6
420.937	1850
421.145	1901.2
421.353	1972.88
421.561	2022.03
421.769	1970.83
421.977	2241.16
422.185	2120.33
422.393	2337.41
422.601	2517.64
422.809	2458.25
423.017	2462.34
423.224	2597.51
423.432	2761.34
423.64	2677.38
423.848	2923.13
424.056	2927.23
424.263	3148.41
424.471	3197.56
424.679	3132.03
424.887	3185.27
425.094	3459.7
425.302	3357.3
425.51	3547.76
425.718	3787.38
425.925	3629.68
426.133	3703.41
426.341	4059.76
426.548	4201.07
426.756	4156.01
426.964	4291.18
427.171	4522.6
427.379	4651.62
427.586	4776.55
427.794	4786.79
428.001	4995.68
428.209	5171.8
428.417	5061.21
428.624	5640.79
428.832	5536.34
429.039	5503.57
429.247	5593.69
429.454	6027.85
429.662	6281.8
429.869	6025.81
430.076	6371.91
430.284	6124.11
430.491	6675.01
430.699	6900.29
430.906	6814.27
431.114	7111.23
431.321	7424.57
431.528	7455.29
431.736	7977.52
431.943	8196.65
432.15	7891.51
432.358	8157.74
432.565	8403.5
432.772	8469.03
432.979	8753.7
433.187	9194.01
433.394	9058.85
433.601	9730.58
433.808	9693.72
434.016	9697.81
434.223	9953.81
434.43	10633.74
434.637	10430.99
434.844	11106.82
435.052	11260.41
435.259	11450.88
435.466	11422.2
435.673	11375.1
435.88	11883
436.087	12573.16
436.294	12560.88
436.501	12261.87
436.708	12399.09
436.915	12841.45
437.122	13421.02
437.329	13464.03
437.537	13861.34
437.743	14105.04
437.95	13898.2
438.157	14827.98
438.364	15180.23
438.571	15260.1
438.778	15342.02
438.985	16681.39
439.192	16038.33
439.399	16417.2
439.606	16028.09
439.813	17256.87
440.02	18020.76
440.227	17963.42
440.433	17455.52
440.64	18225.56
440.847	18002.33
441.054	18567.57
441.261	19902.84
441.467	19396.99
441.674	19966.33
441.881	20453.75
442.088	20420.98
442.294	20353.4
442.501	20615.54
442.708	21018.99
442.914	21983.58
443.121	23017.8
443.328	22448.47
443.534	24033.6
443.741	23404.87
443.948	22593.87
444.154	24738.1
444.361	24600.88
444.568	24717.62
444.774	24568.12
444.981	24758.58
445.187	25499.94
445.394	26444.06
445.6	26247.45
445.807	28741.88
446.013	27560.2
446.22	28002.56
446.426	29225.2
446.633	29419.75
446.839	30462.17
447.046	29374.7
447.252	30847.19
447.459	30855.38
447.665	30820.56
447.871	32489.66
448.078	33310.89
448.284	31961.28
448.491	32848.05
448.697	33695.91
448.903	34554.01
449.11	34656.41
449.316	34197.66
449.522	35014.8
449.728	35596.43
449.935	36114.56
450.141	35729.55
450.347	36796.54
450.553	35367.05
450.76	35924.1
450.966	37312.63
451.172	36794.49
451.378	37769.32
451.584	37066.87
451.791	37838.95
451.997	37740.65
452.203	38559.84
452.409	38512.73
452.615	38408.29
452.821	37286
453.027	36253.83
453.233	38613.09
453.44	36974.71
453.646	37316.72
453.852	37668.97
454.058	37625.96
454.264	36841.59
454.47	37812.33
454.676	36989.05
454.882	37734.51
455.088	35008.66
455.294	35510.41
455.5	35844.23
455.705	36212.87
455.911	34900.12
456.117	34019.49
456.323	33767.59
456.529	32018.63
456.735	33050.8
456.941	32260.29
457.147	31840.45
457.352	31064.27
457.558	30476.51
457.764	30148.83
457.97	30390.49
458.176	29645.03
458.381	29563.11
458.587	27988.22
458.793	27713.8
458.999	26609.94
459.204	28371.19
459.41	27795.71
459.616	25870.62
459.821	25710.88
460.027	25471.27
460.233	25262.38
460.438	24017.21
460.644	24383.8
460.85	23281.99
461.055	22583.63
461.261	22608.21
461.466	21115.24
461.672	20480.37
461.878	21729.63
462.083	20251
462.289	20101.5
462.494	19716.48
462.7	18940.3
462.905	18194.84
463.111	18842
463.316	18917.77
463.522	18846.09
463.727	18563.47
463.932	18528.66
464.138	18026.9
464.343	18297.24
464.549	17525.15
464.754	18233.75
464.959	18370.96
465.165	18190.74
465.37	17375.65
465.575	16863.66
465.781	17596.83
465.986	17553.82
466.191	16908.71
466.397	16679.34
466.602	15866.3
466.807	16361.91
467.012	16216.5
467.218	16351.67
467.423	16210.36
467.628	16128.44
467.833	16970.15
468.038	16091.57
468.244	15690.17
468.449	16216.5
468.654	15737.27
468.859	15612.35
469.064	15718.84
469.269	15030.73
469.474	14957
469.679	15522.24
469.885	14838.22
470.09	15024.58
470.295	14940.61
470.5	14481.87
470.705	14576.08
470.91	14363.09
471.115	14391.76
471.32	14490.06
471.525	14465.49
471.73	14117.33
471.935	14184.91
472.139	13687.26
472.344	13658.59
472.549	13457.89
472.754	13500.89
472.959	13244.9
473.164	12945.89
473.369	12806.63
473.574	13146.59
473.778	12962.28
473.983	12614.12
474.188	12800.49
474.393	12190.19
474.598	12175.86
474.802	12165.62
475.007	12052.98
475.212	12106.23
475.417	11713.02
475.621	11790.84
475.826	11756.02
476.031	11534.84
476.235	11252.22
476.44	11463.16
476.645	11160.06
476.849	11176.45
477.054	11100.67
477.259	11078.15
477.463	10873.35
477.668	10600.97
477.872	10918.4
478.077	10545.67
478.282	10398.22
478.486	10261.01
478.691	10224.14
478.895	10156.56
479.1	10170.9
479.304	10009.11
479.509	9826.84
479.713	9941.52
479.918	9699.86
480.122	9708.05
480.326	9738.77
480.531	9712.15
480.735	9542.17
480.94	9777.69
481.144	9712.15
481.348	9425.43
481.553	9669.14
481.757	9396.76
481.961	9361.95
482.166	9570.84
482.37	9415.19
482.574	9200.16
482.778	9493.02
482.983	9509.4
483.187	9320.99
483.391	9376.28
483.595	9282.08
483.8	9101.86
484.004	9329.18
484.208	9431.58
484.412	9200.16
484.616	9210.4
484.821	9443.87
485.025	9241.12
485.229	9417.24
485.433	9220.64
485.637	9355.8
485.841	9224.73
486.045	9181.73
486.249	9243.17
486.453	9116.19
486.657	9259.55
486.861	9345.56
487.065	8913.44
487.269	9310.75
487.473	9067.04
487.677	9292.32
487.881	9280.03
488.085	9142.82
488.289	9239.07
488.493	9198.11
488.697	9241.12
488.901	9228.83
489.105	9402.91
489.309	9335.32
489.512	9470.49
489.716	9306.65
489.92	9509.4
490.124	9265.69
490.328	9511.45
490.531	9306.65
490.735	9427.48
490.939	9191.97
491.143	9271.84
491.346	9171.49
491.55	9517.59
491.754	9482.78
491.958	9591.32
492.161	9323.04
492.365	9601.56
492.569	9470.49
492.772	9587.22
492.976	9439.77
493.18	9697.81
493.383	9765.4
493.587	9765.4
493.79	9910.8
493.994	9576.98
494.197	9734.68
494.401	10185.23
494.605	9986.58
494.808	10064.4
495.012	10289.68
495.215	10312.21
495.419	10156.56
495.622	10168.85
495.825	10396.17
496.029	10396.17
496.232	10723.85
496.436	10648.07
496.639	10877.44
496.843	10517
497.046	11094.53
497.249	11162.11
497.453	11125.25
497.656	11196.93
497.859	11164.16
498.063	11219.46
498.266	11227.65
498.469	11495.93
498.673	11723.26
498.876	11876.85
499.079	11958.77
499.282	11856.37
499.485	12024.31
499.689	12321.26
499.892	12220.91
500.095	12454.38
500.298	12507.63
500.501	12401.13
500.705	12851.69
500.908	13089.25
501.111	13146.59
501.314	13165.03
501.517	13353.44
501.72	13449.69
501.923	13488.6
502.126	13666.78
502.329	14090.71
502.532	13867.48
502.735	14037.46
502.938	14408.14
503.141	14305.74
503.344	14555.6
503.547	14588.36
503.75	14649.8
503.953	15038.92
504.156	15178.18
504.359	15206.85
504.562	15468.99
504.765	15722.94
504.968	15854.01
505.17	15802.81
505.373	16056.76
505.576	16253.36
505.779	16247.22
505.982	16351.67
506.185	16972.2
506.387	16894.38
506.59	17088.93
506.793	17349.03
506.996	17416.61
507.198	17791.39
507.401	18061.72
507.604	17928.6
507.807	18209.17
508.009	18325.91
508.212	18243.99
508.415	18780.56
508.617	18923.91
508.82	18850.19
509.022	18864.52
509.225	19526.02
509.428	19566.98
509.63	19894.65
509.833	19882.36
510.035	20097.4
510.238	19995
510.44	20281.72
510.643	20535.67
510.845	20699.5
511.048	20947.31
511.25	21229.93
511.453	21231.97
511.655	21918.04
511.858	21700.96
512.06	21885.28
512.262	21862.75
512.465	22096.22
512.667	22403.41
512.87	22657.36
513.072	22794.57
513.274	23007.56
513.477	23224.65
513.679	23855.42
513.881	23863.61
514.084	23943.49
514.286	24125.75
514.488	24281.4
514.69	24926.51
514.893	24863.02
515.095	25028.91
515.297	24944.94
515.499	25311.53
515.701	25604.39
515.904	25698.59
516.106	26093.85
516.308	26030.37
516.51	26609.94
516.712	26523.93
516.914	26695.96
517.116	27437.32
517.318	27457.8
517.52	27635.97
517.722	27414.79
517.925	28047.61
518.127	28158.2
518.329	28631.29
518.531	28238.08
518.733	28838.13
518.935	29001.97
519.136	29346.03
519.338	29587.69
519.54	29546.73
519.742	29610.21
519.944	29720.81
520.146	30197.98
520.348	30439.64
520.55	30439.64
520.752	30361.82
520.954	30701.78
521.155	30681.3
521.357	31625.42
521.559	31338.7
521.761	31699.14
521.963	31693
522.164	31748.29
522.366	32225.47
522.568	32151.74
522.77	32303.29
522.971	32661.69
523.173	32411.84
523.375	32815.29
523.576	32600.25
523.778	32807.09
523.98	33169.58
524.181	33564.84
524.383	33259.7
524.584	33775.78
524.786	33659.05
524.988	33456.3
525.189	33634.47
525.391	33892.52
525.592	33925.28
525.794	34214.05
525.995	33915.05
526.197	34443.42
526.398	34003.11
526.6	34214.05
526.801	34203.81
527.003	34433.18
527.204	34472.09
527.406	34373.79
527.607	34822.3
527.808	34807.96
528.01	34220.19
528.211	34463.9
528.412	34934.93
528.614	34848.92
528.815	35047.57
529.016	35055.76
529.218	34498.72
529.419	35037.33
529.62	34949.27
529.822	34357.41
530.023	34922.65
530.224	34746.52
530.425	34920.6
530.626	34564.25
530.828	34754.71
531.029	35231.89
531.23	34261.15
531.431	34511
531.632	34744.47
531.833	34732.18
532.035	34846.87
532.236	34678.94
532.437	34836.63
532.638	34304.16
532.839	34785.43
533.04	34877.59
533.241	34300.06
533.442	34687.13
533.643	34234.53
533.844	34609.31
534.045	34556.06
534.246	34394.27
534.447	34599.07
534.648	34238.62
534.849	34298.02
535.05	34099.36
535.251	34080.93
535.451	34508.96
535.652	34193.57
535.853	33968.29
536.054	33900.71
536.255	34031.78
536.456	33947.81
536.657	34179.23
536.857	34009.25
537.058	33724.58
537.259	33878.18
537.46	34062.5
537.66	33867.94
537.861	34168.99
538.062	33896.61
538.263	33700.01
538.463	33339.57
538.664	33657
538.865	33642.67
539.065	34013.35
539.266	33140.91
539.466	33951.91
539.667	33355.95
539.868	33687.72
540.068	33661.1
540.269	33185.97
540.469	33722.54
540.67	33388.72
540.87	33337.52
541.071	33333.42
541.271	33390.77
541.472	32981.17
541.672	32970.93
541.873	33046.71
542.073	32710.84
542.274	33228.98
542.474	32977.08
542.675	33093.81
542.875	32862.39
543.075	32770.23
543.276	32889.01
543.476	33169.58
543.676	33013.94
543.877	32925.88
544.077	32602.3
544.277	32860.34
544.478	32821.43
544.678	32868.53
544.878	32878.77
545.078	32716.98
545.279	32843.96
545.479	32616.63
545.679	32846.01
545.879	32772.28
546.079	32772.28
546.28	32770.23
546.48	32415.93
546.68	32854.2
546.88	33015.99
547.08	32737.46
547.28	32866.49
547.48	32338.11
547.68	32837.81
547.88	32497.85
548.081	32653.5
548.281	32688.31
548.481	32583.87
548.681	32995.51
548.881	32489.66
549.081	32647.35
549.28	32676.02
549.48	32884.92
549.68	32561.34
549.88	33052.85
550.08	32551.1
550.28	33001.65
550.48	32884.92
550.68	32839.86
550.88	32442.56
551.08	33001.65
551.279	32753.85
551.479	32934.07
551.679	32921.78
551.879	33077.43
552.079	33212.59
552.278	32694.46
552.478	32641.21
552.678	33245.36
552.878	33263.79
553.077	32876.72
553.277	32673.98
553.477	33374.38
553.676	33302.7
553.876	33018.03
554.076	32975.03
554.275	33196.21
554.475	32868.53
554.674	33173.68
554.874	33267.89
555.074	33347.76
555.273	33028.27
555.473	33431.72
555.672	32944.31
555.872	33087.67
556.071	33204.4
556.271	33804.45
556.47	33036.47
556.67	33145.01
556.869	33321.13
557.068	33507.5
557.268	33058.99
557.467	33228.98
557.667	33585.32
557.866	33396.91
558.065	33140.91
558.265	33575.08
558.464	33173.68
558.663	33665.19
558.863	33253.55
559.062	33573.03
559.261	33171.63
559.461	33831.08
559.66	32932.02
559.859	33349.81
560.058	33345.71
560.258	33505.45
560.457	33165.49
560.656	33265.84
560.855	33226.93
561.054	33235.12
561.253	33005.75
561.453	33314.99
561.652	33444.01
561.851	33839.27
562.05	33032.37
562.249	33163.44
562.448	33652.91
562.647	33319.09
562.846	33366.19
563.045	33255.6
563.244	33323.18
563.443	33228.98
563.642	33190.06
563.841	33241.26
564.04	32942.26
564.239	33618.09
564.438	32889.01
564.637	32766.13
564.836	33149.1
565.035	32682.17
565.234	33237.17
565.432	32833.72
565.631	32575.67
565.83	32977.08
566.029	32800.95
566.228	32731.32
566.427	32444.6
566.625	32393.4
566.824	32305.34
567.023	32786.61
567.222	31776.97
567.42	32686.26
567.619	32147.65
567.818	32350.4
568.016	32073.92
568.215	32440.51
568.414	32024.77
568.612	32149.7
568.811	31852.74
569.01	32401.6
569.208	31699.14
569.407	32106.69
569.605	31705.29
569.804	32075.97
570.002	31434.95
570.201	31860.93
570.4	31662.28
570.598	31152.34
570.797	31406.28
570.995	31807.69
571.193	30933.2
571.392	31342.8
571.59	31023.31
571.789	31082.7
571.987	30720.21
572.186	30724.31
572.384	30701.78
572.582	30560.47
572.781	31154.38
572.979	30126.3
573.177	30941.39
573.376	30290.14
573.574	30341.34
573.772	30562.52
573.971	29925.6
574.169	30232.8
574.367	29982.95
574.565	30200.03
574.763	29872.35
574.962	29718.76
575.16	29589.74
575.358	29960.42
575.556	29616.36
575.754	29927.65
575.952	29448.43
576.151	29616.36
576.349	29212.91
576.547	29243.63
576.745	29317.36
576.943	29130.99
577.141	29026.54
577.339	29094.13
577.537	28543.22
577.735	28725.49
577.933	28874.99
578.131	28561.65
578.329	28461.3
578.527	28283.13
578.725	28190.97
578.923	28283.13
579.121	28430.58
579.319	28270.84
579.516	28332.28
579.714	28059.9
579.912	27906.3
580.11	27695.36
580.308	28068.09
580.506	27842.82
580.704	27371.78
580.901	27461.9
581.099	27691.27
581.297	26949.9
581.495	27363.59
581.692	27525.38
581.89	27152.65
582.088	27023.63
582.285	27146.51
582.483	26933.52
582.681	27044.11
582.878	26990.86
583.076	27017.49
583.274	26835.22
583.471	26564.89
583.669	26525.97
583.866	26317.08
584.064	26683.67
584.262	26358.04
584.459	26442.01
584.657	26435.86
584.854	26249.5
585.052	26134.81
585.249	26110.24
585.447	26192.15
585.644	25870.62
585.841	26120.48
586.039	26114.33
586.236	25583.91
586.434	25780.51
586.631	25717.03
586.828	25700.64
587.026	25712.93
587.223	25633.06
587.42	25741.6
587.618	25317.67
587.815	25377.06
588.012	25321.77
588.21	25086.25
588.407	25575.72
588.604	25409.83
588.801	25076.01
588.999	25016.62
589.196	24758.58
589.393	24822.06
589.59	24867.12
589.787	24756.53
589.984	24570.16
590.182	24451.38
590.379	25035.05
590.576	24568.12
590.773	24326.46
590.97	24332.6
591.167	24494.39
591.364	24117.56
591.561	24410.42
591.758	24254.78
591.955	24133.95
592.152	24496.44
592.349	24099.13
592.546	24394.04
592.743	24033.6
592.94	23667.01
593.137	24181.05
593.334	24357.17
593.531	23728.45
593.727	24228.15
593.924	23816.51
594.121	23787.84
594.318	24045.88
594.515	23726.4
594.712	23953.73
594.908	23540.04
595.105	23855.42
595.302	23406.92
595.499	23488.84
595.696	23847.23
595.892	23408.97
596.089	23755.07
596.286	23640.39
596.482	23822.66
596.679	23712.06
596.876	23648.58
597.072	23611.71
597.269	23415.11
597.466	23173.45
597.662	23069
597.859	23855.42
598.055	23191.88
598.252	23396.68
598.448	23308.61
598.645	23445.83
598.841	23306.57
599.038	23255.37
599.234	23357.77
599.431	23175.5
599.627	23267.66
599.824	23492.93
600.02	23306.57
600.217	23386.44
600.413	23419.21
600.609	23267.66
600.806	23286.09
601.002	23406.92
601.198	23378.25
601.395	23062.86
601.591	23144.78
601.787	23351.62
601.984	23550.28
602.18	23433.54
602.376	23404.87
602.572	23451.97
602.769	23494.98
602.965	23187.78
603.161	23257.42
603.357	23120.2
603.553	23304.52
603.75	23329.09
603.946	23232.84
604.142	23206.22
604.338	23361.86
604.534	23343.43
604.73	23355.72
604.926	23036.24
605.122	23398.73
605.318	23359.81
605.514	23314.76
605.71	23052.62
605.906	23173.45
606.102	23920.96
606.298	23339.33
606.494	23624
606.69	23599.43
606.886	23757.12
607.082	23265.61
607.278	23828.8
607.474	23310.66
607.67	23433.54
607.866	23335.24
608.062	23720.26
608.257	23687.49
608.453	23884.09
608.649	23947.58
608.845	23836.99
609.041	23451.97
609.236	23757.12
609.432	23970.11
609.628	23920.96
609.824	23949.63
610.019	23443.78
610.215	23763.26
610.411	23877.95
610.606	23605.57
610.802	23910.72
610.998	23677.25
611.193	23867.71
611.389	23583.04
611.584	23865.66
611.78	23779.65
611.976	24119.61
612.171	24033.6
612.367	24021.31
612.562	23867.71
612.758	23591.23
612.953	23580.99
613.149	24359.22
613.344	23849.28
613.539	24324.41
613.735	23978.3
613.93	23951.68
614.126	24070.46
614.321	24183.1
614.517	23906.62
614.712	23685.44
614.907	23935.29
615.103	24195.39
615.298	23900.48
615.493	24295.74
615.688	23845.18
615.884	24549.68
616.079	24107.32
616.274	24224.06
616.47	24119.61
616.665	23959.87
616.86	23869.76
617.055	23730.5
617.25	23736.64
617.445	24412.47
617.641	23466.31
617.836	23740.74
618.031	23662.91
618.226	23642.43
618.421	23693.63
618.616	24013.12
618.811	23497.03
619.006	23791.94
619.201	23447.88
619.396	23750.98
619.591	23253.32
619.786	23302.47
619.981	23140.68
620.176	23646.53
620.371	23069
620.566	23238.98
620.761	23193.93
620.956	23126.35
621.151	22651.22
621.346	22911.31
621.541	22702.42
621.735	22913.36
621.93	22518.1
622.125	22581.59
622.32	22186.33
622.515	22145.37
622.709	22319.45
622.904	22141.27
623.099	22217.05
623.294	22038.87
623.488	21801.31
623.683	21856.61
623.878	21492.07
624.072	21537.12
624.267	21694.82
624.462	21657.95
624.656	21291.37
624.851	21102.95
625.046	21293.41
625.24	21166.44
625.435	20937.07
625.629	20990.31
625.824	20633.97
626.018	20887.92
626.213	20414.84
626.407	20502.9
626.602	20519.28
626.796	20263.29
626.991	20369.78
627.185	20255.09
627.38	20031.86
627.574	19788.16
627.768	19814.78
627.963	19679.61
628.157	19636.61
628.352	19880.32
628.546	19224.97
628.74	19325.32
628.935	19470.72
629.129	19253.64
629.323	18907.53
629.517	18958.73
629.712	19028.36
629.906	18858.38
630.1	18573.71
630.294	18778.51
630.489	18456.98
630.683	18616.72
630.877	18389.39
631.071	18395.54
631.265	18401.68
631.459	18424.21
631.653	18012.57
631.848	18114.97
632.042	17885.59
632.236	17936.79
632.43	17623.45
632.624	17848.73
632.818	17805.72
633.012	17359.27
633.206	17420.7
633.4	17310.11
633.594	17045.93
633.788	17025.45
633.982	17142.18
634.176	17123.75
634.369	16908.71
634.563	16834.99
634.757	16773.55
634.951	16726.44
635.145	16499.12
635.339	16843.18
635.533	16271.79
635.726	16521.65
635.92	16376.24
636.114	16259.51
636.308	15837.62
636.501	15858.1
636.695	15925.69
636.889	15892.92
637.083	15804.86
637.276	15335.87
637.47	15624.64
637.664	15305.15
637.857	15397.31
638.051	15266.24
638.244	15280.58
638.438	15079.88
638.632	14789.07
638.825	14795.21
639.019	15047.11
639.212	14621.13
639.406	14543.31
639.599	14533.07
639.793	14498.25
639.986	14399.95
640.18	14295.5
640.373	14195.15
640.567	14313.94
640.76	14164.43
640.954	13965.78
641.147	13867.48
641.34	13746.65
641.534	13740.5
641.727	13576.67
641.92	13707.74
642.114	13629.91
642.307	13418.97
642.5	13205.99
642.694	13402.59
642.887	13388.25
643.08	13437.41
643.273	13335.01
643.467	13105.63
643.66	12704.23
643.853	12696.04
644.046	12577.26
644.239	12896.74
644.432	12747.24
644.626	12616.17
644.819	12329.45
645.012	12468.72
645.205	12349.93
645.398	12521.96
645.591	12192.24
645.784	12255.73
645.977	12034.55
646.17	12052.98
646.363	11969.01
646.556	11717.11
646.749	11549.18
646.942	11715.06
647.135	11592.19
647.328	11493.88
647.521	11391.48
647.714	11385.34
647.907	11295.23
648.099	11276.8
648.292	11485.69
648.485	11217.41
648.678	10983.94
648.871	11045.38
649.064	11041.28
649.256	11014.66
649.449	10756.61
649.642	10869.25
649.835	10689.03
650.027	10715.66
650.22	10652.17
650.413	10549.77
650.605	10623.5
650.798	10338.83
650.991	10459.66
651.183	10328.59
651.376	10342.92
651.568	10121.74
651.761	10101.26
651.954	10121.74
652.146	10074.64
652.339	10107.41
652.531	9818.64
652.724	9892.37
652.916	9667.1
653.109	9712.15
653.301	9650.71
653.494	9687.57
653.686	9552.41
653.879	9706.01
654.071	9427.48
654.263	9452.06
654.456	9624.09
654.648	9460.25
654.84	9525.79
655.033	9335.32
655.225	8958.5
655.417	9288.22
655.61	9204.25
655.802	9124.38
655.994	9214.49
656.186	8915.49
656.379	8858.15
656.571	8829.48
656.763	8774.18
656.955	8645.16
657.148	8788.52
657.34	8692.26
657.532	8657.45
657.724	8444.46
657.916	8575.53
658.108	8639.01
658.3	8505.9
658.492	8323.63
658.684	8217.13
658.876	8276.52
659.068	8419.88
659.26	8380.97
659.452	8198.7
659.644	8118.83
659.836	8114.73
660.028	8104.49
660.22	7854.64
660.412	7977.52
660.604	7866.93
660.796	7877.17
660.988	7846.45
661.18	7713.33
661.372	7615.03
661.563	7713.33
661.755	7598.65
661.947	7643.7
662.139	7510.58
662.331	7561.78
662.522	7520.82
662.714	7330.36
662.906	7184.96
663.097	7395.9
663.289	7248.44
663.481	7209.53
663.673	7242.3
663.864	7240.25
664.056	7215.68
664.247	7084.61
664.439	7176.77
664.631	7062.08
664.822	7160.38
665.014	7010.88
665.205	6992.45
665.397	6758.98
665.588	6816.32
665.78	6791.75
665.971	6896.19
666.163	6777.41
666.354	6601.29
666.546	6765.12
666.737	6574.66
666.929	6609.48
667.12	6597.19
667.311	6556.23
667.503	6373.96
667.694	6537.8
667.885	6431.3
668.077	6597.19
668.268	6304.33
668.459	6488.65
668.651	6439.5
668.842	6269.51
669.033	6523.46
669.224	6367.82
669.416	6249.04
669.607	6054.48
669.798	6232.65
669.989	6314.57
670.18	6212.17
670.371	5988.94
670.563	5945.94
670.754	6146.64
670.945	6021.71
671.136	5988.94
671.327	6107.73
671.518	5968.46
671.709	5958.22
671.9	5976.66
672.091	5843.54
672.282	5853.78
672.473	5716.56
672.664	5821.01
672.855	5859.92
673.046	5755.47
673.237	5954.13
673.428	5653.08
673.619	5689.94
673.809	5636.69
674	5739.09
674.191	5622.36
674.382	5651.03
674.573	5638.74
674.764	5552.73
674.954	5581.4
675.145	5567.06
675.336	5677.65
675.527	5456.47
675.717	5458.52
675.908	5567.06
676.099	5526.1
676.289	5425.75
676.48	5585.49
676.671	5429.85
676.861	5487.19
677.052	5374.55
677.243	5259.87
677.433	5235.29
677.624	5399.13
677.814	5315.16
678.005	5479
678.195	5392.98
678.386	5306.97
678.576	5335.64
678.767	5354.07
678.957	5343.83
679.148	5276.25
679.338	5093.98
679.529	5235.29
679.719	5136.99
679.909	5376.6
680.1	5243.48
680.29	5241.43
680.481	5204.57
680.671	5261.91
680.861	5106.27
681.052	5306.97
681.242	5139.04
681.432	5294.68
681.622	5112.41
681.813	4981.34
682.003	5106.27
682.193	5128.8
682.383	5141.08
682.573	5225.05
682.764	5151.32
682.954	5358.17
683.144	5141.08
683.334	5055.07
683.524	5192.28
683.714	5206.62
683.904	5143.13
684.094	5020.25
684.284	4995.68
684.474	5208.67
684.664	5063.26
684.854	5059.17
685.044	5208.67
685.234	5012.06
685.424	5167.71
685.614	5085.79
685.804	5005.92
685.994	4876.9
686.184	5030.49
686.374	4915.81
686.564	5005.92
686.753	4962.91
686.943	5020.25
687.133	4934.24
687.323	4921.95
687.513	4905.57
687.702	4883.04
687.892	4854.37
688.082	4766.31
688.272	4991.58
688.461	4842.08
688.651	4858.46
688.841	4717.15
689.03	4688.48
689.22	4713.06
689.41	4657.76
689.599	4844.13
689.789	4760.16
689.979	4717.15
690.168	4749.92
690.358	4586.08
690.547	4743.78
690.737	4635.24
690.926	4561.51
691.116	4528.74
691.305	4620.9
691.495	4678.24
691.684	4471.4
691.874	4659.81
692.063	4596.32
692.252	4588.13
692.442	4545.13
692.631	4498.02
692.82	4612.71
693.01	4446.82
693.199	4432.49
693.388	4401.77
693.578	4424.3
693.767	4391.53
693.956	4455.01
694.146	4287.08
694.335	4358.76
694.524	4420.2
694.713	4356.71
694.902	4389.48
695.092	4387.43
695.281	4391.53
695.47	4244.07
695.659	4309.61
695.848	4207.21
696.037	4133.48
696.226	4332.14
696.415	4209.26
696.604	4350.57
696.793	4145.77
696.982	4258.41
697.171	4340.33
697.36	4203.11
697.549	4205.16
697.738	4102.76
697.927	4141.68
698.116	4203.11
698.305	4250.22
698.494	4270.7
698.683	4096.62
698.872	4299.37
699.061	4055.66
699.25	4090.48
699.438	4078.19
699.627	4215.4
699.816	4153.96
700.005	4012.65
700.193	3922.54
700.382	3998.32
700.571	4096.62
700.76	4041.32
700.948	4016.75
701.137	3918.45
701.326	4026.99
701.514	3955.31
701.703	3957.36
701.892	3963.5
702.08	4096.62
702.269	3990.13
702.457	3947.12
702.646	3885.68
702.834	3877.49
703.023	3838.58
703.212	3988.08
703.4	4004.46
703.589	3891.82
703.777	4037.23
703.965	3793.52
704.154	3861.1
704.342	3822.19
704.531	3914.35
704.719	3940.97
704.907	3883.63
705.096	3857.01
705.284	3654.26
705.472	3750.51
705.661	3852.91
705.849	3660.4
706.037	3775.09
706.226	3693.17
706.414	3668.59
706.602	3752.56
706.79	3711.6
706.979	3717.75
707.167	3820.14
707.355	3676.79
707.543	3572.34
707.731	3719.79
707.919	3535.48
708.107	3490.42
708.296	3650.16
708.484	3605.11
708.672	3521.14
708.86	3506.81
709.048	3572.34
709.236	3555.96
709.424	3648.11
709.612	3623.54
709.8	3545.72
709.988	3545.72
710.176	3555.96
710.364	3515
710.551	3471.99
710.739	3553.91
710.927	3588.72
711.115	3529.33
711.303	3447.41
711.491	3578.48
711.679	3525.24
711.866	3383.93
712.054	3422.84
712.242	3351.16
712.43	3541.62
712.617	3435.13
712.805	3373.69
712.993	3426.93
713.181	3316.34
713.368	3394.17
713.556	3431.03
713.744	3275.38
713.931	3496.57
714.119	3392.12
714.306	3359.35
714.494	3336.82
714.682	3379.83
714.869	3275.38
715.057	3351.16
715.244	3201.66
715.432	3197.56
715.619	3195.51
715.807	3236.47
715.994	3349.11
716.182	3189.37
716.369	3295.86
716.556	3232.38
716.744	3129.98
716.931	3289.72
717.119	3310.2
717.306	3250.81
717.493	3299.96
717.681	3158.65
717.868	3181.18
718.055	3125.88
718.242	3168.89
718.43	3086.97
718.617	3056.25
718.804	3048.06
718.991	3222.14
719.179	3025.53
719.366	3062.4
719.553	3021.44
719.74	3054.2
719.927	2968.19
720.114	3062.4
720.301	2919.04
720.488	3099.26
720.676	3068.54
720.863	3086.97
721.05	3091.07
721.237	2996.86
721.424	3013.24
721.611	3025.53
721.798	3029.63
721.985	3031.68
722.172	2992.76
722.358	3000.96
722.545	2953.85
722.732	3033.72
722.919	3062.4
723.106	2937.47
723.293	2966.14
723.48	2890.37
723.667	2964.09
723.853	2845.31
724.04	3068.54
724.227	2859.65
724.414	2914.94
724.6	2876.03
724.787	2943.61
724.974	2878.08
725.161	2816.64
725.347	2849.41
725.534	2892.41
725.72	2779.78
725.907	2806.4
726.094	2890.37
726.28	2882.17
726.467	2755.2
726.653	2833.02
726.84	2787.97
727.027	2957.95
727.213	2669.19
727.4	2714.24
727.586	2687.62
727.773	2712.19
727.959	2808.45
728.145	2822.78
728.332	2796.16
728.518	2704
728.705	2767.49
728.891	2638.47
729.077	2775.68
729.264	2562.69
729.45	2658.95
729.636	2652.8
729.823	2755.2
730.009	2753.15
730.195	2726.53
730.382	2660.99
730.568	2620.03
730.754	2671.23
730.94	2634.37
731.126	2599.55
731.313	2585.22
731.499	2646.66
731.685	2660.99
731.871	2564.74
732.057	2761.34
732.243	2574.98
732.429	2583.17
732.615	2648.71
732.801	2505.35
732.987	2581.12
733.173	2566.79
733.359	2583.17
733.545	2509.44
733.731	2572.93
733.917	2638.47
734.103	2556.55
734.289	2593.41
734.475	2556.55
734.661	2663.04
734.847	2572.93
735.033	2505.35
735.219	2497.16
735.404	2570.88
735.59	2632.32
735.776	2501.25
735.962	2431.62
736.148	2466.44
736.333	2415.24
736.519	2603.65
736.705	2515.59
736.89	2441.86
737.076	2523.78
737.262	2456.2
737.447	2394.76
737.633	2366.09
737.819	2349.7
738.004	2456.2
738.19	2429.57
738.375	2343.56
738.561	2431.62
738.747	2310.79
738.932	2271.88
739.118	2218.63
739.303	2351.75
739.489	2374.28
739.674	2318.98
739.859	2310.79
740.045	2280.07
740.23	2288.26
740.416	2259.59
740.601	2331.27
740.786	2251.4
740.972	2280.07
741.157	2263.69
741.342	2210.44
741.528	2235.02
741.713	2296.46
741.898	2136.71
742.084	2173.58
742.269	2222.73
742.454	2220.68
742.639	2253.45
742.824	2194.06
743.01	2253.45
743.195	2194.06
743.38	2040.46
743.565	2196.11
743.75	2189.96
743.935	2202.25
744.12	2202.25
744.305	1946.25
744.49	1983.12
744.675	2089.61
744.86	2108.04
745.045	2058.89
745.23	2040.46
745.415	2067.08
745.6	2202.25
745.785	2005.64
745.97	1950.35
746.155	2081.42
746.34	1987.21
746.525	1958.54
746.71	2136.71
746.895	1874.57
747.079	1876.62
747.264	1931.92
747.449	1919.63
747.634	1956.49
747.819	1960.59
748.003	1864.33
748.188	1890.96
748.373	1917.58
748.557	1946.25
748.742	1860.24
748.927	1788.56
749.111	1784.46
749.296	1786.51
749.481	1743.5
749.665	1759.89
749.85	1878.67
750.034	1817.23
750.219	1692.3
750.404	1755.79
750.588	1682.06
750.773	1653.39
750.957	1727.12
751.141	1594
751.326	1739.41
751.51	1579.67
751.695	1620.63
751.879	1743.5
752.064	1671.83
752.248	1555.09
752.432	1692.3
752.617	1546.9
752.801	1538.71
752.985	1616.53
753.17	1516.18
753.354	1655.44
753.538	1442.45
753.722	1391.25
753.907	1342.1
754.091	1530.52
754.275	1512.08
754.459	1460.88
754.643	1571.47
754.828	1546.9
755.012	1417.88
755.196	1532.56
755.38	1438.36
755.564	1503.89
755.748	1407.64
755.932	1456.79
756.116	1358.49
756.3	1358.49
756.484	1389.21
756.668	1362.58
756.852	1417.88
757.036	1368.73
757.22	1266.33
757.404	1227.42
757.588	1301.14
757.772	1272.47
757.956	1352.34
758.14	1426.07
758.323	1268.38
758.507	1333.91
758.691	1338.01
758.875	1241.75
759.059	1299.09
759.242	1299.09
759.426	1125.02
759.61	1071.77
759.794	1182.36
759.977	1284.76
760.161	1286.81
760.345	1211.03
760.528	1211.03
760.712	1215.13
760.895	1208.98
761.079	1235.61
761.263	1200.79
761.446	1067.67
761.63	1125.02
761.813	1258.14
761.997	1178.26
762.18	1129.11
762.364	1159.83
762.547	1041.05
762.731	1184.41
762.914	1096.35
763.098	1125.02
763.281	1147.55
763.464	1049.24
763.648	1082.01
763.831	1065.63
764.015	1039
764.198	1092.25
764.381	1053.34
764.564	1096.35
764.748	1010.33
764.931	998.04
765.114	1088.15
765.297	1125.02
765.481	1014.43
765.664	998.04
765.847	1075.87
766.03	977.56
766.213	1006.24
766.397	1047.19
766.58	907.93
766.763	967.32
766.946	1022.62
767.129	973.47
767.312	928.41
767.495	1000.09
767.678	932.51
767.861	967.32
768.044	952.99
768.227	979.61
768.41	895.64
768.593	948.89
768.776	920.22
768.959	940.7
769.142	1036.95
769.324	1026.71
769.507	887.45
769.69	944.8
769.873	856.73
770.056	1075.87
770.239	887.45
770.421	940.7
770.604	924.32
770.787	858.78
770.97	950.94
771.152	791.2
771.335	905.88
771.518	828.06
771.7	912.03
771.883	936.6
772.066	901.79
772.248	887.45
772.431	885.41
772.613	836.25
772.796	920.22
772.978	877.21
773.161	905.88
773.343	864.93
773.526	797.34
773.708	721.57
773.891	856.73
774.073	742.05
774.256	909.98
774.438	819.87
774.621	817.82
774.803	842.4
774.985	828.06
775.168	834.21
775.35	723.62
775.532	834.21
775.715	793.25
775.897	813.73
776.079	830.11
776.261	760.48
776.444	668.32
776.626	760.48
776.808	680.61
776.99	711.33
777.173	754.34
777.355	629.41
777.537	719.52
777.719	744.1
777.901	760.48
778.083	662.18
778.265	662.18
778.447	744.1
778.629	686.75
778.811	625.31
778.993	703.14
779.175	666.27
779.357	653.98
779.539	631.46
779.721	723.62
779.903	703.14
780.085	680.61
780.267	725.66
780.449	678.56
780.631	715.42
780.812	645.79
780.994	604.83
781.176	625.31
781.358	615.07
781.54	617.12
781.721	645.79
781.903	565.92
782.085	600.74
782.267	582.31
782.448	531.11
782.63	547.49
782.812	590.5
782.993	522.91
783.175	522.91
783.357	656.03
783.538	606.88
783.72	492.2
783.901	629.41
784.083	567.97
784.264	608.93
784.446	527.01
784.627	481.96
784.809	535.2
784.99	514.72
785.172	545.44
785.353	555.68
785.535	570.02
785.716	537.25
785.897	486.05
786.079	514.72
786.26	549.54
786.441	498.34
786.623	416.42
786.804	508.58
786.985	477.86
787.167	565.92
787.348	453.28
787.529	397.99
787.71	479.91
787.891	533.15
788.073	385.7
788.254	453.28
788.435	510.63
788.616	400.04
788.797	430.76
788.978	441
789.159	367.27
789.34	481.96
789.522	361.13
789.703	342.69
789.884	395.94
790.065	469.67
790.246	524.96
790.427	404.13
790.607	508.58
790.788	461.48
790.969	371.36
791.15	322.21
791.331	318.12
791.512	369.32
791.693	352.93
791.874	393.89
792.054	447.14
792.235	426.66
792.416	273.06
792.597	361.13
792.778	408.23
792.958	359.08
793.139	361.13
793.32	434.85
793.5	307.88
793.681	408.23
793.862	334.5
794.042	264.87
794.223	314.02
794.404	273.06
794.584	326.31
794.765	383.65
794.945	301.73
795.126	379.56
795.306	326.31
795.487	301.73
795.667	342.69
795.848	361.13
796.028	293.54
796.209	277.16
796.389	342.69
796.57	346.79
796.75	232.1
796.93	309.93
797.111	287.4
797.291	256.68
797.471	301.73
797.652	248.49
797.832	285.35
798.012	318.12
798.192	316.07
798.373	281.25
798.553	246.44
798.733	221.86
798.913	305.83
799.093	277.16
799.274	342.69
799.454	318.12
799.634	242.34
799.814	309.93
799.994	287.4
800.174	281.25
800.354	297.64
800.534	195.24
800.714	301.73
800.894	123.56
801.074	246.44
801.254	162.47
801.434	228.01
801.614	268.97
801.794	211.62
801.974	993.95
802.154	268.97
802.334	350.89
802.514	246.44
802.693	262.82
802.873	258.73
803.053	199.34
803.233	318.12
803.413	281.25
803.592	228.01
803.772	170.66
803.952	182.95
804.131	258.73
804.311	254.63
804.491	264.87
804.67	281.25
804.85	201.38
805.03	187.05
805.209	238.25
805.389	262.82
805.568	213.67
805.748	174.76
805.928	189.1
806.107	187.05
806.287	191.14
806.466	287.4
806.646	211.62
806.825	211.62
807.004	137.9
807.184	135.85
807.363	213.67
807.543	199.34
807.722	178.86
807.901	240.29
808.081	189.1
808.26	66.22
808.439	232.1
808.619	195.24
808.798	189.1
808.977	187.05
809.156	205.48
809.336	162.47
809.515	262.82
809.694	129.7
809.873	228.01
810.052	164.52
810.231	154.28
810.411	121.51
810.59	242.34
810.769	115.37
810.948	178.86
811.127	174.76
811.306	187.05
811.485	174.76
811.664	174.76
811.843	207.53
812.022	205.48
812.201	178.86
812.38	164.52
812.559	105.13
812.737	176.81
812.916	189.1
813.095	191.14
813.274	201.38
813.453	156.33
813.632	176.81
813.811	187.05
813.989	88.75
814.168	113.32
814.347	150.18
814.526	129.7
814.704	211.62
814.883	180.9
815.062	123.56
815.24	242.34
815.419	170.66
815.598	88.75
815.776	182.95
815.955	129.7
816.133	146.09
816.312	64.17
816.49	199.34
816.669	121.51
816.847	146.09
817.026	158.38
817.204	158.38
817.383	105.13
817.561	55.98
817.74	228.01
817.918	172.71
818.097	137.9
818.275	160.42
818.453	211.62
818.632	64.17
818.81	141.99
818.988	137.9
819.167	88.75
819.345	96.94
819.523	80.55
819.701	166.57
819.879	221.86
820.058	129.7
820.236	121.51
820.414	96.94
820.592	107.18
820.77	191.14
820.948	131.75
821.127	137.9
821.305	185
821.483	25.26
821.661	178.86
821.839	164.52
822.017	94.89
822.195	51.88
822.373	72.36
822.551	82.6
822.729	164.52
822.907	68.27
823.085	166.57
823.262	88.75
823.44	96.94
823.618	51.88
823.796	115.37
823.974	180.9
824.152	105.13
824.329	141.99
824.507	182.95
824.685	74.41
824.863	92.84
825.04	103.08
825.218	228.01
825.396	146.09
825.574	137.9
825.751	64.17
825.929	189.1
826.107	53.93
826.284	64.17
826.462	162.47
826.639	84.65
826.817	78.51
826.994	113.32
827.172	60.07
827.349	148.14
827.527	64.17
827.704	113.32
827.882	109.22
828.059	119.46
828.237	47.79
828.414	187.05
828.591	8.87
828.769	162.47
828.946	86.7
829.124	182.95
829.301	101.03
829.478	68.27
829.655	156.33
829.833	74.41
830.01	6.83
830.187	105.13
830.364	49.83
830.542	72.36
830.719	72.36
830.896	123.56
831.073	96.94
831.25	129.7
831.427	115.37
831.604	121.51
831.782	66.22
831.959	107.18
832.136	135.85
832.313	80.55
832.49	72.36
832.667	105.13
832.844	55.98
833.021	133.8
833.198	125.61
833.374	82.6
833.551	49.83
833.728	92.84
833.905	51.88
834.082	92.84
834.259	90.79
834.436	98.99
834.612	53.93
834.789	47.79
834.966	60.07
835.143	101.03
835.319	62.12
835.496	174.76
835.673	121.51
835.85	80.55
836.026	51.88
836.203	129.7
836.38	103.08
836.556	39.59
836.733	68.27
836.909	133.8
837.086	-7.51
837.262	78.51
837.439	43.69
837.616	121.51
837.792	33.45
837.968	103.08
838.145	88.75
838.321	90.79
838.498	82.6
838.674	90.79
838.851	144.04
839.027	60.07
839.203	117.42
839.38	125.61
839.556	49.83
839.732	154.28
839.909	74.41
840.085	76.46
840.261	-50.52
840.437	43.69
840.614	68.27
840.79	60.07
840.966	107.18
841.142	101.03
841.318	98.99
841.494	101.03
841.671	84.65
841.847	33.45
842.023	76.46
842.199	111.27
842.375	25.26
842.551	47.79
842.727	35.5
842.903	166.57
843.079	64.17
843.255	70.31
843.431	33.45
843.607	78.51
843.783	-81.24
843.959	68.27
844.134	115.37
844.31	141.99
844.486	90.79
844.662	84.65
844.838	35.5
845.013	82.6
845.189	25.26
845.365	84.65
845.541	51.88
845.716	74.41
845.892	15.02
846.068	66.22
846.244	68.27
846.419	15.02
846.595	15.02
846.77	74.41
846.946	72.36
847.122	-15.7
847.297	31.4
847.473	84.65
847.648	64.17
847.824	96.94
847.999	6.83
848.175	82.6
848.35	105.13
848.526	12.97
848.701	82.6
848.876	68.27
849.052	82.6
849.227	107.18
849.403	82.6
849.578	113.32
849.753	41.64
849.929	45.74
850.104	-42.32
850.279	-17.75
850.454	68.27
850.63	49.83
850.805	39.59
850.98	23.21
851.155	12.97
851.33	27.31
851.505	98.99
851.681	101.03
851.856	25.26
852.031	41.64
852.206	72.36
852.381	-9.56
852.556	-5.46
852.731	88.75
852.906	35.5
853.081	-19.8
853.256	80.55
853.431	15.02
853.606	-3.41
853.781	10.92
853.956	-58.71
854.131	82.6
854.305	2.73
854.48	137.9
854.655	-32.08
854.83	-5.46
855.005	-9.56
855.18	60.07
855.354	-1.37
855.529	6.83
855.704	55.98
855.879	113.32
856.053	72.36
856.228	66.22
856.403	10.92
856.577	105.13
856.752	17.07
856.926	47.79
857.101	64.17
857.276	19.11
857.45	4.78
857.625	94.89
857.799	17.07
857.974	39.59
858.148	15.02
858.323	21.16
858.497	27.31
858.672	45.74
858.846	82.6
859.02	2.73
859.195	72.36
859.369	23.21
859.543	25.26
859.718	19.11
859.892	23.21
860.066	-34.13
860.241	115.37
860.415	19.11
860.589	-36.18
860.763	98.99
860.938	-21.85
861.112	41.64
861.286	27.31
861.46	33.45
861.634	10.92
861.808	43.69
861.982	-54.61
862.157	35.5
862.331	31.4
862.505	-9.56
862.679	-21.85
862.853	27.31
863.027	51.88
863.201	96.94
863.375	23.21
863.549	103.08
863.722	31.4
863.896	12.97
864.07	64.17
864.244	-13.65
864.418	43.69
864.592	17.07
864.766	6.83
864.939	55.98
865.113	29.35
865.287	45.74
865.461	45.74
865.634	109.22
865.808	10.92
865.982	-17.75
866.156	0.68
866.329	19.11
866.503	6.83
866.676	49.83
866.85	55.98
867.024	-27.99
867.197	88.75
867.371	-17.75
867.544	47.79
867.718	-25.94
867.891	47.79
868.065	6.83
868.238	23.21
868.412	-13.65
868.585	80.55
868.759	17.07
868.932	23.21
869.105	-32.08
869.279	6.83
869.452	-25.94
869.625	33.45
869.799	55.98
869.972	-34.13
870.145	23.21
870.319	19.11
870.492	6.83
870.665	53.93
870.838	23.21
871.011	-21.85
871.185	6.83
871.358	64.17
871.531	101.03
871.704	72.36
871.877	2.73
872.05	33.45
872.223	-1.37
872.396	10.92
872.569	80.55
872.742	31.4
872.915	72.36
873.088	-91.48
873.261	64.17
873.434	2.73
873.607	-25.94
873.78	-25.94
873.953	-66.9
874.126	-34.13
874.299	-1.37
874.471	37.55
874.644	68.27
874.817	41.64
874.99	78.51
875.163	-38.23
875.335	25.26
875.508	6.83
875.681	105.13
875.853	27.31
876.026	-40.28
876.199	64.17
876.371	41.64
876.544	-17.75
876.717	80.55
876.889	-1.37
877.062	0.68
877.234	-17.75
877.407	-23.89
877.579	12.97
877.752	-54.61
877.924	70.31
878.097	64.17
878.269	47.79
878.442	19.11
878.614	43.69
878.786	23.21
878.959	60.07
879.131	-17.75
879.303	33.45
879.476	4.78
879.648	66.22
879.82	6.83
879.993	31.4
880.165	74.41
880.337	4.78
880.509	43.69
880.681	-15.7
880.854	-1.37
881.026	-42.32
881.198	55.98
881.37	-58.71
881.542	55.98
881.714	33.45
881.886	39.59
882.058	96.94
882.23	51.88
882.402	39.59
882.574	25.26
882.746	41.64
882.918	90.79
883.09	43.69
883.262	47.79
883.434	21.16
883.606	-25.94
883.778	4.78
883.95	68.27
884.122	19.11
884.293	66.22
884.465	-56.66
884.637	60.07
884.809	-23.89
884.98	10.92
885.152	55.98
885.324	39.59
885.496	23.21
885.667	-34.13
885.839	21.16
886.011	62.12
886.182	92.84
886.354	94.89
886.525	19.11
886.697	6.83
886.869	31.4
887.04	8.87
887.212	55.98
887.383	121.51
887.555	-46.42
887.726	53.93
887.897	88.75
888.069	23.21
888.24	31.4
888.412	-58.71
888.583	115.37
888.754	-9.56
888.926	-23.89
889.097	60.07
889.268	-1.37
889.44	66.22
889.611	-17.75
889.782	-50.52
889.953	-9.56
890.125	23.21
890.296	0.68
890.467	-50.52
890.638	23.21
890.809	27.31
890.98	76.46
891.151	-25.94
891.323	-13.65
891.494	17.07
891.665	10.92
891.836	15.02
892.007	49.83
892.178	47.79
892.349	35.5
892.52	-62.8
892.691	80.55
892.862	8.87
893.032	-38.23
893.203	-38.23
893.374	-5.46
893.545	72.36
893.716	-52.56
893.887	25.26
894.057	-56.66
894.228	23.21
894.399	6.83
894.57	55.98
894.74	2.73
894.911	6.83
895.082	2.73
895.253	25.26
895.423	-7.51
895.594	25.26
895.764	10.92
895.935	23.21
896.106	0.68
896.276	-1.37
896.447	55.98
896.617	6.83
896.788	8.87
896.958	15.02
897.129	-62.8
897.299	27.31
897.47	43.69
897.64	-3.41
897.81	15.02
897.981	0.68
898.151	-52.56
898.322	-34.13
898.492	29.35
898.662	51.88
898.832	51.88
899.003	60.07
899.173	2.73
899.343	-15.7
899.513	15.02
