Data from USB4F104151__44__14-29-52-634.txt Node

Date: Thu Mar 13 14:29:52 EDT 2025
User: louis
Spectrometer: USB4F10415
Trigger mode: 4
Integration Time (sec): 2.500000E-2
Scans to average: 1
Electric dark correction enabled: true
Nonlinearity correction enabled: false
Boxcar width: 0
XAxis mode: Wavelengths
Number of Pixels in Spectrum: 3648
>>>>>Begin Spectral Data<<<<<
178.204	-142.5
178.424	-142.5
178.644	-142.5
178.864	-154.79
179.084	-197.8
179.304	21.33
179.524	27.48
179.744	41.81
179.964	11.09
180.184	-21.67
180.404	-1.19
180.624	4.95
180.844	-48.3
181.064	-70.83
181.283	-5.29
181.503	29.52
181.723	11.09
181.943	-68.78
182.163	13.14
182.383	-56.49
182.602	11.09
182.822	-5.29
183.042	7
183.262	37.72
183.482	-19.63
183.701	25.43
183.921	9.05
184.141	-46.25
184.361	-33.96
184.58	-17.58
184.8	-72.87
185.02	-13.48
185.239	43.86
185.459	-74.92
185.679	-5.29
185.898	29.52
186.118	80.72
186.338	-54.44
186.557	-3.24
186.777	-36.01
186.997	-17.58
187.216	-21.67
187.436	52.05
187.655	13.14
187.875	-9.39
188.095	-38.06
188.314	2.9
188.534	43.86
188.753	11.09
188.973	64.34
189.192	-50.35
189.412	-50.35
189.631	35.67
189.851	-5.29
190.07	43.86
190.29	-25.77
190.509	11.09
190.729	19.29
190.948	50
191.168	146.26
191.387	23.38
191.607	76.63
191.826	19.29
192.045	95.06
192.265	13.14
192.484	27.48
192.704	27.48
192.923	-29.87
193.142	86.87
193.362	-19.63
193.581	21.33
193.8	29.52
194.02	-9.39
194.239	29.52
194.458	62.29
194.678	70.48
194.897	-17.58
195.116	45.91
195.335	35.67
195.555	76.63
195.774	27.48
195.993	-99.5
196.212	-1.19
196.432	-25.77
196.651	23.38
196.87	0.85
197.089	125.78
197.308	-44.2
197.528	-5.29
197.747	-29.87
197.966	-21.67
198.185	70.48
198.404	-5.29
198.623	-52.39
198.842	43.86
199.062	80.72
199.281	84.82
199.5	-11.43
199.719	35.67
199.938	70.48
200.157	101.2
200.376	88.92
200.595	-11.43
200.814	60.24
201.033	-56.49
201.252	17.24
201.471	70.48
201.69	43.86
201.909	25.43
202.128	107.35
202.347	9.05
202.566	-29.87
202.785	-42.15
203.004	-27.82
203.223	76.63
203.442	70.48
203.661	-62.63
203.879	-3.24
204.098	62.29
204.317	-21.67
204.536	-11.43
204.755	31.57
204.974	74.58
205.193	39.76
205.411	76.63
205.63	35.67
205.849	43.86
206.068	-25.77
206.287	43.86
206.505	39.76
206.724	39.76
206.943	-66.73
207.162	19.29
207.381	70.48
207.599	-33.96
207.818	13.14
208.037	-19.63
208.255	11.09
208.474	-5.29
208.693	52.05
208.911	-38.06
209.13	62.29
209.349	35.67
209.567	11.09
209.786	23.38
210.005	39.76
210.223	21.33
210.442	-89.26
210.661	93.01
210.879	-60.59
211.098	31.57
211.316	-21.67
211.535	-62.63
211.753	-11.43
211.972	76.63
212.191	-9.39
212.409	19.29
212.628	-9.39
212.846	-66.73
213.065	15.19
213.283	80.72
213.502	-36.01
213.72	7
213.938	93.01
214.157	21.33
214.375	19.29
214.594	-58.54
214.812	47.96
215.031	-29.87
215.249	68.44
215.467	35.67
215.686	-5.29
215.904	113.49
216.122	-21.67
216.341	9.05
216.559	-3.24
216.778	7
216.996	58.2
217.214	-1.19
217.432	-107.69
217.651	-27.82
217.869	11.09
218.087	27.48
218.306	29.52
218.524	-21.67
218.742	-79.02
218.96	15.19
219.179	-25.77
219.397	27.48
219.615	11.09
219.833	7
220.051	-15.53
220.27	17.24
220.488	-11.43
220.706	27.48
220.924	-21.67
221.142	84.82
221.36	-29.87
221.578	31.57
221.796	19.29
222.015	-38.06
222.233	74.58
222.451	27.48
222.669	-38.06
222.887	-5.29
223.105	2.9
223.323	-58.54
223.541	-13.48
223.759	52.05
223.977	-21.67
224.195	72.53
224.413	27.48
224.631	-3.24
224.849	9.05
225.067	58.2
225.285	-31.91
225.503	-5.29
225.721	-7.34
225.939	-3.24
226.157	84.82
226.375	148.31
226.592	-54.44
226.81	-58.54
227.028	31.57
227.246	31.57
227.464	2.9
227.682	19.29
227.9	39.76
228.117	-13.48
228.335	15.19
228.553	-7.34
228.771	39.76
228.989	21.33
229.206	41.81
229.424	-62.63
229.642	-11.43
229.86	-7.34
230.077	13.14
230.295	41.81
230.513	-38.06
230.731	-5.29
230.948	45.91
231.166	39.76
231.384	27.48
231.601	52.05
231.819	-13.48
232.037	-62.63
232.254	7
232.472	-1.19
232.689	-52.39
232.907	117.59
233.125	52.05
233.342	-11.43
233.56	17.24
233.777	-38.06
233.995	-19.63
234.213	7
234.43	27.48
234.648	-44.2
234.865	-36.01
235.083	33.62
235.3	54.1
235.518	-29.87
235.735	84.82
235.953	76.63
236.17	-25.77
236.388	-29.87
236.605	-17.58
236.822	4.95
237.04	9.05
237.257	-54.44
237.475	43.86
237.692	43.86
237.909	35.67
238.127	50
238.344	-25.77
238.562	101.2
238.779	-50.35
238.996	25.43
239.214	23.38
239.431	-25.77
239.648	-21.67
239.865	54.1
240.083	11.09
240.3	37.72
240.517	-38.06
240.735	23.38
240.952	58.2
241.169	7
241.386	39.76
241.603	21.33
241.821	-46.25
242.038	43.86
242.255	60.24
242.472	-85.16
242.689	-33.96
242.907	19.29
243.124	74.58
243.341	-56.49
243.558	29.52
243.775	35.67
243.992	-66.73
244.209	-29.87
244.426	74.58
244.643	-58.54
244.86	13.14
245.078	43.86
245.295	93.01
245.512	13.14
245.729	-9.39
245.946	11.09
246.163	19.29
246.38	43.86
246.597	60.24
246.814	25.43
247.031	-33.96
247.248	68.44
247.464	0.85
247.681	35.67
247.898	-60.59
248.115	84.82
248.332	15.19
248.549	60.24
248.766	76.63
248.983	21.33
249.2	-11.43
249.417	56.15
249.633	-17.58
249.85	-11.43
250.067	-5.29
250.284	-3.24
250.501	52.05
250.717	125.78
250.934	-17.58
251.151	68.44
251.368	7
251.585	35.67
251.801	-27.82
252.018	2.9
252.235	-17.58
252.451	-21.67
252.668	31.57
252.885	103.25
253.102	43.86
253.318	-27.82
253.535	11.09
253.752	13.14
253.968	35.67
254.185	19.29
254.401	-17.58
254.618	78.68
254.835	-5.29
255.051	35.67
255.268	4.95
255.484	60.24
255.701	-9.39
255.917	-5.29
256.134	2.9
256.351	64.34
256.567	15.19
256.784	27.48
257	-13.48
257.217	-46.25
257.433	37.72
257.65	-17.58
257.866	52.05
258.082	7
258.299	-31.91
258.515	-11.43
258.732	35.67
258.948	4.95
259.165	15.19
259.381	84.82
259.597	52.05
259.814	13.14
260.03	-5.29
260.246	19.29
260.463	35.67
260.679	88.92
260.895	64.34
261.112	-19.63
261.328	-5.29
261.544	-5.29
261.761	56.15
261.977	41.81
262.193	27.48
262.409	56.15
262.626	35.67
262.842	35.67
263.058	33.62
263.274	93.01
263.49	43.86
263.707	27.48
263.923	56.15
264.139	-46.25
264.355	-11.43
264.571	52.05
264.787	-21.67
265.004	86.87
265.22	2.9
265.436	-5.29
265.652	7
265.868	43.86
266.084	-27.82
266.3	37.72
266.516	11.09
266.732	37.72
266.948	35.67
267.164	11.09
267.38	-25.77
267.596	-21.67
267.812	68.44
268.028	27.48
268.244	27.48
268.46	11.09
268.676	43.86
268.892	11.09
269.108	-5.29
269.324	-15.53
269.54	4.95
269.756	11.09
269.972	7
270.188	-79.02
270.403	-13.48
270.619	39.76
270.835	25.43
271.051	-7.34
271.267	-68.78
271.483	-3.24
271.698	-1.19
271.914	29.52
272.13	45.91
272.346	-52.39
272.562	60.24
272.777	103.25
272.993	9.05
273.209	-19.63
273.425	-19.63
273.64	-25.77
273.856	-13.48
274.072	9.05
274.287	27.48
274.503	37.72
274.719	-3.24
274.934	2.9
275.15	-54.44
275.366	-38.06
275.581	70.48
275.797	31.57
276.012	54.1
276.228	56.15
276.444	74.58
276.659	27.48
276.875	-54.44
277.09	72.53
277.306	-21.67
277.521	-17.58
277.737	29.52
277.952	4.95
278.168	27.48
278.383	-21.67
278.599	54.1
278.814	-62.63
279.03	-5.29
279.245	19.29
279.461	31.57
279.676	2.9
279.892	-38.06
280.107	-17.58
280.322	-17.58
280.538	-19.63
280.753	76.63
280.969	76.63
281.184	19.29
281.399	133.97
281.615	35.67
281.83	-38.06
282.045	-48.3
282.26	-33.96
282.476	35.67
282.691	54.1
282.906	-21.67
283.122	27.48
283.337	-31.91
283.552	78.68
283.767	-56.49
283.983	27.48
284.198	-17.58
284.413	54.1
284.628	-29.87
284.843	54.1
285.058	19.29
285.274	-5.29
285.489	-54.44
285.704	58.2
285.919	-25.77
286.134	-46.25
286.349	13.14
286.564	2.9
286.779	45.91
286.995	39.76
287.21	-23.72
287.425	60.24
287.64	27.48
287.855	-21.67
288.07	-9.39
288.285	11.09
288.5	7
288.715	37.72
288.93	-11.43
289.145	11.09
289.36	-25.77
289.575	13.14
289.79	23.38
290.004	9.05
290.219	-9.39
290.434	21.33
290.649	-44.2
290.864	-19.63
291.079	-11.43
291.294	54.1
291.509	33.62
291.724	-33.96
291.938	-25.77
292.153	64.34
292.368	15.19
292.583	54.1
292.798	43.86
293.012	-52.39
293.227	11.09
293.442	27.48
293.657	60.24
293.871	39.76
294.086	43.86
294.301	-25.77
294.516	39.76
294.73	-33.96
294.945	-25.77
295.16	-46.25
295.374	7
295.589	19.29
295.804	105.3
296.018	47.96
296.233	43.86
296.447	84.82
296.662	-21.67
296.877	45.91
297.091	56.15
297.306	7
297.52	-1.19
297.735	11.09
297.949	-5.29
298.164	-40.11
298.378	9.05
298.593	-54.44
298.807	41.81
299.022	25.43
299.236	109.4
299.451	11.09
299.665	-29.87
299.88	0.85
300.094	31.57
300.309	2.9
300.523	33.62
300.737	-27.82
300.952	43.86
301.166	11.09
301.381	-11.43
301.595	-9.39
301.809	43.86
302.024	39.76
302.238	27.48
302.452	70.48
302.667	45.91
302.881	125.78
303.095	76.63
303.309	78.68
303.524	-15.53
303.738	-1.19
303.952	7
304.166	-21.67
304.381	-33.96
304.595	19.29
304.809	-38.06
305.023	-3.24
305.237	-13.48
305.452	33.62
305.666	-3.24
305.88	19.29
306.094	-29.87
306.308	-21.67
306.522	7
306.736	21.33
306.95	25.43
307.164	19.29
307.379	-42.15
307.593	37.72
307.807	15.19
308.021	23.38
308.235	2.9
308.449	7
308.663	-29.87
308.877	58.2
309.091	11.09
309.305	37.72
309.519	-21.67
309.733	17.24
309.947	-19.63
310.161	78.68
310.374	82.77
310.588	43.86
310.802	-13.48
311.016	-13.48
311.23	47.96
311.444	-42.15
311.658	31.57
311.872	15.19
312.085	84.82
312.299	27.48
312.513	64.34
312.727	13.14
312.941	-15.53
313.154	-46.25
313.368	-81.07
313.582	19.29
313.796	7
314.009	-36.01
314.223	84.82
314.437	62.29
314.651	-23.72
314.864	43.86
315.078	19.29
315.292	-9.39
315.505	-95.4
315.719	9.05
315.933	13.14
316.146	-9.39
316.36	78.68
316.573	127.83
316.787	47.96
317.001	43.86
317.214	35.67
317.428	52.05
317.641	15.19
317.855	7
318.068	21.33
318.282	95.06
318.495	76.63
318.709	52.05
318.922	-62.63
319.136	109.4
319.349	29.52
319.563	-5.29
319.776	21.33
319.99	52.05
320.203	4.95
320.417	52.05
320.63	2.9
320.843	80.72
321.057	-5.29
321.27	-21.67
321.483	54.1
321.697	19.29
321.91	-13.48
322.124	58.2
322.337	50
322.55	-38.06
322.763	-13.48
322.977	7
323.19	-21.67
323.403	-21.67
323.617	70.48
323.83	-5.29
324.043	64.34
324.256	-29.87
324.469	-60.59
324.683	78.68
324.896	115.54
325.109	19.29
325.322	-5.29
325.535	37.72
325.748	31.57
325.962	-33.96
326.175	-13.48
326.388	2.9
326.601	0.85
326.814	25.43
327.027	72.53
327.24	0.85
327.453	-54.44
327.666	-3.24
327.879	80.72
328.092	45.91
328.305	25.43
328.518	60.24
328.731	23.38
328.944	45.91
329.157	-36.01
329.37	2.9
329.583	-5.29
329.796	52.05
330.009	52.05
330.222	-27.82
330.435	88.92
330.648	80.72
330.861	27.48
331.073	4.95
331.286	35.67
331.499	45.91
331.712	-19.63
331.925	19.29
332.138	-11.43
332.35	23.38
332.563	-42.15
332.776	109.4
332.989	-42.15
333.202	-38.06
333.414	-19.63
333.627	15.19
333.84	-31.91
334.053	29.52
334.265	2.9
334.478	-9.39
334.691	43.86
334.903	4.95
335.116	0.85
335.329	37.72
335.541	33.62
335.754	29.52
335.966	-38.06
336.179	39.76
336.392	-25.77
336.604	7
336.817	64.34
337.029	13.14
337.242	11.09
337.454	35.67
337.667	-21.67
337.88	35.67
338.092	37.72
338.305	41.81
338.517	-72.87
338.729	37.72
338.942	68.44
339.154	21.33
339.367	-1.19
339.579	113.49
339.792	45.91
340.004	-38.06
340.217	13.14
340.429	76.63
340.641	-60.59
340.854	4.95
341.066	56.15
341.278	82.77
341.491	60.24
341.703	-3.24
341.915	-5.29
342.128	11.09
342.34	66.39
342.552	11.09
342.764	62.29
342.977	-11.43
343.189	54.1
343.401	58.2
343.613	-21.67
343.826	19.29
344.038	0.85
344.25	43.86
344.462	17.24
344.674	72.53
344.886	37.72
345.099	-9.39
345.311	27.48
345.523	64.34
345.735	-1.19
345.947	54.1
346.159	52.05
346.371	37.72
346.583	50
346.795	93.01
347.007	0.85
347.219	45.91
347.431	62.29
347.643	27.48
347.855	-21.67
348.067	72.53
348.279	-7.34
348.491	76.63
348.703	70.48
348.915	-5.29
349.127	-38.06
349.339	17.24
349.551	9.05
349.763	47.96
349.975	-11.43
350.187	-29.87
350.399	19.29
350.61	-5.29
350.822	45.91
351.034	43.86
351.246	47.96
351.458	62.29
351.669	11.09
351.881	45.91
352.093	56.15
352.305	11.09
352.517	17.24
352.728	84.82
352.94	-9.39
353.152	-31.91
353.363	19.29
353.575	-3.24
353.787	-11.43
353.999	-21.67
354.21	80.72
354.422	60.24
354.633	86.87
354.845	7
355.057	78.68
355.268	-1.19
355.48	-17.58
355.692	7
355.903	-48.3
356.115	-15.53
356.326	-1.19
356.538	78.68
356.749	74.58
356.961	68.44
357.172	78.68
357.384	-3.24
357.595	74.58
357.807	52.05
358.018	-13.48
358.23	23.38
358.441	109.4
358.653	37.72
358.864	11.09
359.075	52.05
359.287	27.48
359.498	2.9
359.709	56.15
359.921	-17.58
360.132	86.87
360.344	47.96
360.555	9.05
360.766	90.96
360.977	43.86
361.189	43.86
361.4	-25.77
361.611	47.96
361.823	45.91
362.034	-33.96
362.245	25.43
362.456	29.52
362.667	70.48
362.879	-17.58
363.09	27.48
363.301	-19.63
363.512	-13.48
363.723	45.91
363.935	2.9
364.146	105.3
364.357	7
364.568	27.48
364.779	-5.29
364.99	111.44
365.201	-1.19
365.412	58.2
365.623	43.86
365.834	56.15
366.045	-9.39
366.256	62.29
366.467	15.19
366.678	4.95
366.889	11.09
367.1	13.14
367.311	39.76
367.522	-5.29
367.733	-21.67
367.944	45.91
368.155	52.05
368.366	-3.24
368.577	4.95
368.788	52.05
368.999	-76.97
369.209	-25.77
369.42	111.44
369.631	121.68
369.842	86.87
370.053	52.05
370.264	84.82
370.474	60.24
370.685	-25.77
370.896	-19.63
371.107	70.48
371.317	-21.67
371.528	2.9
371.739	101.2
371.95	37.72
372.16	54.1
372.371	23.38
372.582	54.1
372.792	-1.19
373.003	47.96
373.214	52.05
373.424	2.9
373.635	29.52
373.846	47.96
374.056	93.01
374.267	-38.06
374.477	45.91
374.688	19.29
374.898	66.39
375.109	-11.43
375.319	41.81
375.53	35.67
375.74	11.09
375.951	4.95
376.161	-13.48
376.372	76.63
376.582	-42.15
376.793	68.44
377.003	0.85
377.214	45.91
377.424	39.76
377.635	72.53
377.845	-1.19
378.055	105.3
378.266	82.77
378.476	52.05
378.686	80.72
378.897	11.09
379.107	60.24
379.317	68.44
379.528	33.62
379.738	93.01
379.948	23.38
380.158	52.05
380.369	60.24
380.579	0.85
380.789	45.91
380.999	101.2
381.21	29.52
381.42	97.11
381.63	39.76
381.84	56.15
382.05	76.63
382.261	54.1
382.471	90.96
382.681	21.33
382.891	19.29
383.101	2.9
383.311	23.38
383.521	-7.34
383.731	70.48
383.941	52.05
384.151	11.09
384.361	86.87
384.571	15.19
384.781	60.24
384.991	109.4
385.201	103.25
385.411	80.72
385.621	93.01
385.831	64.34
386.041	62.29
386.251	101.2
386.461	60.24
386.671	37.72
386.881	39.76
387.091	58.2
387.301	21.33
387.511	-36.01
387.72	50
387.93	50
388.14	2.9
388.35	13.14
388.56	39.76
388.769	52.05
388.979	47.96
389.189	4.95
389.399	101.2
389.609	21.33
389.818	54.1
390.028	80.72
390.238	56.15
390.447	19.29
390.657	43.86
390.867	37.72
391.076	-5.29
391.286	66.39
391.496	45.91
391.705	2.9
391.915	101.2
392.125	76.63
392.334	43.86
392.544	140.12
392.753	37.72
392.963	-3.24
393.172	133.97
393.382	27.48
393.591	76.63
393.801	97.11
394.01	133.97
394.22	88.92
394.429	107.35
394.639	47.96
394.848	64.34
395.058	78.68
395.267	58.2
395.477	80.72
395.686	86.87
395.895	68.44
396.105	183.12
396.314	70.48
396.524	72.53
396.733	60.24
396.942	84.82
397.152	152.4
397.361	117.59
397.57	43.86
397.78	170.83
397.989	19.29
398.198	76.63
398.407	125.78
398.617	-3.24
398.826	66.39
399.035	129.88
399.244	107.35
399.453	95.06
399.663	88.92
399.872	72.53
400.081	9.05
400.29	109.4
400.499	144.21
400.708	125.78
400.917	68.44
401.127	27.48
401.336	52.05
401.545	150.36
401.754	181.07
401.963	195.41
402.172	76.63
402.381	127.83
402.59	209.75
402.799	84.82
403.008	105.3
403.217	185.17
403.426	156.5
403.635	56.15
403.844	158.55
404.053	111.44
404.262	133.97
404.471	162.64
404.68	109.4
404.888	152.4
405.097	170.83
405.306	93.01
405.515	183.12
405.724	199.51
405.933	109.4
406.142	105.3
406.35	234.32
406.559	146.26
406.768	203.6
406.977	275.28
407.185	164.69
407.394	222.03
407.603	138.07
407.812	252.75
408.02	222.03
408.229	193.36
408.438	244.56
408.646	203.6
408.855	232.27
409.064	256.85
409.272	236.37
409.481	289.62
409.69	224.08
409.898	289.62
410.107	396.11
410.315	324.43
410.524	330.58
410.733	340.82
410.941	314.19
411.15	332.62
411.358	365.39
411.567	461.65
411.775	430.93
411.984	365.39
412.192	439.12
412.401	414.54
412.609	500.56
412.818	486.22
413.026	449.36
413.234	449.36
413.443	502.61
413.651	609.1
413.86	516.94
414.068	605
414.276	707.4
414.485	633.68
414.693	662.35
414.901	725.83
415.11	793.42
415.318	666.44
415.526	744.27
415.734	715.59
415.943	901.96
416.151	844.62
416.359	863.05
416.567	832.33
416.776	963.4
416.984	1004.36
417.192	971.59
417.4	1088.32
417.608	963.4
417.817	1030.98
418.025	1168.2
418.233	1108.8
418.441	1198.92
418.649	1207.11
418.857	1276.74
419.065	1362.75
419.273	1305.41
419.481	1368.9
419.689	1465.15
419.897	1573.69
420.105	1565.5
420.313	1485.63
420.521	1641.28
420.729	1612.6
420.937	1788.73
421.145	1815.35
421.353	1862.46
421.561	1952.57
421.769	1919.8
421.977	2014.01
422.185	2067.25
422.393	2153.27
422.601	2333.49
422.809	2399.02
423.017	2300.72
423.224	2501.42
423.432	2528.05
423.64	2579.25
423.848	2751.28
424.056	2552.62
424.263	2800.43
424.471	2960.17
424.679	3001.13
424.887	3158.82
425.094	3199.78
425.302	3275.56
425.51	3371.81
425.718	3402.53
425.925	3500.83
426.133	3582.75
426.341	3861.27
426.548	3961.62
426.756	3906.33
426.964	3998.49
427.171	4256.53
427.379	4512.53
427.586	4369.17
427.794	4565.78
428.001	4739.85
428.209	4946.7
428.417	4860.68
428.624	5368.58
428.832	5212.93
429.039	5108.49
429.247	5272.32
429.454	5698.3
429.662	5991.16
429.869	5643.01
430.076	6144.76
430.284	5925.63
430.491	6273.78
430.699	6458.1
430.906	6404.85
431.114	6619.89
431.321	6720.24
431.528	7154.41
431.736	7484.13
431.943	7713.5
432.15	7621.35
432.358	7619.3
432.565	8053.47
432.772	8018.65
432.979	8395.48
433.187	8514.26
433.394	8696.53
433.601	9161.42
433.808	9327.3
434.016	9169.61
434.223	9652.93
434.43	10123.96
434.637	9810.62
434.844	10644.15
435.052	10482.36
435.259	10513.08
435.466	10771.12
435.673	10373.82
435.88	11291.31
436.087	11823.78
436.294	11850.4
436.501	11610.79
436.708	11932.32
436.915	12405.4
437.122	12618.39
437.329	12688.02
437.537	13083.28
437.743	13200.01
437.95	12982.93
438.157	13943.42
438.364	14273.15
438.571	14414.46
438.778	14336.63
438.985	15686.25
439.192	15067.76
439.399	15542.89
439.606	15170.16
439.813	16147.04
440.02	16931.41
440.227	16394.84
440.433	16378.46
440.64	16925.27
440.847	17277.52
441.054	17451.6
441.261	18557.5
441.467	18240.06
441.674	18850.36
441.881	19249.71
442.088	19202.61
442.294	19061.3
442.501	19544.62
442.708	19913.25
442.914	20726.3
443.121	21703.18
443.328	21070.36
443.534	22354.43
443.741	21948.93
443.948	21783.05
444.154	23435.76
444.361	22809.08
444.568	23267.83
444.774	23083.51
444.981	23536.11
445.187	24273.38
445.394	25133.53
445.6	24699.36
445.807	27273.65
446.013	26001.86
446.22	26524.1
446.426	27195.83
446.633	27619.76
446.839	28680.61
447.046	27335.09
447.252	29045.15
447.459	28946.84
447.665	28928.41
447.871	30216.58
448.078	31408.5
448.284	29727.12
448.491	30663.04
448.697	31795.57
448.903	32264.55
449.11	32344.42
449.316	31887.73
449.522	32569.7
449.728	33386.84
449.935	33534.29
450.141	33378.65
450.347	34441.54
450.553	33309.02
450.76	33694.04
450.966	34808.13
451.172	34517.32
451.378	35363.13
451.584	34242.89
451.791	35426.62
451.997	34982.21
452.203	35954.99
452.409	35903.79
452.615	35451.19
452.821	34392.39
453.027	33888.59
453.233	35524.92
453.44	34281.8
453.646	34695.49
453.852	34404.68
454.058	35256.64
454.264	34351.43
454.47	35010.88
454.676	33982.8
454.882	35389.75
455.088	31928.69
455.294	32506.21
455.5	33517.91
455.705	33435.99
455.911	32194.92
456.117	31478.13
456.323	30927.23
456.529	29247.9
456.735	30235.02
456.941	29850
457.147	29782.41
457.352	28494.24
457.558	28002.73
457.764	28498.34
457.97	27531.7
458.176	26921.4
458.381	27015.61
458.587	25741.77
458.793	25782.73
458.999	24277.47
459.204	26171.85
459.41	25104.85
459.616	23507.44
459.821	23364.08
460.027	23552.49
460.233	23259.63
460.438	21670.41
460.644	22055.43
460.85	20855.32
461.055	20800.02
461.261	20615.71
461.466	19053.11
461.672	18696.76
461.878	19886.63
462.083	18442.81
462.289	18152
462.494	17809.99
462.7	17064.53
462.905	16562.78
463.111	17404.49
463.316	17478.22
463.522	17132.11
463.727	16935.51
463.932	16892.5
464.138	16769.62
464.343	16761.43
464.549	16128.61
464.754	16683.61
464.959	16673.37
465.165	16347.74
465.37	15633
465.575	15168.11
465.781	15960.67
465.986	16079.46
466.191	15381.1
466.397	15016.56
466.602	14443.13
466.807	15020.66
467.012	14879.35
467.218	14834.29
467.423	14690.93
467.628	14682.74
467.833	15272.56
468.038	14744.18
468.244	14330.49
468.449	14742.13
468.654	14293.63
468.859	14099.07
469.064	13953.66
469.269	13650.57
469.474	13591.17
469.679	14051.97
469.885	13609.61
470.09	13755.01
470.295	13587.08
470.5	13345.42
470.705	13474.44
470.91	13077.13
471.115	12849.81
471.32	13056.65
471.525	13025.93
471.73	12860.05
471.935	12534.42
472.139	12128.92
472.344	12546.71
472.549	12311.19
472.754	12118.68
472.959	11907.74
473.164	11459.24
473.369	11489.96
473.574	11735.71
473.778	11733.67
473.983	11684.52
474.188	11582.12
474.393	10922.67
474.598	11244.2
474.802	11006.64
475.007	10650.29
475.212	10906.29
475.417	10576.56
475.621	10691.25
475.826	10633.91
476.031	10386.1
476.235	10105.53
476.44	10291.9
476.645	9990.84
476.849	10017.47
477.054	9919.17
477.259	9620.16
477.463	9898.69
477.668	9583.3
477.872	9874.11
478.077	9370.31
478.282	9204.42
478.486	9247.43
478.691	9145.03
478.895	9059.02
479.1	9118.41
479.304	9183.95
479.509	8934.09
479.713	9054.92
479.918	8516.31
480.122	8596.18
480.326	8721.1
480.531	8825.55
480.735	8686.29
480.94	8653.52
481.144	8903.37
481.348	8360.66
481.553	8549.07
481.757	8358.61
481.961	8442.58
482.166	8616.66
482.37	8477.4
482.574	8268.5
482.778	8448.72
482.983	8448.72
483.187	8381.14
483.391	8362.71
483.595	8301.27
483.8	8162.01
484.004	8055.51
484.208	8483.54
484.412	8354.52
484.616	8164.06
484.821	8399.57
485.025	8139.48
485.229	8426.2
485.433	8260.31
485.637	8301.27
485.841	8254.17
486.045	8237.78
486.249	8274.65
486.453	8114.91
486.657	8211.16
486.861	8348.37
487.065	7942.88
487.269	8336.09
487.473	8098.52
487.677	8334.04
487.881	8256.22
488.085	8133.34
488.289	8186.58
488.493	8100.57
488.697	8243.93
488.901	8483.54
489.105	8174.3
489.309	8055.51
489.512	8377.05
489.716	8205.02
489.92	8444.63
490.124	8229.59
490.328	8233.69
490.531	8301.27
490.735	8274.65
490.939	8311.51
491.143	8456.92
491.346	8284.89
491.55	8461.01
491.754	8428.24
491.958	8538.84
492.161	8596.18
492.365	8551.12
492.569	8331.99
492.772	8606.42
492.976	8620.75
493.18	8622.8
493.383	8704.72
493.587	8807.12
493.79	8911.57
493.994	8770.26
494.197	8721.1
494.401	8964.81
494.605	8743.63
494.808	8827.6
495.012	9136.84
495.215	8948.43
495.419	9171.66
495.622	9071.31
495.825	9235.14
496.029	9278.15
496.232	9351.88
496.436	9208.52
496.639	9312.97
496.843	9501.38
497.046	9493.19
497.249	9675.46
497.453	9849.54
497.656	9919.17
497.859	9964.22
498.063	10068.67
498.266	10234.55
498.469	10146.49
498.673	10187.45
498.876	10310.33
499.079	10365.62
499.282	10488.5
499.485	10930.86
499.689	10611.38
499.892	10916.53
500.095	10914.48
500.298	10992.3
500.501	10963.63
500.705	11100.84
500.908	11317.93
501.111	11575.97
501.314	11322.02
501.517	11741.86
501.72	11936.42
501.923	11661.99
502.126	12147.36
502.329	12343.96
502.532	12133.02
502.735	12477.08
502.938	12405.4
503.141	12335.77
503.344	12698.26
503.547	12597.91
503.75	12849.81
503.953	13142.67
504.156	13259.4
504.359	13228.68
504.562	13177.48
504.765	13664.9
504.968	13632.13
505.17	13775.49
505.373	13562.5
505.576	14021.25
505.779	14142.08
505.982	14312.06
506.185	14512.76
506.387	14488.18
506.59	14613.11
506.793	14934.64
506.996	15067.76
507.198	15501.93
507.401	15245.93
507.604	15481.45
507.807	15727.21
508.009	15774.31
508.212	16089.7
508.415	15878.76
508.617	16290.4
508.82	16589.4
509.022	16304.73
509.225	16849.49
509.428	16923.22
509.63	17140.3
509.833	17062.48
510.035	17463.88
510.238	17609.29
510.44	17537.61
510.643	18031.17
510.845	18283.07
511.048	17646.15
511.25	18344.51
511.453	18414.14
511.655	19116.59
511.858	18887.22
512.06	18973.24
512.262	19137.07
512.465	19040.82
512.667	19257.9
512.87	19561
513.072	19683.88
513.274	19601.96
513.477	20314.66
513.679	20312.61
513.881	20601.37
514.084	20877.85
514.286	20922.9
514.488	20957.72
514.69	21436.94
514.893	21428.75
515.095	21486.09
515.297	21713.42
515.499	21744.14
515.701	22174.21
515.904	22747.64
516.106	22325.76
516.308	22753.79
516.51	23058.93
516.712	23101.94
516.914	23048.69
517.116	23685.61
517.318	23405.04
517.52	23910.89
517.722	23980.52
517.925	24109.54
518.127	24379.87
518.329	24351.2
518.531	24445.41
518.733	24713.69
518.935	25084.37
519.136	25078.23
519.338	25526.74
519.54	25475.54
519.742	25641.42
519.944	25618.89
520.146	26218.95
520.348	26235.33
520.55	26216.9
520.752	26323.4
520.954	26526.14
521.155	26634.69
521.357	26909.11
521.559	27093.43
521.761	27402.68
521.963	27382.2
522.164	27263.41
522.366	27601.33
522.568	27707.82
522.77	27810.22
522.971	28125.61
523.173	28127.66
523.375	27967.91
523.576	27877.8
523.778	28017.07
523.98	28547.49
524.181	28127.66
524.383	28393.89
524.584	28684.7
524.786	28987.8
524.988	28696.99
525.189	28998.04
525.391	29333.91
525.592	29170.07
525.794	29055.39
525.995	29385.11
526.197	29051.29
526.398	29260.18
526.6	29321.62
526.801	29417.88
527.003	29172.12
527.204	29604.24
527.406	29596.05
527.607	29622.67
527.808	29798.8
528.01	29266.33
528.211	29438.36
528.412	29936.01
528.614	29507.99
528.815	29397.4
529.016	30089.61
529.218	29329.81
529.419	29589.91
529.62	29698.45
529.822	29850
530.023	29546.9
530.224	29493.65
530.425	29497.75
530.626	29301.14
530.828	29391.25
531.029	30130.57
531.23	29378.97
531.431	29315.48
531.632	29464.98
531.833	29499.8
532.035	28946.84
532.236	29362.58
532.437	29575.57
532.638	29303.19
532.839	29372.82
533.04	29374.87
533.241	29116.83
533.442	29536.66
533.643	29153.69
533.844	29053.34
534.045	29014.43
534.246	28701.09
534.447	29036.95
534.648	28813.73
534.849	28930.46
535.05	28549.54
535.251	28744.09
535.451	28615.07
535.652	28875.16
535.853	28760.48
536.054	28748.19
536.255	28740
536.456	28348.84
536.657	28559.78
536.857	28264.87
537.058	28459.43
537.259	28424.61
537.46	28385.7
537.66	28166.57
537.861	28146.09
538.062	27994.54
538.263	28203.43
538.463	28576.16
538.664	28191.14
538.865	28035.5
539.065	28215.72
539.266	27910.57
539.466	28174.76
539.667	27822.51
539.868	28436.9
540.068	27929
540.269	28025.26
540.469	28090.79
540.67	27873.71
540.87	27857.32
541.071	28000.68
541.271	28182.95
541.472	27832.75
541.672	28221.86
541.873	27908.52
542.073	27517.36
542.274	28137.9
542.474	27820.46
542.675	27539.89
542.875	28010.92
543.075	27679.15
543.276	27302.32
543.476	28123.56
543.676	27691.44
543.877	27701.68
544.077	27703.73
544.277	27650.48
544.478	27613.62
544.678	27648.43
544.878	27537.84
545.078	27617.71
545.279	27414.96
545.479	27519.41
545.679	27865.52
545.879	27398.58
546.079	27654.58
546.28	27591.09
546.48	27494.83
546.68	27646.38
546.88	27771.31
547.08	27744.69
547.28	27402.68
547.48	27105.72
547.68	27509.17
547.88	27050.42
548.081	27546.03
548.281	27521.46
548.481	27525.55
548.681	27718.06
548.881	27384.24
549.081	27783.6
549.28	27328.95
549.48	27820.46
549.68	27343.28
549.88	27920.81
550.08	27251.13
550.28	27414.96
550.48	27609.52
550.68	27601.33
550.88	27404.72
551.08	27576.75
551.279	27861.42
551.479	27242.93
551.679	27935.15
551.879	27701.68
552.079	27863.47
552.278	27449.78
552.478	27828.65
552.678	27376.05
552.878	27632.05
553.077	27687.34
553.277	27388.34
553.477	27910.57
553.676	27888.04
553.876	27558.32
554.076	27586.99
554.275	27693.49
554.475	27429.3
554.674	27677.1
554.874	27632.05
555.074	27591.09
555.273	28002.73
555.473	27842.99
555.672	27593.14
555.872	27783.6
556.071	27810.22
556.271	28133.8
556.47	27875.76
556.67	27654.58
556.869	27586.99
557.068	27896.24
557.268	27533.75
557.467	27865.52
557.667	28033.45
557.866	28035.5
558.065	27957.67
558.265	27894.19
558.464	27873.71
558.663	28189.1
558.863	27713.97
559.062	28008.87
559.261	27693.49
559.461	28266.92
559.66	27820.46
559.859	27750.83
560.058	27646.38
560.258	28273.06
560.457	27888.04
560.656	27965.87
560.855	27869.61
561.054	27767.21
561.253	27687.34
561.453	27972.01
561.652	28127.66
561.851	28215.72
562.05	27761.07
562.249	27511.22
562.448	28144.04
562.647	27935.15
562.846	27810.22
563.045	28019.11
563.244	27840.94
563.443	28015.02
563.642	27490.74
563.841	27539.89
564.04	27785.65
564.239	27693.49
564.438	27535.79
564.637	27886
564.836	27783.6
565.035	27543.99
565.234	27615.66
565.432	27318.71
565.631	27492.79
565.83	27619.76
566.029	27331
566.228	27574.7
566.427	27331
566.625	27025.85
566.824	26933.69
567.023	27314.61
567.222	26898.87
567.42	27582.9
567.619	26882.49
567.818	26999.23
568.016	27050.42
568.215	27224.5
568.414	27093.43
568.612	27263.41
568.811	26517.95
569.01	26868.16
569.208	26476.99
569.407	26905.02
569.605	26630.59
569.804	26833.34
570.002	26610.11
570.201	26677.69
570.4	26425.79
570.598	26130.89
570.797	26270.15
570.995	26311.11
571.193	26069.45
571.392	26122.69
571.59	25792.97
571.789	25926.09
571.987	25973.19
572.186	25797.07
572.384	25866.7
572.582	25919.95
572.781	25852.36
572.979	25283.03
573.177	25653.71
573.376	25608.65
573.574	25377.23
573.772	25127.38
573.971	25606.61
574.169	25162.2
574.367	25102.81
574.565	25311.7
574.763	24924.63
574.962	25209.3
575.16	24822.23
575.358	24787.42
575.556	24592.86
575.754	25100.76
575.952	24277.47
576.151	24797.66
576.349	24547.81
576.547	24351.2
576.745	24584.67
576.943	24420.83
577.141	24281.57
577.339	24517.09
577.537	24353.25
577.735	24087.01
577.933	24025.57
578.131	23710.19
578.329	24185.32
578.527	23398.9
578.725	23583.21
578.923	23751.15
579.121	23290.35
579.319	23626.22
579.516	23638.51
579.714	23652.84
579.912	23380.46
580.11	23263.73
580.308	23319.03
580.506	23300.59
580.704	22678.01
580.901	23196.15
581.099	23284.21
581.297	23116.28
581.495	22669.82
581.692	23024.12
581.89	22784.51
582.088	22899.19
582.285	22864.38
582.483	22911.48
582.681	22465.02
582.878	22424.06
583.076	22395.39
583.274	22815.23
583.471	22188.55
583.669	22364.67
583.866	22161.92
584.064	22149.64
584.262	21772.81
584.459	21979.65
584.657	21983.75
584.854	22192.64
585.052	21877.26
585.249	21563.92
585.447	21817.86
585.644	21613.07
585.841	21778.95
586.039	21770.76
586.236	21471.76
586.434	21584.4
586.631	21221.91
586.828	21502.48
587.026	21586.44
587.223	21295.63
587.42	21269.01
587.618	21232.15
587.815	21002.77
588.012	21113.36
588.21	21101.08
588.407	21490.19
588.604	21002.77
588.801	20666.91
588.999	21000.72
589.196	21170.71
589.393	20996.63
589.59	20953.62
589.787	20771.35
589.984	20603.42
590.182	20660.76
590.379	20957.72
590.576	20838.94
590.773	20886.04
590.97	20283.94
591.167	20623.9
591.364	20578.84
591.561	20453.92
591.758	20240.93
591.955	20322.85
592.152	20544.03
592.349	20197.92
592.546	20285.98
592.743	20664.86
592.94	20050.47
593.137	20328.99
593.334	20263.46
593.531	20036.13
593.727	20361.76
593.924	20085.28
594.121	20005.41
594.318	20195.87
594.515	19939.88
594.712	20130.34
594.908	20017.7
595.105	19806.76
595.302	19833.38
595.499	20134.43
595.696	19706.41
595.892	19810.86
596.089	20087.33
596.286	19839.53
596.482	19757.61
596.679	19720.74
596.876	19720.74
597.072	19851.81
597.269	19849.77
597.466	19700.26
597.662	19761.7
597.859	19624.49
598.055	19231.28
598.252	19685.93
598.448	19771.94
598.645	19653.16
598.841	19413.55
599.038	19986.98
599.234	19898.92
599.431	19649.07
599.627	19696.17
599.824	19792.42
600.02	19632.68
600.217	19761.7
600.413	19679.79
600.609	19493.42
600.806	19874.34
601.002	19757.61
601.198	19636.78
601.395	19794.47
601.591	19939.88
601.787	19896.87
601.984	19745.32
602.18	20103.71
602.376	19890.73
602.572	19817
602.769	19995.17
602.965	20050.47
603.161	20251.17
603.357	19982.88
603.553	19747.37
603.75	20308.51
603.946	19995.17
604.142	20451.87
604.338	19819.05
604.534	20091.43
604.73	19984.93
604.926	20259.36
605.122	20361.76
605.318	20238.88
605.514	20259.36
605.71	20279.84
605.906	20570.65
606.102	20466.21
606.298	20484.64
606.494	20257.31
606.69	20851.22
606.886	20730.39
607.082	20384.29
607.278	20791.83
607.474	20619.8
607.67	20840.98
607.866	20353.57
608.062	20808.22
608.257	20939.29
608.453	20666.91
608.649	20892.18
608.845	20793.88
609.041	20867.61
609.236	20982.29
609.432	21023.25
609.628	21195.28
609.824	21135.89
610.019	21189.14
610.215	21162.51
610.411	21197.33
610.606	21252.63
610.802	21346.83
610.998	21553.68
611.193	21176.85
611.389	21309.97
611.584	21510.67
611.78	21371.41
611.976	21662.22
612.171	21580.3
612.367	21697.03
612.562	21486.09
612.758	21326.35
612.953	21666.31
613.149	21568.01
613.344	21555.72
613.539	21946.89
613.735	21662.22
613.93	22125.06
614.126	21830.15
614.321	21903.88
614.517	21903.88
614.712	21918.21
614.907	22061.57
615.103	22012.42
615.298	22030.85
615.493	21971.46
615.688	21690.89
615.884	22159.88
616.079	22014.47
616.274	22047.24
616.47	22049.28
616.665	22229.51
616.86	21684.75
617.055	21998.09
617.25	21883.4
617.445	22127.11
617.641	21801.48
617.836	22061.57
618.031	21729.8
618.226	21875.21
618.421	21633.55
618.616	22028.81
618.811	21629.45
619.006	21946.89
619.201	21580.3
619.396	21885.45
619.591	21182.99
619.786	21774.86
619.981	21453.33
620.176	21707.27
620.371	21539.34
620.566	21887.5
620.761	21135.89
620.956	21510.67
621.151	21082.64
621.346	21051.92
621.541	21099.03
621.735	21240.34
621.93	21010.96
622.125	20728.35
622.32	20974.1
622.515	20869.65
622.709	20621.85
622.904	20556.32
623.099	20660.76
623.294	20523.55
623.488	20507.16
623.683	20400.67
623.878	20118.05
624.072	20281.89
624.267	19937.83
624.462	19925.54
624.656	19837.48
624.851	19923.49
625.046	19638.83
625.24	19843.62
625.435	19630.63
625.629	19548.72
625.824	19163.7
626.018	19411.5
626.213	19030.58
626.407	19008.05
626.602	18905.65
626.796	18793.01
626.991	18780.73
627.185	18854.45
627.38	18782.77
627.574	18446.91
627.768	18688.57
627.963	18502.2
628.157	18256.45
628.352	18487.87
628.546	18008.64
628.74	18360.89
628.935	18025.03
629.129	18053.7
629.323	17723.97
629.517	17826.37
629.712	17709.64
629.906	17715.78
630.1	17836.61
630.294	17562.19
630.489	17369.68
630.683	17336.91
630.877	17109.58
631.071	17140.3
631.265	17162.83
631.459	16998.99
631.653	17076.82
631.848	17007.19
632.042	16994.9
632.236	16859.73
632.43	16654.94
632.624	16845.4
632.818	16452.19
633.012	16185.95
633.206	16026.21
633.4	16366.17
633.594	16151.13
633.788	16163.42
633.982	16149.09
634.176	16032.35
634.369	15743.59
634.563	15837.8
634.757	15704.68
634.951	15546.98
635.145	15348.33
635.339	15495.78
635.533	15293.04
635.726	15145.58
635.92	14934.64
636.114	15030.9
636.308	15047.28
636.501	14973.55
636.695	14977.65
636.889	14735.99
637.083	14830.2
637.276	14600.82
637.47	14494.33
637.664	14539.38
637.857	14451.32
638.051	14504.57
638.244	14092.93
638.438	13994.62
638.632	14172.8
638.825	13892.23
639.019	14164.61
639.212	13804.16
639.406	13716.1
639.599	13695.62
639.793	13525.64
639.986	13429.38
640.18	13300.36
640.373	13335.18
640.567	13152.91
640.76	13318.79
640.954	13200.01
641.147	12882.58
641.34	12817.04
641.534	13042.32
641.727	12817.04
641.92	12919.44
642.114	12731.03
642.307	12671.64
642.5	12538.52
642.694	12233.37
642.887	12233.37
643.08	12358.3
643.273	12315.29
643.467	12104.35
643.66	12077.73
643.853	11694.75
644.046	11569.83
644.239	11803.3
644.432	11850.4
644.626	11694.75
644.819	11651.75
645.012	11457.19
645.205	11623.08
645.398	11367.08
645.591	11242.15
645.784	11311.78
645.977	11020.97
646.17	11025.07
646.363	10932.91
646.556	10992.3
646.749	10842.8
646.942	10912.43
647.135	10797.74
647.328	10848.94
647.521	10525.36
647.714	10437.3
647.907	10607.28
648.099	10384.05
648.292	10334.9
648.485	10586.8
648.678	10144.44
648.871	9974.46
649.064	9812.67
649.256	10054.33
649.449	9867.97
649.642	9956.03
649.835	9974.46
650.027	9749.18
650.22	9786.05
650.413	9716.42
650.605	9874.11
650.798	9661.12
650.991	9593.54
651.183	9648.83
651.376	9497.28
651.568	9427.65
651.761	9474.76
651.954	9407.17
652.146	9327.3
652.339	9083.59
652.531	9212.62
652.724	9071.31
652.916	8870.61
653.109	9022.16
653.301	8975.05
653.494	8876.75
653.686	8587.99
653.879	8966.86
654.071	8659.67
654.263	8733.39
654.456	8678.1
654.648	8727.25
654.84	8657.62
655.033	8497.88
655.225	8471.25
655.417	8667.86
655.61	8508.12
655.802	8518.36
655.994	8350.42
656.186	8383.19
656.379	8264.41
656.571	8356.57
656.763	8002.27
656.955	8061.66
657.148	8162.01
657.34	7981.79
657.532	7754.46
657.724	7873.25
657.916	7885.53
658.108	7883.49
658.3	7813.85
658.492	7809.76
658.684	7555.81
658.876	7502.56
659.068	7502.56
659.26	7609.06
659.452	7592.67
659.644	7525.09
659.836	7375.59
660.028	7330.53
660.22	7308.01
660.412	7369.44
660.604	7215.85
660.796	7103.21
660.988	7203.56
661.18	7117.54
661.372	7025.39
661.563	7109.35
661.755	6863.6
661.947	6966
662.139	6998.76
662.331	6892.27
662.522	6859.5
662.714	6894.32
662.906	6642.42
663.097	6746.86
663.289	6707.95
663.481	6525.68
663.673	6564.59
663.864	6490.87
664.056	6441.72
664.247	6314.74
664.439	6349.56
664.631	6335.22
664.822	6343.41
665.014	6449.91
665.205	6212.34
665.397	6339.32
665.588	6214.39
665.78	6210.29
665.971	6271.73
666.163	6290.17
666.354	5966.59
666.546	6003.45
666.737	6062.84
666.929	6038.27
667.12	5794.56
667.311	6085.37
667.503	5868.28
667.694	5903.1
667.885	5974.78
668.077	5870.33
668.268	5657.34
668.459	5782.27
668.651	5970.68
668.842	5556.99
669.033	5698.3
669.224	5643.01
669.416	5694.21
669.607	5655.3
669.798	5462.79
669.989	5620.48
670.18	5468.93
670.371	5448.45
670.563	5495.55
670.754	5577.47
670.945	5436.16
671.136	5370.63
671.327	5425.92
671.518	5264.13
671.709	5241.61
671.9	5440.26
672.091	5458.69
672.282	5155.59
672.473	5196.55
672.664	5315.33
672.855	5200.65
673.046	5155.59
673.237	5305.09
673.428	5180.17
673.619	5077.77
673.809	4942.6
674	5128.97
674.191	4983.56
674.382	5045
674.573	5049.1
674.764	5053.19
674.954	5122.82
675.145	5024.52
675.336	5040.9
675.527	4942.6
675.717	4971.27
675.908	4801.29
676.099	4746
676.289	4750.09
676.48	4780.81
676.671	4809.48
676.861	4721.42
677.052	4690.7
677.243	4774.67
677.433	4713.23
677.624	4748.04
677.814	4680.46
678.005	4666.13
678.195	4696.85
678.386	4561.68
678.576	4838.16
678.767	4690.7
678.957	4592.4
679.148	4608.78
679.338	4598.54
679.529	4569.87
679.719	4504.34
679.909	4700.94
680.1	4633.36
680.29	4700.94
680.481	4602.64
680.671	4573.97
680.861	4590.35
681.052	4524.82
681.242	4508.43
681.432	4500.24
681.622	4498.19
681.813	4479.76
682.003	4557.58
682.193	4403.99
682.383	4696.85
682.573	4479.76
682.764	4360.98
682.954	4569.87
683.144	4461.33
683.334	4395.79
683.524	4324.12
683.714	4553.49
683.904	4455.19
684.094	4446.99
684.284	4496.14
684.474	4379.41
684.664	4461.33
684.854	4256.53
685.044	4305.68
685.234	4281.11
685.424	4367.12
685.614	4496.14
685.804	4303.64
685.994	4250.39
686.184	4283.16
686.374	4256.53
686.564	4225.81
686.753	4139.8
686.943	4322.07
687.133	4383.51
687.323	4311.83
687.513	4236.05
687.702	4205.33
687.892	4107.03
688.082	4274.96
688.272	4287.25
688.461	4109.08
688.651	4084.5
688.841	4084.5
689.03	4131.61
689.22	4113.17
689.41	4188.95
689.599	4182.81
689.789	4045.59
689.979	4041.5
690.168	4238.1
690.358	4137.75
690.547	4111.13
690.737	3994.39
690.926	4147.99
691.116	3928.86
691.305	4014.87
691.495	3896.09
691.684	4002.58
691.874	3922.71
692.063	3863.32
692.252	3992.34
692.442	4039.45
692.631	3955.48
692.82	4066.07
693.01	3869.47
693.199	4049.69
693.388	4043.54
693.578	3861.27
693.767	3881.75
693.956	3779.36
694.146	3918.62
694.335	3910.43
694.524	3920.67
694.713	3982.1
694.902	3889.95
695.092	3904.28
695.281	3885.85
695.47	3918.62
695.659	3910.43
695.848	3789.6
696.037	3871.51
696.226	3752.73
696.415	3777.31
696.604	3894.04
696.793	3797.79
696.982	3791.64
697.171	3830.55
697.36	3709.72
697.549	3787.55
697.738	3683.1
697.927	3722.01
698.116	3738.4
698.305	3732.25
698.494	3762.97
698.683	3662.62
698.872	3885.85
699.061	3631.9
699.25	3668.77
699.438	3762.97
699.627	3664.67
699.816	3689.25
700.005	3703.58
700.193	3701.53
700.382	3666.72
700.571	3660.57
700.76	3640.09
700.948	3765.02
701.137	3650.33
701.326	3521.31
701.514	3521.31
701.703	3574.56
701.892	3746.59
702.08	3683.1
702.269	3576.61
702.457	3502.88
702.646	3570.46
702.834	3574.56
703.023	3582.75
703.212	3617.57
703.4	3519.26
703.589	3349.28
703.777	3502.88
703.965	3517.22
704.154	3404.58
704.342	3365.67
704.531	3513.12
704.719	3392.29
704.907	3386.15
705.096	3406.63
705.284	3396.39
705.472	3418.91
705.661	3410.72
705.849	3328.8
706.037	3302.18
706.226	3386.15
706.414	3355.43
706.602	3332.9
706.79	3386.15
706.979	3224.36
707.167	3396.39
707.355	3173.16
707.543	3255.08
707.731	3365.67
707.919	3289.89
708.107	3248.93
708.296	3177.25
708.484	3181.35
708.672	3339.04
708.86	3224.36
709.048	3132.2
709.236	3230.5
709.424	3234.6
709.612	3130.15
709.8	3234.6
709.988	3099.43
710.176	3115.81
710.364	3279.65
710.551	3275.56
710.739	3066.66
710.927	3177.25
711.115	3273.51
711.303	3066.66
711.491	3115.81
711.679	3066.66
711.866	3005.22
712.054	3136.29
712.242	2984.74
712.43	3093.29
712.617	3025.7
712.805	3005.22
712.993	3007.27
713.181	2947.88
713.368	3128.1
713.556	2960.17
713.744	2913.06
713.931	2931.5
714.119	2927.4
714.306	2919.21
714.494	2908.97
714.682	2835.24
714.869	2798.38
715.057	2904.87
715.244	2771.76
715.432	2949.93
715.619	2863.91
715.807	2837.29
715.994	2896.68
716.182	2751.28
716.369	2810.67
716.556	2818.86
716.744	2841.39
716.931	2781.99
717.119	2781.99
717.306	2640.69
717.493	2865.96
717.681	2718.51
717.868	2781.99
718.055	2685.74
718.242	2710.32
718.43	2736.94
718.617	2698.03
718.804	2622.25
718.991	2706.22
719.179	2700.08
719.366	2716.46
719.553	2730.8
719.74	2681.64
719.927	2599.73
720.114	2657.07
720.301	2632.49
720.488	2550.57
720.676	2538.29
720.863	2665.26
721.05	2648.88
721.237	2577.2
721.424	2634.54
721.611	2564.91
721.798	2618.16
721.985	2485.04
722.172	2591.53
722.358	2444.08
722.545	2507.57
722.732	2419.5
722.919	2442.03
723.106	2429.74
723.293	2460.46
723.48	2423.6
723.667	2532.14
723.853	2444.08
724.04	2427.7
724.227	2362.16
724.414	2411.31
724.6	2366.26
724.787	2435.89
724.974	2294.58
725.161	2439.98
725.347	2325.3
725.534	2390.83
725.72	2353.97
725.907	2421.55
726.094	2452.27
726.28	2308.91
726.467	2331.44
726.653	2331.44
726.84	2333.49
727.027	2399.02
727.213	2231.09
727.4	2345.78
727.586	2380.59
727.773	2140.98
727.959	2214.71
728.145	2292.53
728.332	2181.94
728.518	2198.32
728.705	2265.91
728.891	2169.65
729.077	2216.76
729.264	2167.6
729.45	2224.95
729.636	2245.43
729.823	2222.9
730.009	2300.72
730.195	2210.61
730.382	2120.5
730.568	2124.6
730.754	2087.73
730.94	2136.88
731.126	2126.64
731.313	2274.1
731.499	2304.82
731.685	2126.64
731.871	2102.07
732.057	2165.56
732.243	2147.12
732.429	2143.03
732.615	2100.02
732.801	2063.16
732.987	2065.21
733.173	1981.24
733.359	2075.45
733.545	2052.92
733.731	1977.14
733.917	1960.76
734.103	2157.36
734.289	2022.2
734.475	2046.77
734.661	1979.19
734.847	1989.43
735.033	2059.06
735.219	1952.57
735.404	2067.25
735.59	1948.47
735.776	1952.57
735.962	2052.92
736.148	1993.53
736.333	2009.91
736.519	1848.12
736.705	1923.9
736.89	1971
737.076	1911.61
737.262	1944.38
737.447	1979.19
737.633	1831.74
737.819	1923.9
738.004	1981.24
738.19	1862.46
738.375	1968.95
738.561	1938.23
738.747	1823.55
738.932	1774.39
739.118	1864.5
739.303	1778.49
739.489	1792.83
739.674	1903.42
739.859	1837.88
740.045	1747.77
740.23	1915.7
740.416	1702.72
740.601	1813.31
740.786	1803.07
740.972	1735.48
741.157	1692.48
741.342	1733.43
741.528	1792.83
741.713	1657.66
741.898	1745.72
742.084	1624.89
742.269	1764.15
742.454	1780.54
742.639	1616.7
742.824	1641.28
743.01	1719.1
743.195	1805.11
743.38	1635.13
743.565	1641.28
743.75	1624.89
743.935	1712.96
744.12	1618.75
744.305	1530.69
744.49	1635.13
744.675	1661.76
744.86	1497.92
745.045	1596.22
745.23	1661.76
745.415	1616.7
745.6	1518.4
745.785	1563.45
745.97	1604.41
746.155	1428.29
746.34	1510.21
746.525	1405.76
746.71	1542.97
746.895	1459.01
747.079	1477.44
747.264	1346.37
747.449	1459.01
747.634	1536.83
747.819	1428.29
748.003	1397.57
748.188	1461.06
748.373	1477.44
748.557	1403.71
748.742	1420.1
748.927	1436.48
749.111	1383.23
749.296	1342.27
749.481	1481.53
749.665	1366.85
749.85	1377.09
750.034	1321.79
750.219	1282.88
750.404	1272.64
750.588	1329.99
750.773	1209.15
750.957	1315.65
751.141	1241.92
751.326	1321.79
751.51	1219.39
751.695	1276.74
751.879	1231.68
752.064	1323.84
752.248	1203.01
752.432	1256.26
752.617	1139.52
752.801	1299.27
752.985	1194.82
753.17	1221.44
753.354	1280.83
753.538	1125.19
753.722	1153.86
753.907	1190.72
754.091	1133.38
754.275	1117
754.459	1145.67
754.643	1086.28
754.828	1157.96
755.012	1149.76
755.196	1059.65
755.38	1117
755.564	1051.46
755.748	1086.28
755.932	1065.8
756.116	1059.65
756.3	1131.33
756.484	1004.36
756.668	1086.28
756.852	955.21
757.036	1092.42
757.22	1057.61
757.404	990.02
757.588	969.54
757.772	901.96
757.956	1026.89
758.14	990.02
758.323	944.97
758.507	1014.6
758.691	983.88
758.875	930.63
759.059	971.59
759.242	969.54
759.426	1026.89
759.61	930.63
759.794	975.69
759.977	881.48
760.161	994.12
760.345	928.58
760.528	985.93
760.712	944.97
760.895	938.82
761.079	895.82
761.263	813.9
761.446	848.71
761.63	846.66
761.813	838.47
761.997	822.09
762.18	879.43
762.364	846.66
762.547	791.37
762.731	799.56
762.914	840.52
763.098	879.43
763.281	727.88
763.464	793.42
763.648	803.66
763.831	826.18
764.015	813.9
764.198	922.44
764.381	826.18
764.564	834.38
764.748	783.18
764.931	777.03
765.114	838.47
765.297	789.32
765.481	822.09
765.664	858.95
765.847	815.94
766.03	895.82
766.213	768.84
766.397	815.94
766.58	699.21
766.763	764.75
766.946	750.41
767.129	746.31
767.312	744.27
767.495	707.4
767.678	774.99
767.861	807.75
768.044	799.56
768.227	813.9
768.41	699.21
768.593	756.55
768.776	809.8
768.959	772.94
769.142	699.21
769.324	699.21
769.507	721.74
769.69	707.4
769.873	713.55
770.056	830.28
770.239	789.32
770.421	799.56
770.604	748.36
770.787	781.13
770.97	764.75
771.152	727.88
771.335	715.59
771.518	707.4
771.7	717.64
771.883	695.11
772.066	629.58
772.248	748.36
772.431	686.92
772.613	668.49
772.796	709.45
772.978	660.3
773.161	717.64
773.343	629.58
773.526	570.19
773.708	645.96
773.891	617.29
774.073	723.79
774.256	592.72
774.438	703.31
774.621	648.01
774.803	578.38
774.985	600.91
775.168	600.91
775.35	602.96
775.532	635.72
775.715	555.85
775.897	609.1
776.079	625.48
776.261	715.59
776.444	598.86
776.626	545.61
776.808	539.47
776.99	592.72
777.173	553.8
777.355	578.38
777.537	518.99
777.719	545.61
777.901	609.1
778.083	549.71
778.265	562
778.447	547.66
778.629	435.02
778.811	639.82
778.993	559.95
779.175	535.37
779.357	559.95
779.539	537.42
779.721	418.64
779.903	506.7
780.085	488.27
780.267	510.8
780.449	529.23
780.631	502.61
780.812	461.65
780.994	518.99
781.176	459.6
781.358	412.5
781.54	453.45
781.721	488.27
781.903	471.89
782.085	426.83
782.267	437.07
782.448	373.58
782.63	486.22
782.812	461.65
782.993	475.98
783.175	375.63
783.357	400.21
783.538	469.84
783.72	338.77
783.901	381.78
784.083	387.92
784.264	422.73
784.446	363.34
784.627	334.67
784.809	371.54
784.99	469.84
785.172	412.5
785.353	430.93
785.535	379.73
785.716	314.19
785.897	387.92
786.079	394.06
786.26	394.06
786.441	430.93
786.623	281.43
786.804	346.96
786.985	383.82
787.167	381.78
787.348	357.2
787.529	344.91
787.71	406.35
787.891	330.58
788.073	344.91
788.254	314.19
788.435	381.78
788.616	371.54
788.797	248.66
788.978	330.58
789.159	301.9
789.34	334.67
789.522	297.81
789.703	306
789.884	258.9
790.065	355.15
790.246	318.29
790.427	308.05
790.607	346.96
790.788	277.33
790.969	322.38
791.15	301.9
791.331	291.66
791.512	283.47
791.693	248.66
791.874	359.25
792.054	375.63
792.235	322.38
792.416	224.08
792.597	256.85
792.778	332.62
792.958	308.05
793.139	236.37
793.32	306
793.5	238.42
793.681	297.81
793.862	219.99
794.042	283.47
794.223	215.89
794.404	295.76
794.584	199.51
794.765	256.85
794.945	228.18
795.126	287.57
795.306	312.14
795.487	240.47
795.667	297.81
795.848	256.85
796.028	297.81
796.209	269.14
796.389	250.71
796.57	273.23
796.75	244.56
796.93	244.56
797.111	215.89
797.291	176.98
797.471	226.13
797.652	211.79
797.832	217.94
798.012	232.27
798.192	265.04
798.373	142.16
798.553	138.07
798.733	234.32
798.913	252.75
799.093	199.51
799.274	207.7
799.454	195.41
799.634	265.04
799.814	187.22
799.994	174.93
800.174	193.36
800.354	234.32
800.534	199.51
800.714	123.73
800.894	191.31
801.074	211.79
801.254	121.68
801.434	226.13
801.614	232.27
801.794	256.85
801.974	826.18
802.154	142.16
802.334	248.66
802.514	88.92
802.693	201.55
802.873	166.74
803.053	166.74
803.233	209.75
803.413	172.88
803.592	119.64
803.772	111.44
803.952	174.93
804.131	162.64
804.311	168.79
804.491	215.89
804.67	140.12
804.85	127.83
805.03	158.55
805.209	142.16
805.389	174.93
805.568	80.72
805.748	166.74
805.928	166.74
806.107	201.55
806.287	105.3
806.466	203.6
806.646	93.01
806.825	174.93
807.004	97.11
807.184	183.12
807.363	166.74
807.543	142.16
807.722	117.59
807.901	144.21
808.081	176.98
808.26	133.97
808.439	228.18
808.619	127.83
808.798	127.83
808.977	195.41
809.156	232.27
809.336	84.82
809.515	142.16
809.694	103.25
809.873	121.68
810.052	78.68
810.231	103.25
810.411	133.97
810.59	174.93
810.769	121.68
810.948	142.16
811.127	76.63
811.306	127.83
811.485	158.55
811.664	195.41
811.843	84.82
812.022	115.54
812.201	138.07
812.38	99.16
812.559	52.05
812.737	168.79
812.916	109.4
813.095	117.59
813.274	39.76
813.453	138.07
813.632	101.2
813.811	113.49
813.989	33.62
814.168	133.97
814.347	127.83
814.526	82.77
814.704	187.22
814.883	101.2
815.062	90.96
815.24	150.36
815.419	107.35
815.598	113.49
815.776	60.24
815.955	133.97
816.133	101.2
816.312	101.2
816.49	99.16
816.669	72.53
816.847	93.01
817.026	158.55
817.204	93.01
817.383	103.25
817.561	84.82
817.74	183.12
817.918	189.27
818.097	84.82
818.275	93.01
818.453	82.77
818.632	43.86
818.81	90.96
818.988	97.11
819.167	97.11
819.345	64.34
819.523	125.78
819.701	64.34
819.879	88.92
820.058	-7.34
820.236	93.01
820.414	95.06
820.592	101.2
820.77	162.64
820.948	7
821.127	119.64
821.305	119.64
821.483	19.29
821.661	84.82
821.839	72.53
822.017	29.52
822.195	47.96
822.373	107.35
822.551	166.74
822.729	43.86
822.907	52.05
823.085	191.31
823.262	43.86
823.44	82.77
823.618	-1.19
823.796	158.55
823.974	80.72
824.152	19.29
824.329	31.57
824.507	101.2
824.685	103.25
824.863	35.67
825.04	31.57
825.218	125.78
825.396	136.02
825.574	111.44
825.751	68.44
825.929	127.83
826.107	111.44
826.284	78.68
826.462	37.72
826.639	70.48
826.817	-5.29
826.994	-3.24
827.172	-13.48
827.349	13.14
827.527	47.96
827.704	52.05
827.882	62.29
828.059	136.02
828.237	21.33
828.414	78.68
828.591	62.29
828.769	47.96
828.946	15.19
829.124	43.86
829.301	64.34
829.478	45.91
829.655	93.01
829.833	86.87
830.01	-1.19
830.187	41.81
830.364	37.72
830.542	97.11
830.719	131.92
830.896	50
831.073	133.97
831.25	37.72
831.427	54.1
831.604	31.57
831.782	68.44
831.959	54.1
832.136	68.44
832.313	101.2
832.49	68.44
832.667	37.72
832.844	35.67
833.021	111.44
833.198	-5.29
833.374	39.76
833.551	86.87
833.728	86.87
833.905	60.24
834.082	27.48
834.259	47.96
834.436	45.91
834.612	101.2
834.789	160.59
834.966	95.06
835.143	2.9
835.319	-36.01
835.496	60.24
835.673	84.82
835.85	93.01
836.026	76.63
836.203	31.57
836.38	76.63
836.556	99.16
836.733	-5.29
836.909	43.86
837.086	-7.34
837.262	41.81
837.439	7
837.616	-1.19
837.792	113.49
837.968	27.48
838.145	-74.92
838.321	29.52
838.498	37.72
838.674	4.95
838.851	68.44
839.027	27.48
839.203	25.43
839.38	-29.87
839.556	4.95
839.732	86.87
839.909	72.53
840.085	21.33
840.261	-36.01
840.437	84.82
840.614	80.72
840.79	86.87
840.966	43.86
841.142	-21.67
841.318	17.24
841.494	35.67
841.671	2.9
841.847	4.95
842.023	-70.83
842.199	35.67
842.375	47.96
842.551	-1.19
842.727	-21.67
842.903	146.26
843.079	19.29
843.255	88.92
843.431	80.72
843.607	39.76
843.783	-76.97
843.959	19.29
844.134	-13.48
844.31	88.92
844.486	68.44
844.662	-5.29
844.838	0.85
845.013	19.29
845.189	64.34
845.365	2.9
845.541	27.48
845.716	52.05
845.892	7
846.068	-21.67
846.244	-46.25
846.419	-25.77
846.595	97.11
846.77	-1.19
846.946	-5.29
847.122	31.57
847.297	2.9
847.473	19.29
847.648	-9.39
847.824	31.57
847.999	4.95
848.175	-50.35
848.35	29.52
848.526	109.4
848.701	37.72
848.876	27.48
849.052	33.62
849.227	-38.06
849.403	-21.67
849.578	-3.24
849.753	7
849.929	43.86
850.104	-1.19
850.279	27.48
850.454	84.82
850.63	-19.63
850.805	64.34
850.98	29.52
851.155	-29.87
851.33	35.67
851.505	7
851.681	179.03
851.856	-58.54
852.031	11.09
852.206	76.63
852.381	-9.39
852.556	2.9
852.731	17.24
852.906	39.76
853.081	21.33
853.256	76.63
853.431	31.57
853.606	11.09
853.781	-13.48
853.956	-44.2
854.131	60.24
854.305	19.29
854.48	33.62
854.655	-66.73
854.83	-13.48
855.005	-38.06
855.18	54.1
855.354	-21.67
855.529	-29.87
855.704	-19.63
855.879	19.29
856.053	-33.96
856.228	103.25
856.403	-87.21
856.577	72.53
856.752	-46.25
856.926	19.29
857.101	21.33
857.276	13.14
857.45	54.1
857.625	-29.87
857.799	-27.82
857.974	-19.63
858.148	-42.15
858.323	27.48
858.497	64.34
858.672	-19.63
858.846	-11.43
859.02	27.48
859.195	-21.67
859.369	52.05
859.543	11.09
859.718	-1.19
859.892	70.48
860.066	-29.87
860.241	-46.25
860.415	-44.2
860.589	2.9
860.763	31.57
860.938	-46.25
861.112	84.82
861.286	52.05
861.46	43.86
861.634	-5.29
861.808	27.48
861.982	52.05
862.157	-11.43
862.331	-66.73
862.505	-9.39
862.679	-38.06
862.853	29.52
863.027	-68.78
863.201	64.34
863.375	-44.2
863.549	7
863.722	35.67
863.896	-21.67
864.07	-19.63
864.244	-36.01
864.418	-36.01
864.592	47.96
864.766	-5.29
864.939	-36.01
865.113	-79.02
865.287	4.95
865.461	21.33
865.634	-19.63
865.808	11.09
865.982	27.48
866.156	-62.63
866.329	-97.45
866.503	-46.25
866.676	4.95
866.85	19.29
867.024	-50.35
867.197	-36.01
867.371	41.81
867.544	19.29
867.718	-64.68
867.891	60.24
868.065	-7.34
868.238	68.44
868.412	27.48
868.585	11.09
868.759	-38.06
868.932	-36.01
869.105	-62.63
869.279	-17.58
869.452	-76.97
869.625	-21.67
869.799	-5.29
869.972	-62.63
870.145	-7.34
870.319	47.96
870.492	-9.39
870.665	11.09
870.838	39.76
871.011	-44.2
871.185	115.54
871.358	-29.87
871.531	58.2
871.704	-17.58
871.877	19.29
872.05	11.09
872.223	-68.78
872.396	13.14
872.569	-3.24
872.742	-117.93
872.915	-11.43
873.088	-29.87
873.261	-60.59
873.434	7
873.607	-27.82
873.78	13.14
873.953	-25.77
874.126	47.96
874.299	93.01
874.471	-13.48
874.644	11.09
874.817	4.95
874.99	45.91
875.163	-21.67
875.335	70.48
875.508	-68.78
875.681	39.76
875.853	-13.48
876.026	74.58
876.199	43.86
876.371	52.05
876.544	-21.67
876.717	-25.77
876.889	-36.01
877.062	-1.19
877.234	29.52
877.407	-52.39
877.579	7
877.752	7
877.924	-3.24
878.097	19.29
878.269	2.9
878.442	15.19
878.614	43.86
878.786	-27.82
878.959	-58.54
879.131	11.09
879.303	-95.4
879.476	-11.43
879.648	11.09
879.82	-9.39
879.993	31.57
880.165	-70.83
880.337	-66.73
880.509	37.72
880.681	19.29
880.854	13.14
881.026	-1.19
881.198	115.54
881.37	-3.24
881.542	21.33
881.714	-21.67
881.886	27.48
882.058	0.85
882.23	-62.63
882.402	-76.97
882.574	-11.43
882.746	-17.58
882.918	-66.73
883.09	68.44
883.262	43.86
883.434	7
883.606	39.76
883.778	-33.96
883.95	29.52
884.122	33.62
884.293	23.38
884.465	-25.77
884.637	-27.82
884.809	-36.01
884.98	0.85
885.152	-42.15
885.324	23.38
885.496	-81.07
885.667	19.29
885.839	27.48
886.011	93.01
886.182	27.48
886.354	25.43
886.525	17.24
886.697	19.29
886.869	-36.01
887.04	2.9
887.212	54.1
887.383	13.14
887.555	64.34
887.726	19.29
887.897	-58.54
888.069	-38.06
888.24	2.9
888.412	60.24
888.583	23.38
888.754	19.29
888.926	-29.87
889.097	-19.63
889.268	-42.15
889.44	-62.63
889.611	-122.02
889.782	-54.44
889.953	-33.96
890.125	58.2
890.296	-44.2
890.467	-1.19
890.638	7
890.809	-36.01
890.98	2.9
891.151	-29.87
891.323	52.05
891.494	-44.2
891.665	-42.15
891.836	-5.29
892.007	-68.78
892.178	-29.87
892.349	35.67
892.52	9.05
892.691	41.81
892.862	-9.39
893.032	27.48
893.203	-50.35
893.374	-36.01
893.545	19.29
893.716	-21.67
893.887	103.25
894.057	-46.25
894.228	21.33
894.399	-13.48
894.57	37.72
894.74	-58.54
894.911	19.29
895.082	-33.96
895.253	2.9
895.423	2.9
895.594	4.95
895.764	11.09
895.935	-79.02
896.106	31.57
896.276	-5.29
896.447	-31.91
896.617	-68.78
896.788	-103.59
896.958	-23.72
897.129	39.76
897.299	-15.53
897.47	17.24
897.64	27.48
897.81	37.72
897.981	-5.29
898.151	-95.4
898.322	-13.48
898.492	-3.24
898.662	-42.15
898.832	-44.2
899.003	19.29
899.173	45.91
899.343	78.68
899.513	19.29
