Data from USB4F104151__196__14-33-10-953.txt Node

Date: Thu Mar 13 14:33:10 EDT 2025
User: louis
Spectrometer: USB4F10415
Trigger mode: 4
Integration Time (sec): 2.500000E-2
Scans to average: 1
Electric dark correction enabled: true
Nonlinearity correction enabled: false
Boxcar width: 0
XAxis mode: Wavelengths
Number of Pixels in Spectrum: 3648
>>>>>Begin Spectral Data<<<<<
178.204	-203.26
178.424	-203.26
178.644	-203.26
178.864	-123.39
179.084	-74.24
179.304	9.73
179.524	3.58
179.744	-37.38
179.964	26.11
180.184	38.4
180.404	17.92
180.624	-41.47
180.844	-10.75
181.064	-0.51
181.283	-72.19
181.503	34.3
181.723	32.26
181.943	26.11
182.163	77.31
182.383	1.54
182.602	81.41
182.822	56.83
183.042	52.74
183.262	15.87
183.482	17.92
183.701	-23.04
183.921	77.31
184.141	69.12
184.361	81.41
184.58	26.11
184.8	44.54
185.02	62.98
185.239	81.41
185.459	-33.28
185.679	122.37
185.898	48.64
186.118	167.42
186.338	108.03
186.557	73.21
186.777	-16.9
186.997	11.78
187.216	1.54
187.436	138.75
187.655	73.21
187.875	-8.7
188.095	34.3
188.314	124.41
188.534	105.98
188.753	46.59
188.973	17.92
189.192	44.54
189.412	83.45
189.631	17.92
189.851	42.5
190.07	40.45
190.29	-23.04
190.509	-31.23
190.729	56.83
190.948	-16.9
191.168	151.04
191.387	83.45
191.607	40.45
191.826	79.36
192.045	32.26
192.265	60.93
192.484	-12.8
192.704	-16.9
192.923	36.35
193.142	75.26
193.362	7.68
193.581	75.26
193.8	7.68
194.02	118.27
194.239	40.45
194.458	11.78
194.678	-8.7
194.897	15.87
195.116	91.65
195.335	15.87
195.555	48.64
195.774	83.45
195.993	30.21
196.212	-12.8
196.432	-6.66
196.651	-16.9
196.87	65.02
197.089	138.75
197.308	65.02
197.528	44.54
197.747	-82.43
197.966	52.74
198.185	75.26
198.404	48.64
198.623	124.41
198.842	1.54
199.062	85.5
199.281	89.6
199.5	85.5
199.719	134.65
199.938	81.41
200.157	40.45
200.376	171.52
200.595	77.31
200.814	-27.14
201.033	24.06
201.252	87.55
201.471	73.21
201.69	81.41
201.909	85.5
202.128	52.74
202.347	73.21
202.566	40.45
202.785	26.11
203.004	-16.9
203.223	128.51
203.442	97.79
203.661	73.21
203.879	126.46
204.098	93.69
204.317	15.87
204.536	56.83
204.755	81.41
204.974	67.07
205.193	-12.8
205.411	73.21
205.63	32.26
205.849	34.3
206.068	44.54
206.287	32.26
206.505	17.92
206.724	34.3
206.943	52.74
207.162	26.11
207.381	122.37
207.599	34.3
207.818	48.64
208.037	101.89
208.255	22.02
208.474	101.89
208.693	69.12
208.911	-0.51
209.13	28.16
209.349	26.11
209.567	77.31
209.786	13.82
210.005	15.87
210.223	42.5
210.442	67.07
210.661	114.17
210.879	24.06
211.098	48.64
211.316	93.69
211.535	126.46
211.753	15.87
211.972	-8.7
212.191	93.69
212.409	44.54
212.628	50.69
212.846	56.83
213.065	38.4
213.283	99.84
213.502	89.6
213.72	116.22
213.938	24.06
214.157	60.93
214.375	40.45
214.594	-14.85
214.812	114.17
215.031	48.64
215.249	44.54
215.467	34.3
215.686	77.31
215.904	36.35
216.122	91.65
216.341	142.85
216.559	17.92
216.778	103.93
216.996	95.74
217.214	56.83
217.432	7.68
217.651	28.16
217.869	105.98
218.087	42.5
218.306	56.83
218.524	77.31
218.742	24.06
218.96	85.5
219.179	50.69
219.397	93.69
219.615	89.6
219.833	-0.51
220.051	28.16
220.27	7.68
220.488	3.58
220.706	28.16
220.924	44.54
221.142	3.58
221.36	65.02
221.578	97.79
221.796	7.68
222.015	105.98
222.233	-8.7
222.451	73.21
222.669	-47.62
222.887	50.69
223.105	7.68
223.323	97.79
223.541	9.73
223.759	54.78
223.977	-6.66
224.195	40.45
224.413	89.6
224.631	138.75
224.849	91.65
225.067	91.65
225.285	67.07
225.503	-12.8
225.721	-0.51
225.939	69.12
226.157	81.41
226.375	122.37
226.592	48.64
226.81	56.83
227.028	99.84
227.246	65.02
227.464	50.69
227.682	30.21
227.9	62.98
228.117	50.69
228.335	50.69
228.553	26.11
228.771	17.92
228.989	65.02
229.206	77.31
229.424	44.54
229.642	-35.33
229.86	-2.56
230.077	-0.51
230.295	19.97
230.513	24.06
230.731	5.63
230.948	81.41
231.166	58.88
231.384	28.16
231.601	97.79
231.819	73.21
232.037	44.54
232.254	-29.18
232.472	9.73
232.689	17.92
232.907	83.45
233.125	40.45
233.342	-0.51
233.56	30.21
233.777	24.06
233.995	7.68
234.213	73.21
234.43	48.64
234.648	93.69
234.865	13.82
235.083	81.41
235.3	24.06
235.518	58.88
235.735	48.64
235.953	112.13
236.17	83.45
236.388	-16.9
236.605	118.27
236.822	114.17
237.04	67.07
237.257	56.83
237.475	40.45
237.692	124.41
237.909	48.64
238.127	30.21
238.344	93.69
238.562	28.16
238.779	-12.8
238.996	26.11
239.214	42.5
239.431	42.5
239.648	17.92
239.865	54.78
240.083	116.22
240.3	40.45
240.517	40.45
240.735	44.54
240.952	42.5
241.169	77.31
241.386	32.26
241.603	9.73
241.821	114.17
242.038	103.93
242.255	56.83
242.472	-43.52
242.689	144.89
242.907	89.6
243.124	48.64
243.341	69.12
243.558	108.03
243.775	56.83
243.992	-16.9
244.209	77.31
244.426	56.83
244.643	69.12
244.86	52.74
245.078	24.06
245.295	140.8
245.512	34.3
245.729	67.07
245.946	24.06
246.163	-33.28
246.38	97.79
246.597	48.64
246.814	110.08
247.031	48.64
247.248	58.88
247.464	58.88
247.681	99.84
247.898	85.5
248.115	34.3
248.332	24.06
248.549	77.31
248.766	110.08
248.983	93.69
249.2	58.88
249.417	56.83
249.633	5.63
249.85	48.64
250.067	40.45
250.284	73.21
250.501	-23.04
250.717	56.83
250.934	-20.99
251.151	69.12
251.368	36.35
251.585	126.46
251.801	38.4
252.018	-8.7
252.235	73.21
252.451	-8.7
252.668	26.11
252.885	22.02
253.102	-16.9
253.318	11.78
253.535	32.26
253.752	28.16
253.968	48.64
254.185	40.45
254.401	126.46
254.618	28.16
254.835	42.5
255.051	69.12
255.268	48.64
255.484	19.97
255.701	81.41
255.917	48.64
256.134	3.58
256.351	24.06
256.567	17.92
256.784	15.87
257	-47.62
257.217	15.87
257.433	67.07
257.65	48.64
257.866	67.07
258.082	15.87
258.299	17.92
258.515	56.83
258.732	-8.7
258.948	34.3
259.165	46.59
259.381	-29.18
259.597	69.12
259.814	60.93
260.03	67.07
260.246	73.21
260.463	24.06
260.679	79.36
260.895	81.41
261.112	73.21
261.328	50.69
261.544	40.45
261.761	65.02
261.977	9.73
262.193	-16.9
262.409	73.21
262.626	40.45
262.842	65.02
263.058	9.73
263.274	103.93
263.49	1.54
263.707	110.08
263.923	151.04
264.139	24.06
264.355	71.17
264.571	58.88
264.787	19.97
265.004	48.64
265.22	54.78
265.436	83.45
265.652	11.78
265.868	15.87
266.084	40.45
266.3	36.35
266.516	11.78
266.732	50.69
266.948	83.45
267.164	32.26
267.38	122.37
267.596	24.06
267.812	75.26
268.028	126.46
268.244	-25.09
268.46	56.83
268.676	22.02
268.892	54.78
269.108	-2.56
269.324	48.64
269.54	48.64
269.756	120.32
269.972	-14.85
270.188	28.16
270.403	-31.23
270.619	-4.61
270.835	114.17
271.051	73.21
271.267	44.54
271.483	85.5
271.698	22.02
271.914	-0.51
272.13	73.21
272.346	22.02
272.562	50.69
272.777	99.84
272.993	124.41
273.209	36.35
273.425	91.65
273.64	-10.75
273.856	140.8
274.072	93.69
274.287	73.21
274.503	108.03
274.719	65.02
274.934	81.41
275.15	-31.23
275.366	7.68
275.581	28.16
275.797	3.58
276.012	40.45
276.228	73.21
276.444	44.54
276.659	81.41
276.875	-41.47
277.09	44.54
277.306	42.5
277.521	40.45
277.737	32.26
277.952	110.08
278.168	26.11
278.383	34.3
278.599	62.98
278.814	28.16
279.03	81.41
279.245	73.21
279.461	54.78
279.676	81.41
279.892	15.87
280.107	73.21
280.322	19.97
280.538	62.98
280.753	-23.04
280.969	89.6
281.184	-41.47
281.399	91.65
281.615	-0.51
281.83	81.41
282.045	3.58
282.26	50.69
282.476	-0.51
282.691	99.84
282.906	81.41
283.122	-0.51
283.337	44.54
283.552	89.6
283.767	83.45
283.983	75.26
284.198	5.63
284.413	75.26
284.628	-12.8
284.843	56.83
285.058	15.87
285.274	118.27
285.489	-0.51
285.704	42.5
285.919	-45.57
286.134	97.79
286.349	32.26
286.564	77.31
286.779	103.93
286.995	32.26
287.21	-12.8
287.425	48.64
287.64	62.98
287.855	9.73
288.07	24.06
288.285	105.98
288.5	-12.8
288.715	32.26
288.93	42.5
289.145	24.06
289.36	105.98
289.575	52.74
289.79	97.79
290.004	19.97
290.219	138.75
290.434	122.37
290.649	75.26
290.864	81.41
291.079	65.02
291.294	75.26
291.509	91.65
291.724	7.68
291.938	87.55
292.153	97.79
292.368	73.21
292.583	32.26
292.798	77.31
293.012	28.16
293.227	32.26
293.442	-8.7
293.657	56.83
293.871	187.9
294.086	32.26
294.301	105.98
294.516	75.26
294.73	36.35
294.945	34.3
295.16	-6.66
295.374	161.28
295.589	38.4
295.804	32.26
296.018	42.5
296.233	118.27
296.447	65.02
296.662	15.87
296.877	89.6
297.091	91.65
297.306	99.84
297.52	62.98
297.735	99.84
297.949	48.64
298.164	118.27
298.378	85.5
298.593	48.64
298.807	5.63
299.022	75.26
299.236	56.83
299.451	-25.09
299.665	65.02
299.88	-41.47
300.094	89.6
300.309	110.08
300.523	95.74
300.737	-37.38
300.952	83.45
301.166	89.6
301.381	-27.14
301.595	91.65
301.809	44.54
302.024	101.89
302.238	26.11
302.452	42.5
302.667	19.97
302.881	148.99
303.095	122.37
303.309	32.26
303.524	17.92
303.738	9.73
303.952	81.41
304.166	48.64
304.381	-55.81
304.595	146.94
304.809	112.13
305.023	19.97
305.237	54.78
305.452	93.69
305.666	60.93
305.88	56.83
306.094	65.02
306.308	101.89
306.522	60.93
306.736	52.74
306.95	42.5
307.164	130.56
307.379	44.54
307.593	148.99
307.807	112.13
308.021	69.12
308.235	71.17
308.449	58.88
308.663	-4.61
308.877	97.79
309.091	71.17
309.305	75.26
309.519	-0.51
309.733	146.94
309.947	13.82
310.161	65.02
310.374	17.92
310.588	134.65
310.802	1.54
311.016	56.83
311.23	65.02
311.444	42.5
311.658	48.64
311.872	75.26
312.085	9.73
312.299	87.55
312.513	48.64
312.727	73.21
312.941	42.5
313.154	42.5
313.368	101.89
313.582	58.88
313.796	48.64
314.009	40.45
314.223	52.74
314.437	40.45
314.651	24.06
314.864	56.83
315.078	83.45
315.292	56.83
315.505	42.5
315.719	26.11
315.933	3.58
316.146	120.32
316.36	19.97
316.573	13.82
316.787	67.07
317.001	-23.04
317.214	-8.7
317.428	89.6
317.641	-12.8
317.855	36.35
318.068	19.97
318.282	101.89
318.495	144.89
318.709	24.06
318.922	38.4
319.136	73.21
319.349	9.73
319.563	81.41
319.776	60.93
319.99	-37.38
320.203	24.06
320.417	54.78
320.63	26.11
320.843	75.26
321.057	140.8
321.27	46.59
321.483	101.89
321.697	79.36
321.91	40.45
322.124	62.98
322.337	-4.61
322.55	114.17
322.763	17.92
322.977	52.74
323.19	42.5
323.403	56.83
323.617	36.35
323.83	32.26
324.043	79.36
324.256	67.07
324.469	1.54
324.683	97.79
324.896	85.5
325.109	1.54
325.322	-12.8
325.535	83.45
325.748	67.07
325.962	79.36
326.175	114.17
326.388	15.87
326.601	7.68
326.814	48.64
327.027	67.07
327.24	91.65
327.453	17.92
327.666	73.21
327.879	40.45
328.092	40.45
328.305	77.31
328.518	15.87
328.731	19.97
328.944	97.79
329.157	46.59
329.37	54.78
329.583	83.45
329.796	151.04
330.009	48.64
330.222	48.64
330.435	75.26
330.648	52.74
330.861	75.26
331.073	67.07
331.286	32.26
331.499	91.65
331.712	34.3
331.925	54.78
332.138	46.59
332.35	108.03
332.563	42.5
332.776	79.36
332.989	48.64
333.202	89.6
333.414	13.82
333.627	15.87
333.84	120.32
334.053	24.06
334.265	65.02
334.478	32.26
334.691	52.74
334.903	77.31
335.116	-82.43
335.329	60.93
335.541	46.59
335.754	67.07
335.966	9.73
336.179	56.83
336.392	32.26
336.604	56.83
336.817	34.3
337.029	32.26
337.242	93.69
337.454	65.02
337.667	-0.51
337.88	81.41
338.092	128.51
338.305	93.69
338.517	44.54
338.729	91.65
338.942	56.83
339.154	-6.66
339.367	7.68
339.579	122.37
339.792	-4.61
340.004	97.79
340.217	40.45
340.429	114.17
340.641	89.6
340.854	91.65
341.066	19.97
341.278	126.46
341.491	85.5
341.703	58.88
341.915	36.35
342.128	81.41
342.34	95.74
342.552	50.69
342.764	122.37
342.977	75.26
343.189	17.92
343.401	58.88
343.613	118.27
343.826	19.97
344.038	11.78
344.25	114.17
344.462	67.07
344.674	42.5
344.886	22.02
345.099	19.97
345.311	103.93
345.523	26.11
345.735	19.97
345.947	28.16
346.159	34.3
346.371	19.97
346.583	1.54
346.795	118.27
347.007	101.89
347.219	81.41
347.431	67.07
347.643	116.22
347.855	7.68
348.067	118.27
348.279	56.83
348.491	140.8
348.703	142.85
348.915	32.26
349.127	69.12
349.339	34.3
349.551	13.82
349.763	73.21
349.975	75.26
350.187	75.26
350.399	97.79
350.61	167.42
350.822	24.06
351.034	148.99
351.246	95.74
351.458	42.5
351.669	83.45
351.881	56.83
352.093	81.41
352.305	97.79
352.517	97.79
352.728	146.94
352.94	56.83
353.152	122.37
353.363	15.87
353.575	73.21
353.787	138.75
353.999	56.83
354.21	192
354.422	40.45
354.633	89.6
354.845	15.87
355.057	75.26
355.268	136.7
355.48	89.6
355.692	9.73
355.903	81.41
356.115	32.26
356.326	-31.23
356.538	169.47
356.749	34.3
356.961	134.65
357.172	36.35
357.384	65.02
357.595	173.57
357.807	32.26
358.018	-4.61
358.23	77.31
358.441	134.65
358.653	91.65
358.864	97.79
359.075	54.78
359.287	42.5
359.498	132.61
359.709	85.5
359.921	95.74
360.132	126.46
360.344	-8.7
360.555	60.93
360.766	60.93
360.977	30.21
361.189	32.26
361.4	17.92
361.611	114.17
361.823	153.09
362.034	62.98
362.245	24.06
362.456	93.69
362.667	148.99
362.879	19.97
363.09	118.27
363.301	75.26
363.512	65.02
363.723	89.6
363.935	7.68
364.146	85.5
364.357	34.3
364.568	34.3
364.779	-33.28
364.99	89.6
365.201	19.97
365.412	126.46
365.623	38.4
365.834	52.74
366.045	118.27
366.256	130.56
366.467	56.83
366.678	15.87
366.889	5.63
367.1	65.02
367.311	52.74
367.522	97.79
367.733	99.84
367.944	108.03
368.155	17.92
368.366	81.41
368.577	151.04
368.788	48.64
368.999	28.16
369.209	-20.99
369.42	108.03
369.631	124.41
369.842	116.22
370.053	24.06
370.264	97.79
370.474	85.5
370.685	67.07
370.896	132.61
371.107	87.55
371.317	93.69
371.528	136.7
371.739	91.65
371.95	85.5
372.16	114.17
372.371	24.06
372.582	105.98
372.792	116.22
373.003	118.27
373.214	15.87
373.424	-4.61
373.635	65.02
373.846	138.75
374.056	81.41
374.267	48.64
374.477	114.17
374.688	73.21
374.898	81.41
375.109	108.03
375.319	97.79
375.53	7.68
375.74	50.69
375.951	69.12
376.161	89.6
376.372	50.69
376.582	-25.09
376.793	112.13
377.003	65.02
377.214	52.74
377.424	1.54
377.635	69.12
377.845	7.68
378.055	89.6
378.266	60.93
378.476	81.41
378.686	3.58
378.897	128.51
379.107	105.98
379.317	73.21
379.528	65.02
379.738	189.95
379.948	65.02
380.158	151.04
380.369	38.4
380.579	60.93
380.789	26.11
380.999	48.64
381.21	75.26
381.42	222.72
381.63	58.88
381.84	38.4
382.05	69.12
382.261	130.56
382.471	15.87
382.681	-12.8
382.891	81.41
383.101	99.84
383.311	19.97
383.521	91.65
383.731	105.98
383.941	97.79
384.151	67.07
384.361	151.04
384.571	151.04
384.781	118.27
384.991	218.62
385.201	157.18
385.411	36.35
385.621	83.45
385.831	19.97
386.041	81.41
386.251	91.65
386.461	163.33
386.671	83.45
386.881	155.13
387.091	97.79
387.301	138.75
387.511	91.65
387.72	91.65
387.93	103.93
388.14	19.97
388.35	50.69
388.56	58.88
388.769	26.11
388.979	97.79
389.189	83.45
389.399	36.35
389.609	73.21
389.818	136.7
390.028	155.13
390.238	183.81
390.447	73.21
390.657	91.65
390.867	114.17
391.076	-12.8
391.286	116.22
391.496	157.18
391.705	75.26
391.915	122.37
392.125	85.5
392.334	65.02
392.544	204.28
392.753	146.94
392.963	79.36
393.172	89.6
393.382	77.31
393.591	146.94
393.801	50.69
394.01	163.33
394.22	103.93
394.429	89.6
394.639	65.02
394.848	130.56
395.058	97.79
395.267	134.65
395.477	110.08
395.686	105.98
395.895	196.09
396.105	140.8
396.314	146.94
396.524	134.65
396.733	89.6
396.942	241.15
397.152	108.03
397.361	118.27
397.57	126.46
397.78	142.85
397.989	216.57
398.198	179.71
398.407	148.99
398.617	183.81
398.826	50.69
399.035	95.74
399.244	183.81
399.453	146.94
399.663	163.33
399.872	167.42
400.081	196.09
400.29	198.14
400.499	138.75
400.708	167.42
400.917	87.55
401.127	114.17
401.336	60.93
401.545	222.72
401.754	155.13
401.963	220.67
402.172	151.04
402.381	206.33
402.59	206.33
402.799	110.08
403.008	249.34
403.217	181.76
403.426	132.61
403.635	161.28
403.844	173.57
404.053	155.13
404.262	118.27
404.471	269.82
404.68	224.76
404.888	179.71
405.097	163.33
405.306	235
405.515	183.81
405.724	171.52
405.933	249.34
406.142	306.68
406.35	228.86
406.559	292.35
406.768	351.74
406.977	321.02
407.185	294.4
407.394	235
407.603	282.11
407.812	343.55
408.02	329.21
408.229	290.3
408.438	310.78
408.646	359.93
408.855	364.03
409.064	359.93
409.272	454.14
409.481	419.32
409.69	286.2
409.898	351.74
410.107	460.28
410.315	574.97
410.524	421.37
410.733	466.42
410.941	536.06
411.15	523.77
411.358	472.57
411.567	550.39
411.775	540.15
411.984	622.07
412.192	663.03
412.401	601.59
412.609	650.74
412.818	785.91
413.026	732.66
413.234	703.99
413.443	738.8
413.651	728.56
413.86	796.15
414.068	863.73
414.276	957.94
414.485	843.25
414.693	859.63
414.901	974.32
415.11	1023.47
415.318	998.9
415.526	951.79
415.734	1072.62
415.943	1189.36
416.151	1117.68
416.359	1158.64
416.567	1244.65
416.776	1271.28
416.984	1342.96
417.192	1408.49
417.4	1326.57
417.608	1281.52
417.817	1465.83
418.025	1486.31
418.233	1641.96
418.441	1588.71
418.649	1596.9
418.857	1805.8
419.065	1779.17
419.273	1744.36
419.481	1875.43
419.689	2031.07
419.897	2117.09
420.105	2010.59
420.313	2115.04
420.521	2270.69
420.729	2172.38
420.937	2299.36
421.145	2424.28
421.353	2651.61
421.561	2645.46
421.769	2686.42
421.977	2979.28
422.185	2817.49
422.393	2919.89
422.601	3177.94
422.809	3104.21
423.017	3102.16
423.224	3390.92
423.432	3517.9
423.64	3456.46
423.848	3837.38
424.056	3669.45
424.263	4052.42
424.471	3878.34
424.679	4007.36
424.887	4308.41
425.094	4269.5
425.302	4398.52
425.51	4556.22
425.718	4631.99
425.925	4914.61
426.133	4844.98
426.341	5234.1
426.548	5434.8
426.756	5369.26
426.964	5479.85
427.171	5836.2
427.379	5883.3
427.586	5914.02
427.794	6299.04
428.001	6532.51
428.209	6737.31
428.417	6538.65
428.624	7257.49
428.832	7142.8
429.039	6944.15
429.247	7079.32
429.454	7802.25
429.662	8344.96
429.869	7740.81
430.076	8433.02
430.284	8084.87
430.491	8371.58
430.699	8785.27
430.906	9039.22
431.114	8945.02
431.321	9198.96
431.528	9790.83
431.736	10241.38
431.943	10591.58
432.15	10370.4
432.358	10190.18
432.565	11050.33
432.772	10861.91
432.979	11466.07
433.187	11638.09
433.394	11683.15
433.601	12528.96
433.808	12506.43
434.016	12442.95
434.223	12979.51
434.43	13626.67
434.637	13669.68
434.844	14413.09
435.052	14556.45
435.259	14318.89
435.466	14402.85
435.673	14421.28
435.88	15289.62
436.087	16260.36
436.294	16033.04
436.501	15752.46
436.708	16037.13
436.915	16639.23
437.122	17409.27
437.329	17122.55
437.537	17880.3
437.743	18339.05
437.95	18015.47
438.157	18791.65
438.364	19551.45
438.571	19709.14
438.778	19707.09
438.985	21216.44
439.192	20585.67
439.399	20884.67
439.606	20858.05
439.813	21818.55
440.02	23178.4
440.227	22877.35
440.433	22688.93
440.64	23116.96
440.847	23366.81
441.054	23751.83
441.261	25203.84
441.467	24861.83
441.674	25609.34
441.881	26242.16
442.088	26356.85
442.294	26262.64
442.501	26729.58
442.708	27036.77
442.914	28363.86
443.121	29244.48
443.328	28392.53
443.534	30813.23
443.741	29570.11
443.948	29013.06
444.154	31747.1
444.361	31511.58
444.568	31552.54
444.774	31407.14
444.981	32029.72
445.187	32701.45
445.394	34350.07
445.6	34077.69
445.807	36809.68
446.013	35546.08
446.22	36037.59
446.426	37512.13
446.633	37682.11
446.839	38685.62
447.046	37227.46
447.252	39490.47
447.459	39752.61
447.665	39351.21
447.871	40702.87
448.078	42120.06
448.284	40782.74
448.491	41364.36
448.697	42775.41
448.903	44559.19
449.11	43797.35
449.316	43512.68
449.522	44426.07
449.728	45169.49
449.935	45695.81
450.141	46031.68
450.347	46752.57
450.553	45218.64
450.76	46029.63
450.966	47278.89
451.172	46648.12
451.378	48173.86
451.584	46691.13
451.791	48210.72
451.997	47825.7
452.203	48821.02
452.409	48624.41
452.615	48419.61
452.821	46340.92
453.027	45962.05
453.233	48311.07
453.44	46723.9
453.646	47139.63
453.852	46865.2
454.058	47866.66
454.264	46447.42
454.47	47379.25
454.676	46435.13
454.882	47975.2
455.088	43805.54
455.294	44534.62
455.5	45198.16
455.705	45181.77
455.911	43799.4
456.117	43023.22
456.323	42251.13
456.529	40094.62
456.735	42118.01
456.941	40907.66
457.147	40190.87
457.352	39187.37
457.558	38661.04
457.764	38783.92
457.97	37661.63
458.176	37120.97
458.381	37288.9
458.587	35439.59
458.793	35283.94
458.999	33676.29
459.204	35779.55
459.41	35032.04
459.616	32261.14
459.821	32594.96
460.027	32222.23
460.233	31593.5
460.438	29940.79
460.644	30680.11
460.85	29033.54
461.055	28646.47
461.261	28501.07
461.466	26496.11
461.672	25547.9
461.878	27317.34
462.083	25556.09
462.289	25132.16
462.494	24992.9
462.7	23903.38
462.905	23217.31
463.111	24007.83
463.316	23884.95
463.522	23522.46
463.727	23571.61
463.932	23323.8
464.138	23121.06
464.343	23446.68
464.549	22707.37
464.754	23514.27
464.959	23239.84
465.165	22914.21
465.37	21892.27
465.575	21576.89
465.781	22256.81
465.986	22236.33
466.191	21935.28
466.397	21243.07
466.602	20030.67
466.807	20696.26
467.012	21021.89
467.218	20796.61
467.423	20364.49
467.628	20923.58
467.833	21601.46
468.038	20669.64
468.244	20118.73
468.449	20872.39
468.654	19991.76
468.859	19770.58
469.064	20028.62
469.269	19152.09
469.474	19496.15
469.679	19522.77
469.885	19143.9
470.09	19213.53
470.295	19176.67
470.5	18494.69
470.705	18834.66
470.91	18345.19
471.115	18234.6
471.32	18529.51
471.525	18386.15
471.73	17972.46
471.935	17900.78
472.139	17235.19
472.344	17403.13
472.549	17177.85
472.754	16876.8
472.959	16964.86
473.164	16440.58
473.369	16254.22
473.574	16841.98
473.778	16719.1
473.983	16235.78
474.188	16321.8
474.393	15947.02
474.598	15836.43
474.802	15514.9
475.007	15338.77
475.212	15605.01
475.417	14980.38
475.621	15068.44
475.826	14892.32
476.031	14691.62
476.235	14499.11
476.44	14814.49
476.645	14464.29
476.849	14482.72
477.054	14208.3
477.259	14169.38
477.463	13878.57
477.668	13862.19
477.872	14101.8
478.077	13589.81
478.282	13425.97
478.486	13120.82
478.691	13176.12
478.895	12969.27
479.1	13004.09
479.304	13282.61
479.509	12393.79
479.713	12682.56
479.918	12653.89
480.122	12217.67
480.326	12754.24
480.531	12477.76
480.735	12293.44
480.94	12221.77
481.144	12436.8
481.348	11943.24
481.553	12178.76
481.757	11898.19
481.961	12053.83
482.166	12479.81
482.37	12090.7
482.574	11949.39
482.778	11906.38
482.983	12250.44
483.187	12037.45
483.391	12092.74
483.595	11801.93
483.8	12090.7
484.004	12098.89
484.208	12119.37
484.412	12084.55
484.616	11779.4
484.821	11976.01
485.025	11619.66
485.229	12092.74
485.433	11992.39
485.637	11717.97
485.841	12164.42
486.045	12014.92
486.249	11945.29
486.453	11863.37
486.657	11898.19
486.861	12021.06
487.065	11705.68
487.269	11914.57
487.473	11617.61
487.677	11889.99
487.881	12113.22
488.085	11744.59
488.289	12197.19
488.493	11914.57
488.697	12031.3
488.901	12098.89
489.105	11910.47
489.309	12098.89
489.512	12016.97
489.716	12029.26
489.92	12041.54
490.124	11812.17
490.328	12387.65
490.531	12121.42
490.735	12227.91
490.939	12385.6
491.143	12066.12
491.346	12141.89
491.55	12385.6
491.754	12363.08
491.958	12350.79
492.161	12254.53
492.365	12422.47
492.569	12285.25
492.772	12434.75
492.976	12510.53
493.18	12569.92
493.383	12619.07
493.587	12885.31
493.79	13057.34
493.994	12703.04
494.197	12922.17
494.401	12975.42
494.605	12909.88
494.808	13237.56
495.012	13155.64
495.215	13237.56
495.419	13303.09
495.622	13475.12
495.825	13557.04
496.029	13622.58
496.232	13913.39
496.436	13774.13
496.639	14036.27
496.843	13983.02
497.046	14351.65
497.249	14511.39
497.453	14501.15
497.656	14642.46
497.859	14501.15
498.063	14777.63
498.266	15031.58
498.469	14933.28
498.673	15174.94
498.876	15410.45
499.079	15463.7
499.282	15570.19
499.485	15893.77
499.689	15949.07
499.892	16028.94
500.095	16092.43
500.298	16440.58
500.501	16481.54
500.705	16747.78
500.908	16934.14
501.111	17044.73
501.314	17116.41
501.517	17267.96
501.72	17816.82
501.923	17562.87
502.126	18171.11
502.329	18001.13
502.532	18382.06
502.735	18382.06
502.938	18851.04
503.141	18803.94
503.344	19211.48
503.547	19496.15
503.75	19799.25
503.953	19571.93
504.156	19791.06
504.359	20090.06
504.562	20133.07
504.765	20634.82
504.968	20563.14
505.17	20626.63
505.373	21062.85
505.576	21136.57
505.779	21337.27
505.982	21339.32
506.185	21998.77
506.387	22011.06
506.59	22543.53
506.793	23051.42
506.996	22590.63
507.198	23157.92
507.401	23346.33
507.604	23491.74
507.807	23887
508.009	24009.87
508.212	24102.03
508.415	24503.43
508.617	24654.98
508.82	24548.49
509.022	24681.61
509.225	25531.51
509.428	25445.5
509.63	25787.51
509.833	25549.95
510.035	26354.8
510.238	26375.28
510.44	26649.71
510.643	26877.03
510.845	26862.69
511.048	27229.28
511.25	27663.45
511.453	27677.79
511.655	28337.23
511.858	28144.72
512.06	28257.36
512.262	28787.78
512.465	28716.11
512.667	29234.24
512.87	29480
513.072	29670.46
513.274	30417.97
513.477	30166.07
513.679	30739.5
513.881	31398.94
514.084	31081.51
514.286	31179.81
514.488	31466.53
514.69	32467.98
514.893	32209.94
515.095	32232.47
515.297	32597.01
515.499	32551.95
515.701	33315.84
515.904	33692.67
516.106	33965.05
516.308	34032.63
516.51	34890.73
516.712	34630.64
516.914	34829.29
517.116	35195.88
517.318	35677.15
517.52	35355.62
517.722	35648.48
517.925	36199.38
518.127	36740.05
518.329	36625.36
518.531	37002.19
518.733	37245.9
518.935	37409.73
519.136	37282.76
519.338	37899.2
519.54	38067.13
519.742	38224.82
519.944	38067.13
520.146	38931.37
520.348	38816.69
520.55	39162.79
520.752	39293.86
520.954	39865.25
521.155	39660.45
521.357	40463.25
521.559	40266.65
521.761	40952.72
521.963	40706.96
522.164	40956.82
522.366	40952.72
522.568	41530.25
522.77	41405.32
522.971	42029.95
523.173	41882.5
523.375	42279.8
523.576	41980.8
523.778	42015.61
523.98	42572.66
524.181	42849.14
524.383	42914.67
524.584	43068.27
524.786	43203.44
524.988	43041.65
525.189	43486.06
525.391	44051.3
525.592	43772.77
525.794	44106.59
525.995	43699.05
526.197	43809.64
526.398	43983.71
526.6	44016.48
526.801	44108.64
527.003	44041.06
527.204	44200.8
527.406	44811.09
527.607	44864.34
527.808	44817.24
528.01	44223.33
528.211	44055.39
528.412	44847.96
528.614	44845.91
528.815	44917.59
529.016	45493.07
529.218	44471.13
529.419	44583.77
529.62	45019.99
529.822	44659.54
530.023	44938.07
530.224	44845.91
530.425	45298.51
530.626	44811.09
530.828	44165.98
531.029	45499.21
531.23	44825.43
531.431	44870.48
531.632	44831.57
531.833	44911.44
532.035	44850
532.236	44598.1
532.437	45370.19
532.638	44499.8
532.839	44579.67
533.04	44620.63
533.241	44348.25
533.442	45542.22
533.643	45153.1
533.844	44483.42
534.045	44477.27
534.246	44178.27
534.447	44733.27
534.648	44417.88
534.849	44561.24
535.05	44356.44
535.251	44458.84
535.451	44329.82
535.652	44350.3
535.853	43926.37
536.054	44297.05
536.255	44188.51
536.456	44092.26
536.657	44405.59
536.857	44020.58
537.058	44004.19
537.259	44321.63
537.46	44471.13
537.66	44053.34
537.861	43686.76
538.062	43940.71
538.263	43940.71
538.463	43375.47
538.664	44137.31
538.865	43971.43
539.065	44028.77
539.266	43592.55
539.466	44055.39
539.667	43553.64
539.868	44110.69
540.068	43324.27
540.269	43316.08
540.469	43508.58
540.67	43262.83
540.87	43762.53
541.071	43361.13
541.271	43496.3
541.472	43438.95
541.672	43275.12
541.873	42996.59
542.073	42986.35
542.274	43688.81
542.474	43002.74
542.675	43254.64
542.875	43445.1
543.075	42896.24
543.276	42638.2
543.476	43410.28
543.676	43023.22
543.877	43080.56
544.077	43107.18
544.277	42937.2
544.478	42935.15
544.678	43311.98
544.878	42787.7
545.078	43139.95
545.279	42881.91
545.479	42595.19
545.679	43178.86
545.879	42896.24
546.079	42500.98
546.28	43021.17
546.48	42357.63
546.68	42734.45
546.88	42840.95
547.08	43029.36
547.28	42720.12
547.48	42617.72
547.68	43203.44
547.88	42326.91
548.081	42435.45
548.281	42713.97
548.481	42582.9
548.681	42732.4
548.881	42744.69
549.081	42767.22
549.28	42863.47
549.48	43330.41
549.68	42812.27
549.88	43152.24
550.08	42603.38
550.28	42937.2
550.48	42865.52
550.68	43166.57
550.88	42505.08
551.08	42892.15
551.279	43135.85
551.479	42529.66
551.679	42748.79
551.879	42611.57
552.079	42890.1
552.278	42701.68
552.478	42980.21
552.678	43336.55
552.878	42877.81
553.077	42906.48
553.277	42306.43
553.477	43068.27
553.676	43037.55
553.876	42548.09
554.076	42564.47
554.275	43049.84
554.475	42464.12
554.674	43121.52
554.874	42892.15
555.074	42720.12
555.273	43557.74
555.473	43105.13
555.672	42828.66
555.872	42945.39
556.071	42675.06
556.271	43447.15
556.47	42890.1
556.67	42451.83
556.869	43047.79
557.068	43455.34
557.268	43109.23
557.467	42775.41
557.667	43252.59
557.866	42933.1
558.065	42748.79
558.265	42865.52
558.464	42382.2
558.663	43352.94
558.863	42783.6
559.062	43187.05
559.261	42787.7
559.461	42980.21
559.66	42625.91
559.859	43367.27
560.058	42535.8
560.258	42670.96
560.457	42357.63
560.656	42695.54
560.855	42890.1
561.054	43154.29
561.253	42460.02
561.453	42808.18
561.652	42773.36
561.851	42984.3
562.05	42537.85
562.249	42396.54
562.448	43012.98
562.647	43055.98
562.846	42500.98
563.045	42767.22
563.244	42709.88
563.443	43168.62
563.642	42331
563.841	42568.57
564.04	42146.68
564.239	42769.27
564.438	41937.79
564.637	42582.9
564.836	42437.5
565.035	42097.53
565.234	42410.87
565.432	42249.08
565.631	42027.9
565.83	42795.89
566.029	41933.7
566.228	41970.56
566.427	41792.39
566.625	42013.57
566.824	41548.68
567.023	42175.36
567.222	40997.77
567.42	41659.27
567.619	41806.72
567.818	42134.4
568.016	41696.13
568.215	41667.46
568.414	41112.46
568.612	41733
568.811	41218.96
569.01	41153.42
569.208	40878.99
569.407	41073.55
569.605	40934.29
569.804	41175.95
570.002	40506.26
570.201	40969.1
570.4	40694.68
570.598	40473.49
570.797	40379.29
570.995	40870.8
571.193	40508.31
571.392	40784.79
571.59	40209.31
571.789	40258.46
571.987	40115.1
572.186	40135.58
572.384	40035.23
572.582	39809.95
572.781	39705.51
572.979	39537.57
573.177	40207.26
573.376	40217.5
573.574	39715.75
573.772	39543.72
573.971	39414.69
574.169	38927.28
574.367	39035.82
574.565	39392.17
574.763	38747.06
574.962	38974.38
575.16	38443.96
575.358	39166.89
575.556	38548.4
575.754	39023.53
575.952	38122.43
576.151	38798.26
576.349	38130.62
576.547	38071.23
576.745	38476.72
576.943	38151.1
577.141	38276.02
577.339	38284.22
577.537	37753.79
577.735	37716.93
577.933	37551.04
578.131	37807.04
578.329	37350.34
578.527	37172.17
578.725	37557.19
578.923	37321.67
579.121	37395.4
579.319	37063.63
579.516	36924.36
579.714	36703.18
579.912	36883.41
580.11	37008.33
580.308	36541.39
580.506	36621.27
580.704	36189.14
580.901	36699.09
581.099	36492.24
581.297	36004.83
581.495	36398.04
581.692	36344.79
581.89	36070.36
582.088	35847.13
582.285	35902.43
582.483	35795.93
582.681	35580.9
582.878	35787.74
583.076	35382.24
583.274	35550.18
583.471	34661.36
583.669	35298.28
583.866	35001.32
584.064	35541.99
584.262	34632.69
584.459	35541.99
584.657	35199.97
584.854	34980.84
585.052	34419.7
585.249	34784.24
585.447	34483.19
585.644	34110.46
585.841	34257.91
586.039	34599.92
586.236	34175.99
586.434	33954.81
586.631	33934.33
586.828	34079.74
587.026	34221.05
587.223	34044.92
587.42	33817.6
587.618	33971.19
587.815	33412.1
588.012	33123.33
588.21	33321.99
588.407	33696.77
588.604	33258.5
588.801	33207.3
588.999	33143.81
589.196	32871.43
589.393	32869.39
589.59	33047.56
589.787	32881.67
589.984	32435.22
590.182	32549.9
590.379	32953.35
590.576	32351.25
590.773	32531.47
590.97	32625.68
591.167	32443.41
591.364	31953.94
591.561	32062.49
591.758	31919.13
591.955	32021.53
592.152	32068.63
592.349	31939.61
592.546	32089.11
592.743	31867.93
592.94	31194.15
593.137	31603.74
593.334	31935.51
593.531	31331.36
593.727	31712.28
593.924	31542.3
594.121	31570.97
594.318	31628.32
594.515	31106.09
594.712	31388.71
594.908	31124.52
595.105	31106.09
595.302	30964.78
595.499	31368.23
595.696	30995.5
595.892	30626.86
596.089	30921.77
596.286	30889
596.482	30860.33
596.679	30872.62
596.876	30850.09
597.072	30800.94
597.269	30796.84
597.466	30348.34
597.662	30282.8
597.859	30649.39
598.055	30647.34
598.252	30035
598.448	30563.37
598.645	30358.58
598.841	30247.99
599.038	30352.43
599.234	30483.5
599.431	30147.64
599.627	30112.82
599.824	29735.99
600.02	30192.69
600.217	30096.44
600.413	30223.41
600.609	29963.32
600.806	29887.54
601.002	30358.58
601.198	30143.54
601.395	30084.15
601.591	29772.86
601.787	29893.69
601.984	29455.42
602.18	30182.45
602.376	29514.81
602.572	29862.97
602.769	29967.41
602.965	29709.37
603.161	29856.82
603.357	29586.49
603.553	29615.16
603.75	29658.17
603.946	29414.46
604.142	29649.98
604.338	29619.26
604.534	29742.14
604.73	29318.21
604.926	29744.19
605.122	29910.07
605.318	29701.18
605.514	29334.59
605.71	29557.82
605.906	29733.95
606.102	29344.83
606.298	29690.94
606.494	29795.39
606.69	29621.31
606.886	29666.36
607.082	29221.95
607.278	30053.43
607.474	29398.08
607.67	29760.57
607.866	29447.23
608.062	29910.07
608.257	29643.84
608.453	30006.33
608.649	29901.88
608.845	29537.34
609.041	29735.99
609.236	29652.03
609.432	29770.81
609.628	29770.81
609.824	29586.49
610.019	29738.04
610.215	29600.83
610.411	29613.12
610.606	29613.12
610.802	29781.05
610.998	29555.77
611.193	29697.08
611.389	29594.68
611.584	29680.7
611.78	29729.85
611.976	29940.79
612.171	29770.81
612.367	29877.3
612.562	29779
612.758	29400.13
612.953	29676.6
613.149	30073.91
613.344	29566.01
613.539	29805.63
613.735	29629.5
613.93	29961.27
614.126	29721.66
614.321	29686.84
614.517	29862.97
614.712	29899.83
614.907	29697.08
615.103	29985.85
615.298	29533.25
615.493	30270.51
615.688	29432.89
615.884	30182.45
616.079	29299.78
616.274	30000.18
616.47	29791.29
616.665	30010.42
616.86	29473.85
617.055	29641.79
617.25	29742.14
617.445	29838.39
617.641	29043.78
617.836	29654.08
618.031	29539.39
618.226	29496.38
618.421	29109.32
618.616	29715.51
618.811	29305.92
619.006	29439.04
619.201	29082.69
619.396	29029.45
619.591	28789.83
619.786	29039.68
619.981	28632.14
620.176	28593.23
620.371	28705.87
620.566	28800.07
620.761	28396.62
620.956	28824.65
621.151	28427.34
621.346	28240.98
621.541	27808.86
621.735	28478.54
621.93	27667.55
622.125	27933.78
622.32	27702.36
622.515	27518.04
622.709	27456.61
622.904	27370.59
623.099	27423.84
623.294	27133.03
623.488	27018.34
623.683	27026.53
623.878	26688.62
624.072	27098.21
624.267	26631.27
624.462	26537.07
624.656	26258.54
624.851	26143.86
625.046	26201.2
625.24	25939.06
625.435	25734.26
625.629	25459.84
625.824	25713.78
626.018	25748.6
626.213	25015.43
626.407	25660.54
626.602	24970.37
626.796	25193.6
626.991	25154.69
627.185	24915.08
627.38	24374.41
627.574	24906.88
627.768	24403.08
627.963	24478.86
628.157	24220.81
628.352	24272.01
628.546	24091.79
628.74	24069.26
628.935	23542.94
629.129	23641.24
629.323	23346.33
629.517	23366.81
629.712	23495.83
629.906	23028.9
630.1	22899.87
630.294	22842.53
630.489	22856.87
630.683	22768.8
630.877	22543.53
631.071	22281.39
631.265	22811.81
631.459	22467.75
631.653	22238.38
631.848	22133.93
632.042	21908.66
632.236	21818.55
632.43	21808.31
632.624	22156.46
632.818	21484.73
633.012	21540.02
633.206	21712.05
633.4	21400.76
633.594	20964.54
633.788	21333.18
633.982	21251.26
634.176	21066.94
634.369	20643.01
634.563	20731.08
634.757	20522.18
634.951	20796.61
635.145	20425.93
635.339	20446.41
635.533	20321.48
635.726	20296.91
635.92	19905.74
636.114	20096.21
636.308	19602.64
636.501	19897.55
636.695	19825.87
636.889	19778.77
637.083	19549.4
637.276	19270.87
637.47	19299.55
637.664	19029.21
637.857	18988.25
638.051	18871.52
638.244	18990.3
638.438	18896.1
638.632	18511.08
638.825	18515.17
639.019	18543.85
639.212	18185.45
639.406	17951.98
639.599	17904.88
639.793	18078.96
639.986	17718.51
640.18	17808.62
640.373	17822.96
640.567	17513.72
640.76	17468.66
640.954	17374.45
641.147	17243.38
641.34	17007.87
641.534	17392.89
641.727	16956.67
641.92	16925.95
642.114	16813.31
642.307	16669.95
642.5	16502.02
642.694	16483.59
642.887	16282.89
643.08	16696.58
643.273	16241.93
643.467	16250.12
643.66	16059.66
643.853	16030.99
644.046	15717.65
644.239	15961.36
644.432	15795.47
644.626	15623.44
644.819	15838.48
645.012	15551.76
645.205	15273.24
645.398	15105.31
645.591	15117.59
645.784	15443.22
645.977	15015.19
646.17	15353.11
646.363	14818.59
646.556	14540.07
646.749	14656.8
646.942	14654.75
647.135	14562.59
647.328	14386.47
647.521	14341.41
647.714	14148.9
647.907	14288.17
648.099	14163.24
648.292	14146.86
648.485	14247.21
648.678	14091.56
648.871	13796.65
649.064	13786.41
649.256	13757.74
649.449	13419.83
649.642	13645.1
649.835	13331.76
650.027	13327.67
650.22	13098.3
650.413	13249.85
650.605	13442.35
650.798	13182.26
650.991	12977.47
651.183	12983.61
651.376	12793.15
651.568	12809.53
651.761	12707.13
651.954	12516.67
652.146	12705.09
652.339	12647.74
652.531	12621.12
652.724	12401.99
652.916	12107.08
653.109	12098.89
653.301	12238.15
653.494	11980.11
653.686	11980.11
653.879	12135.75
654.071	11976.01
654.263	11846.99
654.456	11767.12
654.648	11763.02
654.84	11595.09
655.033	11648.33
655.225	11631.95
655.417	11351.38
655.61	11421.01
655.802	11517.26
655.994	11328.85
656.186	11179.35
656.379	11109.72
656.571	11201.88
656.763	11046.23
656.955	10962.26
657.148	10995.03
657.34	11017.56
657.532	10675.55
657.724	10616.16
657.916	10632.54
658.108	10755.42
658.3	10585.44
658.492	10607.97
658.684	10456.42
658.876	10534.24
659.068	10388.83
659.26	10294.63
659.452	10321.25
659.644	10429.79
659.836	10081.64
660.028	10222.95
660.22	9938.28
660.412	10081.64
660.604	9844.07
660.796	10091.88
660.988	9870.7
661.18	9713
661.372	9717.1
661.563	9659.76
661.755	9289.07
661.947	9559.41
662.139	9387.38
662.331	9358.71
662.522	9370.99
662.714	9362.8
662.906	9321.84
663.097	9391.47
663.289	9074.04
663.481	9229.68
663.673	9076.09
663.864	8879.48
664.056	8908.15
664.247	8863.1
664.439	8846.71
664.631	8813.95
664.822	8734.07
665.014	8787.32
665.205	8725.88
665.397	8699.26
665.588	8703.36
665.78	8473.98
665.971	8510.85
666.163	8521.09
666.354	8316.29
666.546	8453.5
666.737	8244.61
666.929	8314.24
667.12	8449.41
667.311	8285.57
667.503	8019.33
667.694	8019.33
667.885	7982.47
668.077	8043.91
668.268	7929.22
668.459	7888.26
668.651	7884.17
668.842	7826.82
669.033	7832.97
669.224	7636.36
669.416	7753.1
669.607	7712.14
669.798	7658.89
669.989	7777.67
670.18	7398.8
670.371	7519.63
670.563	7284.11
670.754	7634.32
670.945	7284.11
671.136	7499.15
671.327	7511.44
671.518	7357.84
671.709	7357.84
671.9	7347.6
672.091	7400.85
672.282	7388.56
672.473	7251.35
672.664	7277.97
672.855	7202.19
673.046	6954.39
673.237	7284.11
673.428	6997.4
673.619	6761.88
673.809	7241.11
674	7011.73
674.191	7026.07
674.382	6772.12
674.573	6815.13
674.764	7153.04
674.954	6872.47
675.145	6940.05
675.336	6634.91
675.527	6835.61
675.717	6725.02
675.908	6733.21
676.099	6905.24
676.289	6745.5
676.48	6596
676.671	6444.45
676.861	6731.16
677.052	6598.04
677.243	6614.43
677.433	6348.19
677.624	6557.08
677.814	6520.22
678.005	6464.93
678.195	6522.27
678.386	6360.48
678.576	6469.02
678.767	6340
678.957	6407.58
679.148	6335.9
679.338	6270.37
679.529	6225.31
679.719	6071.72
679.909	6210.98
680.1	6344.1
680.29	6192.55
680.481	6303.14
680.671	6327.71
680.861	6262.18
681.052	6172.07
681.242	6094.24
681.432	6292.9
681.622	6157.73
681.813	5989.8
682.003	6215.07
682.193	5930.41
682.383	5903.78
682.573	6116.77
682.764	6028.71
682.954	6167.97
683.144	6102.43
683.334	6086.05
683.524	6104.48
683.714	6006.18
683.904	5973.41
684.094	6057.38
684.284	5692.84
684.474	5891.49
684.664	5989.8
684.854	5938.6
685.044	5932.45
685.234	5944.74
685.424	5979.56
685.614	5881.25
685.804	5762.47
685.994	5840.29
686.184	5905.83
686.374	5715.37
686.564	5627.31
686.753	5797.29
686.943	5598.63
687.133	5684.65
687.323	5758.38
687.513	5758.38
687.702	5705.13
687.892	5610.92
688.082	5651.88
688.272	5696.94
688.461	5430.7
688.651	5758.38
688.841	5627.31
689.03	5619.11
689.22	5414.32
689.41	5438.89
689.599	5504.43
689.789	5377.45
689.979	5471.66
690.168	5397.93
690.358	5303.73
690.547	5348.78
690.737	5295.54
690.926	5369.26
691.116	5189.04
691.305	5324.21
691.495	5211.57
691.684	5352.88
691.874	5275.06
692.063	5238.19
692.252	5264.82
692.442	5221.81
692.631	5199.28
692.82	5160.37
693.01	5080.5
693.199	5006.77
693.388	5035.44
693.578	5123.51
693.767	5168.56
693.956	4931
694.146	4955.57
694.335	5043.64
694.524	4861.37
694.713	4912.57
694.902	4935.09
695.092	4955.57
695.281	4879.8
695.47	4939.19
695.659	4933.04
695.848	4914.61
696.037	4859.32
696.226	4967.86
696.415	4853.17
696.604	4740.54
696.793	4842.93
696.982	4824.5
697.171	4789.69
697.36	4875.7
697.549	4726.2
697.738	4705.72
697.927	4615.61
698.116	4769.21
698.305	4656.57
698.494	4693.43
698.683	4720.06
698.872	4824.5
699.061	4638.14
699.25	4582.84
699.438	4492.73
699.627	4482.49
699.816	4617.66
700.005	4603.32
700.193	4570.55
700.382	4455.87
700.571	4531.64
700.76	4572.6
700.948	4459.96
701.137	4492.73
701.326	4537.79
701.514	4433.34
701.703	4576.7
701.892	4398.52
702.08	4392.38
702.269	4423.1
702.457	4308.41
702.646	4468.16
702.834	4310.46
703.023	4294.08
703.212	4275.65
703.4	4300.22
703.589	4128.19
703.777	4226.5
703.965	4152.77
704.154	4275.65
704.342	4089.28
704.531	4185.54
704.719	4070.85
704.907	4277.69
705.096	4058.56
705.284	4206.02
705.472	4210.11
705.661	4193.73
705.849	4187.58
706.037	4040.13
706.226	4095.43
706.414	3956.16
706.602	4144.58
706.79	4042.18
706.979	4113.86
707.167	4056.51
707.355	3976.64
707.543	3960.26
707.731	4036.03
707.919	3837.38
708.107	3794.37
708.296	3853.77
708.484	3743.17
708.672	3864.01
708.86	3958.21
709.048	4050.37
709.236	3710.41
709.424	4033.99
709.612	3849.67
709.8	3689.93
709.988	3769.8
710.176	3917.25
710.364	3786.18
710.551	3759.56
710.739	3759.56
710.927	3716.55
711.115	3696.07
711.303	3763.65
711.491	3704.26
711.679	3726.79
711.866	3712.46
712.054	3646.92
712.242	3620.3
712.43	3616.2
712.617	3489.23
712.805	3456.46
712.993	3679.69
713.181	3331.53
713.368	3550.67
713.556	3540.43
713.744	3409.36
713.931	3642.82
714.119	3554.76
714.306	3442.12
714.494	3470.8
714.682	3429.84
714.869	3372.49
715.057	3345.87
715.244	3392.97
715.432	3505.61
715.619	3259.85
715.807	3450.32
715.994	3440.08
716.182	3323.34
716.369	3319.25
716.556	3278.29
716.744	3302.86
716.931	3220.94
717.119	3188.18
717.306	3294.67
717.493	3263.95
717.681	3321.29
717.868	3169.74
718.055	3280.33
718.242	3255.76
718.43	3120.59
718.617	3132.88
718.804	3161.55
718.991	3276.24
719.179	3337.68
719.366	3184.08
719.553	3179.98
719.74	3130.83
719.927	3110.35
720.114	3042.77
720.301	3159.5
720.488	2999.76
720.676	3130.83
720.863	3032.53
721.05	3059.15
721.237	3114.45
721.424	3046.87
721.611	3032.53
721.798	3034.58
721.985	2966.99
722.172	3089.87
722.358	2928.08
722.545	3040.72
722.732	2919.89
722.919	3059.15
723.106	2819.54
723.293	2883.03
723.48	2893.27
723.667	2825.68
723.853	2772.44
724.04	2932.18
724.227	2917.84
724.414	2854.36
724.6	2723.29
724.787	2921.94
724.974	2819.54
725.161	2829.78
725.347	2768.34
725.534	2831.83
725.72	2848.21
725.907	2833.88
726.094	2854.36
726.28	2794.97
726.467	2760.15
726.653	2661.85
726.84	2786.77
727.027	2868.69
727.213	2739.67
727.4	2809.3
727.586	2837.97
727.773	2727.38
727.959	2680.28
728.145	2743.77
728.332	2670.04
728.518	2762.2
728.705	2696.66
728.891	2706.9
729.077	2756.05
729.264	2756.05
729.45	2590.17
729.636	2690.52
729.823	2653.66
730.009	2770.39
730.195	2629.08
730.382	2670.04
730.568	2600.41
730.754	2641.37
730.94	2584.02
731.126	2641.37
731.313	2620.89
731.499	2461.15
731.685	2559.45
731.871	2569.69
732.057	2672.09
732.243	2491.87
732.429	2379.23
732.615	2514.39
732.801	2536.92
732.987	2536.92
733.173	2391.52
733.359	2397.66
733.545	2498.01
733.731	2502.11
733.917	2471.39
734.103	2477.53
734.289	2498.01
734.475	2489.82
734.661	2459.1
734.847	2424.28
735.033	2399.71
735.219	2412
735.404	2414.04
735.59	2465.24
735.776	2342.36
735.962	2409.95
736.148	2362.84
736.333	2344.41
736.519	2350.56
736.705	2305.5
736.89	2420.19
737.076	2336.22
737.262	2342.36
737.447	2409.95
737.633	2309.6
737.819	2203.1
738.004	2285.02
738.19	2350.56
738.375	2338.27
738.561	2278.88
738.747	2229.73
738.932	2137.57
739.118	2278.88
739.303	2276.83
739.489	2168.29
739.674	2303.45
739.859	2180.57
740.045	2211.29
740.23	2233.82
740.416	2106.85
740.601	2123.23
740.786	2112.99
740.972	2139.62
741.157	2055.65
741.342	1981.92
741.528	2125.28
741.713	2057.7
741.898	2090.46
742.084	2080.22
742.269	2029.03
742.454	2106.85
742.639	2104.8
742.824	1990.11
743.01	2115.04
743.195	2145.76
743.38	2006.5
743.565	1965.54
743.75	2063.84
743.935	1936.87
744.12	2074.08
744.305	2024.93
744.49	2018.79
744.675	1926.63
744.86	1932.77
745.045	1975.78
745.23	1940.96
745.415	1904.1
745.6	1836.52
745.785	1961.44
745.97	1871.33
746.155	1981.92
746.34	1854.95
746.525	1818.08
746.71	1900
746.895	1768.93
747.079	1826.28
747.264	1762.79
747.449	1785.32
747.634	1813.99
747.819	1801.7
748.003	1730.02
748.188	1654.25
748.373	1754.6
748.557	1709.54
748.742	1625.58
748.927	1730.02
749.111	1670.63
749.296	1639.91
749.481	1658.34
749.665	1662.44
749.85	1605.1
750.034	1627.62
750.219	1607.14
750.404	1580.52
750.588	1588.71
750.773	1609.19
750.957	1613.29
751.141	1666.53
751.326	1498.6
751.51	1494.51
751.695	1533.42
751.879	1449.45
752.064	1613.29
752.248	1519.08
752.432	1549.8
752.617	1605.1
752.801	1605.1
752.985	1433.07
753.17	1529.32
753.354	1523.18
753.538	1449.45
753.722	1400.3
753.907	1410.54
754.091	1293.8
754.275	1406.44
754.459	1488.36
754.643	1359.34
754.828	1408.49
755.012	1334.76
755.196	1304.04
755.38	1353.2
755.564	1345
755.748	1342.96
755.932	1312.24
756.116	1326.57
756.3	1248.75
756.484	1322.48
756.668	1293.8
756.852	1232.37
757.036	1306.09
757.22	1326.57
757.404	1222.13
757.588	1265.13
757.772	1242.61
757.956	1277.42
758.14	1349.1
758.323	1164.78
758.507	1183.21
758.691	1129.97
758.875	1170.93
759.059	1203.69
759.242	1203.69
759.426	1125.87
759.61	1152.49
759.794	1146.35
759.977	1113.58
760.161	1228.27
760.345	1179.12
760.528	1166.83
760.712	1091.06
760.895	1179.12
761.079	1129.97
761.263	1019.38
761.446	1113.58
761.63	1064.43
761.813	1160.69
761.997	1019.38
762.18	1121.77
762.364	1052.14
762.547	1101.3
762.731	978.42
762.914	1111.54
763.098	982.51
763.281	1064.43
763.464	1019.38
763.648	1099.25
763.831	1037.81
764.015	984.56
764.198	1025.52
764.381	966.13
764.564	1074.67
764.748	1074.67
764.931	1115.63
765.114	943.6
765.297	994.8
765.481	1005.04
765.664	962.03
765.847	935.41
766.03	970.23
766.213	908.79
766.397	1029.62
766.58	982.51
766.763	888.31
766.946	916.98
767.129	902.64
767.312	933.36
767.495	959.99
767.678	845.3
767.861	902.64
768.044	982.51
768.227	904.69
768.41	908.79
768.593	990.7
768.776	1015.28
768.959	904.69
769.142	984.56
769.324	816.63
769.507	888.31
769.69	941.55
769.873	839.16
770.056	908.79
770.239	785.91
770.421	1031.66
770.604	980.47
770.787	886.26
770.97	970.23
771.152	738.8
771.335	847.35
771.518	876.02
771.7	935.41
771.883	818.68
772.066	876.02
772.248	835.06
772.431	937.46
772.613	867.83
772.796	740.85
772.978	839.16
773.161	890.35
773.343	865.78
773.526	706.04
773.708	781.81
773.891	835.06
774.073	876.02
774.256	802.29
774.438	851.44
774.621	753.14
774.803	869.87
774.985	732.66
775.168	806.39
775.35	728.56
775.532	818.68
775.715	785.91
775.897	658.93
776.079	763.38
776.261	814.58
776.444	734.71
776.626	597.49
776.808	730.61
776.99	703.99
777.173	738.8
777.355	794.1
777.537	716.28
777.719	747
777.901	644.6
778.083	658.93
778.265	658.93
778.447	785.91
778.629	675.32
778.811	654.84
778.993	658.93
779.175	677.37
779.357	701.94
779.539	658.93
779.721	646.65
779.903	663.03
780.085	630.26
780.267	599.54
780.449	609.78
780.631	564.73
780.812	544.25
780.994	622.07
781.176	667.13
781.358	519.67
781.54	577.02
781.721	587.26
781.903	617.97
782.085	517.62
782.267	583.16
782.448	544.25
782.63	601.59
782.812	632.31
782.993	579.06
783.175	564.73
783.357	517.62
783.538	523.77
783.72	507.38
783.901	499.19
784.083	476.66
784.264	540.15
784.446	466.42
784.627	474.62
784.809	531.96
784.99	509.43
785.172	486.9
785.353	443.9
785.535	560.63
785.716	462.33
785.897	462.33
786.079	523.77
786.26	450.04
786.441	527.86
786.623	421.37
786.804	417.27
786.985	423.42
787.167	441.85
787.348	404.99
787.529	495.1
787.71	517.62
787.891	429.56
788.073	398.84
788.254	441.85
788.435	499.19
788.616	458.23
788.797	345.59
788.978	450.04
789.159	402.94
789.34	435.71
789.522	478.71
789.703	345.59
789.884	388.6
790.065	484.86
790.246	404.99
790.427	392.7
790.607	478.71
790.788	423.42
790.969	304.64
791.15	433.66
791.331	331.26
791.512	384.51
791.693	376.31
791.874	419.32
792.054	491
792.235	400.89
792.416	327.16
792.597	359.93
792.778	415.23
792.958	359.93
793.139	355.83
793.32	306.68
793.5	331.26
793.681	409.08
793.862	298.49
794.042	345.59
794.223	353.79
794.404	269.82
794.584	310.78
794.765	327.16
794.945	425.47
795.126	396.79
795.306	433.66
795.487	337.4
795.667	343.55
795.848	347.64
796.028	361.98
796.209	370.17
796.389	366.07
796.57	237.05
796.75	337.4
796.93	325.12
797.111	294.4
797.291	247.29
797.471	282.11
797.652	308.73
797.832	269.82
798.012	384.51
798.192	241.15
798.373	290.3
798.553	253.44
798.733	376.31
798.913	237.05
799.093	263.68
799.274	292.35
799.454	286.2
799.634	275.96
799.814	290.3
799.994	294.4
800.174	327.16
800.354	310.78
800.534	220.67
800.714	253.44
800.894	171.52
801.074	214.52
801.254	239.1
801.434	335.35
801.614	237.05
801.794	175.61
801.974	982.51
802.154	298.49
802.334	302.59
802.514	282.11
802.693	237.05
802.873	173.57
803.053	269.82
803.233	243.2
803.413	187.9
803.592	224.76
803.772	204.28
803.952	173.57
804.131	230.91
804.311	214.52
804.491	263.68
804.67	210.43
804.85	228.86
805.03	257.53
805.209	220.67
805.389	228.86
805.568	171.52
805.748	165.37
805.928	239.1
806.107	247.29
806.287	179.71
806.466	247.29
806.646	294.4
806.825	196.09
807.004	200.19
807.184	173.57
807.363	235
807.543	173.57
807.722	224.76
807.901	257.53
808.081	273.92
808.26	167.42
808.439	288.25
808.619	216.57
808.798	183.81
808.977	179.71
809.156	105.98
809.336	228.86
809.515	245.24
809.694	138.75
809.873	185.85
810.052	148.99
810.231	265.72
810.411	245.24
810.59	294.4
810.769	198.14
810.948	286.2
811.127	116.22
811.306	204.28
811.485	196.09
811.664	278.01
811.843	212.48
812.022	220.67
812.201	112.13
812.38	144.89
812.559	171.52
812.737	220.67
812.916	120.32
813.095	122.37
813.274	120.32
813.453	134.65
813.632	167.42
813.811	194.05
813.989	136.7
814.168	253.44
814.347	89.6
814.526	196.09
814.704	239.1
814.883	183.81
815.062	165.37
815.24	216.57
815.419	183.81
815.598	157.18
815.776	108.03
815.955	58.88
816.133	103.93
816.312	237.05
816.49	56.83
816.669	65.02
816.847	108.03
817.026	222.72
817.204	146.94
817.383	130.56
817.561	114.17
817.74	228.86
817.918	69.12
818.097	130.56
818.275	142.85
818.453	118.27
818.632	222.72
818.81	71.17
818.988	130.56
819.167	146.94
819.345	175.61
819.523	52.74
819.701	192
819.879	130.56
820.058	140.8
820.236	241.15
820.414	146.94
820.592	114.17
820.77	28.16
820.948	89.6
821.127	85.5
821.305	140.8
821.483	69.12
821.661	130.56
821.839	65.02
822.017	93.69
822.195	155.13
822.373	194.05
822.551	132.61
822.729	171.52
822.907	93.69
823.085	105.98
823.262	130.56
823.44	97.79
823.618	32.26
823.796	103.93
823.974	126.46
824.152	81.41
824.329	196.09
824.507	114.17
824.685	108.03
824.863	118.27
825.04	105.98
825.218	138.75
825.396	161.28
825.574	75.26
825.751	134.65
825.929	114.17
826.107	85.5
826.284	110.08
826.462	148.99
826.639	75.26
826.817	108.03
826.994	91.65
827.172	32.26
827.349	220.67
827.527	89.6
827.704	89.6
827.882	114.17
828.059	32.26
828.237	99.84
828.414	112.13
828.591	87.55
828.769	91.65
828.946	83.45
829.124	171.52
829.301	134.65
829.478	91.65
829.655	97.79
829.833	71.17
830.01	50.69
830.187	108.03
830.364	56.83
830.542	130.56
830.719	179.71
830.896	161.28
831.073	81.41
831.25	52.74
831.427	116.22
831.604	89.6
831.782	26.11
831.959	40.45
832.136	22.02
832.313	181.76
832.49	62.98
832.667	116.22
832.844	93.69
833.021	212.48
833.198	91.65
833.374	95.74
833.551	56.83
833.728	85.5
833.905	146.94
834.082	69.12
834.259	52.74
834.436	148.99
834.612	48.64
834.789	65.02
834.966	83.45
835.143	62.98
835.319	56.83
835.496	-25.09
835.673	89.6
835.85	81.41
836.026	65.02
836.203	122.37
836.38	40.45
836.556	116.22
836.733	52.74
836.909	187.9
837.086	81.41
837.262	48.64
837.439	77.31
837.616	56.83
837.792	7.68
837.968	11.78
838.145	67.07
838.321	97.79
838.498	75.26
838.674	146.94
838.851	77.31
839.027	52.74
839.203	69.12
839.38	101.89
839.556	85.5
839.732	124.41
839.909	146.94
840.085	79.36
840.261	11.78
840.437	130.56
840.614	93.69
840.79	101.89
840.966	83.45
841.142	124.41
841.318	36.35
841.494	89.6
841.671	118.27
841.847	-20.99
842.023	24.06
842.199	69.12
842.375	114.17
842.551	65.02
842.727	15.87
842.903	48.64
843.079	108.03
843.255	17.92
843.431	38.4
843.607	105.98
843.783	-2.56
843.959	146.94
844.134	67.07
844.31	58.88
844.486	28.16
844.662	58.88
844.838	36.35
845.013	36.35
845.189	114.17
845.365	56.83
845.541	22.02
845.716	105.98
845.892	52.74
846.068	89.6
846.244	34.3
846.419	132.61
846.595	83.45
846.77	-23.04
846.946	108.03
847.122	97.79
847.297	3.58
847.473	99.84
847.648	-20.99
847.824	-16.9
847.999	58.88
848.175	34.3
848.35	32.26
848.526	89.6
848.701	40.45
848.876	105.98
849.052	67.07
849.227	58.88
849.403	19.97
849.578	34.3
849.753	58.88
849.929	24.06
850.104	-8.7
850.279	42.5
850.454	83.45
850.63	81.41
850.805	50.69
850.98	58.88
851.155	34.3
851.33	118.27
851.505	40.45
851.681	110.08
851.856	26.11
852.031	48.64
852.206	56.83
852.381	-8.7
852.556	-0.51
852.731	-0.51
852.906	11.78
853.081	7.68
853.256	122.37
853.431	28.16
853.606	7.68
853.781	67.07
853.956	-33.28
854.131	24.06
854.305	-12.8
854.48	3.58
854.655	24.06
854.83	42.5
855.005	-8.7
855.18	28.16
855.354	48.64
855.529	73.21
855.704	38.4
855.879	81.41
856.053	81.41
856.228	-8.7
856.403	3.58
856.577	7.68
856.752	-25.09
856.926	32.26
857.101	15.87
857.276	83.45
857.45	87.55
857.625	75.26
857.799	24.06
857.974	79.36
858.148	-57.86
858.323	26.11
858.497	28.16
858.672	69.12
858.846	17.92
859.02	105.98
859.195	-6.66
859.369	71.17
859.543	56.83
859.718	56.83
859.892	83.45
860.066	-31.23
860.241	42.5
860.415	38.4
860.589	-18.94
860.763	24.06
860.938	52.74
861.112	62.98
861.286	26.11
861.46	5.63
861.634	11.78
861.808	130.56
861.982	11.78
862.157	-8.7
862.331	17.92
862.505	32.26
862.679	24.06
862.853	26.11
863.027	48.64
863.201	97.79
863.375	17.92
863.549	65.02
863.722	48.64
863.896	120.32
864.07	28.16
864.244	75.26
864.418	52.74
864.592	54.78
864.766	65.02
864.939	65.02
865.113	-4.61
865.287	142.85
865.461	-23.04
865.634	65.02
865.808	44.54
865.982	48.64
866.156	5.63
866.329	-12.8
866.503	17.92
866.676	56.83
866.85	7.68
867.024	-2.56
867.197	99.84
867.371	40.45
867.544	15.87
867.718	1.54
867.891	48.64
868.065	-6.66
868.238	-4.61
868.412	-0.51
868.585	15.87
868.759	-59.9
868.932	-29.18
869.105	26.11
869.279	-18.94
869.452	-31.23
869.625	44.54
869.799	-8.7
869.972	50.69
870.145	24.06
870.319	69.12
870.492	48.64
870.665	42.5
870.838	42.5
871.011	-23.04
871.185	-16.9
871.358	24.06
871.531	48.64
871.704	-0.51
871.877	-0.51
872.05	-14.85
872.223	-16.9
872.396	101.89
872.569	7.68
872.742	19.97
872.915	48.64
873.088	-35.33
873.261	54.78
873.434	3.58
873.607	62.98
873.78	122.37
873.953	26.11
874.126	44.54
874.299	-16.9
874.471	-33.28
874.644	13.82
874.817	38.4
874.99	58.88
875.163	24.06
875.335	116.22
875.508	34.3
875.681	52.74
875.853	11.78
876.026	32.26
876.199	7.68
876.371	67.07
876.544	40.45
876.717	79.36
876.889	1.54
877.062	-0.51
877.234	34.3
877.407	22.02
877.579	50.69
877.752	36.35
877.924	36.35
878.097	19.97
878.269	17.92
878.442	-4.61
878.614	38.4
878.786	-49.66
878.959	77.31
879.131	54.78
879.303	34.3
879.476	-6.66
879.648	15.87
879.82	48.64
879.993	-45.57
880.165	-8.7
880.337	-37.38
880.509	15.87
880.681	-74.24
880.854	-53.76
881.026	38.4
881.198	73.21
881.37	19.97
881.542	89.6
881.714	-23.04
881.886	54.78
882.058	32.26
882.23	60.93
882.402	-16.9
882.574	58.88
882.746	50.69
882.918	36.35
883.09	116.22
883.262	-90.62
883.434	56.83
883.606	3.58
883.778	75.26
883.95	116.22
884.122	-29.18
884.293	91.65
884.465	-4.61
884.637	95.74
884.809	-47.62
884.98	28.16
885.152	71.17
885.324	40.45
885.496	-59.9
885.667	-70.14
885.839	7.68
886.011	60.93
886.182	5.63
886.354	52.74
886.525	15.87
886.697	7.68
886.869	1.54
887.04	-8.7
887.212	112.13
887.383	77.31
887.555	17.92
887.726	32.26
887.897	1.54
888.069	52.74
888.24	15.87
888.412	54.78
888.583	56.83
888.754	-16.9
888.926	-80.38
889.097	9.73
889.268	-20.99
889.44	65.02
889.611	28.16
889.782	-90.62
889.953	42.5
890.125	65.02
890.296	-0.51
890.467	32.26
890.638	19.97
890.809	44.54
890.98	-8.7
891.151	40.45
891.323	52.74
891.494	42.5
891.665	22.02
891.836	-8.7
892.007	24.06
892.178	-20.99
892.349	-4.61
892.52	13.82
892.691	34.3
892.862	9.73
893.032	-14.85
893.203	56.83
893.374	28.16
893.545	114.17
893.716	-14.85
893.887	19.97
894.057	30.21
894.228	-45.57
894.399	15.87
894.57	34.3
894.74	-8.7
894.911	11.78
895.082	101.89
895.253	-39.42
895.423	24.06
895.594	38.4
895.764	34.3
895.935	11.78
896.106	81.41
896.276	3.58
896.447	-35.33
896.617	32.26
896.788	-31.23
896.958	34.3
897.129	7.68
897.299	15.87
897.47	-8.7
897.64	-23.04
897.81	-6.66
897.981	101.89
898.151	15.87
898.322	46.59
898.492	67.07
898.662	-18.94
898.832	1.54
899.003	24.06
899.173	114.17
899.343	65.02
899.513	3.58
