Data from USB4F104151__210__14-33-31-122.txt Node

Date: Thu Mar 13 14:33:31 EDT 2025
User: louis
Spectrometer: USB4F10415
Trigger mode: 4
Integration Time (sec): 2.500000E-2
Scans to average: 1
Electric dark correction enabled: true
Nonlinearity correction enabled: false
Boxcar width: 0
XAxis mode: Wavelengths
Number of Pixels in Spectrum: 3648
>>>>>Begin Spectral Data<<<<<
178.204	-94.55
178.424	-94.55
178.644	-94.55
178.864	-131.41
179.084	-211.28
179.304	-37.2
179.524	-2.39
179.744	-31.06
179.964	65.19
180.184	-59.73
180.404	13.99
180.624	-63.83
180.844	7.85
181.064	44.71
181.283	30.38
181.503	-16.73
181.723	48.81
181.943	7.85
182.163	30.38
182.383	30.38
182.602	104.11
182.822	7.85
183.042	-20.82
183.262	54.95
183.482	126.63
183.701	-2.39
183.921	5.8
184.141	40.62
184.361	-4.44
184.58	-2.39
184.8	52.91
185.02	46.76
185.239	3.75
185.459	30.38
185.679	28.33
185.898	36.52
186.118	93.87
186.338	77.48
186.557	110.25
186.777	30.38
186.997	-18.77
187.216	40.62
187.436	122.54
187.655	-41.3
187.875	69.29
188.095	-4.44
188.314	32.43
188.534	63.15
188.753	-0.34
188.973	32.43
189.192	48.81
189.412	-14.68
189.631	73.39
189.851	-18.77
190.07	69.29
190.29	3.75
190.509	7.85
190.729	-8.53
190.948	81.58
191.168	157.35
191.387	-22.87
191.607	-0.34
191.826	42.67
192.045	32.43
192.265	20.14
192.484	11.95
192.704	11.95
192.923	-4.44
193.142	126.63
193.362	13.99
193.581	79.53
193.8	22.19
194.02	46.76
194.239	69.29
194.458	-20.82
194.678	28.33
194.897	46.76
195.116	18.09
195.335	24.23
195.555	81.58
195.774	13.99
195.993	89.77
196.212	28.33
196.432	73.39
196.651	44.71
196.87	44.71
197.089	138.92
197.308	7.85
197.528	20.14
197.747	3.75
197.966	5.8
198.185	77.48
198.404	5.8
198.623	63.15
198.842	95.91
199.062	52.91
199.281	-26.96
199.5	52.91
199.719	57
199.938	36.52
200.157	126.63
200.376	28.33
200.595	-12.63
200.814	24.23
201.033	3.75
201.252	20.14
201.471	3.75
201.69	85.67
201.909	54.95
202.128	71.34
202.347	30.38
202.566	69.29
202.785	-41.3
203.004	26.28
203.223	69.29
203.442	108.2
203.661	93.87
203.879	38.57
204.098	13.99
204.317	16.04
204.536	104.11
204.755	85.67
204.974	40.62
205.193	-2.39
205.411	151.21
205.63	-0.34
205.849	-4.44
206.068	61.1
206.287	-2.39
206.505	69.29
206.724	11.95
206.943	40.62
207.162	89.77
207.381	36.52
207.599	-0.34
207.818	34.47
208.037	13.99
208.255	-4.44
208.474	28.33
208.693	32.43
208.911	69.29
209.13	28.33
209.349	-18.77
209.567	61.1
209.786	100.01
210.005	57
210.223	34.47
210.442	30.38
210.661	20.14
210.879	79.53
211.098	28.33
211.316	89.77
211.535	71.34
211.753	11.95
211.972	69.29
212.191	-37.2
212.409	16.04
212.628	69.29
212.846	28.33
213.065	32.43
213.283	36.52
213.502	-2.39
213.72	30.38
213.938	63.15
214.157	42.67
214.375	44.71
214.594	54.95
214.812	22.19
215.031	-22.87
215.249	30.38
215.467	67.24
215.686	26.28
215.904	81.58
216.122	-4.44
216.341	89.77
216.559	73.39
216.778	61.1
216.996	46.76
217.214	44.71
217.432	71.34
217.651	13.99
217.869	73.39
218.087	32.43
218.306	120.49
218.524	77.48
218.742	5.8
218.96	28.33
219.179	-12.63
219.397	-12.63
219.615	95.91
219.833	11.95
220.051	42.67
220.27	63.15
220.488	20.14
220.706	106.15
220.924	-22.87
221.142	13.99
221.36	16.04
221.578	63.15
221.796	28.33
222.015	28.33
222.233	52.91
222.451	151.21
222.669	57
222.887	-12.63
223.105	16.04
223.323	-8.53
223.541	-12.63
223.759	134.82
223.977	28.33
224.195	85.67
224.413	91.82
224.631	13.99
224.849	34.47
225.067	175.78
225.285	-33.11
225.503	57
225.721	34.47
225.939	85.67
226.157	-10.58
226.375	128.68
226.592	20.14
226.81	32.43
227.028	52.91
227.246	73.39
227.464	89.77
227.682	5.8
227.9	-29.01
228.117	28.33
228.335	61.1
228.553	5.8
228.771	13.99
228.989	20.14
229.206	28.33
229.424	13.99
229.642	-16.73
229.86	38.57
230.077	77.48
230.295	44.71
230.513	77.48
230.731	63.15
230.948	24.23
231.166	50.86
231.384	-4.44
231.601	-0.34
231.819	59.05
232.037	52.91
232.254	16.04
232.472	67.24
232.689	26.28
232.907	44.71
233.125	36.52
233.342	28.33
233.56	13.99
233.777	26.28
233.995	61.1
234.213	110.25
234.43	20.14
234.648	7.85
234.865	22.19
235.083	79.53
235.3	-4.44
235.518	5.8
235.735	46.76
235.953	102.06
236.17	59.05
236.388	11.95
236.605	73.39
236.822	38.57
237.04	44.71
237.257	61.1
237.475	-35.16
237.692	22.19
237.909	104.11
238.127	3.75
238.344	-4.44
238.562	13.99
238.779	59.05
238.996	-14.68
239.214	28.33
239.431	77.48
239.648	26.28
239.865	44.71
240.083	44.71
240.3	3.75
240.517	9.9
240.735	30.38
240.952	61.1
241.169	46.76
241.386	11.95
241.603	44.71
241.821	-4.44
242.038	48.81
242.255	69.29
242.472	1.71
242.689	11.95
242.907	-20.82
243.124	-29.01
243.341	42.67
243.558	75.43
243.775	61.1
243.992	7.85
244.209	122.54
244.426	-8.53
244.643	120.49
244.86	30.38
245.078	38.57
245.295	-10.58
245.512	69.29
245.729	11.95
245.946	61.1
246.163	13.99
246.38	24.23
246.597	52.91
246.814	1.71
247.031	46.76
247.248	110.25
247.464	54.95
247.681	28.33
247.898	50.86
248.115	40.62
248.332	-29.01
248.549	85.67
248.766	104.11
248.983	85.67
249.2	85.67
249.417	95.91
249.633	61.1
249.85	57
250.067	5.8
250.284	7.85
250.501	22.19
250.717	44.71
250.934	-12.63
251.151	-18.77
251.368	-14.68
251.585	-16.73
251.801	24.23
252.018	-12.63
252.235	54.95
252.451	-37.2
252.668	87.72
252.885	81.58
253.102	7.85
253.318	67.24
253.535	3.75
253.752	-4.44
253.968	-12.63
254.185	48.81
254.401	16.04
254.618	114.34
254.835	52.91
255.051	67.24
255.268	16.04
255.484	5.8
255.701	11.95
255.917	-20.82
256.134	26.28
256.351	69.29
256.567	-41.3
256.784	20.14
257	-86.36
257.217	54.95
257.433	52.91
257.65	24.23
257.866	75.43
258.082	-69.97
258.299	13.99
258.515	9.9
258.732	-53.59
258.948	40.62
259.165	40.62
259.381	-20.82
259.597	13.99
259.814	50.86
260.03	30.38
260.246	71.34
260.463	5.8
260.679	77.48
260.895	5.8
261.112	63.15
261.328	-18.77
261.544	-4.44
261.761	110.25
261.977	102.06
262.193	-35.16
262.409	54.95
262.626	24.23
262.842	36.52
263.058	38.57
263.274	89.77
263.49	5.8
263.707	52.91
263.923	69.29
264.139	-8.53
264.355	5.8
264.571	3.75
264.787	97.96
265.004	93.87
265.22	61.1
265.436	32.43
265.652	-43.35
265.868	3.75
266.084	42.67
266.3	-2.39
266.516	69.29
266.732	3.75
266.948	-10.58
267.164	50.86
267.38	24.23
267.596	63.15
267.812	69.29
268.028	32.43
268.244	9.9
268.46	79.53
268.676	71.34
268.892	-4.44
269.108	-10.58
269.324	24.23
269.54	26.28
269.756	71.34
269.972	79.53
270.188	40.62
270.403	32.43
270.619	3.75
270.835	63.15
271.051	34.47
271.267	46.76
271.483	22.19
271.698	65.19
271.914	30.38
272.13	20.14
272.346	40.62
272.562	61.1
272.777	79.53
272.993	13.99
273.209	7.85
273.425	85.67
273.64	-61.78
273.856	52.91
274.072	16.04
274.287	-4.44
274.503	54.95
274.719	151.21
274.934	7.85
275.15	16.04
275.366	9.9
275.581	-24.92
275.797	95.91
276.012	3.75
276.228	-29.01
276.444	83.63
276.659	85.67
276.875	93.87
277.09	44.71
277.306	-59.73
277.521	32.43
277.737	5.8
277.952	36.52
278.168	24.23
278.383	81.58
278.599	48.81
278.814	59.05
279.03	38.57
279.245	128.68
279.461	24.23
279.676	102.06
279.892	-61.78
280.107	112.3
280.322	28.33
280.538	-26.96
280.753	26.28
280.969	54.95
281.184	5.8
281.399	11.95
281.615	40.62
281.83	3.75
282.045	20.14
282.26	65.19
282.476	85.67
282.691	77.48
282.906	3.75
283.122	85.67
283.337	13.99
283.552	79.53
283.767	20.14
283.983	38.57
284.198	-2.39
284.413	48.81
284.628	13.99
284.843	5.8
285.058	20.14
285.274	32.43
285.489	-20.82
285.704	91.82
285.919	5.8
286.134	46.76
286.349	-10.58
286.564	38.57
286.779	46.76
286.995	-2.39
287.21	28.33
287.425	126.63
287.64	24.23
287.855	36.52
288.07	-12.63
288.285	28.33
288.5	30.38
288.715	104.11
288.93	44.71
289.145	5.8
289.36	118.44
289.575	-61.78
289.79	130.73
290.004	7.85
290.219	30.38
290.434	-12.63
290.649	-47.44
290.864	-14.68
291.079	36.52
291.294	-16.73
291.509	9.9
291.724	22.19
291.938	11.95
292.153	77.48
292.368	54.95
292.583	-55.64
292.798	65.19
293.012	24.23
293.227	46.76
293.442	-16.73
293.657	81.58
293.871	71.34
294.086	11.95
294.301	161.45
294.516	69.29
294.73	26.28
294.945	61.1
295.16	52.91
295.374	67.24
295.589	36.52
295.804	63.15
296.018	3.75
296.233	134.82
296.447	122.54
296.662	13.99
296.877	-20.82
297.091	63.15
297.306	52.91
297.52	40.62
297.735	30.38
297.949	36.52
298.164	69.29
298.378	63.15
298.593	52.91
298.807	-8.53
299.022	44.71
299.236	28.33
299.451	36.52
299.665	16.04
299.88	11.95
300.094	40.62
300.309	71.34
300.523	73.39
300.737	-2.39
300.952	-26.96
301.166	79.53
301.381	11.95
301.595	24.23
301.809	63.15
302.024	65.19
302.238	3.75
302.452	114.34
302.667	52.91
302.881	106.15
303.095	65.19
303.309	40.62
303.524	36.52
303.738	36.52
303.952	36.52
304.166	34.47
304.381	-98.64
304.595	71.34
304.809	54.95
305.023	120.49
305.237	46.76
305.452	5.8
305.666	63.15
305.88	16.04
306.094	16.04
306.308	20.14
306.522	89.77
306.736	-4.44
306.95	11.95
307.164	28.33
307.379	57
307.593	28.33
307.807	65.19
308.021	61.1
308.235	61.1
308.449	-4.44
308.663	77.48
308.877	85.67
309.091	52.91
309.305	26.28
309.519	-12.63
309.733	69.29
309.947	-2.39
310.161	106.15
310.374	36.52
310.588	18.09
310.802	34.47
311.016	40.62
311.23	18.09
311.444	3.75
311.658	-53.59
311.872	38.57
312.085	61.1
312.299	85.67
312.513	112.3
312.727	-0.34
312.941	-24.92
313.154	140.97
313.368	20.14
313.582	-16.73
313.796	28.33
314.009	20.14
314.223	83.63
314.437	118.44
314.651	36.52
314.864	-16.73
315.078	11.95
315.292	-2.39
315.505	24.23
315.719	118.44
315.933	52.91
316.146	118.44
316.36	-20.82
316.573	34.47
316.787	22.19
317.001	48.81
317.214	83.63
317.428	69.29
317.641	-10.58
317.855	40.62
318.068	59.05
318.282	77.48
318.495	89.77
318.709	67.24
318.922	104.11
319.136	-6.49
319.349	128.68
319.563	-4.44
319.776	3.75
319.99	52.91
320.203	136.87
320.417	93.87
320.63	69.29
320.843	89.77
321.057	40.62
321.27	11.95
321.483	87.72
321.697	102.06
321.91	24.23
322.124	112.3
322.337	61.1
322.55	-20.82
322.763	85.67
322.977	85.67
323.19	-26.96
323.403	77.48
323.617	40.62
323.83	97.96
324.043	-41.3
324.256	77.48
324.469	85.67
324.683	71.34
324.896	-4.44
325.109	-4.44
325.322	30.38
325.535	9.9
325.748	-0.34
325.962	-26.96
326.175	54.95
326.388	67.24
326.601	59.05
326.814	57
327.027	65.19
327.24	138.92
327.453	-35.16
327.666	52.91
327.879	40.62
328.092	126.63
328.305	26.28
328.518	57
328.731	22.19
328.944	36.52
329.157	13.99
329.37	34.47
329.583	71.34
329.796	42.67
330.009	-20.82
330.222	61.1
330.435	38.57
330.648	106.15
330.861	26.28
331.073	89.77
331.286	118.44
331.499	120.49
331.712	9.9
331.925	36.52
332.138	-2.39
332.35	36.52
332.563	-45.4
332.776	36.52
332.989	-24.92
333.202	61.1
333.414	-4.44
333.627	-12.63
333.84	54.95
334.053	20.14
334.265	-20.82
334.478	57
334.691	71.34
334.903	77.48
335.116	-2.39
335.329	44.71
335.541	71.34
335.754	114.34
335.966	79.53
336.179	65.19
336.392	71.34
336.604	77.48
336.817	77.48
337.029	93.87
337.242	69.29
337.454	48.81
337.667	-2.39
337.88	48.81
338.092	48.81
338.305	36.52
338.517	46.76
338.729	73.39
338.942	91.82
339.154	-45.4
339.367	50.86
339.579	136.87
339.792	48.81
340.004	30.38
340.217	28.33
340.429	18.09
340.641	18.09
340.854	-0.34
341.066	85.67
341.278	120.49
341.491	85.67
341.703	36.52
341.915	52.91
342.128	151.21
342.34	97.96
342.552	46.76
342.764	128.68
342.977	110.25
343.189	40.62
343.401	22.19
343.613	-45.4
343.826	102.06
344.038	65.19
344.25	73.39
344.462	16.04
344.674	104.11
344.886	13.99
345.099	42.67
345.311	110.25
345.523	59.05
345.735	-26.96
345.947	52.91
346.159	40.62
346.371	28.33
346.583	57
346.795	102.06
347.007	128.68
347.219	40.62
347.431	-29.01
347.643	93.87
347.855	-4.44
348.067	85.67
348.279	1.71
348.491	93.87
348.703	93.87
348.915	13.99
349.127	-47.44
349.339	79.53
349.551	-29.01
349.763	126.63
349.975	-8.53
350.187	100.01
350.399	38.57
350.61	69.29
350.822	52.91
351.034	91.82
351.246	44.71
351.458	116.39
351.669	42.67
351.881	97.96
352.093	54.95
352.305	44.71
352.517	5.8
352.728	122.54
352.94	3.75
353.152	52.91
353.363	44.71
353.575	54.95
353.787	110.25
353.999	69.29
354.21	89.77
354.422	52.91
354.633	-31.06
354.845	32.43
355.057	48.81
355.268	48.81
355.48	57
355.692	77.48
355.903	-33.11
356.115	77.48
356.326	-10.58
356.538	57
356.749	75.43
356.961	77.48
357.172	16.04
357.384	122.54
357.595	50.86
357.807	3.75
358.018	24.23
358.23	38.57
358.441	108.2
358.653	48.81
358.864	28.33
359.075	11.95
359.287	34.47
359.498	93.87
359.709	61.1
359.921	69.29
360.132	46.76
360.344	79.53
360.555	48.81
360.766	102.06
360.977	54.95
361.189	79.53
361.4	-20.82
361.611	126.63
361.823	48.81
362.034	93.87
362.245	7.85
362.456	5.8
362.667	38.57
362.879	52.91
363.09	65.19
363.301	22.19
363.512	85.67
363.723	54.95
363.935	44.71
364.146	85.67
364.357	36.52
364.568	57
364.779	-37.2
364.99	77.48
365.201	44.71
365.412	61.1
365.623	11.95
365.834	20.14
366.045	108.2
366.256	85.67
366.467	89.77
366.678	128.68
366.889	50.86
367.1	-24.92
367.311	85.67
367.522	57
367.733	69.29
367.944	85.67
368.155	54.95
368.366	48.81
368.577	104.11
368.788	93.87
368.999	46.76
369.209	81.58
369.42	110.25
369.631	126.63
369.842	69.29
370.053	85.67
370.264	52.91
370.474	48.81
370.685	54.95
370.896	-18.77
371.107	38.57
371.317	24.23
371.528	102.06
371.739	132.78
371.95	36.52
372.16	36.52
372.371	1.71
372.582	20.14
372.792	52.91
373.003	85.67
373.214	69.29
373.424	11.95
373.635	32.43
373.846	85.67
374.056	52.91
374.267	-22.87
374.477	46.76
374.688	120.49
374.898	79.53
375.109	46.76
375.319	52.91
375.53	83.63
375.74	71.34
375.951	85.67
376.161	20.14
376.372	22.19
376.582	38.57
376.793	81.58
377.003	7.85
377.214	52.91
377.424	5.8
377.635	61.1
377.845	50.86
378.055	69.29
378.266	30.38
378.476	77.48
378.686	16.04
378.897	102.06
379.107	75.43
379.317	75.43
379.528	54.95
379.738	81.58
379.948	46.76
380.158	126.63
380.369	48.81
380.579	85.67
380.789	65.19
380.999	91.82
381.21	28.33
381.42	171.69
381.63	3.75
381.84	28.33
382.05	20.14
382.261	20.14
382.471	151.21
382.681	61.1
382.891	77.48
383.101	20.14
383.311	-4.44
383.521	36.52
383.731	93.87
383.941	143.02
384.151	102.06
384.361	34.47
384.571	54.95
384.781	93.87
384.991	54.95
385.201	114.34
385.411	85.67
385.621	57
385.831	89.77
386.041	28.33
386.251	73.39
386.461	-16.73
386.671	77.48
386.881	126.63
387.091	61.1
387.301	52.91
387.511	110.25
387.72	118.44
387.93	149.16
388.14	-29.01
388.35	85.67
388.56	130.73
388.769	134.82
388.979	85.67
389.189	73.39
389.399	110.25
389.609	73.39
389.818	143.02
390.028	65.19
390.238	108.2
390.447	42.67
390.657	108.2
390.867	71.34
391.076	63.15
391.286	36.52
391.496	73.39
391.705	145.06
391.915	126.63
392.125	59.05
392.334	46.76
392.544	61.1
392.753	134.82
392.963	130.73
393.172	118.44
393.382	40.62
393.591	134.82
393.801	54.95
394.01	106.15
394.22	32.43
394.429	85.67
394.639	54.95
394.848	104.11
395.058	122.54
395.267	48.81
395.477	143.02
395.686	175.78
395.895	118.44
396.105	91.82
396.314	54.95
396.524	114.34
396.733	159.4
396.942	126.63
397.152	138.92
397.361	175.78
397.57	124.58
397.78	153.26
397.989	116.39
398.198	196.26
398.407	120.49
398.617	163.5
398.826	159.4
399.035	118.44
399.244	192.17
399.453	93.87
399.663	44.71
399.872	110.25
400.081	163.5
400.29	136.87
400.499	120.49
400.708	183.98
400.917	112.3
401.127	151.21
401.336	110.25
401.545	218.79
401.754	116.39
401.963	210.6
402.172	126.63
402.381	134.82
402.59	136.87
402.799	224.94
403.008	188.07
403.217	153.26
403.426	122.54
403.635	149.16
403.844	183.98
404.053	161.45
404.262	224.94
404.471	259.75
404.68	216.74
404.888	106.15
405.097	181.93
405.306	192.17
405.515	196.26
405.724	222.89
405.933	226.98
406.142	188.07
406.35	257.7
406.559	239.27
406.768	274.09
406.977	229.03
407.185	290.47
407.394	261.8
407.603	233.13
407.812	286.37
408.02	243.37
408.229	269.99
408.438	290.47
408.646	302.76
408.855	327.33
409.064	347.81
409.272	317.09
409.481	358.05
409.69	343.72
409.898	282.28
410.107	347.81
410.315	413.35
410.524	405.16
410.733	499.36
410.941	421.54
411.15	360.1
411.358	448.16
411.567	429.73
411.775	519.84
411.984	605.86
412.192	454.31
412.401	577.19
412.609	544.42
412.818	655.01
413.026	593.57
413.234	620.19
413.443	650.91
413.651	667.3
413.86	765.6
414.068	786.08
414.276	851.61
414.485	816.8
414.693	847.52
414.901	898.72
415.11	937.63
415.318	913.05
415.526	1011.36
415.734	999.07
415.943	1044.12
416.151	1076.89
416.359	1056.41
416.567	1044.12
416.776	1142.43
416.984	1222.3
417.192	1177.24
417.4	1199.77
417.608	1224.34
417.817	1341.08
418.025	1275.54
418.233	1486.48
418.441	1375.89
418.649	1578.64
418.857	1549.97
419.065	1707.66
419.273	1707.66
419.481	1717.9
419.689	1867.41
419.897	1932.94
420.105	1900.17
420.313	2021
420.521	2190.99
420.729	2004.62
420.937	2053.77
421.145	2281.1
421.353	2414.21
421.561	2475.65
421.769	2590.34
421.977	2649.73
422.185	2659.97
422.393	2807.42
422.601	2848.38
422.809	2805.38
423.017	2887.29
423.224	3047.04
423.432	3192.44
423.64	3174.01
423.848	3520.12
424.056	3403.38
424.263	3643
424.471	3708.53
424.679	3683.95
424.887	4071.02
425.094	4103.79
425.302	4081.26
425.51	4241
425.718	4251.24
425.925	4540.01
426.133	4628.07
426.341	4970.08
426.548	5008.99
426.756	5060.19
426.964	5076.57
427.171	5381.72
427.379	5500.5
427.586	5738.07
427.794	5893.71
428.001	6110.8
428.209	6336.07
428.417	6245.96
428.624	6536.77
428.832	6712.9
429.039	6573.64
429.247	6475.34
429.454	7435.83
429.662	7652.92
429.869	7177.79
430.076	7865.91
430.284	7460.41
430.491	7829.04
430.699	8212.01
430.906	8375.85
431.114	8373.8
431.321	8814.12
431.528	8961.57
431.736	9555.48
431.943	9801.24
432.15	9459.23
432.358	9733.65
432.565	10231.31
432.772	10286.61
432.979	10591.75
433.187	10720.78
433.394	11058.69
433.601	11617.79
433.808	11775.48
434.016	11597.31
434.223	11972.08
434.43	12615.15
434.637	12488.17
434.844	13372.89
435.052	13424.09
435.259	13508.06
435.466	13573.6
435.673	13352.41
435.88	14241.23
436.087	15113.67
436.294	14962.12
436.501	14548.43
436.708	15060.42
436.915	15502.78
437.122	16256.43
437.329	16403.89
437.537	16569.77
437.743	16928.17
437.95	17003.94
438.157	17659.29
438.364	18148.76
438.571	18124.18
438.778	18498.96
438.985	19885.44
439.192	19160.45
439.399	19998.07
439.606	19068.3
439.813	20618.61
440.02	21488.99
440.227	21083.5
440.433	21003.63
440.64	21871.96
440.847	21417.32
441.054	22177.11
441.261	23518.53
441.467	23381.32
441.674	23760.19
441.881	24636.72
442.088	24388.92
442.294	24333.62
442.501	24700.21
442.708	25240.87
442.914	26215.71
443.121	27467.02
443.328	26776.85
443.534	28441.85
443.741	27688.2
443.948	27292.94
444.154	29127.92
444.361	29113.58
444.568	29162.73
444.774	29164.78
444.981	29732.07
445.187	30457.05
445.394	31761.61
445.6	31296.72
445.807	34081.95
446.013	32613.56
446.22	33318.06
446.426	34649.24
446.633	35165.33
446.839	36478.08
447.046	34473.12
447.252	36603
447.459	36779.13
447.665	36879.48
447.871	37856.36
448.078	39730.25
448.284	37807.21
448.491	38739.04
448.697	40119.37
448.903	41096.25
449.11	41223.22
449.316	40324.16
449.522	41268.28
449.728	42269.73
449.935	42318.88
450.141	42386.47
450.347	43271.19
450.553	41677.87
450.76	42556.45
450.966	44276.74
451.172	43140.12
451.378	45057.02
451.584	44071.95
451.791	44803.07
451.997	44956.67
452.203	45876.21
452.409	45442.04
452.615	45325.3
452.821	43566.1
453.027	43017.24
453.233	45261.82
453.44	43623.44
453.646	43975.69
453.852	44252.17
454.058	45542.39
454.264	43328.53
454.47	44606.47
454.676	43498.51
454.882	45052.92
455.088	41092.15
455.294	41638.96
455.5	42138.66
455.705	42794.01
455.911	41065.53
456.117	40238.15
456.323	39658.57
456.529	37842.03
456.735	39504.98
456.941	38249.57
457.147	38173.8
457.352	36459.65
457.558	36177.03
457.764	36553.85
457.97	35720.33
458.176	34897.05
458.381	34696.35
458.587	33168.56
458.793	33078.45
458.999	31749.32
459.204	33625.26
459.41	32890.04
459.616	30725.33
459.821	30850.26
460.027	30754.01
460.233	29752.55
460.438	28689.65
460.644	28665.08
460.85	27294.99
461.055	26615.06
461.261	26940.69
461.466	24796.46
461.672	24147.26
461.878	25867.55
462.083	24112.44
462.289	23860.54
462.494	23303.5
462.7	22328.66
462.905	21933.4
463.111	22533.46
463.316	22451.54
463.522	21929.31
463.727	21970.27
463.932	22019.42
464.138	21736.8
464.343	21935.45
464.549	21192.04
464.754	21798.24
464.959	21896.54
465.165	21222.76
465.37	20301.17
465.575	20014.46
465.781	20272.5
465.986	20706.67
466.191	19815.8
466.397	19735.93
466.602	18599.31
466.807	19414.4
467.012	19578.24
467.218	19033.48
467.423	19031.43
467.628	19289.48
467.833	20047.22
468.038	18845.07
468.244	18537.87
468.449	19543.42
468.654	18531.73
468.859	18519.44
469.064	18308.5
469.269	17548.7
469.474	17935.77
469.679	18068.89
469.885	17733.02
470.09	17739.16
470.295	17995.16
470.5	17411.49
470.705	17517.98
470.91	17026.47
471.115	17005.99
471.32	17184.16
471.525	17087.91
471.73	16362.93
471.935	16666.03
472.139	15836.6
472.344	16094.65
472.549	16049.59
472.754	15674.81
472.959	15486.4
473.164	15101.38
473.369	14998.98
473.574	15371.71
473.778	15351.23
473.983	15099.33
474.188	15220.16
474.393	14282.19
474.598	14450.13
474.802	14368.21
475.007	14294.48
475.212	14454.22
475.417	13612.51
475.621	13782.49
475.826	13745.62
476.031	13536.73
476.235	13202.91
476.44	13594.08
476.645	13266.4
476.849	13262.3
477.054	13231.58
477.259	12971.49
477.463	13004.26
477.668	12692.97
477.872	12766.7
478.077	12611.05
478.282	12275.18
478.486	12097.01
478.691	11787.77
478.895	11980.28
479.1	11967.99
479.304	12103.15
479.509	11513.34
479.713	11959.8
479.918	11343.36
480.122	11261.44
480.326	11496.96
480.531	11453.95
480.735	11513.34
480.94	11314.69
481.144	11507.2
481.348	10829.32
481.553	11257.34
481.757	10944
481.961	10919.43
482.166	11206.14
482.37	11128.32
482.574	10812.93
482.778	11052.55
482.983	11032.07
483.187	11148.8
483.391	11130.37
483.595	10968.58
483.8	10864.13
484.004	11007.49
484.208	11009.54
484.412	10931.72
484.616	11038.21
484.821	10763.78
485.025	10688.01
485.229	10954.24
485.433	10671.62
485.637	10866.18
485.841	10853.89
486.045	10655.24
486.249	10761.73
486.453	10792.45
486.657	10778.12
486.861	10944
487.065	10673.67
487.269	10763.78
487.473	10620.42
487.677	11068.93
487.881	10784.26
488.085	10698.25
488.289	10731.01
488.493	10780.17
488.697	10925.57
488.901	10941.96
489.105	10722.82
489.309	10915.33
489.512	10774.02
489.716	11038.21
489.92	10862.08
490.124	10827.27
490.328	11179.52
490.531	10862.08
490.735	10888.71
490.939	11009.54
491.143	10802.69
491.346	10903.04
491.55	11177.47
491.754	11183.62
491.958	11376.13
492.161	11181.57
492.365	11042.31
492.569	11118.08
492.772	11066.88
492.976	11234.82
493.18	11456
493.383	11517.43
493.587	11351.55
493.79	11660.79
493.994	11415.04
494.197	11621.88
494.401	11734.52
494.605	11902.45
494.808	11818.49
495.012	11884.02
495.215	11902.45
495.419	12205.55
495.622	11890.17
495.825	11914.74
496.029	12162.55
496.232	12369.39
496.436	12189.17
496.639	12637.67
496.843	12400.11
497.046	12516.84
497.249	12742.12
497.453	12844.52
497.656	12963.3
497.859	13110.75
498.063	13391.33
498.266	13381.09
498.469	13471.2
498.673	13483.48
498.876	13645.27
499.079	13897.17
499.282	13852.12
499.485	13987.29
499.689	14237.14
499.892	14347.73
500.095	14142.93
500.298	14833.1
500.501	14521.81
500.705	14947.78
500.908	15093.19
501.111	15019.46
501.314	15359.42
501.517	15562.17
501.72	15642.04
501.923	15750.59
502.126	16178.61
502.329	16186.8
502.532	16223.67
502.735	16410.03
502.938	16700.84
503.141	17063.33
503.344	16987.56
503.547	16960.94
503.75	17290.66
503.953	17536.42
504.156	17560.99
504.359	17821.08
504.562	17913.24
504.765	18335.12
504.968	18417.04
505.17	18517.39
505.373	18462.1
505.576	19230.09
505.779	19377.54
505.982	19287.43
506.185	19473.79
506.387	19783.04
506.59	19737.98
506.793	20262.26
506.996	19936.63
507.198	20475.25
507.401	20628.85
507.604	20753.77
507.807	20974.95
508.009	21163.37
508.212	21359.97
508.415	21714.27
508.617	21583.2
508.82	22007.13
509.022	22130.01
509.225	22359.38
509.428	22654.29
509.63	22924.62
509.833	23242.06
510.035	23321.93
510.238	23319.88
510.44	23803.2
510.643	23829.82
510.845	23999.8
511.048	23950.65
511.25	24544.56
511.453	24831.28
511.655	25609.51
511.858	25062.7
512.06	25627.94
512.262	25640.23
512.465	25560.36
512.667	26094.88
512.87	26481.94
513.072	26246.43
513.274	27036.94
513.477	26832.15
513.679	27155.72
513.881	27243.79
514.084	27847.94
514.286	27888.9
514.488	28050.69
514.69	28732.66
514.893	28808.44
515.095	28671.22
515.297	29426.92
515.499	29424.87
515.701	29897.95
515.904	30063.84
516.106	30102.75
516.308	30156
516.51	30389.47
516.712	30512.35
516.914	31067.34
517.116	31440.07
517.318	31603.91
517.52	31665.35
517.722	31331.53
517.925	32103.62
518.127	32361.66
518.329	32623.8
518.531	32654.52
518.733	33098.93
518.935	32885.94
519.136	33361.07
519.338	33858.73
519.54	33858.73
519.742	34143.39
519.944	34348.19
520.146	34919.57
520.348	34931.86
520.55	34956.44
520.752	35058.84
520.954	35581.07
521.155	35396.75
521.357	35906.69
521.559	36072.58
521.761	36707.45
521.963	36463.74
522.164	36822.14
522.366	36807.8
522.568	37092.47
522.77	37272.69
522.971	37467.25
523.173	37401.71
523.375	37895.27
523.576	37639.28
523.778	37360.75
523.98	37983.34
524.181	38313.06
524.383	37842.03
524.584	38644.83
524.786	38528.09
524.988	38274.15
525.189	39052.37
525.391	39042.13
525.592	39316.56
525.794	38648.92
525.995	39337.04
526.197	39072.85
526.398	39375.95
526.6	39574.61
526.801	39494.74
527.003	39482.45
527.204	39830.6
527.406	39810.12
527.607	39687.25
527.808	40004.68
528.01	39357.52
528.211	39490.64
528.412	40350.79
528.614	40092.74
528.815	39937.1
529.016	40232
529.218	39982.15
529.419	39818.32
529.62	40082.5
529.822	39941.19
530.023	39699.53
530.224	39996.49
530.425	39785.55
530.626	39750.73
530.828	39296.08
531.029	40346.69
531.23	39857.23
531.431	39447.63
531.632	39593.04
531.833	39992.39
532.035	39711.82
532.236	40008.78
532.437	39812.17
532.638	39472.21
532.839	39732.3
533.04	39871.56
533.241	39373.91
533.442	39924.81
533.643	39924.81
533.844	39347.28
534.045	39373.91
534.246	39099.48
534.447	39343.19
534.648	38962.26
534.849	39543.89
535.05	39152.73
535.251	38974.55
535.451	38937.69
535.652	39218.26
535.853	39103.57
536.054	39054.42
536.255	39341.14
536.456	38620.25
536.657	39464.02
536.857	39048.28
537.058	38587.49
537.259	38823
537.46	39076.95
537.66	38888.54
537.861	38814.81
538.062	38526.05
538.263	38278.24
538.463	38687.84
538.664	38331.49
538.865	38610.01
539.065	38818.91
539.266	38040.68
539.466	38741.08
539.667	37745.77
539.868	38653.02
540.068	38071.4
540.269	37971.05
540.469	38241.38
540.67	37985.38
540.87	38255.71
541.071	38173.8
541.271	38034.53
541.472	38321.25
541.672	37981.29
541.873	37581.93
542.073	37467.25
542.274	38050.92
542.474	37655.66
542.675	37915.75
542.875	37993.57
543.075	37794.92
543.276	37262.45
543.476	38319.2
543.676	37696.62
543.877	37756.01
544.077	37790.83
544.277	37446.77
544.478	37651.56
544.678	37880.94
544.878	37702.76
545.078	37594.22
545.279	37557.36
545.479	37309.55
545.679	37753.96
545.879	37756.01
546.079	37284.98
546.28	37655.66
546.48	37151.86
546.68	37854.31
546.88	37233.78
547.08	37616.75
547.28	37338.22
547.48	37407.86
547.68	37205.11
547.88	37338.22
548.081	37700.72
548.281	37647.47
548.481	37332.08
548.681	37975.14
548.881	37356.66
549.081	37913.7
549.28	37430.38
549.48	37680.24
549.68	37639.28
549.88	37999.72
550.08	37297.27
550.28	37557.36
550.48	37491.82
550.68	37758.06
550.88	37215.35
551.08	37354.61
551.279	37680.24
551.479	37469.29
551.679	37809.26
551.879	37336.18
552.079	37971.05
552.278	37485.68
552.478	37448.82
552.678	37776.49
552.878	37799.02
553.077	37655.66
553.277	37151.86
553.477	38136.93
553.676	37590.13
553.876	37626.99
554.076	37758.06
554.275	37592.17
554.475	37370.99
554.674	37813.35
554.874	37715.05
555.074	37690.48
555.273	38143.08
555.473	37966.95
555.672	37438.58
555.872	37794.92
556.071	38112.36
556.271	37870.7
556.47	37962.86
556.67	37665.9
556.869	37962.86
557.068	37801.07
557.268	37577.84
557.467	38050.92
557.667	37969
557.866	37944.42
558.065	37907.56
558.265	37659.76
558.464	37667.95
558.663	38194.28
558.863	37514.35
559.062	38173.8
559.261	37641.32
559.461	38519.9
559.66	37463.15
559.859	37987.43
560.058	37799.02
560.258	37723.24
560.457	37893.22
560.656	38079.59
560.855	37715.05
561.054	38319.2
561.253	37758.06
561.453	37811.31
561.652	37878.89
561.851	38085.73
562.05	37907.56
562.249	37567.6
562.448	37885.03
562.647	38040.68
562.846	37659.76
563.045	37936.23
563.244	37338.22
563.443	38071.4
563.642	37463.15
563.841	37534.83
564.04	37454.96
564.239	38032.49
564.438	37758.06
564.637	37598.32
564.836	37635.18
565.035	37108.85
565.234	37600.36
565.432	36924.54
565.631	37143.67
565.83	37596.27
566.029	36867.19
566.228	36453.5
566.427	37241.97
566.625	37119.09
566.824	36639.87
567.023	37098.61
567.222	36494.46
567.42	36967.54
567.619	36711.55
567.818	36494.46
568.016	36783.23
568.215	37184.63
568.414	36224.13
568.612	36682.87
568.811	36367.49
569.01	36418.69
569.208	35828.87
569.407	36314.24
569.605	35792.01
569.804	36430.97
570.002	35714.19
570.201	36230.27
570.4	35769.48
570.598	35802.25
570.797	35499.15
570.995	35662.99
571.193	35384.46
571.392	35366.03
571.59	35091.6
571.789	35456.14
571.987	35495.05
572.186	34700.44
572.384	34626.71
572.582	35378.32
572.781	34938.01
572.979	34458.78
573.177	34829.46
573.376	34708.63
573.574	34462.88
573.772	34983.06
573.971	34237.6
574.169	33995.94
574.367	34131.11
574.565	34145.44
574.763	33922.21
574.962	34059.43
575.16	33442.99
575.358	33795.24
575.556	33338.54
575.754	33371.31
575.952	33246.38
576.151	33520.81
576.349	33320.11
576.547	33354.93
576.745	32957.62
576.943	32976.05
577.141	32847.03
577.339	33178.8
577.537	32799.93
577.735	32918.71
577.933	32625.85
578.131	32539.83
578.329	32283.84
578.527	31833.28
578.725	32277.69
578.923	32124.1
579.121	32031.94
579.319	31984.83
579.516	31853.76
579.714	31734.98
579.912	31868.1
580.11	31669.45
580.308	31452.36
580.506	31470.79
580.704	30854.36
580.901	31354.06
581.099	31339.72
581.297	31259.85
581.495	30889.17
581.692	30946.51
581.89	30905.56
582.088	30975.19
582.285	30489.82
582.483	30864.6
582.681	30569.69
582.878	30293.21
583.076	30391.51
583.274	30448.86
583.471	30065.89
583.669	30239.97
583.866	29820.13
584.064	30074.08
584.262	29816.04
584.459	30235.87
584.657	29885.67
584.854	29961.44
585.052	29273.32
585.249	29623.53
585.447	29770.98
585.644	29469.93
585.841	29646.05
586.039	29361.39
586.236	29134.06
586.434	29455.59
586.631	29015.28
586.828	28949.74
587.026	29185.26
587.223	28759.28
587.42	28761.33
587.618	28712.18
587.815	28544.25
588.012	28493.05
588.21	28355.83
588.407	28710.13
588.604	28251.39
588.801	28372.22
588.999	28597.49
589.196	28370.17
589.393	28484.86
589.59	27940.1
589.787	28366.07
589.984	28241.15
590.182	27938.05
590.379	28085.5
590.576	27747.59
590.773	27772.16
590.97	27452.68
591.167	27946.24
591.364	27606.28
591.561	27962.62
591.758	27565.32
591.955	27120.91
592.152	27389.19
592.349	27596.04
592.546	27632.9
592.743	27426.06
592.94	26916.11
593.137	27192.59
593.334	27399.43
593.531	26520.85
593.727	27479.3
593.924	27198.73
594.121	26928.4
594.318	27211.02
594.515	26819.86
594.712	26803.47
594.908	26873.1
595.105	27170.06
595.302	26510.61
595.499	27002.13
595.696	26651.92
595.892	26387.74
596.089	26729.75
596.286	26481.94
596.482	26377.5
596.679	26707.22
596.876	26717.46
597.072	26555.67
597.269	26338.58
597.466	26354.97
597.662	26330.39
597.859	26354.97
598.055	26058.01
598.252	26117.4
598.448	26496.28
598.645	26252.57
598.841	26397.98
599.038	26336.54
599.234	26205.47
599.431	26359.06
599.627	26170.65
599.824	26316.06
600.02	26135.84
600.217	26318.11
600.413	26133.79
600.609	26256.67
600.806	26248.47
601.002	26285.34
601.198	25926.94
601.395	25957.66
601.591	26209.56
601.787	26314.01
601.984	25894.18
602.18	26404.12
602.376	26383.64
602.572	26467.61
602.769	26459.41
602.965	25920.8
603.161	26348.82
603.357	26105.12
603.553	26156.32
603.75	26246.43
603.946	26369.3
604.142	26246.43
604.338	25816.35
604.534	26316.06
604.73	25869.6
604.926	26150.17
605.122	26019.1
605.318	25842.98
605.514	26236.19
605.71	26230.04
605.906	26295.58
606.102	25840.93
606.298	26598.68
606.494	26187.04
606.69	26283.29
606.886	26309.91
607.082	26062.11
607.278	26291.48
607.474	26203.42
607.67	26713.36
607.866	26305.82
608.062	26457.37
608.257	26447.13
608.453	26682.64
608.649	26445.08
608.845	26379.54
609.041	26658.07
609.236	26428.7
609.432	26602.77
609.628	26649.88
609.824	26483.99
610.019	26803.47
610.215	26379.54
610.411	27262.22
610.606	26629.4
610.802	26662.16
610.998	26688.79
611.193	26977.55
611.389	26701.08
611.584	26918.16
611.78	26578.2
611.976	26862.86
612.171	26838.29
612.367	27024.65
612.562	26709.27
612.758	26563.86
612.953	26563.86
613.149	27303.18
613.344	26635.54
613.539	27071.76
613.735	26729.75
613.93	27053.33
614.126	26885.39
614.321	27139.34
614.517	27112.72
614.712	26989.84
614.907	27082
615.103	27176.2
615.298	26850.58
615.493	26944.78
615.688	26762.51
615.884	27499.78
616.079	27036.94
616.274	26981.65
616.47	27143.44
616.665	26887.44
616.86	26799.38
617.055	26772.75
617.25	26492.18
617.445	26742.03
617.641	26522.9
617.836	26813.71
618.031	26373.4
618.226	26828.05
618.421	26344.73
618.616	26944.78
618.811	26340.63
619.006	26627.35
619.201	26119.45
619.396	26449.18
619.591	25986.33
619.786	26373.4
619.981	25974.05
620.176	26303.77
620.371	25949.47
620.566	26098.97
620.761	25875.74
620.956	26131.74
621.151	25511.21
621.346	25361.7
621.541	25300.26
621.735	25490.73
621.93	25273.64
622.125	25421.09
622.32	24767.79
622.515	24915.25
622.709	24997.17
622.904	24497.46
623.099	24737.07
623.294	24569.14
623.488	24552.76
623.683	24511.8
623.878	23956.8
624.072	24376.63
624.267	24276.28
624.462	24167.74
624.656	23838.01
624.851	23805.25
625.046	23678.27
625.24	23637.31
625.435	23350.6
625.629	23616.83
625.824	23356.74
626.018	23057.74
626.213	22539.6
626.407	23088.46
626.602	22699.34
626.796	22922.57
626.991	22859.09
627.185	22613.33
627.38	22308.18
627.574	22549.84
627.768	22003.03
627.963	22144.34
628.157	21669.22
628.352	22105.43
628.546	21744.99
628.74	21804.38
628.935	21654.88
629.129	21704.03
629.323	21155.18
629.517	21400.93
629.712	21101.93
629.906	21216.61
630.1	20948.33
630.294	21110.12
630.489	20643.18
630.683	20860.27
630.877	20698.48
631.071	20551.03
631.265	20579.7
631.459	20604.27
631.653	19903.87
631.848	20249.97
632.042	20123
632.236	20213.11
632.43	19926.39
632.624	19723.65
632.818	19678.59
633.012	19344.77
633.206	19346.82
633.4	19514.75
633.594	19269
633.788	19027.34
633.982	19492.23
634.176	18969.99
634.369	18834.83
634.563	18746.76
634.757	18765.2
634.951	18838.92
635.145	18410.9
635.339	18494.86
635.533	18267.54
635.726	18453.91
635.92	17972.63
636.114	18107.8
636.308	18115.99
636.501	17814.94
636.695	17673.63
636.889	17567.13
637.083	17692.06
637.276	17628.57
637.47	17495.46
637.664	17343.91
637.857	17151.4
638.051	17202.6
638.244	17112.49
638.438	16772.52
638.632	16854.44
638.825	16838.06
639.019	16735.66
639.212	16342.45
639.406	16438.7
639.599	16403.89
639.793	16213.43
639.986	16356.79
640.18	16043.45
640.373	16256.43
640.567	15666.62
640.76	15732.15
640.954	15797.69
641.147	15629.76
641.34	15332.8
641.534	15228.35
641.727	15510.97
641.92	15500.73
642.114	15050.18
642.307	14937.54
642.5	15117.76
642.694	14945.73
642.887	14648.78
643.08	14865.86
643.273	14900.68
643.467	14800.33
643.66	14317.01
643.853	14274
644.046	14306.77
644.239	14167.51
644.432	14153.17
644.626	14015.96
644.819	14040.53
645.012	13792.73
645.205	13917.65
645.398	13811.16
645.591	13456.86
645.784	13852.12
645.977	13450.72
646.17	13520.35
646.363	13592.03
646.556	13088.23
646.749	13133.28
646.942	13520.35
647.135	13032.93
647.328	13053.41
647.521	12824.04
647.714	12793.32
647.907	12770.79
648.099	12660.2
648.292	12609
648.485	12664.3
648.678	12463.6
648.871	12279.28
649.064	12277.23
649.256	12236.27
649.449	12107.25
649.642	12008.95
649.835	12099.06
650.027	12000.76
650.22	11644.41
650.413	11771.38
650.605	11843.06
650.798	11777.53
650.991	11503.1
651.183	11652.6
651.376	11361.79
651.568	11343.36
651.761	11406.84
651.954	11228.67
652.146	11277.82
652.339	11089.41
652.531	11144.7
652.724	10929.67
652.916	10855.94
653.109	10903.04
653.301	11195.9
653.494	11101.7
653.686	10685.96
653.879	10864.13
654.071	10747.4
654.263	10434.06
654.456	10751.49
654.648	10601.99
654.84	10223.12
655.033	10300.94
655.225	10327.57
655.417	10231.31
655.61	10284.56
655.802	10280.46
655.994	10122.77
656.186	10153.49
656.379	10014.23
656.571	9811.48
656.763	9809.43
656.955	9752.09
657.148	9747.99
657.34	9735.7
657.532	9612.82
657.724	9522.71
657.916	9719.32
658.108	9612.82
658.3	9588.25
658.492	9467.42
658.684	9178.65
658.876	9539.1
659.068	9172.51
659.26	9319.96
659.452	9154.08
659.644	9156.13
659.836	9055.78
660.028	8918.56
660.22	8965.67
660.412	8887.84
660.604	8750.63
660.796	8914.47
660.988	8597.03
661.18	8762.92
661.372	8629.8
661.563	8515.11
661.755	8336.94
661.947	8476.2
662.139	8261.16
662.331	8384.04
662.522	8269.36
662.714	8142.38
662.906	8236.59
663.097	8232.49
663.289	8072.75
663.481	7968.31
663.673	8031.79
663.864	7984.69
664.056	7968.31
664.247	7859.76
664.439	7646.77
664.631	7753.27
664.822	7738.93
665.014	7675.45
665.205	7614.01
665.397	7622.2
665.588	7597.62
665.78	7507.51
665.971	7501.37
666.163	7556.66
666.354	7331.39
666.546	7433.79
666.737	7366.2
666.929	7249.47
667.12	7376.44
667.311	7130.69
667.503	7126.59
667.694	7028.29
667.885	7202.36
668.077	7073.34
668.268	6956.61
668.459	7046.72
668.651	7016
668.842	6962.75
669.033	6835.78
669.224	6901.31
669.416	6854.21
669.607	7106.11
669.798	6794.82
669.989	6948.42
670.18	6733.38
670.371	6753.86
670.563	6751.81
670.754	6639.17
670.945	6526.54
671.136	6688.32
671.327	6604.36
671.518	6542.92
671.709	6549.06
671.9	6405.7
672.091	6463.05
672.282	6254.16
672.473	6360.65
672.664	6426.18
672.855	6413.9
673.046	6262.35
673.237	6080.08
673.428	6327.88
673.619	6270.54
673.809	6108.75
674	6061.65
674.191	6229.58
674.382	6116.94
674.573	6067.79
674.764	5985.87
674.954	6094.41
675.145	5877.33
675.336	6026.83
675.527	5895.76
675.717	5953.1
675.908	5865.04
676.099	5934.67
676.289	5938.77
676.48	5953.1
676.671	5879.38
676.861	5985.87
677.052	5768.79
677.243	5834.32
677.433	5705.3
677.624	5813.84
677.814	5715.54
678.005	5752.4
678.195	5770.83
678.386	5776.98
678.576	5574.23
678.767	5658.2
678.957	5635.67
679.148	5680.72
679.338	5639.76
679.529	5637.72
679.719	5705.3
679.909	5697.11
680.1	5660.24
680.29	5500.5
680.481	5690.96
680.671	5498.45
680.861	5504.6
681.052	5480.02
681.242	5518.93
681.432	5566.04
681.622	5551.7
681.813	5443.16
682.003	5441.11
682.193	5455.45
682.383	5596.76
682.573	5525.08
682.764	5549.65
682.954	5609.05
683.144	5365.34
683.334	5361.24
683.524	5299.8
683.714	5338.71
683.904	5336.67
684.094	5428.82
684.284	5394.01
684.474	5377.62
684.664	5414.49
684.854	5293.66
685.044	5404.25
685.234	5043.81
685.424	5076.57
685.614	5221.98
685.804	4986.46
685.994	5217.88
686.184	5168.73
686.374	5338.71
686.564	5047.9
686.753	5197.4
686.943	5146.2
687.133	5185.12
687.323	5221.98
687.513	5000.8
687.702	5148.25
687.892	5049.95
688.082	5328.47
688.272	5037.66
688.461	5088.86
688.651	4937.31
688.841	4953.7
689.03	5017.18
689.22	4812.39
689.41	4935.26
689.599	4982.37
689.789	4914.78
689.979	4820.58
690.168	4927.07
690.358	4900.45
690.547	4785.76
690.737	4869.73
690.926	4779.62
691.116	4601.44
691.305	4861.54
691.495	4757.09
691.684	4810.34
691.874	4798.05
692.063	4763.23
692.252	4746.85
692.442	4714.08
692.631	4724.32
692.82	4750.95
693.01	4683.36
693.199	4619.88
693.388	4644.45
693.578	4691.56
693.767	4660.84
693.956	4527.72
694.146	4775.52
694.335	4601.44
694.524	4470.37
694.713	4568.68
694.902	4443.75
695.092	4648.55
695.281	4525.67
695.47	4410.98
695.659	4591.2
695.848	4509.29
696.037	4609.64
696.226	4542.05
696.415	4353.64
696.604	4554.34
696.793	4462.18
696.982	4451.94
697.171	4560.49
697.36	4427.37
697.549	4388.46
697.738	4417.13
697.927	4337.26
698.116	4443.75
698.305	4314.73
698.494	4353.64
698.683	4470.37
698.872	4419.18
699.061	4408.94
699.25	4259.43
699.438	4234.86
699.627	4372.07
699.816	4353.64
700.005	4320.87
700.193	4376.17
700.382	4353.64
700.571	4161.13
700.76	4208.23
700.948	4324.97
701.137	4312.68
701.326	4210.28
701.514	4249.19
701.703	4265.58
701.892	4150.89
702.08	4157.04
702.269	4097.64
702.457	4103.79
702.646	4025.97
702.834	4144.75
703.023	4017.77
703.212	4111.98
703.4	4015.73
703.589	4126.32
703.777	4093.55
703.965	3964.53
704.154	3972.72
704.342	4202.09
704.531	3950.19
704.719	3960.43
704.907	4023.92
705.096	3804.78
705.284	3903.09
705.472	3962.48
705.661	3905.14
705.849	3968.62
706.037	3960.43
706.226	3913.33
706.414	3792.5
706.602	3948.14
706.79	3997.29
706.979	3681.91
707.167	3890.8
707.355	3839.6
707.543	3919.47
707.731	3870.32
707.919	3776.11
708.107	3806.83
708.296	3702.39
708.484	3706.48
708.672	3890.8
708.86	3640.95
709.048	3722.87
709.236	3618.42
709.424	3702.39
709.612	3604.08
709.8	3688.05
709.988	3690.1
710.176	3673.71
710.364	3700.34
710.551	3632.76
710.739	3550.84
710.927	3581.56
711.115	3602.04
711.303	3638.9
711.491	3640.95
711.679	3577.46
711.866	3681.91
712.054	3552.88
712.242	3583.6
712.43	3485.3
712.617	3501.69
712.805	3448.44
712.993	3446.39
713.181	3405.43
713.368	3438.2
713.556	3473.01
713.744	3448.44
713.931	3534.45
714.119	3415.67
714.306	3403.38
714.494	3456.63
714.682	3419.77
714.869	3370.62
715.057	3239.55
715.244	3264.12
715.432	3309.18
715.619	3337.85
715.807	3387
715.994	3362.42
716.182	3434.1
716.369	3397.24
716.556	3311.22
716.744	3333.75
716.931	3131
717.119	3231.35
717.306	3329.66
717.493	3151.48
717.681	3319.42
717.868	3184.25
718.055	3225.21
718.242	3249.79
718.43	3165.82
718.617	3194.49
718.804	3167.87
718.991	3145.34
719.179	3200.63
719.366	3055.23
719.553	3143.29
719.74	3137.15
719.927	3075.71
720.114	3102.33
720.301	3075.71
720.488	3071.61
720.676	3065.47
720.863	3096.19
721.05	3169.91
721.237	2840.19
721.424	2932.35
721.611	2891.39
721.798	2924.16
721.985	2965.12
722.172	2879.1
722.358	3030.65
722.545	3092.09
722.732	2905.73
722.919	3165.82
723.106	2819.71
723.293	2932.35
723.48	2883.2
723.667	2801.28
723.853	2930.3
724.04	2989.69
724.227	2905.73
724.414	2903.68
724.6	2872.96
724.787	2856.58
724.974	2897.53
725.161	2856.58
725.347	2829.95
725.534	2887.29
725.72	2903.68
725.907	2750.08
726.094	2676.35
726.28	2905.73
726.467	2748.03
726.653	2702.98
726.84	2897.53
727.027	2821.76
727.213	2748.03
727.4	2817.66
727.586	2705.03
727.773	2698.88
727.959	2739.84
728.145	2651.78
728.332	2758.27
728.518	2586.24
728.705	2848.38
728.891	2780.8
729.077	2772.61
729.264	2559.62
729.45	2602.63
729.636	2571.91
729.823	2616.96
730.009	2748.03
730.195	2653.83
730.382	2637.44
730.568	2576
730.754	2700.93
730.94	2612.87
731.126	2686.59
731.313	2846.34
731.499	2516.61
731.685	2739.84
731.871	2741.89
732.057	2576
732.243	2625.15
732.429	2537.09
732.615	2643.59
732.801	2522.76
732.987	2475.65
733.173	2453.13
733.359	2584.2
733.545	2438.79
733.731	2522.76
733.917	2498.18
734.103	2555.52
734.289	2578.05
734.475	2463.37
734.661	2518.66
734.847	2369.16
735.033	2467.46
735.219	2473.6
735.404	2518.66
735.59	2477.7
735.776	2410.12
735.962	2543.24
736.148	2580.1
736.333	2551.43
736.519	2416.26
736.705	2412.17
736.89	2436.74
737.076	2440.84
737.262	2387.59
737.447	2354.82
737.633	2453.13
737.819	2299.53
738.004	2379.4
738.19	2293.38
738.375	2248.33
738.561	2248.33
738.747	2369.16
738.932	2248.33
739.118	2395.78
739.303	2246.28
739.489	2307.72
739.674	2375.3
739.859	2238.09
740.045	2266.76
740.23	2305.67
740.416	2195.08
740.601	2190.99
740.786	2297.48
740.972	2201.23
741.157	2143.88
741.342	2262.66
741.528	2266.76
741.713	2264.71
741.898	2031.24
742.084	2176.65
742.269	2256.52
742.454	2262.66
742.639	2203.27
742.824	2150.03
743.01	2158.22
743.195	2174.6
743.38	2221.7
743.565	2051.72
743.75	2166.41
743.935	2100.87
744.12	2002.57
744.305	1994.38
744.49	1949.32
744.675	2002.57
744.86	1986.19
745.045	2086.54
745.23	2006.67
745.415	2018.96
745.6	2002.57
745.785	1953.42
745.97	2092.68
746.155	2018.96
746.34	1939.09
746.525	1851.02
746.71	1922.7
746.895	1869.45
747.079	1896.08
747.264	1889.93
747.449	1793.68
747.634	1875.6
747.819	1797.78
748.003	1748.62
748.188	1855.12
748.373	1900.17
748.557	1863.31
748.742	1824.4
748.927	1832.59
749.111	1826.45
749.296	1769.1
749.481	1666.71
749.665	1707.66
749.85	1730.19
750.034	1699.47
750.219	1717.9
750.404	1687.18
750.588	1777.3
750.773	1625.75
750.957	1592.98
751.141	1607.31
751.326	1633.94
751.51	1592.98
751.695	1652.37
751.879	1674.9
752.064	1613.46
752.248	1685.14
752.432	1617.55
752.617	1676.95
752.801	1576.59
752.985	1486.48
753.17	1558.16
753.354	1527.44
753.538	1492.63
753.722	1515.16
753.907	1482.39
754.091	1398.42
754.275	1494.68
754.459	1394.33
754.643	1359.51
754.828	1404.57
755.012	1390.23
755.196	1461.91
755.38	1347.22
755.564	1373.85
755.748	1418.9
755.932	1359.51
756.116	1357.46
756.3	1275.54
756.484	1322.65
756.668	1349.27
756.852	1257.11
757.036	1283.74
757.22	1261.21
757.404	1384.09
757.588	1355.41
757.772	1291.93
757.956	1291.93
758.14	1265.3
758.323	1234.58
758.507	1265.3
758.691	1218.2
758.875	1269.4
759.059	1234.58
759.242	1216.15
759.426	1173.14
759.61	1107.61
759.794	1212.06
759.977	1289.88
760.161	1291.93
760.345	1238.68
760.528	1191.58
760.712	1095.32
760.895	1093.27
761.079	1021.6
761.263	1091.23
761.446	1150.62
761.63	1078.94
761.813	1152.67
761.997	1029.79
762.18	1085.08
762.364	1126.04
762.547	1070.75
762.731	1113.75
762.914	1027.74
763.098	990.88
763.281	1134.23
763.464	1138.33
763.648	1076.89
763.831	1099.42
764.015	1011.36
764.198	1052.31
764.381	994.97
764.564	1068.7
764.748	1064.6
764.931	1111.71
765.114	933.53
765.297	1007.26
765.481	990.88
765.664	1040.03
765.847	964.25
766.03	988.83
766.213	994.97
766.397	1068.7
766.58	962.2
766.763	939.68
766.946	978.59
767.129	954.01
767.312	921.24
767.495	954.01
767.678	884.38
767.861	1050.27
768.044	982.68
768.227	974.49
768.41	929.44
768.593	931.48
768.776	1015.45
768.959	847.52
769.142	921.24
769.324	859.81
769.507	827.04
769.69	841.37
769.873	904.86
770.056	900.76
770.239	927.39
770.421	937.63
770.604	904.86
770.787	882.33
770.97	921.24
771.152	908.96
771.335	892.57
771.518	849.57
771.7	874.14
771.883	915.1
772.066	865.95
772.248	872.09
772.431	929.44
772.613	865.95
772.796	831.13
772.978	847.52
773.161	863.9
773.343	913.05
773.526	792.22
773.708	841.37
773.891	683.68
774.073	822.94
774.256	849.57
774.438	849.57
774.621	796.32
774.803	851.61
774.985	751.26
775.168	904.86
775.35	695.97
775.532	734.88
775.715	646.82
775.897	806.56
776.079	790.17
776.261	695.97
776.444	781.98
776.626	702.11
776.808	642.72
776.99	743.07
777.173	675.49
777.355	724.64
777.537	665.25
777.719	607.91
777.901	718.5
778.083	667.3
778.265	691.87
778.447	702.11
778.629	642.72
778.811	614.05
778.993	675.49
779.175	675.49
779.357	630.43
779.539	614.05
779.721	638.62
779.903	603.81
780.085	587.43
780.267	650.91
780.449	650.91
780.631	642.72
780.812	618.15
780.994	560.8
781.176	601.76
781.358	700.06
781.54	663.2
781.721	579.23
781.903	612
782.085	616.1
782.267	599.71
782.448	530.08
782.63	478.88
782.812	634.53
782.993	536.23
783.175	585.38
783.357	503.46
783.538	562.85
783.72	521.89
783.901	554.66
784.083	552.61
784.264	495.27
784.446	544.42
784.627	442.02
784.809	505.51
784.99	487.08
785.172	525.99
785.353	548.51
785.535	472.74
785.716	487.08
785.897	421.54
786.079	499.36
786.26	437.92
786.441	392.87
786.623	482.98
786.804	439.97
786.985	507.55
787.167	511.65
787.348	495.27
787.529	454.31
787.71	474.79
787.891	501.41
788.073	417.44
788.254	407.2
788.435	476.84
788.616	448.16
788.797	399.01
788.978	364.2
789.159	439.97
789.34	417.44
789.522	323.24
789.703	413.35
789.884	372.39
790.065	384.68
790.246	388.77
790.427	407.2
790.607	511.65
790.788	403.11
790.969	300.71
791.15	413.35
791.331	405.16
791.512	364.2
791.693	415.4
791.874	366.25
792.054	405.16
792.235	333.48
792.416	300.71
792.597	349.86
792.778	341.67
792.958	358.05
793.139	384.68
793.32	292.52
793.5	372.39
793.681	384.68
793.862	358.05
794.042	380.58
794.223	290.47
794.404	282.28
794.584	360.1
794.765	245.41
794.945	343.72
795.126	356.01
795.306	364.2
795.487	257.7
795.667	347.81
795.848	372.39
796.028	317.09
796.209	298.66
796.389	335.53
796.57	265.89
796.75	349.86
796.93	249.51
797.111	143.02
797.291	331.43
797.471	267.94
797.652	286.37
797.832	259.75
798.012	343.72
798.192	237.22
798.373	267.94
798.553	345.77
798.733	349.86
798.913	265.89
799.093	175.78
799.274	255.65
799.454	333.48
799.634	251.56
799.814	253.61
799.994	339.62
800.174	235.18
800.354	175.78
800.534	249.51
800.714	274.09
800.894	335.53
801.074	208.55
801.254	237.22
801.434	308.9
801.614	302.76
801.794	233.13
801.974	882.33
802.154	169.64
802.334	177.83
802.514	315.05
802.693	290.47
802.873	173.74
803.053	229.03
803.233	284.33
803.413	255.65
803.592	241.32
803.772	249.51
803.952	265.89
804.131	198.31
804.311	265.89
804.491	192.17
804.67	198.31
804.85	188.07
805.03	243.37
805.209	290.47
805.389	97.96
805.568	177.83
805.748	134.82
805.928	194.22
806.107	214.7
806.287	265.89
806.466	269.99
806.646	177.83
806.825	186.02
807.004	251.56
807.184	177.83
807.363	241.32
807.543	183.98
807.722	222.89
807.901	233.13
808.081	177.83
808.26	63.15
808.439	126.63
808.619	198.31
808.798	196.26
808.977	200.36
809.156	226.98
809.336	249.51
809.515	136.87
809.694	128.68
809.873	194.22
810.052	159.4
810.231	224.94
810.411	224.94
810.59	208.55
810.769	220.84
810.948	175.78
811.127	126.63
811.306	208.55
811.485	198.31
811.664	233.13
811.843	138.92
812.022	134.82
812.201	134.82
812.38	159.4
812.559	104.11
812.737	95.91
812.916	106.15
813.095	126.63
813.274	155.3
813.453	196.26
813.632	147.11
813.811	126.63
813.989	71.34
814.168	253.61
814.347	93.87
814.526	167.59
814.704	134.82
814.883	161.45
815.062	126.63
815.24	120.49
815.419	153.26
815.598	149.16
815.776	93.87
815.955	104.11
816.133	102.06
816.312	186.02
816.49	24.23
816.669	73.39
816.847	120.49
817.026	167.59
817.204	167.59
817.383	145.06
817.561	130.73
817.74	200.36
817.918	251.56
818.097	155.3
818.275	167.59
818.453	192.17
818.632	206.5
818.81	171.69
818.988	54.95
819.167	130.73
819.345	145.06
819.523	122.54
819.701	134.82
819.879	157.35
820.058	175.78
820.236	104.11
820.414	200.36
820.592	128.68
820.77	95.91
820.948	151.21
821.127	71.34
821.305	106.15
821.483	106.15
821.661	126.63
821.839	143.02
822.017	151.21
822.195	143.02
822.373	95.91
822.551	42.67
822.729	104.11
822.907	95.91
823.085	147.11
823.262	102.06
823.44	114.34
823.618	93.87
823.796	93.87
823.974	93.87
824.152	151.21
824.329	102.06
824.507	110.25
824.685	151.21
824.863	61.1
825.04	106.15
825.218	110.25
825.396	32.43
825.574	77.48
825.751	57
825.929	112.3
826.107	83.63
826.284	153.26
826.462	108.2
826.639	71.34
826.817	28.33
826.994	110.25
827.172	93.87
827.349	224.94
827.527	38.57
827.704	126.63
827.882	179.88
828.059	145.06
828.237	65.19
828.414	128.68
828.591	81.58
828.769	93.87
828.946	97.96
829.124	81.58
829.301	153.26
829.478	134.82
829.655	26.28
829.833	102.06
830.01	38.57
830.187	120.49
830.364	11.95
830.542	159.4
830.719	54.95
830.896	95.91
831.073	126.63
831.25	112.3
831.427	93.87
831.604	73.39
831.782	50.86
831.959	147.11
832.136	57
832.313	24.23
832.49	22.19
832.667	79.53
832.844	7.85
833.021	136.87
833.198	106.15
833.374	128.68
833.551	110.25
833.728	85.67
833.905	110.25
834.082	54.95
834.259	-4.44
834.436	71.34
834.612	11.95
834.789	63.15
834.966	61.1
835.143	77.48
835.319	34.47
835.496	114.34
835.673	81.58
835.85	147.11
836.026	36.52
836.203	69.29
836.38	46.76
836.556	85.67
836.733	5.8
836.909	110.25
837.086	20.14
837.262	79.53
837.439	52.91
837.616	54.95
837.792	61.1
837.968	36.52
838.145	36.52
838.321	16.04
838.498	93.87
838.674	93.87
838.851	38.57
839.027	85.67
839.203	36.52
839.38	52.91
839.556	22.19
839.732	34.47
839.909	73.39
840.085	71.34
840.261	30.38
840.437	85.67
840.614	7.85
840.79	93.87
840.966	122.54
841.142	102.06
841.318	110.25
841.494	42.67
841.671	118.44
841.847	36.52
842.023	36.52
842.199	155.3
842.375	89.77
842.551	-18.77
842.727	-22.87
842.903	38.57
843.079	22.19
843.255	110.25
843.431	69.29
843.607	69.29
843.783	28.33
843.959	81.58
844.134	48.81
844.31	128.68
844.486	46.76
844.662	48.81
844.838	20.14
845.013	97.96
845.189	77.48
845.365	32.43
845.541	110.25
845.716	20.14
845.892	126.63
846.068	87.72
846.244	40.62
846.419	44.71
846.595	61.1
846.77	44.71
846.946	114.34
847.122	-10.58
847.297	7.85
847.473	-8.53
847.648	40.62
847.824	28.33
847.999	11.95
848.175	30.38
848.35	104.11
848.526	52.91
848.701	73.39
848.876	145.06
849.052	54.95
849.227	42.67
849.403	42.67
849.578	36.52
849.753	20.14
849.929	81.58
850.104	7.85
850.279	34.47
850.454	-12.63
850.63	-2.39
850.805	54.95
850.98	153.26
851.155	7.85
851.33	73.39
851.505	28.33
851.681	134.82
851.856	-12.63
852.031	3.75
852.206	83.63
852.381	11.95
852.556	54.95
852.731	61.1
852.906	44.71
853.081	28.33
853.256	36.52
853.431	36.52
853.606	-51.54
853.781	20.14
853.956	-4.44
854.131	30.38
854.305	-10.58
854.48	87.72
854.655	32.43
854.83	-45.4
855.005	28.33
855.18	26.28
855.354	7.85
855.529	30.38
855.704	20.14
855.879	52.91
856.053	-2.39
856.228	79.53
856.403	11.95
856.577	30.38
856.752	44.71
856.926	5.8
857.101	-4.44
857.276	-4.44
857.45	24.23
857.625	28.33
857.799	48.81
857.974	100.01
858.148	-18.77
858.323	30.38
858.497	-2.39
858.672	46.76
858.846	-16.73
859.02	11.95
859.195	-53.59
859.369	52.91
859.543	36.52
859.718	7.85
859.892	-33.11
860.066	50.86
860.241	44.71
860.415	-35.16
860.589	-69.97
860.763	7.85
860.938	7.85
861.112	134.82
861.286	-8.53
861.46	44.71
861.634	-16.73
861.808	48.81
861.982	9.9
862.157	7.85
862.331	5.8
862.505	36.52
862.679	32.43
862.853	16.04
863.027	-37.2
863.201	-4.44
863.375	7.85
863.549	20.14
863.722	54.95
863.896	11.95
864.07	18.09
864.244	26.28
864.418	-0.34
864.592	65.19
864.766	11.95
864.939	9.9
865.113	-35.16
865.287	-2.39
865.461	18.09
865.634	79.53
865.808	110.25
865.982	11.95
866.156	-69.97
866.329	11.95
866.503	30.38
866.676	48.81
866.85	11.95
867.024	28.33
867.197	13.99
867.371	81.58
867.544	140.97
867.718	-37.2
867.891	20.14
868.065	44.71
868.238	22.19
868.412	22.19
868.585	85.67
868.759	-18.77
868.932	44.71
869.105	-10.58
869.279	-18.77
869.452	3.75
869.625	44.71
869.799	44.71
869.972	3.75
870.145	-49.49
870.319	-12.63
870.492	-24.92
870.665	-16.73
870.838	28.33
871.011	-39.25
871.185	-12.63
871.358	-26.96
871.531	77.48
871.704	-12.63
871.877	75.43
872.05	118.44
872.223	-20.82
872.396	5.8
872.569	22.19
872.742	-37.2
872.915	61.1
873.088	-33.11
873.261	3.75
873.434	-12.63
873.607	11.95
873.78	81.58
873.953	20.14
874.126	57
874.299	102.06
874.471	16.04
874.644	3.75
874.817	-29.01
874.99	16.04
875.163	-6.49
875.335	16.04
875.508	61.1
875.681	22.19
875.853	20.14
876.026	20.14
876.199	44.71
876.371	-4.44
876.544	13.99
876.717	-47.44
876.889	-31.06
877.062	50.86
877.234	-37.2
877.407	1.71
877.579	-26.96
877.752	52.91
877.924	20.14
878.097	-55.64
878.269	28.33
878.442	28.33
878.614	13.99
878.786	9.9
878.959	3.75
879.131	-20.82
879.303	-110.93
879.476	52.91
879.648	44.71
879.82	-94.55
879.993	61.1
880.165	-24.92
880.337	1.71
880.509	13.99
880.681	-129.36
880.854	44.71
881.026	69.29
881.198	108.2
881.37	-51.54
881.542	-16.73
881.714	-20.82
881.886	-2.39
882.058	61.1
882.23	-12.63
882.402	-51.54
882.574	20.14
882.746	11.95
882.918	61.1
883.09	18.09
883.262	13.99
883.434	87.72
883.606	-29.01
883.778	38.57
883.95	40.62
884.122	1.71
884.293	36.52
884.465	7.85
884.637	24.23
884.809	-86.36
884.98	30.38
885.152	13.99
885.324	9.9
885.496	9.9
885.667	-12.63
885.839	-65.88
886.011	24.23
886.182	85.67
886.354	28.33
886.525	28.33
886.697	-45.4
886.869	-12.63
887.04	-35.16
887.212	61.1
887.383	59.05
887.555	26.28
887.726	-20.82
887.897	-31.06
888.069	46.76
888.24	26.28
888.412	36.52
888.583	7.85
888.754	20.14
888.926	11.95
889.097	20.14
889.268	-12.63
889.44	89.77
889.611	-22.87
889.782	24.23
889.953	-92.5
890.125	102.06
890.296	13.99
890.467	-8.53
890.638	1.71
890.809	-29.01
890.98	-53.59
891.151	26.28
891.323	-2.39
891.494	61.1
891.665	-61.78
891.836	9.9
892.007	79.53
892.178	28.33
892.349	-53.59
892.52	-31.06
892.691	-8.53
892.862	52.91
893.032	-8.53
893.203	28.33
893.374	-8.53
893.545	20.14
893.716	-39.25
893.887	30.38
894.057	-55.64
894.228	38.57
894.399	-0.34
894.57	69.29
894.74	30.38
894.911	-24.92
895.082	-51.54
895.253	-12.63
895.423	-16.73
895.594	28.33
895.764	7.85
895.935	-37.2
896.106	52.91
896.276	61.1
896.447	-57.68
896.617	-35.16
896.788	3.75
896.958	-29.01
897.129	-12.63
897.299	36.52
897.47	-8.53
897.64	11.95
897.81	-20.82
897.981	-18.77
898.151	-18.77
898.322	22.19
898.492	-26.96
898.662	-53.59
898.832	-47.44
899.003	30.38
899.173	32.43
899.343	-12.63
899.513	11.95
