Data from USB4F104151__205__14-33-21-149.txt Node

Date: Thu Mar 13 14:33:21 EDT 2025
User: louis
Spectrometer: USB4F10415
Trigger mode: 4
Integration Time (sec): 2.500000E-2
Scans to average: 1
Electric dark correction enabled: true
Nonlinearity correction enabled: false
Boxcar width: 0
XAxis mode: Wavelengths
Number of Pixels in Spectrum: 3648
>>>>>Begin Spectral Data<<<<<
178.204	-164.86
178.424	-164.86
178.644	-164.86
178.864	-64.51
179.084	-115.71
179.304	-3.07
179.524	-33.79
179.744	68.61
179.964	82.94
180.184	25.6
180.404	-23.55
180.624	37.89
180.844	-9.22
181.064	-154.62
181.283	15.36
181.503	-60.42
181.723	54.27
181.943	-7.17
182.163	89.09
182.383	58.37
182.602	103.42
182.822	60.42
183.042	-1.02
183.262	66.56
183.482	31.74
183.701	21.5
183.921	80.89
184.141	-27.65
184.361	56.32
184.58	138.24
184.8	13.31
185.02	-23.55
185.239	95.23
185.459	21.5
185.679	46.08
185.898	7.17
186.118	87.04
186.338	121.85
186.557	62.46
186.777	19.46
186.997	-7.17
187.216	35.84
187.436	-11.26
187.655	91.13
187.875	-1.02
188.095	9.22
188.314	33.79
188.534	125.95
188.753	41.98
188.973	66.56
189.192	78.85
189.412	91.13
189.631	50.18
189.851	13.31
190.07	74.75
190.29	37.89
190.509	13.31
190.729	46.08
190.948	93.18
191.168	119.81
191.387	3.07
191.607	37.89
191.826	-39.94
192.045	121.85
192.265	41.98
192.484	17.41
192.704	13.31
192.923	9.22
193.142	177.15
193.362	48.13
193.581	62.46
193.8	17.41
194.02	111.61
194.239	9.22
194.458	21.5
194.678	21.5
194.897	115.71
195.116	39.94
195.335	39.94
195.555	121.85
195.774	80.89
195.993	72.7
196.212	-50.18
196.432	37.89
196.651	39.94
196.87	76.8
197.089	39.94
197.308	72.7
197.528	91.13
197.747	-87.04
197.966	17.41
198.185	115.71
198.404	21.5
198.623	25.6
198.842	111.61
199.062	95.23
199.281	56.32
199.5	35.84
199.719	46.08
199.938	-3.07
200.157	97.28
200.376	70.65
200.595	91.13
200.814	11.26
201.033	62.46
201.252	48.13
201.471	87.04
201.69	113.66
201.909	33.79
202.128	41.98
202.347	111.61
202.566	52.22
202.785	-23.55
203.004	15.36
203.223	78.85
203.442	95.23
203.661	39.94
203.879	54.27
204.098	93.18
204.317	82.94
204.536	62.46
204.755	29.7
204.974	-3.07
205.193	37.89
205.411	70.65
205.63	58.37
205.849	78.85
206.068	29.7
206.287	-11.26
206.505	80.89
206.724	76.8
206.943	9.22
207.162	107.52
207.381	15.36
207.599	31.74
207.818	119.81
208.037	7.17
208.255	-17.41
208.474	50.18
208.693	41.98
208.911	62.46
209.13	91.13
209.349	41.98
209.567	37.89
209.786	87.04
210.005	70.65
210.223	27.65
210.442	25.6
210.661	70.65
210.879	-15.36
211.098	105.47
211.316	21.5
211.535	37.89
211.753	66.56
211.972	29.7
212.191	-60.42
212.409	1.02
212.628	9.22
212.846	-31.74
213.065	93.18
213.283	54.27
213.502	-50.18
213.72	74.75
213.938	5.12
214.157	7.17
214.375	46.08
214.594	35.84
214.812	62.46
215.031	-11.26
215.249	95.23
215.467	70.65
215.686	33.79
215.904	48.13
216.122	70.65
216.341	80.89
216.559	-9.22
216.778	138.24
216.996	58.37
217.214	31.74
217.432	46.08
217.651	74.75
217.869	37.89
218.087	72.7
218.306	95.23
218.524	64.51
218.742	-7.17
218.96	111.61
219.179	-19.46
219.397	37.89
219.615	113.66
219.833	50.18
220.051	-9.22
220.27	144.38
220.488	119.81
220.706	89.09
220.924	48.13
221.142	56.32
221.36	31.74
221.578	5.12
221.796	87.04
222.015	62.46
222.233	29.7
222.451	97.28
222.669	13.31
222.887	128
223.105	-23.55
223.323	70.65
223.541	54.27
223.759	132.09
223.977	56.32
224.195	119.81
224.413	136.19
224.631	115.71
224.849	78.85
225.067	177.15
225.285	99.33
225.503	33.79
225.721	17.41
225.939	15.36
226.157	-3.07
226.375	115.71
226.592	70.65
226.81	74.75
227.028	105.47
227.246	119.81
227.464	70.65
227.682	134.14
227.9	64.51
228.117	70.65
228.335	5.12
228.553	107.52
228.771	25.6
228.989	95.23
229.206	44.03
229.424	46.08
229.642	21.5
229.86	66.56
230.077	115.71
230.295	72.7
230.513	87.04
230.731	82.94
230.948	128
231.166	109.57
231.384	97.28
231.601	89.09
231.819	101.37
232.037	54.27
232.254	7.17
232.472	5.12
232.689	48.13
232.907	128
233.125	62.46
233.342	95.23
233.56	-19.46
233.777	37.89
233.995	19.46
234.213	9.22
234.43	-3.07
234.648	9.22
234.865	54.27
235.083	105.47
235.3	37.89
235.518	56.32
235.735	29.7
235.953	64.51
236.17	5.12
236.388	13.31
236.605	13.31
236.822	111.61
237.04	50.18
237.257	21.5
237.475	70.65
237.692	21.5
237.909	-27.65
238.127	58.37
238.344	177.15
238.562	37.89
238.779	1.02
238.996	-11.26
239.214	82.94
239.431	46.08
239.648	-7.17
239.865	58.37
240.083	17.41
240.3	138.24
240.517	5.12
240.735	52.22
240.952	62.46
241.169	78.85
241.386	27.65
241.603	78.85
241.821	25.6
242.038	103.42
242.255	54.27
242.472	31.74
242.689	46.08
242.907	72.7
243.124	25.6
243.341	-23.55
243.558	95.23
243.775	13.31
243.992	56.32
244.209	87.04
244.426	93.18
244.643	-27.65
244.86	48.13
245.078	132.09
245.295	87.04
245.512	66.56
245.729	-17.41
245.946	70.65
246.163	23.55
246.38	66.56
246.597	103.42
246.814	62.46
247.031	64.51
247.248	29.7
247.464	113.66
247.681	84.99
247.898	78.85
248.115	37.89
248.332	-31.74
248.549	130.05
248.766	166.91
248.983	39.94
249.2	76.8
249.417	58.37
249.633	46.08
249.85	33.79
250.067	72.7
250.284	-17.41
250.501	41.98
250.717	128
250.934	25.6
251.151	76.8
251.368	56.32
251.585	29.7
251.801	25.6
252.018	95.23
252.235	13.31
252.451	-72.7
252.668	99.33
252.885	70.65
253.102	29.7
253.318	72.7
253.535	-1.02
253.752	64.51
253.968	50.18
254.185	46.08
254.401	60.42
254.618	25.6
254.835	5.12
255.051	173.05
255.268	89.09
255.484	103.42
255.701	31.74
255.917	48.13
256.134	39.94
256.351	29.7
256.567	-3.07
256.784	74.75
257	-23.55
257.217	54.27
257.433	7.17
257.65	-11.26
257.866	72.7
258.082	1.02
258.299	33.79
258.515	142.33
258.732	64.51
258.948	134.14
259.165	37.89
259.381	13.31
259.597	78.85
259.814	37.89
260.03	23.55
260.246	78.85
260.463	70.65
260.679	56.32
260.895	23.55
261.112	70.65
261.328	50.18
261.544	33.79
261.761	138.24
261.977	41.98
262.193	5.12
262.409	87.04
262.626	52.22
262.842	93.18
263.058	19.46
263.274	113.66
263.49	50.18
263.707	160.77
263.923	50.18
264.139	11.26
264.355	89.09
264.571	68.61
264.787	76.8
265.004	140.29
265.22	54.27
265.436	21.5
265.652	80.89
265.868	134.14
266.084	39.94
266.3	58.37
266.516	11.26
266.732	11.26
266.948	84.99
267.164	31.74
267.38	19.46
267.596	33.79
267.812	58.37
268.028	82.94
268.244	-1.02
268.46	62.46
268.676	-19.46
268.892	54.27
269.108	13.31
269.324	17.41
269.54	-33.79
269.756	95.23
269.972	87.04
270.188	13.31
270.403	-15.36
270.619	31.74
270.835	103.42
271.051	39.94
271.267	35.84
271.483	89.09
271.698	62.46
271.914	87.04
272.13	13.31
272.346	58.37
272.562	46.08
272.777	19.46
272.993	56.32
273.209	23.55
273.425	64.51
273.64	41.98
273.856	130.05
274.072	7.17
274.287	82.94
274.503	-44.03
274.719	87.04
274.934	134.14
275.15	25.6
275.366	76.8
275.581	29.7
275.797	107.52
276.012	97.28
276.228	103.42
276.444	-17.41
276.659	52.22
276.875	-11.26
277.09	33.79
277.306	33.79
277.521	62.46
277.737	21.5
277.952	95.23
278.168	80.89
278.383	23.55
278.599	62.46
278.814	33.79
279.03	56.32
279.245	78.85
279.461	21.5
279.676	132.09
279.892	11.26
280.107	66.56
280.322	33.79
280.538	78.85
280.753	11.26
280.969	72.7
281.184	37.89
281.399	91.13
281.615	37.89
281.83	115.71
282.045	17.41
282.26	41.98
282.476	95.23
282.691	80.89
282.906	78.85
283.122	82.94
283.337	37.89
283.552	60.42
283.767	46.08
283.983	119.81
284.198	-17.41
284.413	111.61
284.628	17.41
284.843	82.94
285.058	37.89
285.274	62.46
285.489	-5.12
285.704	46.08
285.919	-19.46
286.134	62.46
286.349	60.42
286.564	80.89
286.779	142.33
286.995	70.65
287.21	-50.18
287.425	66.56
287.64	58.37
287.855	70.65
288.07	13.31
288.285	91.13
288.5	80.89
288.715	109.57
288.93	70.65
289.145	99.33
289.36	123.9
289.575	103.42
289.79	35.84
290.004	82.94
290.219	121.85
290.434	74.75
290.649	80.89
290.864	21.5
291.079	111.61
291.294	52.22
291.509	5.12
291.724	13.31
291.938	37.89
292.153	132.09
292.368	62.46
292.583	113.66
292.798	164.86
293.012	54.27
293.227	1.02
293.442	-1.02
293.657	11.26
293.871	78.85
294.086	29.7
294.301	82.94
294.516	91.13
294.73	27.65
294.945	37.89
295.16	70.65
295.374	82.94
295.589	113.66
295.804	5.12
296.018	13.31
296.233	58.37
296.447	132.09
296.662	5.12
296.877	105.47
297.091	132.09
297.306	-1.02
297.52	37.89
297.735	41.98
297.949	25.6
298.164	80.89
298.378	-7.17
298.593	25.6
298.807	37.89
299.022	44.03
299.236	107.52
299.451	58.37
299.665	50.18
299.88	99.33
300.094	21.5
300.309	46.08
300.523	31.74
300.737	29.7
300.952	95.23
301.166	97.28
301.381	9.22
301.595	99.33
301.809	105.47
302.024	64.51
302.238	35.84
302.452	95.23
302.667	13.31
302.881	91.13
303.095	103.42
303.309	9.22
303.524	54.27
303.738	58.37
303.952	29.7
304.166	9.22
304.381	5.12
304.595	91.13
304.809	15.36
305.023	31.74
305.237	-15.36
305.452	5.12
305.666	136.19
305.88	136.19
306.094	95.23
306.308	68.61
306.522	78.85
306.736	117.76
306.95	111.61
307.164	70.65
307.379	17.41
307.593	107.52
307.807	103.42
308.021	87.04
308.235	31.74
308.449	46.08
308.663	31.74
308.877	62.46
309.091	119.81
309.305	56.32
309.519	17.41
309.733	50.18
309.947	31.74
310.161	70.65
310.374	58.37
310.588	48.13
310.802	-1.02
311.016	5.12
311.23	15.36
311.444	52.22
311.658	-17.41
311.872	17.41
312.085	89.09
312.299	78.85
312.513	70.65
312.727	136.19
312.941	78.85
313.154	41.98
313.368	66.56
313.582	54.27
313.796	58.37
314.009	70.65
314.223	103.42
314.437	74.75
314.651	44.03
314.864	128
315.078	1.02
315.292	50.18
315.505	58.37
315.719	50.18
315.933	50.18
316.146	21.5
316.36	39.94
316.573	72.7
316.787	103.42
317.001	95.23
317.214	60.42
317.428	95.23
317.641	-19.46
317.855	87.04
318.068	68.61
318.282	-35.84
318.495	152.57
318.709	84.99
318.922	48.13
319.136	115.71
319.349	132.09
319.563	31.74
319.776	62.46
319.99	33.79
320.203	132.09
320.417	136.19
320.63	62.46
320.843	195.58
321.057	58.37
321.27	66.56
321.483	82.94
321.697	37.89
321.91	25.6
322.124	21.5
322.337	72.7
322.55	78.85
322.763	72.7
322.977	95.23
323.19	33.79
323.403	46.08
323.617	23.55
323.83	27.65
324.043	70.65
324.256	132.09
324.469	84.99
324.683	136.19
324.896	78.85
325.109	152.57
325.322	-41.98
325.535	132.09
325.748	115.71
325.962	21.5
326.175	121.85
326.388	56.32
326.601	66.56
326.814	29.7
327.027	31.74
327.24	78.85
327.453	25.6
327.666	58.37
327.879	87.04
328.092	46.08
328.305	-27.65
328.518	107.52
328.731	74.75
328.944	64.51
329.157	70.65
329.37	-7.17
329.583	74.75
329.796	193.53
330.009	50.18
330.222	66.56
330.435	72.7
330.648	95.23
330.861	-11.26
331.073	50.18
331.286	140.29
331.499	95.23
331.712	78.85
331.925	50.18
332.138	56.32
332.35	23.55
332.563	113.66
332.776	140.29
332.989	60.42
333.202	-1.02
333.414	21.5
333.627	46.08
333.84	56.32
334.053	87.04
334.265	37.89
334.478	70.65
334.691	56.32
334.903	39.94
335.116	25.6
335.329	66.56
335.541	89.09
335.754	97.28
335.966	78.85
336.179	33.79
336.392	-15.36
336.604	80.89
336.817	97.28
337.029	76.8
337.242	117.76
337.454	17.41
337.667	58.37
337.88	97.28
338.092	52.22
338.305	25.6
338.517	37.89
338.729	-1.02
338.942	109.57
339.154	-3.07
339.367	-9.22
339.579	52.22
339.792	82.94
340.004	68.61
340.217	87.04
340.429	70.65
340.641	44.03
340.854	23.55
341.066	17.41
341.278	132.09
341.491	95.23
341.703	7.17
341.915	64.51
342.128	21.5
342.34	74.75
342.552	56.32
342.764	70.65
342.977	154.62
343.189	89.09
343.401	70.65
343.613	7.17
343.826	-1.02
344.038	68.61
344.25	17.41
344.462	70.65
344.674	95.23
344.886	78.85
345.099	119.81
345.311	-3.07
345.523	70.65
345.735	-48.13
345.947	111.61
346.159	134.14
346.371	80.89
346.583	95.23
346.795	103.42
347.007	115.71
347.219	39.94
347.431	146.43
347.643	87.04
347.855	21.5
348.067	111.61
348.279	-3.07
348.491	109.57
348.703	66.56
348.915	62.46
349.127	87.04
349.339	99.33
349.551	-33.79
349.763	99.33
349.975	95.23
350.187	54.27
350.399	27.65
350.61	111.61
350.822	9.22
351.034	95.23
351.246	37.89
351.458	52.22
351.669	44.03
351.881	130.05
352.093	89.09
352.305	-11.26
352.517	93.18
352.728	89.09
352.94	9.22
353.152	54.27
353.363	29.7
353.575	78.85
353.787	103.42
353.999	113.66
354.21	162.81
354.422	33.79
354.633	58.37
354.845	78.85
355.057	103.42
355.268	15.36
355.48	37.89
355.692	9.22
355.903	58.37
356.115	97.28
356.326	64.51
356.538	130.05
356.749	164.86
356.961	113.66
357.172	70.65
357.384	35.84
357.595	111.61
357.807	46.08
358.018	-15.36
358.23	95.23
358.441	156.67
358.653	128
358.864	82.94
359.075	37.89
359.287	5.12
359.498	91.13
359.709	132.09
359.921	21.5
360.132	138.24
360.344	84.99
360.555	97.28
360.766	70.65
360.977	46.08
361.189	130.05
361.4	50.18
361.611	113.66
361.823	56.32
362.034	95.23
362.245	-37.89
362.456	113.66
362.667	95.23
362.879	62.46
363.09	17.41
363.301	74.75
363.512	123.9
363.723	78.85
363.935	115.71
364.146	144.38
364.357	64.51
364.568	62.46
364.779	64.51
364.99	132.09
365.201	-11.26
365.412	39.94
365.623	44.03
365.834	80.89
366.045	95.23
366.256	152.57
366.467	113.66
366.678	64.51
366.889	46.08
367.1	37.89
367.311	64.51
367.522	48.13
367.733	78.85
367.944	64.51
368.155	107.52
368.366	80.89
368.577	111.61
368.788	89.09
368.999	62.46
369.209	68.61
369.42	128
369.631	97.28
369.842	56.32
370.053	128
370.264	89.09
370.474	62.46
370.685	56.32
370.896	50.18
371.107	97.28
371.317	37.89
371.528	152.57
371.739	138.24
371.95	80.89
372.16	105.47
372.371	64.51
372.582	46.08
372.792	117.76
373.003	95.23
373.214	50.18
373.424	89.09
373.635	54.27
373.846	117.76
374.056	15.36
374.267	70.65
374.477	72.7
374.688	54.27
374.898	39.94
375.109	103.42
375.319	29.7
375.53	203.77
375.74	113.66
375.951	54.27
376.161	148.48
376.372	54.27
376.582	89.09
376.793	78.85
377.003	97.28
377.214	39.94
377.424	37.89
377.635	41.98
377.845	50.18
378.055	152.57
378.266	56.32
378.476	46.08
378.686	132.09
378.897	52.22
379.107	123.9
379.317	156.67
379.528	162.81
379.738	171.01
379.948	95.23
380.158	97.28
380.369	95.23
380.579	64.51
380.789	46.08
380.999	91.13
381.21	91.13
381.42	58.37
381.63	78.85
381.84	164.86
382.05	117.76
382.261	181.25
382.471	121.85
382.681	33.79
382.891	91.13
383.101	99.33
383.311	1.02
383.521	95.23
383.731	62.46
383.941	97.28
384.151	78.85
384.361	74.75
384.571	128
384.781	17.41
384.991	152.57
385.201	168.96
385.411	107.52
385.621	46.08
385.831	130.05
386.041	87.04
386.251	64.51
386.461	115.71
386.671	25.6
386.881	101.37
387.091	91.13
387.301	185.34
387.511	87.04
387.72	48.13
387.93	162.81
388.14	62.46
388.35	64.51
388.56	89.09
388.769	119.81
388.979	62.46
389.189	56.32
389.399	103.42
389.609	132.09
389.818	80.89
390.028	70.65
390.238	72.7
390.447	37.89
390.657	48.13
390.867	103.42
391.076	48.13
391.286	121.85
391.496	89.09
391.705	84.99
391.915	91.13
392.125	89.09
392.334	136.19
392.544	138.24
392.753	99.33
392.963	64.51
393.172	130.05
393.382	7.17
393.591	183.29
393.801	91.13
394.01	189.44
394.22	105.47
394.429	152.57
394.639	82.94
394.848	211.96
395.058	111.61
395.267	84.99
395.477	128
395.686	136.19
395.895	189.44
396.105	97.28
396.314	103.42
396.524	113.66
396.733	80.89
396.942	211.96
397.152	168.96
397.361	185.34
397.57	164.86
397.78	111.61
397.989	138.24
398.198	220.16
398.407	99.33
398.617	171.01
398.826	199.68
399.035	123.9
399.244	125.95
399.453	99.33
399.663	128
399.872	168.96
400.081	93.18
400.29	144.38
400.499	62.46
400.708	214.01
400.917	218.11
401.127	148.48
401.336	113.66
401.545	177.15
401.754	179.2
401.963	238.59
402.172	152.57
402.381	119.81
402.59	211.96
402.799	168.96
403.008	222.2
403.217	160.77
403.426	156.67
403.635	111.61
403.844	185.34
404.053	220.16
404.262	195.58
404.471	275.45
404.68	154.62
404.888	185.34
405.097	244.73
405.306	289.79
405.515	246.78
405.724	314.36
405.933	281.6
406.142	193.53
406.35	199.68
406.559	214.01
406.768	271.36
406.977	312.32
407.185	300.03
407.394	328.7
407.603	300.03
407.812	326.65
408.02	326.65
408.229	252.92
408.438	334.84
408.646	373.75
408.855	283.64
409.064	390.14
409.272	306.17
409.481	470.01
409.69	392.19
409.898	373.75
410.107	390.14
410.315	422.91
410.524	406.52
410.733	459.77
410.941	455.67
411.15	517.11
411.358	594.93
411.567	500.73
411.775	594.93
411.984	619.51
412.192	619.51
412.401	646.13
412.609	654.33
412.818	711.67
413.026	687.09
413.234	672.76
413.443	773.11
413.651	701.43
413.86	816.12
414.068	848.88
414.276	957.43
414.485	857.07
414.693	975.86
414.901	988.14
415.11	994.29
415.318	1016.82
415.526	1006.58
415.734	1016.82
415.943	1106.93
416.151	1125.36
416.359	1213.42
416.567	1254.38
416.776	1256.43
416.984	1360.88
417.192	1375.21
417.4	1340.4
417.608	1344.49
417.817	1483.75
418.025	1549.29
418.233	1729.51
418.441	1594.34
418.649	1668.07
418.857	1811.43
419.065	1852.39
419.273	1848.29
419.481	1934.31
419.689	1885.16
419.897	2122.72
420.105	2223.07
420.313	2143.2
420.521	2472.92
420.729	2327.52
420.937	2282.46
421.145	2544.6
421.353	2544.6
421.561	2716.63
421.769	2808.79
421.977	2939.86
422.185	2859.99
422.393	2950.1
422.601	3290.06
422.809	3212.24
423.017	3199.95
423.224	3431.37
423.432	3503.05
423.64	3595.21
423.848	3789.77
424.056	3797.96
424.263	4058.05
424.471	4056
424.679	4135.87
424.887	4283.33
425.094	4379.58
425.302	4527.03
425.51	4654.01
425.718	4701.11
425.925	4864.95
426.133	4854.71
426.341	5118.9
426.548	5538.73
426.756	5565.36
426.964	5481.39
427.171	5872.55
427.379	6040.48
427.586	6101.92
427.794	6300.58
428.001	6685.59
428.209	6949.78
428.417	6618.01
428.624	7144.34
428.832	7402.38
429.039	7342.99
429.247	7181.2
429.454	7873.42
429.662	8326.02
429.869	7799.69
430.076	8352.64
430.284	8219.52
430.491	8377.22
430.699	8938.36
430.906	8995.7
431.114	9110.39
431.321	9286.51
431.528	9624.43
431.736	10201.96
431.943	10711.9
432.15	10285.92
432.358	10670.94
432.565	11121.49
432.772	10976.09
432.979	11500.37
433.187	11578.19
433.394	11656.01
433.601	12530.5
433.808	12608.32
434.016	12426.05
434.223	13001.53
434.43	13751.09
434.637	13472.56
434.844	14478.12
435.052	14953.24
435.259	14359.33
435.466	14832.41
435.673	14562.08
435.88	15438.61
436.087	16521.99
436.294	16171.79
436.501	15665.94
436.708	15999.76
436.915	16814.85
437.122	17640.18
437.329	17437.43
437.537	18033.39
437.743	18086.64
437.95	18172.65
438.157	19151.58
438.364	19870.42
438.571	19524.31
438.778	19757.78
438.985	21615.29
439.192	20605.64
439.399	21314.23
439.606	20828.87
439.813	21902
440.02	23466.65
440.227	22796.96
440.433	22715.05
440.64	23790.23
440.847	23364.25
441.054	24060.56
441.261	25588.35
441.467	25363.07
441.674	25553.53
441.881	26622.57
442.088	26337.9
442.294	25860.73
442.501	26741.35
442.708	27507.29
442.914	28570.19
443.121	29241.92
443.328	28803.66
443.534	30773.8
443.741	30145.08
443.948	29477.44
444.154	31662.62
444.361	31599.13
444.568	31517.22
444.774	31736.35
444.981	32098.84
445.187	33092.1
445.394	34286.07
445.6	33946.11
445.807	37075.4
446.013	35105.26
446.22	35961.31
446.426	37439.94
446.633	37452.23
446.839	39061.93
447.046	37286.34
447.252	39578.02
447.459	39487.91
447.665	39389.61
447.871	41208.2
448.078	42838.39
448.284	40393.11
448.491	41658.76
448.697	43346.28
448.903	44138.85
449.11	44003.68
449.316	43112.81
449.522	44214.62
449.728	45801.8
449.935	45916.48
450.141	45822.28
450.347	46827.83
450.553	45025.62
450.76	46043.46
450.966	47307.05
451.172	46965.04
451.378	48134.43
451.584	47241.52
451.791	47847.72
451.997	48165.15
452.203	48898.33
452.409	48724.25
452.615	48515.36
452.821	46795.06
453.027	46235.97
453.233	48687.39
453.44	46647.61
453.646	47612.2
453.852	47173.94
454.058	48546.08
454.264	47028.53
454.47	47630.63
454.676	46737.72
454.882	48027.94
455.088	44097.89
455.294	45328.72
455.5	45377.87
455.705	45922.63
455.911	44155.23
456.117	43123.05
456.323	42647.93
456.529	40612.24
456.735	42430.84
456.941	41025.93
457.147	40620.44
457.352	39260.58
457.558	38900.14
457.764	39127.47
457.97	38291.9
458.176	37349.83
458.381	37390.79
458.587	35774.94
458.793	35242.47
458.999	33952.25
459.204	36002.27
459.41	34857.45
459.616	32526.86
459.821	32526.86
460.027	32666.13
460.233	31930.9
460.438	30485.04
460.644	30792.23
460.85	29286.98
461.055	28705.35
461.261	28789.32
461.466	26358.38
461.672	25664.12
461.878	27605.59
462.083	25766.52
462.289	25145.98
462.494	25133.7
462.7	24130.19
462.905	23339.68
463.111	23829.14
463.316	24021.65
463.522	23661.21
463.727	23562.9
463.932	23442.07
464.138	23048.86
464.343	23607.96
464.549	22786.72
464.754	23530.14
464.959	23257.76
465.165	22839.97
465.37	21820.08
465.575	21308.09
465.781	22295.21
465.986	22174.38
466.191	21426.87
466.397	21131.97
466.602	20015.82
466.807	20765.38
467.012	20951.74
467.218	20902.59
467.423	20333.26
467.628	20632.26
467.833	21242.56
468.038	20646.6
468.244	19911.38
468.449	20579.01
468.654	19966.67
468.859	19831.51
469.064	19698.39
469.269	19043.04
469.474	19200.73
469.679	19606.23
469.885	18846.43
470.09	19329.75
470.295	19313.37
470.5	18322.15
470.705	18709.22
470.91	18250.47
471.115	18033.39
471.32	18621.16
471.525	18217.71
471.73	17908.46
471.935	17806.06
472.139	16911.1
472.344	17451.77
472.549	17146.62
472.754	17206.01
472.959	16706.31
473.164	16163.59
473.369	16184.07
473.574	16728.83
473.778	16270.09
473.983	16161.55
474.188	16182.03
474.393	15608.59
474.598	15717.14
474.802	15399.7
475.007	15547.15
475.212	15213.34
475.417	14654.24
475.621	14990.11
475.826	15160.09
476.031	14746.4
476.235	14187.3
476.44	14355.24
476.645	14043.95
476.849	14355.24
477.054	14267.17
477.259	13660.98
477.463	13923.12
477.668	13689.65
477.872	13425.46
478.077	13591.34
478.282	13153.08
478.486	12952.38
478.691	12968.76
478.895	12913.47
479.1	12727.1
479.304	12864.32
479.509	12274.5
479.713	12725.05
479.918	12383.04
480.122	12254.02
480.326	12587.84
480.531	12481.35
480.735	12133.19
480.94	11995.98
481.144	12636.99
481.348	12014.41
481.553	11955.02
481.757	11758.41
481.961	12012.36
482.166	12370.76
482.37	11885.39
482.574	11791.18
482.778	11866.95
482.983	12249.93
483.187	11934.54
483.391	11963.21
483.595	11961.16
483.8	11678.54
484.004	11938.63
484.208	11690.83
484.412	11846.48
484.616	11785.04
484.821	11850.57
485.025	11506.51
485.229	11881.29
485.433	11871.05
485.637	12032.84
485.841	11584.34
486.045	11830.09
486.249	11834.19
486.453	11678.54
486.657	11799.37
486.861	11787.08
487.065	11621.2
487.269	11854.67
487.473	11565.9
487.677	11733.84
487.881	11590.48
488.085	11522.9
488.289	11754.32
488.493	11692.88
488.697	11672.4
488.901	11793.23
489.105	11637.58
489.309	11924.3
489.512	11543.38
489.716	11715.41
489.92	11772.75
490.124	11543.38
490.328	12071.75
490.531	11813.71
490.735	11963.21
490.939	11807.56
491.143	12088.14
491.346	12036.94
491.55	12116.81
491.754	11957.07
491.958	11856.72
492.161	11901.77
492.365	12284.74
492.569	11961.16
492.772	12137.29
492.976	12249.93
493.18	12426.05
493.383	12553.02
493.587	12325.7
493.79	12606.27
493.994	12583.74
494.197	12735.29
494.401	12589.89
494.605	12763.97
494.808	12886.84
495.012	12800.83
495.215	12911.42
495.419	13136.7
495.622	13065.02
495.825	13288.25
496.029	13349.68
496.232	13278.01
496.436	13515.57
496.639	13648.69
496.843	13636.4
497.046	13888.3
497.249	14113.58
497.453	14025.51
497.656	14132.01
497.859	13947.69
498.063	14328.61
498.266	14766.88
498.469	14408.48
498.673	14732.06
498.876	15020.83
499.079	14975.77
499.282	15115.03
499.485	15258.39
499.689	15534.87
499.892	15667.98
500.095	15606.55
500.298	16038.67
500.501	15751.95
500.705	16431.88
500.908	16370.44
501.111	16751.36
501.314	16677.63
501.517	16716.54
501.72	17060.6
501.923	17011.45
502.126	17423.09
502.329	17650.42
502.532	17801.97
502.735	17855.22
502.938	18127.6
503.141	18146.03
503.344	18307.82
503.547	18641.64
503.75	18891.49
503.953	19282.65
504.156	19194.59
504.359	19399.38
504.562	19405.53
504.765	19659.48
504.968	19919.57
505.17	19868.37
505.373	20366.03
505.576	20380.36
505.779	20775.62
505.982	20722.37
506.185	21101.25
506.387	21000.9
506.59	21527.22
506.793	21850.8
506.996	21799.6
507.198	22352.55
507.401	22244.01
507.604	22254.25
507.807	23108.26
508.009	22905.51
508.212	23145.12
508.415	23437.98
508.617	23585.43
508.82	23921.3
509.022	23597.72
509.225	24488.59
509.428	24672.9
509.63	24629.9
509.833	24836.74
510.035	25254.53
510.238	25135.74
510.44	25760.37
510.643	25993.84
510.845	26159.73
511.048	25856.63
511.25	26536.56
511.453	26641
511.655	27589.21
511.858	27236.96
512.06	27550.3
512.262	27955.8
512.465	27769.43
512.667	28176.98
512.87	28637.77
513.072	28482.13
513.274	29073.99
513.477	29403.71
513.679	29477.44
513.881	29741.63
514.084	29913.66
514.286	29870.65
514.488	29999.67
514.69	30935.59
514.893	30947.88
515.095	31033.89
515.297	31584.8
515.499	31869.47
515.701	32098.84
515.904	32344.59
516.106	32344.59
516.308	32811.53
516.51	33122.82
516.712	33024.52
516.914	33536.51
517.116	33917.43
517.318	33784.32
517.52	33964.54
517.722	33946.11
517.925	34499.06
518.127	35166.7
518.329	35234.28
518.531	34961.9
518.733	35523.04
518.935	36149.72
519.136	35846.62
519.338	36448.72
519.54	36534.74
519.742	36739.54
519.944	37286.34
520.146	37134.79
520.348	37667.27
520.55	37583.3
520.752	37603.78
520.954	38486.45
521.155	37855.68
521.357	38611.38
521.559	38885.81
521.761	39610.79
521.963	38934.96
522.164	39166.38
522.366	39559.59
522.568	39795.1
522.77	39713.19
522.971	40405.4
523.173	40104.35
523.375	39934.37
523.576	40130.97
523.778	40421.78
523.98	41146.76
524.181	41171.34
524.383	40753.55
524.584	41732.48
524.786	41406.86
524.988	41273.74
525.189	41845.12
525.391	42002.82
525.592	41836.93
525.794	42146.17
525.995	41879.94
526.197	41619.84
526.398	42066.3
526.6	42557.81
526.801	42244.48
527.003	42092.93
527.204	42238.33
527.406	42967.41
527.607	42731.89
527.808	42901.87
528.01	41910.66
528.211	42641.78
528.412	43333.99
528.614	43045.23
528.815	43051.38
529.016	43364.71
529.218	42891.63
529.419	43102.57
529.62	42801.52
529.822	42994.03
530.023	43133.29
530.224	42785.14
530.425	43078
530.626	42707.32
530.828	42695.03
531.029	43549.03
531.23	42862.96
531.431	43049.33
531.632	43198.83
531.833	43063.66
532.035	42908.02
532.236	42727.8
532.437	43309.42
532.638	42991.98
532.839	42989.94
533.04	43125.1
533.241	42355.07
533.442	42973.55
533.643	42654.07
533.844	42799.47
534.045	42705.27
534.246	42250.62
534.447	42504.57
534.648	42621.3
534.849	42879.35
535.05	41789.83
535.251	42377.59
535.451	42447.22
535.652	42473.85
535.853	42088.83
536.054	42490.23
536.255	42006.91
536.456	41953.66
536.657	42772.85
536.857	42348.92
537.058	41912.7
537.259	42711.41
537.46	41843.07
537.66	42072.45
537.861	42248.57
538.062	41755.01
538.263	41648.52
538.463	41505.16
538.664	41879.94
538.865	42086.78
539.065	41838.98
539.266	41714.05
539.466	41879.94
539.667	41367.94
539.868	41656.71
540.068	41423.24
540.269	41374.09
540.469	41838.98
540.67	41474.44
540.87	41314.7
541.071	41122.19
541.271	41689.48
541.472	41380.23
541.672	41093.52
541.873	41335.18
542.073	41064.85
542.274	41023.89
542.474	41032.08
542.675	40722.83
542.875	41337.23
543.075	41304.46
543.276	40581.52
543.476	41499.01
543.676	41302.41
543.877	41369.99
544.077	41154.96
544.277	40864.14
544.478	41003.41
544.678	41177.48
544.878	41107.85
545.078	40970.64
545.279	40716.69
545.479	41118.09
545.679	40890.77
545.879	40681.88
546.079	40896.91
546.28	40784.27
546.48	40575.38
546.68	40839.57
546.88	40864.14
547.08	41154.96
547.28	40683.92
547.48	40346.01
547.68	41068.94
547.88	40634.77
548.081	40683.92
548.281	40837.52
548.481	40759.7
548.681	40708.5
548.881	40855.95
549.081	40880.53
549.28	40534.42
549.48	41167.24
549.68	40790.42
549.88	41066.89
550.08	40790.42
550.28	40696.21
550.48	40765.84
550.68	40935.82
550.88	40384.92
551.08	40470.93
551.279	41138.57
551.479	40669.59
551.679	41015.69
551.879	40745.36
552.079	40753.55
552.278	40440.21
552.478	40741.27
552.678	40868.24
552.878	40956.3
553.077	40778.13
553.277	40796.56
553.477	41062.8
553.676	40722.83
553.876	40688.02
554.076	40788.37
554.275	40874.38
554.475	40593.81
554.674	41060.75
554.874	40835.47
555.074	40925.58
555.273	41359.75
555.473	40921.49
555.672	41013.65
555.872	40837.52
556.071	40935.82
556.271	41202.06
556.47	40876.43
556.67	40690.07
556.869	40698.26
557.068	41249.16
557.268	40659.35
557.467	40909.2
557.667	41060.75
557.866	40831.38
558.065	40905.1
558.265	40780.18
558.464	40559
558.663	41118.09
558.863	40411.54
559.062	41402.76
559.261	40673.68
559.461	41111.95
559.66	40434.07
559.859	40939.92
560.058	40384.92
560.258	41132.43
560.457	40685.97
560.656	40993.17
560.855	40630.68
561.054	40962.45
561.253	40343.96
561.453	40923.54
561.652	40890.77
561.851	40536.47
562.05	40610.2
562.249	40208.79
562.448	40974.73
562.647	40536.47
562.846	40624.53
563.045	40544.66
563.244	40245.66
563.443	41126.28
563.642	40165.79
563.841	40552.85
564.04	40272.28
564.239	40825.23
564.438	40389.02
564.637	40743.31
564.836	40323.48
565.035	40354.2
565.234	40288.67
565.432	39784.86
565.631	40018.33
565.83	40139.16
566.029	40106.4
566.228	39748
566.427	39844.26
566.625	39559.59
566.824	39580.07
567.023	39543.2
567.222	39074.22
567.42	39692.71
567.619	39584.16
567.818	39471.53
568.016	39451.05
568.215	40042.91
568.414	39446.95
568.612	39543.2
568.811	39113.13
569.01	39262.63
569.208	38529.46
569.407	39541.16
569.605	38781.36
569.804	39309.74
570.002	38848.94
570.201	39119.28
570.4	38308.28
570.598	38678.96
570.797	38314.42
570.995	38781.36
571.193	38201.79
571.392	38500.79
571.59	37802.43
571.789	37650.88
571.987	38222.26
572.186	38037.95
572.384	37315.01
572.582	38140.35
572.781	37702.08
572.979	37472.71
573.177	37480.9
573.376	37798.34
573.574	37011.92
573.772	37288.39
573.971	37353.93
574.169	36936.14
574.367	36790.73
574.565	36747.73
574.763	36657.62
574.962	37003.72
575.16	36254.17
575.358	36522.45
575.556	35916.25
575.754	36698.58
575.952	36041.18
576.151	36432.34
576.349	35967.45
576.547	36121.05
576.745	35981.79
576.943	35887.58
577.141	35867.1
577.339	35729.89
577.537	35275.24
577.735	35201.51
577.933	35183.08
578.131	35236.33
578.329	35191.27
578.527	34945.51
578.725	35025.39
578.923	35336.68
579.121	35209.7
579.319	34777.58
579.516	34703.85
579.714	34779.63
579.912	34316.79
580.11	34398.71
580.308	33948.15
580.506	34161.14
580.704	33653.25
580.901	34306.55
581.099	34087.42
581.297	33849.85
581.495	33739.26
581.692	34181.62
581.89	33810.94
582.088	34216.44
582.285	33440.26
582.483	33681.92
582.681	33778.17
582.878	33071.62
583.076	33081.86
583.274	33821.18
583.471	32678.41
583.669	33247.75
583.866	32729.61
584.064	32922.12
584.262	32649.74
584.459	32913.93
584.657	32647.69
584.854	32911.88
585.052	32221.72
585.249	32438.8
585.447	32234
585.644	31904.28
585.841	32236.05
586.039	32221.72
586.236	31576.61
586.434	31779.36
586.631	31644.19
586.828	31834.65
587.026	31932.95
587.223	31750.68
587.42	31650.33
587.618	31310.37
587.815	31336.99
588.012	31146.53
588.21	31160.87
588.407	31400.48
588.604	31162.92
588.801	30933.54
588.999	30802.47
589.196	30755.37
589.393	30994.98
589.59	30722.6
589.787	30745.13
589.984	30362.16
590.182	30399.02
590.379	30571.05
590.576	30231.09
590.773	30489.13
590.97	30360.11
591.167	30110.26
591.364	30022.2
591.561	30399.02
591.758	29794.87
591.955	29893.18
592.152	30059.06
592.349	29432.38
592.546	29971
592.743	29940.28
592.94	29608.51
593.137	29704.76
593.334	29999.67
593.531	29106.76
593.727	29633.08
593.924	29559.36
594.121	29160
594.318	29633.08
594.515	29061.7
594.712	29440.57
594.908	29076.04
595.105	29342.27
595.302	28932.68
595.499	29424.19
595.696	28912.2
595.892	28471.89
596.089	29018.69
596.286	28969.54
596.482	28809.8
596.679	28918.34
596.876	28920.39
597.072	28508.75
597.269	28904.01
597.466	28643.91
597.662	28664.39
597.859	28701.26
598.055	28572.24
598.252	28504.65
598.448	28486.22
598.645	28408.4
598.841	28326.48
599.038	28365.39
599.234	28553.8
599.431	28392.01
599.627	28310.1
599.824	28295.76
600.02	28353.1
600.217	28424.78
600.413	28424.78
600.609	28086.87
600.806	27945.56
601.002	28041.81
601.198	28187.22
601.395	28480.08
601.591	28148.31
601.787	28234.32
601.984	28226.13
602.18	28293.71
602.376	27992.66
602.572	28166.74
602.769	28088.92
602.965	27877.97
603.161	28273.23
603.357	28230.23
603.553	28146.26
603.75	28019.28
603.946	27896.41
604.142	27992.66
604.338	28015.19
604.534	28084.82
604.73	28344.91
604.926	27867.73
605.122	28179.03
605.318	27689.56
605.514	28131.92
605.71	28072.53
605.906	27986.52
606.102	28187.22
606.298	28158.55
606.494	28179.03
606.69	28105.3
606.886	28211.79
607.082	27949.65
607.278	28322.38
607.474	27873.88
607.67	28355.15
607.866	27816.54
608.062	28496.46
608.257	27929.17
608.453	28181.07
608.649	28248.66
608.845	28119.63
609.041	28228.18
609.236	28209.75
609.432	28523.08
609.628	28316.24
609.824	28230.23
610.019	28392.01
610.215	28426.83
610.411	28648.01
610.606	28416.59
610.802	28797.51
610.998	28383.82
611.193	28695.11
611.389	28504.65
611.584	28518.99
611.78	28236.37
611.976	28306
612.171	28549.71
612.367	28668.49
612.562	28623.44
612.758	28562
612.953	28238.42
613.149	28414.54
613.344	28578.38
613.539	28881.48
613.735	28527.18
613.93	28498.51
614.126	28529.23
614.321	29037.12
614.517	28588.62
614.712	28625.48
614.907	28500.56
615.103	28635.72
615.298	28629.58
615.493	28996.17
615.688	28701.26
615.884	28979.78
616.079	28381.77
616.274	28600.91
616.47	28756.55
616.665	28756.55
616.86	28535.37
617.055	28748.36
617.25	28549.71
617.445	28744.27
617.641	28119.63
617.836	28809.8
618.031	28056.15
618.226	28498.51
618.421	28123.73
618.616	28181.07
618.811	27988.56
619.006	28365.39
619.201	28260.94
619.396	28013.14
619.591	27613.79
619.786	28015.19
619.981	28047.96
620.176	28021.33
620.371	27755.1
620.566	27589.21
620.761	27374.17
620.956	27693.66
621.151	26940
621.346	27497.05
621.541	27296.35
621.735	27578.97
621.93	26950.24
622.125	27081.31
622.32	26862.18
622.515	26892.9
622.709	26651.24
622.904	26704.49
623.099	26348.14
623.294	26339.95
623.488	26239.6
623.683	26137.2
623.878	25563.77
624.072	26059.38
624.267	25692.79
624.462	25580.15
624.656	25246.33
624.851	25451.13
625.046	25535.1
625.24	25164.42
625.435	24906.37
625.629	25145.98
625.824	24873.6
626.018	24636.04
626.213	24177.3
626.407	24334.99
626.602	23992.98
626.796	24398.48
626.991	24205.97
627.185	24093.33
627.38	24171.15
627.574	23747.22
627.768	23554.71
627.963	23714.45
628.157	23480.99
628.352	23472.79
628.546	22887.07
628.74	23489.18
628.935	22925.99
629.129	22964.9
629.323	22637.22
629.517	22811.3
629.712	22590.12
629.906	22633.13
630.1	22153.9
630.294	22440.62
630.489	22139.57
630.683	22282.92
630.877	21918.39
631.071	21889.71
631.265	21719.73
631.459	21846.71
631.653	21598.9
631.848	21562.04
632.042	21824.18
632.236	21459.64
632.43	21285.56
632.624	21187.26
632.818	20886.21
633.012	20603.59
633.206	21056.19
633.4	20843.2
633.594	20466.38
633.788	20370.12
633.982	20437.7
634.176	20497.1
634.369	20050.64
634.563	20218.57
634.757	19778.26
634.951	20134.6
635.145	20128.46
635.339	19833.55
635.533	19428.06
635.726	19518.17
635.92	19141.34
636.114	19567.32
636.308	19057.37
636.501	19344.09
636.695	18836.19
636.889	18815.71
637.083	18830.05
637.276	18453.22
637.47	18678.5
637.664	18477.8
637.857	18389.74
638.051	18479.85
638.244	18469.61
638.438	18344.68
638.632	17887.98
638.825	18029.29
639.019	17810.16
639.212	17793.78
639.406	17695.47
639.599	17478.39
639.793	17496.82
639.986	17337.08
640.18	17242.87
640.373	16886.53
640.567	16823.04
640.76	16874.24
640.954	16909.05
641.147	16716.54
641.34	16720.64
641.534	16622.34
641.727	16259.85
641.92	16231.18
642.114	16366.34
642.307	16278.28
642.5	16093.96
642.694	15938.32
642.887	16167.69
643.08	15733.52
643.273	15747.86
643.467	15682.32
643.66	15387.41
643.853	15223.58
644.046	15209.24
644.239	15170.33
644.432	15313.69
644.626	14965.53
644.819	14922.52
645.012	14936.86
645.205	15094.55
645.398	14770.97
645.591	14600.99
645.784	14431.01
645.977	14291.75
646.17	14431.01
646.363	14375.72
646.556	14215.98
646.749	14091.05
646.942	13904.68
647.135	14095.14
647.328	13947.69
647.521	13710.13
647.714	13577.01
647.907	13708.08
648.099	13654.83
648.292	13513.52
648.485	13521.71
648.678	13114.17
648.871	13292.34
649.064	13202.23
649.256	13124.41
649.449	13032.25
649.642	13019.96
649.835	12915.51
650.027	12772.16
650.22	12780.35
650.413	12747.58
650.605	12694.33
650.798	12620.61
650.991	12403.52
651.183	12401.47
651.376	12344.13
651.568	12589.89
651.761	12262.21
651.954	12229.45
652.146	12133.19
652.339	12137.29
652.531	11850.57
652.724	12077.9
652.916	11678.54
653.109	11651.92
653.301	11754.32
653.494	11588.43
653.686	11549.52
653.879	11598.67
654.071	11338.58
654.263	11379.54
654.456	11256.66
654.648	11273.04
654.84	11090.77
655.033	11119.45
655.225	11141.97
655.417	11230.04
655.61	11158.36
655.802	10849.11
655.994	10982.23
656.186	10988.38
656.379	10818.39
656.571	10601.31
656.763	10539.87
656.955	10560.35
657.148	10472.29
657.34	10615.65
657.532	10285.92
657.724	10302.31
657.916	10361.7
658.108	10290.02
658.3	10294.11
658.492	10195.81
658.684	9900.9
658.876	10068.84
659.068	9964.39
659.26	9876.33
659.452	9853.8
659.644	10040.17
659.836	9749.36
660.028	9663.34
660.22	9452.4
660.412	9587.57
660.604	9556.85
660.796	9450.35
660.988	9501.55
661.18	9270.13
661.372	9237.36
661.563	9239.41
661.755	9270.13
661.947	9220.98
662.139	8817.53
662.331	9100.15
662.522	9034.61
662.714	8715.13
662.906	8733.56
663.097	8854.39
663.289	8733.56
663.481	8797.05
663.673	8913.78
663.864	8751.99
664.056	8506.24
664.247	8717.18
664.439	8438.66
664.631	8403.84
664.822	8420.22
665.014	8276.87
665.205	8088.45
665.397	8225.67
665.588	8115.08
665.78	8090.5
665.971	8205.19
666.163	7981.96
666.354	8012.68
666.546	7852.94
666.737	7967.62
666.929	7918.47
667.12	7912.33
667.311	7902.09
667.503	7631.76
667.694	7844.74
667.885	7789.45
668.077	7658.38
668.268	7568.27
668.459	7594.89
668.651	7603.08
668.842	7639.95
669.033	7467.92
669.224	7467.92
669.416	7519.12
669.607	7426.96
669.798	7181.2
669.989	7394.19
670.18	7418.77
670.371	7273.36
670.563	7113.62
670.754	7164.82
670.945	7130
671.136	7130
671.327	6992.79
671.518	7160.72
671.709	7056.28
671.9	7009.17
672.091	6990.74
672.282	6898.58
672.473	6814.62
672.664	6937.49
672.855	6894.49
673.046	6955.93
673.237	6919.06
673.428	6773.66
673.619	6790.04
673.809	6681.5
674	6816.66
674.191	6710.17
674.382	6636.44
674.573	6511.52
674.764	6685.59
674.954	6572.96
675.145	6468.51
675.336	6507.42
675.527	6546.33
675.717	6464.41
675.908	6308.77
676.099	6538.14
676.289	6431.65
676.48	6405.02
676.671	6204.32
676.861	6353.82
677.052	6380.45
677.243	6165.41
677.433	6235.04
677.624	6296.48
677.814	6296.48
678.005	6136.74
678.195	6255.52
678.386	6243.23
678.576	6063.01
678.767	6069.16
678.957	6235.04
679.148	6067.11
679.338	6239.14
679.529	6028.2
679.719	6142.88
679.909	6159.27
680.1	6149.03
680.29	6165.41
680.481	5983.14
680.671	6134.69
680.861	5856.17
681.052	5829.54
681.242	5968.8
681.432	6063.01
681.622	5938.09
681.813	5800.87
682.003	5850.02
682.193	5673.9
682.383	5874.6
682.573	5899.17
682.764	5987.24
682.954	5823.4
683.144	5757.86
683.334	5864.36
683.524	5862.31
683.714	5577.64
683.904	5829.54
684.094	5774.25
684.284	5690.28
684.474	5913.51
684.664	5772.2
684.854	5546.92
685.044	5667.75
685.234	5497.77
685.424	5637.03
685.614	5698.47
685.804	5755.82
685.994	5516.2
686.184	5587.88
686.374	5671.85
686.564	5532.59
686.753	5465
686.943	5460.91
687.133	5428.14
687.323	5471.15
687.513	5448.62
687.702	5481.39
687.892	5231.54
688.082	5495.72
688.272	5395.37
688.461	5487.53
688.651	5579.69
688.841	5217.2
689.03	5340.08
689.22	5440.43
689.41	5292.98
689.599	5360.56
689.789	5077.94
689.979	5223.34
690.168	5419.95
690.358	5135.28
690.547	5065.65
690.737	5211.06
690.926	5213.1
691.116	5174.19
691.305	5186.48
691.495	5039.03
691.684	5020.6
691.874	5174.19
692.063	5256.11
692.252	4977.59
692.442	4977.59
692.631	4924.34
692.82	5063.6
693.01	4799.41
693.199	5043.12
693.388	4840.37
693.578	4803.51
693.767	4871.09
693.956	4885.43
694.146	4910.01
694.335	4629.43
694.524	4600.76
694.713	4893.62
694.902	4905.91
695.092	4740.02
695.281	4766.65
695.47	4733.88
695.659	4746.17
695.848	4643.77
696.037	4684.73
696.226	4791.22
696.415	4727.74
696.604	4760.5
696.793	4586.43
696.982	4668.34
697.171	4799.41
697.36	4629.43
697.549	4692.92
697.738	4584.38
697.927	4508.6
698.116	4596.67
698.305	4492.22
698.494	4596.67
698.683	4455.36
698.872	4588.47
699.061	4584.38
699.25	4486.08
699.438	4445.12
699.627	4619.19
699.816	4522.94
700.005	4461.5
700.193	4510.65
700.382	4506.56
700.571	4365.25
700.76	4531.13
700.948	4307.9
701.137	4395.96
701.326	4543.42
701.514	4346.81
701.703	4340.67
701.892	4219.84
702.08	4420.54
702.269	4449.21
702.457	4225.98
702.646	4342.72
702.834	4287.42
703.023	4273.09
703.212	4340.67
703.4	4250.56
703.589	4268.99
703.777	4211.65
703.965	4191.17
704.154	4160.45
704.342	4187.07
704.531	4258.75
704.719	4250.56
704.907	4129.73
705.096	4015.04
705.284	4103.11
705.472	4070.34
705.661	4043.71
705.849	4092.87
706.037	4060.1
706.226	3890.12
706.414	3972.04
706.602	3984.32
706.79	3976.13
706.979	4010.95
707.167	4010.95
707.355	3972.04
707.543	4068.29
707.731	3945.41
707.919	3922.88
708.107	3847.11
708.296	3861.45
708.484	3736.52
708.672	3916.74
708.86	3824.58
709.048	3910.6
709.236	3740.61
709.424	3892.16
709.612	3840.97
709.8	3789.77
709.988	3744.71
710.176	3879.88
710.364	3826.63
710.551	3783.62
710.739	3693.51
710.927	3713.99
711.115	3724.23
711.303	3646.41
711.491	3650.5
711.679	3726.28
711.866	3650.5
712.054	3562.44
712.242	3673.03
712.43	3781.57
712.617	3728.33
712.805	3548.11
712.993	3507.15
713.181	3554.25
713.368	3455.95
713.556	3433.42
713.744	3441.61
713.931	3546.06
714.119	3570.63
714.306	3625.93
714.494	3437.52
714.682	3605.45
714.869	3423.18
715.057	3519.43
715.244	3521.48
715.432	3490.76
715.619	3435.47
715.807	3453.9
715.994	3380.17
716.182	3472.33
716.369	3404.75
716.556	3427.28
716.744	3257.29
716.931	3406.8
717.119	3310.54
717.306	3277.77
717.493	3347.4
717.681	3226.57
717.868	3359.69
718.055	3113.94
718.242	3253.2
718.43	3263.44
718.617	3218.38
718.804	3224.53
718.991	3212.24
719.179	3308.49
719.366	3146.7
719.553	3183.57
719.74	3132.37
719.927	3161.04
720.114	3118.03
720.301	2974.67
720.488	3154.9
720.676	3171.28
720.863	3130.32
721.05	3222.48
721.237	3197.9
721.424	3199.95
721.611	3079.12
721.798	3052.5
721.985	3036.11
722.172	3158.99
722.358	3095.5
722.545	2962.39
722.732	2978.77
722.919	2980.82
723.106	2880.47
723.293	2939.86
723.48	3101.65
723.667	2847.7
723.853	2978.77
724.04	3060.69
724.227	2886.61
724.414	2866.13
724.6	3040.21
724.787	2986.96
724.974	2978.77
725.161	2954.19
725.347	2726.87
725.534	2722.77
725.72	2814.93
725.907	2937.81
726.094	2952.15
726.28	2855.89
726.467	2759.64
726.653	2759.64
726.84	2864.08
727.027	2771.93
727.213	2692.05
727.4	2798.55
727.586	2841.56
727.773	2667.48
727.959	2749.4
728.145	2853.84
728.332	2751.45
728.518	2702.29
728.705	2773.97
728.891	2782.17
729.077	2784.21
729.264	2696.15
729.45	2735.06
729.636	2888.66
729.823	2548.7
730.009	2751.45
730.195	2708.44
730.382	2690.01
730.568	2556.89
730.754	2798.55
730.94	2642.9
731.126	2733.01
731.313	2663.38
731.499	2593.75
731.685	2700.25
731.871	2647
732.057	2616.28
732.243	2589.66
732.429	2585.56
732.615	2622.42
732.801	2532.31
732.987	2548.7
733.173	2603.99
733.359	2552.79
733.545	2642.9
733.731	2546.65
733.917	2606.04
734.103	2536.41
734.289	2544.6
734.475	2481.11
734.661	2440.15
734.847	2393.05
735.033	2544.6
735.219	2462.68
735.404	2466.78
735.59	2341.85
735.776	2372.57
735.962	2440.15
736.148	2515.93
736.333	2436.06
736.519	2391
736.705	2509.79
736.89	2470.87
737.076	2366.43
737.262	2282.46
737.447	2382.81
737.633	2290.65
737.819	2393.05
738.004	2421.72
738.19	2350.04
738.375	2341.85
738.561	2388.96
738.747	2307.04
738.932	2212.83
739.118	2337.76
739.303	2266.08
739.489	2343.9
739.674	2235.36
739.859	2266.08
740.045	2137.06
740.23	2190.3
740.416	2069.47
740.601	2341.85
740.786	2204.64
740.972	2178.01
741.157	2163.68
741.342	2151.39
741.528	2048.99
741.713	2175.97
741.898	2167.77
742.084	2200.54
742.269	2118.62
742.454	2171.87
742.639	2208.73
742.824	2196.45
743.01	2073.57
743.195	2153.44
743.38	2200.54
743.565	1973.22
743.75	2186.21
743.935	2053.09
744.12	2010.08
744.305	1989.6
744.49	1909.73
744.675	2079.71
744.86	1956.83
745.045	1930.21
745.23	1938.4
745.415	1995.75
745.6	2046.94
745.785	2028.51
745.97	1936.35
746.155	1954.79
746.34	1932.26
746.525	1899.49
746.71	1907.68
746.895	1895.4
747.079	1946.59
747.264	1778.66
747.449	1942.5
747.634	1934.31
747.819	1850.34
748.003	1864.68
748.188	1766.37
748.373	1860.58
748.557	1807.33
748.742	1833.96
748.927	1817.57
749.111	1684.45
749.296	1883.11
749.481	1719.27
749.665	1643.49
749.85	1819.62
750.034	1709.03
750.219	1706.98
750.404	1721.32
750.588	1561.58
750.773	1582.06
750.957	1561.58
751.141	1549.29
751.326	1653.73
751.51	1530.86
751.695	1645.54
751.879	1629.16
752.064	1758.18
752.248	1602.54
752.432	1633.26
752.617	1582.06
752.801	1588.2
752.985	1528.81
753.17	1442.79
753.354	1473.51
753.538	1530.86
753.722	1391.59
753.907	1553.38
754.091	1405.93
754.275	1483.75
754.459	1496.04
754.643	1340.4
754.828	1381.35
755.012	1446.89
755.196	1291.24
755.38	1440.75
755.564	1319.92
755.748	1352.68
755.932	1444.84
756.116	1512.42
756.3	1350.64
756.484	1254.38
756.668	1375.21
756.852	1293.29
757.036	1295.34
757.22	1403.88
757.404	1244.14
757.588	1184.75
757.772	1248.24
757.956	1285.1
758.14	1383.4
758.323	1160.17
758.507	1295.34
758.691	1180.65
758.875	1229.81
759.059	1225.71
759.242	1180.65
759.426	1135.6
759.61	1162.22
759.794	1111.02
759.977	1242.09
760.161	1266.67
760.345	1235.95
760.528	1209.33
760.712	1186.8
760.895	1170.41
761.079	1205.23
761.263	1151.98
761.446	1086.45
761.63	1158.13
761.813	1143.79
761.997	1082.35
762.18	1104.88
762.364	1092.59
762.547	1004.53
762.731	1117.17
762.914	1078.26
763.098	1080.3
763.281	936.95
763.464	1059.82
763.648	1135.6
763.831	1025.01
764.015	1078.26
764.198	1119.21
764.381	1061.87
764.564	1061.87
764.748	1125.36
764.931	1102.83
765.114	1012.72
765.297	998.38
765.481	947.19
765.664	1043.44
765.847	1065.97
766.03	1070.06
766.213	887.79
766.397	963.57
766.58	949.23
766.763	959.47
766.946	961.52
767.129	977.91
767.312	951.28
767.495	1000.43
767.678	873.46
767.861	1041.39
768.044	850.93
768.227	1010.67
768.41	963.57
768.593	979.95
768.776	889.84
768.959	984.05
769.142	977.91
769.324	943.09
769.507	941.04
769.69	906.23
769.873	822.26
770.056	947.19
770.239	969.71
770.421	889.84
770.604	857.07
770.787	891.89
770.97	867.31
771.152	877.55
771.335	893.94
771.518	920.56
771.7	918.51
771.883	902.13
772.066	840.69
772.248	914.42
772.431	906.23
772.613	779.25
772.796	865.27
772.978	838.64
773.161	850.93
773.343	871.41
773.526	742.39
773.708	779.25
773.891	807.92
774.073	801.78
774.256	803.83
774.438	824.31
774.621	781.3
774.803	875.51
774.985	775.16
775.168	828.4
775.35	783.35
775.532	777.2
775.715	758.77
775.897	769.01
776.079	736.24
776.261	717.81
776.444	773.11
776.626	750.58
776.808	693.24
776.99	750.58
777.173	721.91
777.355	660.47
777.537	664.57
777.719	648.18
777.901	721.91
778.083	668.66
778.265	674.81
778.447	687.09
778.629	660.47
778.811	734.2
778.993	705.53
779.175	695.29
779.357	656.37
779.539	697.33
779.721	734.2
779.903	652.28
780.085	685.05
780.267	617.46
780.449	629.75
780.631	590.84
780.812	654.33
780.994	709.62
781.176	635.89
781.358	621.56
781.54	582.65
781.721	629.75
781.903	652.28
782.085	646.13
782.267	531.45
782.448	541.69
782.63	521.21
782.812	611.32
782.993	529.4
783.175	508.92
783.357	521.21
783.538	586.74
783.72	525.3
783.901	533.5
784.083	521.21
784.264	531.45
784.446	472.06
784.627	513.02
784.809	502.78
784.99	594.93
785.172	564.22
785.353	513.02
785.535	588.79
785.716	476.15
785.897	459.77
786.079	525.3
786.26	484.34
786.441	506.87
786.623	449.53
786.804	427
786.985	476.15
787.167	515.06
787.348	506.87
787.529	443.39
787.71	488.44
787.891	531.45
788.073	359.42
788.254	369.66
788.435	457.72
788.616	443.39
788.797	453.63
788.978	414.71
789.159	431.1
789.34	383.99
789.522	394.23
789.703	383.99
789.884	400.38
790.065	445.43
790.246	418.81
790.427	355.32
790.607	349.18
790.788	545.78
790.969	422.91
791.15	408.57
791.331	357.37
791.512	304.12
791.693	414.71
791.874	375.8
792.054	383.99
792.235	431.1
792.416	293.88
792.597	283.64
792.778	340.99
792.958	324.6
793.139	375.8
793.32	381.95
793.5	365.56
793.681	390.14
793.862	304.12
794.042	326.65
794.223	285.69
794.404	324.6
794.584	381.95
794.765	201.72
794.945	338.94
795.126	353.27
795.306	359.42
795.487	304.12
795.667	275.45
795.848	316.41
796.028	343.03
796.209	312.32
796.389	332.79
796.57	316.41
796.75	273.4
796.93	381.95
797.111	302.08
797.291	316.41
797.471	283.64
797.652	250.88
797.832	279.55
798.012	297.98
798.192	291.84
798.373	222.2
798.553	300.03
798.733	326.65
798.913	334.84
799.093	312.32
799.274	285.69
799.454	308.22
799.634	322.56
799.814	242.68
799.994	275.45
800.174	316.41
800.354	300.03
800.534	275.45
800.714	300.03
800.894	275.45
801.074	197.63
801.254	201.72
801.434	300.03
801.614	236.54
801.794	283.64
801.974	941.04
802.154	226.3
802.334	320.51
802.514	201.72
802.693	275.45
802.873	214.01
803.053	185.34
803.233	304.12
803.413	287.74
803.592	185.34
803.772	254.97
803.952	236.54
804.131	261.12
804.311	222.2
804.491	224.25
804.67	181.25
804.85	220.16
805.03	207.87
805.209	267.26
805.389	261.12
805.568	242.68
805.748	244.73
805.928	236.54
806.107	209.92
806.287	197.63
806.466	152.57
806.646	193.53
806.825	226.3
807.004	187.39
807.184	275.45
807.363	254.97
807.543	201.72
807.722	146.43
807.901	248.83
808.081	222.2
808.26	226.3
808.439	199.68
808.619	216.06
808.798	205.82
808.977	287.74
809.156	271.36
809.336	218.11
809.515	259.07
809.694	171.01
809.873	195.58
810.052	275.45
810.231	211.96
810.411	185.34
810.59	209.92
810.769	136.19
810.948	234.49
811.127	171.01
811.306	230.4
811.485	189.44
811.664	201.72
811.843	160.77
812.022	218.11
812.201	185.34
812.38	203.77
812.559	209.92
812.737	164.86
812.916	123.9
813.095	130.05
813.274	164.86
813.453	224.25
813.632	201.72
813.811	146.43
813.989	146.43
814.168	111.61
814.347	103.42
814.526	152.57
814.704	187.39
814.883	193.53
815.062	173.05
815.24	150.53
815.419	244.73
815.598	238.59
815.776	160.77
815.955	173.05
816.133	164.86
816.312	154.62
816.49	39.94
816.669	168.96
816.847	168.96
817.026	140.29
817.204	136.19
817.383	117.76
817.561	103.42
817.74	230.4
817.918	138.24
818.097	138.24
818.275	150.53
818.453	125.95
818.632	111.61
818.81	168.96
818.988	62.46
819.167	152.57
819.345	144.38
819.523	144.38
819.701	78.85
819.879	211.96
820.058	177.15
820.236	152.57
820.414	138.24
820.592	152.57
820.77	123.9
820.948	91.13
821.127	103.42
821.305	171.01
821.483	105.47
821.661	144.38
821.839	103.42
822.017	136.19
822.195	179.2
822.373	146.43
822.551	152.57
822.729	168.96
822.907	203.77
823.085	179.2
823.262	62.46
823.44	140.29
823.618	107.52
823.796	128
823.974	82.94
824.152	72.7
824.329	111.61
824.507	205.82
824.685	134.14
824.863	146.43
825.04	111.61
825.218	95.23
825.396	111.61
825.574	128
825.751	87.04
825.929	195.58
826.107	74.75
826.284	72.7
826.462	105.47
826.639	62.46
826.817	97.28
826.994	76.8
827.172	113.66
827.349	156.67
827.527	230.4
827.704	56.32
827.882	87.04
828.059	111.61
828.237	37.89
828.414	144.38
828.591	103.42
828.769	160.77
828.946	97.28
829.124	72.7
829.301	160.77
829.478	74.75
829.655	87.04
829.833	130.05
830.01	17.41
830.187	68.61
830.364	103.42
830.542	119.81
830.719	138.24
830.896	146.43
831.073	119.81
831.25	164.86
831.427	179.2
831.604	46.08
831.782	111.61
831.959	136.19
832.136	70.65
832.313	119.81
832.49	60.42
832.667	156.67
832.844	87.04
833.021	103.42
833.198	103.42
833.374	84.99
833.551	158.72
833.728	140.29
833.905	146.43
834.082	46.08
834.259	91.13
834.436	146.43
834.612	-1.02
834.789	160.77
834.966	111.61
835.143	117.76
835.319	72.7
835.496	123.9
835.673	29.7
835.85	128
836.026	89.09
836.203	152.57
836.38	80.89
836.556	5.12
836.733	109.57
836.909	197.63
837.086	52.22
837.262	103.42
837.439	87.04
837.616	95.23
837.792	87.04
837.968	166.91
838.145	13.31
838.321	111.61
838.498	80.89
838.674	103.42
838.851	70.65
839.027	95.23
839.203	105.47
839.38	136.19
839.556	62.46
839.732	121.85
839.909	87.04
840.085	74.75
840.261	41.98
840.437	87.04
840.614	93.18
840.79	48.13
840.966	87.04
841.142	152.57
841.318	109.57
841.494	91.13
841.671	84.99
841.847	21.5
842.023	-23.55
842.199	115.71
842.375	162.81
842.551	15.36
842.727	25.6
842.903	121.85
843.079	87.04
843.255	117.76
843.431	5.12
843.607	15.36
843.783	54.27
843.959	62.46
844.134	91.13
844.31	80.89
844.486	-35.84
844.662	37.89
844.838	27.65
845.013	74.75
845.189	54.27
845.365	105.47
845.541	35.84
845.716	-27.65
845.892	99.33
846.068	89.09
846.244	13.31
846.419	66.56
846.595	21.5
846.77	105.47
846.946	132.09
847.122	33.79
847.297	64.51
847.473	50.18
847.648	7.17
847.824	60.42
847.999	-1.02
848.175	99.33
848.35	25.6
848.526	80.89
848.701	70.65
848.876	62.46
849.052	37.89
849.227	25.6
849.403	56.32
849.578	33.79
849.753	21.5
849.929	84.99
850.104	46.08
850.279	-1.02
850.454	13.31
850.63	33.79
850.805	64.51
850.98	31.74
851.155	60.42
851.33	70.65
851.505	21.5
851.681	9.22
851.856	25.6
852.031	136.19
852.206	62.46
852.381	52.22
852.556	37.89
852.731	91.13
852.906	115.71
853.081	128
853.256	11.26
853.431	41.98
853.606	17.41
853.781	27.65
853.956	35.84
854.131	56.32
854.305	7.17
854.48	46.08
854.655	-3.07
854.83	5.12
855.005	-1.02
855.18	29.7
855.354	99.33
855.529	9.22
855.704	95.23
855.879	78.85
856.053	72.7
856.228	82.94
856.403	21.5
856.577	121.85
856.752	15.36
856.926	33.79
857.101	64.51
857.276	74.75
857.45	89.09
857.625	91.13
857.799	74.75
857.974	70.65
858.148	11.26
858.323	-9.22
858.497	52.22
858.672	-7.17
858.846	25.6
859.02	87.04
859.195	54.27
859.369	60.42
859.543	33.79
859.718	29.7
859.892	54.27
860.066	-3.07
860.241	56.32
860.415	-31.74
860.589	-7.17
860.763	50.18
860.938	46.08
861.112	60.42
861.286	-68.61
861.46	93.18
861.634	-11.26
861.808	76.8
861.982	17.41
862.157	101.37
862.331	-9.22
862.505	56.32
862.679	41.98
862.853	-15.36
863.027	-27.65
863.201	66.56
863.375	-19.46
863.549	-35.84
863.722	46.08
863.896	68.61
864.07	-23.55
864.244	46.08
864.418	66.56
864.592	-33.79
864.766	35.84
864.939	37.89
865.113	-15.36
865.287	7.17
865.461	-19.46
865.634	78.85
865.808	87.04
865.982	-3.07
866.156	13.31
866.329	44.03
866.503	56.32
866.676	37.89
866.85	46.08
867.024	-50.18
867.197	31.74
867.371	82.94
867.544	-11.26
867.718	37.89
867.891	62.46
868.065	54.27
868.238	70.65
868.412	80.89
868.585	56.32
868.759	-3.07
868.932	78.85
869.105	37.89
869.279	46.08
869.452	-11.26
869.625	5.12
869.799	54.27
869.972	37.89
870.145	25.6
870.319	95.23
870.492	5.12
870.665	25.6
870.838	-1.02
871.011	-97.28
871.185	9.22
871.358	-19.46
871.531	72.7
871.704	70.65
871.877	52.22
872.05	23.55
872.223	-3.07
872.396	44.03
872.569	37.89
872.742	5.12
872.915	-1.02
873.088	17.41
873.261	-23.55
873.434	74.75
873.607	21.5
873.78	103.42
873.953	64.51
874.126	37.89
874.299	68.61
874.471	56.32
874.644	50.18
874.817	44.03
874.99	99.33
875.163	-58.37
875.335	19.46
875.508	54.27
875.681	144.38
875.853	-1.02
876.026	60.42
876.199	70.65
876.371	15.36
876.544	115.71
876.717	-11.26
876.889	-7.17
877.062	-11.26
877.234	1.02
877.407	-46.08
877.579	-19.46
877.752	103.42
877.924	52.22
878.097	74.75
878.269	-17.41
878.442	21.5
878.614	-31.74
878.786	37.89
878.959	33.79
879.131	56.32
879.303	29.7
879.476	-52.22
879.648	82.94
879.82	113.66
879.993	66.56
880.165	25.6
880.337	-23.55
880.509	31.74
880.681	-19.46
880.854	37.89
881.026	23.55
881.198	185.34
881.37	-27.65
881.542	15.36
881.714	-29.7
881.886	-50.18
882.058	46.08
882.23	72.7
882.402	31.74
882.574	-3.07
882.746	64.51
882.918	156.67
883.09	87.04
883.262	54.27
883.434	19.46
883.606	-72.7
883.778	62.46
883.95	144.38
884.122	-11.26
884.293	56.32
884.465	48.13
884.637	13.31
884.809	23.55
884.98	46.08
885.152	66.56
885.324	74.75
885.496	-33.79
885.667	70.65
885.839	46.08
886.011	113.66
886.182	27.65
886.354	21.5
886.525	54.27
886.697	31.74
886.869	-27.65
887.04	-15.36
887.212	80.89
887.383	99.33
887.555	7.17
887.726	39.94
887.897	70.65
888.069	25.6
888.24	82.94
888.412	-1.02
888.583	-11.26
888.754	80.89
888.926	54.27
889.097	-9.22
889.268	-39.94
889.44	1.02
889.611	-117.76
889.782	72.7
889.953	-109.57
890.125	64.51
890.296	15.36
890.467	25.6
890.638	-33.79
890.809	64.51
890.98	-37.89
891.151	87.04
891.323	80.89
891.494	-27.65
891.665	44.03
891.836	82.94
892.007	56.32
892.178	70.65
892.349	3.07
892.52	-1.02
892.691	41.98
892.862	-52.22
893.032	-52.22
893.203	41.98
893.374	-27.65
893.545	56.32
893.716	27.65
893.887	62.46
894.057	-11.26
894.228	58.37
894.399	31.74
894.57	87.04
894.74	3.07
894.911	29.7
895.082	15.36
895.253	31.74
895.423	5.12
895.594	89.09
895.764	76.8
895.935	-35.84
896.106	101.37
896.276	44.03
896.447	13.31
896.617	13.31
896.788	-37.89
896.958	41.98
897.129	46.08
897.299	-1.02
897.47	76.8
897.64	46.08
897.81	66.56
897.981	-3.07
898.151	-17.41
898.322	72.7
898.492	37.89
898.662	-50.18
898.832	21.5
899.003	66.56
899.173	80.89
899.343	5.12
899.513	3.07
