Data from USB4F104151__234__14-34-03-137.txt Node

Date: Thu Mar 13 14:34:03 EDT 2025
User: louis
Spectrometer: USB4F10415
Trigger mode: 4
Integration Time (sec): 2.500000E-2
Scans to average: 1
Electric dark correction enabled: true
Nonlinearity correction enabled: false
Boxcar width: 0
XAxis mode: Wavelengths
Number of Pixels in Spectrum: 3648
>>>>>Begin Spectral Data<<<<<
178.204	-178.86
178.424	-178.86
178.644	-178.86
178.864	-115.37
179.084	-154.28
179.304	-47.79
179.524	-25.26
179.744	-49.83
179.964	17.75
180.184	7.51
180.404	-2.73
180.624	17.75
180.844	62.8
181.064	38.23
181.283	-25.26
181.503	27.99
181.723	-21.16
181.943	-82.6
182.163	40.28
182.383	23.89
182.602	32.08
182.822	93.52
183.042	17.75
183.262	50.52
183.482	-25.26
183.701	56.66
183.921	64.85
184.141	-17.07
184.361	132.44
184.58	-25.26
184.8	73.04
185.02	-8.87
185.239	48.47
185.459	36.18
185.679	89.43
185.898	23.89
186.118	46.42
186.338	7.51
186.557	32.08
186.777	19.8
186.997	15.7
187.216	48.47
187.436	56.66
187.655	40.28
187.875	114
188.095	34.13
188.314	42.32
188.534	77.14
188.753	11.61
188.973	56.66
189.192	77.14
189.412	36.18
189.631	23.89
189.851	32.08
190.07	138.58
190.29	-58.03
190.509	42.32
190.729	73.04
190.948	13.65
191.168	173.39
191.387	64.85
191.607	-8.87
191.826	81.24
192.045	-19.11
192.265	48.47
192.484	-6.83
192.704	30.04
192.923	-2.73
193.142	89.43
193.362	58.71
193.581	109.91
193.8	73.04
194.02	44.37
194.239	83.28
194.458	7.51
194.678	-8.87
194.897	-0.68
195.116	9.56
195.335	3.41
195.555	30.04
195.774	81.24
195.993	48.47
196.212	97.62
196.432	32.08
196.651	99.67
196.87	44.37
197.089	73.04
197.308	73.04
197.528	11.61
197.747	3.41
197.966	36.18
198.185	75.09
198.404	83.28
198.623	68.95
198.842	89.43
199.062	66.9
199.281	77.14
199.5	32.08
199.719	-0.68
199.938	58.71
200.157	58.71
200.376	19.8
200.595	46.42
200.814	17.75
201.033	32.08
201.252	136.53
201.471	71
201.69	56.66
201.909	9.56
202.128	83.28
202.347	89.43
202.566	99.67
202.785	-0.68
203.004	-8.87
203.223	116.05
203.442	73.04
203.661	-47.79
203.879	46.42
204.098	-15.02
204.317	32.08
204.536	75.09
204.755	-6.83
204.974	-25.26
205.193	56.66
205.411	54.61
205.63	48.47
205.849	-58.03
206.068	-8.87
206.287	11.61
206.505	1.37
206.724	27.99
206.943	3.41
207.162	52.56
207.381	32.08
207.599	66.9
207.818	-23.21
208.037	48.47
208.255	40.28
208.474	-33.45
208.693	-58.03
208.911	1.37
209.13	-6.83
209.349	7.51
209.567	27.99
209.786	50.52
210.005	-33.45
210.223	83.28
210.442	-29.35
210.661	68.95
210.879	40.28
211.098	-0.68
211.316	27.99
211.535	46.42
211.753	83.28
211.972	44.37
212.191	-0.68
212.409	126.29
212.628	62.8
212.846	-60.07
213.065	52.56
213.283	118.1
213.502	87.38
213.72	40.28
213.938	-4.78
214.157	50.52
214.375	48.47
214.594	64.85
214.812	15.7
215.031	52.56
215.249	-37.55
215.467	75.09
215.686	50.52
215.904	130.39
216.122	23.89
216.341	130.39
216.559	105.81
216.778	3.41
216.996	85.33
217.214	-0.68
217.432	40.28
217.651	73.04
217.869	66.9
218.087	40.28
218.306	27.99
218.524	27.99
218.742	-27.31
218.96	118.1
219.179	-12.97
219.397	15.7
219.615	97.62
219.833	73.04
220.051	11.61
220.27	36.18
220.488	48.47
220.706	48.47
220.924	-70.31
221.142	64.85
221.36	64.85
221.578	19.8
221.796	134.48
222.015	40.28
222.233	68.95
222.451	73.04
222.669	15.7
222.887	75.09
223.105	-31.4
223.323	15.7
223.541	3.41
223.759	7.51
223.977	-27.31
224.195	64.85
224.413	17.75
224.631	48.47
224.849	-37.55
225.067	103.76
225.285	-33.45
225.503	34.13
225.721	7.51
225.939	-23.21
226.157	40.28
226.375	191.83
226.592	-17.07
226.81	64.85
227.028	89.43
227.246	64.85
227.464	79.19
227.682	1.37
227.9	103.76
228.117	15.7
228.335	-35.5
228.553	58.71
228.771	144.72
228.989	34.13
229.206	60.76
229.424	15.7
229.642	66.9
229.86	7.51
230.077	68.95
230.295	105.81
230.513	154.96
230.731	79.19
230.948	-15.02
231.166	75.09
231.384	-2.73
231.601	3.41
231.819	56.66
232.037	58.71
232.254	-8.87
232.472	-33.45
232.689	40.28
232.907	7.51
233.125	27.99
233.342	-25.26
233.56	-2.73
233.777	-6.83
233.995	-2.73
234.213	73.04
234.43	25.94
234.648	32.08
234.865	17.75
235.083	89.43
235.3	66.9
235.518	15.7
235.735	62.8
235.953	56.66
236.17	97.62
236.388	-2.73
236.605	87.38
236.822	42.32
237.04	-12.97
237.257	-47.79
237.475	-6.83
237.692	58.71
237.909	23.89
238.127	7.51
238.344	83.28
238.562	25.94
238.779	42.32
238.996	-39.59
239.214	-10.92
239.431	126.29
239.648	21.85
239.865	97.62
240.083	64.85
240.3	56.66
240.517	40.28
240.735	64.85
240.952	73.04
241.169	146.77
241.386	50.52
241.603	44.37
241.821	-19.11
242.038	58.71
242.255	46.42
242.472	25.94
242.689	122.2
242.907	-31.4
243.124	73.04
243.341	64.85
243.558	1.37
243.775	-33.45
243.992	1.37
244.209	83.28
244.426	71
244.643	64.85
244.86	40.28
245.078	62.8
245.295	23.89
245.512	23.89
245.729	25.94
245.946	44.37
246.163	34.13
246.38	23.89
246.597	-49.83
246.814	50.52
247.031	40.28
247.248	17.75
247.464	36.18
247.681	15.7
247.898	85.33
248.115	19.8
248.332	23.89
248.549	60.76
248.766	50.52
248.983	93.52
249.2	40.28
249.417	7.51
249.633	46.42
249.85	73.04
250.067	60.76
250.284	17.75
250.501	54.61
250.717	40.28
250.934	66.9
251.151	44.37
251.368	19.8
251.585	52.56
251.801	50.52
252.018	7.51
252.235	81.24
252.451	-62.12
252.668	40.28
252.885	64.85
253.102	52.56
253.318	-12.97
253.535	60.76
253.752	44.37
253.968	15.7
254.185	73.04
254.401	-17.07
254.618	11.61
254.835	27.99
255.051	89.43
255.268	56.66
255.484	73.04
255.701	23.89
255.917	122.2
256.134	7.51
256.351	48.47
256.567	-8.87
256.784	52.56
257	7.51
257.217	46.42
257.433	46.42
257.65	126.29
257.866	58.71
258.082	50.52
258.299	30.04
258.515	-8.87
258.732	-8.87
258.948	-23.21
259.165	42.32
259.381	89.43
259.597	77.14
259.814	-37.55
260.03	50.52
260.246	81.24
260.463	58.71
260.679	105.81
260.895	32.08
261.112	27.99
261.328	54.61
261.544	50.52
261.761	50.52
261.977	-31.4
262.193	-8.87
262.409	32.08
262.626	-6.83
262.842	56.66
263.058	15.7
263.274	36.18
263.49	19.8
263.707	75.09
263.923	93.52
264.139	3.41
264.355	66.9
264.571	138.58
264.787	23.89
265.004	25.94
265.22	60.76
265.436	83.28
265.652	9.56
265.868	40.28
266.084	5.46
266.3	-6.83
266.516	-37.55
266.732	-15.02
266.948	60.76
267.164	50.52
267.38	19.8
267.596	11.61
267.812	25.94
268.028	17.75
268.244	40.28
268.46	7.51
268.676	-25.26
268.892	77.14
269.108	23.89
269.324	9.56
269.54	7.51
269.756	44.37
269.972	11.61
270.188	32.08
270.403	42.32
270.619	56.66
270.835	-6.83
271.051	40.28
271.267	40.28
271.483	50.52
271.698	11.61
271.914	40.28
272.13	9.56
272.346	7.51
272.562	111.96
272.777	128.34
272.993	27.99
273.209	32.08
273.425	30.04
273.64	93.52
273.856	64.85
274.072	44.37
274.287	1.37
274.503	48.47
274.719	81.24
274.934	81.24
275.15	-6.83
275.366	40.28
275.581	-8.87
275.797	7.51
276.012	83.28
276.228	-29.35
276.444	-4.78
276.659	1.37
276.875	-4.78
277.09	64.85
277.306	50.52
277.521	167.25
277.737	-25.26
277.952	89.43
278.168	50.52
278.383	103.76
278.599	75.09
278.814	50.52
279.03	58.71
279.245	75.09
279.461	68.95
279.676	13.65
279.892	-4.78
280.107	-17.07
280.322	58.71
280.538	56.66
280.753	21.85
280.969	118.1
281.184	48.47
281.399	73.04
281.615	25.94
281.83	32.08
282.045	32.08
282.26	17.75
282.476	46.42
282.691	27.99
282.906	13.65
283.122	89.43
283.337	-21.16
283.552	7.51
283.767	-0.68
283.983	87.38
284.198	83.28
284.413	85.33
284.628	19.8
284.843	50.52
285.058	-4.78
285.274	81.24
285.489	52.56
285.704	60.76
285.919	-33.45
286.134	40.28
286.349	77.14
286.564	73.04
286.779	13.65
286.995	40.28
287.21	-29.35
287.425	95.57
287.64	-15.02
287.855	66.9
288.07	-17.07
288.285	56.66
288.5	83.28
288.715	23.89
288.93	44.37
289.145	32.08
289.36	122.2
289.575	25.94
289.79	25.94
290.004	73.04
290.219	81.24
290.434	46.42
290.649	1.37
290.864	3.41
291.079	15.7
291.294	75.09
291.509	19.8
291.724	-37.55
291.938	23.89
292.153	7.51
292.368	50.52
292.583	-8.87
292.798	95.57
293.012	52.56
293.227	99.67
293.442	-15.02
293.657	91.48
293.871	32.08
294.086	132.44
294.301	60.76
294.516	122.2
294.73	73.04
294.945	52.56
295.16	-8.87
295.374	101.72
295.589	95.57
295.804	-2.73
296.018	58.71
296.233	56.66
296.447	66.9
296.662	-33.45
296.877	89.43
297.091	17.75
297.306	40.28
297.52	58.71
297.735	81.24
297.949	30.04
298.164	-0.68
298.378	44.37
298.593	-64.17
298.807	60.76
299.022	73.04
299.236	40.28
299.451	52.56
299.665	23.89
299.88	66.9
300.094	23.89
300.309	17.75
300.523	9.56
300.737	13.65
300.952	21.85
301.166	99.67
301.381	-6.83
301.595	99.67
301.809	68.95
302.024	32.08
302.238	56.66
302.452	17.75
302.667	81.24
302.881	56.66
303.095	27.99
303.309	11.61
303.524	-29.35
303.738	-6.83
303.952	-10.92
304.166	1.37
304.381	-47.79
304.595	48.47
304.809	-4.78
305.023	34.13
305.237	64.85
305.452	11.61
305.666	116.05
305.88	68.95
306.094	25.94
306.308	64.85
306.522	64.85
306.736	56.66
306.95	48.47
307.164	-33.45
307.379	19.8
307.593	52.56
307.807	52.56
308.021	60.76
308.235	-2.73
308.449	64.85
308.663	40.28
308.877	85.33
309.091	75.09
309.305	81.24
309.519	-25.26
309.733	64.85
309.947	73.04
310.161	15.7
310.374	-2.73
310.588	114
310.802	97.62
311.016	5.46
311.23	48.47
311.444	-6.83
311.658	66.9
311.872	132.44
312.085	105.81
312.299	126.29
312.513	107.86
312.727	116.05
312.941	-27.31
313.154	75.09
313.368	60.76
313.582	105.81
313.796	9.56
314.009	56.66
314.223	73.04
314.437	36.18
314.651	56.66
314.864	44.37
315.078	25.94
315.292	23.89
315.505	73.04
315.719	83.28
315.933	-39.59
316.146	17.75
316.36	27.99
316.573	81.24
316.787	91.48
317.001	34.13
317.214	7.51
317.428	34.13
317.641	48.47
317.855	-10.92
318.068	-6.83
318.282	40.28
318.495	71
318.709	25.94
318.922	11.61
319.136	64.85
319.349	77.14
319.563	105.81
319.776	105.81
319.99	66.9
320.203	56.66
320.417	68.95
320.63	32.08
320.843	64.85
321.057	40.28
321.27	23.89
321.483	46.42
321.697	60.76
321.91	52.56
322.124	48.47
322.337	48.47
322.55	-4.78
322.763	52.56
322.977	75.09
323.19	-0.68
323.403	23.89
323.617	17.75
323.83	101.72
324.043	19.8
324.256	23.89
324.469	58.71
324.683	71
324.896	25.94
325.109	36.18
325.322	50.52
325.535	30.04
325.748	101.72
325.962	-21.16
326.175	83.28
326.388	130.39
326.601	85.33
326.814	81.24
327.027	58.71
327.24	116.05
327.453	36.18
327.666	142.68
327.879	83.28
328.092	138.58
328.305	142.68
328.518	58.71
328.731	-31.4
328.944	77.14
329.157	77.14
329.37	56.66
329.583	157.01
329.796	118.1
330.009	56.66
330.222	58.71
330.435	101.72
330.648	64.85
330.861	62.8
331.073	46.42
331.286	44.37
331.499	107.86
331.712	30.04
331.925	7.51
332.138	-23.21
332.35	-0.68
332.563	68.95
332.776	17.75
332.989	81.24
333.202	54.61
333.414	77.14
333.627	48.47
333.84	32.08
334.053	66.9
334.265	48.47
334.478	-6.83
334.691	-39.59
334.903	15.7
335.116	68.95
335.329	-43.69
335.541	-2.73
335.754	114
335.966	68.95
336.179	52.56
336.392	52.56
336.604	15.7
336.817	64.85
337.029	1.37
337.242	11.61
337.454	64.85
337.667	60.76
337.88	114
338.092	73.04
338.305	181.59
338.517	64.85
338.729	44.37
338.942	99.67
339.154	-25.26
339.367	25.94
339.579	32.08
339.792	25.94
340.004	130.39
340.217	-31.4
340.429	44.37
340.641	25.94
340.854	60.76
341.066	25.94
341.278	118.1
341.491	68.95
341.703	83.28
341.915	-29.35
342.128	68.95
342.34	56.66
342.552	1.37
342.764	32.08
342.977	58.71
343.189	44.37
343.401	48.47
343.613	73.04
343.826	138.58
344.038	46.42
344.25	105.81
344.462	34.13
344.674	52.56
344.886	32.08
345.099	81.24
345.311	32.08
345.523	89.43
345.735	23.89
345.947	73.04
346.159	42.32
346.371	60.76
346.583	32.08
346.795	122.2
347.007	32.08
347.219	81.24
347.431	1.37
347.643	97.62
347.855	32.08
348.067	130.39
348.279	9.56
348.491	89.43
348.703	77.14
348.915	19.8
349.127	15.7
349.339	38.23
349.551	42.32
349.763	79.19
349.975	34.13
350.187	73.04
350.399	79.19
350.61	89.43
350.822	73.04
351.034	42.32
351.246	91.48
351.458	54.61
351.669	-37.55
351.881	54.61
352.093	17.75
352.305	101.72
352.517	48.47
352.728	134.48
352.94	40.28
353.152	150.87
353.363	60.76
353.575	150.87
353.787	77.14
353.999	105.81
354.21	154.96
354.422	48.47
354.633	15.7
354.845	-0.68
355.057	114
355.268	134.48
355.48	56.66
355.692	-0.68
355.903	64.85
356.115	62.8
356.326	15.7
356.538	114
356.749	118.1
356.961	114
357.172	60.76
357.384	-17.07
357.595	40.28
357.807	-17.07
358.018	30.04
358.23	27.99
358.441	130.39
358.653	89.43
358.864	93.52
359.075	48.47
359.287	-2.73
359.498	83.28
359.709	32.08
359.921	7.51
360.132	89.43
360.344	17.75
360.555	3.41
360.766	77.14
360.977	7.51
361.189	64.85
361.4	36.18
361.611	44.37
361.823	44.37
362.034	109.91
362.245	44.37
362.456	77.14
362.667	73.04
362.879	44.37
363.09	128.34
363.301	66.9
363.512	60.76
363.723	68.95
363.935	56.66
364.146	23.89
364.357	68.95
364.568	83.28
364.779	62.8
364.99	105.81
365.201	44.37
365.412	25.94
365.623	9.56
365.834	114
366.045	46.42
366.256	15.7
366.467	64.85
366.678	87.38
366.889	89.43
367.1	25.94
367.311	83.28
367.522	46.42
367.733	144.72
367.944	73.04
368.155	-17.07
368.366	42.32
368.577	91.48
368.788	56.66
368.999	64.85
369.209	-8.87
369.42	97.62
369.631	105.81
369.842	107.86
370.053	101.72
370.264	32.08
370.474	-45.74
370.685	89.43
370.896	48.47
371.107	138.58
371.317	77.14
371.528	25.94
371.739	116.05
371.95	73.04
372.16	66.9
372.371	99.67
372.582	30.04
372.792	85.33
373.003	34.13
373.214	81.24
373.424	114
373.635	15.7
373.846	64.85
374.056	118.1
374.267	48.47
374.477	11.61
374.688	64.85
374.898	105.81
375.109	83.28
375.319	27.99
375.53	81.24
375.74	140.63
375.951	-23.21
376.161	66.9
376.372	179.54
376.582	30.04
376.793	109.91
377.003	36.18
377.214	77.14
377.424	81.24
377.635	66.9
377.845	36.18
378.055	146.77
378.266	5.46
378.476	97.62
378.686	64.85
378.897	66.9
379.107	46.42
379.317	130.39
379.528	44.37
379.738	89.43
379.948	27.99
380.158	114
380.369	48.47
380.579	130.39
380.789	118.1
380.999	95.57
381.21	64.85
381.42	165.2
381.63	27.99
381.84	64.85
382.05	15.7
382.261	114
382.471	56.66
382.681	81.24
382.891	68.95
383.101	105.81
383.311	17.75
383.521	44.37
383.731	97.62
383.941	83.28
384.151	40.28
384.361	66.9
384.571	-23.21
384.781	124.24
384.991	126.29
385.201	148.82
385.411	56.66
385.621	42.32
385.831	48.47
386.041	44.37
386.251	5.46
386.461	77.14
386.671	130.39
386.881	93.52
387.091	58.71
387.301	154.96
387.511	64.85
387.72	11.61
387.93	109.91
388.14	48.47
388.35	34.13
388.56	111.96
388.769	122.2
388.979	66.9
389.189	-0.68
389.399	85.33
389.609	50.52
389.818	150.87
390.028	85.33
390.238	64.85
390.447	73.04
390.657	132.44
390.867	9.56
391.076	81.24
391.286	85.33
391.496	60.76
391.705	73.04
391.915	62.8
392.125	101.72
392.334	66.9
392.544	146.77
392.753	118.1
392.963	56.66
393.172	114
393.382	52.56
393.591	183.63
393.801	136.53
394.01	116.05
394.22	64.85
394.429	-0.68
394.639	-8.87
394.848	114
395.058	89.43
395.267	42.32
395.477	62.8
395.686	87.38
395.895	118.1
396.105	154.96
396.314	68.95
396.524	109.91
396.733	97.62
396.942	148.82
397.152	122.2
397.361	101.72
397.57	195.92
397.78	105.81
397.989	154.96
398.198	189.78
398.407	122.2
398.617	81.24
398.826	189.78
399.035	132.44
399.244	152.92
399.453	171.35
399.663	122.2
399.872	136.53
400.081	79.19
400.29	200.02
400.499	56.66
400.708	159.06
400.917	91.48
401.127	195.92
401.336	101.72
401.545	173.39
401.754	171.35
401.963	181.59
402.172	105.81
402.381	66.9
402.59	140.63
402.799	138.58
403.008	249.17
403.217	146.77
403.426	142.68
403.635	140.63
403.844	154.96
404.053	154.96
404.262	148.82
404.471	208.21
404.68	171.35
404.888	124.24
405.097	154.96
405.306	183.63
405.515	216.4
405.724	183.63
405.933	234.83
406.142	173.39
406.35	212.31
406.559	181.59
406.768	193.87
406.977	216.4
407.185	189.78
407.394	261.46
407.603	200.02
407.812	253.27
408.02	326.99
408.229	279.89
408.438	302.42
408.646	337.23
408.855	286.03
409.064	283.99
409.272	245.07
409.481	347.47
409.69	326.99
409.898	419.15
410.107	408.91
410.315	335.18
410.524	376.14
410.733	400.72
410.941	398.67
411.15	468.3
411.358	378.19
411.567	597.32
411.775	507.21
411.984	386.38
412.192	515.41
412.401	572.75
412.609	591.18
412.818	654.67
413.026	599.37
413.234	628.04
413.443	582.99
413.651	656.72
413.86	646.48
414.068	736.59
414.276	763.21
414.485	744.78
414.693	816.46
414.901	802.12
415.11	859.46
415.318	804.17
415.526	925
415.734	1000.77
415.943	939.34
416.151	1023.3
416.359	933.19
416.567	1045.83
416.776	1109.32
416.984	1146.18
417.192	1207.62
417.4	1215.81
417.608	1181
417.817	1260.87
418.025	1256.77
418.233	1391.94
418.441	1416.51
418.649	1441.09
418.857	1551.68
419.065	1672.51
419.273	1469.76
419.481	1598.78
419.689	1697.08
419.897	1764.67
420.105	1785.15
420.313	1903.93
420.521	1828.15
420.729	2035
420.937	2110.77
421.145	2178.36
421.353	2295.09
421.561	2256.18
421.769	2360.63
421.977	2383.15
422.185	2430.26
422.393	2598.19
422.601	2649.39
422.809	2751.79
423.017	2792.75
423.224	2878.76
423.432	2889
423.64	3026.22
423.848	3241.25
424.056	3216.68
424.263	3235.11
424.471	3435.81
424.679	3448.1
424.887	3714.33
425.094	3710.24
425.302	3665.18
425.51	3929.37
425.718	4136.21
425.925	4113.69
426.133	4300.05
426.341	4480.27
426.548	4662.54
426.756	4805.9
426.964	4777.23
427.171	4928.78
427.379	5012.74
427.586	5258.5
427.794	5303.56
428.001	5528.83
428.209	5922.04
428.417	5700.86
428.624	6173.94
428.832	5997.82
429.039	6155.51
429.247	6061.3
429.454	6571.25
429.662	7185.64
429.869	6634.74
430.076	7152.87
430.284	6999.27
430.491	7226.6
430.699	7785.69
430.906	7679.2
431.114	7654.62
431.321	7947.48
431.528	8197.34
431.736	8529.11
431.943	9274.57
432.15	8803.53
432.358	8959.18
432.565	9448.65
432.772	9542.85
432.979	9874.62
433.187	10108.09
433.394	10052.8
433.601	10788.02
433.808	10681.52
434.016	10665.14
434.223	11134.12
434.43	11904.16
434.637	11533.48
434.844	12401.82
435.052	12530.84
435.259	12319.9
435.466	12651.67
435.673	12424.34
435.88	13227.15
436.087	13986.94
436.294	13847.68
436.501	13597.83
436.708	13958.27
436.915	14179.45
437.122	14978.16
437.329	14953.59
437.537	15510.63
437.743	15492.2
437.95	15717.48
438.157	16278.62
438.364	16858.2
438.571	16968.79
438.778	16946.26
438.985	18553.91
439.192	17835.08
439.399	18232.38
439.606	18003.01
439.813	18746.42
440.02	20194.34
440.227	19690.54
440.433	19528.75
440.64	20112.42
440.847	19938.34
441.054	20431.9
441.261	21879.82
441.467	21654.54
441.674	22244.35
441.881	22858.74
442.088	22727.67
442.294	22518.78
442.501	22739.96
442.708	23446.51
442.914	24368.1
443.121	25437.14
443.328	24601.57
443.534	26295.24
443.741	25844.68
443.948	25414.61
444.154	27343.8
444.361	26956.73
444.568	27143.1
444.774	27095.99
444.981	27792.3
445.187	27906.99
445.394	29164.44
445.6	29029.27
445.807	31947.63
446.013	30718.85
446.22	31239.03
446.426	32480.1
446.633	32551.78
446.839	33753.94
447.046	32224.11
447.252	33731.41
447.459	34165.58
447.665	34061.13
447.871	35547.96
448.078	36864.8
448.284	34995.01
448.491	36227.88
448.697	37403.42
448.903	37976.85
449.11	38386.44
449.316	37563.16
449.522	38710.02
449.728	39211.77
449.935	39564.03
450.141	39451.39
450.347	40336.11
450.553	39062.27
450.76	39750.39
450.966	40852.2
451.172	40473.32
451.378	41724.63
451.584	40944.36
451.791	41872.09
451.997	41433.82
452.203	42175.19
452.409	41974.48
452.615	41925.33
452.821	40178.42
453.027	39957.24
453.233	41839.32
453.44	40159.98
453.646	40624.87
453.852	40735.46
454.058	41716.44
454.264	40379.12
454.47	41243.36
454.676	40207.09
454.882	41700.06
455.088	37931.79
455.294	38505.23
455.5	39125.76
455.705	39174.91
455.911	37817.11
456.117	37022.5
456.323	36563.75
456.529	34747.2
456.735	36199.21
456.941	35291.96
457.147	34476.87
457.352	33631.06
457.558	33315.67
457.764	33708.88
457.97	32856.93
458.176	32160.62
458.381	31939.44
458.587	30350.21
458.793	30428.04
458.999	28754.85
459.204	30956.41
459.41	29897.61
459.616	27761.58
459.821	27890.6
460.027	27751.34
460.233	27358.13
460.438	26014.66
460.644	26276.8
460.85	24828.89
461.055	24824.79
461.261	24474.59
461.466	22750.2
461.672	22209.54
461.878	23679.98
462.083	22189.06
462.289	21625.87
462.494	21459.98
462.7	20513.82
462.905	19981.35
463.111	20546.59
463.316	20589.6
463.522	20212.77
463.727	20155.43
463.932	20167.71
464.138	19866.66
464.343	20093.99
464.549	19268.66
464.754	19735.59
464.959	19833.89
465.165	19604.52
465.37	18902.07
465.575	18291.77
465.781	19063.86
465.986	19125.3
466.191	18328.64
466.397	18263.1
466.602	17130.58
466.807	17976.39
467.012	17925.19
467.218	17841.22
467.423	17693.77
467.628	17781.83
467.833	18512.95
468.038	17429.58
468.244	17255.5
468.449	17804.36
468.654	17339.47
468.859	16630.87
469.064	17265.74
469.269	16374.88
469.474	16604.25
469.679	16702.55
469.885	16282.72
470.09	16690.26
470.295	16172.13
470.5	16155.74
470.705	16458.84
470.91	15373.42
471.115	15584.36
471.32	15916.13
471.525	15713.38
471.73	15379.56
471.935	15359.08
472.139	14943.35
472.344	14945.39
472.549	14822.52
472.754	14740.6
472.959	14169.21
473.164	14210.17
473.369	13841.54
473.574	14261.37
473.778	14097.53
473.983	13984.9
474.188	14216.32
474.393	13417.61
474.598	13522.06
474.802	13368.46
475.007	13053.07
475.212	13169.8
475.417	12827.79
475.621	12655.76
475.826	12549.27
476.031	12543.13
476.235	12399.77
476.44	12590.23
476.645	12510.36
476.849	12024.99
477.054	11936.93
477.259	11902.11
477.463	11973.79
477.668	11525.29
477.872	11926.69
478.077	11525.29
478.282	11312.3
478.486	11209.9
478.691	11205.8
478.895	11234.47
479.1	11062.44
479.304	11170.99
479.509	10740.91
479.713	11052.2
479.918	10861.74
480.122	10685.62
480.326	10771.63
480.531	10656.95
480.735	10624.18
480.94	10284.22
481.144	10878.13
481.348	10169.53
481.553	10480.82
481.757	10128.57
481.961	10433.72
482.166	10509.49
482.37	10396.85
482.574	10022.08
482.778	10271.93
482.983	10312.89
483.187	10331.32
483.391	10298.55
483.595	10173.63
483.8	10122.43
484.004	10312.89
484.208	10364.09
484.412	10298.55
484.616	10329.27
484.821	10247.35
485.025	10165.43
485.229	10255.54
485.433	10173.63
485.637	10020.03
485.841	9999.55
486.045	9907.39
486.249	10126.52
486.453	10095.8
486.657	10233.02
486.861	10050.75
487.065	9987.26
487.269	10079.42
487.473	9856.19
487.677	10142.91
487.881	10243.26
488.085	10200.25
488.289	10142.91
488.493	9897.15
488.697	10257.59
488.901	10173.63
489.105	10341.56
489.309	10128.57
489.512	10282.17
489.716	10247.35
489.92	10122.43
490.124	10284.22
490.328	10280.12
490.531	10263.74
490.735	10378.42
490.939	10484.92
491.143	10396.85
491.346	10267.83
491.55	10353.85
491.754	10466.49
491.958	10462.39
492.161	10509.49
492.365	10536.12
492.569	10376.38
492.772	10871.98
492.976	10560.69
493.18	10808.5
493.383	10806.45
493.587	10673.33
493.79	11146.41
493.994	10702
494.197	10984.62
494.401	11125.93
494.605	11029.68
494.808	11340.97
495.012	11238.57
495.215	11271.34
495.419	11408.55
495.622	11082.92
495.825	11469.99
496.029	11687.08
496.232	11672.74
496.436	11697.31
496.639	11967.65
496.843	11877.54
497.046	12098.72
497.249	12211.35
497.453	12237.98
497.656	12543.13
497.859	12274.84
498.063	12532.89
498.266	12653.72
498.469	12840.08
498.673	12831.89
498.876	12944.53
499.079	13241.48
499.282	13100.17
499.485	13284.49
499.689	13532.29
499.892	13673.6
500.095	13655.17
500.298	13995.14
500.501	13724.8
500.705	14445.69
500.908	14232.7
501.111	14500.98
501.314	14390.39
501.517	14759.03
501.72	14869.62
501.923	14906.48
502.126	15119.47
502.329	15688.81
502.532	15469.67
502.735	15567.98
502.938	15955.04
503.141	15977.57
503.344	16129.12
503.547	16075.87
503.75	16260.19
503.953	16436.31
504.156	16696.41
504.359	16860.24
504.562	17116.24
504.765	17474.63
504.968	17466.44
505.17	17628.23
505.373	17538.12
505.576	17941.57
505.779	17966.15
505.982	18455.61
506.185	18637.88
506.387	18607.16
506.59	18680.89
506.793	18938.93
506.996	19072.05
507.198	19516.46
507.401	19153.97
507.604	19645.48
507.807	20235.3
508.009	20319.26
508.212	20143.14
508.415	20571.16
508.617	20722.71
508.82	20757.53
509.022	20714.52
509.225	21507.09
509.428	21376.02
509.63	21419.02
509.833	21718.03
510.035	22273.03
510.238	22070.28
510.44	22387.71
510.643	22699
510.845	22615.04
511.048	23004.15
511.25	23118.84
511.453	23575.53
511.655	24071.14
511.858	23942.12
512.06	24093.67
512.262	24275.94
512.465	24390.63
512.667	24937.43
512.87	25054.17
513.072	25021.4
513.274	25215.96
513.477	25738.19
513.679	25822.16
513.881	26182.6
514.084	26424.26
514.286	26475.46
514.488	26876.86
514.69	27268.02
514.893	27323.32
515.095	27106.23
515.297	27835.31
515.499	27714.48
515.701	28042.15
515.904	28332.97
516.106	28554.15
516.308	28709.79
516.51	29211.54
516.712	29227.93
516.914	29465.49
517.116	29924.24
517.318	29725.58
517.52	30092.17
517.722	30024.59
517.925	30780.29
518.127	30806.91
518.329	30950.27
518.531	30811.01
518.733	31527.8
518.935	31824.75
519.136	31533.94
519.338	32058.22
519.54	32291.69
519.742	32609.12
519.944	32629.6
520.146	33041.25
520.348	33297.24
520.55	33276.76
520.752	33366.87
520.954	34034.51
521.155	33706.83
521.357	34206.54
521.559	34198.35
521.761	34206.54
521.963	34569.03
522.164	34818.88
522.366	34935.62
522.568	35199.8
522.77	35210.04
522.971	35734.32
523.173	35425.08
523.375	35756.85
523.576	35521.34
523.778	35945.26
523.98	36318
524.181	36576.04
524.383	36176.69
524.584	36643.62
524.786	36780.84
524.988	36234.03
525.189	36870.95
525.391	37182.24
525.592	36905.76
525.794	37192.48
525.995	37540.63
526.197	37253.92
526.398	37208.86
526.6	37600.02
526.801	37618.46
527.003	37507.86
527.204	37364.51
527.406	37778.2
527.607	37606.17
527.808	38212.37
528.01	37675.8
528.211	38097.68
528.412	38427.4
528.614	38097.68
528.815	37964.56
529.016	38114.06
529.218	37901.07
529.419	38013.71
529.62	38335.24
529.822	38148.88
530.023	38216.46
530.224	37751.57
530.425	38552.33
530.626	37790.48
530.828	37784.34
531.029	38417.16
531.23	37970.71
531.431	37964.56
531.632	38228.75
531.833	38277.9
532.035	38191.89
532.236	38112.02
532.437	37972.75
532.638	37813.01
532.839	38261.52
533.04	38396.68
533.241	37888.79
533.442	38503.18
533.643	38325
533.844	37716.76
534.045	38052.62
534.246	37591.83
534.447	37950.23
534.648	37839.64
534.849	37669.65
535.05	37763.86
535.251	37770
535.451	37692.18
535.652	37636.89
535.853	37583.64
536.054	37727
536.255	37671.7
536.456	37204.77
536.657	38163.21
536.857	37536.54
537.058	37157.66
537.259	37686.04
537.46	37489.43
537.66	37425.95
537.861	37374.75
538.062	37073.7
538.263	37397.27
538.463	37253.92
538.664	37225.25
538.865	36938.53
539.065	37137.18
539.266	36969.25
539.466	37393.18
539.667	36723.49
539.868	37266.2
540.068	36948.77
540.269	36655.91
540.469	37153.57
540.67	36842.28
540.87	36991.78
541.071	37178.14
541.271	37190.43
541.472	36946.72
541.672	36909.86
541.873	36664.1
542.073	36565.8
542.274	37061.41
542.474	36993.82
542.675	36524.84
542.875	37051.17
543.075	36772.64
543.276	36121.39
543.476	37069.6
543.676	36713.25
543.877	36678.44
544.077	36764.45
544.277	36748.07
544.478	36879.14
544.678	36582.18
544.878	36404.01
545.078	36627.24
545.279	36487.98
545.479	36197.16
545.679	36610.85
545.879	36614.95
546.079	36414.25
546.28	36438.83
546.48	36127.53
546.68	36846.37
546.88	36686.63
547.08	36238.12
547.28	36731.68
547.48	36148.01
547.68	36606.76
547.88	36358.95
548.081	36496.17
548.281	36231.98
548.481	36295.47
548.681	36832.04
548.881	36643.62
549.081	36610.85
549.28	36240.17
549.48	36899.62
549.68	36184.88
549.88	37241.63
550.08	36150.06
550.28	36676.39
550.48	36434.73
550.68	36905.76
550.88	36274.99
551.08	36438.83
551.279	36629.29
551.479	36348.71
551.679	36592.42
551.879	36371.24
552.079	36735.78
552.278	36565.8
552.478	36944.67
552.678	36406.06
552.878	36741.92
553.077	36647.72
553.277	36236.08
553.477	37210.91
553.676	36576.04
553.876	36780.84
554.076	36516.65
554.275	36662.05
554.475	36391.72
554.674	36840.23
554.874	36809.51
555.074	36666.15
555.273	36844.32
555.473	37172
555.672	36358.95
555.872	36846.37
556.071	36623.14
556.271	37413.66
556.47	37012.26
556.67	36076.33
556.869	36698.92
557.068	36969.25
557.268	36625.19
557.467	36733.73
557.667	36522.79
557.866	36850.47
558.065	36731.68
558.265	36727.59
558.464	36406.06
558.663	37073.7
558.863	36635.43
559.062	37194.53
559.261	36631.33
559.461	36930.34
559.66	36571.94
559.859	36711.21
560.058	36860.71
560.258	36889.38
560.457	36342.57
560.656	36981.54
560.855	36637.48
561.054	37006.11
561.253	36440.87
561.453	36758.31
561.652	36961.06
561.851	36750.12
562.05	36424.49
562.249	36645.67
562.448	37051.17
562.647	36500.26
562.846	36367.15
563.045	36743.97
563.244	36449.07
563.443	36643.62
563.642	36350.76
563.841	36643.62
564.04	36444.97
564.239	36217.64
564.438	36344.62
564.637	36516.65
564.836	36209.45
565.035	35783.48
565.234	36500.26
565.432	35955.5
565.631	36068.14
565.83	36352.81
566.029	36244.27
566.228	36119.34
566.427	36094.77
566.625	35832.63
566.824	35834.67
567.023	36401.96
567.222	35746.61
567.42	36119.34
567.619	35883.83
567.818	35861.3
568.016	35873.59
568.215	36037.42
568.414	35541.81
568.612	35740.47
568.811	35398.46
569.01	35466.04
569.208	34759.49
569.407	35459.9
569.605	35005.25
569.804	35275.58
570.002	34886.46
570.201	35218.24
570.4	34566.98
570.598	34702.15
570.797	34663.24
570.995	34720.58
571.193	34900.8
571.392	34673.48
571.59	34317.13
571.789	34310.99
571.987	34343.75
572.186	34380.62
572.384	33997.65
572.582	34278.22
572.781	34454.34
572.979	34014.03
573.177	34196.3
573.376	34237.26
573.574	34034.51
573.772	33872.72
573.971	33772.37
574.169	33569.62
574.367	33051.48
574.565	33715.03
574.763	33342.3
574.962	33391.45
575.16	33119.07
575.358	33471.32
575.556	32611.17
575.754	33102.68
575.952	32795.49
576.151	33008.48
576.349	32772.96
576.547	32779.11
576.745	32744.29
576.943	32459.62
577.141	32316.26
577.339	32842.59
577.537	32480.1
577.735	32185.19
577.933	31945.58
578.131	32320.36
578.329	32433
578.527	31806.32
578.725	32131.95
578.923	32109.42
579.121	31597.43
579.319	31982.45
579.516	31892.33
579.714	31343.48
579.912	31628.15
580.11	31323
580.308	31380.34
580.506	31269.75
580.704	31245.18
580.901	30923.65
581.099	31437.69
581.297	30907.26
581.495	31001.47
581.692	31445.88
581.89	30811.01
582.088	31198.07
582.285	30692.22
582.483	31073.15
582.681	30673.79
582.878	30315.4
583.076	30053.26
583.274	30563.2
583.471	30016.4
583.669	30618.5
583.866	30018.44
584.064	30372.74
584.262	30133.13
584.459	29883.28
584.657	29787.02
584.854	30139.27
585.052	29817.74
585.249	30221.19
585.447	29875.09
585.644	29645.71
585.841	29402
586.039	29662.1
586.236	29436.82
586.434	29133.72
586.631	29080.47
586.828	29000.6
587.026	29528.98
587.223	28982.17
587.42	28726.17
587.618	28853.15
587.815	28568.48
588.012	28662.69
588.21	28914.59
588.407	29270.93
588.604	28496.8
588.801	28375.97
588.999	28617.63
589.196	28298.15
589.393	28554.15
589.59	28621.73
589.787	28101.54
589.984	28023.72
590.182	27780.01
590.379	28001.19
590.576	27972.52
590.773	28089.26
590.97	27593.65
591.167	27870.12
591.364	27673.52
591.561	27986.86
591.758	27571.12
591.955	27542.45
592.152	27659.18
592.349	27323.32
592.546	27513.78
592.743	27671.47
592.94	27257.78
593.137	27268.02
593.334	27726.77
593.531	27065.27
593.727	27507.63
593.924	27169.72
594.121	27073.46
594.318	27304.88
594.515	27034.55
594.712	27065.27
594.908	27007.93
595.105	26829.76
595.302	26602.43
595.499	27136.95
595.696	26651.58
595.892	26487.75
596.089	26600.38
596.286	26817.47
596.482	26549.18
596.679	26702.78
596.876	26891.19
597.072	26422.21
597.269	26756.03
597.466	26549.18
597.662	26495.94
597.859	26414.02
598.055	26303.43
598.252	26340.29
598.448	26280.9
598.645	26440.64
598.841	26069.96
599.038	26401.73
599.234	26321.86
599.431	25873.35
599.627	25936.84
599.824	26323.91
600.02	26112.97
600.217	26289.09
600.413	26014.66
600.609	25959.37
600.806	26457.03
601.002	26270.66
601.198	25799.63
601.395	26117.06
601.591	26184.65
601.787	26258.37
601.984	26229.7
602.18	26285
602.376	25889.74
602.572	26022.86
602.769	25940.94
602.965	25856.97
603.161	26266.56
603.357	25809.87
603.553	26299.33
603.75	26330.05
603.946	25992.14
604.142	26115.01
604.338	25861.07
604.534	26037.19
604.73	26035.14
604.926	25793.48
605.122	26194.89
605.318	26205.13
605.514	25899.98
605.71	26141.64
605.906	25844.68
606.102	26033.1
606.298	26250.18
606.494	26371.01
606.69	26426.31
606.886	26203.08
607.082	26037.19
607.278	26098.63
607.474	25840.59
607.67	26311.62
607.866	25979.85
608.062	26399.68
608.257	26237.89
608.453	26387.39
608.649	26600.38
608.845	25818.06
609.041	26196.93
609.236	26565.57
609.432	26428.35
609.628	26549.18
609.824	26336.2
610.019	26282.95
610.215	26235.85
610.411	26684.35
610.606	26538.94
610.802	26651.58
610.998	26561.47
611.193	26385.35
611.389	26250.18
611.584	26223.56
611.78	26629.06
611.976	26753.98
612.171	26706.88
612.367	26622.91
612.562	26852.28
612.758	26338.24
612.953	26229.7
613.149	26694.59
613.344	26321.86
613.539	26860.48
613.735	26809.28
613.93	26696.64
614.126	27042.74
614.321	26706.88
614.517	27009.98
614.712	26821.56
614.907	27268.02
615.103	26436.55
615.298	26792.89
615.493	27106.23
615.688	26655.68
615.884	27401.14
616.079	26405.83
616.274	26858.43
616.47	26749.89
616.665	26895.29
616.86	26588.1
617.055	26596.29
617.25	26577.86
617.445	27032.5
617.641	26477.51
617.836	26762.17
618.031	26516.42
618.226	26428.35
618.421	26516.42
618.616	26571.71
618.811	26309.57
619.006	26495.94
619.201	26106.82
619.396	26164.17
619.591	25940.94
619.786	26110.92
619.981	25754.57
620.176	26493.89
620.371	25916.36
620.566	26076.1
620.761	25582.54
620.956	25625.55
621.151	25660.37
621.346	25711.56
621.541	25232.34
621.735	25883.59
621.93	24957.91
622.125	25361.36
622.32	24892.38
622.515	25197.52
622.709	24613.85
622.904	24792.03
623.099	24478.69
623.294	24828.89
623.488	24382.43
623.683	24755.16
623.878	24028.13
624.072	24433.63
624.267	24435.68
624.462	24077.29
624.656	23942.12
624.851	23755.75
625.046	23636.97
625.24	23731.18
625.435	23401.46
625.629	23772.14
625.824	23288.82
626.018	23460.85
626.213	22746.11
626.407	23122.93
626.602	22719.48
626.796	22787.07
626.991	22793.21
627.185	22533.12
627.38	22420.48
627.574	22365.18
627.768	22150.15
627.963	22025.22
628.157	22062.08
628.352	22008.84
628.546	21718.03
628.74	21933.06
628.935	21310.48
629.129	21421.07
629.323	21546
629.517	21312.53
629.712	21152.79
629.906	21273.62
630.1	20749.34
630.294	20925.46
630.489	20780.06
630.683	20603.93
630.877	20417.57
631.071	20251.68
631.265	20587.55
631.459	20452.38
631.653	20161.57
631.848	20349.98
632.042	19938.34
632.236	20120.61
632.43	19733.54
632.624	19862.57
632.818	19868.71
633.012	19659.82
633.206	19287.09
633.4	19620.91
633.594	19186.74
633.788	19387.44
633.982	19395.63
634.176	19344.43
634.369	19004.47
634.563	18730.04
634.757	18574.39
634.951	18834.49
635.145	18910.26
635.339	18588.73
635.533	18295.87
635.726	18484.28
635.92	18218.05
636.114	18175.04
636.308	17941.57
636.501	18369.6
636.695	17876.04
636.889	17761.35
637.083	17636.42
637.276	17470.54
637.47	17325.13
637.664	17523.79
637.857	17427.53
638.051	17267.79
638.244	17261.65
638.438	17085.52
638.632	17130.58
638.825	17075.28
639.019	16786.52
639.212	16596.06
639.406	16763.99
639.599	16909.4
639.793	16596.06
639.986	16245.85
640.18	16292.96
640.373	16165.98
640.567	15959.14
640.76	15789.16
640.954	15805.54
641.147	15705.19
641.34	15952.99
641.534	15840.36
641.727	15594.6
641.92	15363.18
642.114	15475.82
642.307	15549.54
642.5	15211.63
642.694	15029.36
642.887	14892.15
643.08	15072.37
643.273	15070.32
643.467	14904.43
643.66	14789.75
643.853	14648.44
644.046	14351.48
644.239	14607.48
644.432	14521.46
644.626	14378.11
644.819	14158.97
645.012	14269.56
645.205	14263.42
645.398	13819.01
645.591	13810.82
645.784	13913.22
645.977	13780.1
646.17	13579.4
646.363	13585.54
646.556	13585.54
646.749	13485.19
646.942	13436.04
647.135	13247.63
647.328	13206.67
647.521	13210.76
647.714	12860.56
647.907	13094.03
648.099	12934.29
648.292	12813.46
648.485	12854.42
648.678	12698.77
648.871	12557.46
649.064	12649.62
649.256	12680.34
649.449	12596.37
649.642	12397.72
649.835	12369.05
650.027	12119.2
650.22	12063.9
650.413	12014.75
650.605	11912.35
650.798	11900.06
650.991	11777.19
651.183	11785.38
651.376	11988.13
651.568	11646.12
651.761	11762.85
651.954	11502.76
652.146	11609.25
652.339	11601.06
652.531	11398.31
652.724	11312.3
652.916	11041.96
653.109	11109.55
653.301	11308.2
653.494	11207.85
653.686	11064.49
653.879	11084.97
654.071	10880.18
654.263	10988.72
654.456	10937.52
654.648	10857.65
654.84	10566.84
655.033	10630.32
655.225	10349.75
655.417	10642.61
655.61	10415.29
655.802	10466.49
655.994	10271.93
656.186	10599.6
656.379	10153.15
656.571	10265.78
656.763	10024.12
656.955	10163.39
657.148	10011.84
657.34	10050.75
657.532	9927.87
657.724	9966.78
657.916	9700.55
658.108	9919.68
658.3	9768.13
658.492	9659.59
658.684	9559.24
658.876	9637.06
659.068	9616.58
659.26	9391.3
659.452	9600.19
659.644	9403.59
659.836	9362.63
660.028	9436.36
660.22	9125.07
660.412	9196.74
660.604	9176.27
660.796	9037
660.988	9094.35
661.18	8914.13
661.372	9018.57
661.563	8889.55
661.755	8733.9
661.947	8781.01
662.139	8834.25
662.331	8760.53
662.522	8359.13
662.714	8547.54
662.906	8518.87
663.097	8527.06
663.289	8377.56
663.481	8355.03
663.673	8479.96
663.864	8152.28
664.056	8168.66
664.247	8322.26
664.439	8060.12
664.631	8256.73
664.822	8234.2
665.014	7914.72
665.205	7896.28
665.397	7716.06
665.588	7871.71
665.78	7789.79
665.971	7808.22
666.163	7857.37
666.354	7822.56
666.546	7785.69
666.737	7568.61
666.929	7628
667.12	7677.15
667.311	7615.71
667.503	7625.95
667.694	7599.33
667.885	7275.75
668.077	7447.78
668.268	7273.7
668.459	7312.61
668.651	7331.05
668.842	7363.81
669.033	7193.83
669.224	7337.19
669.416	7380.2
669.607	7032.04
669.798	7064.81
669.989	7056.62
670.18	7023.85
670.371	6708.46
670.563	6794.48
670.754	6882.54
670.945	6800.62
671.136	6954.22
671.327	6939.88
671.518	6939.88
671.709	6757.61
671.9	6896.88
672.091	6827.25
672.282	6790.38
672.473	6595.82
672.664	6774
672.855	6696.18
673.046	6450.42
673.237	6849.77
673.428	6456.56
673.619	6388.98
673.809	6300.92
674	6448.37
674.191	6462.71
674.382	6399.22
674.573	6413.56
674.764	6354.16
674.954	6466.8
675.145	6278.39
675.336	6401.27
675.527	6233.33
675.717	6167.8
675.908	6077.69
676.099	6216.95
676.289	6386.93
676.48	6030.59
676.671	6214.9
676.861	6210.81
677.052	6143.22
677.243	6085.88
677.433	6053.11
677.624	6094.07
677.814	6202.61
678.005	5919.99
678.195	6135.03
678.386	6065.4
678.576	5887.23
678.767	5958.91
678.957	5856.51
679.148	5989.63
679.338	5831.93
679.529	5817.6
679.719	5793.02
679.909	5971.19
680.1	5717.25
680.29	5881.08
680.481	5762.3
680.671	5891.32
680.861	5733.63
681.052	5809.4
681.242	5725.44
681.432	5799.16
681.622	5577.98
681.813	5680.38
682.003	5692.67
682.193	5754.11
682.383	5831.93
682.573	5614.85
682.764	5612.8
682.954	5719.29
683.144	5537.02
683.334	5670.14
683.524	5645.57
683.714	5573.89
683.904	5520.64
684.094	5653.76
684.284	5512.45
684.474	5541.12
684.664	5645.57
684.854	5614.85
685.044	5514.5
685.234	5373.19
685.424	5537.02
685.614	5649.66
685.804	5430.53
685.994	5508.35
686.184	5442.82
686.374	5418.24
686.564	5430.53
686.753	5295.36
686.943	5317.89
687.133	5414.15
687.323	5375.24
687.513	5375.24
687.702	5346.56
687.892	5303.56
688.082	5297.41
688.272	5143.81
688.461	5168.39
688.651	5127.43
688.841	5102.86
689.03	5149.96
689.22	5190.92
689.41	5106.95
689.599	4996.36
689.789	5053.7
689.979	5094.66
690.168	4967.69
690.358	5227.78
690.547	5025.03
690.737	5008.65
690.926	4975.88
691.116	5002.51
691.305	5012.74
691.495	5057.8
691.684	4971.79
691.874	4836.62
692.063	5000.46
692.252	4850.96
692.442	4754.7
692.631	4754.7
692.82	4818.19
693.01	4625.68
693.199	4740.36
693.388	4877.58
693.578	4652.3
693.767	4834.57
693.956	4816.14
694.146	4572.43
694.335	4541.71
694.524	4754.7
694.713	4750.6
694.902	4734.22
695.092	4701.45
695.281	4410.64
695.47	4721.93
695.659	4545.81
695.848	4625.68
696.037	4488.46
696.226	4613.39
696.415	4633.87
696.604	4549.9
696.793	4586.77
696.982	4547.86
697.171	4568.34
697.36	4500.75
697.549	4461.84
697.738	4508.94
697.927	4367.63
698.116	4615.44
698.305	4349.2
698.494	4234.52
698.683	4525.33
698.872	4498.7
699.061	4343.06
699.25	4349.2
699.438	4355.35
699.627	4279.57
699.816	4414.74
700.005	4310.29
700.193	4220.18
700.382	4304.15
700.571	4314.39
700.76	4281.62
700.948	4257.04
701.137	4138.26
701.326	4320.53
701.514	4259.09
701.703	4103.45
701.892	4011.29
702.08	4203.8
702.269	4027.67
702.457	4115.73
702.646	4130.07
702.834	4097.3
703.023	4132.12
703.212	4162.84
703.4	4105.49
703.589	3923.23
703.777	4013.34
703.965	3966.23
704.154	3947.8
704.342	3874.07
704.531	3990.81
704.719	3865.88
704.907	4046.1
705.096	3906.84
705.284	3808.54
705.472	3863.83
705.661	3900.7
705.849	3896.6
706.037	3933.47
706.226	3943.71
706.414	3886.36
706.602	3712.28
706.79	4015.38
706.979	3691.81
707.167	3806.49
707.355	3646.75
707.543	3812.64
707.731	3802.4
707.919	3779.87
708.107	3740.96
708.296	3757.34
708.484	3743
708.672	3632.41
708.86	3616.03
709.048	3560.73
709.236	3661.09
709.424	3618.08
709.612	3638.56
709.8	3511.58
709.988	3523.87
710.176	3573.02
710.364	3669.28
710.551	3550.5
710.739	3554.59
710.927	3427.62
711.115	3495.2
711.303	3607.84
711.491	3435.81
711.679	3542.3
711.866	3558.69
712.054	3554.59
712.242	3423.52
712.43	3638.56
712.617	3292.45
712.805	3372.32
712.993	3366.18
713.181	3263.78
713.368	3462.43
713.556	3423.52
713.744	3308.83
713.931	3362.08
714.119	3357.99
714.306	3302.69
714.494	3411.23
714.682	3224.87
714.869	3216.68
715.057	3271.97
715.244	3237.16
715.432	3329.31
715.619	3337.51
715.807	3220.77
715.994	3212.58
716.182	3198.24
716.369	3308.83
716.556	3280.16
716.744	3210.53
716.931	3235.11
717.119	3185.96
717.306	2934.06
717.493	3202.34
717.681	3161.38
717.868	3087.65
718.055	3091.75
718.242	3095.85
718.43	3038.5
718.617	3040.55
718.804	3022.12
718.991	3136.81
719.179	3175.72
719.366	3083.56
719.553	3095.85
719.74	2979.11
719.927	3001.64
720.114	3136.81
720.301	2915.62
720.488	2948.39
720.676	2874.67
720.863	3124.52
721.05	2882.86
721.237	2843.95
721.424	2899.24
721.611	2903.34
721.798	2731.31
721.985	2792.75
722.172	2710.83
722.358	2735.4
722.545	2854.19
722.732	2702.64
722.919	2759.98
723.106	2895.15
723.293	2833.71
723.48	2850.09
723.667	2772.27
723.853	2698.54
724.04	2747.69
724.227	2819.37
724.414	2741.55
724.6	2698.54
724.787	2805.03
724.974	2759.98
725.161	2630.96
725.347	2768.17
725.534	2657.58
725.72	2714.92
725.907	2622.77
726.094	2682.16
726.28	2712.88
726.467	2579.76
726.653	2661.68
726.84	2549.04
727.027	2751.79
727.213	2559.28
727.4	2737.45
727.586	2579.76
727.773	2612.53
727.959	2633.01
728.145	2555.18
728.332	2639.15
728.518	2608.43
728.705	2557.23
728.891	2651.44
729.077	2522.41
729.264	2405.68
729.45	2563.37
729.636	2587.95
729.823	2417.97
730.009	2602.29
730.195	2456.88
730.382	2561.33
730.568	2426.16
730.754	2383.15
730.94	2467.12
731.126	2417.97
731.313	2481.46
731.499	2497.84
731.685	2514.22
731.871	2477.36
732.057	2514.22
732.243	2377.01
732.429	2381.11
732.615	2448.69
732.801	2499.89
732.987	2399.54
733.173	2407.73
733.359	2469.17
733.545	2422.06
733.731	2309.43
733.917	2493.74
734.103	2247.99
734.289	2315.57
734.475	2383.15
734.661	2327.86
734.847	2358.58
735.033	2415.92
735.219	2426.16
735.404	2358.58
735.59	2329.91
735.776	2260.27
735.962	2356.53
736.148	2358.58
736.333	2377.01
736.519	2211.12
736.705	2247.99
736.89	2223.41
737.076	2231.6
737.262	2204.98
737.447	2268.47
737.633	2202.93
737.819	2239.8
738.004	2153.78
738.19	2164.02
738.375	2141.49
738.561	2264.37
738.747	2151.73
738.932	2180.4
739.118	2084.15
739.303	2151.73
739.489	2235.7
739.674	2108.73
739.859	2100.53
740.045	2123.06
740.23	2063.67
740.416	2223.41
740.601	2063.67
740.786	2145.59
740.972	1975.61
741.157	2090.29
741.342	1895.74
741.528	2051.38
741.713	2157.88
741.898	1969.46
742.084	1975.61
742.269	2020.66
742.454	2024.76
742.639	1973.56
742.824	1940.79
743.01	2012.47
743.195	1944.89
743.38	1934.65
743.565	1918.26
743.75	1979.7
743.935	1940.79
744.12	1912.12
744.305	1811.77
744.49	1998.13
744.675	1912.12
744.86	1948.98
745.045	1828.15
745.23	1883.45
745.415	1844.54
745.6	1793.34
745.785	1850.68
745.97	1899.83
746.155	1779
746.34	1828.15
746.525	1844.54
746.71	1858.87
746.895	1752.38
747.079	1729.85
747.264	1766.71
747.449	1811.77
747.634	1791.29
747.819	1768.76
748.003	1686.84
748.188	1692.99
748.373	1740.09
748.557	1791.29
748.742	1686.84
748.927	1629.5
749.111	1695.04
749.296	1596.73
749.481	1582.4
749.665	1629.5
749.85	1471.81
750.034	1596.73
750.219	1609.02
750.404	1604.92
750.588	1623.36
750.773	1473.85
750.957	1559.87
751.141	1512.77
751.326	1582.4
751.51	1502.53
751.695	1578.3
751.879	1547.58
752.064	1514.81
752.248	1527.1
752.432	1486.14
752.617	1492.29
752.801	1369.41
752.985	1355.07
753.17	1488.19
753.354	1518.91
753.538	1506.62
753.722	1301.83
753.907	1424.7
754.091	1310.02
754.275	1283.39
754.459	1332.55
754.643	1240.39
754.828	1273.15
755.012	1293.63
755.196	1262.91
755.38	1207.62
755.564	1365.31
755.748	1291.59
755.932	1201.48
756.116	1166.66
756.3	1219.91
756.484	1244.48
756.668	1256.77
756.852	1170.76
757.036	1219.91
757.22	1137.99
757.404	1156.42
757.588	1277.25
757.772	1154.37
757.956	1279.3
758.14	1273.15
758.323	1099.08
758.507	1137.99
758.691	1152.32
758.875	1064.26
759.059	1162.56
759.242	1146.18
759.426	1115.46
759.61	1242.43
759.794	1099.08
759.977	1097.03
760.161	1146.18
760.345	1131.84
760.528	1111.36
760.712	1025.35
760.895	1066.31
761.079	1031.49
761.263	1039.69
761.446	1015.11
761.63	1051.97
761.813	1027.4
761.997	1039.69
762.18	1037.64
762.364	1041.73
762.547	951.62
762.731	1082.69
762.914	1092.93
763.098	974.15
763.281	1011.01
763.464	1031.49
763.648	1031.49
763.831	965.96
764.015	855.37
764.198	1019.21
764.381	957.77
764.564	986.44
764.748	937.29
764.931	970.05
765.114	980.29
765.297	974.15
765.481	925
765.664	961.86
765.847	945.48
766.03	951.62
766.213	961.86
766.397	908.62
766.58	826.7
766.763	959.81
766.946	908.62
767.129	918.86
767.312	896.33
767.495	875.85
767.678	867.66
767.861	918.86
768.044	773.45
768.227	908.62
768.41	855.37
768.593	851.27
768.776	896.33
768.959	843.08
769.142	830.79
769.324	892.23
769.507	865.61
769.69	804.17
769.873	755.02
770.056	937.29
770.239	826.7
770.421	949.57
770.604	884.04
770.787	787.79
770.97	853.32
771.152	884.04
771.335	896.33
771.518	867.66
771.7	841.03
771.883	832.84
772.066	855.37
772.248	798.03
772.431	871.75
772.613	795.98
772.796	748.87
772.978	812.36
773.161	828.74
773.343	802.12
773.526	793.93
773.708	703.82
773.891	736.59
774.073	769.35
774.256	724.3
774.438	798.03
774.621	744.78
774.803	806.22
774.985	677.2
775.168	769.35
775.35	843.08
775.532	728.39
775.715	738.63
775.897	695.63
776.079	675.15
776.261	707.91
776.444	605.52
776.626	697.67
776.808	656.72
776.99	689.48
777.173	769.35
777.355	703.82
777.537	656.72
777.719	626
777.901	654.67
778.083	709.96
778.265	683.34
778.447	634.19
778.629	646.48
778.811	638.28
778.993	662.86
779.175	607.56
779.357	630.09
779.539	554.32
779.721	593.23
779.903	628.04
780.085	603.47
780.267	574.8
780.449	560.46
780.631	580.94
780.812	632.14
780.994	537.93
781.176	619.85
781.358	535.89
781.54	564.56
781.721	636.24
781.903	525.65
782.085	531.79
782.267	585.04
782.448	558.41
782.63	499.02
782.812	542.03
782.993	533.84
783.175	537.93
783.357	523.6
783.538	525.65
783.72	449.87
783.901	492.88
784.083	564.56
784.264	484.69
784.446	449.87
784.627	462.16
784.809	478.54
784.99	482.64
785.172	546.13
785.353	470.35
785.535	507.21
785.716	451.92
785.897	449.87
786.079	503.12
786.26	437.58
786.441	507.21
786.623	413.01
786.804	431.44
786.985	400.72
787.167	427.34
787.348	378.19
787.529	429.39
787.71	509.26
787.891	466.25
788.073	380.24
788.254	372.05
788.435	367.95
788.616	353.62
788.797	370
788.978	417.1
789.159	378.19
789.34	417.1
789.522	365.9
789.703	361.81
789.884	322.9
790.065	388.43
790.246	429.39
790.427	435.53
790.607	441.68
790.788	415.06
790.969	359.76
791.15	359.76
791.331	312.66
791.512	361.81
791.693	273.75
791.874	345.42
792.054	296.27
792.235	345.42
792.416	324.94
792.597	322.9
792.778	386.38
792.958	378.19
793.139	335.18
793.32	331.09
793.5	320.85
793.681	380.24
793.862	322.9
794.042	380.24
794.223	351.57
794.404	361.81
794.584	281.94
794.765	220.5
794.945	310.61
795.126	243.03
795.306	267.6
795.487	245.07
795.667	302.42
795.848	359.76
796.028	290.13
796.209	318.8
796.389	296.27
796.57	245.07
796.75	212.31
796.93	281.94
797.111	367.95
797.291	255.31
797.471	333.14
797.652	214.35
797.832	228.69
798.012	345.42
798.192	279.89
798.373	204.11
798.553	247.12
798.733	228.69
798.913	267.6
799.093	304.46
799.274	286.03
799.454	343.38
799.634	286.03
799.814	286.03
799.994	269.65
800.174	263.51
800.354	245.07
800.534	302.42
800.714	312.66
800.894	222.55
801.074	222.55
801.254	161.11
801.434	236.88
801.614	185.68
801.794	245.07
801.974	933.19
802.154	245.07
802.334	261.46
802.514	253.27
802.693	243.03
802.873	206.16
803.053	290.13
803.233	173.39
803.413	167.25
803.592	253.27
803.772	171.35
803.952	226.64
804.131	197.97
804.311	253.27
804.491	335.18
804.67	208.21
804.85	150.87
805.03	238.93
805.209	195.92
805.389	265.55
805.568	259.41
805.748	245.07
805.928	200.02
806.107	204.11
806.287	157.01
806.466	173.39
806.646	230.74
806.825	212.31
807.004	185.68
807.184	243.03
807.363	200.02
807.543	181.59
807.722	222.55
807.901	249.17
808.081	130.39
808.26	224.59
808.439	146.77
808.619	261.46
808.798	116.05
808.977	228.69
809.156	173.39
809.336	171.35
809.515	240.98
809.694	238.93
809.873	118.1
810.052	179.54
810.231	163.15
810.411	148.82
810.59	191.83
810.769	195.92
810.948	206.16
811.127	114
811.306	150.87
811.485	81.24
811.664	206.16
811.843	132.44
812.022	114
812.201	83.28
812.38	197.97
812.559	111.96
812.737	157.01
812.916	142.68
813.095	222.55
813.274	107.86
813.453	161.11
813.632	191.83
813.811	187.73
813.989	116.05
814.168	187.73
814.347	111.96
814.526	187.73
814.704	114
814.883	136.53
815.062	87.38
815.24	183.63
815.419	116.05
815.598	167.25
815.776	111.96
815.955	212.31
816.133	83.28
816.312	220.5
816.49	130.39
816.669	107.86
816.847	73.04
817.026	91.48
817.204	173.39
817.383	159.06
817.561	93.52
817.74	89.43
817.918	111.96
818.097	146.77
818.275	97.62
818.453	214.35
818.632	122.2
818.81	169.3
818.988	122.2
819.167	114
819.345	157.01
819.523	146.77
819.701	130.39
819.879	66.9
820.058	146.77
820.236	58.71
820.414	138.58
820.592	136.53
820.77	146.77
820.948	89.43
821.127	146.77
821.305	116.05
821.483	148.82
821.661	142.68
821.839	136.53
822.017	165.2
822.195	126.29
822.373	167.25
822.551	91.48
822.729	185.68
822.907	146.77
823.085	122.2
823.262	130.39
823.44	99.67
823.618	116.05
823.796	144.72
823.974	85.33
824.152	64.85
824.329	101.72
824.507	64.85
824.685	81.24
824.863	148.82
825.04	97.62
825.218	116.05
825.396	89.43
825.574	111.96
825.751	154.96
825.929	109.91
826.107	83.28
826.284	56.66
826.462	204.11
826.639	40.28
826.817	60.76
826.994	44.37
827.172	89.43
827.349	165.2
827.527	99.67
827.704	66.9
827.882	54.61
828.059	23.89
828.237	56.66
828.414	154.96
828.591	60.76
828.769	95.57
828.946	5.46
829.124	116.05
829.301	126.29
829.478	27.99
829.655	138.58
829.833	118.1
830.01	48.47
830.187	154.96
830.364	36.18
830.542	21.85
830.719	114
830.896	116.05
831.073	105.81
831.25	107.86
831.427	150.87
831.604	15.7
831.782	83.28
831.959	122.2
832.136	89.43
832.313	132.44
832.49	89.43
832.667	23.89
832.844	27.99
833.021	130.39
833.198	68.95
833.374	81.24
833.551	-8.87
833.728	62.8
833.905	91.48
834.082	73.04
834.259	38.23
834.436	114
834.612	40.28
834.789	89.43
834.966	36.18
835.143	83.28
835.319	-21.16
835.496	36.18
835.673	77.14
835.85	116.05
836.026	83.28
836.203	118.1
836.38	44.37
836.556	85.33
836.733	42.32
836.909	114
837.086	124.24
837.262	27.99
837.439	77.14
837.616	40.28
837.792	50.52
837.968	146.77
838.145	-23.21
838.321	73.04
838.498	105.81
838.674	124.24
838.851	103.76
839.027	27.99
839.203	56.66
839.38	99.67
839.556	-10.92
839.732	48.47
839.909	36.18
840.085	44.37
840.261	46.42
840.437	83.28
840.614	-45.74
840.79	118.1
840.966	3.41
841.142	81.24
841.318	48.47
841.494	89.43
841.671	44.37
841.847	25.94
842.023	9.56
842.199	60.76
842.375	66.9
842.551	9.56
842.727	-0.68
842.903	91.48
843.079	56.66
843.255	93.52
843.431	64.85
843.607	116.05
843.783	23.89
843.959	146.77
844.134	36.18
844.31	122.2
844.486	89.43
844.662	103.76
844.838	44.37
845.013	54.61
845.189	11.61
845.365	19.8
845.541	46.42
845.716	60.76
845.892	50.52
846.068	27.99
846.244	105.81
846.419	124.24
846.595	-39.59
846.77	23.89
846.946	87.38
847.122	15.7
847.297	52.56
847.473	81.24
847.648	32.08
847.824	85.33
847.999	15.7
848.175	44.37
848.35	-2.73
848.526	109.91
848.701	97.62
848.876	83.28
849.052	64.85
849.227	75.09
849.403	-0.68
849.578	11.61
849.753	46.42
849.929	75.09
850.104	21.85
850.279	73.04
850.454	27.99
850.63	118.1
850.805	-17.07
850.98	36.18
851.155	34.13
851.33	32.08
851.505	7.51
851.681	81.24
851.856	-15.02
852.031	138.58
852.206	-23.21
852.381	44.37
852.556	7.51
852.731	15.7
852.906	-72.36
853.081	75.09
853.256	134.48
853.431	93.52
853.606	44.37
853.781	25.94
853.956	15.7
854.131	21.85
854.305	-31.4
854.48	-0.68
854.655	52.56
854.83	-0.68
855.005	77.14
855.18	32.08
855.354	56.66
855.529	32.08
855.704	23.89
855.879	77.14
856.053	3.41
856.228	23.89
856.403	-41.64
856.577	111.96
856.752	-12.97
856.926	52.56
857.101	52.56
857.276	-21.16
857.45	97.62
857.625	50.52
857.799	56.66
857.974	21.85
858.148	-74.41
858.323	75.09
858.497	-17.07
858.672	75.09
858.846	-25.26
859.02	-12.97
859.195	19.8
859.369	38.23
859.543	7.51
859.718	44.37
859.892	-15.02
860.066	40.28
860.241	-29.35
860.415	42.32
860.589	46.42
860.763	75.09
860.938	-23.21
861.112	48.47
861.286	36.18
861.46	109.91
861.634	-6.83
861.808	75.09
861.982	-37.55
862.157	25.94
862.331	19.8
862.505	-8.87
862.679	-76.46
862.853	23.89
863.027	-15.02
863.201	97.62
863.375	-62.12
863.549	85.33
863.722	-64.17
863.896	114
864.07	3.41
864.244	-41.64
864.418	23.89
864.592	-15.02
864.766	-6.83
864.939	-21.16
865.113	54.61
865.287	19.8
865.461	11.61
865.634	52.56
865.808	-29.35
865.982	7.51
866.156	36.18
866.329	66.9
866.503	68.95
866.676	54.61
866.85	36.18
867.024	64.85
867.197	9.56
867.371	1.37
867.544	32.08
867.718	40.28
867.891	54.61
868.065	-51.88
868.238	-0.68
868.412	36.18
868.585	-49.83
868.759	56.66
868.932	-8.87
869.105	48.47
869.279	40.28
869.452	-49.83
869.625	15.7
869.799	23.89
869.972	1.37
870.145	23.89
870.319	15.7
870.492	-12.97
870.665	64.85
870.838	-49.83
871.011	-51.88
871.185	56.66
871.358	36.18
871.531	-2.73
871.704	15.7
871.877	25.94
872.05	-47.79
872.223	5.46
872.396	34.13
872.569	44.37
872.742	9.56
872.915	36.18
873.088	32.08
873.261	25.94
873.434	-8.87
873.607	-17.07
873.78	103.76
873.953	-23.21
874.126	52.56
874.299	40.28
874.471	-8.87
874.644	-25.26
874.817	89.43
874.99	17.75
875.163	-70.31
875.335	77.14
875.508	17.75
875.681	-25.26
875.853	21.85
876.026	44.37
876.199	25.94
876.371	-0.68
876.544	1.37
876.717	19.8
876.889	48.47
877.062	17.75
877.234	27.99
877.407	25.94
877.579	5.46
877.752	25.94
877.924	-29.35
878.097	-8.87
878.269	-37.55
878.442	17.75
878.614	99.67
878.786	79.19
878.959	7.51
879.131	56.66
879.303	-0.68
879.476	-0.68
879.648	62.8
879.82	32.08
879.993	7.51
880.165	73.04
880.337	-2.73
880.509	-15.02
880.681	-23.21
880.854	-33.45
881.026	64.85
881.198	7.51
881.37	30.04
881.542	-33.45
881.714	-31.4
881.886	23.89
882.058	46.42
882.23	50.52
882.402	40.28
882.574	-8.87
882.746	40.28
882.918	56.66
883.09	46.42
883.262	-12.97
883.434	-37.55
883.606	-49.83
883.778	27.99
883.95	54.61
884.122	32.08
884.293	48.47
884.465	34.13
884.637	40.28
884.809	1.37
884.98	97.62
885.152	44.37
885.324	32.08
885.496	19.8
885.667	32.08
885.839	-31.4
886.011	11.61
886.182	34.13
886.354	-31.4
886.525	52.56
886.697	58.71
886.869	-60.07
887.04	-43.69
887.212	132.44
887.383	83.28
887.555	36.18
887.726	-8.87
887.897	11.61
888.069	-55.98
888.24	7.51
888.412	64.85
888.583	-17.07
888.754	11.61
888.926	25.94
889.097	-49.83
889.268	-45.74
889.44	97.62
889.611	3.41
889.782	7.51
889.953	56.66
890.125	60.76
890.296	9.56
890.467	-25.26
890.638	-8.87
890.809	-43.69
890.98	-53.93
891.151	-0.68
891.323	40.28
891.494	-8.87
891.665	-8.87
891.836	23.89
892.007	-90.79
892.178	34.13
892.349	40.28
892.52	15.7
892.691	3.41
892.862	-6.83
893.032	-17.07
893.203	15.7
893.374	-29.35
893.545	17.75
893.716	-2.73
893.887	7.51
894.057	-47.79
894.228	-31.4
894.399	-53.93
894.57	105.81
894.74	54.61
894.911	25.94
895.082	17.75
895.253	64.85
895.423	48.47
895.594	15.7
895.764	-8.87
895.935	-137.9
896.106	99.67
896.276	-6.83
896.447	7.51
896.617	-25.26
896.788	-37.55
896.958	73.04
897.129	-19.11
897.299	27.99
897.47	89.43
897.64	-15.02
897.81	-29.35
897.981	-6.83
898.151	-0.68
898.322	-23.21
898.492	52.56
898.662	-12.97
898.832	-0.68
899.003	-41.64
899.173	9.56
899.343	-37.55
899.513	17.75
