Data from USB4F104151__209__14-33-23-024.txt Node

Date: Thu Mar 13 14:33:23 EDT 2025
User: louis
Spectrometer: USB4F10415
Trigger mode: 4
Integration Time (sec): 2.500000E-2
Scans to average: 1
Electric dark correction enabled: true
Nonlinearity correction enabled: false
Boxcar width: 0
XAxis mode: Wavelengths
Number of Pixels in Spectrum: 3648
>>>>>Begin Spectral Data<<<<<
178.204	-190.29
178.424	-190.29
178.644	-190.29
178.864	-151.38
179.084	-159.57
179.304	0.17
179.524	45.23
179.744	-75.6
179.964	94.38
180.184	4.27
180.404	8.36
180.624	-30.55
180.844	8.36
181.064	-20.31
181.283	-42.84
181.503	-8.02
181.723	16.55
181.943	-26.45
182.163	73.9
182.383	-20.31
182.602	-3.93
182.822	24.75
183.042	6.31
183.262	-42.84
183.482	37.03
183.701	45.23
183.921	53.42
184.141	-3.93
184.361	0.17
184.58	47.27
184.8	12.46
185.02	6.31
185.239	61.61
185.459	-8.02
185.679	14.51
185.898	-75.6
186.118	41.13
186.338	47.27
186.557	45.23
186.777	-8.02
186.997	0.17
187.216	14.51
187.436	69.8
187.655	26.79
187.875	47.27
188.095	-3.93
188.314	-26.45
188.534	51.37
188.753	20.65
188.973	-1.88
189.192	53.42
189.412	-1.88
189.631	20.65
189.851	-12.12
190.07	69.8
190.29	22.7
190.509	-69.46
190.729	37.03
190.948	86.19
191.168	129.19
191.387	108.71
191.607	61.61
191.826	28.84
192.045	-10.07
192.265	-12.12
192.484	28.84
192.704	131.24
192.923	22.7
193.142	110.76
193.362	59.56
193.581	-20.31
193.8	37.03
194.02	37.03
194.239	32.94
194.458	131.24
194.678	-75.6
194.897	4.27
195.116	20.65
195.335	53.42
195.555	8.36
195.774	6.31
195.993	20.65
196.212	53.42
196.432	-24.4
196.651	63.66
196.87	-18.26
197.089	106.67
197.308	-20.31
197.528	80.04
197.747	-20.31
197.966	-3.93
198.185	106.67
198.404	45.23
198.623	53.42
198.842	39.08
199.062	-24.4
199.281	92.33
199.5	-26.45
199.719	53.42
199.938	28.84
200.157	-32.6
200.376	-22.36
200.595	53.42
200.814	53.42
201.033	-14.17
201.252	28.84
201.471	16.55
201.69	32.94
201.909	-22.36
202.128	-18.26
202.347	4.27
202.566	16.55
202.785	-1.88
203.004	-10.07
203.223	110.76
203.442	39.08
203.661	47.27
203.879	-18.26
204.098	-14.17
204.317	55.47
204.536	65.71
204.755	71.85
204.974	-3.93
205.193	-8.02
205.411	73.9
205.63	4.27
205.849	12.46
206.068	6.31
206.287	37.03
206.505	6.31
206.724	53.42
206.943	-67.41
207.162	-61.27
207.381	45.23
207.599	55.47
207.818	77.99
208.037	4.27
208.255	12.46
208.474	55.47
208.693	57.51
208.911	37.03
209.13	14.51
209.349	98.47
209.567	92.33
209.786	86.19
210.005	41.13
210.223	37.03
210.442	28.84
210.661	61.61
210.879	-3.93
211.098	-42.84
211.316	-12.12
211.535	55.47
211.753	84.14
211.972	53.42
212.191	28.84
212.409	-8.02
212.628	26.79
212.846	-34.64
213.065	77.99
213.283	16.55
213.502	102.57
213.72	37.03
213.938	106.67
214.157	39.08
214.375	-83.8
214.594	-1.88
214.812	82.09
215.031	22.7
215.249	22.7
215.467	12.46
215.686	37.03
215.904	12.46
216.122	4.27
216.341	4.27
216.559	47.27
216.778	-10.07
216.996	55.47
217.214	12.46
217.432	75.95
217.651	34.99
217.869	73.9
218.087	32.94
218.306	-32.6
218.524	88.23
218.742	-22.36
218.96	6.31
219.179	45.23
219.397	26.79
219.615	86.19
219.833	84.14
220.051	-8.02
220.27	80.04
220.488	0.17
220.706	0.17
220.924	61.61
221.142	55.47
221.36	45.23
221.578	55.47
221.796	104.62
222.015	-53.08
222.233	32.94
222.451	80.04
222.669	61.61
222.887	37.03
223.105	82.09
223.323	10.41
223.541	53.42
223.759	4.27
223.977	-63.32
224.195	22.7
224.413	26.79
224.631	77.99
224.849	4.27
225.067	88.23
225.285	-14.17
225.503	30.89
225.721	-102.23
225.939	6.31
226.157	4.27
226.375	49.32
226.592	-65.36
226.81	8.36
227.028	67.75
227.246	49.32
227.464	30.89
227.682	4.27
227.9	82.09
228.117	57.51
228.335	-40.79
228.553	-44.88
228.771	8.36
228.989	6.31
229.206	16.55
229.424	-59.22
229.642	47.27
229.86	28.84
230.077	16.55
230.295	14.51
230.513	80.04
230.731	24.75
230.948	49.32
231.166	123.05
231.384	-26.45
231.601	-3.93
231.819	-10.07
232.037	4.27
232.254	92.33
232.472	-34.64
232.689	-24.4
232.907	55.47
233.125	65.71
233.342	49.32
233.56	8.36
233.777	6.31
233.995	12.46
234.213	28.84
234.43	-1.88
234.648	4.27
234.865	-22.36
235.083	16.55
235.3	55.47
235.518	86.19
235.735	88.23
235.953	32.94
236.17	4.27
236.388	4.27
236.605	43.18
236.822	90.28
237.04	94.38
237.257	28.84
237.475	-5.97
237.692	32.94
237.909	34.99
238.127	32.94
238.344	45.23
238.562	118.95
238.779	-32.6
238.996	57.51
239.214	-42.84
239.431	20.65
239.648	-59.22
239.865	118.95
240.083	37.03
240.3	22.7
240.517	-3.93
240.735	-8.02
240.952	77.99
241.169	98.47
241.386	0.17
241.603	8.36
241.821	4.27
242.038	37.03
242.255	43.18
242.472	20.65
242.689	37.03
242.907	37.03
243.124	20.65
243.341	12.46
243.558	-20.31
243.775	-28.5
243.992	18.6
244.209	12.46
244.426	131.24
244.643	6.31
244.86	4.27
245.078	-34.64
245.295	22.7
245.512	63.66
245.729	12.46
245.946	-65.36
246.163	77.99
246.38	53.42
246.597	14.51
246.814	-34.64
247.031	65.71
247.248	59.56
247.464	24.75
247.681	47.27
247.898	-3.93
248.115	73.9
248.332	-28.5
248.549	53.42
248.766	69.8
248.983	43.18
249.2	61.61
249.417	86.19
249.633	20.65
249.85	63.66
250.067	28.84
250.284	104.62
250.501	53.42
250.717	12.46
250.934	-22.36
251.151	-1.88
251.368	112.81
251.585	71.85
251.801	71.85
252.018	-12.12
252.235	20.65
252.451	32.94
252.668	-24.4
252.885	24.75
253.102	-1.88
253.318	14.51
253.535	14.51
253.752	53.42
253.968	32.94
254.185	-67.41
254.401	26.79
254.618	77.99
254.835	18.6
255.051	112.81
255.268	37.03
255.484	55.47
255.701	20.65
255.917	69.8
256.134	-3.93
256.351	80.04
256.567	-3.93
256.784	22.7
257	2.22
257.217	45.23
257.433	53.42
257.65	69.8
257.866	18.6
258.082	12.46
258.299	34.99
258.515	-3.93
258.732	53.42
258.948	30.89
259.165	24.75
259.381	-44.88
259.597	12.46
259.814	63.66
260.03	-32.6
260.246	53.42
260.463	0.17
260.679	-12.12
260.895	-20.31
261.112	94.38
261.328	20.65
261.544	63.66
261.761	-8.02
261.977	2.22
262.193	26.79
262.409	77.99
262.626	12.46
262.842	32.94
263.058	-36.69
263.274	108.71
263.49	61.61
263.707	45.23
263.923	-10.07
264.139	28.84
264.355	82.09
264.571	112.81
264.787	-18.26
265.004	39.08
265.22	24.75
265.436	-22.36
265.652	-36.69
265.868	92.33
266.084	22.7
266.3	2.22
266.516	-22.36
266.732	49.32
266.948	-48.98
267.164	6.31
267.38	32.94
267.596	80.04
267.812	94.38
268.028	84.14
268.244	20.65
268.46	4.27
268.676	-16.21
268.892	18.6
269.108	-30.55
269.324	-14.17
269.54	-5.97
269.756	69.8
269.972	-20.31
270.188	61.61
270.403	-40.79
270.619	75.95
270.835	-12.12
271.051	20.65
271.267	12.46
271.483	30.89
271.698	80.04
271.914	20.65
272.13	20.65
272.346	16.55
272.562	49.32
272.777	39.08
272.993	0.17
273.209	-28.5
273.425	12.46
273.64	-40.79
273.856	63.66
274.072	51.37
274.287	61.61
274.503	65.71
274.719	43.18
274.934	61.61
275.15	-16.21
275.366	-44.88
275.581	39.08
275.797	63.66
276.012	-22.36
276.228	0.17
276.444	32.94
276.659	57.51
276.875	47.27
277.09	16.55
277.306	86.19
277.521	77.99
277.737	41.13
277.952	94.38
278.168	114.86
278.383	-16.21
278.599	67.75
278.814	53.42
279.03	55.47
279.245	104.62
279.461	20.65
279.676	39.08
279.892	22.7
280.107	-20.31
280.322	20.65
280.538	102.57
280.753	-32.6
280.969	86.19
281.184	-65.36
281.399	49.32
281.615	37.03
281.83	24.75
282.045	-12.12
282.26	37.03
282.476	39.08
282.691	88.23
282.906	55.47
283.122	88.23
283.337	-12.12
283.552	77.99
283.767	-3.93
283.983	37.03
284.198	20.65
284.413	0.17
284.628	-3.93
284.843	4.27
285.058	112.81
285.274	37.03
285.489	-32.6
285.704	90.28
285.919	-30.55
286.134	94.38
286.349	8.36
286.564	69.8
286.779	61.61
286.995	-1.88
287.21	-59.22
287.425	-28.5
287.64	-10.07
287.855	37.03
288.07	30.89
288.285	71.85
288.5	20.65
288.715	39.08
288.93	-42.84
289.145	-20.31
289.36	90.28
289.575	-18.26
289.79	77.99
290.004	-3.93
290.219	67.75
290.434	28.84
290.649	-20.31
290.864	63.66
291.079	24.75
291.294	49.32
291.509	53.42
291.724	-26.45
291.938	61.61
292.153	12.46
292.368	24.75
292.583	39.08
292.798	69.8
293.012	53.42
293.227	-8.02
293.442	4.27
293.657	-1.88
293.871	88.23
294.086	47.27
294.301	14.51
294.516	37.03
294.73	24.75
294.945	-59.22
295.16	37.03
295.374	110.76
295.589	57.51
295.804	69.8
296.018	69.8
296.233	32.94
296.447	28.84
296.662	37.03
296.877	53.42
297.091	37.03
297.306	-12.12
297.52	-12.12
297.735	51.37
297.949	-3.93
298.164	69.8
298.378	102.57
298.593	-44.88
298.807	-20.31
299.022	80.04
299.236	110.76
299.451	53.42
299.665	4.27
299.88	24.75
300.094	45.23
300.309	37.03
300.523	34.99
300.737	-14.17
300.952	61.61
301.166	14.51
301.381	4.27
301.595	0.17
301.809	28.84
302.024	86.19
302.238	-16.21
302.452	135.34
302.667	28.84
302.881	88.23
303.095	94.38
303.309	57.51
303.524	-63.32
303.738	16.55
303.952	-28.5
304.166	24.75
304.381	-20.31
304.595	43.18
304.809	20.65
305.023	45.23
305.237	-36.69
305.452	59.56
305.666	-10.07
305.88	-18.26
306.094	45.23
306.308	118.95
306.522	28.84
306.736	110.76
306.95	104.62
307.164	-20.31
307.379	28.84
307.593	10.41
307.807	28.84
308.021	-14.17
308.235	53.42
308.449	12.46
308.663	-65.36
308.877	28.84
309.091	47.27
309.305	45.23
309.519	10.41
309.733	18.6
309.947	37.03
310.161	49.32
310.374	47.27
310.588	73.9
310.802	24.75
311.016	37.03
311.23	14.51
311.444	-20.31
311.658	26.79
311.872	32.94
312.085	37.03
312.299	100.52
312.513	65.71
312.727	45.23
312.941	20.65
313.154	45.23
313.368	6.31
313.582	77.99
313.796	53.42
314.009	96.43
314.223	47.27
314.437	69.8
314.651	45.23
314.864	53.42
315.078	65.71
315.292	-18.26
315.505	34.99
315.719	59.56
315.933	51.37
316.146	-12.12
316.36	34.99
316.573	69.8
316.787	37.03
317.001	0.17
317.214	20.65
317.428	-12.12
317.641	-10.07
317.855	-1.88
318.068	32.94
318.282	8.36
318.495	90.28
318.709	34.99
318.922	96.43
319.136	0.17
319.349	30.89
319.563	32.94
319.776	96.43
319.99	2.22
320.203	14.51
320.417	28.84
320.63	86.19
320.843	98.47
321.057	47.27
321.27	-16.21
321.483	45.23
321.697	71.85
321.91	133.29
322.124	2.22
322.337	28.84
322.55	20.65
322.763	102.57
322.977	57.51
323.19	8.36
323.403	69.8
323.617	116.9
323.83	-10.07
324.043	39.08
324.256	106.67
324.469	-3.93
324.683	118.95
324.896	0.17
325.109	12.46
325.322	8.36
325.535	39.08
325.748	2.22
325.962	69.8
326.175	26.79
326.388	65.71
326.601	-5.97
326.814	12.46
327.027	43.18
327.24	86.19
327.453	-20.31
327.666	37.03
327.879	73.9
328.092	16.55
328.305	34.99
328.518	65.71
328.731	14.51
328.944	49.32
329.157	32.94
329.37	61.61
329.583	94.38
329.796	47.27
330.009	-18.26
330.222	88.23
330.435	75.95
330.648	41.13
330.861	-24.4
331.073	37.03
331.286	77.99
331.499	55.47
331.712	26.79
331.925	-10.07
332.138	0.17
332.35	49.32
332.563	-53.08
332.776	135.34
332.989	14.51
333.202	77.99
333.414	28.84
333.627	28.84
333.84	-3.93
334.053	22.7
334.265	88.23
334.478	-36.69
334.691	65.71
334.903	77.99
335.116	28.84
335.329	45.23
335.541	45.23
335.754	127.14
335.966	14.51
336.179	39.08
336.392	71.85
336.604	28.84
336.817	77.99
337.029	47.27
337.242	59.56
337.454	37.03
337.667	-44.88
337.88	75.95
338.092	45.23
338.305	98.47
338.517	75.95
338.729	22.7
338.942	55.47
339.154	41.13
339.367	6.31
339.579	20.65
339.792	41.13
340.004	71.85
340.217	14.51
340.429	114.86
340.641	-53.08
340.854	-8.02
341.066	63.66
341.278	129.19
341.491	51.37
341.703	-12.12
341.915	-20.31
342.128	71.85
342.34	61.61
342.552	102.57
342.764	86.19
342.977	88.23
343.189	69.8
343.401	53.42
343.613	-24.4
343.826	69.8
344.038	61.61
344.25	112.81
344.462	45.23
344.674	0.17
344.886	-3.93
345.099	45.23
345.311	22.7
345.523	94.38
345.735	16.55
345.947	88.23
346.159	12.46
346.371	16.55
346.583	86.19
346.795	77.99
347.007	4.27
347.219	22.7
347.431	-1.88
347.643	110.76
347.855	30.89
348.067	118.95
348.279	-77.65
348.491	-46.93
348.703	28.84
348.915	112.81
349.127	24.75
349.339	98.47
349.551	12.46
349.763	118.95
349.975	6.31
350.187	51.37
350.399	37.03
350.61	63.66
350.822	24.75
351.034	24.75
351.246	39.08
351.458	116.9
351.669	57.51
351.881	135.34
352.093	45.23
352.305	180.39
352.517	41.13
352.728	28.84
352.94	61.61
353.152	77.99
353.363	6.31
353.575	20.65
353.787	151.72
353.999	49.32
354.21	71.85
354.422	-16.21
354.633	65.71
354.845	18.6
355.057	104.62
355.268	102.57
355.48	104.62
355.692	-48.98
355.903	77.99
356.115	26.79
356.326	-24.4
356.538	49.32
356.749	32.94
356.961	92.33
357.172	-20.31
357.384	20.65
357.595	110.76
357.807	57.51
358.018	-51.03
358.23	45.23
358.441	118.95
358.653	43.18
358.864	90.28
359.075	26.79
359.287	71.85
359.498	123.05
359.709	47.27
359.921	24.75
360.132	45.23
360.344	-1.88
360.555	28.84
360.766	-12.12
360.977	28.84
361.189	49.32
361.4	-42.84
361.611	121
361.823	127.14
362.034	2.22
362.245	-10.07
362.456	49.32
362.667	88.23
362.879	-1.88
363.09	30.89
363.301	26.79
363.512	0.17
363.723	53.42
363.935	28.84
364.146	82.09
364.357	45.23
364.568	80.04
364.779	32.94
364.99	69.8
365.201	69.8
365.412	90.28
365.623	-1.88
365.834	55.47
366.045	65.71
366.256	94.38
366.467	69.8
366.678	16.55
366.889	-1.88
367.1	-12.12
367.311	22.7
367.522	28.84
367.733	41.13
367.944	43.18
368.155	12.46
368.366	-16.21
368.577	59.56
368.788	98.47
368.999	77.99
369.209	-28.5
369.42	69.8
369.631	69.8
369.842	49.32
370.053	63.66
370.264	43.18
370.474	37.03
370.685	71.85
370.896	34.99
371.107	69.8
371.317	55.47
371.528	-22.36
371.739	55.47
371.95	20.65
372.16	49.32
372.371	49.32
372.582	69.8
372.792	77.99
373.003	65.71
373.214	82.09
373.424	65.71
373.635	2.22
373.846	86.19
374.056	53.42
374.267	65.71
374.477	20.65
374.688	45.23
374.898	102.57
375.109	131.24
375.319	43.18
375.53	86.19
375.74	71.85
375.951	86.19
376.161	127.14
376.372	57.51
376.582	57.51
376.793	77.99
377.003	65.71
377.214	-20.31
377.424	37.03
377.635	110.76
377.845	65.71
378.055	94.38
378.266	30.89
378.476	45.23
378.686	82.09
378.897	82.09
379.107	16.55
379.317	65.71
379.528	77.99
379.738	69.8
379.948	14.51
380.158	88.23
380.369	75.95
380.579	63.66
380.789	20.65
380.999	28.84
381.21	77.99
381.42	82.09
381.63	80.04
381.84	12.46
382.05	118.95
382.261	55.47
382.471	61.61
382.681	4.27
382.891	96.43
383.101	86.19
383.311	12.46
383.521	65.71
383.731	45.23
383.941	69.8
384.151	45.23
384.361	151.72
384.571	-3.93
384.781	28.84
384.991	153.77
385.201	139.43
385.411	22.7
385.621	102.57
385.831	82.09
386.041	10.41
386.251	84.14
386.461	55.47
386.671	41.13
386.881	28.84
387.091	77.99
387.301	53.42
387.511	-12.12
387.72	69.8
387.93	77.99
388.14	-10.07
388.35	32.94
388.56	86.19
388.769	51.37
388.979	20.65
389.189	-14.17
389.399	39.08
389.609	121
389.818	69.8
390.028	127.14
390.238	77.99
390.447	8.36
390.657	86.19
390.867	30.89
391.076	39.08
391.286	98.47
391.496	61.61
391.705	55.47
391.915	75.95
392.125	110.76
392.334	61.61
392.544	69.8
392.753	73.9
392.963	61.61
393.172	53.42
393.382	82.09
393.591	139.43
393.801	45.23
394.01	135.34
394.22	112.81
394.429	4.27
394.639	65.71
394.848	145.58
395.058	80.04
395.267	90.28
395.477	82.09
395.686	102.57
395.895	192.68
396.105	188.58
396.314	51.37
396.524	184.49
396.733	102.57
396.942	200.87
397.152	49.32
397.361	192.68
397.57	61.61
397.78	45.23
397.989	135.34
398.198	180.39
398.407	102.57
398.617	129.19
398.826	145.58
399.035	139.43
399.244	151.72
399.453	135.34
399.663	110.76
399.872	143.53
400.081	131.24
400.29	106.67
400.499	98.47
400.708	186.54
400.917	96.43
401.127	184.49
401.336	-5.97
401.545	176.3
401.754	233.64
401.963	147.62
402.172	127.14
402.381	82.09
402.59	104.62
402.799	127.14
403.008	143.53
403.217	256.17
403.426	170.15
403.635	112.81
403.844	94.38
404.053	159.91
404.262	168.1
404.471	215.21
404.68	157.86
404.888	188.58
405.097	161.96
405.306	178.34
405.515	290.98
405.724	303.27
405.933	323.75
406.142	258.21
406.35	229.54
406.559	217.26
406.768	188.58
406.977	305.32
407.185	340.13
407.394	307.37
407.603	233.64
407.812	260.26
408.02	333.99
408.229	366.76
408.438	352.42
408.646	319.65
408.855	290.98
409.064	448.68
409.272	274.6
409.481	370.85
409.69	331.94
409.898	366.76
410.107	417.96
410.315	415.91
410.524	360.61
410.733	463.01
410.941	444.58
411.15	520.35
411.358	495.78
411.567	602.27
411.775	487.59
411.984	495.78
412.192	653.47
412.401	630.95
412.609	665.76
412.818	694.43
413.026	663.71
413.234	721.06
413.443	684.19
413.651	694.43
413.86	823.45
414.068	891.04
414.276	860.32
414.485	848.03
414.693	841.89
414.901	876.7
415.11	934.04
415.318	923.8
415.526	1022.11
415.734	972.96
415.943	1015.96
416.151	1187.99
416.359	1069.21
416.567	1183.9
416.776	1224.86
416.984	1347.73
417.192	1220.76
417.4	1300.63
417.608	1382.55
417.817	1355.93
418.025	1542.29
418.233	1540.24
418.441	1515.67
418.649	1585.3
418.857	1681.55
419.065	1783.95
419.273	1718.42
419.481	1933.45
419.689	2013.32
419.897	1998.99
420.105	1970.32
420.313	2216.07
420.521	2265.22
420.729	2326.66
420.937	2314.38
421.145	2390.15
421.353	2533.51
421.561	2607.23
421.769	2617.47
421.977	2807.94
422.185	2687.11
422.393	2883.71
422.601	3057.79
422.809	3180.67
423.017	3059.84
423.224	3248.25
423.432	3395.7
423.64	3477.62
423.848	3682.42
424.056	3567.73
424.263	3874.93
424.471	3915.89
424.679	3991.66
424.887	4059.24
425.094	4378.73
425.302	4321.38
425.51	4366.44
425.718	4720.74
425.925	4747.36
426.133	4722.79
426.341	5017.69
426.548	5275.74
426.756	5355.61
426.964	5390.42
427.171	5705.81
427.379	5931.09
427.586	6041.68
427.794	6060.11
428.001	6305.87
428.209	6578.25
428.417	6467.66
428.624	6967.36
428.832	7036.99
429.039	6963.26
429.247	6975.55
429.454	7770.16
429.662	8224.81
429.869	7870.51
430.076	8331.31
430.284	7925.81
430.491	8253.48
430.699	8736.81
430.906	8869.92
431.114	8755.24
431.321	9250.85
431.528	9414.68
431.736	9971.73
431.943	10440.72
432.15	10082.32
432.358	10227.73
432.565	10795.01
432.772	10559.5
432.979	11087.87
433.187	11347.97
433.394	11579.39
433.601	12001.27
433.808	12281.84
434.016	12158.96
434.223	12808.17
434.43	13621.21
434.637	13221.86
434.844	13946.84
435.052	14176.21
435.259	14362.58
435.466	14409.68
435.673	14323.66
435.88	15085.51
436.087	15695.8
436.294	15757.24
436.501	15601.6
436.708	15738.81
436.915	16299.95
437.122	17010.6
437.329	17192.87
437.537	17436.58
437.743	17772.44
437.95	17584.03
438.157	18749.32
438.364	19072.9
438.571	19320.71
438.778	19206.02
438.985	20914.03
439.192	20111.22
439.399	20815.73
439.606	20383.6
439.813	21600.1
440.02	22849.36
440.227	22273.88
440.433	21981.02
440.64	22732.62
440.847	22646.61
441.054	23170.89
441.261	25057.07
441.467	24522.55
441.674	24958.77
441.881	25882.4
442.088	25597.73
442.294	25792.29
442.501	26169.12
442.708	26810.13
442.914	27756.29
443.121	28716.79
443.328	28176.12
443.534	29834.98
443.741	29509.35
443.948	28829.43
444.154	31049.42
444.361	30850.77
444.568	30822.1
444.774	30478.04
444.981	31342.28
445.187	32093.89
445.394	33679.02
445.6	33191.6
445.807	36173.44
446.013	34670.23
446.22	34881.17
446.426	36603.52
446.633	37105.27
446.839	38299.23
447.046	36544.13
447.252	38467.17
447.459	38577.76
447.665	38209.12
447.871	39798.35
448.078	41639.47
448.284	39798.35
448.491	40656.45
448.697	42210.85
448.903	43146.78
449.11	43097.63
449.316	42649.12
449.522	43261.46
449.728	44326.41
449.935	45161.98
450.141	44963.32
450.347	45342.2
450.553	44652.03
450.76	44717.57
450.966	46530.02
451.172	45723.12
451.378	47363.54
451.584	45661.68
451.791	47105.5
451.997	46949.85
452.203	47646.16
452.409	47748.56
452.615	47007.2
452.821	45809.14
453.027	45331.96
453.233	47580.63
453.44	45684.21
453.646	45860.33
453.852	46200.3
454.058	46800.35
454.264	45753.84
454.47	46972.38
454.676	45800.94
454.882	47175.13
455.088	42929.69
455.294	43462.16
455.5	44312.07
455.705	45008.38
455.911	43462.16
456.117	42257.96
456.323	41913.9
456.529	39757.39
456.735	41131.58
456.941	40181.32
457.147	39546.45
457.352	38280.8
457.558	38104.68
457.764	38180.45
457.97	37187.19
458.176	36058.76
458.381	36503.17
458.587	34811.54
458.793	34592.41
458.999	32964.28
459.204	35178.13
459.41	34377.37
459.616	32179.9
459.821	32077.51
460.027	32153.28
460.233	30932.69
460.438	29708.01
460.644	30254.81
460.85	28665.59
461.055	28096.25
461.261	27985.66
461.466	25689.89
461.672	25106.22
461.878	26922.77
462.083	25440.04
462.289	24923.95
462.494	24287.03
462.7	23269.19
462.905	22607.7
463.111	23232.33
463.316	23709.5
463.522	22771.54
463.727	23136.07
463.932	22908.75
464.138	22671.18
464.343	22734.67
464.549	22273.88
464.754	22888.27
464.959	22763.34
465.165	22540.11
465.37	21325.67
465.575	20557.68
465.781	21423.97
465.986	21641.06
466.191	20940.65
466.397	20584.3
466.602	19599.23
466.807	20594.54
467.012	20236.15
467.218	19931
467.423	19664.77
467.628	20311.92
467.833	20854.64
468.038	20070.26
468.244	19427.2
468.449	19980.15
468.654	19732.35
468.859	19300.23
469.064	19244.93
469.269	18483.09
469.474	18593.68
469.679	19103.62
469.885	18403.22
470.09	18847.63
470.295	18587.54
470.5	17967
470.705	18184.09
470.91	17518.5
471.115	17375.14
471.32	18005.91
471.525	17905.56
471.73	17362.85
471.935	17239.97
472.139	16887.72
472.344	16916.39
472.549	16625.58
472.754	16732.08
472.959	16340.91
473.164	15855.54
473.369	15828.92
473.574	16330.67
473.778	16091.06
473.983	15751.1
474.188	15849.4
474.393	15294.4
474.598	15247.3
474.802	15046.6
475.007	14950.34
475.212	15071.17
475.417	14272.46
475.621	14503.89
475.826	14417.87
476.031	14456.78
476.235	13955.03
476.44	14243.79
476.645	13817.82
476.849	13938.65
477.054	13780.95
477.259	13531.1
477.463	13344.74
477.668	12955.62
477.872	13348.83
478.077	12982.24
478.282	12806.12
478.486	12666.86
478.691	12646.38
478.895	12658.67
479.1	12480.49
479.304	12500.97
479.509	12236.78
479.713	12566.51
479.918	12074.99
480.122	11825.14
480.326	12132.34
480.531	12113.91
480.735	11706.36
480.94	11735.03
481.144	12128.24
481.348	11773.94
481.553	11909.11
481.757	11427.84
481.961	11812.85
482.166	11739.13
482.37	11515.9
482.574	11378.69
482.778	11536.38
482.983	11646.97
483.187	11565.05
483.391	11714.55
483.595	11366.4
483.8	11343.87
484.004	11509.76
484.208	11610.11
484.412	11579.39
484.616	11595.77
484.821	11511.8
485.025	11233.28
485.229	11659.26
485.433	11474.94
485.637	11597.82
485.841	11407.36
486.045	11309.05
486.249	11548.67
486.453	11122.69
486.657	11233.28
486.861	11358.21
487.065	11061.25
487.269	11456.51
487.473	11180.03
487.677	11517.95
487.881	11216.9
488.085	11429.88
488.289	11319.29
488.493	11327.49
488.697	11466.75
488.901	11274.24
489.105	11358.21
489.309	11350.01
489.512	11626.49
489.716	11362.3
489.92	11540.47
490.124	11378.69
490.328	11722.74
490.531	11538.43
490.735	11687.93
490.939	11524.09
491.143	11470.84
491.346	11560.95
491.55	11743.22
491.754	11737.08
491.958	11728.89
492.161	11737.08
492.365	11661.3
492.569	11773.94
492.772	11743.22
492.976	11900.92
493.18	11759.61
493.383	12021.75
493.587	12074.99
493.79	12320.75
493.994	11952.12
494.197	12400.62
494.401	12462.06
494.605	12414.96
494.808	12509.16
495.012	12726.25
495.215	12556.27
495.419	12679.15
495.622	12791.78
495.825	12605.42
496.029	12752.87
496.232	13039.59
496.436	13266.91
496.639	13570.01
496.843	13195.23
497.046	13582.3
497.249	13504.48
497.453	13649.88
497.656	13975.51
497.859	13942.74
498.063	13965.27
498.266	14131.16
498.469	14077.91
498.673	14342.1
498.876	14624.72
499.079	14587.85
499.282	14573.52
499.485	14958.53
499.689	15220.67
499.892	15296.45
500.095	15280.07
500.298	15808.44
500.501	15419.33
500.705	15804.35
500.908	15841.21
501.111	16228.28
501.314	16232.37
501.517	16273.33
501.72	16748.46
501.923	16543.66
502.126	17024.93
502.329	17164.2
502.532	17452.96
502.735	17588.13
502.938	17512.35
503.141	18012.06
503.344	17788.83
503.547	17778.59
503.75	18358.16
503.953	18648.97
504.156	18843.53
504.359	19013.51
504.562	18864.01
504.765	19361.67
504.968	19337.09
505.17	19705.73
505.373	19697.53
505.576	20088.7
505.779	19902.33
505.982	20240.25
506.185	20625.26
506.387	20580.21
506.59	20864.88
506.793	21182.31
506.996	21114.73
507.198	21741.41
507.401	21589.86
507.604	21835.61
507.807	22105.95
508.009	22595.41
508.212	22699.86
508.415	22771.54
508.617	22818.64
508.82	23301.96
509.022	22988.62
509.225	23746.37
509.428	24158.01
509.63	24260.41
509.833	24166.2
510.035	24817.46
510.238	24481.59
510.44	25175.85
510.643	25220.91
510.845	25376.55
511.048	25265.96
511.25	26003.23
511.453	25851.68
511.655	26625.81
511.858	26507.03
512.06	26599.19
512.262	27049.74
512.465	27156.24
512.667	27258.63
512.87	27834.11
513.072	27674.37
513.274	28407.55
513.477	28573.43
513.679	28788.47
513.881	29056.75
514.084	29150.96
514.286	29505.26
514.488	29345.51
514.69	30557.91
514.893	29933.28
515.095	30359.26
515.297	30580.44
515.499	30967.51
515.701	30828.24
515.904	31356.62
516.106	31405.77
516.308	32040.64
516.51	32249.53
516.712	32261.82
516.914	32712.38
517.116	33154.74
517.318	33003.19
517.52	33380.01
517.722	33461.93
517.925	33889.96
518.127	33986.21
518.329	33930.92
518.531	33840.81
518.733	34848.41
518.935	35069.59
519.136	34963.09
519.338	35559.05
519.54	35462.8
519.742	35974.79
519.944	35931.78
520.146	36535.93
520.348	36640.38
520.55	36843.13
520.752	36667
520.954	37207.67
521.155	37140.08
521.357	37504.62
521.559	38129.25
521.761	38256.23
521.963	38401.63
522.164	38094.44
522.366	38366.82
522.568	38864.47
522.77	38772.32
522.971	39061.08
523.173	38977.11
523.375	39255.64
523.576	39349.84
523.778	39364.18
523.98	39681.61
524.181	40259.14
524.383	40164.93
524.584	40384.07
524.786	40715.84
524.988	40052.3
525.189	40728.13
525.391	40881.72
525.592	40855.1
525.794	40861.24
525.995	41070.14
526.197	41039.42
526.398	40742.46
526.6	41049.66
526.801	41532.98
527.003	41510.45
527.204	41584.18
527.406	41518.64
527.607	41647.66
527.808	41754.16
528.01	41510.45
528.211	41760.3
528.412	42198.57
528.614	41725.49
528.815	41862.7
529.016	42149.42
529.218	41815.6
529.419	41643.57
529.62	41739.82
529.822	41979.43
530.023	41590.32
530.224	42305.06
530.425	42149.42
530.626	41662
530.828	41707.05
531.029	42659.36
531.23	41711.15
531.431	41705.01
531.632	42010.15
531.833	42067.5
532.035	41750.06
532.236	41518.64
532.437	41950.76
532.638	41530.93
532.839	41707.05
533.04	42358.31
533.241	41694.77
533.442	42599.97
533.643	41551.41
533.844	41647.66
534.045	41989.67
534.246	41188.92
534.447	41698.86
534.648	41516.59
534.849	41879.08
535.05	41489.97
535.251	41481.78
535.451	41244.21
535.652	41336.37
535.853	41301.56
536.054	41229.88
536.255	41072.18
536.456	40916.54
536.657	41647.66
536.857	41330.23
537.058	40818.24
537.259	41352.76
537.46	41018.94
537.66	40771.13
537.861	40871.48
538.062	40703.55
538.263	40973.88
538.463	40693.31
538.664	40924.73
538.865	40478.27
539.065	41166.39
539.266	40375.87
539.466	40859.2
539.667	40048.2
539.868	41088.57
540.068	40085.06
540.269	40261.19
540.469	40543.81
540.67	40416.83
540.87	40525.38
541.071	40377.92
541.271	40668.73
541.472	40660.54
541.672	40355.39
541.873	40314.44
542.073	39806.54
542.274	40513.09
542.474	40181.32
542.675	39910.99
542.875	40339.01
543.075	40209.99
543.276	39755.34
543.476	40388.16
543.676	39997
543.877	40394.31
544.077	40427.07
544.277	40109.64
544.478	39988.81
544.678	40181.32
544.878	40316.48
545.078	40365.63
545.279	39804.49
545.479	39951.95
545.679	39884.36
545.879	39812.68
546.079	40234.56
546.28	39757.39
546.48	39534.16
546.68	40240.71
546.88	39919.18
547.08	39671.37
547.28	39915.08
547.48	39435.86
547.68	39978.57
547.88	39685.71
548.081	39824.97
548.281	39704.14
548.481	39978.57
548.681	39624.27
548.881	40175.17
549.081	39704.14
549.28	39353.94
549.48	39933.51
549.68	39829.07
549.88	40160.84
550.08	39583.31
550.28	39489.1
550.48	39921.23
550.68	39915.08
550.88	39562.83
551.08	39394.9
551.279	39859.79
551.479	39536.21
551.679	39986.76
551.879	39771.72
552.079	39947.85
552.278	39900.75
552.478	39865.93
552.678	39566.93
552.878	39595.6
553.077	39970.38
553.277	39741
553.477	40345.16
553.676	39777.87
553.876	40042.06
554.076	39609.93
554.275	40101.45
554.475	39601.74
554.674	39712.33
554.874	39753.29
555.074	39874.12
555.273	39720.52
555.473	39890.51
555.672	40066.63
555.872	39964.23
556.071	39921.23
556.271	40250.95
556.47	39888.46
556.67	39923.27
556.869	39614.03
557.068	40269.38
557.268	39761.48
557.467	39810.64
557.667	40095.3
557.866	39943.75
558.065	40025.67
558.265	39859.79
558.464	39710.28
558.663	39972.42
558.863	39650.89
559.062	40234.56
559.261	39470.67
559.461	40246.85
559.66	39437.9
559.859	39695.95
560.058	39454.29
560.258	39716.43
560.457	39061.08
560.656	39894.6
560.855	39609.93
561.054	40166.98
561.253	39673.42
561.453	39876.17
561.652	39769.68
561.851	39736.91
562.05	39704.14
562.249	39818.83
562.448	39716.43
562.647	39636.56
562.846	39650.89
563.045	39509.58
563.244	39145.05
563.443	40156.74
563.642	39417.43
563.841	39814.73
564.04	39487.06
564.239	39874.12
564.438	39097.94
564.637	39304.79
564.836	39405.14
565.035	39048.79
565.234	39298.64
565.432	39122.52
565.631	38973.02
565.83	39192.15
566.029	39269.97
566.228	38964.82
566.427	39118.42
566.625	38733.4
566.824	38710.88
567.023	38811.23
567.222	38192.74
567.42	38688.35
567.619	38534.75
567.818	38151.78
568.016	38291.04
568.215	38899.29
568.414	38178.4
568.612	38970.97
568.811	38020.71
569.01	38397.54
569.208	37865.06
569.407	38033
569.605	37662.32
569.804	37977.7
570.002	37340.78
570.201	37914.22
570.4	37260.91
570.598	37633.64
570.797	37289.59
570.995	37463.66
571.193	36777.59
571.392	37336.69
571.59	37025.4
571.789	36867.7
571.987	36781.69
572.186	37109.36
572.384	36699.77
572.582	36869.75
572.781	36959.86
572.979	36458.11
573.177	36804.22
573.376	36808.31
573.574	36406.91
573.772	36402.82
573.971	36079.24
574.169	36302.46
574.367	35714.7
574.565	36195.97
574.763	35706.51
574.962	35989.13
575.16	35790.47
575.358	35542.67
575.556	35171.99
575.754	35509.9
575.952	35116.69
576.151	35845.77
576.349	34741.91
576.547	35057.3
576.745	35305.1
576.943	35106.45
577.141	34791.06
577.339	35096.21
577.537	34985.62
577.735	34485.92
577.933	34270.88
578.131	34317.98
578.329	34211.49
578.527	34174.63
578.725	34096.8
578.923	34156.19
579.121	33912.49
579.319	33975.97
579.516	33771.18
579.714	33730.22
579.912	33250.99
580.11	33382.06
580.308	33539.75
580.506	33429.16
580.704	33095.35
580.901	33328.81
581.099	33496.75
581.297	32929.46
581.495	32904.88
581.692	32917.17
581.89	32810.68
582.088	33027.76
582.285	32695.99
582.483	32825.01
582.681	32503.48
582.878	32382.65
583.076	32007.87
583.274	32257.73
583.471	31751.88
583.669	32532.15
583.866	31874.76
584.064	32040.64
584.262	31674.06
584.459	32136.9
584.657	31653.58
584.854	31991.49
585.052	31301.33
585.249	31391.44
585.447	31821.51
585.644	31303.37
585.841	31448.78
586.039	31385.29
586.236	31188.69
586.434	31184.59
586.631	30805.72
586.828	31022.8
587.026	31028.95
587.223	30955.22
587.42	30922.45
587.618	30506.71
587.815	30365.4
588.012	30629.59
588.21	30230.24
588.407	30533.34
588.604	30473.95
588.801	30156.51
588.999	30062.3
589.196	29853.41
589.393	29927.14
589.59	30013.15
589.787	29865.7
589.984	29961.95
590.182	29480.68
590.379	29972.19
590.576	29558.5
590.773	29517.54
590.97	29546.22
591.167	29615.85
591.364	29353.71
591.561	29308.65
591.758	29083.37
591.955	29212.4
592.152	29642.47
592.349	29341.42
592.546	28897.01
592.743	29214.44
592.94	28706.55
593.137	29146.86
593.334	29398.76
593.531	28495.61
593.727	29036.27
593.924	28421.88
594.121	28518.14
594.318	28729.08
594.515	28272.38
594.712	28813.04
594.908	28555
595.105	28649.21
595.302	28382.97
595.499	28614.39
595.696	28198.65
595.892	28202.75
596.089	28344.06
596.286	28620.53
596.482	28321.53
596.679	28008.19
596.876	27971.33
597.072	27784.96
597.269	27834.11
597.466	28032.77
597.662	28102.4
597.859	27979.52
598.055	27973.38
598.252	27766.53
598.448	27721.48
598.645	27791.11
598.841	27746.05
599.038	27881.22
599.234	27846.4
599.431	27559.69
599.627	27627.27
599.824	27680.52
600.02	27686.66
600.217	27422.47
600.413	27334.41
600.609	27584.26
600.806	27541.25
601.002	27789.06
601.198	27520.77
601.395	27424.52
601.591	27373.32
601.787	27664.13
601.984	27512.58
602.18	28051.2
602.376	27315.98
602.572	27283.21
602.769	27324.17
602.965	27098.89
603.161	27422.47
603.357	27248.39
603.553	27289.35
603.75	27467.53
603.946	27420.42
604.142	27428.62
604.338	27207.44
604.534	27436.81
604.73	27238.16
604.926	27399.94
605.122	27428.62
605.318	27299.59
605.514	27608.84
605.71	27260.68
605.906	27473.67
606.102	27322.12
606.298	27236.11
606.494	27567.88
606.69	27787.01
606.886	27535.11
607.082	27461.38
607.278	27428.62
607.474	27678.47
607.67	27918.08
607.866	27305.74
608.062	27668.23
608.257	27481.86
608.453	27375.37
608.649	27649.8
608.845	27623.17
609.041	27592.45
609.236	27832.07
609.432	27778.82
609.628	27363.08
609.824	27725.57
610.019	27766.53
610.215	27666.18
610.411	28129.02
610.606	28020.48
610.802	28077.82
610.998	27721.48
611.193	28192.51
611.389	27842.31
611.584	27647.75
611.78	27995.9
611.976	27883.27
612.171	28036.86
612.367	27948.8
612.562	27997.95
612.758	27608.84
612.953	27707.14
613.149	28004.1
613.344	27780.87
613.539	28286.72
613.735	28188.41
613.93	28282.62
614.126	28106.49
614.321	28317.43
614.517	28124.93
614.712	28198.65
614.907	27903.74
615.103	27911.94
615.298	27821.83
615.493	28163.84
615.688	27782.91
615.884	28360.44
616.079	27793.15
616.274	28045.05
616.47	28014.34
616.665	28057.34
616.86	27770.63
617.055	27836.16
617.25	27537.16
617.445	28141.31
617.641	27662.08
617.836	27737.86
618.031	27713.28
618.226	27967.23
618.421	27481.86
618.616	27813.63
618.811	27227.92
619.006	27877.12
619.201	27408.14
619.396	27473.67
619.591	27031.31
619.786	27647.75
619.981	26824.47
620.176	27332.36
620.371	26998.54
620.566	27057.93
620.761	27068.17
620.956	27039.5
621.151	26345.24
621.346	26861.33
621.541	26492.69
621.735	26832.66
621.93	26122.01
622.125	26543.89
622.32	26005.28
622.515	26027.81
622.709	25929.5
622.904	26228.51
623.099	25669.41
623.294	25943.84
623.488	25435.94
623.683	25573.16
623.878	25118.51
624.072	25130.8
624.267	25280.3
624.462	25040.68
624.656	25141.04
624.851	24977.2
625.046	24790.83
625.24	24622.9
625.435	24411.96
625.629	24452.92
625.824	24272.7
626.018	24196.92
626.213	24049.47
626.407	23973.69
626.602	23658.31
626.796	23793.47
626.991	23578.43
627.185	23242.57
627.38	23369.54
627.574	23160.65
627.768	23424.84
627.963	23023.44
628.157	23164.75
628.352	22943.56
628.546	22724.43
628.74	22476.63
628.935	22570.83
629.129	22237.02
629.323	22124.38
629.517	22384.47
629.712	22093.66
629.906	22071.13
630.1	21688.16
630.294	21796.7
630.489	21765.98
630.683	21974.88
630.877	21542.75
631.071	21436.26
631.265	21456.74
631.459	21307.24
631.653	20860.78
631.848	21049.19
632.042	21102.44
632.236	20887.4
632.43	20868.97
632.624	20713.33
632.818	20531.06
633.012	20295.54
633.206	20373.36
633.4	20162.42
633.594	19969.91
633.788	20258.68
633.982	19924.86
634.176	19801.98
634.369	19607.42
634.563	19388.29
634.757	19642.24
634.951	19361.67
635.145	19496.83
635.339	19312.52
635.533	19181.45
635.726	19128.2
635.92	18923.4
636.114	18802.57
636.308	18601.87
636.501	18894.73
636.695	18890.63
636.889	18616.21
637.083	18425.75
637.276	18231.19
637.47	18278.29
637.664	17960.86
637.857	17913.75
638.051	17860.51
638.244	17647.52
638.438	17674.14
638.632	17805.21
638.825	17637.28
639.019	17252.26
639.212	17108.9
639.406	17272.74
639.599	17051.56
639.793	17100.71
639.986	16768.94
640.18	16994.22
640.373	16570.29
640.567	16560.05
640.76	16816.04
640.954	16361.39
641.147	16302
641.34	16029.62
641.534	16320.43
641.727	16244.66
641.92	16046.01
642.114	15699.9
642.307	15704
642.5	15681.47
642.694	15464.38
642.887	15351.74
643.08	15603.64
643.273	15454.14
643.467	15308.74
643.66	15257.54
643.853	15075.27
644.046	14956.49
644.239	14817.22
644.432	14847.94
644.626	14655.44
644.819	14649.29
645.012	14530.51
645.205	14507.98
645.398	14421.97
645.591	14094.29
645.784	14462.93
645.977	14294.99
646.17	13944.79
646.363	13866.97
646.556	13717.47
646.749	13660.12
646.942	13897.69
647.135	13529.05
647.328	13502.43
647.521	13613.02
647.714	13275.1
647.907	13512.67
648.099	13326.3
648.292	13242.34
648.485	13176.8
648.678	13004.77
648.871	12955.62
649.064	12752.87
649.256	12920.81
649.449	12980.2
649.642	12703.72
649.835	12509.16
650.027	12675.05
650.22	12285.94
650.413	12396.53
650.605	12425.2
650.798	12408.81
650.991	12287.98
651.183	11929.59
651.376	12222.45
651.568	12089.33
651.761	12054.51
651.954	11800.57
652.146	11761.66
652.339	11859.96
652.531	11753.46
652.724	11599.87
652.916	11606.01
653.109	11476.99
653.301	11464.7
653.494	11413.5
653.686	11296.77
653.879	11505.66
654.071	11120.64
654.263	11274.24
654.456	11012.1
654.648	11292.67
654.84	11038.72
655.033	10975.24
655.225	10825.73
655.417	10774.53
655.61	10782.73
655.802	10649.61
655.994	10555.4
656.186	10379.28
656.379	10457.1
656.571	10375.18
656.763	10174.48
656.955	10184.72
657.148	10217.49
657.34	10268.69
657.532	10049.55
657.724	10018.83
657.916	10000.4
658.108	10029.07
658.3	9998.35
658.492	10018.83
658.684	9740.31
658.876	9859.09
659.068	9709.59
659.26	9521.18
659.452	9590.81
659.644	9592.86
659.836	9310.24
660.028	9525.27
660.22	9408.54
660.412	9443.35
660.604	9304.09
660.796	9138.21
660.988	9107.49
661.18	8917.03
661.372	8957.99
661.563	9044
661.755	8927.27
661.947	8886.31
662.139	8912.93
662.331	8755.24
662.522	8802.34
662.714	8763.43
662.906	8548.39
663.097	8691.75
663.289	8665.13
663.481	8335.4
663.673	8523.82
663.864	8347.69
664.056	8450.09
664.247	8321.07
664.439	8228.91
664.631	8384.55
664.822	8241.2
665.014	8224.81
665.205	8181.81
665.397	7993.39
665.588	8130.61
665.78	7868.47
665.971	8028.21
666.163	7997.49
666.354	7819.32
666.546	7802.93
666.737	7596.09
666.929	7772.21
667.12	7764.02
667.311	7690.29
667.503	7571.51
667.694	7680.05
667.885	7469.11
668.077	7526.46
668.268	7395.39
668.459	7499.83
668.651	7313.47
668.842	7436.35
669.033	7319.61
669.224	7262.27
669.416	7239.74
669.607	7333.95
669.798	6950.98
669.989	7123.01
670.18	7092.29
670.371	6901.83
670.563	7045.18
670.754	7139.39
670.945	6971.46
671.136	6916.16
671.327	7014.46
671.518	6879.3
671.709	6930.5
671.9	6961.22
672.091	6756.42
672.282	6826.05
672.473	6647.88
672.664	6729.8
672.855	6584.39
673.046	6582.34
673.237	6735.94
673.428	6557.77
673.619	6563.91
673.809	6600.77
674	6301.77
674.191	6469.7
674.382	6522.95
674.573	6412.36
674.764	6377.55
674.954	6312.01
675.145	6512.71
675.336	6320.2
675.527	6254.67
675.717	6404.17
675.908	6086.73
676.099	6123.6
676.289	6139.98
676.48	5967.95
676.671	6199.37
676.861	6107.21
677.052	6135.89
677.243	5935.18
677.433	6115.41
677.624	5951.57
677.814	6174.8
678.005	6144.08
678.195	6066.25
678.386	5847.12
678.576	5980.24
678.767	5994.58
678.957	5994.58
679.148	6207.56
679.338	5943.38
679.529	5970
679.719	5804.11
679.909	5877.84
680.1	5845.07
680.29	5808.21
680.481	5771.35
680.671	5838.93
680.861	5709.91
681.052	5771.35
681.242	5808.21
681.432	5677.14
681.622	5693.52
681.813	5732.44
682.003	5648.47
682.193	5750.87
682.383	5818.45
682.573	5695.57
682.764	5648.47
682.954	5744.72
683.144	5623.89
683.334	5601.37
683.524	5511.25
683.714	5689.43
683.904	5607.51
684.094	5525.59
684.284	5470.3
684.474	5627.99
684.664	5599.32
684.854	5449.82
685.044	5511.25
685.234	5427.29
685.424	5441.62
685.614	5517.4
685.804	5351.51
685.994	5271.64
686.184	5300.31
686.374	5480.54
686.564	5230.68
686.753	5353.56
686.943	5371.99
687.133	5316.7
687.323	5320.79
687.513	5378.14
687.702	5197.92
687.892	5204.06
688.082	5152.86
688.272	5247.07
688.461	5146.72
688.651	5316.7
688.841	4911.2
689.03	5171.29
689.22	5122.14
689.41	5142.62
689.599	5161.05
689.789	5130.33
689.979	5091.42
690.168	5027.93
690.358	5009.5
690.547	4970.59
690.737	5070.94
690.926	5134.43
691.116	5111.9
691.305	4915.3
691.495	4841.57
691.684	4851.81
691.874	4935.78
692.063	5062.75
692.252	4900.96
692.442	4765.79
692.631	4860
692.82	4814.95
693.01	4788.32
693.199	4735.07
693.388	4798.56
693.578	4804.71
693.767	4804.71
693.956	4612.2
694.146	4878.43
694.335	4685.92
694.524	4831.33
694.713	4583.52
694.902	4569.19
695.092	4614.24
695.281	4636.77
695.47	4532.33
695.659	4491.37
695.848	4517.99
696.037	4493.41
696.226	4483.17
696.415	4567.14
696.604	4573.28
696.793	4423.78
696.982	4583.52
697.171	4509.8
697.36	4593.76
697.549	4456.55
697.738	4436.07
697.927	4556.9
698.116	4474.98
698.305	4370.54
698.494	4221.03
698.683	4423.78
698.872	4391.02
699.061	4440.17
699.25	4331.62
699.438	4284.52
699.627	4352.1
699.816	4456.55
700.005	4378.73
700.193	4362.34
700.382	4296.81
700.571	4241.51
700.76	4212.84
700.948	4274.28
701.137	4317.29
701.326	4253.8
701.514	4352.1
701.703	4139.12
701.892	4083.82
702.08	4235.37
702.269	4098.16
702.457	4190.31
702.646	4231.27
702.834	4231.27
703.023	4042.86
703.212	3995.76
703.4	4190.31
703.589	4141.16
703.777	4182.12
703.965	3977.33
704.154	4218.99
704.342	3936.37
704.531	4030.57
704.719	3815.54
704.907	4092.01
705.096	3887.22
705.284	4014.19
705.472	3944.56
705.661	4008.05
705.849	3985.52
706.037	3776.63
706.226	3930.22
706.414	3942.51
706.602	3899.5
706.79	3993.71
706.979	3643.51
707.167	3919.98
707.355	3829.87
707.543	3919.98
707.731	3788.91
707.919	3872.88
708.107	3862.64
708.296	3768.43
708.484	3635.32
708.672	3772.53
708.86	3741.81
709.048	3768.43
709.236	3723.38
709.424	3801.2
709.612	3641.46
709.8	3752.05
709.988	3653.75
710.176	3674.23
710.364	3682.42
710.551	3561.59
710.739	3625.08
710.927	3747.95
711.115	3649.65
711.303	3666.03
711.491	3596.4
711.679	3473.53
711.866	3672.18
712.054	3453.05
712.242	3494.01
712.43	3465.33
712.617	3641.46
712.805	3563.64
712.993	3559.54
713.181	3405.94
713.368	3502.2
713.556	3481.72
713.744	3491.96
713.931	3510.39
714.119	3395.7
714.306	3362.94
714.494	3428.47
714.682	3489.91
714.869	3446.9
715.057	3453.05
715.244	3307.64
715.432	3473.53
715.619	3362.94
715.807	3334.26
715.994	3272.82
716.182	3258.49
716.369	3309.69
716.556	3291.26
716.744	3371.13
716.931	3301.5
717.119	3182.71
717.306	3158.14
717.493	3240.06
717.681	3240.06
717.868	3117.18
718.055	3125.37
718.242	3252.35
718.43	3250.3
718.617	3139.71
718.804	3088.51
718.991	3166.33
719.179	3172.47
719.366	3098.75
719.553	3088.51
719.74	2996.35
719.927	3076.22
720.114	3117.18
720.301	3051.64
720.488	3035.26
720.676	3096.7
720.863	3018.88
721.05	3090.56
721.237	3094.65
721.424	3070.08
721.611	3086.46
721.798	2834.56
721.985	2939.01
722.172	2941.05
722.358	2986.11
722.545	3043.45
722.732	2920.57
722.919	2953.34
723.106	2883.71
723.293	2889.85
723.48	2904.19
723.667	2809.98
723.853	2838.66
724.04	2977.92
724.227	2842.75
724.414	2850.94
724.6	2859.14
724.787	2701.44
724.974	2891.9
725.161	2816.13
725.347	2769.02
725.534	2848.9
725.72	2830.46
725.907	2883.71
726.094	2777.22
726.28	2793.6
726.467	2627.71
726.653	2662.53
726.84	2625.67
727.027	2756.74
727.213	2633.86
727.4	2691.2
727.586	2717.83
727.773	2646.15
727.959	2588.8
728.145	2773.12
728.332	2744.45
728.518	2650.24
728.705	2543.75
728.891	2697.35
729.077	2625.67
729.264	2560.13
729.45	2644.1
729.636	2666.63
729.823	2617.47
730.009	2535.56
730.195	2510.98
730.382	2529.41
730.568	2519.17
730.754	2568.32
730.94	2646.15
731.126	2736.26
731.313	2584.71
731.499	2535.56
731.685	2609.28
731.871	2490.5
732.057	2531.46
732.243	2574.47
732.429	2607.23
732.615	2496.64
732.801	2412.68
732.987	2449.54
733.173	2496.64
733.359	2443.4
733.545	2384.01
733.731	2412.68
733.917	2490.5
734.103	2457.73
734.289	2478.21
734.475	2318.47
734.661	2416.77
734.847	2478.21
735.033	2392.2
735.219	2322.57
735.404	2347.14
735.59	2338.95
735.776	2375.81
735.962	2441.35
736.148	2420.87
736.333	2332.81
736.519	2365.57
736.705	2205.83
736.89	2306.18
737.076	2265.22
737.262	2183.31
737.447	2254.98
737.633	2302.09
737.819	2316.42
738.004	2314.38
738.19	2230.41
738.375	2291.85
738.561	2306.18
738.747	2146.44
738.932	2160.78
739.118	2297.99
739.303	2242.7
739.489	2078.86
739.674	2275.46
739.859	2142.35
740.045	2207.88
740.23	2171.02
740.416	2093.19
740.601	2037.9
740.786	2152.59
740.972	2044.04
741.157	2158.73
741.342	2130.06
741.528	2068.62
741.713	2166.92
741.898	2037.9
742.084	2037.9
742.269	2093.19
742.454	2150.54
742.639	2046.09
742.824	1990.8
743.01	2048.14
743.195	2125.96
743.38	2136.2
743.565	2109.58
743.75	1941.65
743.935	1939.6
744.12	1974.41
744.305	1929.36
744.49	1904.78
744.675	1994.89
744.86	1929.36
745.045	1912.97
745.23	1986.7
745.415	1964.17
745.6	1863.82
745.785	1884.3
745.97	1855.63
746.155	1867.92
746.34	1908.88
746.525	1773.71
746.71	1970.32
746.895	1796.24
747.079	1863.82
747.264	1742.99
747.449	1874.06
747.634	1824.91
747.819	1781.9
748.003	1683.6
748.188	1773.71
748.373	1751.18
748.557	1611.92
748.742	1695.89
748.927	1798.29
749.111	1626.26
749.296	1599.63
749.481	1687.7
749.665	1706.13
749.85	1659.03
750.034	1591.44
750.219	1618.07
750.404	1536.15
750.588	1616.02
750.773	1566.87
750.957	1566.87
751.141	1634.45
751.326	1538.2
751.51	1568.91
751.695	1585.3
751.879	1487
752.064	1417.37
752.248	1603.73
752.432	1515.67
752.617	1458.32
752.801	1513.62
752.985	1450.13
753.17	1452.18
753.354	1390.74
753.538	1491.09
753.722	1372.31
753.907	1368.21
754.091	1388.69
754.275	1405.08
754.459	1439.89
754.643	1382.55
754.828	1317.01
755.012	1409.17
755.196	1222.81
755.38	1331.35
755.564	1300.63
755.748	1388.69
755.932	1306.77
756.116	1331.35
756.3	1284.25
756.484	1233.05
756.668	1257.62
756.852	1226.9
757.036	1181.85
757.22	1253.53
757.404	1253.53
757.588	1251.48
757.772	1183.9
757.956	1247.38
758.14	1249.43
758.323	1120.41
758.507	1167.51
758.691	1151.13
758.875	1224.86
759.059	1151.13
759.242	1192.09
759.426	1224.86
759.61	1136.79
759.794	1202.33
759.977	1163.42
760.161	1208.47
760.345	1167.51
760.528	1187.99
760.712	1052.83
760.895	1169.56
761.079	1097.88
761.263	1028.25
761.446	1104.03
761.63	1095.83
761.813	1038.49
761.997	1013.92
762.18	1073.31
762.364	1018.01
762.547	944.28
762.731	960.67
762.914	1032.35
763.098	1112.22
763.281	905.37
763.464	1077.4
763.648	1038.49
763.831	940.19
764.015	975
764.198	1003.68
764.381	1061.02
764.564	991.39
764.748	946.33
764.931	1011.87
765.114	981.15
765.297	999.58
765.481	950.43
765.664	1020.06
765.847	940.19
766.03	995.48
766.213	880.8
766.397	934.04
766.58	948.38
766.763	1011.87
766.946	946.33
767.129	850.08
767.312	995.48
767.495	876.7
767.678	874.65
767.861	905.37
768.044	888.99
768.227	856.22
768.41	888.99
768.593	843.93
768.776	878.75
768.959	802.97
769.142	934.04
769.324	909.47
769.507	856.22
769.69	821.41
769.873	833.69
770.056	975
770.239	776.35
770.421	915.61
770.604	952.48
770.787	856.22
770.97	870.56
771.152	733.34
771.335	872.61
771.518	835.74
771.7	872.61
771.883	913.56
772.066	888.99
772.248	835.74
772.431	866.46
772.613	917.66
772.796	841.89
772.978	819.36
773.161	872.61
773.343	714.91
773.526	848.03
773.708	776.35
773.891	745.63
774.073	762.02
774.256	727.2
774.438	725.15
774.621	716.96
774.803	759.97
774.985	686.24
775.168	653.47
775.35	673.95
775.532	790.69
775.715	688.29
775.897	688.29
776.079	723.1
776.261	698.53
776.444	669.86
776.626	667.81
776.808	669.86
776.99	587.94
777.173	641.18
777.355	733.34
777.537	692.38
777.719	643.23
777.901	628.9
778.083	589.99
778.265	632.99
778.447	669.86
778.629	708.77
778.811	645.28
778.993	616.61
779.175	538.79
779.357	630.95
779.539	620.71
779.721	639.14
779.903	647.33
780.085	565.41
780.267	667.81
780.449	610.47
780.631	643.23
780.812	618.66
780.994	653.47
781.176	561.31
781.358	528.55
781.54	585.89
781.721	581.79
781.903	569.51
782.085	583.84
782.267	585.89
782.448	536.74
782.63	510.11
782.812	540.83
782.993	538.79
783.175	604.32
783.357	536.74
783.538	475.3
783.72	465.06
783.901	497.83
784.083	546.98
784.264	512.16
784.446	532.64
784.627	471.2
784.809	499.88
784.99	538.79
785.172	557.22
785.353	557.22
785.535	503.97
785.716	528.55
785.897	405.67
786.079	540.83
786.26	448.68
786.441	510.11
786.623	360.61
786.804	454.82
786.985	458.92
787.167	524.45
787.348	495.78
787.529	391.33
787.71	514.21
787.891	393.38
788.073	387.24
788.254	393.38
788.435	381.09
788.616	399.52
788.797	379.04
788.978	391.33
789.159	356.52
789.34	438.44
789.522	372.9
789.703	266.41
789.884	385.19
790.065	430.24
790.246	430.24
790.427	340.13
790.607	360.61
790.788	422.05
790.969	331.94
791.15	348.33
791.331	313.51
791.512	348.33
791.693	325.8
791.874	344.23
792.054	344.23
792.235	377
792.416	315.56
792.597	293.03
792.778	360.61
792.958	381.09
793.139	331.94
793.32	280.74
793.5	321.7
793.681	389.28
793.862	340.13
794.042	309.41
794.223	221.35
794.404	278.69
794.584	245.93
794.765	250.02
794.945	317.61
795.126	309.41
795.306	311.46
795.487	317.61
795.667	258.21
795.848	333.99
796.028	284.84
796.209	374.95
796.389	303.27
796.57	202.92
796.75	204.97
796.93	309.41
797.111	215.21
797.291	266.41
797.471	295.08
797.652	250.02
797.832	204.97
798.012	258.21
798.192	161.96
798.373	331.94
798.553	268.45
798.733	284.84
798.913	168.1
799.093	284.84
799.274	245.93
799.454	366.76
799.634	229.54
799.814	266.41
799.994	276.65
800.174	266.41
800.354	250.02
800.534	143.53
800.714	290.98
800.894	233.64
801.074	227.5
801.254	186.54
801.434	262.31
801.614	217.26
801.794	217.26
801.974	876.7
802.154	190.63
802.334	241.83
802.514	184.49
802.693	231.59
802.873	225.45
803.053	264.36
803.233	299.17
803.413	168.1
803.592	184.49
803.772	176.3
803.952	250.02
804.131	174.25
804.311	225.45
804.491	217.26
804.67	258.21
804.85	196.78
805.03	192.68
805.209	204.97
805.389	153.77
805.568	200.87
805.748	274.6
805.928	227.5
806.107	286.89
806.287	192.68
806.466	252.07
806.646	213.16
806.825	166.06
807.004	151.72
807.184	204.97
807.363	155.82
807.543	94.38
807.722	170.15
807.901	268.45
808.081	223.4
808.26	123.05
808.439	186.54
808.619	153.77
808.798	200.87
808.977	164.01
809.156	170.15
809.336	204.97
809.515	258.21
809.694	164.01
809.873	77.99
810.052	202.92
810.231	239.78
810.411	164.01
810.59	266.41
810.769	178.34
810.948	196.78
811.127	200.87
811.306	129.19
811.485	133.29
811.664	217.26
811.843	164.01
812.022	174.25
812.201	86.19
812.38	145.58
812.559	151.72
812.737	135.34
812.916	143.53
813.095	161.96
813.274	143.53
813.453	71.85
813.632	143.53
813.811	84.14
813.989	192.68
814.168	159.91
814.347	184.49
814.526	73.9
814.704	200.87
814.883	121
815.062	121
815.24	96.43
815.419	125.1
815.598	125.1
815.776	118.95
815.955	159.91
816.133	94.38
816.312	129.19
816.49	145.58
816.669	90.28
816.847	131.24
817.026	149.67
817.204	94.38
817.383	114.86
817.561	110.76
817.74	112.81
817.918	133.29
818.097	49.32
818.275	153.77
818.453	186.54
818.632	94.38
818.81	127.14
818.988	102.57
819.167	118.95
819.345	94.38
819.523	135.34
819.701	121
819.879	151.72
820.058	110.76
820.236	108.71
820.414	135.34
820.592	77.99
820.77	159.91
820.948	121
821.127	166.06
821.305	139.43
821.483	121
821.661	147.62
821.839	114.86
822.017	170.15
822.195	86.19
822.373	86.19
822.551	112.81
822.729	77.99
822.907	170.15
823.085	104.62
823.262	121
823.44	49.32
823.618	102.57
823.796	53.42
823.974	106.67
824.152	63.66
824.329	86.19
824.507	131.24
824.685	127.14
824.863	41.13
825.04	139.43
825.218	137.38
825.396	106.67
825.574	155.82
825.751	110.76
825.929	102.57
826.107	12.46
826.284	131.24
826.462	73.9
826.639	-1.88
826.817	55.47
826.994	98.47
827.172	37.03
827.349	118.95
827.527	123.05
827.704	161.96
827.882	121
828.059	12.46
828.237	28.84
828.414	106.67
828.591	22.7
828.769	77.99
828.946	88.23
829.124	151.72
829.301	77.99
829.478	151.72
829.655	118.95
829.833	39.08
830.01	80.04
830.187	106.67
830.364	57.51
830.542	155.82
830.719	112.81
830.896	137.38
831.073	-1.88
831.25	110.76
831.427	114.86
831.604	84.14
831.782	53.42
831.959	77.99
832.136	10.41
832.313	118.95
832.49	18.6
832.667	106.67
832.844	37.03
833.021	80.04
833.198	45.23
833.374	90.28
833.551	77.99
833.728	77.99
833.905	67.75
834.082	4.27
834.259	53.42
834.436	168.1
834.612	73.9
834.789	32.94
834.966	98.47
835.143	14.51
835.319	6.31
835.496	86.19
835.673	104.62
835.85	116.9
836.026	12.46
836.203	26.79
836.38	-20.31
836.556	30.89
836.733	90.28
836.909	137.38
837.086	16.55
837.262	4.27
837.439	71.85
837.616	4.27
837.792	86.19
837.968	-8.02
838.145	45.23
838.321	53.42
838.498	24.75
838.674	98.47
838.851	24.75
839.027	77.99
839.203	102.57
839.38	63.66
839.556	20.65
839.732	92.33
839.909	24.75
840.085	20.65
840.261	10.41
840.437	4.27
840.614	73.9
840.79	151.72
840.966	34.99
841.142	6.31
841.318	53.42
841.494	-12.12
841.671	32.94
841.847	45.23
842.023	26.79
842.199	77.99
842.375	53.42
842.551	-3.93
842.727	90.28
842.903	123.05
843.079	6.31
843.255	49.32
843.431	110.76
843.607	18.6
843.783	8.36
843.959	168.1
844.134	-12.12
844.31	129.19
844.486	32.94
844.662	28.84
844.838	55.47
845.013	43.18
845.189	53.42
845.365	55.47
845.541	43.18
845.716	16.55
845.892	59.56
846.068	57.51
846.244	43.18
846.419	55.47
846.595	30.89
846.77	37.03
846.946	80.04
847.122	32.94
847.297	41.13
847.473	53.42
847.648	20.65
847.824	86.19
847.999	-32.6
848.175	47.27
848.35	69.8
848.526	45.23
848.701	57.51
848.876	139.43
849.052	47.27
849.227	55.47
849.403	82.09
849.578	20.65
849.753	71.85
849.929	32.94
850.104	61.61
850.279	45.23
850.454	77.99
850.63	47.27
850.805	45.23
850.98	53.42
851.155	41.13
851.33	20.65
851.505	6.31
851.681	71.85
851.856	-1.88
852.031	28.84
852.206	43.18
852.381	45.23
852.556	-32.6
852.731	88.23
852.906	22.7
853.081	32.94
853.256	37.03
853.431	39.08
853.606	37.03
853.781	82.09
853.956	20.65
854.131	-16.21
854.305	26.79
854.48	12.46
854.655	57.51
854.83	18.6
855.005	-32.6
855.18	55.47
855.354	65.71
855.529	77.99
855.704	47.27
855.879	24.75
856.053	39.08
856.228	92.33
856.403	22.7
856.577	-1.88
856.752	-28.5
856.926	69.8
857.101	37.03
857.276	37.03
857.45	16.55
857.625	41.13
857.799	53.42
857.974	4.27
858.148	-34.64
858.323	86.19
858.497	28.84
858.672	-5.97
858.846	-32.6
859.02	6.31
859.195	-3.93
859.369	28.84
859.543	-10.07
859.718	77.99
859.892	47.27
860.066	30.89
860.241	53.42
860.415	-3.93
860.589	-73.56
860.763	28.84
860.938	69.8
861.112	96.43
861.286	6.31
861.46	77.99
861.634	-75.6
861.808	77.99
861.982	-65.36
862.157	6.31
862.331	-3.93
862.505	-8.02
862.679	-12.12
862.853	69.8
863.027	-12.12
863.201	88.23
863.375	61.61
863.549	-8.02
863.722	-30.55
863.896	30.89
864.07	-20.31
864.244	57.51
864.418	55.47
864.592	8.36
864.766	8.36
864.939	45.23
865.113	-40.79
865.287	45.23
865.461	-20.31
865.634	-26.45
865.808	4.27
865.982	-5.97
866.156	-34.64
866.329	8.36
866.503	16.55
866.676	-26.45
866.85	45.23
867.024	-18.26
867.197	37.03
867.371	69.8
867.544	80.04
867.718	-102.23
867.891	45.23
868.065	-40.79
868.238	-44.88
868.412	127.14
868.585	-20.31
868.759	-14.17
868.932	61.61
869.105	-12.12
869.279	-34.64
869.452	0.17
869.625	-85.84
869.799	24.75
869.972	-1.88
870.145	4.27
870.319	20.65
870.492	4.27
870.665	10.41
870.838	26.79
871.011	-77.65
871.185	-34.64
871.358	-73.56
871.531	-26.45
871.704	71.85
871.877	-12.12
872.05	-42.84
872.223	2.22
872.396	-20.31
872.569	-14.17
872.742	-85.84
872.915	-28.5
873.088	24.75
873.261	-34.64
873.434	39.08
873.607	6.31
873.78	69.8
873.953	65.71
874.126	20.65
874.299	45.23
874.471	32.94
874.644	41.13
874.817	12.46
874.99	73.9
875.163	-24.4
875.335	63.66
875.508	4.27
875.681	12.46
875.853	34.99
876.026	-42.84
876.199	82.09
876.371	12.46
876.544	18.6
876.717	-26.45
876.889	24.75
877.062	-12.12
877.234	-20.31
877.407	-36.69
877.579	-3.93
877.752	28.84
877.924	37.03
878.097	-26.45
878.269	98.47
878.442	4.27
878.614	-12.12
878.786	0.17
878.959	-3.93
879.131	20.65
879.303	-20.31
879.476	47.27
879.648	47.27
879.82	22.7
879.993	0.17
880.165	34.99
880.337	10.41
880.509	-12.12
880.681	-79.7
880.854	43.18
881.026	47.27
881.198	55.47
881.37	-40.79
881.542	-10.07
881.714	32.94
881.886	-16.21
882.058	41.13
882.23	59.56
882.402	-98.13
882.574	-24.4
882.746	-36.69
882.918	41.13
883.09	6.31
883.262	-10.07
883.434	22.7
883.606	-38.74
883.778	24.75
883.95	86.19
884.122	4.27
884.293	24.75
884.465	47.27
884.637	-20.31
884.809	-51.03
884.98	-32.6
885.152	73.9
885.324	-16.21
885.496	-20.31
885.667	-61.27
885.839	-44.88
886.011	4.27
886.182	12.46
886.354	32.94
886.525	94.38
886.697	-12.12
886.869	-100.18
887.04	63.66
887.212	53.42
887.383	20.65
887.555	8.36
887.726	-14.17
887.897	-3.93
888.069	63.66
888.24	12.46
888.412	10.41
888.583	49.32
888.754	12.46
888.926	-59.22
889.097	12.46
889.268	-81.75
889.44	39.08
889.611	-69.46
889.782	-20.31
889.953	0.17
890.125	55.47
890.296	-69.46
890.467	14.51
890.638	-36.69
890.809	-28.5
890.98	-55.12
891.151	0.17
891.323	28.84
891.494	24.75
891.665	-26.45
891.836	-36.69
892.007	-32.6
892.178	20.65
892.349	8.36
892.52	-51.03
892.691	-42.84
892.862	22.7
893.032	-65.36
893.203	-14.17
893.374	-40.79
893.545	37.03
893.716	4.27
893.887	-26.45
894.057	-30.55
894.228	-42.84
894.399	-1.88
894.57	34.99
894.74	-28.5
894.911	12.46
895.082	4.27
895.253	-48.98
895.423	-18.26
895.594	-12.12
895.764	-12.12
895.935	-36.69
896.106	37.03
896.276	16.55
896.447	-36.69
896.617	49.32
896.788	-22.36
896.958	18.6
897.129	-42.84
897.299	-59.22
897.47	-20.31
897.64	94.38
897.81	-48.98
897.981	-12.12
898.151	-1.88
898.322	32.94
898.492	-42.84
898.662	10.41
898.832	-57.17
899.003	-20.31
899.173	-46.93
899.343	28.84
899.513	16.55
