Data from USB4F104151__58__14-30-05-859.txt Node

Date: Thu Mar 13 14:30:05 EDT 2025
User: louis
Spectrometer: USB4F10415
Trigger mode: 4
Integration Time (sec): 2.500000E-2
Scans to average: 1
Electric dark correction enabled: true
Nonlinearity correction enabled: false
Boxcar width: 0
XAxis mode: Wavelengths
Number of Pixels in Spectrum: 3648
>>>>>Begin Spectral Data<<<<<
178.204	-184.32
178.424	-184.32
178.644	-184.32
178.864	-124.93
179.084	-188.41
179.304	-57.34
179.524	-12.29
179.744	-63.49
179.964	-4.1
180.184	86.01
180.404	-4.1
180.624	-4.1
180.844	2.05
181.064	-30.72
181.283	88.06
181.503	-26.62
181.723	26.62
181.943	-47.1
182.163	79.87
182.383	-75.77
182.602	43.01
182.822	18.43
183.042	12.29
183.262	-53.25
183.482	14.34
183.701	-63.49
183.921	10.24
184.141	10.24
184.361	30.72
184.58	47.1
184.8	71.68
185.02	-36.86
185.239	59.39
185.459	22.53
185.679	88.06
185.898	-86.01
186.118	-36.86
186.338	12.29
186.557	-30.72
186.777	-26.62
186.997	45.06
187.216	12.29
187.436	57.34
187.655	20.48
187.875	-0
188.095	-0
188.314	47.1
188.534	55.3
188.753	2.05
188.973	-6.14
189.192	116.73
189.412	4.1
189.631	-4.1
189.851	18.43
190.07	34.82
190.29	-12.29
190.509	18.43
190.729	-75.77
190.948	77.82
191.168	141.31
191.387	43.01
191.607	47.1
191.826	-6.14
192.045	22.53
192.265	18.43
192.484	34.82
192.704	20.48
192.923	-51.2
193.142	57.34
193.362	10.24
193.581	108.54
193.8	6.14
194.02	55.3
194.239	71.68
194.458	26.62
194.678	-18.43
194.897	100.35
195.116	53.25
195.335	51.2
195.555	67.58
195.774	-34.82
195.993	75.77
196.212	10.24
196.432	-6.14
196.651	20.48
196.87	-10.24
197.089	59.39
197.308	96.25
197.528	67.58
197.747	-24.58
197.966	12.29
198.185	43.01
198.404	-12.29
198.623	-36.86
198.842	90.11
199.062	4.1
199.281	75.77
199.5	32.77
199.719	34.82
199.938	79.87
200.157	110.59
200.376	69.63
200.595	57.34
200.814	83.97
201.033	-14.34
201.252	69.63
201.471	71.68
201.69	100.35
201.909	43.01
202.128	79.87
202.347	61.44
202.566	18.43
202.785	-14.34
203.004	-47.1
203.223	69.63
203.442	10.24
203.661	43.01
203.879	2.05
204.098	12.29
204.317	-6.14
204.536	-26.62
204.755	65.53
204.974	53.25
205.193	108.54
205.411	69.63
205.63	81.92
205.849	10.24
206.068	-2.05
206.287	2.05
206.505	100.35
206.724	40.96
206.943	55.3
207.162	-6.14
207.381	6.14
207.599	34.82
207.818	83.97
208.037	-16.38
208.255	20.48
208.474	45.06
208.693	-8.19
208.911	-8.19
209.13	34.82
209.349	-8.19
209.567	34.82
209.786	30.72
210.005	4.1
210.223	26.62
210.442	32.77
210.661	34.82
210.879	26.62
211.098	24.58
211.316	26.62
211.535	104.45
211.753	71.68
211.972	14.34
212.191	-26.62
212.409	6.14
212.628	51.2
212.846	34.82
213.065	28.67
213.283	-0
213.502	10.24
213.72	63.49
213.938	-6.14
214.157	-18.43
214.375	-55.3
214.594	-79.87
214.812	-22.53
215.031	-8.19
215.249	-53.25
215.467	16.38
215.686	6.14
215.904	67.58
216.122	75.77
216.341	86.01
216.559	-12.29
216.778	57.34
216.996	49.15
217.214	32.77
217.432	83.97
217.651	59.39
217.869	22.53
218.087	34.82
218.306	38.91
218.524	2.05
218.742	-22.53
218.96	45.06
219.179	55.3
219.397	28.67
219.615	92.16
219.833	8.19
220.051	-4.1
220.27	34.82
220.488	10.24
220.706	43.01
220.924	32.77
221.142	67.58
221.36	30.72
221.578	28.67
221.796	26.62
222.015	67.58
222.233	26.62
222.451	75.77
222.669	-53.25
222.887	10.24
223.105	30.72
223.323	-10.24
223.541	79.87
223.759	88.06
223.977	-30.72
224.195	51.2
224.413	77.82
224.631	-14.34
224.849	51.2
225.067	67.58
225.285	-30.72
225.503	55.3
225.721	-28.67
225.939	20.48
226.157	-14.34
226.375	100.35
226.592	-30.72
226.81	67.58
227.028	47.1
227.246	145.41
227.464	-77.82
227.682	22.53
227.9	24.58
228.117	34.82
228.335	38.91
228.553	61.44
228.771	10.24
228.989	4.1
229.206	-10.24
229.424	34.82
229.642	59.39
229.86	26.62
230.077	-8.19
230.295	69.63
230.513	102.4
230.731	34.82
230.948	43.01
231.166	94.21
231.384	67.58
231.601	-6.14
231.819	26.62
232.037	22.53
232.254	-32.77
232.472	18.43
232.689	36.86
232.907	10.24
233.125	14.34
233.342	34.82
233.56	18.43
233.777	2.05
233.995	22.53
234.213	59.39
234.43	53.25
234.648	71.68
234.865	4.1
235.083	59.39
235.3	18.43
235.518	18.43
235.735	104.45
235.953	10.24
236.17	22.53
236.388	10.24
236.605	-24.58
236.822	83.97
237.04	20.48
237.257	59.39
237.475	10.24
237.692	-8.19
237.909	83.97
238.127	-4.1
238.344	34.82
238.562	-28.67
238.779	-75.77
238.996	-30.72
239.214	75.77
239.431	79.87
239.648	4.1
239.865	38.91
240.083	79.87
240.3	-6.14
240.517	47.1
240.735	4.1
240.952	51.2
241.169	-38.91
241.386	59.39
241.603	26.62
241.821	-34.82
242.038	4.1
242.255	2.05
242.472	-2.05
242.689	30.72
242.907	18.43
243.124	4.1
243.341	83.97
243.558	2.05
243.775	61.44
243.992	-6.14
244.209	6.14
244.426	77.82
244.643	67.58
244.86	86.01
245.078	-34.82
245.295	2.05
245.512	8.19
245.729	26.62
245.946	4.1
246.163	18.43
246.38	69.63
246.597	28.67
246.814	43.01
247.031	4.1
247.248	137.21
247.464	55.3
247.681	30.72
247.898	14.34
248.115	73.73
248.332	14.34
248.549	106.49
248.766	145.41
248.983	59.39
249.2	18.43
249.417	59.39
249.633	-40.96
249.85	26.62
250.067	43.01
250.284	104.45
250.501	43.01
250.717	2.05
250.934	-30.72
251.151	51.2
251.368	59.39
251.585	59.39
251.801	45.06
252.018	51.2
252.235	116.73
252.451	-38.91
252.668	-38.91
252.885	34.82
253.102	-30.72
253.318	40.96
253.535	38.91
253.752	2.05
253.968	-30.72
254.185	-40.96
254.401	43.01
254.618	100.35
254.835	14.34
255.051	67.58
255.268	69.63
255.484	51.2
255.701	-6.14
255.917	-12.29
256.134	6.14
256.351	43.01
256.567	6.14
256.784	28.67
257	-2.05
257.217	53.25
257.433	34.82
257.65	45.06
257.866	32.77
258.082	-18.43
258.299	38.91
258.515	20.48
258.732	-45.06
258.948	30.72
259.165	59.39
259.381	10.24
259.597	-18.43
259.814	51.2
260.03	2.05
260.246	88.06
260.463	120.83
260.679	63.49
260.895	10.24
261.112	-28.67
261.328	4.1
261.544	-14.34
261.761	34.82
261.977	-14.34
262.193	-45.06
262.409	63.49
262.626	55.3
262.842	43.01
263.058	-12.29
263.274	51.2
263.49	32.77
263.707	59.39
263.923	53.25
264.139	47.1
264.355	47.1
264.571	36.86
264.787	49.15
265.004	32.77
265.22	69.63
265.436	22.53
265.652	34.82
265.868	12.29
266.084	-14.34
266.3	14.34
266.516	-14.34
266.732	4.1
266.948	92.16
267.164	28.67
267.38	20.48
267.596	108.54
267.812	51.2
268.028	18.43
268.244	2.05
268.46	45.06
268.676	26.62
268.892	-6.14
269.108	-24.58
269.324	10.24
269.54	-2.05
269.756	20.48
269.972	34.82
270.188	-61.44
270.403	-18.43
270.619	-55.3
270.835	43.01
271.051	26.62
271.267	-86.01
271.483	-6.14
271.698	86.01
271.914	90.11
272.13	-26.62
272.346	4.1
272.562	22.53
272.777	38.91
272.993	10.24
273.209	110.59
273.425	14.34
273.64	63.49
273.856	-6.14
274.072	77.82
274.287	34.82
274.503	36.86
274.719	43.01
274.934	133.12
275.15	-47.1
275.366	59.39
275.581	2.05
275.797	102.4
276.012	-83.97
276.228	92.16
276.444	-38.91
276.659	22.53
276.875	-12.29
277.09	94.21
277.306	-36.86
277.521	71.68
277.737	14.34
277.952	8.19
278.168	-63.49
278.383	69.63
278.599	10.24
278.814	92.16
279.03	-4.1
279.245	135.17
279.461	6.14
279.676	141.31
279.892	-16.38
280.107	43.01
280.322	-12.29
280.538	-22.53
280.753	40.96
280.969	12.29
281.184	-8.19
281.399	38.91
281.615	55.3
281.83	65.53
282.045	-30.72
282.26	24.58
282.476	47.1
282.691	6.14
282.906	-28.67
283.122	26.62
283.337	-0
283.552	2.05
283.767	73.73
283.983	75.77
284.198	-28.67
284.413	104.45
284.628	40.96
284.843	6.14
285.058	26.62
285.274	-14.34
285.489	-4.1
285.704	59.39
285.919	4.1
286.134	63.49
286.349	94.21
286.564	2.05
286.779	28.67
286.995	-47.1
287.21	-18.43
287.425	77.82
287.64	2.05
287.855	18.43
288.07	-14.34
288.285	38.91
288.5	75.77
288.715	43.01
288.93	-6.14
289.145	63.49
289.36	133.12
289.575	-12.29
289.79	36.86
290.004	26.62
290.219	28.67
290.434	47.1
290.649	-20.48
290.864	10.24
291.079	45.06
291.294	-16.38
291.509	-6.14
291.724	28.67
291.938	49.15
292.153	-20.48
292.368	53.25
292.583	53.25
292.798	18.43
293.012	55.3
293.227	55.3
293.442	18.43
293.657	38.91
293.871	6.14
294.086	108.54
294.301	83.97
294.516	51.2
294.73	-6.14
294.945	-14.34
295.16	6.14
295.374	22.53
295.589	40.96
295.804	55.3
296.018	30.72
296.233	77.82
296.447	8.19
296.662	-14.34
296.877	96.25
297.091	20.48
297.306	32.77
297.52	30.72
297.735	36.86
297.949	51.2
298.164	45.06
298.378	26.62
298.593	-22.53
298.807	24.58
299.022	36.86
299.236	59.39
299.451	-10.24
299.665	65.53
299.88	55.3
300.094	61.44
300.309	-4.1
300.523	94.21
300.737	20.48
300.952	67.58
301.166	32.77
301.381	22.53
301.595	14.34
301.809	28.67
302.024	83.97
302.238	79.87
302.452	135.17
302.667	12.29
302.881	165.89
303.095	51.2
303.309	2.05
303.524	-47.1
303.738	53.25
303.952	49.15
304.166	24.58
304.381	-22.53
304.595	153.6
304.809	12.29
305.023	34.82
305.237	18.43
305.452	26.62
305.666	45.06
305.88	79.87
306.094	92.16
306.308	108.54
306.522	100.35
306.736	36.86
306.95	38.91
307.164	12.29
307.379	-14.34
307.593	63.49
307.807	59.39
308.021	18.43
308.235	12.29
308.449	-53.25
308.663	67.58
308.877	116.73
309.091	18.43
309.305	59.39
309.519	-40.96
309.733	61.44
309.947	-14.34
310.161	102.4
310.374	30.72
310.588	53.25
310.802	16.38
311.016	53.25
311.23	34.82
311.444	-12.29
311.658	83.97
311.872	-55.3
312.085	34.82
312.299	92.16
312.513	59.39
312.727	-49.15
312.941	-40.96
313.154	79.87
313.368	-6.14
313.582	49.15
313.796	51.2
314.009	18.43
314.223	14.34
314.437	51.2
314.651	106.49
314.864	-55.3
315.078	83.97
315.292	-24.58
315.505	18.43
315.719	30.72
315.933	51.2
316.146	-55.3
316.36	28.67
316.573	61.44
316.787	108.54
317.001	12.29
317.214	-14.34
317.428	43.01
317.641	20.48
317.855	83.97
318.068	28.67
318.282	81.92
318.495	55.3
318.709	67.58
318.922	12.29
319.136	22.53
319.349	141.31
319.563	16.38
319.776	38.91
319.99	-20.48
320.203	104.45
320.417	22.53
320.63	18.43
320.843	83.97
321.057	22.53
321.27	47.1
321.483	53.25
321.697	43.01
321.91	47.1
322.124	32.77
322.337	63.49
322.55	104.45
322.763	79.87
322.977	118.78
323.19	2.05
323.403	43.01
323.617	67.58
323.83	55.3
324.043	-12.29
324.256	12.29
324.469	43.01
324.683	63.49
324.896	-55.3
325.109	-14.34
325.322	-34.82
325.535	118.78
325.748	20.48
325.962	-18.43
326.175	47.1
326.388	53.25
326.601	55.3
326.814	30.72
327.027	47.1
327.24	67.58
327.453	67.58
327.666	-36.86
327.879	145.41
328.092	28.67
328.305	98.3
328.518	26.62
328.731	10.24
328.944	104.45
329.157	18.43
329.37	59.39
329.583	79.87
329.796	57.34
330.009	-26.62
330.222	45.06
330.435	34.82
330.648	14.34
330.861	53.25
331.073	10.24
331.286	69.63
331.499	77.82
331.712	-4.1
331.925	67.58
332.138	86.01
332.35	100.35
332.563	43.01
332.776	-4.1
332.989	-24.58
333.202	-6.14
333.414	18.43
333.627	104.45
333.84	22.53
334.053	102.4
334.265	-22.53
334.478	34.82
334.691	-6.14
334.903	-2.05
335.116	26.62
335.329	24.58
335.541	14.34
335.754	73.73
335.966	-0
336.179	53.25
336.392	38.91
336.604	-0
336.817	-20.48
337.029	90.11
337.242	-12.29
337.454	75.77
337.667	12.29
337.88	77.82
338.092	14.34
338.305	36.86
338.517	75.77
338.729	43.01
338.942	86.01
339.154	-67.58
339.367	34.82
339.579	18.43
339.792	-71.68
340.004	28.67
340.217	8.19
340.429	28.67
340.641	51.2
340.854	49.15
341.066	-0
341.278	79.87
341.491	108.54
341.703	38.91
341.915	-57.34
342.128	30.72
342.34	61.44
342.552	63.49
342.764	79.87
342.977	10.24
343.189	100.35
343.401	86.01
343.613	18.43
343.826	86.01
344.038	2.05
344.25	14.34
344.462	36.86
344.674	67.58
344.886	38.91
345.099	10.24
345.311	102.4
345.523	83.97
345.735	-8.19
345.947	34.82
346.159	73.73
346.371	106.49
346.583	112.64
346.795	116.73
347.007	32.77
347.219	18.43
347.431	40.96
347.643	67.58
347.855	77.82
348.067	26.62
348.279	-12.29
348.491	96.25
348.703	26.62
348.915	24.58
349.127	88.06
349.339	18.43
349.551	45.06
349.763	43.01
349.975	22.53
350.187	53.25
350.399	18.43
350.61	55.3
350.822	22.53
351.034	83.97
351.246	-4.1
351.458	14.34
351.669	18.43
351.881	79.87
352.093	172.03
352.305	57.34
352.517	-24.58
352.728	65.53
352.94	59.39
353.152	75.77
353.363	43.01
353.575	14.34
353.787	86.01
353.999	38.91
354.21	88.06
354.422	-34.82
354.633	51.2
354.845	43.01
355.057	-14.34
355.268	63.49
355.48	69.63
355.692	16.38
355.903	16.38
356.115	79.87
356.326	-75.77
356.538	102.4
356.749	92.16
356.961	69.63
357.172	67.58
357.384	26.62
357.595	71.68
357.807	51.2
358.018	-8.19
358.23	65.53
358.441	118.78
358.653	81.92
358.864	38.91
359.075	6.14
359.287	-24.58
359.498	49.15
359.709	-30.72
359.921	55.3
360.132	83.97
360.344	20.48
360.555	6.14
360.766	18.43
360.977	12.29
361.189	51.2
361.4	55.3
361.611	-8.19
361.823	96.25
362.034	45.06
362.245	43.01
362.456	26.62
362.667	100.35
362.879	49.15
363.09	116.73
363.301	53.25
363.512	116.73
363.723	114.69
363.935	26.62
364.146	47.1
364.357	26.62
364.568	34.82
364.779	30.72
364.99	51.2
365.201	2.05
365.412	34.82
365.623	-34.82
365.834	34.82
366.045	-6.14
366.256	30.72
366.467	59.39
366.678	22.53
366.889	51.2
367.1	20.48
367.311	75.77
367.522	69.63
367.733	92.16
367.944	10.24
368.155	61.44
368.366	26.62
368.577	94.21
368.788	100.35
368.999	-2.05
369.209	86.01
369.42	145.41
369.631	141.31
369.842	110.59
370.053	69.63
370.264	59.39
370.474	36.86
370.685	28.67
370.896	-14.34
371.107	28.67
371.317	47.1
371.528	-32.77
371.739	51.2
371.95	51.2
372.16	18.43
372.371	10.24
372.582	57.34
372.792	79.87
373.003	43.01
373.214	75.77
373.424	14.34
373.635	57.34
373.846	118.78
374.056	-8.19
374.267	-2.05
374.477	32.77
374.688	43.01
374.898	2.05
375.109	108.54
375.319	36.86
375.53	118.78
375.74	86.01
375.951	-6.14
376.161	47.1
376.372	96.25
376.582	59.39
376.793	55.3
377.003	75.77
377.214	102.4
377.424	28.67
377.635	81.92
377.845	-0
378.055	79.87
378.266	-4.1
378.476	45.06
378.686	139.26
378.897	83.97
379.107	20.48
379.317	59.39
379.528	47.1
379.738	96.25
379.948	36.86
380.158	43.01
380.369	59.39
380.579	36.86
380.789	108.54
380.999	83.97
381.21	79.87
381.42	116.73
381.63	53.25
381.84	69.63
382.05	26.62
382.261	26.62
382.471	96.25
382.681	83.97
382.891	151.55
383.101	22.53
383.311	73.73
383.521	67.58
383.731	26.62
383.941	129.02
384.151	69.63
384.361	79.87
384.571	67.58
384.781	30.72
384.991	120.83
385.201	118.78
385.411	18.43
385.621	86.01
385.831	10.24
386.041	120.83
386.251	53.25
386.461	96.25
386.671	102.4
386.881	18.43
387.091	63.49
387.301	94.21
387.511	22.53
387.72	69.63
387.93	108.54
388.14	14.34
388.35	67.58
388.56	98.3
388.769	45.06
388.979	63.49
389.189	51.2
389.399	88.06
389.609	71.68
389.818	51.2
390.028	69.63
390.238	20.48
390.447	47.1
390.657	53.25
390.867	-22.53
391.076	8.19
391.286	67.58
391.496	38.91
391.705	53.25
391.915	57.34
392.125	75.77
392.334	-6.14
392.544	143.36
392.753	36.86
392.963	12.29
393.172	49.15
393.382	96.25
393.591	108.54
393.801	63.49
394.01	94.21
394.22	24.58
394.429	67.58
394.639	135.17
394.848	67.58
395.058	69.63
395.267	129.02
395.477	137.21
395.686	75.77
395.895	141.31
396.105	94.21
396.314	147.45
396.524	43.01
396.733	86.01
396.942	108.54
397.152	124.93
397.361	165.89
397.57	83.97
397.78	137.21
397.989	79.87
398.198	151.55
398.407	174.08
398.617	83.97
398.826	157.69
399.035	112.64
399.244	55.3
399.453	112.64
399.663	112.64
399.872	172.03
400.081	79.87
400.29	165.89
400.499	108.54
400.708	157.69
400.917	116.73
401.127	116.73
401.336	124.93
401.545	192.51
401.754	100.35
401.963	135.17
402.172	141.31
402.381	141.31
402.59	159.74
402.799	112.64
403.008	174.08
403.217	169.98
403.426	120.83
403.635	77.82
403.844	223.23
404.053	112.64
404.262	137.21
404.471	212.99
404.68	149.5
404.888	165.89
405.097	165.89
405.306	159.74
405.515	260.09
405.724	184.32
405.933	237.56
406.142	237.56
406.35	309.24
406.559	333.82
406.768	155.65
406.977	249.85
407.185	274.43
407.394	245.76
407.603	225.28
407.812	215.04
408.02	268.28
408.229	233.47
408.438	206.84
408.646	270.33
408.855	231.42
409.064	323.58
409.272	256
409.481	350.2
409.69	284.67
409.898	292.86
410.107	399.35
410.315	370.68
410.524	358.39
410.733	389.11
410.941	342.01
411.15	411.64
411.358	507.9
411.567	511.99
411.775	423.93
411.984	464.89
412.192	585.72
412.401	569.34
412.609	534.52
412.818	626.68
413.026	661.49
413.234	610.29
413.443	591.86
413.651	649.21
413.86	645.11
414.068	727.03
414.276	823.28
414.485	784.37
414.693	794.61
414.901	903.15
415.11	919.54
415.318	876.53
415.526	917.49
415.734	897.01
415.943	927.73
416.151	1034.22
416.359	1030.13
416.567	1050.61
416.776	1136.62
416.984	1157.1
417.192	1232.88
417.4	1226.73
417.608	1284.08
417.817	1378.28
418.025	1361.9
418.233	1378.28
418.441	1472.49
418.649	1452.01
418.857	1607.66
419.065	1578.98
419.273	1566.7
419.481	1609.7
419.689	1677.29
419.897	1787.88
420.105	1804.26
420.313	1886.18
420.521	1955.81
420.729	1906.66
420.937	1980.39
421.145	2107.36
421.353	2140.13
421.561	2271.2
421.769	2412.51
421.977	2443.23
422.185	2385.88
422.393	2547.67
422.601	2734.04
422.809	2904.02
423.017	2797.53
423.224	2871.25
423.432	3045.33
423.64	3033.04
423.848	3377.1
424.056	3211.21
424.263	3446.73
424.471	3483.59
424.679	3592.14
424.887	3712.97
425.094	3852.23
425.302	3811.27
425.51	3903.43
425.718	4130.75
425.925	4241.34
426.133	4337.6
426.341	4571.07
426.548	4745.14
426.756	4749.24
426.964	4919.22
427.171	5064.63
427.379	5158.83
427.586	5261.23
427.794	5527.47
428.001	5611.43
428.209	5814.18
428.417	5857.19
428.624	6211.49
428.832	6297.5
429.039	6188.96
429.247	6225.82
429.454	6678.43
429.662	7106.45
429.869	6748.06
430.076	7163.79
430.284	6879.13
430.491	7464.85
430.699	7894.92
430.906	7704.46
431.114	7974.79
431.321	8083.33
431.528	8413.06
431.736	8908.66
431.943	9111.41
432.15	9103.22
432.358	9043.83
432.565	9596.78
432.772	9310.07
432.979	10047.33
433.187	10225.51
433.394	10340.19
433.601	10782.56
433.808	11073.37
434.016	10854.23
434.223	11407.19
434.43	12031.82
434.637	11689.81
434.844	12437.31
435.052	12898.11
435.259	12607.3
435.466	12939.07
435.673	12773.18
435.88	13424.44
436.087	14264.1
436.294	14122.79
436.501	13715.25
436.708	14022.44
436.915	14755.61
437.122	15300.37
437.329	15075.1
437.537	15451.92
437.743	15779.6
437.95	15795.98
438.157	16787.2
438.364	16996.09
438.571	16998.14
438.778	17104.64
438.985	18654.95
439.192	17833.71
439.399	18829.02
439.606	17966.83
439.813	18972.38
440.02	20154.06
440.227	19805.91
440.433	19637.97
440.64	20342.47
440.847	20233.93
441.054	20817.6
441.261	22165.17
441.467	21980.85
441.674	22292.14
441.881	22875.81
442.088	22746.79
442.294	22888.1
442.501	23328.41
442.708	23985.81
442.914	24942.21
443.121	25794.17
443.328	25044.61
443.534	26680.94
443.741	25771.64
443.948	25861.75
444.154	27745.88
444.361	27508.32
444.568	27721.31
444.774	27596.38
444.981	27717.21
445.187	28800.58
445.394	29386.3
445.6	29607.48
445.807	32335.38
446.013	30832.17
446.22	31364.64
446.426	32538.13
446.633	32960.01
446.839	33967.61
447.046	32646.67
447.252	34549.23
447.459	34102.78
447.665	34139.64
447.871	35911.13
448.078	37408.2
448.284	35651.04
448.491	36746.7
448.697	37719.49
448.903	38407.61
449.11	38571.44
449.316	38028.73
449.522	38913.45
449.728	39536.04
449.935	40224.15
450.141	40205.72
450.347	40998.29
450.553	39638.44
450.76	40283.55
450.966	41432.46
451.172	40893.84
451.378	42296.7
451.584	40938.9
451.791	42442.1
451.997	42134.91
452.203	42876.27
452.409	42763.64
452.615	42214.78
452.821	41121.16
453.027	40258.97
453.233	42435.96
453.44	40779.15
453.646	41518.47
453.852	41600.39
454.058	42067.33
454.264	40889.74
454.47	42026.37
454.676	40551.83
454.882	42245.5
455.088	38739.38
455.294	39177.64
455.5	39882.14
455.705	39654.82
455.911	38944.17
456.117	38012.35
456.323	37205.45
456.529	34979.31
456.735	36779.47
456.941	35567.07
457.147	35040.75
457.352	34319.86
457.558	34072.06
457.764	33977.85
457.97	33271.3
458.176	32540.18
458.381	32761.36
458.587	30957.1
458.793	30963.24
458.999	29371.97
459.204	31643.17
459.41	30553.65
459.616	28440.14
459.821	28497.49
460.027	28354.13
460.233	27782.74
460.438	26259.06
460.644	26383.98
460.85	25464.44
461.055	24895.11
461.261	24925.83
461.466	22894.24
461.672	22496.94
461.878	23817.88
462.083	22738.6
462.289	22144.69
462.494	21790.39
462.7	20819.65
462.905	20033.23
463.111	20870.85
463.316	21038.78
463.522	20455.11
463.727	20489.93
463.932	20467.4
464.138	20035.28
464.343	20491.98
464.549	19560.15
464.754	20414.15
464.959	20459.21
465.165	20080.33
465.37	19107.55
465.575	18669.28
465.781	19637.97
465.986	19433.18
466.191	18712.29
466.397	18325.22
466.602	17411.83
466.807	18087.66
467.012	18243.31
467.218	17981.17
467.423	17954.54
467.628	17975.02
467.833	18329.32
468.038	17946.35
468.244	17387.25
468.449	17823.47
468.654	17467.13
468.859	17387.25
469.064	17092.35
469.269	16600.83
469.474	16527.11
469.679	16955.13
469.885	16486.15
470.09	16699.14
470.295	16656.13
470.5	16201.48
470.705	16457.48
470.91	15853.33
471.115	15763.22
471.32	16197.38
471.525	15841.04
471.73	15634.19
471.935	15318.81
472.139	14796.57
472.344	15120.15
472.549	14997.28
472.754	14853.92
472.959	14538.53
473.164	14300.97
473.369	14161.7
473.574	14538.53
473.778	14407.46
473.983	14141.22
474.188	14243.62
474.393	13625.14
474.598	13428.53
474.802	13313.84
475.007	13328.18
475.212	13391.67
475.417	12785.47
475.621	12908.35
475.826	13031.23
476.031	12617.54
476.235	12676.93
476.44	12652.35
476.645	12179.27
476.849	12302.15
477.054	12085.06
477.259	12189.51
477.463	12019.53
477.668	11753.29
477.872	11880.27
478.077	11577.17
478.282	11257.68
478.486	11292.5
478.691	11302.74
478.895	11413.33
479.1	11298.64
479.304	11548.5
479.509	10585.95
479.713	11192.15
479.918	10698.59
480.122	10530.66
480.326	10930.01
480.531	10725.21
480.735	10495.84
480.94	10483.55
481.144	10815.32
481.348	10260.32
481.553	10465.12
481.757	10245.99
481.961	10456.93
482.166	10557.28
482.37	10454.88
482.574	10192.74
482.778	10129.25
482.983	10446.69
483.187	10307.43
483.391	10366.82
483.595	10260.32
483.8	10004.33
484.004	10186.6
484.208	10430.3
484.412	10207.08
484.616	10454.88
484.821	10327.91
485.025	9873.26
485.229	10073.96
485.433	10084.2
485.637	10250.08
485.841	9992.04
486.045	10147.69
486.249	10280.8
486.453	10233.7
486.657	10170.21
486.861	10127.21
487.065	9762.67
487.269	10137.45
487.473	9973.61
487.677	10231.65
487.881	10127.21
488.085	10020.71
488.289	10291.04
488.493	10147.69
488.697	10004.33
488.901	10143.59
489.105	10078.05
489.309	10045.29
489.512	10254.18
489.716	10426.21
489.92	10063.72
490.124	10291.04
490.328	10471.26
490.531	10190.69
490.735	10354.53
490.939	10448.74
491.143	10233.7
491.346	10358.63
491.55	10463.07
491.754	10315.62
491.958	10538.85
492.161	10577.76
492.365	10555.23
492.569	10514.27
492.772	10631.01
492.976	10471.26
493.18	10618.72
493.383	10782.56
493.587	10901.34
493.79	10800.99
493.994	10870.62
494.197	11052.89
494.401	10930.01
494.605	10874.71
494.808	11202.39
495.012	11294.55
495.215	11259.73
495.419	11355.99
495.622	11331.41
495.825	11327.32
496.029	11464.53
496.232	11808.59
496.436	11523.92
496.639	11882.31
496.843	11759.44
497.046	12064.58
497.249	12320.58
497.453	12175.17
497.656	12502.85
497.859	12187.46
498.063	12373.83
498.266	12699.45
498.469	12791.61
498.673	12658.49
498.876	12891.96
499.079	12943.16
499.282	13100.86
499.485	13301.56
499.689	13303.6
499.892	13455.15
500.095	13592.37
500.298	14018.35
500.501	13743.92
500.705	14059.31
500.908	14427.94
501.111	14173.99
501.314	14696.22
501.517	14696.22
501.72	14737.18
501.923	14692.13
502.126	14952.22
502.329	15292.18
502.532	15400.73
502.735	15269.65
502.938	15634.19
503.141	15632.15
503.344	15937.29
503.547	16000.78
503.75	16365.32
503.953	16555.78
504.156	16656.13
504.359	16824.06
504.562	16811.78
504.765	17288.95
504.968	17348.34
505.17	17626.87
505.373	17510.13
505.576	17864.43
505.779	18065.13
505.982	18015.98
506.185	18583.27
506.387	18611.94
506.59	18814.69
506.793	19039.97
506.996	18745.06
507.198	19365.59
507.401	19232.47
507.604	19646.16
507.807	19687.12
508.009	20227.79
508.212	20272.84
508.415	20221.64
508.617	20590.28
508.82	20895.43
509.022	20707.01
509.225	21112.51
509.428	21434.04
509.63	21591.73
509.833	21735.09
510.035	22363.82
510.238	21923.51
510.44	22382.25
510.643	22632.1
510.845	22646.44
511.048	23072.42
511.25	23084.7
511.453	23328.41
511.655	23946.9
511.858	23682.71
512.06	23965.33
512.262	24204.94
512.465	24147.6
512.667	24733.32
512.87	24848
513.072	24964.74
513.274	25577.08
513.477	25632.38
513.679	25837.17
513.881	25947.76
514.084	26156.66
514.286	26388.08
514.488	26498.67
514.69	27076.19
514.893	27268.7
515.095	27381.34
515.297	27684.44
515.499	27625.05
515.701	27987.54
515.904	28304.98
516.106	28405.33
516.308	28511.82
516.51	28878.41
516.712	29054.53
516.914	29568.57
517.116	30033.46
517.318	29535.81
517.52	29818.42
517.722	30103.09
517.925	30215.73
518.127	30690.86
518.329	30852.65
518.531	30633.52
518.733	31168.04
518.935	31438.37
519.136	31446.56
519.338	31858.2
519.54	32095.77
519.742	32325.14
519.944	32380.43
520.146	32751.12
520.348	32884.23
520.55	33324.55
520.752	33109.51
520.954	33869.31
521.155	33259.01
521.357	34078.2
521.559	34346.48
521.761	34289.14
521.963	34659.82
522.164	34465.27
522.366	34661.87
522.568	34954.73
522.77	35096.04
522.971	35698.14
523.173	35100.14
523.375	35071.46
523.576	35642.85
523.778	35569.12
523.98	36120.02
524.181	35970.52
524.383	36001.24
524.584	36699.6
524.786	36142.55
524.988	36566.48
525.189	36580.82
525.391	36961.74
525.592	36920.78
525.794	36937.16
525.995	36939.21
526.197	37148.11
526.398	37158.35
526.6	37008.84
526.801	37445.06
527.003	37617.09
527.204	37443.01
527.406	37578.18
527.607	37721.54
527.808	37811.65
528.01	37105.1
528.211	37735.87
528.412	38374.84
528.614	37862.85
528.815	37666.24
529.016	38385.08
529.218	37703.1
529.419	38215.1
529.62	37940.67
529.822	37871.04
530.023	38006.2
530.224	38100.41
530.425	37674.43
530.626	37742.02
530.828	37612.99
531.029	38049.21
531.23	37813.69
531.431	37555.65
531.632	37907.9
531.833	37801.41
532.035	37885.37
532.236	37920.19
532.437	37924.29
532.638	37604.8
532.839	37770.69
533.04	37764.54
533.241	37524.93
533.442	38000.06
533.643	37477.83
533.844	37252.55
534.045	37615.04
534.246	36986.32
534.447	37578.18
534.648	37164.49
534.849	37338.57
535.05	36836.81
535.251	37408.2
535.451	36941.26
535.652	37402.05
535.853	36640.21
536.054	37041.61
536.255	37490.12
536.456	36550.1
536.657	37369.29
536.857	36980.17
537.058	36724.18
537.259	37492.16
537.46	37080.52
537.66	36785.61
537.861	36992.46
538.062	36638.16
538.263	37180.87
538.463	36672.98
538.664	36939.21
538.865	36333.01
539.065	36707.79
539.266	36421.08
539.466	36990.41
539.667	35954.14
539.868	36355.54
540.068	36478.42
540.269	36255.19
540.469	36371.93
540.67	36095.45
540.87	36564.43
541.071	36009.43
541.271	36439.51
541.472	35900.89
541.672	35796.45
541.873	36146.65
542.073	35603.94
542.274	36392.4
542.474	36117.98
542.675	35849.69
542.875	36347.35
543.075	35581.41
543.276	35753.44
543.476	36505.04
543.676	35794.4
543.877	36238.81
544.077	36093.4
544.277	35794.4
544.478	35814.88
544.678	35802.59
544.878	35929.56
545.078	35855.84
545.279	35937.76
545.479	35245.54
545.679	35872.22
545.879	35882.46
546.079	35796.45
546.28	35845.6
546.48	35388.9
546.68	35778.01
546.88	35790.3
547.08	35786.21
547.28	35683.81
547.48	35626.46
547.68	35634.66
547.88	35544.55
548.081	35687.9
548.281	35782.11
548.481	35409.38
548.681	35747.29
548.881	35608.03
549.081	35999.19
549.28	35464.67
549.48	36005.34
549.68	35708.38
549.88	35866.08
550.08	35761.63
550.28	35972.57
550.48	35280.36
550.68	35757.53
550.88	35413.48
551.08	35653.09
551.279	35868.12
551.479	35356.13
551.679	35540.45
551.879	35728.86
552.079	35950.04
552.278	35724.77
552.478	35923.42
552.678	35659.23
552.878	35997.15
553.077	35716.57
553.277	35626.46
553.477	36263.38
553.676	35864.03
553.876	35847.64
554.076	35708.38
554.275	35634.66
554.475	35544.55
554.674	35773.92
554.874	35775.97
555.074	35761.63
555.273	35825.12
555.473	36183.51
555.672	36036.06
555.872	35999.19
556.071	35986.91
556.271	35917.28
556.47	36163.03
556.67	35765.73
556.869	36054.49
557.068	36214.23
557.268	35692
557.467	36177.37
557.667	35716.57
557.866	36148.7
558.065	35894.75
558.265	35845.6
558.464	35835.36
558.663	36044.25
558.863	35853.79
559.062	36355.54
559.261	35567.07
559.461	36077.02
559.66	35640.8
559.859	35968.48
560.058	35675.62
560.258	35853.79
560.457	35714.53
560.656	36107.74
560.855	35710.43
561.054	35722.72
561.253	35778.01
561.453	36191.7
561.652	35909.08
561.851	35671.52
562.05	36017.63
562.249	35773.92
562.448	35663.33
562.647	35366.37
562.846	35964.38
563.045	35610.08
563.244	35562.98
563.443	35933.66
563.642	35247.59
563.841	35360.23
564.04	35470.82
564.239	35640.8
564.438	35270.12
564.637	35655.14
564.836	35425.76
565.035	35325.41
565.234	35433.96
565.432	35339.75
565.631	35204.58
565.83	35536.35
566.029	35079.66
566.228	34913.77
566.427	34979.31
566.625	34672.11
566.824	34911.72
567.023	35190.25
567.222	34326
567.42	35167.72
567.619	35077.61
567.818	34952.68
568.016	34551.28
568.215	34633.2
568.414	34635.25
568.612	34604.53
568.811	34622.96
569.01	34315.76
569.208	33828.35
569.407	34643.44
569.605	33922.55
569.804	34035.19
570.002	33887.74
570.201	33922.55
570.4	33975.8
570.598	33764.86
570.797	33435.14
570.995	33717.76
571.193	33408.51
571.392	33736.19
571.59	33398.27
571.789	33099.27
571.987	33547.78
572.186	33285.64
572.384	33455.62
572.582	33494.53
572.781	33598.98
572.979	32620.05
573.177	32968.2
573.376	33048.07
573.574	32491.02
573.772	32769.55
573.971	32906.76
574.169	32593.42
574.367	32318.99
574.565	32267.8
574.763	32677.39
574.962	32454.16
575.16	32011.8
575.358	32562.7
575.556	31596.06
575.754	32232.98
575.952	31790.62
576.151	31931.93
576.349	31723.04
576.547	31614.49
576.745	31606.3
576.943	31528.48
577.141	31426.08
577.339	31176.23
577.537	31239.72
577.735	30965.29
577.933	31118.89
578.131	31348.26
578.329	30940.71
578.527	30719.53
578.725	30715.44
578.923	30918.18
579.121	30793.26
579.319	30432.82
579.516	30879.27
579.714	30707.24
579.912	30377.52
580.11	30737.96
580.308	30256.69
580.506	30465.58
580.704	29949.49
580.901	29986.36
581.099	30172.72
581.297	29775.42
581.495	29552.19
581.692	29734.46
581.89	29992.5
582.088	29611.58
582.285	29429.31
582.483	29673.02
582.681	29341.25
582.878	29187.65
583.076	29310.53
583.274	29570.62
583.471	29148.74
583.669	29042.24
583.866	28835.4
584.064	28905.03
584.262	28665.42
584.459	28974.66
584.657	28661.32
584.854	28857.93
585.052	28231.25
585.249	28517.96
585.447	28255.82
585.644	27936.34
585.841	28485.2
586.039	28698.19
586.236	28173.91
586.434	28204.63
586.631	28186.19
586.828	28145.23
587.026	28116.56
587.223	28096.08
587.42	28005.97
587.618	27887.19
587.815	27657.82
588.012	27696.73
588.21	27561.56
588.407	28255.82
588.604	27633.24
588.801	27498.08
588.999	27358.81
589.196	27569.76
589.393	27422.3
589.59	27215.46
589.787	27190.88
589.984	27158.11
590.182	26787.43
590.379	27340.38
590.576	26766.95
590.773	26961.51
590.97	26527.34
591.167	26938.98
591.364	26478.19
591.561	26584.68
591.758	26091.12
591.955	26437.23
592.152	26728.04
592.349	26465.9
592.546	26463.85
592.743	26476.14
592.94	25953.91
593.137	26306.16
593.334	26343.02
593.531	26162.8
593.727	26224.24
593.924	26361.45
594.121	25589.37
594.318	26152.56
594.515	25654.9
594.712	26072.69
594.908	25706.1
595.105	25581.18
595.302	25548.41
595.499	25966.2
595.696	25685.62
595.892	25515.64
596.089	25812.6
596.286	25849.46
596.482	25505.4
596.679	25814.65
596.876	25630.33
597.072	25362.04
597.269	25681.53
597.466	25448.06
597.662	25267.84
597.859	25558.65
598.055	25654.9
598.252	25112.19
598.448	25489.02
598.645	25364.09
598.841	24917.64
599.038	25194.11
599.234	25005.7
599.431	24805
599.627	25161.34
599.824	25210.5
600.02	25024.13
600.217	25181.82
600.413	25173.63
600.609	25155.2
600.806	25147.01
601.002	25419.39
601.198	25030.27
601.395	24884.87
601.591	24921.73
601.787	25063.04
601.984	24970.88
602.18	25284.22
602.376	25265.79
602.572	24723.08
602.769	25341.57
602.965	24843.91
603.161	25116.29
603.357	24909.44
603.553	24911.49
603.75	25175.68
603.946	24790.66
604.142	25314.94
604.338	24872.58
604.534	25130.62
604.73	24895.11
604.926	24956.55
605.122	25155.2
605.318	25091.71
605.514	25071.23
605.71	25007.75
605.906	25046.66
606.102	24905.35
606.298	25013.89
606.494	25347.71
606.69	25050.75
606.886	25337.47
607.082	24927.88
607.278	25411.2
607.474	24983.17
607.67	25187.97
607.866	24987.27
608.062	25450.11
608.257	25296.51
608.453	25413.24
608.649	25085.57
608.845	25214.59
609.041	25394.81
609.236	25548.41
609.432	25267.84
609.628	25638.52
609.824	25403
610.019	25460.35
610.215	25413.24
610.411	25626.23
610.606	25550.46
610.802	25599.61
610.998	25552.51
611.193	25871.99
611.389	25368.19
611.584	25595.51
611.78	25368.19
611.976	25527.93
612.171	25828.98
612.367	25753.21
612.562	25828.98
612.758	25689.72
612.953	25357.95
613.149	26115.7
613.344	25534.07
613.539	25921.14
613.735	26105.46
613.93	25878.13
614.126	25712.25
614.321	26156.66
614.517	25833.08
614.712	25806.45
614.907	25628.28
615.103	26154.61
615.298	25636.47
615.493	25931.38
615.688	25796.21
615.884	26187.38
616.079	25790.07
616.274	26015.35
616.47	26087.03
616.665	25828.98
616.86	25839.22
617.055	25785.97
617.25	25591.42
617.445	25935.48
617.641	25587.32
617.836	26044.02
618.031	25525.88
618.226	25845.37
618.421	25351.81
618.616	25876.09
618.811	25550.46
619.006	25812.6
619.201	25331.33
619.396	25851.51
619.591	25050.75
619.786	25550.46
619.981	25132.67
620.176	25446.01
620.371	25124.48
620.566	24774.28
620.761	25065.09
620.956	25241.21
621.151	24802.95
621.346	24757.89
621.541	24391.31
621.735	24755.85
621.93	24278.67
622.125	24448.65
622.32	24172.18
622.515	24299.15
622.709	24305.29
622.904	24063.63
623.099	23766.68
623.294	23699.09
623.488	23854.74
623.683	23764.63
623.878	23395.99
624.072	23266.97
624.267	23395.99
624.462	23295.64
624.656	22998.69
624.851	23178.91
625.046	23090.85
625.24	22838.95
625.435	22578.86
625.629	22664.87
625.824	22447.79
626.018	22619.81
626.213	22134.45
626.407	22279.85
626.602	22185.65
626.796	21845.68
626.991	22050.48
627.185	22185.65
627.38	21868.21
627.574	21442.23
627.768	21546.68
627.963	21536.44
628.157	21057.21
628.352	21251.77
628.546	20975.3
628.74	21225.15
628.935	20782.79
629.129	21028.54
629.323	20477.64
629.517	20639.43
629.712	20532.93
629.906	20414.15
630.1	20190.92
630.294	20371.15
630.489	20205.26
630.683	20242.12
630.877	19810
631.071	19611.35
631.265	19861.2
631.459	19445.46
631.653	19572.44
631.848	19609.3
632.042	19404.5
632.236	19541.72
632.43	19142.36
632.624	19248.86
632.818	19039.97
633.012	18638.56
633.206	18966.24
633.4	18929.38
633.594	18378.47
633.788	18444.01
633.982	18532.07
634.176	18513.64
634.369	18134.76
634.563	18384.62
634.757	18044.65
634.951	18026.22
635.145	18034.41
635.339	18163.43
635.533	17839.86
635.726	17786.61
635.92	17585.91
636.114	17299.19
636.308	17403.64
636.501	17387.25
636.695	16975.61
636.889	17127.16
637.083	17014.52
637.276	16998.14
637.47	16903.93
637.664	16609.03
637.857	16606.98
638.051	16471.81
638.244	16615.17
638.438	16281.35
638.632	16299.78
638.825	15947.53
639.019	16117.51
639.212	15955.72
639.406	16006.92
639.599	15925
639.793	15759.12
639.986	15560.47
640.18	15578.9
640.373	15472.4
640.567	15337.24
640.76	15558.42
640.954	15138.58
641.147	15107.87
641.34	15071
641.534	14855.97
641.727	15007.51
641.92	14862.11
642.114	14724.9
642.307	14667.55
642.5	14473
642.694	14436.13
642.887	14464.8
643.08	14417.7
643.273	14245.67
643.467	14051.11
643.66	14221.09
643.853	13922.09
644.046	13887.28
644.239	13635.38
644.432	13543.22
644.626	13428.53
644.819	13395.76
645.012	13522.74
645.205	13133.62
645.398	13539.12
645.591	13182.77
645.784	12969.79
645.977	13098.81
646.17	12975.93
646.363	12916.54
646.556	12664.64
646.749	12715.84
646.942	12691.26
647.135	12601.15
647.328	12633.92
647.521	12357.44
647.714	12427.07
647.907	12382.02
648.099	12320.58
648.292	12273.48
648.485	12177.22
648.678	12232.52
648.871	11943.75
649.064	11872.07
649.256	12068.68
649.449	11775.82
649.642	11765.58
649.835	11738.96
650.027	11597.65
650.22	11579.22
650.413	11530.06
650.605	11343.7
650.798	11355.99
650.991	11179.86
651.183	11204.44
651.376	11138.9
651.568	11063.13
651.761	10962.78
651.954	11044.7
652.146	10743.64
652.339	10983.26
652.531	10645.34
652.724	10688.35
652.916	10551.13
653.109	10604.38
653.301	10610.53
653.494	10667.87
653.686	10520.42
653.879	10465.12
654.071	10336.1
654.263	9971.56
654.456	10362.72
654.648	10319.71
654.84	10135.4
655.033	10080.1
655.225	10045.29
655.417	10006.38
655.61	9983.85
655.802	9946.98
655.994	9848.68
656.186	10041.19
656.379	9717.61
656.571	9842.54
656.763	9584.49
656.955	9566.06
657.148	9406.32
657.34	9430.9
657.532	9348.98
657.724	9424.75
657.916	9285.49
658.108	9258.87
658.3	9394.03
658.492	9193.33
658.684	9041.78
658.876	8978.29
659.068	9027.45
659.26	8826.75
659.452	8894.33
659.644	8986.49
659.836	8882.04
660.028	8802.17
660.22	8722.3
660.412	8802.17
660.604	8603.52
660.796	8681.34
660.988	8570.75
661.18	8103.81
661.372	8497.02
661.563	8419.2
661.755	8468.35
661.947	8497.02
662.139	8292.23
662.331	8300.42
662.522	8267.65
662.714	7948.17
662.906	8095.62
663.097	7972.74
663.289	7950.21
663.481	7976.84
663.673	7958.41
663.864	7851.91
664.056	7663.5
664.247	7819.14
664.439	7718.79
664.631	7686.03
664.822	7575.44
665.014	7481.23
665.205	7554.96
665.397	7548.81
665.588	7485.33
665.78	7323.54
665.971	7333.78
666.163	7419.79
666.354	7307.15
666.546	7245.71
666.737	7274.38
666.929	7169.94
667.12	7131.03
667.311	7227.28
667.503	6909.85
667.694	7120.79
667.885	7104.4
668.077	7051.16
668.268	6932.37
668.459	7057.3
668.651	6856.6
668.842	6891.41
669.033	6852.5
669.224	6766.49
669.416	6746.01
669.607	6844.31
669.798	6614.94
669.989	6703
670.18	6580.12
670.371	6639.51
670.563	6629.27
670.754	6633.37
670.945	6457.25
671.136	6498.2
671.327	6612.89
671.518	6469.53
671.709	6309.79
671.9	6526.88
672.091	6379.42
672.282	6326.18
672.473	6277.02
672.664	6324.13
672.855	6209.44
673.046	6309.79
673.237	6326.18
673.428	6268.83
673.619	6107.04
673.809	6148
674	6092.71
674.191	6324.13
674.382	5965.73
674.573	6055.84
674.764	5978.02
674.954	6137.76
675.145	6049.7
675.336	6064.04
675.527	6027.17
675.717	5914.53
675.908	5818.28
676.099	5943.21
676.289	5965.73
676.48	5875.62
676.671	5701.54
676.861	5740.46
677.052	5857.19
677.243	5873.57
677.433	5752.74
677.624	5965.73
677.814	5752.74
678.005	5871.53
678.195	5801.9
678.386	5736.36
678.576	5695.4
678.767	5672.87
678.957	5746.6
679.148	5760.94
679.338	5662.63
679.529	5965.73
679.719	5535.66
679.909	5834.66
680.1	5572.52
680.29	5703.59
680.481	5679.02
680.671	5457.84
680.861	5535.66
681.052	5586.86
681.242	5566.38
681.432	5537.71
681.622	5580.71
681.813	5474.22
682.003	5539.76
682.193	5619.63
682.383	5539.76
682.573	5595.05
682.764	5457.84
682.954	5449.64
683.144	5509.04
683.334	5539.76
683.524	5334.96
683.714	5533.61
683.904	5285.81
684.094	5679.02
684.284	5339.05
684.474	5318.57
684.664	5281.71
684.854	5425.07
685.044	5322.67
685.234	5312.43
685.424	5412.78
685.614	5304.24
685.804	5357.49
685.994	5455.79
686.184	5253.04
686.374	5386.16
686.564	5316.53
686.753	5197.74
686.943	5341.1
687.133	5173.17
687.323	5072.82
687.513	5164.98
687.702	5220.27
687.892	5197.74
688.082	5097.39
688.272	5160.88
688.461	5244.85
688.651	5191.6
688.841	5017.52
689.03	5156.79
689.22	5212.08
689.41	5042.1
689.599	4937.65
689.789	5023.67
689.979	5009.33
690.168	4859.83
690.358	4976.56
690.547	4859.83
690.737	4958.13
690.926	4902.84
691.116	4865.97
691.305	4810.68
691.495	4743.1
691.684	4810.68
691.874	4820.92
692.063	4736.95
692.252	4802.49
692.442	4845.49
692.631	4657.08
692.82	4804.53
693.01	4706.23
693.199	4777.91
693.388	4704.18
693.578	4759.48
693.767	4818.87
693.956	4644.79
694.146	4585.4
694.335	4708.28
694.524	4515.77
694.713	4577.21
694.902	4554.68
695.092	4544.44
695.281	4636.6
695.47	4556.73
695.659	4534.2
695.848	4386.75
696.037	4419.52
696.226	4575.16
696.415	4530.11
696.604	4470.72
696.793	4536.25
696.982	4468.67
697.171	4523.96
697.36	4327.36
697.549	4458.43
697.738	4298.69
697.927	4313.02
698.116	4376.51
698.305	4392.89
698.494	4413.37
698.683	4454.33
698.872	4306.88
699.061	4302.78
699.25	4403.13
699.438	4313.02
699.627	4261.82
699.816	4313.02
700.005	4181.95
700.193	4052.93
700.382	4261.82
700.571	4167.62
700.76	4102.08
700.948	4360.13
701.137	4323.26
701.326	4108.23
701.514	4159.42
701.703	4132.8
701.892	4116.42
702.08	4140.99
702.269	4165.57
702.457	3876.8
702.646	4097.99
702.834	4069.31
703.023	3987.4
703.212	4179.9
703.4	4050.88
703.589	4007.87
703.777	4036.55
703.965	3936.2
704.154	4120.51
704.342	3868.61
704.531	4024.26
704.719	3919.81
704.907	4040.64
705.096	3964.87
705.284	3923.91
705.472	4040.64
705.661	3997.63
705.849	3944.39
706.037	3841.99
706.226	3815.37
706.414	3909.57
706.602	3778.5
706.79	3749.83
706.979	3819.46
707.167	3958.72
707.355	3786.69
707.543	3858.37
707.731	3848.13
707.919	3780.55
708.107	3766.21
708.296	3672.01
708.484	3651.53
708.672	3606.47
708.86	3794.89
709.048	3712.97
709.236	3766.21
709.424	3620.81
709.612	3680.2
709.8	3596.23
709.988	3575.75
710.176	3692.49
710.364	3567.56
710.551	3504.07
710.739	3442.64
710.927	3542.99
711.115	3461.07
711.303	3493.83
711.491	3381.2
711.679	3598.28
711.866	3600.33
712.054	3618.76
712.242	3495.88
712.43	3491.79
712.617	3405.77
712.805	3448.78
712.993	3405.77
713.181	3409.87
713.368	3565.51
713.556	3434.44
713.744	3387.34
713.931	3387.34
714.119	3493.83
714.306	3524.55
714.494	3278.8
714.682	3338.19
714.869	3291.09
715.057	3274.7
715.244	3246.03
715.432	3389.39
715.619	3207.12
715.807	3190.74
715.994	3338.19
716.182	3338.19
716.369	3180.5
716.556	3295.18
716.744	3307.47
716.931	3258.32
717.119	3336.14
717.306	3151.82
717.493	3164.11
717.681	3190.74
717.868	3190.74
718.055	3102.67
718.242	3076.05
718.43	3155.92
718.617	3166.16
718.804	3041.23
718.991	3112.91
719.179	3166.16
719.366	3123.15
719.553	3004.37
719.74	3074
719.927	3018.71
720.114	3131.34
720.301	3098.58
720.488	3088.34
720.676	3039.19
720.863	3037.14
721.05	3092.43
721.237	2959.31
721.424	3123.15
721.611	3180.5
721.798	2926.55
721.985	2895.83
722.172	2963.41
722.358	2904.02
722.545	3010.51
722.732	3018.71
722.919	2987.99
723.106	2942.93
723.293	2926.55
723.48	2820.05
723.667	2795.48
723.853	2791.38
724.04	2654.17
724.227	2779.09
724.414	2865.11
724.6	2815.96
724.787	2781.14
724.974	2887.64
725.161	2920.4
725.347	2803.67
725.534	2731.99
725.72	2783.19
725.907	2848.72
726.094	2754.52
726.28	2684.89
726.467	2824.15
726.653	2758.61
726.84	2760.66
727.027	2746.33
727.213	2750.42
727.4	2578.39
727.586	2688.98
727.773	2691.03
727.959	2832.34
728.145	2631.64
728.332	2697.17
728.518	2623.45
728.705	2729.94
728.891	2719.7
729.077	2633.69
729.264	2705.37
729.45	2557.91
729.636	2582.49
729.823	2600.92
730.009	2703.32
730.195	2492.38
730.382	2637.78
730.568	2625.5
730.754	2631.64
730.94	2553.82
731.126	2584.54
731.313	2521.05
731.499	2598.87
731.685	2516.95
731.871	2615.26
732.057	2508.76
732.243	2537.43
732.429	2475.99
732.615	2578.39
732.801	2484.19
732.987	2422.75
733.173	2502.62
733.359	2426.84
733.545	2451.42
733.731	2475.99
733.917	2598.87
734.103	2406.36
734.289	2533.34
734.475	2486.23
734.661	2586.58
734.847	2543.58
735.033	2398.17
735.219	2406.36
735.404	2435.03
735.59	2336.73
735.776	2435.03
735.962	2418.65
736.148	2496.47
736.333	2330.59
736.519	2467.8
736.705	2344.92
736.89	2340.83
737.076	2379.74
737.262	2291.68
737.447	2340.83
737.633	2344.92
737.819	2357.21
738.004	2430.94
738.19	2287.58
738.375	2287.58
738.561	2316.25
738.747	2306.01
738.932	2306.01
739.118	2308.06
739.303	2299.87
739.489	2328.54
739.674	2148.32
739.859	2215.9
740.045	2189.28
740.23	2232.29
740.416	2197.47
740.601	2185.18
740.786	2144.22
740.972	2201.57
741.157	2215.9
741.342	2095.07
741.528	2090.98
741.713	2224.09
741.898	2166.75
742.084	2078.69
742.269	2146.27
742.454	2004.96
742.639	2164.7
742.824	2125.79
743.01	2082.78
743.195	2187.23
743.38	2037.73
743.565	1972.19
743.75	2009.06
743.935	2066.4
744.12	2064.35
744.305	1988.58
744.49	1951.71
744.675	2017.25
744.86	1914.85
745.045	1992.67
745.23	1916.9
745.415	1972.19
745.6	1935.33
745.785	1841.12
745.97	1910.75
746.155	1822.69
746.34	1882.08
746.525	1822.69
746.71	1787.88
746.895	1814.5
747.079	1863.65
747.264	1787.88
747.449	1814.5
747.634	1822.69
747.819	1828.84
748.003	1781.73
748.188	1763.3
748.373	1808.36
748.557	1746.92
748.742	1824.74
748.927	1615.85
749.111	1658.85
749.296	1755.11
749.481	1740.77
749.665	1695.72
749.85	1673.19
750.034	1677.29
750.219	1644.52
750.404	1617.9
750.588	1673.19
750.773	1689.57
750.957	1570.79
751.141	1640.42
751.326	1570.79
751.51	1550.31
751.695	1587.18
751.879	1490.92
752.064	1558.5
752.248	1560.55
752.432	1601.51
752.617	1554.41
752.801	1599.46
752.985	1515.5
753.17	1552.36
753.354	1521.64
753.538	1513.45
753.722	1472.49
753.907	1452.01
754.091	1329.13
754.275	1427.43
754.459	1382.38
754.643	1423.34
754.828	1415.15
755.012	1347.56
755.196	1386.47
755.38	1294.32
755.564	1404.91
755.748	1374.19
755.932	1392.62
756.116	1435.63
756.3	1372.14
756.484	1269.74
756.668	1273.84
756.852	1275.88
757.036	1273.84
757.22	1234.93
757.404	1236.97
757.588	1171.44
757.772	1267.69
757.956	1222.64
758.14	1239.02
758.323	1243.12
758.507	1206.25
758.691	1146.86
758.875	1234.93
759.059	1175.53
759.242	1230.83
759.426	1161.2
759.61	1161.2
759.794	1034.22
759.977	1288.17
760.161	1140.72
760.345	1099.76
760.528	1257.45
760.712	1075.18
760.895	1124.33
761.079	1103.86
761.263	1093.62
761.446	1001.46
761.63	1071.09
761.813	1185.77
761.997	985.07
762.18	1075.18
762.364	1069.04
762.547	987.12
762.731	999.41
762.914	1116.14
763.098	964.59
763.281	995.31
763.464	1079.28
763.648	1052.66
763.831	991.22
764.015	976.88
764.198	1019.89
764.381	1034.22
764.564	1021.94
764.748	960.5
764.931	935.92
765.114	913.39
765.297	1058.8
765.481	913.39
765.664	929.78
765.847	1001.46
766.03	1040.37
766.213	882.67
766.397	905.2
766.58	868.34
766.763	915.44
766.946	911.35
767.129	890.87
767.312	884.72
767.495	874.48
767.678	997.36
767.861	899.06
768.044	890.87
768.227	878.58
768.41	821.24
768.593	954.35
768.776	1003.5
768.959	923.63
769.142	935.92
769.324	899.06
769.507	931.83
769.69	944.11
769.873	919.54
770.056	970.74
770.239	837.62
770.421	919.54
770.604	821.24
770.787	821.24
770.97	786.42
771.152	888.82
771.335	862.19
771.518	813.04
771.7	890.87
771.883	931.83
772.066	813.04
772.248	854
772.431	860.15
772.613	800.76
772.796	792.56
772.978	813.04
773.161	823.28
773.343	813.04
773.526	749.56
773.708	739.32
773.891	690.17
774.073	778.23
774.256	802.8
774.438	870.39
774.621	794.61
774.803	731.12
774.985	772.08
775.168	755.7
775.35	729.08
775.532	796.66
775.715	702.45
775.897	767.99
776.079	722.93
776.261	657.4
776.444	731.12
776.626	696.31
776.808	741.36
776.99	665.59
777.173	659.45
777.355	657.4
777.537	708.6
777.719	694.26
777.901	630.77
778.083	681.97
778.265	575.48
778.447	647.16
778.629	583.67
778.811	651.25
778.993	624.63
779.175	706.55
779.357	641.01
779.539	610.29
779.721	673.78
779.903	677.88
780.085	657.4
780.267	589.81
780.449	550.9
780.631	624.63
780.812	602.1
780.994	589.81
781.176	618.49
781.358	610.29
781.54	550.9
781.721	626.68
781.903	604.15
782.085	495.61
782.267	643.06
782.448	497.66
782.63	518.14
782.812	561.14
782.993	550.9
783.175	569.34
783.357	536.57
783.538	505.85
783.72	446.46
783.901	487.42
784.083	471.03
784.264	524.28
784.446	454.65
784.627	419.83
784.809	518.14
784.99	387.07
785.172	471.03
785.353	444.41
785.535	505.85
785.716	448.51
785.897	436.22
786.079	444.41
786.26	481.27
786.441	489.46
786.623	415.74
786.804	399.35
786.985	507.9
787.167	454.65
787.348	460.79
787.529	407.55
787.71	460.79
787.891	479.22
788.073	448.51
788.254	364.54
788.435	511.99
788.616	460.79
788.797	346.11
788.978	413.69
789.159	378.87
789.34	473.08
789.522	307.2
789.703	380.92
789.884	430.07
790.065	423.93
790.246	499.7
790.427	354.3
790.607	329.72
790.788	389.11
790.969	358.39
791.15	305.15
791.331	321.53
791.512	368.63
791.693	323.58
791.874	342.01
792.054	356.35
792.235	374.78
792.416	284.67
792.597	313.34
792.778	337.91
792.958	342.01
793.139	266.24
793.32	301.05
793.5	305.15
793.681	299
793.862	356.35
794.042	321.53
794.223	286.72
794.404	276.48
794.584	243.71
794.765	258.04
794.945	272.38
795.126	276.48
795.306	356.35
795.487	309.24
795.667	325.63
795.848	256
796.028	280.57
796.209	313.34
796.389	313.34
796.57	301.05
796.75	245.76
796.93	239.61
797.111	157.69
797.291	227.32
797.471	268.28
797.652	247.8
797.832	323.58
798.012	288.76
798.192	256
798.373	251.9
798.553	217.08
798.733	274.43
798.913	253.95
799.093	268.28
799.274	299
799.454	337.91
799.634	329.72
799.814	268.28
799.994	266.24
800.174	284.67
800.354	258.04
800.534	311.29
800.714	249.85
800.894	149.5
801.074	180.22
801.254	194.56
801.434	309.24
801.614	247.8
801.794	233.47
801.974	772.08
802.154	172.03
802.334	210.94
802.514	186.37
802.693	243.71
802.873	262.14
803.053	249.85
803.233	358.39
803.413	165.89
803.592	165.89
803.772	192.51
803.952	256
804.131	282.62
804.311	210.94
804.491	225.28
804.67	219.13
804.85	227.32
805.03	176.13
805.209	231.42
805.389	178.17
805.568	161.79
805.748	202.75
805.928	206.84
806.107	206.84
806.287	194.56
806.466	206.84
806.646	161.79
806.825	161.79
807.004	131.07
807.184	206.84
807.363	165.89
807.543	182.27
807.722	225.28
807.901	180.22
808.081	167.93
808.26	124.93
808.439	264.19
808.619	196.6
808.798	174.08
808.977	217.08
809.156	174.08
809.336	190.46
809.515	231.42
809.694	126.97
809.873	135.17
810.052	251.9
810.231	149.5
810.411	102.4
810.59	215.04
810.769	133.12
810.948	196.6
811.127	83.97
811.306	157.69
811.485	143.36
811.664	251.9
811.843	184.32
812.022	71.68
812.201	98.3
812.38	174.08
812.559	174.08
812.737	206.84
812.916	141.31
813.095	210.94
813.274	133.12
813.453	204.8
813.632	133.12
813.811	194.56
813.989	75.77
814.168	108.54
814.347	143.36
814.526	165.89
814.704	188.41
814.883	204.8
815.062	145.41
815.24	198.65
815.419	141.31
815.598	118.78
815.776	112.64
815.955	145.41
816.133	151.55
816.312	143.36
816.49	126.97
816.669	120.83
816.847	141.31
817.026	67.58
817.204	79.87
817.383	174.08
817.561	124.93
817.74	135.17
817.918	178.17
818.097	116.73
818.275	96.25
818.453	108.54
818.632	10.24
818.81	186.37
818.988	83.97
819.167	94.21
819.345	88.06
819.523	100.35
819.701	159.74
819.879	165.89
820.058	108.54
820.236	190.46
820.414	75.77
820.592	159.74
820.77	67.58
820.948	102.4
821.127	75.77
821.305	198.65
821.483	96.25
821.661	116.73
821.839	108.54
822.017	206.84
822.195	129.02
822.373	110.59
822.551	77.82
822.729	81.92
822.907	100.35
823.085	161.79
823.262	110.59
823.44	151.55
823.618	32.77
823.796	118.78
823.974	133.12
824.152	55.3
824.329	63.49
824.507	49.15
824.685	112.64
824.863	10.24
825.04	79.87
825.218	88.06
825.396	169.98
825.574	45.06
825.751	51.2
825.929	137.21
826.107	4.1
826.284	141.31
826.462	151.55
826.639	90.11
826.817	75.77
826.994	90.11
827.172	43.01
827.349	2.05
827.527	100.35
827.704	88.06
827.882	120.83
828.059	110.59
828.237	63.49
828.414	149.5
828.591	51.2
828.769	157.69
828.946	61.44
829.124	30.72
829.301	157.69
829.478	92.16
829.655	102.4
829.833	92.16
830.01	-67.58
830.187	83.97
830.364	63.49
830.542	51.2
830.719	104.45
830.896	47.1
831.073	120.83
831.25	75.77
831.427	120.83
831.604	67.58
831.782	88.06
831.959	124.93
832.136	75.77
832.313	55.3
832.49	71.68
832.667	63.49
832.844	55.3
833.021	71.68
833.198	10.24
833.374	143.36
833.551	43.01
833.728	36.86
833.905	79.87
834.082	-47.1
834.259	67.58
834.436	116.73
834.612	-2.05
834.789	59.39
834.966	61.44
835.143	94.21
835.319	22.53
835.496	86.01
835.673	141.31
835.85	120.83
836.026	79.87
836.203	10.24
836.38	83.97
836.556	83.97
836.733	112.64
836.909	38.91
837.086	22.53
837.262	-63.49
837.439	88.06
837.616	-0
837.792	61.44
837.968	67.58
838.145	-28.67
838.321	-10.24
838.498	77.82
838.674	100.35
838.851	79.87
839.027	-6.14
839.203	28.67
839.38	-14.34
839.556	53.25
839.732	61.44
839.909	112.64
840.085	18.43
840.261	102.4
840.437	69.63
840.614	38.91
840.79	77.82
840.966	2.05
841.142	26.62
841.318	34.82
841.494	67.58
841.671	120.83
841.847	-77.82
842.023	22.53
842.199	110.59
842.375	10.24
842.551	-26.62
842.727	-2.05
842.903	86.01
843.079	36.86
843.255	102.4
843.431	20.48
843.607	94.21
843.783	4.1
843.959	59.39
844.134	26.62
844.31	71.68
844.486	28.67
844.662	26.62
844.838	55.3
845.013	55.3
845.189	2.05
845.365	10.24
845.541	-20.48
845.716	-38.91
845.892	59.39
846.068	67.58
846.244	38.91
846.419	77.82
846.595	-22.53
846.77	20.48
846.946	-0
847.122	6.14
847.297	2.05
847.473	81.92
847.648	47.1
847.824	43.01
847.999	-22.53
848.175	34.82
848.35	34.82
848.526	47.1
848.701	61.44
848.876	51.2
849.052	30.72
849.227	18.43
849.403	86.01
849.578	10.24
849.753	100.35
849.929	75.77
850.104	45.06
850.279	55.3
850.454	100.35
850.63	61.44
850.805	22.53
850.98	24.58
851.155	-14.34
851.33	47.1
851.505	-24.58
851.681	63.49
851.856	-18.43
852.031	-14.34
852.206	43.01
852.381	-2.05
852.556	-14.34
852.731	26.62
852.906	67.58
853.081	4.1
853.256	61.44
853.431	-12.29
853.606	-2.05
853.781	22.53
853.956	69.63
854.131	-16.38
854.305	43.01
854.48	8.19
854.655	10.24
854.83	30.72
855.005	6.14
855.18	53.25
855.354	45.06
855.529	26.62
855.704	-53.25
855.879	40.96
856.053	-34.82
856.228	22.53
856.403	-2.05
856.577	2.05
856.752	75.77
856.926	-6.14
857.101	51.2
857.276	26.62
857.45	61.44
857.625	18.43
857.799	-14.34
857.974	71.68
858.148	-47.1
858.323	-30.72
858.497	45.06
858.672	43.01
858.846	14.34
859.02	49.15
859.195	2.05
859.369	-36.86
859.543	57.34
859.718	20.48
859.892	18.43
860.066	24.58
860.241	-22.53
860.415	-4.1
860.589	-34.82
860.763	-14.34
860.938	-0
861.112	53.25
861.286	40.96
861.46	38.91
861.634	-4.1
861.808	18.43
861.982	-30.72
862.157	20.48
862.331	-65.54
862.505	-20.48
862.679	4.1
862.853	-36.86
863.027	-10.24
863.201	38.91
863.375	10.24
863.549	20.48
863.722	67.58
863.896	100.35
864.07	4.1
864.244	4.1
864.418	8.19
864.592	18.43
864.766	47.1
864.939	51.2
865.113	26.62
865.287	30.72
865.461	-12.29
865.634	34.82
865.808	22.53
865.982	14.34
866.156	-61.44
866.329	2.05
866.503	-8.19
866.676	20.48
866.85	100.35
867.024	-38.91
867.197	10.24
867.371	10.24
867.544	83.97
867.718	-10.24
867.891	-12.29
868.065	26.62
868.238	12.29
868.412	22.53
868.585	59.39
868.759	-71.68
868.932	32.77
869.105	-6.14
869.279	18.43
869.452	-36.86
869.625	-61.44
869.799	28.67
869.972	-59.39
870.145	36.86
870.319	47.1
870.492	38.91
870.665	-38.91
870.838	-12.29
871.011	-30.72
871.185	-45.06
871.358	-55.3
871.531	59.39
871.704	-67.58
871.877	-30.72
872.05	2.05
872.223	69.63
872.396	47.1
872.569	-38.91
872.742	-20.48
872.915	-63.49
873.088	-38.91
873.261	57.34
873.434	55.3
873.607	14.34
873.78	43.01
873.953	10.24
874.126	6.14
874.299	53.25
874.471	20.48
874.644	18.43
874.817	30.72
874.99	86.01
875.163	-12.29
875.335	38.91
875.508	18.43
875.681	20.48
875.853	-22.53
876.026	40.96
876.199	34.82
876.371	2.05
876.544	-32.77
876.717	-30.72
876.889	-4.1
877.062	-8.19
877.234	14.34
877.407	-26.62
877.579	-14.34
877.752	34.82
877.924	75.77
878.097	71.68
878.269	57.34
878.442	63.49
878.614	-20.48
878.786	43.01
878.959	-26.62
879.131	18.43
879.303	30.72
879.476	18.43
879.648	6.14
879.82	-71.68
879.993	20.48
880.165	-14.34
880.337	77.82
880.509	-34.82
880.681	10.24
880.854	28.67
881.026	-2.05
881.198	61.44
881.37	-34.82
881.542	-71.68
881.714	18.43
881.886	18.43
882.058	-0
882.23	12.29
882.402	22.53
882.574	-18.43
882.746	22.53
882.918	8.19
883.09	2.05
883.262	-38.91
883.434	55.3
883.606	-63.49
883.778	-55.3
883.95	16.38
884.122	14.34
884.293	-43.01
884.465	59.39
884.637	20.48
884.809	-45.06
884.98	86.01
885.152	-4.1
885.324	43.01
885.496	-51.2
885.667	51.2
885.839	-28.67
886.011	8.19
886.182	-32.77
886.354	-10.24
886.525	59.39
886.697	-4.1
886.869	-43.01
887.04	-12.29
887.212	86.01
887.383	94.21
887.555	26.62
887.726	-36.86
887.897	-22.53
888.069	-22.53
888.24	10.24
888.412	34.82
888.583	-28.67
888.754	77.82
888.926	-51.2
889.097	-16.38
889.268	-14.34
889.44	-6.14
889.611	10.24
889.782	-100.35
889.953	-38.91
890.125	26.62
890.296	-92.16
890.467	6.14
890.638	10.24
890.809	18.43
890.98	-30.72
891.151	-55.3
891.323	30.72
891.494	81.92
891.665	30.72
891.836	-14.34
892.007	34.82
892.178	-59.39
892.349	-22.53
892.52	10.24
892.691	20.48
892.862	43.01
893.032	-69.63
893.203	45.06
893.374	-12.29
893.545	67.58
893.716	-75.77
893.887	-38.91
894.057	-38.91
894.228	18.43
894.399	-43.01
894.57	-20.48
894.74	-18.43
894.911	51.2
895.082	-61.44
895.253	-77.82
895.423	18.43
895.594	-12.29
895.764	51.2
895.935	47.1
896.106	-18.43
896.276	-14.34
896.447	12.29
896.617	-53.25
896.788	-43.01
896.958	-16.38
897.129	-38.91
897.299	26.62
897.47	-6.14
897.64	51.2
897.81	-6.14
897.981	-51.2
898.151	-38.91
898.322	-38.91
898.492	-12.29
898.662	-71.68
898.832	49.15
899.003	4.1
899.173	14.34
899.343	-79.87
899.513	-38.91
