Data from USB4F104151__92__14-30-42-995.txt Node

Date: Thu Mar 13 14:30:42 EDT 2025
User: louis
Spectrometer: USB4F10415
Trigger mode: 4
Integration Time (sec): 2.500000E-2
Scans to average: 1
Electric dark correction enabled: true
Nonlinearity correction enabled: false
Boxcar width: 0
XAxis mode: Wavelengths
Number of Pixels in Spectrum: 3648
>>>>>Begin Spectral Data<<<<<
178.204	-190.97
178.424	-190.97
178.644	-190.97
178.864	-211.45
179.084	-98.81
179.304	-78.33
179.524	7.68
179.744	15.87
179.964	-43.52
180.184	65.02
180.404	44.54
180.624	-6.66
180.844	73.21
181.064	-111.1
181.283	48.64
181.503	-14.85
181.723	-0.51
181.943	-92.67
182.163	-2.56
182.383	44.54
182.602	69.12
182.822	73.21
183.042	97.79
183.262	19.97
183.482	36.35
183.701	11.78
183.921	11.78
184.141	9.73
184.361	89.6
184.58	-37.38
184.8	60.93
185.02	-25.09
185.239	17.92
185.459	65.02
185.679	13.82
185.898	-4.61
186.118	50.69
186.338	44.54
186.557	42.5
186.777	-31.23
186.997	-14.85
187.216	5.63
187.436	56.83
187.655	71.17
187.875	7.68
188.095	-25.09
188.314	13.82
188.534	36.35
188.753	-78.33
188.973	-25.09
189.192	122.37
189.412	-8.7
189.631	15.87
189.851	24.06
190.07	65.02
190.29	-41.47
190.509	40.45
190.729	58.88
190.948	99.84
191.168	151.04
191.387	73.21
191.607	17.92
191.826	40.45
192.045	-55.81
192.265	11.78
192.484	24.06
192.704	-0.51
192.923	17.92
193.142	87.55
193.362	50.69
193.581	56.83
193.8	17.92
194.02	50.69
194.239	77.31
194.458	89.6
194.678	24.06
194.897	1.54
195.116	19.97
195.335	56.83
195.555	26.11
195.774	50.69
195.993	110.08
196.212	-23.04
196.432	-0.51
196.651	42.5
196.87	-33.28
197.089	71.17
197.308	69.12
197.528	42.5
197.747	-80.38
197.966	24.06
198.185	93.69
198.404	19.97
198.623	-39.42
198.842	65.02
199.062	1.54
199.281	69.12
199.5	1.54
199.719	34.3
199.938	11.78
200.157	44.54
200.376	32.26
200.595	9.73
200.814	71.17
201.033	-86.53
201.252	7.68
201.471	15.87
201.69	118.27
201.909	-23.04
202.128	50.69
202.347	56.83
202.566	65.02
202.785	-12.8
203.004	32.26
203.223	65.02
203.442	32.26
203.661	-82.43
203.879	24.06
204.098	136.7
204.317	-8.7
204.536	97.79
204.755	67.07
204.974	110.08
205.193	1.54
205.411	85.5
205.63	15.87
205.849	75.26
206.068	-6.66
206.287	-4.61
206.505	-20.99
206.724	24.06
206.943	24.06
207.162	60.93
207.381	-37.38
207.599	-33.28
207.818	7.68
208.037	-18.94
208.255	58.88
208.474	34.3
208.693	19.97
208.911	15.87
209.13	91.65
209.349	19.97
209.567	-8.7
209.786	56.83
210.005	13.82
210.223	5.63
210.442	-55.81
210.661	-31.23
210.879	1.54
211.098	-0.51
211.316	81.41
211.535	48.64
211.753	56.83
211.972	81.41
212.191	75.26
212.409	83.45
212.628	65.02
212.846	-18.94
213.065	81.41
213.283	40.45
213.502	-27.14
213.72	-16.9
213.938	50.69
214.157	83.45
214.375	56.83
214.594	30.21
214.812	91.65
215.031	65.02
215.249	54.78
215.467	118.27
215.686	101.89
215.904	144.89
216.122	-25.09
216.341	81.41
216.559	13.82
216.778	34.3
216.996	108.03
217.214	48.64
217.432	32.26
217.651	58.88
217.869	-0.51
218.087	40.45
218.306	-18.94
218.524	40.45
218.742	38.4
218.96	-0.51
219.179	-6.66
219.397	32.26
219.615	17.92
219.833	112.13
220.051	9.73
220.27	62.98
220.488	60.93
220.706	52.74
220.924	-16.9
221.142	32.26
221.36	81.41
221.578	89.6
221.796	-0.51
222.015	44.54
222.233	-33.28
222.451	24.06
222.669	50.69
222.887	65.02
223.105	77.31
223.323	15.87
223.541	-4.61
223.759	15.87
223.977	-0.51
224.195	44.54
224.413	56.83
224.631	103.93
224.849	17.92
225.067	105.98
225.285	15.87
225.503	124.41
225.721	50.69
225.939	9.73
226.157	15.87
226.375	200.19
226.592	65.02
226.81	-16.9
227.028	75.26
227.246	44.54
227.464	-27.14
227.682	60.93
227.9	110.08
228.117	89.6
228.335	81.41
228.553	-39.42
228.771	24.06
228.989	28.16
229.206	50.69
229.424	5.63
229.642	9.73
229.86	40.45
230.077	87.55
230.295	40.45
230.513	97.79
230.731	42.5
230.948	81.41
231.166	128.51
231.384	19.97
231.601	15.87
231.819	40.45
232.037	19.97
232.254	11.78
232.472	9.73
232.689	58.88
232.907	5.63
233.125	-25.09
233.342	-33.28
233.56	19.97
233.777	48.64
233.995	54.78
234.213	144.89
234.43	9.73
234.648	81.41
234.865	26.11
235.083	36.35
235.3	7.68
235.518	83.45
235.735	50.69
235.953	42.5
236.17	7.68
236.388	1.54
236.605	22.02
236.822	116.22
237.04	71.17
237.257	38.4
237.475	3.58
237.692	32.26
237.909	15.87
238.127	40.45
238.344	-14.85
238.562	-51.71
238.779	19.97
238.996	-70.14
239.214	-12.8
239.431	36.35
239.648	-43.52
239.865	22.02
240.083	13.82
240.3	34.3
240.517	-8.7
240.735	69.12
240.952	24.06
241.169	108.03
241.386	56.83
241.603	7.68
241.821	11.78
242.038	17.92
242.255	108.03
242.472	15.87
242.689	36.35
242.907	89.6
243.124	24.06
243.341	11.78
243.558	-90.62
243.775	-14.85
243.992	71.17
244.209	40.45
244.426	85.5
244.643	40.45
244.86	-4.61
245.078	13.82
245.295	81.41
245.512	11.78
245.729	-27.14
245.946	-12.8
246.163	7.68
246.38	40.45
246.597	40.45
246.814	24.06
247.031	7.68
247.248	24.06
247.464	46.59
247.681	30.21
247.898	-16.9
248.115	95.74
248.332	48.64
248.549	48.64
248.766	93.69
248.983	42.5
249.2	52.74
249.417	85.5
249.633	-49.66
249.85	116.22
250.067	-31.23
250.284	19.97
250.501	118.27
250.717	71.17
250.934	-25.09
251.151	26.11
251.368	42.5
251.585	54.78
251.801	-2.56
252.018	65.02
252.235	79.36
252.451	56.83
252.668	-12.8
252.885	3.58
253.102	99.84
253.318	-39.42
253.535	11.78
253.752	34.3
253.968	-57.86
254.185	28.16
254.401	-33.28
254.618	60.93
254.835	-33.28
255.051	44.54
255.268	153.09
255.484	9.73
255.701	75.26
255.917	-12.8
256.134	-4.61
256.351	44.54
256.567	26.11
256.784	-31.23
257	-57.86
257.217	42.5
257.433	40.45
257.65	60.93
257.866	65.02
258.082	56.83
258.299	40.45
258.515	7.68
258.732	-2.56
258.948	65.02
259.165	19.97
259.381	-41.47
259.597	48.64
259.814	24.06
260.03	24.06
260.246	42.5
260.463	32.26
260.679	67.07
260.895	-14.85
261.112	7.68
261.328	22.02
261.544	7.68
261.761	108.03
261.977	-45.57
262.193	30.21
262.409	79.36
262.626	146.94
262.842	44.54
263.058	-4.61
263.274	46.59
263.49	-14.85
263.707	69.12
263.923	77.31
264.139	13.82
264.355	79.36
264.571	34.3
264.787	7.68
265.004	67.07
265.22	36.35
265.436	15.87
265.652	-86.53
265.868	46.59
266.084	36.35
266.3	17.92
266.516	-14.85
266.732	48.64
266.948	-16.9
267.164	-8.7
267.38	-47.62
267.596	24.06
267.812	187.9
268.028	28.16
268.244	-6.66
268.46	15.87
268.676	89.6
268.892	-8.7
269.108	-37.38
269.324	-20.99
269.54	52.74
269.756	34.3
269.972	-10.75
270.188	26.11
270.403	73.21
270.619	-0.51
270.835	40.45
271.051	32.26
271.267	32.26
271.483	-2.56
271.698	99.84
271.914	110.08
272.13	48.64
272.346	-25.09
272.562	77.31
272.777	81.41
272.993	-4.61
273.209	65.02
273.425	101.89
273.64	-14.85
273.856	-37.38
274.072	-6.66
274.287	-27.14
274.503	1.54
274.719	26.11
274.934	58.88
275.15	15.87
275.366	28.16
275.581	-20.99
275.797	81.41
276.012	44.54
276.228	-12.8
276.444	77.31
276.659	73.21
276.875	7.68
277.09	32.26
277.306	73.21
277.521	30.21
277.737	24.06
277.952	99.84
278.168	32.26
278.383	3.58
278.599	-35.33
278.814	44.54
279.03	1.54
279.245	56.83
279.461	69.12
279.676	26.11
279.892	-16.9
280.107	-23.04
280.322	-66.05
280.538	-4.61
280.753	32.26
280.969	65.02
281.184	34.3
281.399	73.21
281.615	89.6
281.83	7.68
282.045	-31.23
282.26	-33.28
282.476	48.64
282.691	144.89
282.906	1.54
283.122	56.83
283.337	-33.28
283.552	34.3
283.767	-53.76
283.983	30.21
284.198	75.26
284.413	7.68
284.628	-25.09
284.843	56.83
285.058	114.17
285.274	28.16
285.489	-20.99
285.704	65.02
285.919	13.82
286.134	15.87
286.349	11.78
286.564	58.88
286.779	69.12
286.995	-12.8
287.21	60.93
287.425	40.45
287.64	93.69
287.855	42.5
288.07	48.64
288.285	11.78
288.5	56.83
288.715	126.46
288.93	-8.7
289.145	120.32
289.36	17.92
289.575	-20.99
289.79	15.87
290.004	75.26
290.219	46.59
290.434	-12.8
290.649	-27.14
290.864	48.64
291.079	46.59
291.294	36.35
291.509	71.17
291.724	-31.23
291.938	65.02
292.153	122.37
292.368	-53.76
292.583	7.68
292.798	-43.52
293.012	26.11
293.227	56.83
293.442	-23.04
293.657	118.27
293.871	17.92
294.086	24.06
294.301	110.08
294.516	9.73
294.73	34.3
294.945	9.73
295.16	58.88
295.374	99.84
295.589	40.45
295.804	48.64
296.018	36.35
296.233	81.41
296.447	1.54
296.662	32.26
296.877	77.31
297.091	-0.51
297.306	69.12
297.52	62.98
297.735	48.64
297.949	32.26
298.164	65.02
298.378	44.54
298.593	9.73
298.807	-29.18
299.022	26.11
299.236	-35.33
299.451	-12.8
299.665	15.87
299.88	17.92
300.094	-6.66
300.309	-4.61
300.523	114.17
300.737	40.45
300.952	56.83
301.166	73.21
301.381	-6.66
301.595	81.41
301.809	9.73
302.024	-8.7
302.238	-8.7
302.452	67.07
302.667	15.87
302.881	85.5
303.095	30.21
303.309	40.45
303.524	-0.51
303.738	-14.85
303.952	-20.99
304.166	56.83
304.381	22.02
304.595	81.41
304.809	-39.42
305.023	17.92
305.237	32.26
305.452	112.13
305.666	126.46
305.88	124.41
306.094	114.17
306.308	22.02
306.522	7.68
306.736	-18.94
306.95	28.16
307.164	44.54
307.379	-0.51
307.593	173.57
307.807	-41.47
308.021	50.69
308.235	105.98
308.449	-20.99
308.663	36.35
308.877	44.54
309.091	11.78
309.305	95.74
309.519	-27.14
309.733	67.07
309.947	-55.81
310.161	7.68
310.374	58.88
310.588	48.64
310.802	-2.56
311.016	7.68
311.23	114.17
311.444	-25.09
311.658	79.36
311.872	73.21
312.085	-6.66
312.299	1.54
312.513	91.65
312.727	130.56
312.941	13.82
313.154	32.26
313.368	48.64
313.582	-6.66
313.796	-16.9
314.009	17.92
314.223	69.12
314.437	97.79
314.651	24.06
314.864	81.41
315.078	54.78
315.292	89.6
315.505	56.83
315.719	85.5
315.933	-20.99
316.146	-16.9
316.36	56.83
316.573	32.26
316.787	30.21
317.001	114.17
317.214	3.58
317.428	89.6
317.641	32.26
317.855	-6.66
318.068	67.07
318.282	56.83
318.495	144.89
318.709	48.64
318.922	122.37
319.136	62.98
319.349	62.98
319.563	46.59
319.776	83.45
319.99	52.74
320.203	24.06
320.417	36.35
320.63	40.45
320.843	32.26
321.057	24.06
321.27	-14.85
321.483	73.21
321.697	99.84
321.91	99.84
322.124	60.93
322.337	48.64
322.55	56.83
322.763	32.26
322.977	30.21
323.19	22.02
323.403	81.41
323.617	32.26
323.83	42.5
324.043	9.73
324.256	73.21
324.469	-23.04
324.683	105.98
324.896	-16.9
325.109	54.78
325.322	3.58
325.535	44.54
325.748	77.31
325.962	-14.85
326.175	-47.62
326.388	28.16
326.601	32.26
326.814	30.21
327.027	56.83
327.24	40.45
327.453	-25.09
327.666	7.68
327.879	40.45
328.092	50.69
328.305	32.26
328.518	-14.85
328.731	-33.28
328.944	-0.51
329.157	73.21
329.37	65.02
329.583	136.7
329.796	132.61
330.009	42.5
330.222	69.12
330.435	40.45
330.648	105.98
330.861	50.69
331.073	24.06
331.286	17.92
331.499	17.92
331.712	40.45
331.925	24.06
332.138	-25.09
332.35	118.27
332.563	34.3
332.776	110.08
332.989	22.02
333.202	-0.51
333.414	34.3
333.627	60.93
333.84	85.5
334.053	36.35
334.265	-10.75
334.478	1.54
334.691	26.11
334.903	155.13
335.116	34.3
335.329	-20.99
335.541	-8.7
335.754	44.54
335.966	38.4
336.179	-16.9
336.392	36.35
336.604	77.31
336.817	28.16
337.029	13.82
337.242	65.02
337.454	54.78
337.667	28.16
337.88	67.07
338.092	48.64
338.305	28.16
338.517	77.31
338.729	112.13
338.942	110.08
339.154	-0.51
339.367	-49.66
339.579	89.6
339.792	-41.47
340.004	89.6
340.217	75.26
340.429	40.45
340.641	26.11
340.854	7.68
341.066	-12.8
341.278	9.73
341.491	75.26
341.703	99.84
341.915	26.11
342.128	46.59
342.34	-8.7
342.552	7.68
342.764	13.82
342.977	48.64
343.189	99.84
343.401	65.02
343.613	1.54
343.826	67.07
344.038	40.45
344.25	50.69
344.462	60.93
344.674	81.41
344.886	11.78
345.099	34.3
345.311	81.41
345.523	-2.56
345.735	7.68
345.947	56.83
346.159	118.27
346.371	17.92
346.583	15.87
346.795	85.5
347.007	9.73
347.219	116.22
347.431	-16.9
347.643	1.54
347.855	-43.52
348.067	42.5
348.279	-2.56
348.491	9.73
348.703	56.83
348.915	75.26
349.127	-16.9
349.339	1.54
349.551	34.3
349.763	46.59
349.975	9.73
350.187	83.45
350.399	122.37
350.61	28.16
350.822	-0.51
351.034	32.26
351.246	93.69
351.458	-29.18
351.669	83.45
351.881	60.93
352.093	15.87
352.305	73.21
352.517	65.02
352.728	50.69
352.94	67.07
353.152	89.6
353.363	30.21
353.575	62.98
353.787	65.02
353.999	105.98
354.21	122.37
354.422	-20.99
354.633	-33.28
354.845	44.54
355.057	-12.8
355.268	105.98
355.48	48.64
355.692	56.83
355.903	56.83
356.115	-25.09
356.326	-6.66
356.538	42.5
356.749	105.98
356.961	83.45
357.172	85.5
357.384	15.87
357.595	24.06
357.807	11.78
358.018	42.5
358.23	65.02
358.441	126.46
358.653	73.21
358.864	67.07
359.075	40.45
359.287	67.07
359.498	-0.51
359.709	40.45
359.921	58.88
360.132	95.74
360.344	81.41
360.555	-10.75
360.766	97.79
360.977	87.55
361.189	73.21
361.4	1.54
361.611	13.82
361.823	56.83
362.034	32.26
362.245	19.97
362.456	52.74
362.667	56.83
362.879	54.78
363.09	56.83
363.301	146.94
363.512	30.21
363.723	11.78
363.935	42.5
364.146	36.35
364.357	-0.51
364.568	17.92
364.779	15.87
364.99	36.35
365.201	65.02
365.412	108.03
365.623	9.73
365.834	65.02
366.045	52.74
366.256	44.54
366.467	83.45
366.678	77.31
366.889	114.17
367.1	87.55
367.311	171.52
367.522	85.5
367.733	89.6
367.944	69.12
368.155	-39.42
368.366	77.31
368.577	103.93
368.788	83.45
368.999	69.12
369.209	-6.66
369.42	42.5
369.631	146.94
369.842	-12.8
370.053	44.54
370.264	62.98
370.474	81.41
370.685	75.26
370.896	36.35
371.107	124.41
371.317	17.92
371.528	81.41
371.739	97.79
371.95	114.17
372.16	85.5
372.371	-12.8
372.582	-8.7
372.792	71.17
373.003	34.3
373.214	75.26
373.424	44.54
373.635	28.16
373.846	24.06
374.056	58.88
374.267	71.17
374.477	120.32
374.688	75.26
374.898	48.64
375.109	50.69
375.319	-0.51
375.53	62.98
375.74	56.83
375.951	-0.51
376.161	87.55
376.372	-10.75
376.582	60.93
376.793	56.83
377.003	83.45
377.214	-16.9
377.424	-8.7
377.635	13.82
377.845	48.64
378.055	89.6
378.266	62.98
378.476	19.97
378.686	32.26
378.897	42.5
379.107	56.83
379.317	83.45
379.528	-8.7
379.738	65.02
379.948	-41.47
380.158	75.26
380.369	67.07
380.579	42.5
380.789	-41.47
380.999	130.56
381.21	83.45
381.42	118.27
381.63	-6.66
381.84	32.26
382.05	36.35
382.261	48.64
382.471	103.93
382.681	17.92
382.891	108.03
383.101	32.26
383.311	-25.09
383.521	28.16
383.731	56.83
383.941	54.78
384.151	44.54
384.361	36.35
384.571	62.98
384.781	122.37
384.991	210.43
385.201	138.75
385.411	24.06
385.621	130.56
385.831	89.6
386.041	19.97
386.251	60.93
386.461	67.07
386.671	101.89
386.881	83.45
387.091	60.93
387.301	65.02
387.511	60.93
387.72	108.03
387.93	-0.51
388.14	48.64
388.35	75.26
388.56	58.88
388.769	97.79
388.979	40.45
389.189	-25.09
389.399	48.64
389.609	114.17
389.818	138.75
390.028	19.97
390.238	13.82
390.447	77.31
390.657	56.83
390.867	54.78
391.076	148.99
391.286	83.45
391.496	116.22
391.705	40.45
391.915	108.03
392.125	112.13
392.334	97.79
392.544	151.04
392.753	26.11
392.963	-6.66
393.172	24.06
393.382	40.45
393.591	95.74
393.801	26.11
394.01	122.37
394.22	114.17
394.429	81.41
394.639	108.03
394.848	77.31
395.058	140.8
395.267	101.89
395.477	108.03
395.686	128.51
395.895	148.99
396.105	167.42
396.314	7.68
396.524	93.69
396.733	52.74
396.942	126.46
397.152	120.32
397.361	46.59
397.57	95.74
397.78	142.85
397.989	146.94
398.198	173.57
398.407	69.12
398.617	212.48
398.826	67.07
399.035	114.17
399.244	79.36
399.453	151.04
399.663	120.32
399.872	159.23
400.081	40.45
400.29	196.09
400.499	181.76
400.708	114.17
400.917	97.79
401.127	304.64
401.336	153.09
401.545	165.37
401.754	175.61
401.963	187.9
402.172	134.65
402.381	101.89
402.59	210.43
402.799	146.94
403.008	183.81
403.217	163.33
403.426	171.52
403.635	171.52
403.844	101.89
404.053	214.52
404.262	91.65
404.471	228.86
404.68	130.56
404.888	140.8
405.097	196.09
405.306	146.94
405.515	220.67
405.724	187.9
405.933	325.12
406.142	237.05
406.35	235
406.559	245.24
406.768	278.01
406.977	368.12
407.185	241.15
407.394	196.09
407.603	271.87
407.812	247.29
408.02	306.68
408.229	257.53
408.438	337.4
408.646	306.68
408.855	376.31
409.064	361.98
409.272	392.7
409.481	427.51
409.69	327.16
409.898	429.56
410.107	345.59
410.315	413.18
410.524	355.83
410.733	491
410.941	460.28
411.15	468.47
411.358	472.57
411.567	673.27
411.775	488.95
411.984	536.06
412.192	558.58
412.401	531.96
412.609	550.39
412.818	622.07
413.026	728.56
413.234	695.8
413.443	798.2
413.651	699.89
413.86	790
414.068	794.1
414.276	863.73
414.485	839.16
414.693	900.59
414.901	966.13
415.11	880.11
415.318	990.7
415.526	1064.43
415.734	1095.15
415.943	1091.06
416.151	1146.35
416.359	1132.01
416.567	1156.59
416.776	1201.65
416.984	1246.7
417.192	1267.18
417.4	1306.09
417.608	1293.8
417.817	1291.76
418.025	1424.87
418.233	1598.95
418.441	1488.36
418.649	1629.67
418.857	1654.25
419.065	1744.36
419.273	1701.35
419.481	1760.74
419.689	1986.02
419.897	1936.87
420.105	1998.31
420.313	2004.45
420.521	2096.61
420.729	2301.4
420.937	2221.53
421.145	2325.98
421.353	2551.26
421.561	2665.94
421.769	2565.59
421.977	2629.08
422.185	2815.45
422.393	2866.64
422.601	3038.67
422.809	3081.68
423.017	3155.41
423.224	3128.78
423.432	3309.01
423.64	3390.92
423.848	3700.17
424.056	3573.19
424.263	3898.82
424.471	3767.75
424.679	3921.35
424.887	4046.27
425.094	4251.07
425.302	4335.04
425.51	4332.99
425.718	4449.72
425.925	4578.75
426.133	4754.87
426.341	5137.84
426.548	5299.63
426.756	5193.14
426.964	5299.63
427.171	5461.42
427.379	5684.65
427.586	5815.72
427.794	6086.05
428.001	6317.47
428.209	6491.55
428.417	6426.01
428.624	6985.11
428.832	6878.62
429.039	6897.05
429.247	6899.09
429.454	7728.52
429.662	8050.05
429.869	7652.75
430.076	8150.4
430.284	7941.51
430.491	8060.29
430.699	8732.03
430.906	8625.53
431.114	8920.44
431.321	9020.79
431.528	9211.25
431.736	9850.22
431.943	10347.87
432.15	9930.09
432.358	10003.82
432.565	10966.36
432.772	10626.4
432.979	11236.69
433.187	11371.86
433.394	11527.5
433.601	12057.93
433.808	12076.36
434.016	12033.35
434.223	12514.63
434.43	13466.93
434.637	13032.76
434.844	13810.99
435.052	14157.1
435.259	14169.38
435.466	14091.56
435.673	14058.79
435.88	14986.52
436.087	15930.64
436.294	15697.17
436.501	15351.06
436.708	15600.91
436.915	16280.84
437.122	16696.58
437.329	16846.08
437.537	17712.37
437.743	17401.08
437.95	17433.85
438.157	18566.37
438.364	19156.19
438.571	19029.21
438.778	19322.07
438.985	20710.6
439.192	20151.5
439.399	20528.33
439.606	20102.35
439.813	21296.32
440.02	22666.41
440.227	22271.15
440.433	21834.93
440.64	22641.83
440.847	22518.95
441.054	23061.66
441.261	24603.78
441.467	24482.95
441.674	24777.86
441.881	25820.28
442.088	25607.29
442.294	25566.33
442.501	26004.6
442.708	26618.99
442.914	27327.58
443.121	28892.23
443.328	27978.84
443.534	29396.03
443.741	29176.9
443.948	28802.12
444.154	31140.9
444.361	30733.36
444.568	30987.3
444.774	30575.66
444.981	31159.33
445.187	32050.2
445.394	33487.87
445.6	32660.49
445.807	36219.86
446.013	34651.12
446.22	35404.77
446.426	36471.76
446.633	36637.65
446.839	37989.31
447.046	36430.8
447.252	38720.43
447.459	38456.25
447.665	38417.33
447.871	39861.15
448.078	41704.32
448.284	39863.2
448.491	40858.51
448.697	42619.77
448.903	43189.1
449.11	43713.38
449.316	42578.81
449.522	43608.93
449.728	44446.55
449.935	44436.31
450.141	44774.23
450.347	45450.06
450.553	44227.42
450.76	44813.14
450.966	46613.3
451.172	46123.84
451.378	46883.64
451.584	45736.77
451.791	46996.27
451.997	47004.47
452.203	47870.76
452.409	47579.95
452.615	47270.7
452.821	45638.47
453.027	45241.17
453.233	47817.51
453.44	45818.69
453.646	46629.69
453.852	46443.32
454.058	46840.63
454.264	45847.36
454.47	47078.19
454.676	45550.41
454.882	46986.04
455.088	43103.09
455.294	43387.75
455.5	44331.87
455.705	44774.23
455.911	43299.69
456.117	42253.18
456.323	41536.39
456.529	39570.34
456.735	40989.58
456.941	40080.28
457.147	39533.48
457.352	38534.07
457.558	37788.61
457.764	38200.25
457.97	36795.34
458.176	36162.52
458.381	36316.12
458.587	34665.46
458.793	34919.4
458.999	32949.26
459.204	34943.98
459.41	34073.59
459.616	31927.32
459.821	32152.6
460.027	31890.46
460.233	31110.18
460.438	29994.04
460.644	30252.08
460.85	28470.35
461.055	28312.66
461.261	27833.43
461.466	25760.89
461.672	25199.74
461.878	27065.44
462.083	25287.81
462.289	24779.91
462.494	24153.23
462.7	23362.72
462.905	22906.02
463.111	23178.4
463.316	23612.57
463.522	23227.55
463.727	23248.03
463.932	23112.86
464.138	22946.98
464.343	23037.09
464.549	22385.83
464.754	23166.11
464.959	22664.36
465.165	22602.92
465.37	21619.89
465.575	21359.8
465.781	22062.26
465.986	22303.92
466.191	21380.28
466.397	20894.91
466.602	20034.77
466.807	20698.31
467.012	20425.93
467.218	20260.04
467.423	19903.7
467.628	19829.97
467.833	21019.84
468.038	20323.53
468.244	19883.22
468.449	20319.43
468.654	19846.35
468.859	19844.31
469.064	19662.04
469.269	18930.91
469.474	18963.68
469.679	19217.63
469.885	18625.76
470.09	18941.15
470.295	18861.28
470.5	18449.64
470.705	18627.81
470.91	18011.37
471.115	17935.6
471.32	17933.55
471.525	18003.18
471.73	17693.94
471.935	17751.28
472.139	17036.54
472.344	16919.81
472.549	17267.96
472.754	16811.26
472.959	16481.54
473.164	16141.58
473.369	16018.7
473.574	16684.29
473.778	16471.3
473.983	16219.4
474.188	16100.62
474.393	15371.54
474.598	15615.25
474.802	15256.86
475.007	15299.86
475.212	15252.76
475.417	14611.75
475.621	14699.81
475.826	14751.01
476.031	14429.48
476.235	14396.71
476.44	14658.85
476.645	14028.07
476.849	14226.73
477.054	13884.72
477.259	13645.1
477.463	13810.99
477.668	13641.01
477.872	13647.15
478.077	13147.45
478.282	13020.47
478.486	13108.54
478.691	12907.84
478.895	12895.55
479.1	12670.27
479.304	12852.54
479.509	12268.87
479.713	12782.91
479.918	12236.1
480.122	11994.44
480.326	12268.87
480.531	12307.78
480.735	12045.64
480.94	11857.23
481.144	12352.84
481.348	11844.94
481.553	11908.43
481.757	11750.73
481.961	11953.48
482.166	12133.7
482.37	11922.76
482.574	11738.44
482.778	11658.57
482.983	11959.63
483.187	11980.11
483.391	11717.97
483.595	11918.67
483.8	11513.17
484.004	11631.95
484.208	11861.32
484.412	11773.26
484.616	11906.38
484.821	11797.84
485.025	11570.51
485.229	11846.99
485.433	11527.5
485.637	11885.9
485.841	11545.94
486.045	11767.12
486.249	11642.19
486.453	11728.21
486.657	11883.85
486.861	11824.46
487.065	11378
487.269	11609.42
487.473	11388.24
487.677	11705.68
487.881	11763.02
488.085	11699.53
488.289	11662.67
488.493	11603.28
488.697	11713.87
488.901	11742.54
489.105	11599.18
489.309	11691.34
489.512	11627.85
489.716	11881.8
489.92	12002.63
490.124	11863.37
490.328	11969.87
490.531	11846.99
490.735	11930.95
490.939	12021.06
491.143	11875.66
491.346	11853.13
491.55	12039.5
491.754	12074.31
491.958	12107.08
492.161	12049.74
492.365	12148.04
492.569	12066.12
492.772	12223.81
492.976	12338.5
493.18	12629.31
493.383	12309.83
493.587	12584.26
493.79	12645.7
493.994	12369.22
494.197	12619.07
494.401	12815.68
494.605	12727.61
494.808	13090.1
495.012	12938.55
495.215	13212.98
495.419	13208.89
495.622	13008.19
495.825	13321.52
496.029	13073.72
496.232	13428.02
496.436	13628.72
496.639	13897
496.843	13798.7
497.046	14163.24
497.249	13970.73
497.453	13985.07
497.656	14404.9
497.859	14302.5
498.063	14630.18
498.266	14597.41
498.469	14617.89
498.673	14843.17
498.876	15068.44
499.079	15183.13
499.282	14894.36
499.485	15541.52
499.689	15625.49
499.892	15807.76
500.095	15844.62
500.298	16305.42
500.501	16133.39
500.705	16227.59
500.908	16579.84
501.111	16796.93
501.314	16891.13
501.517	17161.47
501.72	17169.66
501.923	17089.79
502.126	17507.57
502.329	17624.31
502.532	17777.9
502.735	17829.1
502.938	18253.03
503.141	18445.54
503.344	18740.45
503.547	18803.94
503.75	18842.85
503.953	19266.78
504.156	19344.6
504.359	19524.82
504.562	19713.24
504.765	19987.66
504.968	20235.47
505.17	20309.19
505.373	20655.3
505.576	20923.58
505.779	20991.17
505.982	21101.76
506.185	21732.53
506.387	21499.06
506.59	21884.08
506.793	22105.26
506.996	22197.42
507.198	22863.01
507.401	22654.12
507.604	22844.58
507.807	23280.8
508.009	23270.56
508.212	23432.35
508.415	24149.14
508.617	24134.8
508.82	23995.54
509.022	24769.67
509.225	24855.68
509.428	25050.24
509.63	25365.63
509.833	25463.93
510.035	26233.97
510.238	26018.93
510.44	26385.52
510.643	26295.41
510.845	26780.78
511.048	26719.34
511.25	27243.62
511.453	27237.47
511.655	28329.04
511.858	27784.28
512.06	28050.52
512.262	28501.07
512.465	28154.96
512.667	28959.81
512.87	29041.73
513.072	29244.48
513.274	29676.6
513.477	29744.19
513.679	30239.79
513.881	30323.76
514.084	30503.98
514.286	30559.28
514.488	31081.51
514.69	31624.22
514.893	31622.17
515.095	31910.94
515.297	32439.31
515.499	32582.67
515.701	32691.21
515.904	33672.19
516.106	33287.17
516.308	33819.64
516.51	34108.41
516.712	34194.42
516.914	34624.5
517.116	34962.41
517.318	35333.09
517.52	35666.91
517.722	35384.29
517.925	35802.08
518.127	36328.41
518.329	36289.49
518.531	36236.25
518.733	36643.79
518.935	36883.41
519.136	37147.59
519.338	37757.89
519.54	37764.03
519.742	37899.2
519.944	38632.37
520.146	39029.68
520.348	38939.57
520.55	38568.88
520.752	38839.22
520.954	40055.71
521.155	39572.39
521.357	39910.3
521.559	39887.78
521.761	40764.31
521.963	40844.18
522.164	40446.87
522.366	40631.19
522.568	41343.88
522.77	41255.82
522.971	41905.02
523.173	41618.31
523.375	42101.63
523.576	41751.43
523.778	41958.27
523.98	42701.68
524.181	42398.59
524.383	42847.09
524.584	43193.2
524.786	42894.19
524.988	42840.95
525.189	43152.24
525.391	43576.17
525.592	43561.83
525.794	43404.14
525.995	43639.65
526.197	43676.52
526.398	43733.86
526.6	43797.35
526.801	44034.91
527.003	44047.2
527.204	43754.34
527.406	44266.33
527.607	44186.46
527.808	44594.01
528.01	43936.61
528.211	43969.38
528.412	45050.7
528.614	45015.89
528.815	44551
529.016	45028.18
529.218	44395.35
529.419	44596.06
529.62	44315.48
529.822	44327.77
530.023	44495.71
530.224	44563.29
530.425	44622.68
530.626	44022.62
530.828	44202.85
531.029	45347.66
531.23	43901.79
531.431	44426.07
531.632	44575.58
531.833	44739.41
532.035	44204.89
532.236	44553.05
532.437	44616.54
532.638	44129.12
532.839	44567.38
533.04	44473.18
533.241	43969.38
533.442	44774.23
533.643	44440.41
533.844	44086.11
534.045	44684.12
534.246	43916.13
534.447	44364.64
534.648	44049.25
534.849	44127.07
535.05	43649.89
535.251	43760.48
535.451	43512.68
535.652	43987.81
535.853	43750.24
536.054	44006.24
536.255	43453.29
536.456	43479.91
536.657	43602.79
536.857	43582.31
537.058	42961.78
537.259	43359.08
537.46	43330.41
537.66	43078.51
537.861	43340.65
538.062	42890.1
538.263	43250.54
538.463	42834.8
538.664	42922.87
538.865	42900.34
539.065	43033.46
539.266	42371.96
539.466	42914.67
539.667	42509.18
539.868	42922.87
540.068	42613.62
540.269	43166.57
540.469	42888.05
540.67	42423.16
540.87	42574.71
541.071	42974.06
541.271	42523.51
541.472	42308.47
541.672	42083.2
541.873	42306.43
542.073	41612.17
542.274	42634.1
542.474	42298.23
542.675	42046.33
542.875	42312.57
543.075	42355.58
543.276	41542.53
543.476	42333.05
543.676	42126.21
543.877	42130.3
544.077	42367.87
544.277	42109.82
544.478	41868.16
544.678	42480.5
544.878	41849.73
545.078	42281.85
545.279	41739.14
545.479	42236.8
545.679	41776
545.879	42017.66
546.079	41991.04
546.28	42304.38
546.48	41372.55
546.68	42384.25
546.88	42148.73
547.08	42046.33
547.28	42204.03
547.48	41169.8
547.68	41874.31
547.88	41950.08
548.081	41878.4
548.281	42124.16
548.481	41911.17
548.681	42308.47
548.881	41907.07
549.081	42027.9
549.28	41636.74
549.48	41724.8
549.68	41857.92
549.88	42554.23
550.08	41945.98
550.28	41909.12
550.48	41833.35
550.68	41972.61
550.88	41644.93
551.08	41747.33
551.279	42183.55
551.479	42187.64
551.679	41841.54
551.879	41935.74
552.079	42443.64
552.278	41939.84
552.478	42001.28
552.678	42255.23
552.878	42314.62
553.077	42070.91
553.277	41950.08
553.477	42580.85
553.676	42427.26
553.876	41831.3
554.076	41634.69
554.275	42390.39
554.475	42224.51
554.674	42412.92
554.874	42644.34
555.074	42216.32
555.273	42011.52
555.473	42359.67
555.672	42234.75
555.872	42427.26
556.071	42775.41
556.271	42142.59
556.47	42525.56
556.67	42197.88
556.869	42353.53
557.068	42388.35
557.268	42339.19
557.467	42658.68
557.667	42335.1
557.866	42333.05
558.065	42472.31
558.265	42103.68
558.464	42009.47
558.663	42515.32
558.863	42144.64
559.062	42875.76
559.261	42220.41
559.461	42855.28
559.66	42181.5
559.859	42447.74
560.058	42361.72
560.258	42554.23
560.457	42009.47
560.656	42722.16
560.855	42107.77
561.054	42378.11
561.253	42310.52
561.453	42380.15
561.652	42824.56
561.851	42546.04
562.05	42187.64
562.249	41892.74
562.448	42646.39
562.647	42337.15
562.846	42287.99
563.045	42075.01
563.244	42042.24
563.443	42478.46
563.642	41585.54
563.841	42118.01
564.04	41839.49
564.239	42161.02
564.438	41792.39
564.637	42173.31
564.836	41802.63
565.035	41788.29
565.234	42046.33
565.432	41958.27
565.631	41784.19
565.83	41718.66
566.029	41159.56
566.228	42075.01
566.427	41513.86
566.625	40876.94
566.824	41110.41
567.023	41481.1
567.222	40766.35
567.42	41692.04
567.619	41481.1
567.818	40844.18
568.016	41055.12
568.215	41104.27
568.414	40889.23
568.612	40903.57
568.811	40713.11
569.01	40895.38
569.208	40268.7
569.407	41067.41
569.605	40430.49
569.804	40653.72
570.002	40246.17
570.201	40270.75
570.4	40223.64
570.598	40215.45
570.797	40096.67
570.995	40162.2
571.193	39474.09
571.392	40002.46
571.59	39566.24
571.789	39981.98
571.987	39637.92
572.186	39777.19
572.384	39267.24
572.582	39412.65
572.781	39480.23
572.979	39007.15
573.177	39101.36
573.376	39173.03
573.574	38822.83
573.772	39328.68
573.971	38738.86
574.169	38032.32
574.367	38341.56
574.565	38583.22
574.763	38024.12
574.962	38335.42
575.16	37790.66
575.358	38097.85
575.556	37538.76
575.754	38120.38
575.952	37901.25
576.151	37843.9
576.349	37751.74
576.547	37565.38
576.745	37448.64
576.943	37299.14
577.141	37401.54
577.339	37141.45
577.537	36922.32
577.735	36854.73
577.933	36690.9
578.131	36664.27
578.329	36748.24
578.527	36350.93
578.725	36326.36
578.923	36729.81
579.121	36039.64
579.319	35896.28
579.516	36207.58
579.714	36125.66
579.912	35763.17
580.11	35609.57
580.308	36060.12
580.506	35619.81
580.704	35271.65
580.901	35537.89
581.099	35562.47
581.297	35238.89
581.495	35429.35
581.692	35347.43
581.89	34956.27
582.088	35392.48
582.285	35095.53
582.483	34950.12
582.681	34687.98
582.878	34391.03
583.076	34208.76
583.274	35052.52
583.471	34245.62
583.669	34249.72
583.866	34309.11
584.064	34104.31
584.262	33827.84
584.459	34608.11
584.657	33639.42
584.854	33948.67
585.052	33219.59
585.249	33616.9
585.447	33633.28
585.644	33276.93
585.841	33723.39
586.039	33635.33
586.236	33418.24
586.434	32853
586.631	32840.71
586.828	32947.21
587.026	33086.47
587.223	32955.4
587.42	32531.47
587.618	33016.84
587.815	32554
588.012	32410.64
588.21	32164.89
588.407	32635.92
588.604	32689.17
588.801	32187.41
588.999	32295.96
589.196	31978.52
589.393	32502.8
589.59	32085.01
589.787	31976.47
589.984	31775.77
590.182	31718.43
590.379	32011.29
590.576	31599.65
590.773	32001.05
590.97	31421.47
591.167	31751.2
591.364	31546.4
591.561	31292.45
591.758	31237.16
591.955	31028.26
592.152	31554.59
592.349	31329.31
592.546	31050.79
592.743	31171.62
592.94	30880.81
593.137	31104.04
593.334	31360.03
593.531	30645.29
593.727	30862.38
593.924	30903.34
594.121	30590
594.318	31075.37
594.515	30344.24
594.712	30952.49
594.908	30606.38
595.105	30913.58
595.302	30276.66
595.499	30587.95
595.696	30168.12
595.892	30227.51
596.089	30426.16
596.286	30102.58
596.482	30491.69
596.679	30444.59
596.876	30499.89
597.072	29819.96
597.269	30454.83
597.466	29723.71
597.662	30149.68
597.859	30061.62
598.055	30135.35
598.252	29869.11
598.448	30270.51
598.645	29871.16
598.841	29731.9
599.038	29666.36
599.234	29854.78
599.431	29692.99
599.627	29721.66
599.824	29883.45
600.02	29385.79
600.217	29799.48
600.413	30071.86
600.609	29631.55
600.806	29623.36
601.002	29889.59
601.198	29588.54
601.395	29525.05
601.591	29652.03
601.787	29799.48
601.984	29303.87
602.18	29795.39
602.376	29697.08
602.572	29412.42
602.769	29789.24
602.965	29441.09
603.161	29361.22
603.357	29385.79
603.553	29254.72
603.75	29365.31
603.946	29019.21
604.142	29572.16
604.338	28845.13
604.534	29615.16
604.73	29465.66
604.926	29273.15
605.122	29803.58
605.318	29381.7
605.514	29283.39
605.71	29590.59
605.906	29307.97
606.102	29443.13
606.298	29344.83
606.494	29609.02
606.69	29482.05
606.886	29291.59
607.082	29140.04
607.278	29895.74
607.474	29142.08
607.67	29539.39
607.866	29533.25
608.062	29838.39
608.257	29598.78
608.453	29422.66
608.649	29611.07
608.845	29322.3
609.041	29688.89
609.236	29928.5
609.432	29471.81
609.628	29586.49
609.824	29140.04
610.019	29441.09
610.215	29891.64
610.411	29549.63
610.606	29551.68
610.802	30012.47
610.998	29463.61
611.193	29672.51
611.389	29623.36
611.584	29326.4
611.78	29371.46
611.976	29637.69
612.171	29692.99
612.367	29688.89
612.562	29664.32
612.758	29262.91
612.953	29602.88
613.149	29981.75
613.344	29312.06
613.539	29998.13
613.735	29559.87
613.93	30362.67
614.126	29635.64
614.321	30004.28
614.517	29830.2
614.712	29811.77
614.907	29625.4
615.103	29946.94
615.298	29633.6
615.493	29844.54
615.688	29473.85
615.884	30112.82
616.079	29185.09
616.274	30035
616.47	29633.6
616.665	29414.46
616.86	29678.65
617.055	29506.62
617.25	29264.96
617.445	29580.35
617.641	29027.4
617.836	29611.07
618.031	29006.92
618.226	29602.88
618.421	29140.04
618.616	29344.83
618.811	29070.4
619.006	29385.79
619.201	28351.57
619.396	29264.96
619.591	28531.79
619.786	29121.6
619.981	28482.64
620.176	28693.58
620.371	28458.06
620.566	28222.55
620.761	28312.66
620.956	28515.4
621.151	27886.68
621.346	28202.07
621.541	27913.3
621.735	28073.04
621.93	27825.24
622.125	27642.97
622.32	27239.52
622.515	27423.84
622.709	27333.73
622.904	27081.83
623.099	26995.81
623.294	27100.26
623.488	26578.03
623.683	27004
623.878	26492.01
624.072	26799.21
624.267	26371.18
624.462	26233.97
624.656	25865.33
624.851	26395.76
625.046	26201.2
625.24	25826.42
625.435	25541.75
625.629	25752.7
625.824	25547.9
626.018	25257.09
626.213	24839.3
626.407	25058.43
626.602	25048.19
626.796	25166.98
626.991	24753.29
627.185	24491.15
627.38	24370.32
627.574	24312.97
627.768	24306.83
627.963	23864.47
628.157	23983.25
628.352	24050.83
628.546	23737.49
628.74	23751.83
628.935	23332
629.129	23219.36
629.323	23032.99
629.517	23207.07
629.712	23088.29
629.906	23043.23
630.1	22584.49
630.294	22953.12
630.489	22471.85
630.683	22633.64
630.877	22191.28
631.071	22119.6
631.265	22469.8
631.459	22164.65
631.653	21922.99
631.848	21920.95
632.042	21695.67
632.236	21904.56
632.43	21392.57
632.624	21613.75
632.818	21294.27
633.012	20905.15
633.206	21171.39
633.4	21425.34
633.594	20694.21
633.788	21048.51
633.982	20808.9
634.176	20952.26
634.369	20645.06
634.563	20769.99
634.757	20128.97
634.951	20346.06
635.145	20108.49
635.339	20114.64
635.533	19973.33
635.726	20057.29
635.92	19498.2
636.114	19805.39
636.308	19328.22
636.501	19543.25
636.695	19360.98
636.889	19320.03
637.083	18951.39
637.276	19209.43
637.47	18939.1
637.664	18986.21
637.857	18787.55
638.051	18636
638.244	18326.76
638.438	18377.96
638.632	18263.27
638.825	17990.89
639.019	18259.18
639.212	17931.5
639.406	18140.4
639.599	17669.36
639.793	18115.82
639.986	17566.96
640.18	17632.5
640.373	17319.16
640.567	17190.14
640.76	17323.26
640.954	16997.63
641.147	17061.12
641.34	16850.17
641.534	16653.57
641.727	16702.72
641.92	16809.22
642.114	16352.52
642.307	16504.07
642.5	16465.16
642.694	16039.18
642.887	16327.94
643.08	16137.48
643.273	15844.62
643.467	15944.97
643.66	15686.93
643.853	15770.9
644.046	15605.01
644.239	15566.1
644.432	15535.38
644.626	15252.76
644.819	15146.26
645.012	15226.14
645.205	15107.35
645.398	15068.44
645.591	14896.41
645.784	14990.62
645.977	14552.35
646.17	14566.69
646.363	14271.78
646.556	14357.8
646.749	14478.63
646.942	14400.8
647.135	14204.2
647.328	14191.91
647.521	13933.87
647.714	13794.61
647.907	13813.04
648.099	13671.73
648.292	13798.7
648.485	13722.93
648.678	13503.79
648.871	13540.66
649.064	13315.38
649.256	13649.2
649.449	13423.92
649.642	13163.83
649.835	13002.04
650.027	13069.62
650.22	13014.33
650.413	12705.09
650.605	13100.34
650.798	12926.27
650.991	12887.36
651.183	12856.64
651.376	12492.1
651.568	12688.7
651.761	12348.74
651.954	12467.52
652.146	12393.79
652.339	12305.73
652.531	12322.12
652.724	12152.13
652.916	11928.91
653.109	11963.72
653.301	12244.29
653.494	12004.68
653.686	11744.59
653.879	11771.21
654.071	11828.56
654.263	11578.7
654.456	11803.98
654.648	11468.11
654.84	11437.39
655.033	11451.73
655.225	11351.38
655.417	11402.58
655.61	11275.6
655.802	11281.75
655.994	10855.77
656.186	11122.01
656.379	10921.31
656.571	10751.32
656.763	10990.94
656.955	10810.72
657.148	10693.98
657.34	10780
657.532	10517.86
657.724	10562.91
657.916	10661.21
658.108	10452.32
658.3	10462.56
658.492	10556.77
658.684	10044.77
658.876	10468.7
659.068	10251.62
659.26	9928.04
659.452	10048.87
659.644	10069.35
659.836	10026.34
660.028	9796.97
660.22	9799.02
660.412	9796.97
660.604	9809.26
660.796	9780.59
660.988	9684.33
661.18	9457.01
661.372	9534.83
661.563	9588.08
661.755	9493.87
661.947	9184.63
662.139	9403.76
662.331	9338.23
662.522	9110.9
662.714	9182.58
662.906	8910.2
663.097	9092.47
663.289	9061.75
663.481	8965.5
663.673	8945.02
663.864	8904.06
664.056	8740.22
664.247	8783.23
664.439	8600.96
664.631	8473.98
664.822	8535.42
665.014	8603
665.205	8588.67
665.397	8537.47
665.588	8535.42
665.78	8437.12
665.971	8248.71
666.163	8322.43
666.354	8174.98
666.546	8174.98
666.737	8168.84
666.929	8005
667.12	8107.4
667.311	8068.48
667.503	7914.89
667.694	7982.47
667.885	7957.89
668.077	7806.34
668.268	7910.79
668.459	7679.37
668.651	7718.28
668.842	7726.47
669.033	7640.46
669.224	7570.83
669.416	7738.76
669.607	7695.75
669.798	7464.33
669.989	7480.72
670.18	7476.62
670.371	7437.71
670.563	7372.18
670.754	7398.8
670.945	7511.44
671.136	7267.73
671.327	7366.03
671.518	7210.39
671.709	7200.15
671.9	7220.63
672.091	7273.87
672.282	7114.13
672.473	6968.73
672.664	7026.07
672.855	7042.45
673.046	7177.62
673.237	7093.65
673.428	7017.88
673.619	6882.71
673.809	6825.37
674	6905.24
674.191	6710.68
674.382	6741.4
674.573	6716.83
674.764	6743.45
674.954	6825.37
675.145	6899.09
675.336	6659.48
675.527	6671.77
675.717	6729.11
675.908	6491.55
676.099	6507.93
676.289	6833.56
676.48	6497.69
676.671	6479.26
676.861	6675.87
677.052	6503.84
677.243	6552.99
677.433	6335.9
677.624	6667.67
677.814	6374.81
678.005	6598.04
678.195	6397.34
678.386	6383.01
678.576	6235.55
678.767	6340
678.957	6331.81
679.148	6362.53
679.338	6299.04
679.529	6393.25
679.719	6368.67
679.909	6372.77
680.1	6315.42
680.29	6374.81
680.481	6280.61
680.671	6139.3
680.861	6208.93
681.052	6167.97
681.242	6127.01
681.432	6405.53
681.622	6020.52
681.813	6077.86
682.003	6286.75
682.193	6167.97
682.383	6174.11
682.573	5916.07
682.764	6059.43
682.954	6092.2
683.144	5981.6
683.334	5971.36
683.524	5971.36
683.714	5924.26
683.904	6133.15
684.094	5963.17
684.284	5965.22
684.474	6020.52
684.664	5864.87
684.854	5930.41
685.044	5934.5
685.234	5885.35
685.424	5897.64
685.614	5787.05
685.804	5920.17
685.994	5627.31
686.184	5838.25
686.374	5828.01
686.564	5778.86
686.753	5852.58
686.943	5848.49
687.133	5727.66
687.323	5701.03
687.513	5805.48
687.702	5768.62
687.892	5502.38
688.082	5588.39
688.272	5600.68
688.461	5621.16
688.651	5701.03
688.841	5674.41
689.03	5406.13
689.22	5516.72
689.41	5569.96
689.599	5483.95
689.789	5555.63
689.979	5459.37
690.168	5465.52
690.358	5340.59
690.547	5356.97
690.737	5569.96
690.926	5373.36
691.116	5143.99
691.305	5340.59
691.495	5264.82
691.684	5279.15
691.874	5336.49
692.063	5262.77
692.252	5115.31
692.442	5103.03
692.631	5148.08
692.82	5127.6
693.01	5045.68
693.199	5133.75
693.388	5035.44
693.578	5133.75
693.767	5121.46
693.956	5119.41
694.146	5131.7
694.335	5172.66
694.524	5074.35
694.713	4924.85
694.902	4877.75
695.092	5035.44
695.281	5006.77
695.47	4957.62
695.659	4912.57
695.848	4898.23
696.037	5008.82
696.226	5025.2
696.415	4801.97
696.604	4879.8
696.793	4998.58
696.982	4677.05
697.171	4785.59
697.36	4756.92
697.549	4703.67
697.738	4730.3
697.927	4636.09
698.116	4720.06
698.305	4687.29
698.494	4677.05
698.683	4722.1
698.872	4783.54
699.061	4672.95
699.25	4593.08
699.438	4554.17
699.627	4711.86
699.816	4695.48
700.005	4586.94
700.193	4539.83
700.382	4572.6
700.571	4562.36
700.76	4437.44
700.948	4539.83
701.137	4431.29
701.326	4380.09
701.514	4400.57
701.703	4464.06
701.892	4369.85
702.08	4390.33
702.269	4451.77
702.457	4402.62
702.646	4382.14
702.834	4384.19
703.023	4314.56
703.212	4316.61
703.4	4371.9
703.589	4318.65
703.777	4373.95
703.965	4310.46
704.154	4173.25
704.342	4316.61
704.531	4163.01
704.719	4228.54
704.907	4244.93
705.096	4029.89
705.284	4185.54
705.472	4124.1
705.661	4074.95
705.849	4062.66
706.037	4064.71
706.226	4105.67
706.414	4105.67
706.602	4042.18
706.79	4038.08
706.979	4103.62
707.167	3933.64
707.355	4072.9
707.543	3880.39
707.731	3988.93
707.919	3970.5
708.107	3988.93
708.296	3931.59
708.484	3911.11
708.672	3972.55
708.86	3886.53
709.048	3825.09
709.236	3898.82
709.424	3849.67
709.612	3874.24
709.8	3806.66
709.988	3839.43
710.176	3866.05
710.364	3816.9
710.551	3747.27
710.739	3679.69
710.927	3780.04
711.115	3728.84
711.303	3818.95
711.491	3749.32
711.679	3708.36
711.866	3605.96
712.054	3638.73
712.242	3587.53
712.43	3622.34
712.617	3583.43
712.805	3685.83
712.993	3573.19
713.181	3519.95
713.368	3567.05
713.556	3587.53
713.744	3605.96
713.931	3618.25
714.119	3591.63
714.306	3491.27
714.494	3431.88
714.682	3501.51
714.869	3409.36
715.057	3476.94
715.244	3501.51
715.432	3519.95
715.619	3622.34
715.807	3515.85
715.994	3458.51
716.182	3456.46
716.369	3392.97
716.556	3386.83
716.744	3368.4
716.931	3335.63
717.119	3255.76
717.306	3321.29
717.493	3354.06
717.681	3364.3
717.868	3358.16
718.055	3362.25
718.242	3292.62
718.43	3218.89
718.617	3366.35
718.804	3280.33
718.991	3128.78
719.179	3290.57
719.366	3261.9
719.553	3212.75
719.74	3173.84
719.927	3227.09
720.114	3014.1
720.301	3122.64
720.488	3204.56
720.676	3186.13
720.863	3227.09
721.05	3198.42
721.237	3050.96
721.424	3182.03
721.611	3083.73
721.798	3143.12
721.985	2956.75
722.172	3042.77
722.358	3005.91
722.545	3212.75
722.732	2932.18
722.919	2969.04
723.106	3018.19
723.293	3065.3
723.48	2993.62
723.667	2903.51
723.853	2958.8
724.04	2960.85
724.227	2956.75
724.414	2928.08
724.6	2856.4
724.787	2813.4
724.974	3040.72
725.161	2819.54
725.347	2878.93
725.534	2829.78
725.72	2837.97
725.907	2907.6
726.094	2809.3
726.28	2833.88
726.467	2797.01
726.653	2760.15
726.84	2827.73
727.027	2844.12
727.213	2794.97
727.4	2909.65
727.586	2792.92
727.773	2702.81
727.959	2747.86
728.145	2770.39
728.332	2870.74
728.518	2672.09
728.705	2788.82
728.891	2575.83
729.077	2704.85
729.264	2602.46
729.45	2670.04
729.636	2661.85
729.823	2684.38
730.009	2760.15
730.195	2758.1
730.382	2743.77
730.568	2674.14
730.754	2805.21
730.94	2780.63
731.126	2702.81
731.313	2633.18
731.499	2645.46
731.685	2530.78
731.871	2657.75
732.057	2549.21
732.243	2635.22
732.429	2616.79
732.615	2530.78
732.801	2547.16
732.987	2536.92
733.173	2500.06
733.359	2489.82
733.545	2590.17
733.731	2506.2
733.917	2559.45
734.103	2393.56
734.289	2557.4
734.475	2557.4
734.661	2547.16
734.847	2426.33
735.033	2434.52
735.219	2594.26
735.404	2414.04
735.59	2407.9
735.776	2356.7
735.962	2401.76
736.148	2407.9
736.333	2430.43
736.519	2383.32
736.705	2407.9
736.89	2391.52
737.076	2448.86
737.262	2393.56
737.447	2405.85
737.633	2276.83
737.819	2489.82
738.004	2399.71
738.19	2473.43
738.375	2211.29
738.561	2397.66
738.747	2325.98
738.932	2325.98
739.118	2358.75
739.303	2295.26
739.489	2213.34
739.674	2244.06
739.859	2416.09
740.045	2368.99
740.23	2295.26
740.416	2074.08
740.601	2137.57
740.786	2272.73
740.972	2260.45
741.157	2194.91
741.342	2156
741.528	2076.13
741.713	2272.73
741.898	2112.99
742.084	2129.38
742.269	2297.31
742.454	2010.59
742.639	2049.5
742.824	2235.87
743.01	2053.6
743.195	2211.29
743.38	2182.62
743.565	2076.13
743.75	2123.23
743.935	2063.84
744.12	2158.05
744.305	2112.99
744.49	1961.44
744.675	2047.46
744.86	1990.11
745.045	2055.65
745.23	2078.18
745.415	1918.43
745.6	2012.64
745.785	1895.91
745.97	1953.25
746.155	1965.54
746.34	1969.63
746.525	1957.35
746.71	1900
746.895	1834.47
747.079	1818.08
747.264	1775.08
747.449	1920.48
747.634	1854.95
747.819	1781.22
748.003	1891.81
748.188	1773.03
748.373	1789.41
748.557	1777.12
748.742	1883.62
748.927	1748.45
749.111	1752.55
749.296	1676.77
749.481	1648.1
749.665	1664.49
749.85	1678.82
750.034	1750.5
750.219	1687.01
750.404	1625.58
750.588	1633.77
750.773	1678.82
750.957	1656.29
751.141	1621.48
751.326	1570.28
751.51	1631.72
751.695	1586.66
751.879	1590.76
752.064	1574.38
752.248	1543.66
752.432	1592.81
752.617	1560.04
752.801	1451.5
752.985	1457.64
753.17	1562.09
753.354	1435.11
753.538	1527.27
753.722	1437.16
753.907	1336.81
754.091	1404.39
754.275	1482.22
754.459	1383.91
754.643	1375.72
754.828	1394.15
755.012	1318.38
755.196	1441.26
755.38	1459.69
755.564	1459.69
755.748	1283.56
755.932	1383.91
756.116	1302
756.3	1351.15
756.484	1277.42
756.668	1326.57
756.852	1273.32
757.036	1220.08
757.22	1248.75
757.404	1334.76
757.588	1302
757.772	1228.27
757.956	1299.95
758.14	1373.68
758.323	1179.12
758.507	1295.85
758.691	1293.8
758.875	1236.46
759.059	1195.5
759.242	1179.12
759.426	1150.45
759.61	1146.35
759.794	1203.69
759.977	1113.58
760.161	1248.75
760.345	1146.35
760.528	1148.4
760.712	1252.84
760.895	1134.06
761.079	1105.39
761.263	1025.52
761.446	1162.73
761.63	1121.77
761.813	1076.72
761.997	1113.58
762.18	1033.71
762.364	1041.9
762.547	1150.45
762.731	1072.62
762.914	1099.25
763.098	1031.66
763.281	1062.38
763.464	1101.3
763.648	1097.2
763.831	1064.43
764.015	1052.14
764.198	1111.54
764.381	1164.78
764.564	1002.99
764.748	1007.09
764.931	1056.24
765.114	1000.94
765.297	1080.82
765.481	957.94
765.664	990.7
765.847	949.75
766.03	1089.01
766.213	974.32
766.397	968.18
766.58	943.6
766.763	974.32
766.946	970.23
767.129	998.9
767.312	943.6
767.495	941.55
767.678	892.4
767.861	1025.52
768.044	1039.86
768.227	927.22
768.41	1015.28
768.593	984.56
768.776	943.6
768.959	894.45
769.142	949.75
769.324	921.07
769.507	796.15
769.69	976.37
769.873	925.17
770.056	945.65
770.239	849.4
770.421	837.11
770.604	882.16
770.787	884.21
770.97	830.96
771.152	822.77
771.335	906.74
771.518	876.02
771.7	884.21
771.883	822.77
772.066	892.4
772.248	880.11
772.431	814.58
772.613	790
772.796	802.29
772.978	794.1
773.161	865.78
773.343	769.52
773.526	777.72
773.708	749.04
773.891	800.24
774.073	771.57
774.256	818.68
774.438	794.1
774.621	720.37
774.803	781.81
774.985	699.89
775.168	843.25
775.35	736.76
775.532	794.1
775.715	663.03
775.897	722.42
776.079	730.61
776.261	728.56
776.444	753.14
776.626	720.37
776.808	701.94
776.99	732.66
777.173	671.22
777.355	728.56
777.537	749.04
777.719	650.74
777.901	615.93
778.083	720.37
778.265	589.3
778.447	679.41
778.629	658.93
778.811	693.75
778.993	671.22
779.175	695.8
779.357	630.26
779.539	583.16
779.721	589.3
779.903	753.14
780.085	564.73
780.267	652.79
780.449	699.89
780.631	603.64
780.812	613.88
780.994	638.45
781.176	597.49
781.358	585.21
781.54	577.02
781.721	620.02
781.903	577.02
782.085	531.96
782.267	613.88
782.448	538.1
782.63	648.69
782.812	589.3
782.993	577.02
783.175	515.58
783.357	523.77
783.538	548.34
783.72	486.9
783.901	476.66
784.083	622.07
784.264	531.96
784.446	509.43
784.627	519.67
784.809	480.76
784.99	482.81
785.172	581.11
785.353	548.34
785.535	482.81
785.716	517.62
785.897	517.62
786.079	488.95
786.26	519.67
786.441	486.9
786.623	411.13
786.804	376.31
786.985	493.05
787.167	482.81
787.348	429.56
787.529	491
787.71	458.23
787.891	376.31
788.073	361.98
788.254	419.32
788.435	443.9
788.616	441.85
788.797	441.85
788.978	376.31
789.159	386.55
789.34	441.85
789.522	374.27
789.703	384.51
789.884	443.9
790.065	370.17
790.246	456.19
790.427	376.31
790.607	435.71
790.788	476.66
790.969	441.85
791.15	335.35
791.331	409.08
791.512	454.14
791.693	298.49
791.874	331.26
792.054	450.04
792.235	370.17
792.416	237.05
792.597	359.93
792.778	458.23
792.958	361.98
793.139	351.74
793.32	372.22
793.5	312.83
793.681	378.36
793.862	417.27
794.042	335.35
794.223	325.12
794.404	310.78
794.584	314.88
794.765	335.35
794.945	359.93
795.126	368.12
795.306	361.98
795.487	327.16
795.667	312.83
795.848	273.92
796.028	335.35
796.209	296.44
796.389	296.44
796.57	355.83
796.75	349.69
796.93	245.24
797.111	300.54
797.291	265.72
797.471	271.87
797.652	278.01
797.832	335.35
798.012	300.54
798.192	323.07
798.373	239.1
798.553	247.29
798.733	302.59
798.913	284.16
799.093	337.4
799.274	316.92
799.454	351.74
799.634	323.07
799.814	349.69
799.994	263.68
800.174	314.88
800.354	296.44
800.534	245.24
800.714	273.92
800.894	286.2
801.074	185.85
801.254	181.76
801.434	255.48
801.614	257.53
801.794	167.42
801.974	781.81
802.154	261.63
802.334	273.92
802.514	294.4
802.693	361.98
802.873	208.38
803.053	278.01
803.233	243.2
803.413	294.4
803.592	192
803.772	163.33
803.952	228.86
804.131	222.72
804.311	138.75
804.491	263.68
804.67	257.53
804.85	175.61
805.03	228.86
805.209	200.19
805.389	216.57
805.568	148.99
805.748	204.28
805.928	185.85
806.107	112.13
806.287	241.15
806.466	237.05
806.646	222.72
806.825	249.34
807.004	138.75
807.184	189.95
807.363	257.53
807.543	232.96
807.722	173.57
807.901	245.24
808.081	224.76
808.26	93.69
808.439	146.94
808.619	189.95
808.798	210.43
808.977	169.47
809.156	261.63
809.336	187.9
809.515	169.47
809.694	146.94
809.873	175.61
810.052	267.77
810.231	220.67
810.411	183.81
810.59	179.71
810.769	198.14
810.948	208.38
811.127	159.23
811.306	148.99
811.485	142.85
811.664	192
811.843	181.76
812.022	153.09
812.201	136.7
812.38	196.09
812.559	148.99
812.737	163.33
812.916	142.85
813.095	163.33
813.274	97.79
813.453	224.76
813.632	179.71
813.811	204.28
813.989	171.52
814.168	196.09
814.347	93.69
814.526	171.52
814.704	163.33
814.883	175.61
815.062	179.71
815.24	192
815.419	175.61
815.598	114.17
815.776	69.12
815.955	126.46
816.133	120.32
816.312	194.05
816.49	140.8
816.669	138.75
816.847	230.91
817.026	97.79
817.204	134.65
817.383	67.07
817.561	108.03
817.74	132.61
817.918	116.22
818.097	130.56
818.275	118.27
818.453	110.08
818.632	189.95
818.81	157.18
818.988	114.17
819.167	157.18
819.345	185.85
819.523	140.8
819.701	130.56
819.879	73.21
820.058	124.41
820.236	50.69
820.414	81.41
820.592	65.02
820.77	132.61
820.948	114.17
821.127	54.78
821.305	183.81
821.483	24.06
821.661	44.54
821.839	167.42
822.017	60.93
822.195	91.65
822.373	130.56
822.551	48.64
822.729	136.7
822.907	50.69
823.085	165.37
823.262	171.52
823.44	116.22
823.618	122.37
823.796	99.84
823.974	24.06
824.152	62.98
824.329	44.54
824.507	132.61
824.685	24.06
824.863	87.55
825.04	28.16
825.218	67.07
825.396	62.98
825.574	67.07
825.751	24.06
825.929	192
826.107	58.88
826.284	73.21
826.462	65.02
826.639	5.63
826.817	67.07
826.994	91.65
827.172	89.6
827.349	163.33
827.527	32.26
827.704	83.45
827.882	171.52
828.059	65.02
828.237	28.16
828.414	110.08
828.591	32.26
828.769	81.41
828.946	73.21
829.124	36.35
829.301	95.74
829.478	36.35
829.655	97.79
829.833	40.45
830.01	56.83
830.187	89.6
830.364	44.54
830.542	132.61
830.719	101.89
830.896	93.69
831.073	146.94
831.25	60.93
831.427	108.03
831.604	126.46
831.782	159.23
831.959	71.17
832.136	17.92
832.313	110.08
832.49	24.06
832.667	42.5
832.844	-12.8
833.021	73.21
833.198	73.21
833.374	75.26
833.551	50.69
833.728	56.83
833.905	138.75
834.082	11.78
834.259	69.12
834.436	85.5
834.612	56.83
834.789	77.31
834.966	48.64
835.143	142.85
835.319	36.35
835.496	83.45
835.673	93.69
835.85	65.02
836.026	81.41
836.203	108.03
836.38	101.89
836.556	34.3
836.733	65.02
836.909	89.6
837.086	5.63
837.262	99.84
837.439	11.78
837.616	95.74
837.792	114.17
837.968	-6.66
838.145	-37.38
838.321	77.31
838.498	-39.42
838.674	108.03
838.851	130.56
839.027	44.54
839.203	34.3
839.38	130.56
839.556	83.45
839.732	138.75
839.909	89.6
840.085	79.36
840.261	13.82
840.437	24.06
840.614	-8.7
840.79	50.69
840.966	40.45
841.142	69.12
841.318	87.55
841.494	65.02
841.671	34.3
841.847	56.83
842.023	56.83
842.199	67.07
842.375	69.12
842.551	44.54
842.727	65.02
842.903	99.84
843.079	48.64
843.255	85.5
843.431	40.45
843.607	42.5
843.783	56.83
843.959	36.35
844.134	-8.7
844.31	97.79
844.486	58.88
844.662	-16.9
844.838	67.07
845.013	73.21
845.189	56.83
845.365	46.59
845.541	114.17
845.716	19.97
845.892	38.4
846.068	7.68
846.244	52.74
846.419	46.59
846.595	-0.51
846.77	5.63
846.946	28.16
847.122	1.54
847.297	65.02
847.473	132.61
847.648	52.74
847.824	73.21
847.999	24.06
848.175	36.35
848.35	67.07
848.526	89.6
848.701	44.54
848.876	91.65
849.052	22.02
849.227	65.02
849.403	34.3
849.578	24.06
849.753	79.36
849.929	103.93
850.104	34.3
850.279	40.45
850.454	67.07
850.63	108.03
850.805	5.63
850.98	77.31
851.155	32.26
851.33	50.69
851.505	-10.75
851.681	52.74
851.856	9.73
852.031	87.55
852.206	69.12
852.381	-25.09
852.556	32.26
852.731	50.69
852.906	42.5
853.081	28.16
853.256	36.35
853.431	15.87
853.606	-64
853.781	48.64
853.956	-0.51
854.131	73.21
854.305	-27.14
854.48	36.35
854.655	-20.99
854.83	52.74
855.005	101.89
855.18	32.26
855.354	48.64
855.529	122.37
855.704	7.68
855.879	118.27
856.053	17.92
856.228	-27.14
856.403	-8.7
856.577	56.83
856.752	-37.38
856.926	48.64
857.101	7.68
857.276	-8.7
857.45	26.11
857.625	71.17
857.799	36.35
857.974	73.21
858.148	38.4
858.323	34.3
858.497	50.69
858.672	44.54
858.846	-8.7
859.02	56.83
859.195	62.98
859.369	-8.7
859.543	-6.66
859.718	36.35
859.892	32.26
860.066	7.68
860.241	15.87
860.415	99.84
860.589	89.6
860.763	9.73
860.938	-6.66
861.112	-4.61
861.286	-49.66
861.46	32.26
861.634	9.73
861.808	56.83
861.982	60.93
862.157	-49.66
862.331	69.12
862.505	-45.57
862.679	-8.7
862.853	40.45
863.027	-0.51
863.201	132.61
863.375	-25.09
863.549	54.78
863.722	34.3
863.896	54.78
864.07	44.54
864.244	46.59
864.418	32.26
864.592	9.73
864.766	11.78
864.939	28.16
865.113	24.06
865.287	105.98
865.461	-53.76
865.634	-2.56
865.808	-25.09
865.982	60.93
866.156	-57.86
866.329	-8.7
866.503	-4.61
866.676	54.78
866.85	11.78
867.024	-49.66
867.197	-0.51
867.371	83.45
867.544	79.36
867.718	-8.7
867.891	75.26
868.065	-20.99
868.238	50.69
868.412	138.75
868.585	28.16
868.759	-45.57
868.932	-8.7
869.105	-47.62
869.279	28.16
869.452	-20.99
869.625	71.17
869.799	19.97
869.972	-25.09
870.145	-37.38
870.319	-88.57
870.492	7.68
870.665	-14.85
870.838	26.11
871.011	-74.24
871.185	24.06
871.358	-4.61
871.531	-41.47
871.704	-92.67
871.877	-82.43
872.05	34.3
872.223	85.5
872.396	-0.51
872.569	-14.85
872.742	-74.24
872.915	-6.66
873.088	-20.99
873.261	-33.28
873.434	1.54
873.607	32.26
873.78	97.79
873.953	-16.9
874.126	-47.62
874.299	67.07
874.471	-31.23
874.644	13.82
874.817	13.82
874.99	126.46
875.163	-10.75
875.335	-25.09
875.508	-6.66
875.681	26.11
875.853	-53.76
876.026	-64
876.199	-33.28
876.371	11.78
876.544	-14.85
876.717	-8.7
876.889	-16.9
877.062	69.12
877.234	15.87
877.407	-0.51
877.579	38.4
877.752	81.41
877.924	-53.76
878.097	-37.38
878.269	42.5
878.442	15.87
878.614	1.54
878.786	36.35
878.959	-31.23
879.131	-6.66
879.303	-59.9
879.476	-16.9
879.648	32.26
879.82	-10.75
879.993	-41.47
880.165	1.54
880.337	-2.56
880.509	-57.86
880.681	-47.62
880.854	-0.51
881.026	50.69
881.198	9.73
881.37	-35.33
881.542	65.02
881.714	-6.66
881.886	24.06
882.058	-37.38
882.23	60.93
882.402	5.63
882.574	1.54
882.746	-49.66
882.918	50.69
883.09	60.93
883.262	-43.52
883.434	-8.7
883.606	26.11
883.778	-39.42
883.95	58.88
884.122	32.26
884.293	46.59
884.465	-61.95
884.637	34.3
884.809	3.58
884.98	34.3
885.152	-0.51
885.324	48.64
885.496	-27.14
885.667	-39.42
885.839	32.26
886.011	62.98
886.182	40.45
886.354	11.78
886.525	15.87
886.697	22.02
886.869	-33.28
887.04	-16.9
887.212	-4.61
887.383	26.11
887.555	-49.66
887.726	73.21
887.897	19.97
888.069	-18.94
888.24	7.68
888.412	28.16
888.583	-12.8
888.754	19.97
888.926	-88.57
889.097	-16.9
889.268	-41.47
889.44	26.11
889.611	-76.29
889.782	5.63
889.953	-31.23
890.125	15.87
890.296	-31.23
890.467	-25.09
890.638	-0.51
890.809	36.35
890.98	7.68
891.151	-29.18
891.323	46.59
891.494	38.4
891.665	17.92
891.836	-29.18
892.007	7.68
892.178	-53.76
892.349	-45.57
892.52	3.58
892.691	-66.05
892.862	-16.9
893.032	-37.38
893.203	-92.67
893.374	-4.61
893.545	89.6
893.716	-59.9
893.887	24.06
894.057	5.63
894.228	65.02
894.399	-12.8
894.57	7.68
894.74	15.87
894.911	89.6
895.082	-16.9
895.253	-41.47
895.423	-43.52
895.594	28.16
895.764	-57.86
895.935	40.45
896.106	-20.99
896.276	-4.61
896.447	17.92
896.617	-8.7
896.788	-6.66
896.958	-23.04
897.129	11.78
897.299	-14.85
897.47	114.17
897.64	32.26
897.81	-14.85
897.981	42.5
898.151	5.63
898.322	-2.56
898.492	-6.66
898.662	-47.62
898.832	-0.51
899.003	24.06
899.173	15.87
899.343	-0.51
899.513	-78.33
