Data from USB4F104151__250__14-34-15-609.txt Node

Date: Thu Mar 13 14:34:15 EDT 2025
User: louis
Spectrometer: USB4F10415
Trigger mode: 4
Integration Time (sec): 2.500000E-2
Scans to average: 1
Electric dark correction enabled: true
Nonlinearity correction enabled: false
Boxcar width: 0
XAxis mode: Wavelengths
Number of Pixels in Spectrum: 3648
>>>>>Begin Spectral Data<<<<<
178.204	-126.12
178.424	-126.12
178.644	-126.12
178.864	-99.5
179.084	-97.45
179.304	-5.29
179.524	29.52
179.744	-56.49
179.964	21.33
180.184	-29.87
180.404	-11.43
180.624	9.05
180.844	31.57
181.064	-7.34
181.283	31.57
181.503	-19.63
181.723	7
181.943	15.19
182.163	62.29
182.383	45.91
182.602	47.96
182.822	66.39
183.042	64.34
183.262	41.81
183.482	45.91
183.701	95.06
183.921	-27.82
184.141	17.24
184.361	62.29
184.58	78.68
184.8	82.77
185.02	19.29
185.239	37.72
185.459	31.57
185.679	140.12
185.898	-1.19
186.118	123.73
186.338	-19.63
186.557	29.52
186.777	84.82
186.997	15.19
187.216	29.52
187.436	119.64
187.655	103.25
187.875	115.54
188.095	56.15
188.314	66.39
188.534	50
188.753	64.34
188.973	50
189.192	121.68
189.412	-15.53
189.631	7
189.851	33.62
190.07	152.4
190.29	17.24
190.509	68.44
190.729	43.86
190.948	140.12
191.168	93.01
191.387	86.87
191.607	41.81
191.826	72.53
192.045	15.19
192.265	31.57
192.484	111.44
192.704	62.29
192.923	25.43
193.142	144.21
193.362	31.57
193.581	123.73
193.8	68.44
194.02	103.25
194.239	82.77
194.458	72.53
194.678	52.05
194.897	45.91
195.116	17.24
195.335	113.49
195.555	97.11
195.774	31.57
195.993	70.48
196.212	37.72
196.432	127.83
196.651	103.25
196.87	29.52
197.089	74.58
197.308	90.96
197.528	41.81
197.747	7
197.966	43.86
198.185	84.82
198.404	21.33
198.623	119.64
198.842	90.96
199.062	-1.19
199.281	88.92
199.5	66.39
199.719	50
199.938	113.49
200.157	95.06
200.376	29.52
200.595	54.1
200.814	90.96
201.033	27.48
201.252	56.15
201.471	72.53
201.69	166.74
201.909	121.68
202.128	70.48
202.347	68.44
202.566	39.76
202.785	56.15
203.004	62.29
203.223	113.49
203.442	60.24
203.661	62.29
203.879	70.48
204.098	101.2
204.317	56.15
204.536	50
204.755	7
204.974	62.29
205.193	82.77
205.411	140.12
205.63	129.88
205.849	72.53
206.068	80.72
206.287	66.39
206.505	142.16
206.724	-19.63
206.943	4.95
207.162	50
207.381	50
207.599	37.72
207.818	111.44
208.037	-7.34
208.255	90.96
208.474	41.81
208.693	93.01
208.911	-21.67
209.13	50
209.349	-1.19
209.567	-7.34
209.786	62.29
210.005	123.73
210.223	72.53
210.442	72.53
210.661	90.96
210.879	39.76
211.098	95.06
211.316	-5.29
211.535	74.58
211.753	7
211.972	88.92
212.191	4.95
212.409	43.86
212.628	97.11
212.846	103.25
213.065	129.88
213.283	176.98
213.502	50
213.72	95.06
213.938	23.38
214.157	39.76
214.375	66.39
214.594	15.19
214.812	45.91
215.031	37.72
215.249	-52.39
215.467	50
215.686	13.14
215.904	70.48
216.122	78.68
216.341	140.12
216.559	78.68
216.778	70.48
216.996	115.54
217.214	13.14
217.432	45.91
217.651	121.68
217.869	113.49
218.087	39.76
218.306	41.81
218.524	37.72
218.742	99.16
218.96	39.76
219.179	62.29
219.397	78.68
219.615	215.89
219.833	64.34
220.051	45.91
220.27	90.96
220.488	103.25
220.706	25.43
220.924	-13.48
221.142	-1.19
221.36	33.62
221.578	121.68
221.796	70.48
222.015	95.06
222.233	33.62
222.451	127.83
222.669	-17.58
222.887	103.25
223.105	33.62
223.323	86.87
223.541	37.72
223.759	88.92
223.977	23.38
224.195	80.72
224.413	129.88
224.631	95.06
224.849	82.77
225.067	174.93
225.285	47.96
225.503	136.02
225.721	23.38
225.939	133.97
226.157	29.52
226.375	185.17
226.592	9.05
226.81	-3.24
227.028	119.64
227.246	21.33
227.464	-13.48
227.682	127.83
227.9	62.29
228.117	62.29
228.335	4.95
228.553	17.24
228.771	127.83
228.989	70.48
229.206	33.62
229.424	76.63
229.642	19.29
229.86	13.14
230.077	131.92
230.295	56.15
230.513	99.16
230.731	148.31
230.948	113.49
231.166	29.52
231.384	115.54
231.601	-11.43
231.819	205.65
232.037	74.58
232.254	-46.25
232.472	-9.39
232.689	15.19
232.907	113.49
233.125	84.82
233.342	82.77
233.56	76.63
233.777	95.06
233.995	31.57
234.213	86.87
234.43	88.92
234.648	31.57
234.865	52.05
235.083	187.22
235.3	90.96
235.518	95.06
235.735	113.49
235.953	105.3
236.17	72.53
236.388	95.06
236.605	56.15
236.822	70.48
237.04	76.63
237.257	95.06
237.475	62.29
237.692	103.25
237.909	41.81
238.127	13.14
238.344	103.25
238.562	78.68
238.779	86.87
238.996	29.52
239.214	31.57
239.431	64.34
239.648	19.29
239.865	64.34
240.083	74.58
240.3	21.33
240.517	29.52
240.735	54.1
240.952	50
241.169	144.21
241.386	103.25
241.603	95.06
241.821	66.39
242.038	103.25
242.255	144.21
242.472	50
242.689	76.63
242.907	45.91
243.124	103.25
243.341	50
243.558	70.48
243.775	21.33
243.992	58.2
244.209	99.16
244.426	68.44
244.643	33.62
244.86	-3.24
245.078	138.07
245.295	23.38
245.512	60.24
245.729	25.43
245.946	107.35
246.163	31.57
246.38	54.1
246.597	97.11
246.814	144.21
247.031	-21.67
247.248	54.1
247.464	74.58
247.681	23.38
247.898	78.68
248.115	90.96
248.332	54.1
248.549	62.29
248.766	113.49
248.983	9.05
249.2	72.53
249.417	103.25
249.633	95.06
249.85	47.96
250.067	54.1
250.284	78.68
250.501	78.68
250.717	21.33
250.934	21.33
251.151	107.35
251.368	2.9
251.585	31.57
251.801	80.72
252.018	99.16
252.235	158.55
252.451	13.14
252.668	54.1
252.885	125.78
253.102	62.29
253.318	33.62
253.535	23.38
253.752	80.72
253.968	17.24
254.185	35.67
254.401	0.85
254.618	131.92
254.835	72.53
255.051	64.34
255.268	60.24
255.484	-9.39
255.701	35.67
255.917	103.25
256.134	86.87
256.351	113.49
256.567	64.34
256.784	13.14
257	21.33
257.217	111.44
257.433	72.53
257.65	80.72
257.866	37.72
258.082	50
258.299	17.24
258.515	68.44
258.732	72.53
258.948	50
259.165	47.96
259.381	-7.34
259.597	-3.24
259.814	82.77
260.03	62.29
260.246	17.24
260.463	64.34
260.679	54.1
260.895	86.87
261.112	78.68
261.328	54.1
261.544	80.72
261.761	113.49
261.977	45.91
262.193	-3.24
262.409	119.64
262.626	41.81
262.842	62.29
263.058	39.76
263.274	150.36
263.49	56.15
263.707	39.76
263.923	29.52
264.139	-52.39
264.355	62.29
264.571	115.54
264.787	66.39
265.004	86.87
265.22	17.24
265.436	-3.24
265.652	39.76
265.868	56.15
266.084	39.76
266.3	17.24
266.516	-36.01
266.732	86.87
266.948	78.68
267.164	62.29
267.38	150.36
267.596	111.44
267.812	140.12
268.028	2.9
268.244	7
268.46	70.48
268.676	76.63
268.892	29.52
269.108	35.67
269.324	7
269.54	-3.24
269.756	113.49
269.972	-13.48
270.188	45.91
270.403	60.24
270.619	50
270.835	39.76
271.051	105.3
271.267	31.57
271.483	37.72
271.698	150.36
271.914	74.58
272.13	62.29
272.346	31.57
272.562	41.81
272.777	62.29
272.993	123.73
273.209	39.76
273.425	111.44
273.64	13.14
273.856	113.49
274.072	54.1
274.287	56.15
274.503	74.58
274.719	62.29
274.934	72.53
275.15	25.43
275.366	41.81
275.581	99.16
275.797	21.33
276.012	13.14
276.228	58.2
276.444	50
276.659	119.64
276.875	-3.24
277.09	88.92
277.306	52.05
277.521	64.34
277.737	72.53
277.952	90.96
278.168	45.91
278.383	119.64
278.599	33.62
278.814	80.72
279.03	86.87
279.245	119.64
279.461	54.1
279.676	129.88
279.892	15.19
280.107	82.77
280.322	-40.11
280.538	131.92
280.753	25.43
280.969	21.33
281.184	119.64
281.399	164.69
281.615	111.44
281.83	29.52
282.045	-3.24
282.26	15.19
282.476	29.52
282.691	99.16
282.906	54.1
283.122	107.35
283.337	21.33
283.552	105.3
283.767	123.73
283.983	127.83
284.198	31.57
284.413	7
284.628	88.92
284.843	105.3
285.058	97.11
285.274	-3.24
285.489	21.33
285.704	107.35
285.919	31.57
286.134	62.29
286.349	45.91
286.564	45.91
286.779	152.4
286.995	21.33
287.21	50
287.425	35.67
287.64	56.15
287.855	58.2
288.07	7
288.285	72.53
288.5	54.1
288.715	86.87
288.93	37.72
289.145	-1.19
289.36	117.59
289.575	9.05
289.79	66.39
290.004	78.68
290.219	152.4
290.434	-19.63
290.649	74.58
290.864	86.87
291.079	62.29
291.294	58.2
291.509	140.12
291.724	138.07
291.938	74.58
292.153	68.44
292.368	119.64
292.583	70.48
292.798	21.33
293.012	23.38
293.227	62.29
293.442	37.72
293.657	103.25
293.871	160.59
294.086	152.4
294.301	127.83
294.516	99.16
294.73	15.19
294.945	2.9
295.16	68.44
295.374	90.96
295.589	103.25
295.804	-27.82
296.018	72.53
296.233	41.81
296.447	140.12
296.662	21.33
296.877	136.02
297.091	29.52
297.306	90.96
297.52	62.29
297.735	90.96
297.949	146.26
298.164	119.64
298.378	56.15
298.593	-105.64
298.807	45.91
299.022	107.35
299.236	99.16
299.451	78.68
299.665	90.96
299.88	31.57
300.094	54.1
300.309	52.05
300.523	37.72
300.737	146.26
300.952	123.73
301.166	13.14
301.381	-7.34
301.595	54.1
301.809	54.1
302.024	158.55
302.238	60.24
302.452	54.1
302.667	4.95
302.881	121.68
303.095	84.82
303.309	99.16
303.524	-11.43
303.738	-25.77
303.952	-19.63
304.166	80.72
304.381	-3.24
304.595	127.83
304.809	33.62
305.023	107.35
305.237	52.05
305.452	74.58
305.666	74.58
305.88	54.1
306.094	107.35
306.308	93.01
306.522	50
306.736	62.29
306.95	68.44
307.164	54.1
307.379	25.43
307.593	123.73
307.807	64.34
308.021	146.26
308.235	21.33
308.449	13.14
308.663	13.14
308.877	111.44
309.091	82.77
309.305	86.87
309.519	-36.01
309.733	148.31
309.947	19.29
310.161	56.15
310.374	121.68
310.588	146.26
310.802	29.52
311.016	37.72
311.23	29.52
311.444	62.29
311.658	93.01
311.872	170.83
312.085	119.64
312.299	95.06
312.513	88.92
312.727	37.72
312.941	90.96
313.154	58.2
313.368	95.06
313.582	117.59
313.796	2.9
314.009	21.33
314.223	101.2
314.437	99.16
314.651	21.33
314.864	25.43
315.078	15.19
315.292	62.29
315.505	-13.48
315.719	78.68
315.933	101.2
316.146	62.29
316.36	97.11
316.573	60.24
316.787	47.96
317.001	95.06
317.214	-23.72
317.428	97.11
317.641	45.91
317.855	121.68
318.068	50
318.282	113.49
318.495	133.97
318.709	142.16
318.922	27.48
319.136	64.34
319.349	138.07
319.563	66.39
319.776	78.68
319.99	-9.39
320.203	58.2
320.417	105.3
320.63	86.87
320.843	93.01
321.057	99.16
321.27	66.39
321.483	60.24
321.697	138.07
321.91	127.83
322.124	74.58
322.337	37.72
322.55	13.14
322.763	82.77
322.977	25.43
323.19	-42.15
323.403	39.76
323.617	123.73
323.83	80.72
324.043	0.85
324.256	72.53
324.469	-3.24
324.683	82.77
324.896	152.4
325.109	86.87
325.322	95.06
325.535	72.53
325.748	107.35
325.962	111.44
326.175	37.72
326.388	136.02
326.601	123.73
326.814	47.96
327.027	123.73
327.24	140.12
327.453	31.57
327.666	123.73
327.879	88.92
328.092	90.96
328.305	29.52
328.518	56.15
328.731	82.77
328.944	62.29
329.157	82.77
329.37	47.96
329.583	80.72
329.796	144.21
330.009	45.91
330.222	115.54
330.435	103.25
330.648	39.76
330.861	58.2
331.073	4.95
331.286	56.15
331.499	52.05
331.712	37.72
331.925	56.15
332.138	101.2
332.35	72.53
332.563	0.85
332.776	95.06
332.989	33.62
333.202	64.34
333.414	90.96
333.627	84.82
333.84	47.96
334.053	80.72
334.265	45.91
334.478	95.06
334.691	56.15
334.903	111.44
335.116	64.34
335.329	62.29
335.541	88.92
335.754	176.98
335.966	125.78
336.179	99.16
336.392	101.2
336.604	129.88
336.817	138.07
337.029	50
337.242	82.77
337.454	29.52
337.667	76.63
337.88	97.11
338.092	60.24
338.305	78.68
338.517	37.72
338.729	84.82
338.942	105.3
339.154	-1.19
339.367	54.1
339.579	54.1
339.792	68.44
340.004	125.78
340.217	50
340.429	29.52
340.641	45.91
340.854	31.57
341.066	56.15
341.278	33.62
341.491	123.73
341.703	86.87
341.915	70.48
342.128	136.02
342.34	45.91
342.552	29.52
342.764	86.87
342.977	78.68
343.189	103.25
343.401	127.83
343.613	37.72
343.826	86.87
344.038	86.87
344.25	107.35
344.462	13.14
344.674	62.29
344.886	45.91
345.099	107.35
345.311	127.83
345.523	62.29
345.735	-27.82
345.947	140.12
346.159	39.76
346.371	-3.24
346.583	64.34
346.795	95.06
347.007	54.1
347.219	121.68
347.431	86.87
347.643	72.53
347.855	52.05
348.067	95.06
348.279	33.62
348.491	62.29
348.703	97.11
348.915	105.3
349.127	37.72
349.339	66.39
349.551	-5.29
349.763	86.87
349.975	50
350.187	125.78
350.399	56.15
350.61	15.19
350.822	95.06
351.034	47.96
351.246	107.35
351.458	99.16
351.669	82.77
351.881	90.96
352.093	127.83
352.305	82.77
352.517	86.87
352.728	13.14
352.94	97.11
353.152	127.83
353.363	-19.63
353.575	95.06
353.787	70.48
353.999	105.3
354.21	99.16
354.422	74.58
354.633	29.52
354.845	136.02
355.057	129.88
355.268	138.07
355.48	154.45
355.692	33.62
355.903	52.05
356.115	72.53
356.326	31.57
356.538	76.63
356.749	82.77
356.961	123.73
357.172	-3.24
357.384	-23.72
357.595	172.88
357.807	66.39
358.018	2.9
358.23	154.45
358.441	103.25
358.653	123.73
358.864	107.35
359.075	37.72
359.287	58.2
359.498	103.25
359.709	62.29
359.921	82.77
360.132	78.68
360.344	105.3
360.555	82.77
360.766	80.72
360.977	115.54
361.189	152.4
361.4	86.87
361.611	146.26
361.823	80.72
362.034	146.26
362.245	66.39
362.456	154.45
362.667	54.1
362.879	54.1
363.09	60.24
363.301	54.1
363.512	129.88
363.723	70.48
363.935	33.62
364.146	185.17
364.357	52.05
364.568	-3.24
364.779	-17.58
364.99	136.02
365.201	15.19
365.412	107.35
365.623	52.05
365.834	131.92
366.045	72.53
366.256	64.34
366.467	62.29
366.678	37.72
366.889	33.62
367.1	70.48
367.311	129.88
367.522	66.39
367.733	140.12
367.944	97.11
368.155	21.33
368.366	62.29
368.577	131.92
368.788	56.15
368.999	58.2
369.209	80.72
369.42	164.69
369.631	115.54
369.842	93.01
370.053	105.3
370.264	123.73
370.474	74.58
370.685	93.01
370.896	21.33
371.107	113.49
371.317	146.26
371.528	45.91
371.739	107.35
371.95	154.45
372.16	113.49
372.371	25.43
372.582	105.3
372.792	121.68
373.003	72.53
373.214	62.29
373.424	70.48
373.635	74.58
373.846	78.68
374.056	23.38
374.267	119.64
374.477	88.92
374.688	86.87
374.898	72.53
375.109	86.87
375.319	82.77
375.53	131.92
375.74	105.3
375.951	68.44
376.161	125.78
376.372	21.33
376.582	74.58
376.793	62.29
377.003	9.05
377.214	90.96
377.424	105.3
377.635	76.63
377.845	111.44
378.055	111.44
378.266	88.92
378.476	66.39
378.686	103.25
378.897	127.83
379.107	115.54
379.317	62.29
379.528	64.34
379.738	107.35
379.948	68.44
380.158	111.44
380.369	-7.34
380.579	95.06
380.789	80.72
380.999	90.96
381.21	54.1
381.42	174.93
381.63	66.39
381.84	39.76
382.05	74.58
382.261	140.12
382.471	109.4
382.681	45.91
382.891	129.88
383.101	86.87
383.311	-36.01
383.521	113.49
383.731	136.02
383.941	138.07
384.151	43.86
384.361	45.91
384.571	70.48
384.781	144.21
384.991	176.98
385.201	168.79
385.411	121.68
385.621	121.68
385.831	99.16
386.041	78.68
386.251	17.24
386.461	105.3
386.671	82.77
386.881	78.68
387.091	80.72
387.301	99.16
387.511	41.81
387.72	105.3
387.93	136.02
388.14	54.1
388.35	168.79
388.56	103.25
388.769	37.72
388.979	152.4
389.189	62.29
389.399	140.12
389.609	54.1
389.818	146.26
390.028	37.72
390.238	88.92
390.447	41.81
390.657	158.55
390.867	176.98
391.076	99.16
391.286	103.25
391.496	99.16
391.705	95.06
391.915	99.16
392.125	150.36
392.334	111.44
392.544	95.06
392.753	78.68
392.963	97.11
393.172	13.14
393.382	127.83
393.591	189.27
393.801	97.11
394.01	107.35
394.22	185.17
394.429	123.73
394.639	80.72
394.848	107.35
395.058	160.59
395.267	95.06
395.477	119.64
395.686	179.03
395.895	183.12
396.105	185.17
396.314	78.68
396.524	121.68
396.733	99.16
396.942	148.31
397.152	103.25
397.361	162.64
397.57	187.22
397.78	97.11
397.989	193.36
398.198	236.37
398.407	93.01
398.617	136.02
398.826	107.35
399.035	97.11
399.244	181.07
399.453	111.44
399.663	176.98
399.872	74.58
400.081	146.26
400.29	222.03
400.499	119.64
400.708	154.45
400.917	113.49
401.127	154.45
401.336	58.2
401.545	152.4
401.754	228.18
401.963	219.99
402.172	154.45
402.381	111.44
402.59	131.92
402.799	201.55
403.008	244.56
403.217	172.88
403.426	211.79
403.635	119.64
403.844	213.84
404.053	156.5
404.262	183.12
404.471	205.65
404.68	197.46
404.888	193.36
405.097	193.36
405.306	242.51
405.515	189.27
405.724	219.99
405.933	211.79
406.142	291.66
406.35	205.65
406.559	176.98
406.768	213.84
406.977	373.58
407.185	250.71
407.394	222.03
407.603	236.37
407.812	322.38
408.02	330.58
408.229	217.94
408.438	267.09
408.646	260.95
408.855	236.37
409.064	351.06
409.272	283.47
409.481	396.11
409.69	373.58
409.898	414.54
410.107	392.02
410.315	385.87
410.524	299.86
410.733	430.93
410.941	451.41
411.15	478.03
411.358	398.16
411.567	455.5
411.775	559.95
411.984	435.02
412.192	525.13
412.401	514.89
412.609	463.69
412.818	672.59
413.026	586.57
413.234	656.2
413.443	668.49
413.651	623.44
413.86	625.48
414.068	693.07
414.276	721.74
414.485	691.02
414.693	867.14
414.901	848.71
415.11	840.52
415.318	897.86
415.526	918.34
415.734	918.34
415.943	856.9
416.151	947.01
416.359	963.4
416.567	1076.04
416.776	1049.41
416.984	1098.56
417.192	1178.44
417.4	1153.86
417.608	1139.52
417.817	1112.9
418.025	1278.79
418.233	1389.38
418.441	1325.89
418.649	1254.21
418.857	1454.91
419.065	1536.83
419.273	1450.82
419.481	1528.64
419.689	1655.61
419.897	1729.34
420.105	1688.38
420.313	1784.63
420.521	1913.66
420.729	1835.83
420.937	1946.42
421.145	2022.2
421.353	2089.78
421.561	2233.14
421.769	2370.35
421.977	2331.44
422.185	2329.39
422.393	2433.84
422.601	2661.16
422.809	2554.67
423.017	2671.4
423.224	2671.4
423.432	2781.99
423.64	2892.59
423.848	3113.77
424.056	3062.57
424.263	3273.51
424.471	3324.71
424.679	3314.47
424.887	3543.84
425.094	3638.05
425.302	3584.8
425.51	3707.68
425.718	3887.9
425.925	3879.71
426.133	3961.62
426.341	4231.96
426.548	4453.14
426.756	4444.95
426.964	4469.52
427.171	4709.13
427.379	4807.44
427.586	4782.86
427.794	5075.72
428.001	5356.29
428.209	5604.1
428.417	5513.99
428.624	5769.98
428.832	5976.83
429.039	5903.1
429.247	5878.52
429.454	6388.47
429.662	6814.45
429.869	6447.86
430.076	6826.73
430.284	6646.51
430.491	6847.21
430.699	7418.6
430.906	7330.53
431.114	7443.17
431.321	7846.62
431.528	7955.16
431.736	8250.07
431.943	8719.06
432.15	8436.44
432.358	8377.05
432.565	9056.97
432.772	8985.29
432.979	9401.03
433.187	9364.17
433.394	9491.14
433.601	10216.12
433.808	10367.67
434.016	10375.86
434.223	10529.46
434.43	11309.74
434.637	10982.06
434.844	11893.41
435.052	11973.28
435.259	11825.82
435.466	11997.85
435.673	12049.05
435.88	12645.01
436.087	13142.67
436.294	12980.88
436.501	12849.81
436.708	13179.53
436.915	13570.69
437.122	14262.91
437.329	14264.96
437.537	14559.86
437.743	14817.91
437.95	14709.36
438.157	15563.37
438.364	16138.85
438.571	15641.19
438.778	16185.95
438.985	17531.47
439.192	16669.27
439.399	17396.3
439.606	17001.04
439.813	17994.31
440.02	19014.2
440.227	18620.99
440.433	18532.92
440.64	18899.51
440.847	18919.99
441.054	19378.73
441.261	20795.93
441.467	20199.97
441.674	20896.28
441.881	21596.68
442.088	21260.82
442.294	21232.15
442.501	21985.8
442.708	22526.46
442.914	23063.03
443.121	23874.03
443.328	23329.27
443.534	25031.13
443.741	24502.75
443.948	24105.45
444.154	25987.53
444.361	25838.03
444.568	26067.4
444.774	25493.97
444.981	25852.36
445.187	27052.47
445.394	27765.17
445.6	27556.27
445.807	30255.5
446.013	29088.15
446.22	29555.09
446.426	30511.49
446.633	30841.21
446.839	31949.17
447.046	30511.49
447.252	32342.38
447.459	32553.32
447.665	32379.24
447.871	33823.06
448.078	35246.4
448.284	33352.02
448.491	34378.06
448.697	35627.32
448.903	35948.85
449.11	36194.61
449.316	35842.35
449.522	36864.29
449.728	37284.12
449.935	37636.38
450.141	37736.73
450.347	38723.85
450.553	37103.9
450.76	37787.92
450.966	39119.1
451.172	38449.42
451.378	39514.36
451.584	38834.44
451.791	40003.83
451.997	39504.12
452.203	40179.95
452.409	40169.71
452.615	39825.65
452.821	38557.96
453.027	38291.73
453.233	39950.58
453.44	38627.59
453.646	38873.35
453.852	39233.79
454.058	39745.78
454.264	38746.37
454.47	39594.23
454.676	38572.3
454.882	39919.86
455.088	36518.18
455.294	36782.37
455.5	37310.75
455.705	37681.43
455.911	36346.15
456.117	35512.63
456.323	35191.1
456.529	33280.35
456.735	34771.27
456.941	34249.03
457.147	33511.77
457.352	32268.65
457.558	32041.32
457.764	32166.25
457.97	31328.63
458.176	30785.92
458.381	30839.17
458.587	29297.05
458.793	29008.28
458.999	27980.2
459.204	29634.96
459.41	28891.55
459.616	27261.37
459.821	26857.92
460.027	26986.94
460.233	26208.71
460.438	25133.53
460.644	25045.46
460.85	23992.81
461.055	23800.3
461.261	23871.98
461.466	21756.43
461.672	21162.51
461.878	22878.71
462.083	21168.66
462.289	20703.77
462.494	20816.41
462.7	19927.59
462.905	19094.07
463.111	19696.17
463.316	19884.58
463.522	19137.07
463.727	19376.69
463.932	19208.75
464.138	18928.18
464.343	19249.71
464.549	18311.74
464.754	19216.94
464.959	19036.72
465.165	18651.7
465.37	18033.22
465.575	17492.55
465.781	18221.63
465.986	18076.23
466.191	17887.81
466.397	17031.76
466.602	16390.75
466.807	16945.75
467.012	17181.26
467.218	16915.03
467.423	16835.16
467.628	16806.48
467.833	17418.83
468.038	16851.54
468.244	16251.49
468.449	16833.11
468.654	16323.16
468.859	16282.2
469.064	15884.9
469.269	15659.62
469.474	15581.8
469.679	15962.72
469.885	15448.68
470.09	15700.58
470.295	15477.35
470.5	15293.04
470.705	15307.37
470.91	14938.74
471.115	14660.21
471.32	14918.26
471.525	14914.16
471.73	14531.19
471.935	14422.65
472.139	13836.93
472.344	14137.98
472.549	13898.37
472.754	13972.1
472.959	13693.57
473.164	13259.4
473.369	13005.45
473.574	13464.2
473.778	13404.81
473.983	13204.11
474.188	13157
474.393	12587.67
474.598	12634.77
474.802	12665.49
475.007	12511.89
475.212	12571.29
475.417	12040.86
475.621	12118.68
475.826	11891.36
476.031	11850.4
476.235	11655.84
476.44	11844.26
476.645	11436.71
476.849	11633.32
477.054	11393.7
477.259	11104.94
477.463	11283.11
477.668	10885.81
477.872	11023.02
478.077	10908.33
478.282	10607.28
478.486	10719.92
478.691	10592.95
478.895	10607.28
479.1	10293.94
479.304	10539.7
479.509	10042.04
479.713	10328.76
479.918	10119.87
480.122	9962.17
480.326	10171.07
480.531	9974.46
480.735	9941.69
480.94	9884.35
481.144	10220.22
481.348	9794.24
481.553	9755.33
481.757	9441.99
481.961	9691.84
482.166	9919.17
482.37	9708.23
482.574	9564.87
482.778	9534.15
482.983	9790.14
483.187	9730.75
483.391	9626.31
483.595	9642.69
483.8	9423.56
484.004	9532.1
484.208	9853.63
484.412	9542.34
484.616	9564.87
484.821	9591.49
485.025	9382.6
485.229	9583.3
485.433	9392.84
485.637	9601.73
485.841	9591.49
486.045	9593.54
486.249	9773.76
486.453	9372.36
486.657	9480.9
486.861	9507.52
487.065	9364.17
487.269	9245.38
487.473	9212.62
487.677	9439.94
487.881	9441.99
488.085	9403.08
488.289	9622.21
488.493	9480.9
488.697	9474.76
488.901	9499.33
489.105	9491.14
489.309	9515.72
489.512	9466.56
489.716	9620.16
489.92	9571.01
490.124	9532.1
490.328	9571.01
490.531	9544.39
490.735	9564.87
490.939	9812.67
491.143	9630.4
491.346	9462.47
491.55	9632.45
491.754	9581.25
491.958	9532.1
492.161	9564.87
492.365	9953.98
492.569	9587.4
492.772	9738.94
492.976	9851.58
493.18	9908.93
493.383	9964.22
493.587	10199.74
493.79	10040
493.994	10066.62
494.197	10345.14
494.401	10392.25
494.605	10283.7
494.808	10394.29
495.012	10277.56
495.215	10515.12
495.419	10523.32
495.622	10246.84
495.825	10678.96
496.029	10515.12
496.232	10734.26
496.436	10883.76
496.639	10998.45
496.843	10982.06
497.046	11145.9
497.249	11109.04
497.453	11240.11
497.656	11375.27
497.859	11389.61
498.063	11410.09
498.266	11592.36
498.469	11707.04
498.673	11659.94
498.876	12063.39
499.079	11989.66
499.282	12167.84
499.485	12532.37
499.689	12282.52
499.892	12434.07
500.095	12577.43
500.298	12591.77
500.501	12909.2
500.705	12862.1
500.908	13302.41
501.111	13355.66
501.314	13550.21
501.517	13431.43
501.72	13785.73
501.923	13478.54
502.126	13818.5
502.329	14209.66
502.532	14236.28
502.735	14166.65
502.938	14568.06
503.141	14363.26
503.344	15028.85
503.547	14670.45
503.75	14940.79
503.953	15186.54
504.156	15184.49
504.359	15549.03
504.562	15508.07
504.765	15557.22
504.968	15944.29
505.17	16097.89
505.373	16286.3
505.576	16185.95
505.779	16392.8
505.982	16691.8
506.185	16966.23
506.387	17001.04
506.59	17320.53
506.793	17506.89
506.996	17365.58
507.198	18049.6
507.401	17625.67
507.604	18176.58
507.807	18426.43
508.009	18422.33
508.212	18393.66
508.415	18797.11
508.617	18907.7
508.82	19092.02
509.022	18815.54
509.225	19259.95
509.428	19769.9
509.63	19935.78
509.833	19659.31
510.035	20445.73
510.238	20103.71
510.44	20425.25
510.643	20906.52
510.845	21105.17
511.048	20998.68
511.25	21389.84
511.453	21199.38
511.655	22000.13
511.858	21750.28
512.06	22403.58
512.262	22450.69
512.465	22297.09
512.667	22663.68
512.87	22919.67
513.072	23032.31
513.274	23620.08
513.477	23513.58
513.679	23734.76
513.881	24138.21
514.084	24283.62
514.286	24191.46
514.488	24588.77
514.69	25059.8
514.893	25129.43
515.095	25106.9
515.297	25213.4
515.499	25774.54
515.701	26149.32
515.904	26169.8
516.106	26214.85
516.308	26431.94
516.51	26839.48
516.712	26921.4
516.914	27038.14
517.116	27527.6
517.318	27460.02
517.52	27900.33
517.722	27847.08
517.925	28092.84
518.127	28445.09
518.329	28742.05
518.531	28348.84
518.733	29274.52
518.935	28914.08
519.136	29315.48
519.338	29825.42
519.54	29641.11
519.742	29966.73
519.944	30138.76
520.146	30312.84
520.348	30560.64
520.55	30482.82
520.752	30734.72
520.954	31220.09
521.155	30853.5
521.357	31498.61
521.559	31822.19
521.761	31891.82
521.963	31719.79
522.164	32149.87
522.366	32170.35
522.568	32295.27
522.77	32633.19
522.971	33071.45
523.173	32696.67
523.375	33159.52
523.576	33270.11
523.778	32874.85
523.98	33364.31
524.181	33311.07
524.383	33558.87
524.584	33818.96
524.786	34156.88
524.988	33567.06
525.189	34171.21
525.391	34304.33
525.592	34234.7
525.794	34083.15
525.995	34052.43
526.197	34312.52
526.398	34560.33
526.6	34591.05
526.801	34818.37
527.003	34701.64
527.204	34558.28
527.406	34791.75
527.607	34769.22
527.808	34513.22
528.01	34181.45
528.211	34740.55
528.412	35180.86
528.614	34754.88
528.815	34894.14
529.016	35381.56
529.218	34654.53
529.419	35141.95
529.62	34732.36
529.822	34539.85
530.023	35199.29
530.224	34847.04
530.425	34642.24
530.626	34545.99
530.828	34220.36
531.029	35494.2
531.23	34869.57
531.431	34918.72
531.632	34617.67
531.833	35203.39
532.035	34758.98
532.236	34785.6
532.437	35029.31
532.638	34611.53
532.839	34736.45
533.04	34957.63
533.241	34193.74
533.442	34861.38
533.643	34537.8
533.844	34333
534.045	34785.6
534.246	34027.85
534.447	34038.09
534.648	34404.68
534.849	34109.77
535.05	34011.47
535.251	34140.49
535.451	34134.35
535.652	34382.15
535.853	33882.45
536.054	33814.87
536.255	34072.91
536.456	33761.62
536.657	33997.13
536.857	33968.46
537.058	33407.32
537.259	34289.99
537.46	33730.9
537.66	33296.73
537.861	33796.43
538.062	33657.17
538.263	33573.21
538.463	33612.12
538.664	33636.69
538.865	33249.63
539.065	33415.51
539.266	33280.35
539.466	33423.7
539.667	33085.79
539.868	33679.7
540.068	33378.65
540.269	33155.42
540.469	33573.21
540.67	32995.68
540.87	33089.88
541.071	33147.23
541.271	32926.05
541.472	33104.22
541.672	33132.89
541.873	32901.47
542.073	32235.88
542.274	33378.65
542.474	32481.64
542.675	32807.26
542.875	33005.92
543.075	32573.8
543.276	32856.42
543.476	33249.63
543.676	32680.29
543.877	32549.22
544.077	33077.6
544.277	32776.55
544.478	32600.42
544.678	32919.9
544.878	32575.84
545.078	32686.43
545.279	32844.13
545.479	32307.56
545.679	32921.95
545.879	32534.88
546.079	32633.19
546.28	32311.66
546.48	32358.76
546.68	32784.74
546.88	32536.93
547.08	32504.17
547.28	32473.45
547.48	32620.9
547.68	32342.38
547.88	32254.31
548.081	32676.19
548.281	32534.88
548.481	32244.07
548.681	33055.07
548.881	32629.09
549.081	32633.19
549.28	32403.81
549.48	32840.03
549.68	32715.11
549.88	33001.82
550.08	32690.53
550.28	32760.16
550.48	32620.9
550.68	32983.39
550.88	32727.39
551.08	32555.36
551.279	32901.47
551.479	32467.3
551.679	32835.94
551.879	32692.58
552.079	33130.84
552.278	32766.31
552.478	32729.44
552.678	32815.46
552.878	33278.3
553.077	32958.81
553.277	32641.38
553.477	33104.22
553.676	33022.3
553.876	33356.12
554.076	32573.8
554.275	32702.82
554.475	32594.28
554.674	33036.64
554.874	33259.87
555.074	32907.62
555.273	33380.7
555.473	33415.51
555.672	32901.47
555.872	33376.6
556.071	33149.28
556.271	33603.92
556.47	33196.38
556.67	32903.52
556.869	33241.43
557.068	33464.66
557.268	33128.8
557.467	33403.22
557.667	33069.4
557.866	33788.24
558.065	33276.25
558.265	33229.15
558.464	33151.32
558.663	33458.52
558.863	32731.49
559.062	33655.12
559.261	33220.95
559.461	33673.56
559.66	32917.86
559.859	33399.13
560.058	32696.67
560.258	33407.32
560.457	33071.45
560.656	33450.33
560.855	33139.04
561.054	33493.33
561.253	32999.77
561.453	33302.87
561.652	34023.76
561.851	33726.8
562.05	33306.97
562.249	33220.95
562.448	33491.29
562.647	33034.59
562.846	33313.11
563.045	33311.07
563.244	32788.83
563.443	33726.8
563.642	33044.83
563.841	33087.84
564.04	32874.85
564.239	33509.72
564.438	32614.76
564.637	32958.81
564.836	33159.52
565.035	32561.51
565.234	33093.98
565.432	33053.02
565.631	32962.91
565.83	33309.02
566.029	32713.06
566.228	32854.37
566.427	32606.56
566.625	32461.16
566.824	32176.49
567.023	32770.4
567.222	32162.15
567.42	32504.17
567.619	32260.46
567.818	32297.32
568.016	32455.01
568.215	32534.88
568.414	32436.58
568.612	32584.04
568.811	32096.62
569.01	32313.7
569.208	31650.16
569.407	32270.7
569.605	31725.94
569.804	32031.08
570.002	31512.95
570.201	31932.78
570.4	31160.7
570.598	31467.89
570.797	31420.79
570.995	31551.86
571.193	31443.32
571.392	31351.16
571.59	30812.54
571.789	31080.83
571.987	31164.79
572.186	30951.81
572.384	30640.51
572.582	30867.84
572.781	30968.19
572.979	30192.01
573.177	30837.12
573.376	30503.3
573.574	29913.48
573.772	30538.12
573.971	30382.47
574.169	30364.04
574.367	29929.87
574.565	30157.19
574.763	29970.83
574.962	29788.56
575.16	29641.11
575.358	29710.74
575.556	29739.41
575.754	29563.28
575.952	29102.49
576.151	29448.6
576.349	28965.28
576.547	29325.72
576.745	29069.72
576.943	28748.19
577.141	29161.88
577.339	28998.04
577.537	28830.11
577.735	28912.03
577.933	28504.48
578.131	28791.2
578.329	28551.59
578.527	28539.3
578.725	28350.88
578.923	28463.52
579.121	28320.17
579.319	28066.22
579.516	28137.9
579.714	27881.9
579.912	28176.81
580.11	27904.43
580.308	27769.26
580.506	27806.13
580.704	27490.74
580.901	27537.84
581.099	27527.6
581.297	27210.17
581.495	27257.27
581.692	27552.18
581.89	27419.06
582.088	27394.48
582.285	27220.41
582.483	27527.6
582.681	27036.09
582.878	26696.13
583.076	27089.34
583.274	26808.76
583.471	26757.57
583.669	26585.54
583.866	26485.19
584.064	26499.52
584.262	26134.98
584.459	26622.4
584.657	26329.54
584.854	26304.96
585.052	25725.39
585.249	26202.57
585.447	25919.95
585.644	25987.53
585.841	25711.05
586.039	26124.74
586.236	25655.76
586.434	25448.91
586.631	25536.98
586.828	25811.4
587.026	25530.83
587.223	25412.05
587.42	25663.95
587.618	25483.73
587.815	25088.47
588.012	25145.81
588.21	25051.61
588.407	25330.13
588.604	25000.41
588.801	24852.95
588.999	24936.92
589.196	24666.59
589.393	24926.68
589.59	24967.64
589.787	24580.57
589.984	24695.26
590.182	24672.73
590.379	24392.16
590.576	24498.66
590.773	24535.52
590.97	24472.03
591.167	24709.6
591.364	24302.05
591.561	24531.42
591.758	24076.77
591.955	24304.1
592.152	24625.63
592.349	24084.97
592.546	24381.92
592.743	24160.74
592.94	23777.77
593.137	24351.2
593.334	24123.88
593.531	24050.15
593.727	23970.28
593.924	24246.76
594.121	23767.53
594.318	24185.32
594.515	23806.44
594.712	23960.04
594.908	23876.07
595.105	23857.64
595.302	23239.15
595.499	23675.37
595.696	23738.86
595.892	23458.29
596.089	23558.64
596.286	23603.69
596.482	23790.06
596.679	23798.25
596.876	23769.58
597.072	23394.8
597.269	23636.46
597.466	23730.67
597.662	23300.59
597.859	23661.04
598.055	23677.42
598.252	23190
598.448	23695.85
598.645	23615.98
598.841	23200.24
599.038	23378.42
599.234	23470.58
599.431	23271.92
599.627	23495.15
599.824	23687.66
600.02	23394.8
600.217	23527.92
600.413	23366.13
600.609	23607.79
600.806	23165.43
601.002	23695.85
601.198	23437.81
601.395	23675.37
601.591	23364.08
601.787	23581.17
601.984	23640.56
602.18	23755.24
602.376	23589.36
602.572	23869.93
602.769	23757.29
602.965	23663.08
603.161	23593.45
603.357	23513.58
603.553	23689.71
603.75	23808.49
603.946	23359.98
604.142	23622.12
604.338	23480.82
604.534	23816.68
604.73	23415.28
604.926	23456.24
605.122	23568.88
605.318	23777.77
605.514	23912.94
605.71	23605.74
605.906	24025.57
606.102	23566.83
606.298	23687.66
606.494	23814.63
606.69	24259.04
606.886	24072.68
607.082	23595.5
607.278	23962.09
607.474	23884.26
607.67	24166.88
607.866	23747.05
608.062	24361.44
608.257	24064.49
608.453	24340.96
608.649	24392.16
608.845	23824.87
609.041	24173.03
609.236	24252.9
609.432	24189.41
609.628	24179.17
609.824	24074.73
610.019	24467.94
610.215	24537.57
610.411	24601.05
610.606	24771.04
610.802	24308.19
610.998	24207.84
611.193	24273.38
611.389	24295.91
611.584	24553.95
611.78	24332.77
611.976	24510.94
612.171	24801.75
612.367	24506.85
612.562	24619.49
612.758	24343.01
612.953	24175.08
613.149	24809.95
613.344	24449.5
613.539	24916.44
613.735	24883.67
613.93	24914.39
614.126	24957.4
614.321	25039.32
614.517	24902.11
614.712	24920.54
614.907	24750.56
615.103	24811.99
615.298	24609.25
615.493	25295.32
615.688	24650.21
615.884	25489.87
616.079	24928.73
616.274	24771.04
616.47	24986.07
616.665	25074.13
616.86	24748.51
617.055	24805.85
617.25	24809.95
617.445	24992.22
617.641	24476.13
617.836	24650.21
618.031	24398.31
618.226	24760.8
618.421	24484.32
618.616	24869.34
618.811	24510.94
619.006	24433.12
619.201	24107.49
619.396	24469.98
619.591	24201.7
619.786	24469.98
619.981	23906.79
620.176	23986.66
620.371	23849.45
620.566	23914.98
620.761	23673.32
620.956	24127.97
621.151	23759.34
621.346	23880.17
621.541	23570.93
621.735	24125.93
621.93	23206.39
622.125	23257.59
622.32	22958.58
622.515	23202.29
622.709	23144.95
622.904	23179.76
623.099	23259.63
623.294	23087.61
623.488	22653.44
623.683	22747.64
623.878	22630.91
624.072	22991.35
624.267	22520.32
624.462	22143.49
624.656	22190.59
624.851	22161.92
625.046	22004.23
625.24	22080
625.435	21785.1
625.629	21828.1
625.824	21703.18
626.018	21527.05
626.213	21344.78
626.407	21492.24
626.602	21060.12
626.796	21363.22
626.991	21080.6
627.185	20869.65
627.38	21105.17
627.574	20673.05
627.768	20611.61
627.963	20759.06
628.157	20421.15
628.352	20369.95
628.546	20027.94
628.74	20271.65
628.935	20185.63
629.129	20308.51
629.323	19624.49
629.517	19939.88
629.712	19911.21
629.906	19749.42
630.1	19501.61
630.294	19431.98
630.489	19120.69
630.683	19374.64
630.877	18866.74
631.071	19071.54
631.265	19231.28
631.459	18876.98
631.653	18944.56
631.848	18799.16
632.042	18696.76
632.236	18854.45
632.43	18588.22
632.624	18514.49
632.818	18412.09
633.012	18076.23
633.206	18416.19
633.4	18111.04
633.594	18006.59
633.788	17814.09
633.982	17957.44
634.176	17594.95
634.369	17621.58
634.563	17570.38
634.757	17273.42
634.951	17304.14
635.145	17390.16
635.339	17502.79
635.533	17185.36
635.726	17033.81
635.92	16986.71
636.114	17021.52
636.308	16732.76
636.501	17003.09
636.695	16456.28
636.889	16534.11
637.083	16362.08
637.276	16265.82
637.47	16245.34
637.664	16294.49
637.857	16298.59
638.051	16099.94
638.244	15839.84
638.438	15665.77
638.632	15735.4
638.825	15538.79
639.019	15544.94
639.212	15356.52
639.406	15495.78
639.599	15217.26
639.793	15497.83
639.986	15374.95
640.18	15305.32
640.373	14791.28
640.567	14516.86
640.76	15086.19
640.954	14604.92
641.147	14631.54
641.34	14482.04
641.534	14654.07
641.727	14486.14
641.92	14359.16
642.114	14203.52
642.307	14066.3
642.5	13884.03
642.694	13894.27
642.887	13806.21
643.08	13892.23
643.273	13806.21
643.467	13709.96
643.66	13505.16
643.853	13382.28
644.046	13275.79
644.239	13398.66
644.432	13292.17
644.626	13169.29
644.819	13234.83
645.012	13013.65
645.205	12749.46
645.398	12870.29
645.591	12808.85
645.784	12833.43
645.977	12552.85
646.17	12440.22
646.363	12483.22
646.556	12223.13
646.749	12522.13
646.942	12296.86
647.135	12059.29
647.328	12126.88
647.521	12212.89
647.714	11973.28
647.907	11713.19
648.099	12026.53
648.292	11874.98
648.485	11752.1
648.678	11614.88
648.871	11510.44
649.064	11596.45
649.256	11594.4
649.449	11530.92
649.642	11313.83
649.835	11104.94
650.027	11178.67
650.22	11326.12
650.413	10918.57
650.605	11133.61
650.798	10853.04
650.991	10830.51
651.183	11004.59
651.376	10900.14
651.568	10736.31
651.761	10543.8
651.954	10453.69
652.146	10496.69
652.339	10599.09
652.531	10425.01
652.724	10322.62
652.916	10310.33
653.109	10150.59
653.301	10324.66
653.494	10246.84
653.686	9915.07
653.879	10072.76
654.071	10074.81
654.263	9675.46
654.456	9917.12
654.648	9831.1
654.84	9548.48
655.033	9697.99
655.225	9632.45
655.417	9876.16
655.61	9607.87
655.802	9499.33
655.994	9558.72
656.186	9276.1
656.379	9419.46
656.571	9280.2
656.763	9204.42
656.955	9036.49
657.148	9183.95
657.34	9116.36
657.532	9013.96
657.724	9032.4
657.916	9085.64
658.108	8702.67
658.3	8854.22
658.492	8970.96
658.684	8571.6
658.876	8856.27
659.068	8663.76
659.26	8557.27
659.452	8786.64
659.644	8678.1
659.836	8530.64
660.028	8501.97
660.22	8227.54
660.412	8288.98
660.604	8360.66
660.796	8176.34
660.988	8094.43
661.18	8010.46
661.372	8012.51
661.563	8141.53
661.755	8090.33
661.947	7934.68
662.139	7906.01
662.331	8008.41
662.522	7748.32
662.714	7711.46
662.906	7746.27
663.097	7658.21
663.289	7635.68
663.481	7590.63
663.673	7496.42
663.864	7568.1
664.056	7383.78
664.247	7543.52
664.439	7465.7
664.631	7324.39
664.822	7246.57
665.014	7287.53
665.205	7078.63
665.397	7099.11
665.588	7232.23
665.78	7238.37
665.971	7146.22
666.163	7107.3
666.354	6931.18
666.546	6955.76
666.737	6814.45
666.929	6890.22
667.12	6865.64
667.311	6890.22
667.503	6691.57
667.694	6937.32
667.885	6767.34
668.077	6712.05
668.268	6623.98
668.459	6654.7
668.651	6603.5
668.842	6394.61
669.033	6484.72
669.224	6642.42
669.416	6390.52
669.607	6312.69
669.798	6271.73
669.989	6521.59
670.18	6365.94
670.371	6458.1
670.563	6220.53
670.754	6284.02
670.945	6302.45
671.136	6269.69
671.327	6167.29
671.518	6159.1
671.709	6189.81
671.9	6230.77
672.091	6142.71
672.282	6011.64
672.473	6120.18
672.664	6134.52
672.855	6030.07
673.046	6077.18
673.237	5847.8
673.428	5894.91
673.619	5815.04
673.809	5837.56
674	5839.61
674.191	5939.96
674.382	5792.51
674.573	5763.84
674.764	5751.55
674.954	5853.95
675.145	5765.89
675.336	5751.55
675.527	5681.92
675.717	5690.11
675.908	5628.67
676.099	5710.59
676.289	5657.34
676.48	5692.16
676.671	5493.51
676.861	5792.51
677.052	5575.42
677.243	5446.4
677.433	5585.66
677.624	5489.41
677.814	5503.75
678.005	5692.16
678.195	5321.48
678.386	5487.36
678.576	5307.14
678.767	5430.02
678.957	5542.66
679.148	5505.79
679.338	5393.16
679.529	5405.44
679.719	5307.14
679.909	5305.09
680.1	5249.8
680.29	5346.05
680.481	5325.57
680.671	5214.98
680.861	5171.97
681.052	5288.71
681.242	5206.79
681.432	5317.38
681.622	5083.91
681.813	5249.8
682.003	5223.17
682.193	5135.11
682.383	5372.68
682.573	5251.85
682.764	5116.68
682.954	5272.32
683.144	5145.35
683.334	5206.79
683.524	5122.82
683.714	5268.23
683.904	5198.6
684.094	5237.51
684.284	5184.26
684.474	5231.37
684.664	5079.82
684.854	5176.07
685.044	5026.57
685.234	4981.51
685.424	5165.83
685.614	4920.07
685.804	5030.66
685.994	4969.23
686.184	5026.57
686.374	4938.51
686.564	4956.94
686.753	4987.66
686.943	5001.99
687.133	5001.99
687.323	4860.68
687.513	4858.64
687.702	4903.69
687.892	4885.26
688.082	4915.98
688.272	4936.46
688.461	4715.28
688.651	4905.74
688.841	4754.19
689.03	4911.88
689.22	4592.4
689.41	4811.53
689.599	4760.33
689.789	4698.89
689.979	4872.97
690.168	4727.57
690.358	4666.13
690.547	4639.5
690.737	4719.37
690.926	4635.41
691.116	4514.58
691.305	4713.23
691.495	4471.57
691.684	4463.38
691.874	4698.89
692.063	4543.25
692.252	4684.56
692.442	4559.63
692.631	4662.03
692.82	4557.58
693.01	4676.37
693.199	4422.42
693.388	4371.22
693.578	4469.52
693.767	4424.47
693.956	4348.69
694.146	4537.1
694.335	4307.73
694.524	4354.83
694.713	4455.19
694.902	4315.92
695.092	4365.07
695.281	4256.53
695.47	4395.79
695.659	4227.86
695.848	4234
696.037	4281.11
696.226	4264.72
696.415	4246.29
696.604	4387.6
696.793	4195.09
696.982	4322.07
697.171	4377.36
697.36	4217.62
697.549	4135.7
697.738	4092.69
697.927	4092.69
698.116	4240.15
698.305	4160.28
698.494	4248.34
698.683	4154.13
698.872	4223.76
699.061	4215.57
699.25	4010.78
699.438	4172.57
699.627	4199.19
699.816	4272.92
700.005	4141.85
700.193	4016.92
700.382	4072.22
700.571	4162.33
700.76	4176.66
700.948	3994.39
701.137	4037.4
701.326	3914.52
701.514	3969.82
701.703	4023.06
701.892	3900.19
702.08	4068.12
702.269	3937.05
702.457	4018.97
702.646	4010.78
702.834	3910.43
703.023	3863.32
703.212	3916.57
703.4	3988.25
703.589	3773.21
703.777	3932.95
703.965	3871.51
704.154	3908.38
704.342	3818.27
704.531	3932.95
704.719	3683.1
704.907	3961.62
705.096	3775.26
705.284	3736.35
705.472	3801.88
705.661	3824.41
705.849	3627.81
706.037	3885.85
706.226	3572.51
706.414	3711.77
706.602	3722.01
706.79	3746.59
706.979	3715.87
707.167	3592.99
707.355	3519.26
707.543	3611.42
707.731	3570.46
707.919	3691.29
708.107	3562.27
708.296	3617.57
708.484	3382.05
708.672	3539.74
708.86	3431.2
709.048	3482.4
709.236	3644.19
709.424	3519.26
709.612	3529.5
709.8	3486.5
709.988	3552.03
710.176	3658.53
710.364	3461.92
710.551	3527.46
710.739	3494.69
710.927	3496.74
711.115	3443.49
711.303	3472.16
711.491	3521.31
711.679	3439.39
711.866	3349.28
712.054	3445.54
712.242	3437.34
712.43	3537.7
712.617	3341.09
712.805	3519.26
712.993	3322.66
713.181	3242.79
713.368	3339.04
713.556	3281.7
713.744	3197.73
713.931	3429.15
714.119	3298.08
714.306	3326.75
714.494	3220.26
714.682	3277.6
714.869	3199.78
715.057	3222.31
715.244	3183.4
715.432	3220.26
715.619	3212.07
715.807	3216.16
715.994	3240.74
716.182	3105.57
716.369	3150.63
716.556	3103.53
716.744	3068.71
716.931	3183.4
717.119	3191.59
717.306	3040.04
717.493	3011.37
717.681	3007.27
717.868	3033.9
718.055	3064.61
718.242	3109.67
718.43	3128.1
718.617	3019.56
718.804	3064.61
718.991	3060.52
719.179	3062.57
719.366	3011.37
719.553	2958.12
719.74	2980.65
719.927	2978.6
720.114	2925.35
720.301	3037.99
720.488	2945.83
720.676	2970.41
720.863	2898.73
721.05	3035.94
721.237	2980.65
721.424	2843.43
721.611	2872.11
721.798	2751.28
721.985	2806.57
722.172	2818.86
722.358	2880.3
722.545	2794.28
722.732	2972.46
722.919	2792.23
723.106	2898.73
723.293	2831.15
723.48	2896.68
723.667	2868.01
723.853	2806.57
724.04	2675.5
724.227	2857.77
724.414	2693.93
724.6	2777.9
724.787	2802.47
724.974	2880.3
725.161	2722.6
725.347	2650.92
725.534	2792.23
725.72	2665.26
725.907	2732.84
726.094	2687.79
726.28	2724.65
726.467	2585.39
726.653	2679.6
726.84	2691.88
727.027	2777.9
727.213	2564.91
727.4	2636.59
727.586	2751.28
727.773	2702.12
727.959	2712.36
728.145	2521.9
728.332	2620.21
728.518	2663.21
728.705	2683.69
728.891	2425.65
729.077	2579.25
729.264	2503.47
729.45	2554.67
729.636	2655.02
729.823	2491.18
730.009	2671.4
730.195	2544.43
730.382	2552.62
730.568	2607.92
730.754	2552.62
730.94	2560.81
731.126	2546.48
731.313	2601.77
731.499	2550.57
731.685	2482.99
731.871	2505.52
732.057	2511.66
732.243	2538.29
732.429	2605.87
732.615	2513.71
732.801	2503.47
732.987	2425.65
733.173	2423.6
733.359	2431.79
733.545	2470.7
733.731	2392.88
733.917	2446.13
734.103	2372.4
734.289	2358.07
734.475	2308.91
734.661	2491.18
734.847	2317.11
735.033	2358.07
735.219	2360.11
735.404	2448.18
735.59	2390.83
735.776	2339.63
735.962	2304.82
736.148	2396.98
736.333	2419.5
736.519	2339.63
736.705	2282.29
736.89	2482.99
737.076	2347.83
737.262	2296.63
737.447	2364.21
737.633	2208.56
737.819	2284.34
738.004	2126.64
738.19	2360.11
738.375	2208.56
738.561	2351.92
738.747	2151.22
738.932	2233.14
739.118	2239.28
739.303	2292.53
739.489	2220.85
739.674	2159.41
739.859	2163.51
740.045	2081.59
740.23	2181.94
740.416	2130.74
740.601	2157.36
740.786	2061.11
740.972	2128.69
741.157	2081.59
741.342	2036.53
741.528	2169.65
741.713	2079.54
741.898	2067.25
742.084	2022.2
742.269	2036.53
742.454	2077.49
742.639	2016.05
742.824	2036.53
743.01	2073.4
743.195	2161.46
743.38	2085.69
743.565	2075.45
743.75	2065.21
743.935	1915.7
744.12	2007.86
744.305	1987.38
744.49	1971
744.675	1930.04
744.86	1880.89
745.045	2038.58
745.23	1975.1
745.415	1841.98
745.6	1964.86
745.785	1893.18
745.97	1954.62
746.155	1964.86
746.34	1835.83
746.525	1837.88
746.71	1817.4
746.895	1729.34
747.079	1762.11
747.264	1712.96
747.449	1710.91
747.634	1760.06
747.819	1637.18
748.003	1723.2
748.188	1747.77
748.373	1749.82
748.557	1831.74
748.742	1758.01
748.927	1758.01
749.111	1708.86
749.296	1622.84
749.481	1786.68
749.665	1764.15
749.85	1669.95
750.034	1637.18
750.219	1698.62
750.404	1536.83
750.588	1602.36
750.773	1620.8
750.957	1661.76
751.141	1598.27
751.326	1514.3
751.51	1555.26
751.695	1536.83
751.879	1559.36
752.064	1545.02
752.248	1479.49
752.432	1555.26
752.617	1512.25
752.801	1522.49
752.985	1442.62
753.17	1551.17
753.354	1557.31
753.538	1497.92
753.722	1454.91
753.907	1497.92
754.091	1448.77
754.275	1454.91
754.459	1377.09
754.643	1375.04
754.828	1413.95
755.012	1338.18
755.196	1364.8
755.38	1377.09
755.564	1311.55
755.748	1317.7
755.932	1440.58
756.116	1340.22
756.3	1317.7
756.484	1364.8
756.668	1301.31
756.852	1209.15
757.036	1276.74
757.22	1209.15
757.404	1196.87
757.588	1184.58
757.772	1340.22
757.956	1260.35
758.14	1231.68
758.323	1213.25
758.507	1160
758.691	1256.26
758.875	1151.81
759.059	1127.24
759.242	1229.63
759.426	1211.2
759.61	1147.72
759.794	1037.13
759.977	1119.04
760.161	1112.9
760.345	1162.05
760.528	1178.44
760.712	1102.66
760.895	1143.62
761.079	1123.14
761.263	1135.43
761.446	1069.89
761.63	1127.24
761.813	1137.48
761.997	981.83
762.18	1008.45
762.364	1139.52
762.547	1022.79
762.731	987.97
762.914	1012.55
763.098	1102.66
763.281	998.21
763.464	1004.36
763.648	1035.08
763.831	1039.17
764.015	940.87
764.198	1024.84
764.381	1084.23
764.564	1065.8
764.748	1014.6
764.931	992.07
765.114	1012.55
765.297	969.54
765.481	975.69
765.664	959.3
765.847	975.69
766.03	1030.98
766.213	987.97
766.397	967.49
766.58	926.54
766.763	955.21
766.946	932.68
767.129	940.87
767.312	924.49
767.495	965.45
767.678	895.82
767.861	987.97
768.044	987.97
768.227	957.25
768.41	883.53
768.593	932.68
768.776	889.67
768.959	951.11
769.142	947.01
769.324	881.48
769.507	914.25
769.69	867.14
769.873	885.58
770.056	914.25
770.239	813.9
770.421	840.52
770.604	918.34
770.787	883.53
770.97	881.48
771.152	793.42
771.335	867.14
771.518	834.38
771.7	817.99
771.883	865.1
772.066	861
772.248	858.95
772.431	795.47
772.613	760.65
772.796	824.14
772.978	789.32
773.161	842.57
773.343	760.65
773.526	774.99
773.708	840.52
773.891	734.03
774.073	736.07
774.256	793.42
774.438	809.8
774.621	699.21
774.803	793.42
774.985	738.12
775.168	770.89
775.35	723.79
775.532	799.56
775.715	824.14
775.897	781.13
776.079	637.77
776.261	766.79
776.444	807.75
776.626	721.74
776.808	723.79
776.99	770.89
777.173	676.68
777.355	688.97
777.537	721.74
777.719	721.74
777.901	723.79
778.083	742.22
778.265	648.01
778.447	711.5
778.629	699.21
778.811	674.64
778.993	627.53
779.175	662.35
779.357	688.97
779.539	621.39
779.721	654.16
779.903	729.93
780.085	621.39
780.267	703.31
780.449	607.05
780.631	643.92
780.812	600.91
780.994	594.76
781.176	570.19
781.358	594.76
781.54	611.15
781.721	648.01
781.903	613.2
782.085	488.27
782.267	627.53
782.448	553.8
782.63	539.47
782.812	586.57
782.993	578.38
783.175	596.81
783.357	586.57
783.538	562
783.72	535.37
783.901	555.85
784.083	541.52
784.264	496.46
784.446	539.47
784.627	490.32
784.809	439.12
784.99	488.27
785.172	572.24
785.353	518.99
785.535	533.33
785.716	463.69
785.897	455.5
786.079	430.93
786.26	482.13
786.441	512.85
786.623	430.93
786.804	486.22
786.985	488.27
787.167	537.42
787.348	441.17
787.529	506.7
787.71	549.71
787.891	471.89
788.073	459.6
788.254	365.39
788.435	478.03
788.616	486.22
788.797	363.34
788.978	402.26
789.159	410.45
789.34	475.98
789.522	389.97
789.703	424.78
789.884	463.69
790.065	394.06
790.246	459.6
790.427	367.44
790.607	461.65
790.788	389.97
790.969	379.73
791.15	357.2
791.331	332.62
791.512	398.16
791.693	373.58
791.874	383.82
792.054	451.41
792.235	381.78
792.416	324.43
792.597	357.2
792.778	306
792.958	467.79
793.139	310.1
793.32	308.05
793.5	299.86
793.681	375.63
793.862	398.16
794.042	353.1
794.223	299.86
794.404	381.78
794.584	377.68
794.765	324.43
794.945	389.97
795.126	310.1
795.306	328.53
795.487	334.67
795.667	246.61
795.848	392.02
796.028	291.66
796.209	334.67
796.389	277.33
796.57	299.86
796.75	340.82
796.93	308.05
797.111	269.14
797.291	316.24
797.471	324.43
797.652	293.71
797.832	291.66
798.012	385.87
798.192	211.79
798.373	238.42
798.553	308.05
798.733	275.28
798.913	236.37
799.093	285.52
799.274	316.24
799.454	279.38
799.634	316.24
799.814	349.01
799.994	258.9
800.174	389.97
800.354	295.76
800.534	258.9
800.714	228.18
800.894	133.97
801.074	224.08
801.254	303.95
801.434	258.9
801.614	267.09
801.794	240.47
801.974	1041.22
802.154	222.03
802.334	275.28
802.514	248.66
802.693	254.8
802.873	201.55
803.053	301.9
803.233	326.48
803.413	277.33
803.592	170.83
803.772	267.09
803.952	205.65
804.131	187.22
804.311	205.65
804.491	254.8
804.67	242.51
804.85	187.22
805.03	244.56
805.209	326.48
805.389	203.6
805.568	187.22
805.748	183.12
805.928	291.66
806.107	242.51
806.287	160.59
806.466	222.03
806.646	217.94
806.825	205.65
807.004	215.89
807.184	140.12
807.363	283.47
807.543	162.64
807.722	217.94
807.901	265.04
808.081	228.18
808.26	162.64
808.439	187.22
808.619	250.71
808.798	242.51
808.977	207.7
809.156	187.22
809.336	174.93
809.515	267.09
809.694	187.22
809.873	160.59
810.052	246.61
810.231	262.99
810.411	140.12
810.59	275.28
810.769	230.23
810.948	193.36
811.127	54.1
811.306	127.83
811.485	217.94
811.664	217.94
811.843	226.13
812.022	209.75
812.201	179.03
812.38	119.64
812.559	111.44
812.737	242.51
812.916	176.98
813.095	119.64
813.274	148.31
813.453	193.36
813.632	234.32
813.811	226.13
813.989	95.06
814.168	156.5
814.347	168.79
814.526	121.68
814.704	224.08
814.883	211.79
815.062	185.17
815.24	176.98
815.419	80.72
815.598	189.27
815.776	140.12
815.955	187.22
816.133	82.77
816.312	154.45
816.49	144.21
816.669	103.25
816.847	242.51
817.026	152.4
817.204	201.55
817.383	103.25
817.561	127.83
817.74	136.02
817.918	283.47
818.097	136.02
818.275	160.59
818.453	179.03
818.632	213.84
818.81	129.88
818.988	144.21
819.167	176.98
819.345	121.68
819.523	127.83
819.701	131.92
819.879	193.36
820.058	168.79
820.236	90.96
820.414	86.87
820.592	156.5
820.77	146.26
820.948	113.49
821.127	127.83
821.305	156.5
821.483	64.34
821.661	209.75
821.839	148.31
822.017	103.25
822.195	119.64
822.373	136.02
822.551	136.02
822.729	127.83
822.907	162.64
823.085	193.36
823.262	187.22
823.44	90.96
823.618	129.88
823.796	105.3
823.974	47.96
824.152	99.16
824.329	103.25
824.507	166.74
824.685	168.79
824.863	152.4
825.04	152.4
825.218	86.87
825.396	168.79
825.574	127.83
825.751	146.26
825.929	228.18
826.107	125.78
826.284	193.36
826.462	70.48
826.639	62.29
826.817	117.59
826.994	185.17
827.172	127.83
827.349	136.02
827.527	152.4
827.704	140.12
827.882	127.83
828.059	160.59
828.237	197.46
828.414	136.02
828.591	64.34
828.769	99.16
828.946	66.39
829.124	148.31
829.301	154.45
829.478	203.6
829.655	56.15
829.833	62.29
830.01	136.02
830.187	95.06
830.364	113.49
830.542	131.92
830.719	187.22
830.896	103.25
831.073	125.78
831.25	146.26
831.427	119.64
831.604	37.72
831.782	82.77
831.959	154.45
832.136	129.88
832.313	213.84
832.49	56.15
832.667	86.87
832.844	95.06
833.021	90.96
833.198	121.68
833.374	168.79
833.551	50
833.728	144.21
833.905	158.55
834.082	82.77
834.259	152.4
834.436	113.49
834.612	47.96
834.789	179.03
834.966	101.2
835.143	105.3
835.319	72.53
835.496	95.06
835.673	113.49
835.85	133.97
836.026	103.25
836.203	140.12
836.38	86.87
836.556	66.39
836.733	105.3
836.909	138.07
837.086	70.48
837.262	97.11
837.439	101.2
837.616	121.68
837.792	95.06
837.968	97.11
838.145	23.38
838.321	62.29
838.498	111.44
838.674	136.02
838.851	37.72
839.027	50
839.203	111.44
839.38	152.4
839.556	123.73
839.732	97.11
839.909	80.72
840.085	93.01
840.261	90.96
840.437	117.59
840.614	78.68
840.79	152.4
840.966	58.2
841.142	82.77
841.318	78.68
841.494	109.4
841.671	101.2
841.847	80.72
842.023	58.2
842.199	119.64
842.375	166.74
842.551	29.52
842.727	29.52
842.903	193.36
843.079	95.06
843.255	86.87
843.431	123.73
843.607	23.38
843.783	9.05
843.959	174.93
844.134	-15.53
844.31	152.4
844.486	97.11
844.662	90.96
844.838	78.68
845.013	197.46
845.189	74.58
845.365	66.39
845.541	80.72
845.716	4.95
845.892	70.48
846.068	74.58
846.244	25.43
846.419	113.49
846.595	-3.24
846.77	74.58
846.946	21.33
847.122	162.64
847.297	25.43
847.473	138.07
847.648	72.53
847.824	115.54
847.999	21.33
848.175	41.81
848.35	41.81
848.526	45.91
848.701	68.44
848.876	113.49
849.052	131.92
849.227	86.87
849.403	62.29
849.578	45.91
849.753	-9.39
849.929	50
850.104	7
850.279	58.2
850.454	45.91
850.63	97.11
850.805	107.35
850.98	80.72
851.155	86.87
851.33	111.44
851.505	60.24
851.681	129.88
851.856	50
852.031	39.76
852.206	72.53
852.381	37.72
852.556	86.87
852.731	70.48
852.906	93.01
853.081	13.14
853.256	127.83
853.431	9.05
853.606	13.14
853.781	9.05
853.956	-9.39
854.131	-31.91
854.305	15.19
854.48	23.38
854.655	29.52
854.83	-7.34
855.005	127.83
855.18	54.1
855.354	7
855.529	29.52
855.704	47.96
855.879	54.1
856.053	54.1
856.228	17.24
856.403	54.1
856.577	9.05
856.752	-36.01
856.926	21.33
857.101	39.76
857.276	25.43
857.45	13.14
857.625	103.25
857.799	97.11
857.974	11.09
858.148	-3.24
858.323	103.25
858.497	74.58
858.672	25.43
858.846	82.77
859.02	142.16
859.195	39.76
859.369	45.91
859.543	68.44
859.718	90.96
859.892	41.81
860.066	41.81
860.241	74.58
860.415	52.05
860.589	31.57
860.763	74.58
860.938	62.29
861.112	74.58
861.286	66.39
861.46	103.25
861.634	72.53
861.808	160.59
861.982	-11.43
862.157	82.77
862.331	35.67
862.505	70.48
862.679	-38.06
862.853	-11.43
863.027	90.96
863.201	37.72
863.375	58.2
863.549	54.1
863.722	41.81
863.896	80.72
864.07	86.87
864.244	-23.72
864.418	72.53
864.592	121.68
864.766	88.92
864.939	17.24
865.113	45.91
865.287	21.33
865.461	-62.63
865.634	72.53
865.808	39.76
865.982	56.15
866.156	31.57
866.329	0.85
866.503	50
866.676	90.96
866.85	50
867.024	29.52
867.197	115.54
867.371	78.68
867.544	41.81
867.718	66.39
867.891	148.31
868.065	37.72
868.238	62.29
868.412	113.49
868.585	78.68
868.759	103.25
868.932	11.09
869.105	-23.72
869.279	45.91
869.452	86.87
869.625	97.11
869.799	4.95
869.972	11.09
870.145	33.62
870.319	-17.58
870.492	68.44
870.665	62.29
870.838	37.72
871.011	-36.01
871.185	31.57
871.358	90.96
871.531	23.38
871.704	13.14
871.877	64.34
872.05	-17.58
872.223	-19.63
872.396	-11.43
872.569	66.39
872.742	56.15
872.915	19.29
873.088	56.15
873.261	29.52
873.434	17.24
873.607	58.2
873.78	86.87
873.953	17.24
874.126	60.24
874.299	54.1
874.471	4.95
874.644	64.34
874.817	23.38
874.99	144.21
875.163	17.24
875.335	45.91
875.508	23.38
875.681	111.44
875.853	45.91
876.026	76.63
876.199	103.25
876.371	95.06
876.544	74.58
876.717	62.29
876.889	35.67
877.062	54.1
877.234	15.19
877.407	37.72
877.579	21.33
877.752	54.1
877.924	21.33
878.097	101.2
878.269	33.62
878.442	33.62
878.614	17.24
878.786	58.2
878.959	66.39
879.131	11.09
879.303	39.76
879.476	50
879.648	82.77
879.82	35.67
879.993	23.38
880.165	4.95
880.337	-52.39
880.509	54.1
880.681	-36.01
880.854	80.72
881.026	0.85
881.198	80.72
881.37	-11.43
881.542	45.91
881.714	4.95
881.886	47.96
882.058	-21.67
882.23	47.96
882.402	52.05
882.574	41.81
882.746	13.14
882.918	123.73
883.09	50
883.262	9.05
883.434	-33.96
883.606	95.06
883.778	86.87
883.95	62.29
884.122	-9.39
884.293	138.07
884.465	13.14
884.637	129.88
884.809	-11.43
884.98	54.1
885.152	13.14
885.324	4.95
885.496	0.85
885.667	7
885.839	54.1
886.011	7
886.182	17.24
886.354	72.53
886.525	62.29
886.697	54.1
886.869	-3.24
887.04	0.85
887.212	33.62
887.383	123.73
887.555	80.72
887.726	39.76
887.897	7
888.069	121.68
888.24	78.68
888.412	62.29
888.583	35.67
888.754	21.33
888.926	-85.16
889.097	62.29
889.268	41.81
889.44	72.53
889.611	-3.24
889.782	-9.39
889.953	2.9
890.125	107.35
890.296	45.91
890.467	45.91
890.638	74.58
890.809	45.91
890.98	15.19
891.151	23.38
891.323	37.72
891.494	11.09
891.665	37.72
891.836	-7.34
892.007	58.2
892.178	56.15
892.349	-5.29
892.52	95.06
892.691	27.48
892.862	-17.58
893.032	56.15
893.203	54.1
893.374	31.57
893.545	-27.82
893.716	9.05
893.887	86.87
894.057	-31.91
894.228	29.52
894.399	23.38
894.57	29.52
894.74	-36.01
894.911	45.91
895.082	-13.48
895.253	11.09
895.423	-42.15
895.594	105.3
895.764	13.14
895.935	15.19
896.106	19.29
896.276	-42.15
896.447	31.57
896.617	31.57
896.788	35.67
896.958	29.52
897.129	-3.24
897.299	-17.58
897.47	54.1
897.64	74.58
897.81	-1.19
897.981	13.14
898.151	-44.2
898.322	15.19
898.492	39.76
898.662	62.29
898.832	-1.19
899.003	72.53
899.173	41.81
899.343	-11.43
899.513	33.62
