Data from USB4F104151__37__14-29-44-961.txt Node

Date: Thu Mar 13 14:29:44 EDT 2025
User: louis
Spectrometer: USB4F10415
Trigger mode: 4
Integration Time (sec): 2.500000E-2
Scans to average: 1
Electric dark correction enabled: true
Nonlinearity correction enabled: false
Boxcar width: 0
XAxis mode: Wavelengths
Number of Pixels in Spectrum: 3648
>>>>>Begin Spectral Data<<<<<
178.204	-177.32
178.424	-177.32
178.644	-177.32
178.864	-148.65
179.084	-156.84
179.304	-68.78
179.524	-76.97
179.744	-48.3
179.964	107.35
180.184	-25.77
180.404	-44.2
180.624	37.72
180.844	7
181.064	29.52
181.283	-7.34
181.503	11.09
181.723	78.68
181.943	-23.72
182.163	56.15
182.383	21.33
182.602	11.09
182.822	29.52
183.042	21.33
183.262	19.29
183.482	-40.11
183.701	39.76
183.921	54.1
184.141	86.87
184.361	37.72
184.58	15.19
184.8	9.05
185.02	-19.63
185.239	97.11
185.459	70.48
185.679	86.87
185.898	-15.53
186.118	-3.24
186.338	21.33
186.557	72.53
186.777	-23.72
186.997	-3.24
187.216	-50.35
187.436	17.24
187.655	72.53
187.875	23.38
188.095	37.72
188.314	50
188.534	-3.24
188.753	15.19
188.973	84.82
189.192	113.49
189.412	4.95
189.631	35.67
189.851	-33.96
190.07	29.52
190.29	-44.2
190.509	86.87
190.729	-3.24
190.948	47.96
191.168	152.4
191.387	56.15
191.607	4.95
191.826	80.72
192.045	-36.01
192.265	-25.77
192.484	2.9
192.704	-44.2
192.923	-33.96
193.142	129.88
193.362	56.15
193.581	-19.63
193.8	88.92
194.02	13.14
194.239	-19.63
194.458	47.96
194.678	7
194.897	39.76
195.116	23.38
195.335	29.52
195.555	58.2
195.774	-3.24
195.993	15.19
196.212	2.9
196.432	43.86
196.651	13.14
196.87	45.91
197.089	101.2
197.308	37.72
197.528	17.24
197.747	-36.01
197.966	0.85
198.185	129.88
198.404	-36.01
198.623	45.91
198.842	15.19
199.062	58.2
199.281	37.72
199.5	4.95
199.719	47.96
199.938	33.62
200.157	58.2
200.376	50
200.595	29.52
200.814	21.33
201.033	41.81
201.252	41.81
201.471	21.33
201.69	31.57
201.909	86.87
202.128	74.58
202.347	56.15
202.566	-23.72
202.785	15.19
203.004	33.62
203.223	101.2
203.442	9.05
203.661	-29.87
203.879	41.81
204.098	70.48
204.317	0.85
204.536	-3.24
204.755	23.38
204.974	113.49
205.193	-17.58
205.411	41.81
205.63	50
205.849	-58.54
206.068	4.95
206.287	-5.29
206.505	29.52
206.724	72.53
206.943	-13.48
207.162	-25.77
207.381	-33.96
207.599	21.33
207.818	86.87
208.037	64.34
208.255	37.72
208.474	64.34
208.693	9.05
208.911	97.11
209.13	-3.24
209.349	50
209.567	21.33
209.786	2.9
210.005	93.01
210.223	33.62
210.442	-31.91
210.661	64.34
210.879	-11.43
211.098	37.72
211.316	13.14
211.535	56.15
211.753	66.39
211.972	97.11
212.191	33.62
212.409	7
212.628	4.95
212.846	-60.59
213.065	154.45
213.283	103.25
213.502	21.33
213.72	13.14
213.938	-9.39
214.157	21.33
214.375	7
214.594	21.33
214.812	68.44
215.031	-36.01
215.249	54.1
215.467	13.14
215.686	13.14
215.904	54.1
216.122	-19.63
216.341	82.77
216.559	56.15
216.778	50
216.996	21.33
217.214	33.62
217.432	-25.77
217.651	-21.67
217.869	21.33
218.087	-3.24
218.306	4.95
218.524	62.29
218.742	-31.91
218.96	50
219.179	74.58
219.397	29.52
219.615	105.3
219.833	13.14
220.051	7
220.27	31.57
220.488	31.57
220.706	41.81
220.924	15.19
221.142	-36.01
221.36	-3.24
221.578	58.2
221.796	7
222.015	13.14
222.233	58.2
222.451	-9.39
222.669	-19.63
222.887	82.77
223.105	37.72
223.323	29.52
223.541	-21.67
223.759	-1.19
223.977	-23.72
224.195	29.52
224.413	9.05
224.631	13.14
224.849	-7.34
225.067	45.91
225.285	21.33
225.503	54.1
225.721	25.43
225.939	54.1
226.157	23.38
226.375	123.73
226.592	-42.15
226.81	-36.01
227.028	52.05
227.246	119.64
227.464	-27.82
227.682	-5.29
227.9	50
228.117	70.48
228.335	-13.48
228.553	70.48
228.771	54.1
228.989	-7.34
229.206	37.72
229.424	-27.82
229.642	-48.3
229.86	-52.39
230.077	88.92
230.295	4.95
230.513	66.39
230.731	62.29
230.948	70.48
231.166	97.11
231.384	90.96
231.601	-17.58
231.819	47.96
232.037	-60.59
232.254	56.15
232.472	-3.24
232.689	-3.24
232.907	17.24
233.125	29.52
233.342	4.95
233.56	-105.64
233.777	41.81
233.995	-3.24
234.213	17.24
234.43	80.72
234.648	4.95
234.865	-68.78
235.083	-44.2
235.3	23.38
235.518	15.19
235.735	47.96
235.953	50
236.17	33.62
236.388	37.72
236.605	-19.63
236.822	74.58
237.04	-9.39
237.257	11.09
237.475	37.72
237.692	58.2
237.909	64.34
238.127	-19.63
238.344	-3.24
238.562	70.48
238.779	-1.19
238.996	19.29
239.214	-3.24
239.431	70.48
239.648	-5.29
239.865	43.86
240.083	50
240.3	-9.39
240.517	-3.24
240.735	70.48
240.952	7
241.169	37.72
241.386	80.72
241.603	31.57
241.821	54.1
242.038	113.49
242.255	21.33
242.472	-19.63
242.689	-3.24
242.907	45.91
243.124	86.87
243.341	-36.01
243.558	-3.24
243.775	-33.96
243.992	-36.01
244.209	66.39
244.426	29.52
244.643	78.68
244.86	0.85
245.078	82.77
245.295	-40.11
245.512	-27.82
245.729	-33.96
245.946	21.33
246.163	15.19
246.38	45.91
246.597	-7.34
246.814	95.06
247.031	29.52
247.248	29.52
247.464	31.57
247.681	70.48
247.898	58.2
248.115	2.9
248.332	72.53
248.549	50
248.766	50
248.983	-23.72
249.2	23.38
249.417	23.38
249.633	29.52
249.85	29.52
250.067	-31.91
250.284	50
250.501	115.54
250.717	15.19
250.934	29.52
251.151	-19.63
251.368	21.33
251.585	-11.43
251.801	56.15
252.018	58.2
252.235	41.81
252.451	-85.16
252.668	-7.34
252.885	82.77
253.102	31.57
253.318	50
253.535	35.67
253.752	-11.43
253.968	-11.43
254.185	-17.58
254.401	62.29
254.618	60.24
254.835	29.52
255.051	-36.01
255.268	9.05
255.484	88.92
255.701	-9.39
255.917	27.48
256.134	-44.2
256.351	88.92
256.567	-19.63
256.784	50
257	43.86
257.217	78.68
257.433	88.92
257.65	23.38
257.866	113.49
258.082	37.72
258.299	-48.3
258.515	13.14
258.732	-13.48
258.948	72.53
259.165	41.81
259.381	64.34
259.597	-19.63
259.814	-60.59
260.03	27.48
260.246	-17.58
260.463	21.33
260.679	70.48
260.895	86.87
261.112	-23.72
261.328	33.62
261.544	-3.24
261.761	78.68
261.977	0.85
262.193	4.95
262.409	111.44
262.626	-3.24
262.842	23.38
263.058	13.14
263.274	111.44
263.49	41.81
263.707	99.16
263.923	15.19
264.139	-23.72
264.355	64.34
264.571	111.44
264.787	33.62
265.004	11.09
265.22	29.52
265.436	13.14
265.652	39.76
265.868	13.14
266.084	-3.24
266.3	72.53
266.516	-1.19
266.732	31.57
266.948	-54.44
267.164	19.29
267.38	90.96
267.596	50
267.812	37.72
268.028	25.43
268.244	9.05
268.46	113.49
268.676	-11.43
268.892	-40.11
269.108	-27.82
269.324	33.62
269.54	62.29
269.756	64.34
269.972	-19.63
270.188	-42.15
270.403	-48.3
270.619	43.86
270.835	-19.63
271.051	123.73
271.267	23.38
271.483	21.33
271.698	64.34
271.914	21.33
272.13	50
272.346	62.29
272.562	29.52
272.777	-17.58
272.993	-27.82
273.209	-25.77
273.425	-1.19
273.64	-46.25
273.856	23.38
274.072	21.33
274.287	-9.39
274.503	95.06
274.719	54.1
274.934	19.29
275.15	-17.58
275.366	7
275.581	-23.72
275.797	-1.19
276.012	29.52
276.228	29.52
276.444	58.2
276.659	-19.63
276.875	9.05
277.09	45.91
277.306	41.81
277.521	-3.24
277.737	45.91
277.952	74.58
278.168	54.1
278.383	21.33
278.599	58.2
278.814	17.24
279.03	47.96
279.245	74.58
279.461	-11.43
279.676	-36.01
279.892	-1.19
280.107	54.1
280.322	4.95
280.538	29.52
280.753	-11.43
280.969	33.62
281.184	70.48
281.399	29.52
281.615	66.39
281.83	41.81
282.045	-9.39
282.26	54.1
282.476	-9.39
282.691	86.87
282.906	-19.63
283.122	37.72
283.337	-19.63
283.552	-11.43
283.767	88.92
283.983	62.29
284.198	-9.39
284.413	72.53
284.628	-91.31
284.843	47.96
285.058	47.96
285.274	4.95
285.489	17.24
285.704	37.72
285.919	74.58
286.134	11.09
286.349	-3.24
286.564	-27.82
286.779	56.15
286.995	25.43
287.21	15.19
287.425	47.96
287.64	-1.19
287.855	31.57
288.07	-9.39
288.285	113.49
288.5	68.44
288.715	50
288.93	-38.06
289.145	-3.24
289.36	0.85
289.575	-3.24
289.79	39.76
290.004	-11.43
290.219	64.34
290.434	62.29
290.649	54.1
290.864	0.85
291.079	25.43
291.294	95.06
291.509	33.62
291.724	25.43
291.938	-25.77
292.153	-7.34
292.368	-31.91
292.583	58.2
292.798	13.14
293.012	54.1
293.227	45.91
293.442	21.33
293.657	23.38
293.871	90.96
294.086	-27.82
294.301	158.55
294.516	37.72
294.73	9.05
294.945	25.43
295.16	-9.39
295.374	17.24
295.589	80.72
295.804	-31.91
296.018	7
296.233	136.02
296.447	64.34
296.662	58.2
296.877	23.38
297.091	23.38
297.306	-11.43
297.52	-1.19
297.735	-19.63
297.949	25.43
298.164	39.76
298.378	58.2
298.593	21.33
298.807	-17.58
299.022	39.76
299.236	58.2
299.451	-11.43
299.665	-44.2
299.88	-25.77
300.094	4.95
300.309	-19.63
300.523	-70.83
300.737	15.19
300.952	-40.11
301.166	9.05
301.381	-27.82
301.595	70.48
301.809	-11.43
302.024	54.1
302.238	37.72
302.452	37.72
302.667	56.15
302.881	4.95
303.095	78.68
303.309	37.72
303.524	-62.63
303.738	25.43
303.952	25.43
304.166	13.14
304.381	-23.72
304.595	152.4
304.809	15.19
305.023	11.09
305.237	43.86
305.452	-40.11
305.666	23.38
305.88	72.53
306.094	-85.16
306.308	70.48
306.522	41.81
306.736	-40.11
306.95	29.52
307.164	66.39
307.379	27.48
307.593	138.07
307.807	64.34
308.021	21.33
308.235	90.96
308.449	-11.43
308.663	25.43
308.877	60.24
309.091	37.72
309.305	62.29
309.519	-52.39
309.733	58.2
309.947	-19.63
310.161	111.44
310.374	29.52
310.588	107.35
310.802	-15.53
311.016	7
311.23	78.68
311.444	-15.53
311.658	84.82
311.872	62.29
312.085	41.81
312.299	47.96
312.513	15.19
312.727	78.68
312.941	-52.39
313.154	45.91
313.368	11.09
313.582	86.87
313.796	54.1
314.009	4.95
314.223	88.92
314.437	103.25
314.651	41.81
314.864	-7.34
315.078	29.52
315.292	-25.77
315.505	-23.72
315.719	78.68
315.933	-36.01
316.146	43.86
316.36	37.72
316.573	72.53
316.787	50
317.001	-40.11
317.214	-17.58
317.428	9.05
317.641	47.96
317.855	-21.67
318.068	-9.39
318.282	15.19
318.495	37.72
318.709	127.83
318.922	-11.43
319.136	72.53
319.349	50
319.563	31.57
319.776	74.58
319.99	9.05
320.203	82.77
320.417	25.43
320.63	19.29
320.843	146.26
321.057	17.24
321.27	27.48
321.483	54.1
321.697	66.39
321.91	-52.39
322.124	82.77
322.337	111.44
322.55	66.39
322.763	-1.19
322.977	-11.43
323.19	23.38
323.403	103.25
323.617	39.76
323.83	52.05
324.043	21.33
324.256	64.34
324.469	-9.39
324.683	41.81
324.896	-7.34
325.109	-5.29
325.322	-50.35
325.535	64.34
325.748	11.09
325.962	58.2
326.175	-33.96
326.388	47.96
326.601	-3.24
326.814	13.14
327.027	-17.58
327.24	80.72
327.453	-27.82
327.666	90.96
327.879	97.11
328.092	-27.82
328.305	88.92
328.518	-52.39
328.731	60.24
328.944	-36.01
329.157	23.38
329.37	-33.96
329.583	115.54
329.796	105.3
330.009	-17.58
330.222	13.14
330.435	29.52
330.648	13.14
330.861	43.86
331.073	-11.43
331.286	37.72
331.499	-17.58
331.712	33.62
331.925	105.3
332.138	64.34
332.35	13.14
332.563	9.05
332.776	45.91
332.989	-31.91
333.202	21.33
333.414	52.05
333.627	-23.72
333.84	-38.06
334.053	52.05
334.265	17.24
334.478	-17.58
334.691	70.48
334.903	-9.39
335.116	29.52
335.329	45.91
335.541	58.2
335.754	23.38
335.966	2.9
336.179	64.34
336.392	-48.3
336.604	-44.2
336.817	33.62
337.029	13.14
337.242	-3.24
337.454	76.63
337.667	58.2
337.88	62.29
338.092	4.95
338.305	54.1
338.517	45.91
338.729	56.15
338.942	86.87
339.154	-33.96
339.367	-105.64
339.579	78.68
339.792	-3.24
340.004	33.62
340.217	-3.24
340.429	107.35
340.641	-40.11
340.854	-13.48
341.066	21.33
341.278	56.15
341.491	111.44
341.703	68.44
341.915	-11.43
342.128	105.3
342.34	115.54
342.552	15.19
342.764	9.05
342.977	-15.53
343.189	78.68
343.401	39.76
343.613	-27.82
343.826	47.96
344.038	-11.43
344.25	39.76
344.462	7
344.674	-11.43
344.886	23.38
345.099	54.1
345.311	62.29
345.523	29.52
345.735	-23.72
345.947	0.85
346.159	-27.82
346.371	-19.63
346.583	15.19
346.795	64.34
347.007	52.05
347.219	54.1
347.431	17.24
347.643	111.44
347.855	-36.01
348.067	76.63
348.279	-48.3
348.491	86.87
348.703	37.72
348.915	52.05
349.127	37.72
349.339	41.81
349.551	11.09
349.763	86.87
349.975	-40.11
350.187	64.34
350.399	86.87
350.61	50
350.822	13.14
351.034	15.19
351.246	7
351.458	29.52
351.669	4.95
351.881	54.1
352.093	7
352.305	70.48
352.517	-1.19
352.728	4.95
352.94	78.68
353.152	4.95
353.363	74.58
353.575	23.38
353.787	58.2
353.999	50
354.21	82.77
354.422	50
354.633	27.48
354.845	15.19
355.057	70.48
355.268	37.72
355.48	68.44
355.692	17.24
355.903	13.14
356.115	54.1
356.326	23.38
356.538	88.92
356.749	95.06
356.961	93.01
357.172	54.1
357.384	-3.24
357.595	78.68
357.807	47.96
358.018	23.38
358.23	4.95
358.441	37.72
358.653	-50.35
358.864	-31.91
359.075	64.34
359.287	-17.58
359.498	62.29
359.709	111.44
359.921	-7.34
360.132	-5.29
360.344	-3.24
360.555	7
360.766	41.81
360.977	86.87
361.189	74.58
361.4	-19.63
361.611	111.44
361.823	13.14
362.034	68.44
362.245	4.95
362.456	4.95
362.667	-3.24
362.879	-11.43
363.09	-11.43
363.301	19.29
363.512	90.96
363.723	60.24
363.935	-13.48
364.146	37.72
364.357	2.9
364.568	37.72
364.779	-19.63
364.99	78.68
365.201	66.39
365.412	33.62
365.623	9.05
365.834	64.34
366.045	4.95
366.256	62.29
366.467	15.19
366.678	21.33
366.889	70.48
367.1	33.62
367.311	58.2
367.522	4.95
367.733	58.2
367.944	111.44
368.155	15.19
368.366	37.72
368.577	86.87
368.788	86.87
368.999	-27.82
369.209	-11.43
369.42	21.33
369.631	138.07
369.842	56.15
370.053	-76.97
370.264	29.52
370.474	-15.53
370.685	105.3
370.896	58.2
371.107	31.57
371.317	86.87
371.528	41.81
371.739	62.29
371.95	33.62
372.16	37.72
372.371	25.43
372.582	72.53
372.792	37.72
373.003	-40.11
373.214	-50.35
373.424	50
373.635	17.24
373.846	47.96
374.056	29.52
374.267	45.91
374.477	50
374.688	33.62
374.898	70.48
375.109	86.87
375.319	82.77
375.53	70.48
375.74	121.68
375.951	2.9
376.161	66.39
376.372	58.2
376.582	29.52
376.793	9.05
377.003	-33.96
377.214	37.72
377.424	47.96
377.635	58.2
377.845	31.57
378.055	82.77
378.266	52.05
378.476	70.48
378.686	33.62
378.897	37.72
379.107	41.81
379.317	62.29
379.528	86.87
379.738	70.48
379.948	-15.53
380.158	62.29
380.369	-7.34
380.579	54.1
380.789	29.52
380.999	117.59
381.21	76.63
381.42	56.15
381.63	82.77
381.84	136.02
382.05	-11.43
382.261	80.72
382.471	39.76
382.681	41.81
382.891	95.06
383.101	74.58
383.311	13.14
383.521	7
383.731	123.73
383.941	25.43
384.151	80.72
384.361	95.06
384.571	54.1
384.781	23.38
384.991	97.11
385.201	72.53
385.411	47.96
385.621	97.11
385.831	70.48
386.041	76.63
386.251	54.1
386.461	43.86
386.671	82.77
386.881	82.77
387.091	45.91
387.301	-25.77
387.511	54.1
387.72	105.3
387.93	105.3
388.14	80.72
388.35	78.68
388.56	19.29
388.769	56.15
388.979	97.11
389.189	-33.96
389.399	43.86
389.609	86.87
389.818	15.19
390.028	21.33
390.238	54.1
390.447	-46.25
390.657	136.02
390.867	86.87
391.076	-25.77
391.286	41.81
391.496	70.48
391.705	97.11
391.915	88.92
392.125	82.77
392.334	13.14
392.544	111.44
392.753	58.2
392.963	47.96
393.172	95.06
393.382	23.38
393.591	90.96
393.801	52.05
394.01	123.73
394.22	107.35
394.429	37.72
394.639	45.91
394.848	121.68
395.058	4.95
395.267	68.44
395.477	78.68
395.686	35.67
395.895	86.87
396.105	144.21
396.314	144.21
396.524	80.72
396.733	103.25
396.942	103.25
397.152	86.87
397.361	41.81
397.57	129.88
397.78	127.83
397.989	105.3
398.198	127.83
398.407	129.88
398.617	119.64
398.826	80.72
399.035	101.2
399.244	138.07
399.453	76.63
399.663	43.86
399.872	47.96
400.081	76.63
400.29	164.69
400.499	52.05
400.708	76.63
400.917	107.35
401.127	115.54
401.336	99.16
401.545	176.98
401.754	103.25
401.963	111.44
402.172	72.53
402.381	131.92
402.59	125.78
402.799	142.16
403.008	148.31
403.217	107.35
403.426	113.49
403.635	88.92
403.844	39.76
404.053	189.27
404.262	31.57
404.471	219.99
404.68	111.44
404.888	54.1
405.097	107.35
405.306	103.25
405.515	160.59
405.724	162.64
405.933	244.56
406.142	131.92
406.35	168.79
406.559	119.64
406.768	144.21
406.977	201.55
407.185	217.94
407.394	316.24
407.603	271.19
407.812	201.55
408.02	226.13
408.229	219.99
408.438	250.71
408.646	189.27
408.855	201.55
409.064	250.71
409.272	205.65
409.481	365.39
409.69	283.47
409.898	267.09
410.107	301.9
410.315	320.34
410.524	279.38
410.733	316.24
410.941	281.43
411.15	408.4
411.358	357.2
411.567	398.16
411.775	365.39
411.984	363.34
412.192	430.93
412.401	508.75
412.609	574.28
412.818	500.56
413.026	500.56
413.234	537.42
413.443	508.75
413.651	482.13
413.86	590.67
414.068	633.68
414.276	613.2
414.485	602.96
414.693	787.27
414.901	766.79
415.11	719.69
415.318	713.55
415.526	789.32
415.734	832.33
415.943	801.61
416.151	779.08
416.359	875.34
416.567	1000.26
416.776	889.67
416.984	953.16
417.192	1030.98
417.4	1012.55
417.608	922.44
417.817	975.69
418.025	1194.82
418.233	1110.85
418.441	1129.28
418.649	1209.15
418.857	1282.88
419.065	1282.88
419.273	1319.75
419.481	1434.43
419.689	1471.29
419.897	1512.25
420.105	1643.32
420.313	1573.69
420.521	1737.53
420.729	1723.2
420.937	1833.79
421.145	1817.4
421.353	1921.85
421.561	2044.73
421.769	2044.73
421.977	2218.8
422.185	2079.54
422.393	2286.39
422.601	2323.25
422.809	2454.32
423.017	2325.3
423.224	2552.62
423.432	2571.05
423.64	2691.88
423.848	2816.81
424.056	2767.66
424.263	2894.63
424.471	3007.27
424.679	2990.89
424.887	3037.99
425.094	3314.47
425.302	3281.7
425.51	3322.66
425.718	3404.58
425.925	3496.74
426.133	3498.78
426.341	3756.83
426.548	3920.67
426.756	4037.4
426.964	3998.49
427.171	4440.85
427.379	4440.85
427.586	4551.44
427.794	4621.07
428.001	4832.01
428.209	4885.26
428.417	4866.83
428.624	5374.72
428.832	5321.48
429.039	5298.95
429.247	5196.55
429.454	5845.76
429.662	5999.35
429.869	5886.72
430.076	6185.72
430.284	6118.14
430.491	6128.38
430.699	6675.18
430.906	6572.79
431.114	6748.91
431.321	6925.04
431.528	7115.5
431.736	7488.23
431.943	7752.42
432.15	7684.83
432.358	7635.68
432.565	8061.66
432.772	7971.55
432.979	8340.18
433.187	8538.84
433.394	8854.22
433.601	9097.93
433.808	9216.71
434.016	9038.54
434.223	9491.14
434.43	10175.16
434.637	9882.3
434.844	10599.09
435.052	10728.11
435.259	10801.84
435.466	10801.84
435.673	10687.15
435.88	11342.5
436.087	11958.94
436.294	11825.82
436.501	11492.01
436.708	12081.82
436.915	12278.43
437.122	12845.71
437.329	12858
437.537	13001.36
437.743	13593.22
437.95	13159.05
438.157	14248.57
438.364	14432.89
438.571	14334.59
438.778	14486.14
438.985	15719.01
439.192	15053.42
439.399	15473.26
439.606	15116.91
439.813	16058.98
440.02	17179.22
440.227	16691.8
440.433	16314.97
440.64	17375.82
440.847	17211.98
441.054	17470.03
441.261	18739.77
441.467	18625.08
441.674	18815.54
441.881	19313.2
442.088	19268.14
442.294	19184.18
442.501	19681.83
442.708	20159.01
442.914	20836.89
443.121	21600.78
443.328	21029.4
443.534	22319.62
443.741	21776.91
443.948	21619.21
444.154	23046.65
444.361	23099.89
444.568	23032.31
444.774	23071.22
444.981	23431.66
445.187	24115.69
445.394	25141.72
445.6	24949.21
445.807	27249.08
446.013	26026.44
446.22	26632.64
446.426	27449.78
446.633	27658.67
446.839	28795.29
447.046	27552.18
447.252	29403.54
447.459	29395.35
447.665	28811.68
447.871	30450.05
448.078	31791.47
448.284	30146.95
448.491	30884.22
448.697	32039.28
448.903	32518.5
449.11	32962.91
449.316	32104.81
449.522	32854.37
449.728	33626.45
449.935	33524.05
450.141	33691.99
450.347	34556.23
450.553	33368.41
450.76	33757.52
450.966	34965.82
451.172	34459.98
451.378	35418.42
451.584	34011.47
451.791	35621.17
451.997	35537.21
452.203	36073.77
452.409	36147.5
452.615	35795.25
452.821	34431.3
453.027	33866.06
453.233	36213.04
453.44	34875.71
453.646	34920.77
453.852	35060.03
454.058	35146.05
454.264	34758.98
454.47	35019.07
454.676	34277.71
454.882	35258.68
455.088	32311.66
455.294	32829.79
455.5	33272.15
455.705	33347.93
455.911	32414.05
456.117	31578.48
456.323	31189.37
456.529	29569.43
456.735	30744.96
456.941	30179.72
457.147	29297.05
457.352	28547.49
457.558	28367.27
457.764	28174.76
457.97	27470.26
458.176	26954.17
458.381	27089.34
458.587	25731.53
458.793	25682.38
458.999	24351.2
459.204	26223.05
459.41	25278.93
459.616	23392.75
459.821	23880.17
460.027	23409.14
460.233	23165.43
460.438	21815.82
460.644	22010.37
460.85	21285.39
461.055	20736.54
461.261	20910.61
461.466	19137.07
461.672	18577.98
461.878	19943.97
462.083	18426.43
462.289	18219.58
462.494	17836.61
462.7	17281.61
462.905	16861.78
463.111	17236.56
463.316	17517.13
463.522	16972.37
463.727	16792.15
463.932	16857.68
464.138	16421.47
464.343	16779.86
464.549	16128.61
464.754	16833.11
464.959	16593.5
465.165	16437.85
465.37	15657.57
465.575	15282.8
465.781	16022.11
465.986	16159.33
466.191	15530.6
466.397	15008.37
466.602	14285.44
466.807	15141.49
467.012	14848.63
467.218	15043.18
467.423	14690.93
467.628	14817.91
467.833	15372.91
468.038	14647.93
468.244	14389.88
468.449	14742.13
468.654	14213.76
468.859	14273.15
469.064	14183.04
469.269	13615.75
469.474	13521.54
469.679	14195.32
469.885	13396.62
470.09	13820.55
470.295	13490.82
470.5	13234.83
470.705	13415.05
470.91	12909.2
471.115	12939.92
471.32	13023.89
471.525	12974.74
471.73	12647.06
471.935	12538.52
472.139	12071.58
472.344	12434.07
472.549	12343.96
472.754	12063.39
472.959	11702.95
473.164	11727.52
473.369	11469.48
473.574	11739.81
473.778	11799.2
473.983	11645.6
474.188	11602.6
474.393	11197.1
474.598	11203.24
474.802	11164.33
475.007	10818.22
475.212	11014.83
475.417	10545.84
475.621	10556.08
475.826	10656.43
476.031	10394.29
476.235	10083
476.44	10289.85
476.645	10042.04
476.849	10224.31
477.054	10023.61
477.259	9781.95
477.463	9722.56
477.668	9470.66
477.872	9515.72
478.077	9405.13
478.282	9204.42
478.486	9286.34
478.691	9255.62
478.895	9355.97
479.1	9185.99
479.304	9179.85
479.509	8850.13
479.713	9206.47
479.918	8944.33
480.122	8886.99
480.326	8676.05
480.531	8729.3
480.735	8614.61
480.94	8428.24
481.144	9089.74
481.348	8630.99
481.553	8745.68
481.757	8393.43
481.961	8413.91
482.166	8553.17
482.37	8501.97
482.574	8336.09
482.778	8461.01
482.983	8557.27
483.187	8411.86
483.391	8504.02
483.595	8311.51
483.8	8098.52
484.004	8295.13
484.208	8467.16
484.412	8301.27
484.616	8366.81
484.821	8418
485.025	8225.5
485.229	8485.59
485.433	8270.55
485.637	8200.92
485.841	8139.48
486.045	8098.52
486.249	8413.91
486.453	8125.15
486.657	8311.51
486.861	8020.7
487.065	7967.45
487.269	8272.6
487.473	8096.47
487.677	8217.3
487.881	8262.36
488.085	8258.26
488.289	8225.5
488.493	8282.84
488.697	8381.14
488.901	8198.87
489.105	8254.17
489.309	8159.96
489.512	8284.89
489.716	8198.87
489.92	8321.75
490.124	8188.63
490.328	8395.48
490.531	8288.98
490.735	8542.93
490.939	8278.74
491.143	8297.17
491.346	8229.59
491.55	8475.35
491.754	8567.51
491.958	8551.12
492.161	8592.08
492.365	8508.12
492.569	8397.53
492.772	8483.54
492.976	8637.14
493.18	8639.19
493.383	8770.26
493.587	8598.23
493.79	8688.34
493.994	8919.76
494.197	8731.34
494.401	9190.09
494.605	8843.98
494.808	8866.51
495.012	8925.9
495.215	8997.58
495.419	8991.44
495.622	8862.41
495.825	9173.71
496.029	9220.81
496.232	9454.28
496.436	9329.35
496.639	9458.37
496.843	9411.27
497.046	9648.83
497.249	9695.94
497.453	9718.47
497.656	9718.47
497.859	9734.85
498.063	9956.03
498.266	9876.16
498.469	10138.3
498.673	10181.31
498.876	10224.31
499.079	10556.08
499.282	10433.21
499.485	10728.11
499.689	10646.19
499.892	10758.83
500.095	10762.93
500.298	11135.66
500.501	10912.43
500.705	11203.24
500.908	11412.14
501.111	11457.19
501.314	11440.81
501.517	11559.59
501.72	12008.09
501.923	11563.68
502.126	12008.09
502.329	12118.68
502.532	12317.34
502.735	12272.28
502.938	12624.53
503.141	12534.42
503.344	12702.36
503.547	12935.82
503.75	13032.08
503.953	12935.82
504.156	13134.48
504.359	13226.64
504.562	13292.17
504.765	13849.22
504.968	13861.51
505.17	13750.92
505.373	13802.11
505.576	14238.33
505.779	14203.52
505.982	14488.18
506.185	14422.65
506.387	14695.03
506.59	14738.04
506.793	14721.65
506.996	15049.33
507.198	15276.65
507.401	15358.57
507.604	15524.46
507.807	15792.74
508.009	15858.28
508.212	15966.82
508.415	16269.92
508.617	16433.75
508.82	16470.62
509.022	16321.12
509.225	16775.77
509.428	16898.64
509.63	16829.01
509.833	17293.9
510.035	17695.3
510.238	17633.86
510.44	17674.82
510.643	17996.35
510.845	18295.36
511.048	18065.99
511.25	18184.77
511.453	18408
511.655	19208.75
511.858	18707
512.06	18960.95
512.262	19178.03
512.465	19184.18
512.667	19364.4
512.87	19673.64
513.072	19804.71
513.274	20163.11
513.477	20257.31
513.679	20187.68
513.881	20513.31
514.084	20853.27
514.286	21039.64
514.488	20838.94
514.69	21543.44
514.893	21500.43
515.095	21635.6
515.297	22135.3
515.499	22104.58
515.701	22235.65
515.904	22471.17
516.106	22608.38
516.308	22749.69
516.51	22757.88
516.712	23063.03
516.914	23552.49
517.116	23736.81
517.318	23747.05
517.52	23587.31
517.722	23957.99
517.925	23984.62
518.127	24332.77
518.329	24422.88
518.531	24525.28
518.733	25039.32
518.935	25211.35
519.136	25080.28
519.338	25496.02
519.54	25582.03
519.742	25655.76
519.944	25885.13
520.146	26137.03
520.348	26401.22
520.55	26100.17
520.752	26302.92
520.954	26671.55
521.155	26628.54
521.357	26995.13
521.559	27220.41
521.761	27601.33
521.963	27136.44
522.164	27503.03
522.366	27152.82
522.568	27900.33
522.77	27523.51
522.971	28174.76
523.173	27967.91
523.375	28414.37
523.576	28203.43
523.778	28363.17
523.98	28387.75
524.181	28783.01
524.383	28490.15
524.584	28727.71
524.786	28805.53
524.988	28850.59
525.189	29344.15
525.391	29352.34
525.592	28924.32
525.794	29243.8
525.995	29000.09
526.197	29120.92
526.398	29184.41
526.6	29598.1
526.801	29413.78
527.003	29125.02
527.204	29514.13
527.406	29675.92
527.607	29528.47
527.808	29665.68
528.01	29383.06
528.211	29350.29
528.412	30226.82
528.614	29768.08
528.815	29432.21
529.016	30079.37
529.218	29858.19
529.419	30038.41
529.62	29929.87
529.822	29399.44
530.023	29477.27
530.224	29612.43
530.425	29571.47
530.626	29055.39
530.828	29192.6
531.029	29766.03
531.23	29682.06
531.431	29467.03
531.632	29397.4
531.833	29643.15
532.035	29147.54
532.236	29489.56
532.437	29677.97
532.638	29186.46
532.839	29325.72
533.04	29471.12
533.241	29057.43
533.442	29503.89
533.643	29499.8
533.844	29186.46
534.045	29198.74
534.246	28744.09
534.447	29065.63
534.648	29129.11
534.849	28846.49
535.05	28772.77
535.251	28995.99
535.451	28772.77
535.652	28909.98
535.853	28613.02
536.054	29057.43
536.255	28981.66
536.456	28369.32
536.657	29045.15
536.857	28643.74
537.058	28207.53
537.259	28617.12
537.46	28672.42
537.66	28369.32
537.861	28486.05
538.062	28332.45
538.263	28580.26
538.463	28203.43
538.664	28023.21
538.865	28305.83
539.065	28156.33
539.266	27890.09
539.466	28463.52
539.667	27539.89
539.868	28213.67
540.068	28371.36
540.269	28199.34
540.469	28277.16
540.67	27634.1
540.87	27673.01
541.071	27937.2
541.271	28262.82
541.472	27828.65
541.672	27847.08
541.873	27902.38
542.073	27234.74
542.274	28086.7
542.474	27486.64
542.675	27613.62
542.875	27967.91
543.075	27916.72
543.276	27468.21
543.476	27949.48
543.676	27564.46
543.877	27824.56
544.077	27589.04
544.277	27824.56
544.478	27750.83
544.678	27736.49
544.878	27779.5
545.078	27777.45
545.279	27478.45
545.479	27271.61
545.679	27656.62
545.879	27441.59
546.079	27380.15
546.28	27537.84
546.48	27392.44
546.68	27400.63
546.88	27740.59
547.08	27586.99
547.28	27652.53
547.48	27122.1
547.68	27763.12
547.88	27027.9
548.081	27748.78
548.281	27492.79
548.481	27380.15
548.681	27806.13
548.881	27789.74
549.081	27488.69
549.28	27152.82
549.48	27400.63
549.68	27423.15
549.88	27963.82
550.08	27247.03
550.28	27761.07
550.48	27621.81
550.68	27546.03
550.88	27521.46
551.08	27603.38
551.279	27896.24
551.479	27498.93
551.679	27619.76
551.879	27771.31
552.079	27627.95
552.278	27599.28
552.478	27285.94
552.678	27707.82
552.878	28006.83
553.077	27732.4
553.277	27713.97
553.477	27937.2
553.676	27744.69
553.876	27771.31
554.076	27957.67
554.275	27595.18
554.475	27417.01
554.674	27943.34
554.874	27695.53
555.074	27531.7
555.273	28064.17
555.473	28248.49
555.672	27763.12
555.872	27787.69
556.071	28035.5
556.271	28027.31
556.47	28117.42
556.67	27660.72
556.869	27908.52
557.068	27799.98
557.268	27679.15
557.467	27873.71
557.667	28158.38
557.866	27990.44
558.065	28238.25
558.265	27896.24
558.464	27845.04
558.663	28191.14
558.863	27840.94
559.062	28197.29
559.261	27947.43
559.461	28170.66
559.66	27744.69
559.859	28244.39
560.058	27711.92
560.258	28244.39
560.457	27929
560.656	27990.44
560.855	27904.43
561.054	28123.56
561.253	27566.51
561.453	27759.02
561.652	28338.6
561.851	28146.09
562.05	28168.62
562.249	27627.95
562.448	28273.06
562.647	27929
562.846	27992.49
563.045	28049.83
563.244	27855.28
563.443	27871.66
563.642	27597.23
563.841	27650.48
564.04	27718.06
564.239	28002.73
564.438	27693.49
564.637	27756.97
564.836	28139.94
565.035	27197.88
565.234	27961.77
565.432	27531.7
565.631	27621.81
565.83	27441.59
566.029	27255.22
566.228	27183.54
566.427	27535.79
566.625	27447.73
566.824	27085.24
567.023	27623.86
567.222	26966.46
567.42	27466.16
567.619	27285.94
567.818	27064.76
568.016	27341.24
568.215	27537.84
568.414	27062.71
568.612	27111.86
568.811	26812.86
569.01	26835.39
569.208	26679.74
569.407	27152.82
569.605	26593.73
569.804	26696.13
570.002	26464.71
570.201	26569.15
570.4	26466.75
570.598	26268.1
570.797	26153.41
570.995	26108.36
571.193	25795.02
571.392	26608.06
571.59	25887.18
571.789	25942.47
571.987	26087.88
572.186	25995.72
572.384	25596.37
572.582	25571.79
572.781	26081.74
572.979	25401.81
573.177	25702.86
573.376	25827.79
573.574	25446.87
573.772	25622.99
573.971	25145.81
574.169	25094.61
574.367	25104.85
574.565	25176.53
574.763	25268.69
574.962	24984.02
575.16	24934.87
575.358	25131.48
575.556	24476.13
575.754	24895.96
575.952	24551.9
576.151	24732.12
576.349	24390.11
576.547	24502.75
576.745	24500.7
576.943	24459.74
577.141	24226.28
577.339	24345.06
577.537	24175.08
577.735	23974.38
577.933	23974.38
578.131	24091.11
578.329	24019.43
578.527	23726.57
578.725	23755.24
578.923	23927.27
579.121	23482.86
579.319	23628.27
579.516	23460.34
579.714	23634.41
579.912	23464.43
580.11	23437.81
580.308	23562.73
580.506	23144.95
580.704	22989.3
580.901	23136.76
581.099	23347.7
581.297	22845.94
581.495	22954.49
581.692	22845.94
581.89	22735.35
582.088	22843.9
582.285	22583.8
582.483	22903.29
582.681	22569.47
582.878	22536.7
583.076	22227.46
583.274	22790.65
583.471	22182.4
583.669	22446.59
583.866	22198.79
584.064	22315.52
584.262	21971.46
584.459	22385.15
584.657	22157.83
584.854	22043.14
585.052	21879.3
585.249	22176.26
585.447	22037
585.644	21778.95
585.841	21889.54
586.039	22139.4
586.236	21363.22
586.434	21545.48
586.631	21467.66
586.828	21520.91
587.026	21551.63
587.223	21262.86
587.42	21522.96
587.618	21199.38
587.815	21113.36
588.012	21090.84
588.21	20896.28
588.407	21209.62
588.604	21596.68
588.801	20797.98
588.999	21309.97
589.196	21047.83
589.393	20908.57
589.59	20816.41
589.787	20761.11
589.984	20830.74
590.182	20609.56
590.379	20888.09
590.576	20644.38
590.773	20660.76
590.97	20548.12
591.167	20451.87
591.364	20458.01
591.561	20654.62
591.758	20402.72
591.955	20417.05
592.152	20435.49
592.349	20402.72
592.546	20386.33
592.743	20511.26
592.94	20167.2
593.137	20425.25
593.334	20535.84
593.531	20025.89
593.727	20279.84
593.924	20369.95
594.121	19980.84
594.318	20093.47
594.515	20075.04
594.712	19954.21
594.908	19712.55
595.105	20193.83
595.302	19747.37
595.499	19984.93
595.696	20044.32
595.892	20009.51
596.089	19993.12
596.286	19720.74
596.482	19958.31
596.679	20023.84
596.876	19903.01
597.072	19950.12
597.269	20122.15
597.466	19544.62
597.662	19950.12
597.859	19927.59
598.055	19792.42
598.252	19608.11
598.448	19786.28
598.645	19763.75
598.841	19755.56
599.038	19722.79
599.234	19860.01
599.431	19604.01
599.627	19716.65
599.824	19749.42
600.02	19817
600.217	19896.87
600.413	19911.21
600.609	19747.37
600.806	19821.09
601.002	19927.59
601.198	19831.33
601.395	19657.26
601.591	19782.18
601.787	19946.02
601.984	19921.45
602.18	20206.11
602.376	20083.23
602.572	19978.79
602.769	19929.64
602.965	19898.92
603.161	20169.25
603.357	20105.76
603.553	20144.67
603.75	19980.84
603.946	20040.23
604.142	20316.7
604.338	20075.04
604.534	20195.87
604.73	20148.77
604.926	20349.47
605.122	20531.74
605.318	20259.36
605.514	20552.22
605.71	19984.93
605.906	20621.85
606.102	20394.53
606.298	20746.78
606.494	20564.51
606.69	20714.01
606.886	20627.99
607.082	20402.72
607.278	20904.47
607.474	20611.61
607.67	20935.19
607.866	20550.17
608.062	20992.53
608.257	20818.46
608.453	20924.95
608.649	20951.57
608.845	20834.84
609.041	20982.29
609.236	21066.26
609.432	21000.72
609.628	20890.13
609.824	20947.48
610.019	21322.26
610.215	21332.5
610.411	21338.64
610.606	21236.24
610.802	21277.2
610.998	21686.79
611.193	21555.72
611.389	21326.35
611.584	21152.27
611.78	21395.98
611.976	21393.93
612.171	21578.25
612.367	21584.4
612.562	21625.36
612.758	21484.05
612.953	21406.22
613.149	21830.15
613.344	21348.88
613.539	22008.33
613.735	21842.44
613.93	21647.88
614.126	21369.36
614.321	22231.55
614.517	21916.17
614.712	21803.53
614.907	21522.96
615.103	22010.37
615.298	22022.66
615.493	21674.51
615.688	21807.62
615.884	22249.99
616.079	21721.61
616.274	22059.52
616.47	21944.84
616.665	21922.31
616.86	21893.64
617.055	21799.43
617.25	21969.41
617.445	22217.22
617.641	21817.86
617.836	22217.22
618.031	21793.29
618.226	22168.07
618.421	22014.47
618.616	22227.46
618.811	21654.03
619.006	22233.6
619.201	21531.15
619.396	21721.61
619.591	21737.99
619.786	21922.31
619.981	21451.28
620.176	21813.77
620.371	21514.77
620.566	21453.33
620.761	21400.08
620.956	21699.08
621.151	21084.69
621.346	21318.16
621.541	20845.08
621.735	21068.31
621.93	20845.08
622.125	20890.13
622.32	20787.74
622.515	20896.28
622.709	20623.9
622.904	20732.44
623.099	20765.21
623.294	20619.8
623.488	20242.98
623.683	20535.84
623.878	20412.96
624.072	20285.98
624.267	20001.32
624.462	20216.35
624.656	19757.61
624.851	19862.05
625.046	19810.86
625.24	19581.48
625.435	19673.64
625.629	19515.95
625.824	19362.35
626.018	19266.1
626.213	19307.05
626.407	19192.37
626.602	18936.37
626.796	19229.23
626.991	19051.06
627.185	18870.84
627.38	18641.46
627.574	18393.66
627.768	18731.58
627.963	18510.39
628.157	18256.45
628.352	18620.99
628.546	18156.1
628.74	18553.4
628.935	17963.59
629.129	18346.56
629.323	17936.96
629.517	17908.29
629.712	17912.39
629.906	17834.57
630.1	17480.27
630.294	17597
630.489	17295.95
630.683	17263.18
630.877	17199.69
631.071	17226.32
631.265	17349.2
631.459	16927.32
631.653	16675.41
631.848	17193.55
632.042	16915.03
632.236	17035.86
632.43	16323.16
632.624	16544.34
632.818	16400.99
633.012	16276.06
633.206	16462.43
633.4	16364.12
633.594	16091.74
633.788	16177.76
633.982	15987.3
634.176	16028.26
634.369	15948.39
634.563	15770.21
634.757	15778.4
634.951	15815.27
635.145	15821.41
635.339	15364.71
635.533	15665.77
635.726	15415.91
635.92	15161.97
636.114	15340.14
636.308	14873.2
636.501	14840.43
636.695	14934.64
636.889	15000.18
637.083	14830.2
637.276	14570.1
637.47	14520.95
637.664	14670.45
637.857	14568.06
638.051	14334.59
638.244	14215.8
638.438	14269.05
638.632	14197.37
638.825	14015.1
639.019	13922.94
639.212	13785.73
639.406	13791.87
639.599	13744.77
639.793	13560.45
639.986	13523.59
640.18	13714.05
640.373	13529.73
640.567	13009.55
640.76	13154.96
640.954	12956.3
641.147	13171.34
641.34	13070.99
641.534	12946.06
641.727	12954.26
641.92	12702.36
642.114	12716.69
642.307	12550.81
642.5	12583.57
642.694	12370.58
642.887	12300.95
643.08	12290.71
643.273	12239.51
643.467	12237.47
643.66	12083.87
643.853	11850.4
644.046	11719.33
644.239	11899.55
644.432	11903.65
644.626	11596.45
644.819	11604.64
645.012	11563.68
645.205	11643.56
645.398	11397.8
645.591	11291.31
645.784	11391.66
645.977	11346.6
646.17	11264.68
646.363	10996.4
646.556	10891.95
646.749	10887.86
646.942	10926.77
647.135	10797.74
647.328	10816.18
647.521	10635.96
647.714	10648.24
647.907	10410.68
648.099	10562.23
648.292	10459.83
648.485	10246.84
648.678	10101.44
648.871	10261.18
649.064	10214.07
649.256	10154.68
649.449	10015.42
649.642	9976.51
649.835	9728.7
650.027	9867.97
650.22	9757.38
650.413	9865.92
650.605	9558.72
650.798	9620.16
650.991	9495.24
651.183	9544.39
651.376	9458.37
651.568	9335.49
651.761	9394.89
651.954	9405.13
652.146	9253.58
652.339	9499.33
652.531	9296.58
652.724	9050.83
652.916	9089.74
653.109	9093.83
653.301	9102.03
653.494	9081.55
653.686	8884.94
653.879	8843.98
654.071	8952.52
654.263	8737.49
654.456	8786.64
654.648	8837.84
654.84	8549.07
655.033	8682.19
655.225	8657.62
655.417	8534.74
655.61	8577.75
655.802	8350.42
655.994	8252.12
656.186	8233.69
656.379	8336.09
656.571	8272.6
656.763	8035.03
656.955	8065.75
657.148	8172.25
657.34	7959.26
657.532	7955.16
657.724	8098.52
657.916	8010.46
658.108	8032.99
658.3	7895.77
658.492	7981.79
658.684	7582.43
658.876	7830.24
659.068	7715.55
659.26	7617.25
659.452	7520.99
659.644	7740.13
659.836	7566.05
660.028	7684.83
660.22	7336.68
660.412	7412.45
660.604	7199.46
660.796	7246.57
660.988	7457.51
661.18	7074.54
661.372	7103.21
661.563	7074.54
661.755	6963.95
661.947	6998.76
662.139	6982.38
662.331	6740.72
662.522	6841.07
662.714	6869.74
662.906	6791.92
663.097	6775.53
663.289	6779.63
663.481	6689.52
663.673	6714.09
663.864	6597.36
664.056	6644.46
664.247	6683.38
664.439	6583.02
664.631	6361.84
664.822	6662.9
665.014	6583.02
665.205	6451.95
665.397	6245.11
665.588	6394.61
665.78	6267.64
665.971	6363.89
666.163	6411
666.354	6021.88
666.546	6058.74
666.737	6009.59
666.929	6087.42
667.12	6140.66
667.311	5935.87
667.503	5927.67
667.694	6005.5
667.885	5952.25
668.077	6066.94
668.268	5909.24
668.459	5843.71
668.651	5788.41
668.842	5845.76
669.033	5741.31
669.224	5741.31
669.416	5759.74
669.607	5751.55
669.798	5755.65
669.989	5741.31
670.18	5653.25
670.371	5579.52
670.563	5583.62
670.754	5733.12
670.945	5679.87
671.136	5387.01
671.327	5354.24
671.518	5403.39
671.709	5511.94
671.9	5440.26
672.091	5452.55
672.282	5423.87
672.473	5346.05
672.664	5423.87
672.855	5067.53
673.046	5454.59
673.237	5434.11
673.428	5446.4
673.619	5278.47
673.809	5190.41
674	5184.26
674.191	5382.92
674.382	5128.97
674.573	5284.61
674.764	5239.56
674.954	5165.83
675.145	5006.09
675.336	5034.76
675.527	5047.05
675.717	5100.3
675.908	5051.14
676.099	4989.71
676.289	5034.76
676.48	4930.31
676.671	5049.1
676.861	4932.36
677.052	4938.51
677.243	4973.32
677.433	4944.65
677.624	4981.51
677.814	4913.93
678.005	4864.78
678.195	5016.33
678.386	4997.9
678.576	5010.18
678.767	4827.92
678.957	4813.58
679.148	5057.29
679.338	4766.48
679.529	4858.64
679.719	4748.04
679.909	4903.69
680.1	4944.65
680.29	4903.69
680.481	4819.72
680.671	4813.58
680.861	4854.54
681.052	4881.16
681.242	4856.59
681.432	4936.46
681.622	4764.43
681.813	4768.52
682.003	4723.47
682.193	4795.15
682.383	4825.87
682.573	4782.86
682.764	4832.01
682.954	4920.07
683.144	4723.47
683.334	4797.2
683.524	4739.85
683.714	4741.9
683.904	4772.62
684.094	4715.28
684.284	4711.18
684.474	4813.58
684.664	4793.1
684.854	4754.19
685.044	4668.17
685.234	4702.99
685.424	4725.52
685.614	4535.06
685.804	4735.76
685.994	4698.89
686.184	4559.63
686.374	4817.68
686.564	4563.73
686.753	4721.42
686.943	4643.6
687.133	4588.3
687.323	4731.66
687.513	4655.89
687.702	4500.24
687.892	4625.17
688.082	4655.89
688.272	4565.78
688.461	4528.91
688.651	4535.06
688.841	4510.48
689.03	4473.62
689.22	4461.33
689.41	4502.29
689.599	4473.62
689.789	4381.46
689.979	4465.43
690.168	4471.57
690.358	4313.88
690.547	4262.68
690.737	4354.83
690.926	4485.9
691.116	4322.07
691.305	4430.61
691.495	4373.27
691.684	4338.45
691.874	4285.2
692.063	4268.82
692.252	4465.43
692.442	4293.4
692.631	4158.23
692.82	4234
693.01	4358.93
693.199	4199.19
693.388	4135.7
693.578	4234
693.767	4315.92
693.956	4229.91
694.146	4129.56
694.335	4059.93
694.524	4051.74
694.713	4182.81
694.902	4029.21
695.092	4109.08
695.281	4094.74
695.47	4133.65
695.659	4217.62
695.848	3998.49
696.037	4045.59
696.226	4100.89
696.415	4125.46
696.604	4029.21
696.793	4078.36
696.982	4035.35
697.171	4090.65
697.36	4006.68
697.549	4096.79
697.738	3986.2
697.927	3896.09
698.116	3926.81
698.305	3957.53
698.494	3928.86
698.683	3924.76
698.872	4113.17
699.061	3922.71
699.25	3992.34
699.438	3855.13
699.627	3863.32
699.816	3978.01
700.005	3873.56
700.193	3920.67
700.382	3980.06
700.571	3818.27
700.76	3986.2
700.948	3910.43
701.137	3945.24
701.326	3904.28
701.514	3781.4
701.703	3918.62
701.892	3812.12
702.08	3971.86
702.269	3816.22
702.457	3822.36
702.646	3769.12
702.834	3789.6
703.023	3752.73
703.212	3863.32
703.4	3543.84
703.589	3709.72
703.777	3719.96
703.965	3668.77
704.154	3724.06
704.342	3822.36
704.531	3613.47
704.719	3621.66
704.907	3685.15
705.096	3597.09
705.284	3644.19
705.472	3562.27
705.661	3603.23
705.849	3646.24
706.037	3679.01
706.226	3558.18
706.414	3652.38
706.602	3636
706.79	3547.94
706.979	3394.34
707.167	3584.8
707.355	3554.08
707.543	3324.71
707.731	3519.26
707.919	3486.5
708.107	3511.07
708.296	3427.11
708.484	3347.23
708.672	3461.92
708.86	3369.76
709.048	3408.67
709.236	3306.27
709.424	3328.8
709.612	3404.58
709.8	3416.87
709.988	3298.08
710.176	3312.42
710.364	3543.84
710.551	3343.14
710.739	3134.25
710.927	3298.08
711.115	3261.22
711.303	3195.68
711.491	3361.57
711.679	3281.7
711.866	3322.66
712.054	3232.55
712.242	3265.32
712.43	3281.7
712.617	3019.56
712.805	3134.25
712.993	3138.34
713.181	3193.64
713.368	3242.79
713.556	3179.3
713.744	3095.33
713.931	3167.01
714.119	3169.06
714.306	3083.05
714.494	3093.29
714.682	3027.75
714.869	2915.11
715.057	3054.37
715.244	3027.75
715.432	3076.9
715.619	2980.65
715.807	3068.71
715.994	3158.82
716.182	3027.75
716.369	3089.19
716.556	2933.54
716.744	2976.55
716.931	2986.79
717.119	2962.22
717.306	2863.91
717.493	3044.13
717.681	2986.79
717.868	2990.89
718.055	2915.11
718.242	2904.87
718.43	3019.56
718.617	2904.87
718.804	2966.31
718.991	2827.05
719.179	2868.01
719.366	2947.88
719.553	2798.38
719.74	2937.64
719.927	2777.9
720.114	2861.87
720.301	2718.51
720.488	2736.94
720.676	2753.32
720.863	2880.3
721.05	2908.97
721.237	2736.94
721.424	2775.85
721.611	2843.43
721.798	2503.47
721.985	2693.93
722.172	2732.84
722.358	2609.97
722.545	2708.27
722.732	2657.07
722.919	2687.79
723.106	2675.5
723.293	2626.35
723.48	2571.05
723.667	2698.03
723.853	2612.01
724.04	2706.22
724.227	2605.87
724.414	2644.78
724.6	2558.77
724.787	2683.69
724.974	2646.83
725.161	2612.01
725.347	2552.62
725.534	2661.16
725.72	2493.23
725.907	2458.42
726.094	2534.19
726.28	2431.79
726.467	2554.67
726.653	2503.47
726.84	2423.6
727.027	2509.62
727.213	2505.52
727.4	2536.24
727.586	2528.05
727.773	2376.5
727.959	2503.47
728.145	2554.67
728.332	2544.43
728.518	2425.65
728.705	2507.57
728.891	2407.22
729.077	2480.94
729.264	2376.5
729.45	2429.74
729.636	2321.2
729.823	2339.63
730.009	2331.44
730.195	2364.21
730.382	2372.4
730.568	2372.4
730.754	2396.98
730.94	2413.36
731.126	2380.59
731.313	2278.19
731.499	2270
731.685	2380.59
731.871	2210.61
732.057	2368.31
732.243	2292.53
732.429	2315.06
732.615	2298.67
732.801	2429.74
732.987	2169.65
733.173	2298.67
733.359	2353.97
733.545	2259.76
733.731	2204.47
733.917	2243.38
734.103	2249.52
734.289	2319.15
734.475	2241.33
734.661	2159.41
734.847	2286.39
735.033	2132.79
735.219	2188.08
735.404	2183.99
735.59	2097.97
735.776	2089.78
735.962	2091.83
736.148	2128.69
736.333	2212.66
736.519	2114.36
736.705	2151.22
736.89	2095.93
737.076	2179.89
737.262	2145.08
737.447	2024.25
737.633	2034.49
737.819	2169.65
738.004	2097.97
738.19	1940.28
738.375	2016.05
738.561	2212.66
738.747	2028.34
738.932	2028.34
739.118	2087.73
739.303	2007.86
739.489	2077.49
739.674	1919.8
739.859	2028.34
740.045	2024.25
740.23	2077.49
740.416	1966.9
740.601	1989.43
740.786	2005.81
740.972	1925.94
741.157	1997.62
741.342	1956.66
741.528	1884.98
741.713	1962.81
741.898	1966.9
742.084	1844.03
742.269	1907.51
742.454	1784.63
742.639	1891.13
742.824	1833.79
743.01	1927.99
743.195	1956.66
743.38	1878.84
743.565	1831.74
743.75	1954.62
743.935	1917.75
744.12	1848.12
744.305	1770.3
744.49	1766.2
744.675	1833.79
744.86	1715
745.045	1798.97
745.23	1801.02
745.415	1772.35
745.6	1755.96
745.785	1624.89
745.97	1809.21
746.155	1618.75
746.34	1706.81
746.525	1645.37
746.71	1737.53
746.895	1682.24
747.079	1590.08
747.264	1774.39
747.449	1585.98
747.634	1651.52
747.819	1594.17
748.003	1549.12
748.188	1645.37
748.373	1524.54
748.557	1614.65
748.742	1588.03
748.927	1549.12
749.111	1438.53
749.296	1545.02
749.481	1651.52
749.665	1520.45
749.85	1446.72
750.034	1479.49
750.219	1381.18
750.404	1512.25
750.588	1508.16
750.773	1389.38
750.957	1553.21
751.141	1446.72
751.326	1512.25
751.51	1452.86
751.695	1340.22
751.879	1426.24
752.064	1454.91
752.248	1301.31
752.432	1540.93
752.617	1422.14
752.801	1289.03
752.985	1332.03
753.17	1432.38
753.354	1317.7
753.538	1213.25
753.722	1231.68
753.907	1254.21
754.091	1303.36
754.275	1399.62
754.459	1291.07
754.643	1250.11
754.828	1225.54
755.012	1250.11
755.196	1172.29
755.38	1143.62
755.564	1131.33
755.748	1160
755.932	1147.72
756.116	1299.27
756.3	1147.72
756.484	1211.2
756.668	1141.57
756.852	1184.58
757.036	1139.52
757.22	1141.57
757.404	1106.76
757.588	1092.42
757.772	981.83
757.956	1043.27
758.14	1088.32
758.323	1100.61
758.507	1131.33
758.691	1192.77
758.875	1184.58
759.059	1061.7
759.242	1098.56
759.426	1037.13
759.61	1002.31
759.794	1104.71
759.977	1053.51
760.161	1160
760.345	969.54
760.528	1094.47
760.712	1078.08
760.895	1086.28
761.079	1104.71
761.263	891.72
761.446	881.48
761.63	1069.89
761.813	992.07
761.997	914.25
762.18	957.25
762.364	922.44
762.547	928.58
762.731	901.96
762.914	924.49
763.098	932.68
763.281	918.34
763.464	944.97
763.648	951.11
763.831	953.16
764.015	844.62
764.198	930.63
764.381	891.72
764.564	965.45
764.748	885.58
764.931	936.78
765.114	959.3
765.297	840.52
765.481	799.56
765.664	1006.41
765.847	803.66
766.03	801.61
766.213	791.37
766.397	850.76
766.58	824.14
766.763	914.25
766.946	828.23
767.129	924.49
767.312	725.83
767.495	791.37
767.678	807.75
767.861	891.72
768.044	787.27
768.227	809.8
768.41	750.41
768.593	893.77
768.776	846.66
768.959	777.03
769.142	891.72
769.324	762.7
769.507	758.6
769.69	826.18
769.873	777.03
770.056	877.38
770.239	774.99
770.421	885.58
770.604	801.61
770.787	838.47
770.97	840.52
771.152	768.84
771.335	738.12
771.518	731.98
771.7	758.6
771.883	801.61
772.066	752.46
772.248	734.03
772.431	791.37
772.613	740.17
772.796	672.59
772.978	695.11
773.161	768.84
773.343	774.99
773.526	691.02
773.708	611.15
773.891	660.3
774.073	684.87
774.256	641.87
774.438	752.46
774.621	742.22
774.803	672.59
774.985	627.53
775.168	727.88
775.35	631.63
775.532	676.68
775.715	635.72
775.897	627.53
776.079	629.58
776.261	697.16
776.444	643.92
776.626	643.92
776.808	564.04
776.99	596.81
777.173	615.24
777.355	592.72
777.537	639.82
777.719	553.8
777.901	553.8
778.083	627.53
778.265	580.43
778.447	607.05
778.629	611.15
778.811	510.8
778.993	555.85
779.175	629.58
779.357	566.09
779.539	496.46
779.721	547.66
779.903	605
780.085	529.23
780.267	502.61
780.449	541.52
780.631	602.96
780.812	533.33
780.994	480.08
781.176	531.28
781.358	527.18
781.54	525.13
781.721	555.85
781.903	549.71
782.085	498.51
782.267	412.5
782.448	508.75
782.63	449.36
782.812	463.69
782.993	557.9
783.175	584.52
783.357	488.27
783.538	455.5
783.72	449.36
783.901	451.41
784.083	478.03
784.264	406.35
784.446	514.89
784.627	414.54
784.809	441.17
784.99	418.64
785.172	435.02
785.353	488.27
785.535	469.84
785.716	439.12
785.897	400.21
786.079	351.06
786.26	373.58
786.441	435.02
786.623	342.86
786.804	404.3
786.985	381.78
787.167	447.31
787.348	422.73
787.529	447.31
787.71	349.01
787.891	361.3
788.073	303.95
788.254	330.58
788.435	338.77
788.616	293.71
788.797	279.38
788.978	340.82
789.159	351.06
789.34	351.06
789.522	334.67
789.703	326.48
789.884	367.44
790.065	349.01
790.246	435.02
790.427	351.06
790.607	389.97
790.788	285.52
790.969	349.01
791.15	308.05
791.331	299.86
791.512	342.86
791.693	277.33
791.874	301.9
792.054	396.11
792.235	349.01
792.416	299.86
792.597	246.61
792.778	299.86
792.958	285.52
793.139	299.86
793.32	353.1
793.5	250.71
793.681	320.34
793.862	281.43
794.042	291.66
794.223	293.71
794.404	303.95
794.584	228.18
794.765	316.24
794.945	324.43
795.126	275.28
795.306	369.49
795.487	291.66
795.667	256.85
795.848	316.24
796.028	224.08
796.209	256.85
796.389	246.61
796.57	295.76
796.75	209.75
796.93	312.14
797.111	176.98
797.291	299.86
797.471	226.13
797.652	222.03
797.832	232.27
798.012	244.56
798.192	209.75
798.373	201.55
798.553	119.64
798.733	273.23
798.913	219.99
799.093	183.12
799.274	176.98
799.454	252.75
799.634	285.52
799.814	211.79
799.994	250.71
800.174	193.36
800.354	146.26
800.534	219.99
800.714	168.79
800.894	226.13
801.074	260.95
801.254	185.17
801.434	222.03
801.614	240.47
801.794	140.12
801.974	926.54
802.154	258.9
802.334	107.35
802.514	158.55
802.693	138.07
802.873	209.75
803.053	203.6
803.233	234.32
803.413	166.74
803.592	148.31
803.772	193.36
803.952	129.88
804.131	138.07
804.311	224.08
804.491	283.47
804.67	219.99
804.85	181.07
805.03	189.27
805.209	213.84
805.389	228.18
805.568	197.46
805.748	201.55
805.928	203.6
806.107	211.79
806.287	234.32
806.466	138.07
806.646	164.69
806.825	234.32
807.004	140.12
807.184	170.83
807.363	172.88
807.543	191.31
807.722	170.83
807.901	193.36
808.081	146.26
808.26	144.21
808.439	131.92
808.619	197.46
808.798	131.92
808.977	152.4
809.156	244.56
809.336	148.31
809.515	136.02
809.694	111.44
809.873	131.92
810.052	185.17
810.231	172.88
810.411	113.49
810.59	162.64
810.769	193.36
810.948	179.03
811.127	154.45
811.306	193.36
811.485	74.58
811.664	160.59
811.843	136.02
812.022	131.92
812.201	144.21
812.38	152.4
812.559	160.59
812.737	99.16
812.916	152.4
813.095	125.78
813.274	160.59
813.453	99.16
813.632	101.2
813.811	127.83
813.989	115.54
814.168	144.21
814.347	119.64
814.526	119.64
814.704	193.36
814.883	162.64
815.062	107.35
815.24	209.75
815.419	125.78
815.598	160.59
815.776	45.91
815.955	144.21
816.133	119.64
816.312	160.59
816.49	88.92
816.669	148.31
816.847	119.64
817.026	185.17
817.204	78.68
817.383	168.79
817.561	119.64
817.74	160.59
817.918	142.16
818.097	78.68
818.275	27.48
818.453	205.65
818.632	84.82
818.81	138.07
818.988	103.25
819.167	113.49
819.345	160.59
819.523	119.64
819.701	121.68
819.879	109.4
820.058	84.82
820.236	176.98
820.414	121.68
820.592	105.3
820.77	138.07
820.948	64.34
821.127	54.1
821.305	127.83
821.483	47.96
821.661	144.21
821.839	183.12
822.017	2.9
822.195	107.35
822.373	203.6
822.551	86.87
822.729	111.44
822.907	62.29
823.085	136.02
823.262	50
823.44	164.69
823.618	29.52
823.796	129.88
823.974	88.92
824.152	7
824.329	15.19
824.507	156.5
824.685	-1.19
824.863	117.59
825.04	103.25
825.218	70.48
825.396	97.11
825.574	21.33
825.751	119.64
825.929	21.33
826.107	60.24
826.284	97.11
826.462	88.92
826.639	70.48
826.817	17.24
826.994	54.1
827.172	58.2
827.349	131.92
827.527	131.92
827.704	47.96
827.882	138.07
828.059	60.24
828.237	41.81
828.414	121.68
828.591	17.24
828.769	80.72
828.946	72.53
829.124	113.49
829.301	127.83
829.478	111.44
829.655	103.25
829.833	136.02
830.01	111.44
830.187	35.67
830.364	86.87
830.542	39.76
830.719	45.91
830.896	78.68
831.073	84.82
831.25	74.58
831.427	105.3
831.604	72.53
831.782	37.72
831.959	129.88
832.136	66.39
832.313	58.2
832.49	37.72
832.667	150.36
832.844	11.09
833.021	131.92
833.198	88.92
833.374	131.92
833.551	56.15
833.728	21.33
833.905	95.06
834.082	54.1
834.259	90.96
834.436	50
834.612	50
834.789	45.91
834.966	47.96
835.143	111.44
835.319	54.1
835.496	41.81
835.673	97.11
835.85	82.77
836.026	15.19
836.203	113.49
836.38	21.33
836.556	4.95
836.733	-15.53
836.909	37.72
837.086	86.87
837.262	37.72
837.439	86.87
837.616	-11.43
837.792	27.48
837.968	21.33
838.145	-52.39
838.321	62.29
838.498	107.35
838.674	99.16
838.851	-23.72
839.027	-25.77
839.203	84.82
839.38	72.53
839.556	-46.25
839.732	64.34
839.909	56.15
840.085	105.3
840.261	15.19
840.437	60.24
840.614	0.85
840.79	58.2
840.966	9.05
841.142	62.29
841.318	54.1
841.494	27.48
841.671	-48.3
841.847	78.68
842.023	-1.19
842.199	-11.43
842.375	58.2
842.551	-48.3
842.727	4.95
842.903	39.76
843.079	45.91
843.255	138.07
843.431	35.67
843.607	7
843.783	29.52
843.959	7
844.134	45.91
844.31	-1.19
844.486	-50.35
844.662	70.48
844.838	62.29
845.013	68.44
845.189	107.35
845.365	62.29
845.541	13.14
845.716	86.87
845.892	47.96
846.068	62.29
846.244	4.95
846.419	-19.63
846.595	29.52
846.77	4.95
846.946	37.72
847.122	-7.34
847.297	37.72
847.473	80.72
847.648	111.44
847.824	35.67
847.999	64.34
848.175	62.29
848.35	-9.39
848.526	74.58
848.701	62.29
848.876	105.3
849.052	142.16
849.227	45.91
849.403	60.24
849.578	25.43
849.753	21.33
849.929	62.29
850.104	-27.82
850.279	58.2
850.454	80.72
850.63	58.2
850.805	21.33
850.98	45.91
851.155	101.2
851.33	7
851.505	23.38
851.681	56.15
851.856	7
852.031	45.91
852.206	-17.58
852.381	-1.19
852.556	82.77
852.731	13.14
852.906	-60.59
853.081	-19.63
853.256	70.48
853.431	-13.48
853.606	-7.34
853.781	39.76
853.956	58.2
854.131	-9.39
854.305	66.39
854.48	88.92
854.655	33.62
854.83	-11.43
855.005	37.72
855.18	11.09
855.354	4.95
855.529	62.29
855.704	-1.19
855.879	37.72
856.053	-11.43
856.228	90.96
856.403	-44.2
856.577	45.91
856.752	13.14
856.926	-9.39
857.101	-11.43
857.276	39.76
857.45	29.52
857.625	15.19
857.799	13.14
857.974	54.1
858.148	-64.68
858.323	31.57
858.497	-64.68
858.672	7
858.846	-81.07
859.02	0.85
859.195	-58.54
859.369	17.24
859.543	37.72
859.718	29.52
859.892	27.48
860.066	-44.2
860.241	2.9
860.415	-11.43
860.589	-42.15
860.763	-31.91
860.938	58.2
861.112	56.15
861.286	-1.19
861.46	21.33
861.634	-3.24
861.808	33.62
861.982	-25.77
862.157	7
862.331	-74.92
862.505	-23.72
862.679	-42.15
862.853	-17.58
863.027	17.24
863.201	41.81
863.375	-17.58
863.549	58.2
863.722	-48.3
863.896	54.1
864.07	68.44
864.244	78.68
864.418	7
864.592	21.33
864.766	-3.24
864.939	31.57
865.113	62.29
865.287	7
865.461	-29.87
865.634	37.72
865.808	25.43
865.982	13.14
866.156	17.24
866.329	43.86
866.503	-15.53
866.676	29.52
866.85	-29.87
867.024	-64.68
867.197	41.81
867.371	68.44
867.544	15.19
867.718	-68.78
867.891	76.63
868.065	15.19
868.238	-33.96
868.412	-31.91
868.585	33.62
868.759	-27.82
868.932	0.85
869.105	-19.63
869.279	-17.58
869.452	4.95
869.625	17.24
869.799	25.43
869.972	-19.63
870.145	-42.15
870.319	37.72
870.492	-25.77
870.665	-1.19
870.838	29.52
871.011	19.29
871.185	2.9
871.358	2.9
871.531	54.1
871.704	-15.53
871.877	15.19
872.05	56.15
872.223	-31.91
872.396	-17.58
872.569	23.38
872.742	0.85
872.915	15.19
873.088	13.14
873.261	-36.01
873.434	41.81
873.607	39.76
873.78	13.14
873.953	47.96
874.126	37.72
874.299	-27.82
874.471	-7.34
874.644	-38.06
874.817	50
874.99	4.95
875.163	13.14
875.335	45.91
875.508	-3.24
875.681	-13.48
875.853	-36.01
876.026	45.91
876.199	-11.43
876.371	-66.73
876.544	-27.82
876.717	-64.68
876.889	43.86
877.062	-19.63
877.234	45.91
877.407	-50.35
877.579	11.09
877.752	54.1
877.924	-27.82
878.097	-13.48
878.269	56.15
878.442	21.33
878.614	43.86
878.786	31.57
878.959	15.19
879.131	-31.91
879.303	62.29
879.476	-19.63
879.648	45.91
879.82	4.95
879.993	-25.77
880.165	90.96
880.337	-38.06
880.509	7
880.681	-58.54
880.854	-60.59
881.026	9.05
881.198	99.16
881.37	-27.82
881.542	4.95
881.714	-15.53
881.886	-11.43
882.058	-42.15
882.23	21.33
882.402	-62.63
882.574	-21.67
882.746	-17.58
882.918	25.43
883.09	29.52
883.262	25.43
883.434	29.52
883.606	-64.68
883.778	52.05
883.95	9.05
884.122	-27.82
884.293	90.96
884.465	-21.67
884.637	70.48
884.809	-54.44
884.98	95.06
885.152	50
885.324	-52.39
885.496	-29.87
885.667	0.85
885.839	-3.24
886.011	41.81
886.182	-27.82
886.354	31.57
886.525	-29.87
886.697	13.14
886.869	33.62
887.04	47.96
887.212	90.96
887.383	13.14
887.555	70.48
887.726	-36.01
887.897	-19.63
888.069	-44.2
888.24	-19.63
888.412	2.9
888.583	21.33
888.754	56.15
888.926	-74.92
889.097	-1.19
889.268	13.14
889.44	54.1
889.611	-25.77
889.782	4.95
889.953	23.38
890.125	133.97
890.296	-31.91
890.467	-74.92
890.638	-9.39
890.809	9.05
890.98	-19.63
891.151	4.95
891.323	-27.82
891.494	4.95
891.665	15.19
891.836	27.48
892.007	-17.58
892.178	-9.39
892.349	-74.92
892.52	0.85
892.691	-23.72
892.862	25.43
893.032	7
893.203	-85.16
893.374	-11.43
893.545	-9.39
893.716	-42.15
893.887	-27.82
894.057	-68.78
894.228	13.14
894.399	-17.58
894.57	80.72
894.74	17.24
894.911	25.43
895.082	17.24
895.253	-25.77
895.423	-68.78
895.594	-11.43
895.764	-11.43
895.935	-23.72
896.106	17.24
896.276	-31.91
896.447	37.72
896.617	-50.35
896.788	-48.3
896.958	-17.58
897.129	-44.2
897.299	-17.58
897.47	70.48
897.64	-11.43
897.81	-13.48
897.981	7
898.151	-25.77
898.322	37.72
898.492	64.34
898.662	-56.49
898.832	21.33
899.003	0.85
899.173	66.39
899.343	9.05
899.513	-27.82
