Data from USB4F104151__120__14-31-16-960.txt Node

Date: Thu Mar 13 14:31:16 EDT 2025
User: louis
Spectrometer: USB4F10415
Trigger mode: 4
Integration Time (sec): 2.500000E-2
Scans to average: 1
Electric dark correction enabled: true
Nonlinearity correction enabled: false
Boxcar width: 0
XAxis mode: Wavelengths
Number of Pixels in Spectrum: 3648
>>>>>Begin Spectral Data<<<<<
178.204	-171.86
178.424	-171.86
178.644	-171.86
178.864	-178
179.084	-110.42
179.304	-16.21
179.524	-55.12
179.744	43.18
179.964	45.23
180.184	2.22
180.404	-5.97
180.624	-38.74
180.844	28.84
181.064	-24.4
181.283	-5.97
181.503	-28.5
181.723	55.47
181.943	-71.51
182.163	82.09
182.383	16.55
182.602	-32.6
182.822	51.37
183.042	73.9
183.262	-22.36
183.482	69.8
183.701	57.51
183.921	41.13
184.141	0.17
184.361	43.18
184.58	57.51
184.8	16.55
185.02	-55.12
185.239	53.42
185.459	63.66
185.679	84.14
185.898	-71.51
186.118	-8.02
186.338	53.42
186.557	139.43
186.777	-30.55
186.997	49.32
187.216	26.79
187.436	125.1
187.655	39.08
187.875	65.71
188.095	37.03
188.314	86.19
188.534	86.19
188.753	-8.02
188.973	94.38
189.192	45.23
189.412	2.22
189.631	-5.97
189.851	43.18
190.07	164.01
190.29	-36.69
190.509	-24.4
190.729	61.61
190.948	-3.93
191.168	73.9
191.387	108.71
191.607	57.51
191.826	45.23
192.045	61.61
192.265	69.8
192.484	20.65
192.704	8.36
192.923	98.47
193.142	96.43
193.362	94.38
193.581	41.13
193.8	28.84
194.02	75.95
194.239	-20.31
194.458	61.61
194.678	67.75
194.897	18.6
195.116	22.7
195.335	100.52
195.555	8.36
195.774	77.99
195.993	114.86
196.212	12.46
196.432	34.99
196.651	24.75
196.87	20.65
197.089	125.1
197.308	141.48
197.528	49.32
197.747	90.28
197.966	51.37
198.185	59.56
198.404	32.94
198.623	65.71
198.842	41.13
199.062	80.04
199.281	77.99
199.5	71.85
199.719	32.94
199.938	84.14
200.157	49.32
200.376	0.17
200.595	116.9
200.814	110.76
201.033	43.18
201.252	57.51
201.471	14.51
201.69	77.99
201.909	69.8
202.128	82.09
202.347	65.71
202.566	16.55
202.785	-3.93
203.004	43.18
203.223	145.58
203.442	53.42
203.661	0.17
203.879	63.66
204.098	63.66
204.317	26.79
204.536	12.46
204.755	12.46
204.974	53.42
205.193	34.99
205.411	102.57
205.63	65.71
205.849	67.75
206.068	-28.5
206.287	-12.12
206.505	28.84
206.724	-30.55
206.943	67.75
207.162	34.99
207.381	49.32
207.599	24.75
207.818	69.8
208.037	49.32
208.255	41.13
208.474	112.81
208.693	-16.21
208.911	32.94
209.13	-14.17
209.349	51.37
209.567	90.28
209.786	90.28
210.005	51.37
210.223	18.6
210.442	-61.27
210.661	14.51
210.879	-65.36
211.098	24.75
211.316	69.8
211.535	43.18
211.753	-20.31
211.972	47.27
212.191	20.65
212.409	8.36
212.628	53.42
212.846	28.84
213.065	123.05
213.283	-46.93
213.502	65.71
213.72	12.46
213.938	57.51
214.157	20.65
214.375	73.9
214.594	8.36
214.812	10.41
215.031	-44.88
215.249	77.99
215.467	24.75
215.686	-20.31
215.904	98.47
216.122	-42.84
216.341	100.52
216.559	32.94
216.778	82.09
216.996	41.13
217.214	-24.4
217.432	16.55
217.651	73.9
217.869	80.04
218.087	41.13
218.306	86.19
218.524	90.28
218.742	-38.74
218.96	82.09
219.179	4.27
219.397	43.18
219.615	82.09
219.833	84.14
220.051	-38.74
220.27	34.99
220.488	34.99
220.706	53.42
220.924	86.19
221.142	0.17
221.36	10.41
221.578	26.79
221.796	43.18
222.015	49.32
222.233	20.65
222.451	84.14
222.669	86.19
222.887	8.36
223.105	10.41
223.323	57.51
223.541	-12.12
223.759	141.48
223.977	12.46
224.195	65.71
224.413	61.61
224.631	63.66
224.849	49.32
225.067	151.72
225.285	30.89
225.503	-5.97
225.721	-8.02
225.939	102.57
226.157	24.75
226.375	213.16
226.592	0.17
226.81	-3.93
227.028	166.06
227.246	82.09
227.464	49.32
227.682	92.33
227.9	61.61
228.117	65.71
228.335	49.32
228.553	53.42
228.771	73.9
228.989	114.86
229.206	6.31
229.424	-16.21
229.642	-5.97
229.86	34.99
230.077	51.37
230.295	37.03
230.513	39.08
230.731	16.55
230.948	59.56
231.166	57.51
231.384	110.76
231.601	16.55
231.819	116.9
232.037	-3.93
232.254	49.32
232.472	65.71
232.689	4.27
232.907	-8.02
233.125	-14.17
233.342	100.52
233.56	-22.36
233.777	0.17
233.995	71.85
234.213	41.13
234.43	39.08
234.648	82.09
234.865	75.95
235.083	73.9
235.3	90.28
235.518	98.47
235.735	84.14
235.953	59.56
236.17	-5.97
236.388	65.71
236.605	41.13
236.822	86.19
237.04	49.32
237.257	10.41
237.475	-30.55
237.692	57.51
237.909	53.42
238.127	77.99
238.344	-10.07
238.562	41.13
238.779	-40.79
238.996	24.75
239.214	14.51
239.431	45.23
239.648	57.51
239.865	65.71
240.083	86.19
240.3	57.51
240.517	59.56
240.735	57.51
240.952	49.32
241.169	69.8
241.386	-10.07
241.603	34.99
241.821	-8.02
242.038	77.99
242.255	32.94
242.472	8.36
242.689	106.67
242.907	98.47
243.124	51.37
243.341	59.56
243.558	32.94
243.775	69.8
243.992	49.32
244.209	139.43
244.426	98.47
244.643	10.41
244.86	-83.8
245.078	75.95
245.295	84.14
245.512	-5.97
245.729	53.42
245.946	34.99
246.163	71.85
246.38	26.79
246.597	16.55
246.814	67.75
247.031	18.6
247.248	0.17
247.464	110.76
247.681	75.95
247.898	16.55
248.115	100.52
248.332	-28.5
248.549	8.36
248.766	96.43
248.983	73.9
249.2	16.55
249.417	61.61
249.633	22.7
249.85	104.62
250.067	86.19
250.284	-10.07
250.501	20.65
250.717	51.37
250.934	55.47
251.151	34.99
251.368	73.9
251.585	106.67
251.801	80.04
252.018	16.55
252.235	61.61
252.451	32.94
252.668	20.65
252.885	4.27
253.102	-3.93
253.318	26.79
253.535	39.08
253.752	12.46
253.968	127.14
254.185	-18.26
254.401	69.8
254.618	57.51
254.835	-40.79
255.051	92.33
255.268	-14.17
255.484	37.03
255.701	82.09
255.917	59.56
256.134	16.55
256.351	98.47
256.567	-5.97
256.784	51.37
257	67.75
257.217	49.32
257.433	90.28
257.65	18.6
257.866	123.05
258.082	-12.12
258.299	49.32
258.515	47.27
258.732	20.65
258.948	20.65
259.165	98.47
259.381	34.99
259.597	94.38
259.814	41.13
260.03	22.7
260.246	28.84
260.463	188.58
260.679	45.23
260.895	63.66
261.112	77.99
261.328	30.89
261.544	-16.21
261.761	73.9
261.977	37.03
262.193	-8.02
262.409	73.9
262.626	61.61
262.842	-32.6
263.058	77.99
263.274	-24.4
263.49	-24.4
263.707	106.67
263.923	26.79
264.139	-24.4
264.355	77.99
264.571	133.29
264.787	86.19
265.004	129.19
265.22	53.42
265.436	43.18
265.652	24.75
265.868	34.99
266.084	-18.26
266.3	32.94
266.516	-16.21
266.732	43.18
266.948	-12.12
267.164	-16.21
267.38	-12.12
267.596	57.51
267.812	84.14
268.028	10.41
268.244	45.23
268.46	49.32
268.676	65.71
268.892	16.55
269.108	63.66
269.324	2.22
269.54	-32.6
269.756	57.51
269.972	32.94
270.188	32.94
270.403	-44.88
270.619	45.23
270.835	71.85
271.051	73.9
271.267	4.27
271.483	-32.6
271.698	18.6
271.914	57.51
272.13	34.99
272.346	49.32
272.562	110.76
272.777	147.62
272.993	14.51
273.209	24.75
273.425	28.84
273.64	41.13
273.856	45.23
274.072	51.37
274.287	8.36
274.503	55.47
274.719	71.85
274.934	63.66
275.15	-8.02
275.366	-24.4
275.581	45.23
275.797	32.94
276.012	8.36
276.228	-5.97
276.444	0.17
276.659	53.42
276.875	24.75
277.09	84.14
277.306	47.27
277.521	61.61
277.737	69.8
277.952	49.32
278.168	77.99
278.383	53.42
278.599	65.71
278.814	77.99
279.03	39.08
279.245	123.05
279.461	24.75
279.676	57.51
279.892	24.75
280.107	18.6
280.322	30.89
280.538	98.47
280.753	77.99
280.969	37.03
281.184	61.61
281.399	77.99
281.615	16.55
281.83	41.13
282.045	53.42
282.26	-42.84
282.476	108.71
282.691	24.75
282.906	10.41
283.122	106.67
283.337	84.14
283.552	73.9
283.767	28.84
283.983	102.57
284.198	121
284.413	82.09
284.628	-14.17
284.843	24.75
285.058	71.85
285.274	20.65
285.489	20.65
285.704	67.75
285.919	75.95
286.134	73.9
286.349	73.9
286.564	24.75
286.779	155.82
286.995	49.32
287.21	14.51
287.425	65.71
287.64	53.42
287.855	20.65
288.07	45.23
288.285	147.62
288.5	43.18
288.715	59.56
288.93	59.56
289.145	16.55
289.36	147.62
289.575	43.18
289.79	67.75
290.004	82.09
290.219	49.32
290.434	94.38
290.649	-32.6
290.864	-5.97
291.079	133.29
291.294	32.94
291.509	77.99
291.724	26.79
291.938	32.94
292.153	67.75
292.368	65.71
292.583	39.08
292.798	57.51
293.012	22.7
293.227	149.67
293.442	8.36
293.657	59.56
293.871	84.14
294.086	34.99
294.301	125.1
294.516	69.8
294.73	118.95
294.945	24.75
295.16	2.22
295.374	51.37
295.589	77.99
295.804	18.6
296.018	116.9
296.233	141.48
296.447	86.19
296.662	0.17
296.877	75.95
297.091	61.61
297.306	57.51
297.52	133.29
297.735	16.55
297.949	51.37
298.164	82.09
298.378	41.13
298.593	59.56
298.807	32.94
299.022	73.9
299.236	49.32
299.451	98.47
299.665	49.32
299.88	59.56
300.094	24.75
300.309	49.32
300.523	28.84
300.737	57.51
300.952	86.19
301.166	-30.55
301.381	41.13
301.595	127.14
301.809	28.84
302.024	100.52
302.238	0.17
302.452	43.18
302.667	55.47
302.881	82.09
303.095	100.52
303.309	57.51
303.524	57.51
303.738	73.9
303.952	49.32
304.166	86.19
304.381	2.22
304.595	37.03
304.809	8.36
305.023	67.75
305.237	65.71
305.452	-8.02
305.666	51.37
305.88	57.51
306.094	94.38
306.308	75.95
306.522	98.47
306.736	22.7
306.95	106.67
307.164	67.75
307.379	24.75
307.593	127.14
307.807	100.52
308.021	71.85
308.235	88.23
308.449	-22.36
308.663	82.09
308.877	116.9
309.091	-42.84
309.305	57.51
309.519	-12.12
309.733	155.82
309.947	-8.02
310.161	8.36
310.374	30.89
310.588	92.33
310.802	69.8
311.016	34.99
311.23	98.47
311.444	75.95
311.658	114.86
311.872	116.9
312.085	114.86
312.299	116.9
312.513	90.28
312.727	22.7
312.941	20.65
313.154	94.38
313.368	69.8
313.582	90.28
313.796	26.79
314.009	20.65
314.223	75.95
314.437	131.24
314.651	116.9
314.864	0.17
315.078	20.65
315.292	49.32
315.505	0.17
315.719	82.09
315.933	108.71
316.146	24.75
316.36	26.79
316.573	92.33
316.787	59.56
317.001	16.55
317.214	37.03
317.428	57.51
317.641	112.81
317.855	57.51
318.068	82.09
318.282	8.36
318.495	98.47
318.709	110.76
318.922	98.47
319.136	123.05
319.349	2.22
319.563	94.38
319.776	8.36
319.99	-38.74
320.203	92.33
320.417	75.95
320.63	26.79
320.843	139.43
321.057	65.71
321.27	110.76
321.483	-8.02
321.697	24.75
321.91	32.94
322.124	123.05
322.337	69.8
322.55	106.67
322.763	41.13
322.977	-53.08
323.19	-3.93
323.403	98.47
323.617	0.17
323.83	75.95
324.043	92.33
324.256	-10.07
324.469	41.13
324.683	100.52
324.896	-75.6
325.109	2.22
325.322	-20.31
325.535	77.99
325.748	57.51
325.962	57.51
326.175	75.95
326.388	6.31
326.601	98.47
326.814	26.79
327.027	82.09
327.24	149.67
327.453	55.47
327.666	53.42
327.879	51.37
328.092	98.47
328.305	-34.64
328.518	37.03
328.731	49.32
328.944	67.75
329.157	77.99
329.37	28.84
329.583	125.1
329.796	77.99
330.009	-18.26
330.222	112.81
330.435	92.33
330.648	24.75
330.861	32.94
331.073	92.33
331.286	41.13
331.499	61.61
331.712	16.55
331.925	69.8
332.138	71.85
332.35	114.86
332.563	65.71
332.776	145.58
332.989	16.55
333.202	82.09
333.414	98.47
333.627	98.47
333.84	92.33
334.053	43.18
334.265	53.42
334.478	-3.93
334.691	86.19
334.903	88.23
335.116	24.75
335.329	41.13
335.541	28.84
335.754	118.95
335.966	123.05
336.179	47.27
336.392	41.13
336.604	24.75
336.817	133.29
337.029	67.75
337.242	65.71
337.454	32.94
337.667	77.99
337.88	180.39
338.092	73.9
338.305	77.99
338.517	41.13
338.729	4.27
338.942	77.99
339.154	32.94
339.367	92.33
339.579	84.14
339.792	24.75
340.004	123.05
340.217	-36.69
340.429	82.09
340.641	-5.97
340.854	6.31
341.066	49.32
341.278	61.61
341.491	16.55
341.703	102.57
341.915	-22.36
342.128	108.71
342.34	0.17
342.552	18.6
342.764	90.28
342.977	32.94
343.189	123.05
343.401	0.17
343.613	-28.5
343.826	90.28
344.038	102.57
344.25	86.19
344.462	12.46
344.674	114.86
344.886	14.51
345.099	57.51
345.311	98.47
345.523	73.9
345.735	-14.17
345.947	92.33
346.159	41.13
346.371	86.19
346.583	24.75
346.795	133.29
347.007	26.79
347.219	98.47
347.431	20.65
347.643	131.24
347.855	34.99
348.067	110.76
348.279	4.27
348.491	55.47
348.703	114.86
348.915	90.28
349.127	49.32
349.339	106.67
349.551	37.03
349.763	75.95
349.975	90.28
350.187	47.27
350.399	102.57
350.61	114.86
350.822	53.42
351.034	65.71
351.246	77.99
351.458	16.55
351.669	22.7
351.881	141.48
352.093	106.67
352.305	88.23
352.517	116.9
352.728	14.51
352.94	0.17
353.152	59.56
353.363	43.18
353.575	24.75
353.787	141.48
353.999	96.43
354.21	155.82
354.422	8.36
354.633	73.9
354.845	32.94
355.057	123.05
355.268	77.99
355.48	131.24
355.692	-12.12
355.903	100.52
356.115	28.84
356.326	6.31
356.538	123.05
356.749	57.51
356.961	94.38
357.172	59.56
357.384	84.14
357.595	98.47
357.807	59.56
358.018	55.47
358.23	73.9
358.441	127.14
358.653	57.51
358.864	110.76
359.075	41.13
359.287	59.56
359.498	67.75
359.709	108.71
359.921	77.99
360.132	94.38
360.344	71.85
360.555	116.9
360.766	57.51
360.977	104.62
361.189	8.36
361.4	43.18
361.611	82.09
361.823	57.51
362.034	73.9
362.245	-12.12
362.456	-32.6
362.667	149.67
362.879	90.28
363.09	-14.17
363.301	63.66
363.512	84.14
363.723	-12.12
363.935	47.27
364.146	65.71
364.357	61.61
364.568	94.38
364.779	51.37
364.99	108.71
365.201	24.75
365.412	125.1
365.623	28.84
365.834	57.51
366.045	28.84
366.256	67.75
366.467	53.42
366.678	143.53
366.889	125.1
367.1	69.8
367.311	67.75
367.522	49.32
367.733	108.71
367.944	41.13
368.155	118.95
368.366	57.51
368.577	114.86
368.788	84.14
368.999	41.13
369.209	12.46
369.42	143.53
369.631	57.51
369.842	82.09
370.053	28.84
370.264	69.8
370.474	96.43
370.685	84.14
370.896	24.75
371.107	147.62
371.317	88.23
371.528	51.37
371.739	82.09
371.95	108.71
372.16	202.92
372.371	2.22
372.582	53.42
372.792	92.33
373.003	114.86
373.214	59.56
373.424	37.03
373.635	43.18
373.846	90.28
374.056	77.99
374.267	96.43
374.477	137.38
374.688	16.55
374.898	57.51
375.109	53.42
375.319	151.72
375.53	149.67
375.74	-20.31
375.951	45.23
376.161	34.99
376.372	164.01
376.582	32.94
376.793	61.61
377.003	61.61
377.214	82.09
377.424	43.18
377.635	65.71
377.845	75.95
378.055	121
378.266	-20.31
378.476	63.66
378.686	104.62
378.897	102.57
379.107	51.37
379.317	37.03
379.528	69.8
379.738	53.42
379.948	59.56
380.158	110.76
380.369	73.9
380.579	108.71
380.789	65.71
380.999	86.19
381.21	57.51
381.42	90.28
381.63	65.71
381.84	98.47
382.05	147.62
382.261	73.9
382.471	98.47
382.681	6.31
382.891	57.51
383.101	65.71
383.311	100.52
383.521	82.09
383.731	127.14
383.941	157.86
384.151	100.52
384.361	102.57
384.571	37.03
384.781	45.23
384.991	188.58
385.201	73.9
385.411	10.41
385.621	-5.97
385.831	75.95
386.041	98.47
386.251	71.85
386.461	102.57
386.671	26.79
386.881	26.79
387.091	77.99
387.301	96.43
387.511	164.01
387.72	90.28
387.93	98.47
388.14	65.71
388.35	69.8
388.56	98.47
388.769	108.71
388.979	92.33
389.189	10.41
389.399	110.76
389.609	53.42
389.818	114.86
390.028	118.95
390.238	133.29
390.447	51.37
390.657	65.71
390.867	30.89
391.076	106.67
391.286	57.51
391.496	102.57
391.705	77.99
391.915	137.38
392.125	141.48
392.334	116.9
392.544	114.86
392.753	65.71
392.963	137.38
393.172	100.52
393.382	100.52
393.591	207.02
393.801	73.9
394.01	77.99
394.22	153.77
394.429	155.82
394.639	116.9
394.848	108.71
395.058	125.1
395.267	57.51
395.477	127.14
395.686	164.01
395.895	106.67
396.105	180.39
396.314	96.43
396.524	123.05
396.733	135.34
396.942	274.6
397.152	151.72
397.361	182.44
397.57	131.24
397.78	73.9
397.989	196.78
398.198	217.26
398.407	166.06
398.617	223.4
398.826	219.3
399.035	90.28
399.244	172.2
399.453	135.34
399.663	164.01
399.872	243.88
400.081	123.05
400.29	221.35
400.499	170.15
400.708	141.48
400.917	172.2
401.127	145.58
401.336	270.5
401.545	213.16
401.754	141.48
401.963	147.62
402.172	121
402.381	166.06
402.59	147.62
402.799	204.97
403.008	151.72
403.217	198.82
403.426	157.86
403.635	139.43
403.844	159.91
404.053	290.98
404.262	159.91
404.471	286.89
404.68	237.74
404.888	231.59
405.097	227.5
405.306	227.5
405.515	239.78
405.724	286.89
405.933	295.08
406.142	239.78
406.35	329.89
406.559	299.17
406.768	319.65
406.977	317.61
407.185	362.66
407.394	338.09
407.603	319.65
407.812	336.04
408.02	336.04
408.229	288.93
408.438	368.81
408.646	385.19
408.855	409.76
409.064	450.72
409.272	393.38
409.481	436.39
409.69	395.43
409.898	368.81
410.107	456.87
410.315	469.16
410.524	528.55
410.733	479.4
410.941	491.68
411.15	528.55
411.358	626.85
411.567	659.62
411.775	589.99
411.984	596.13
412.192	704.67
412.401	692.38
412.609	807.07
412.818	819.36
413.026	819.36
413.234	778.4
413.443	762.02
413.651	821.41
413.86	798.88
414.068	946.33
414.276	991.39
414.485	946.33
414.693	1089.69
414.901	1124.51
415.11	1015.96
415.318	1128.6
415.526	1126.55
415.734	1175.7
415.943	1288.34
416.151	1380.5
416.359	1357.97
416.567	1370.26
416.776	1372.31
416.984	1491.09
417.192	1671.31
417.4	1679.51
417.608	1613.97
417.817	1613.97
418.025	1779.86
418.233	1917.07
418.441	1857.68
418.649	1915.02
418.857	2019.47
419.065	2146.44
419.273	2017.42
419.481	2123.91
419.689	2310.28
419.897	2412.68
420.105	2396.29
420.313	2500.74
420.521	2605.19
420.729	2539.65
420.937	2631.81
421.145	2762.88
421.353	2859.14
421.561	2795.65
421.769	3172.47
421.977	3330.17
422.185	3260.54
422.393	3375.22
422.601	3573.88
422.809	3600.5
423.017	3711.09
423.224	3745.91
423.432	3924.08
423.64	3930.22
423.848	4358.25
424.056	4243.56
424.263	4630.63
424.471	4573.28
424.679	4698.21
424.887	4997.21
425.094	5079.13
425.302	5089.37
425.51	5382.23
425.718	5494.87
425.925	5458.01
426.133	5695.57
426.341	5881.94
426.548	6316.11
426.756	6275.15
426.964	6185.04
427.171	6580.29
427.379	6858.82
427.586	7106.62
427.794	7151.68
428.001	7401.53
428.209	7766.07
428.417	7565.37
428.624	8259.63
428.832	8355.88
429.039	8052.78
429.247	8235.05
429.454	8994.85
429.662	9439.26
429.869	8890.4
430.076	9642.01
430.284	9293.85
430.491	9590.81
430.699	10141.71
430.906	10332.17
431.114	10510.35
431.321	10594.31
431.528	10670.09
431.736	11321.34
431.943	12181.49
432.15	11796.47
432.358	11888.63
432.565	12531.69
432.772	12505.07
432.979	13148.13
433.187	13383.65
433.394	13225.95
433.601	14438.35
433.808	14141.39
434.016	14303.18
434.223	14741.45
434.43	15867.83
434.637	15345.6
434.844	16437.17
435.052	16547.76
435.259	16820.14
435.466	16725.93
435.673	16568.24
435.88	17764.25
436.087	18751.37
436.294	18554.77
436.501	18337.68
436.708	18571.15
436.915	19163.01
437.122	20014.97
437.329	19924.86
437.537	20533.11
437.743	20809.58
437.95	20717.42
438.157	21692.26
438.364	22648.66
438.571	22253.4
438.778	22572.88
438.985	24477.49
439.192	23537.48
439.399	24444.73
439.606	23965.5
439.813	25444.13
440.02	26963.73
440.227	26382.1
440.433	26240.79
440.64	27107.09
440.847	26613.52
441.054	27115.28
441.261	29212.4
441.467	28677.88
441.674	29409
441.881	30406.36
442.088	30176.99
442.294	29920.99
442.501	30445.27
442.708	31368.91
442.914	32753.33
443.121	33924.77
443.328	33013.43
443.534	34944.66
443.741	34555.55
443.948	33642.15
444.154	36204.16
444.361	35997.32
444.568	36138.63
444.774	36380.29
444.981	36771.45
445.187	37310.07
445.394	39331.41
445.6	38876.76
445.807	42255.91
446.013	40422.98
446.22	41168.44
446.426	43423.25
446.633	43042.33
446.839	44758.53
447.046	42753.57
447.252	45340.15
447.459	45475.32
447.665	45215.22
447.871	46634.47
448.078	48694.72
448.284	46781.92
448.491	47924.69
448.697	49319.35
448.903	50431.4
449.11	50640.29
449.316	49319.35
449.522	50845.09
449.728	52010.39
449.935	52202.89
450.141	52379.02
450.347	53366.14
450.553	51635.61
450.76	52399.5
450.966	53867.89
451.172	53497.21
451.378	55053.67
451.584	53628.28
451.791	54832.49
451.997	54699.37
452.203	55647.58
452.409	55536.99
452.615	55577.95
452.821	53312.89
453.027	52864.39
453.233	55362.91
453.44	53751.16
453.646	53941.62
453.852	54445.42
454.058	55027.04
454.264	53372.28
454.47	54570.35
454.676	53298.56
454.882	55133.54
455.088	50544.04
455.294	51056.03
455.5	52102.54
455.705	52508.04
455.911	50785.7
456.117	49874.35
456.323	49020.35
456.529	46876.13
456.735	48829.89
456.941	47291.87
457.147	47003.1
457.352	45612.53
457.558	44840.45
457.764	44824.06
457.97	43914.76
458.176	43288.09
458.381	42952.22
458.587	41238.07
458.793	40816.19
458.999	39075.41
459.204	41377.33
459.41	40754.75
459.616	37858.92
459.821	38295.14
460.027	38012.52
460.233	36963.96
460.438	35214.99
460.644	35546.76
460.85	33918.63
461.055	33113.78
461.261	33162.93
461.466	31092.43
461.672	29791.97
461.878	32345.79
462.083	30260.96
462.289	29531.88
462.494	29196.01
462.7	27535.11
462.905	27184.91
463.111	27445
463.316	28051.2
463.522	27936.51
463.727	27545.35
463.932	27262.73
464.138	27027.21
464.343	27178.76
464.549	26351.38
464.754	27113.23
464.959	26875.66
465.165	26961.68
465.37	25474.85
465.575	24940.33
465.781	25859.87
465.986	26175.26
466.191	25163.56
466.397	24837.94
466.602	23177.03
466.807	24213.31
467.012	24371
467.218	24246.07
467.423	23844.67
467.628	23867.2
467.833	25016.11
468.038	24317.75
468.244	23261
468.449	23988.03
468.654	23338.82
468.859	23297.86
469.064	23052.11
469.269	22380.37
469.474	22300.5
469.679	23066.44
469.885	22222.68
470.09	22538.07
470.295	22380.37
470.5	21643.1
470.705	21905.24
470.91	21229.41
471.115	21051.24
471.32	21776.22
471.525	21548.9
471.73	20780.91
471.935	20793.2
472.139	20049.78
472.344	20402.04
472.549	20166.52
472.754	19943.29
472.959	19654.53
473.164	19255.17
473.369	19128.2
473.574	19644.29
473.778	19292.04
473.983	19130.25
474.188	19058.57
474.393	18403.22
474.598	18657.17
474.802	18143.13
475.007	18229.14
475.212	18139.03
475.417	17565.6
475.621	17567.65
475.826	17508.26
476.031	17133.48
476.235	16764.84
476.44	17242.02
476.645	16820.14
476.849	16879.53
477.054	16490.42
477.259	16400.3
477.463	16277.43
477.668	15794.11
477.872	16003
478.077	15785.91
478.282	15626.17
478.486	15493.05
478.691	15382.46
478.895	15456.19
479.1	15323.07
479.304	15204.29
479.509	14733.26
479.713	14880.71
479.918	14839.75
480.122	14342.1
480.326	14747.59
480.531	14831.56
480.735	14639.05
480.94	14536.65
481.144	14831.56
481.348	14143.44
481.553	14165.97
481.757	14170.07
481.961	14112.72
482.166	14194.64
482.37	14405.58
482.574	14022.61
482.778	14082
482.983	14057.43
483.187	14237.65
483.391	14237.65
483.595	14022.61
483.8	13762.52
484.004	13762.52
484.208	14188.5
484.412	13856.73
484.616	14059.48
484.821	14088.15
485.025	13766.62
485.229	14106.58
485.433	13846.49
485.637	14026.71
485.841	13797.34
486.045	13739.99
486.249	13719.51
486.453	13916.12
486.657	13813.72
486.861	13942.74
487.065	13582.3
487.269	13881.3
487.473	13668.31
487.677	13836.25
487.881	13866.97
488.085	13946.84
488.289	14100.44
488.493	13975.51
488.697	14047.19
488.901	13952.98
489.105	14010.32
489.309	13991.89
489.512	14045.14
489.716	13959.13
489.92	14182.35
490.124	13846.49
490.328	14280.66
490.531	13952.98
490.735	14305.23
490.939	14213.07
491.143	13920.21
491.346	14061.52
491.55	14407.63
491.754	14305.23
491.958	14573.52
492.161	14444.49
492.365	14512.08
492.569	14319.57
492.772	14444.49
492.976	14606.28
493.18	14739.4
493.383	14739.4
493.587	15060.93
493.79	15073.22
493.994	14931.91
494.197	14995.4
494.401	15077.32
494.605	15239.11
494.808	15429.57
495.012	15620.03
495.215	15624.12
495.419	15501.25
495.622	15523.77
495.825	15876.02
496.029	15722.43
496.232	16211.89
496.436	16093.11
496.639	16113.59
496.843	16279.47
497.046	16758.7
497.249	16920.49
497.453	16801.71
497.656	17252.26
497.859	17090.47
498.063	17090.47
498.266	17289.12
498.469	17448.86
498.673	17622.94
498.876	18050.97
499.079	17934.23
499.282	17997.72
499.485	18745.23
499.689	18907.02
499.892	18677.65
500.095	18988.94
500.298	19345.28
500.501	18962.31
500.705	19500.93
500.908	19658.62
501.111	19982.2
501.314	20002.68
501.517	20418.42
501.72	20486
501.923	20293.49
502.126	21077.87
502.329	20993.9
502.532	21391.2
502.735	21294.95
502.938	21899.1
503.141	21876.57
503.344	22343.51
503.547	22357.85
503.75	22679.38
503.953	22990.67
504.156	23408.45
504.359	23523.14
504.562	23443.27
504.765	23977.79
504.968	24139.58
505.17	24342.33
505.373	24678.19
505.576	24751.92
505.779	24903.47
505.982	25388.84
506.185	25530.15
506.387	25853.73
506.59	26140.44
506.793	26543.89
506.996	26390.3
507.198	27111.18
507.401	26908.43
507.604	27254.54
507.807	27557.64
508.009	27647.75
508.212	28088.06
508.415	28043.01
508.617	28716.79
508.82	28546.81
509.022	28866.29
509.225	29400.81
509.428	29736.68
509.63	29859.56
509.833	29896.42
510.035	30650.07
510.238	30494.43
510.44	31229.65
510.643	30947.03
510.845	31407.82
511.048	31520.46
511.25	31991.49
511.453	32007.87
511.655	33631.91
511.858	33042.1
512.06	33074.87
512.262	33861.29
512.465	33482.41
512.667	33969.83
512.87	34494.11
513.072	34512.54
513.274	35223.19
513.477	35393.17
513.679	35821.19
513.881	35829.38
514.084	36361.86
514.286	36238.98
514.488	36304.51
514.69	37527.15
514.893	37385.84
515.095	37729.9
515.297	37985.9
515.499	38213.22
515.701	38606.43
515.904	38934.1
516.106	39079.51
516.308	39401.04
516.51	39833.16
516.712	39706.19
516.914	40212.04
517.116	41070.14
517.318	40820.28
517.52	41080.38
517.722	41246.26
517.925	41547.31
518.127	42395.17
518.329	42614.3
518.531	42507.81
518.733	43136.54
518.935	43267.61
519.136	43320.85
519.338	43480.6
519.54	43941.39
519.742	44170.76
519.944	44742.14
520.146	44862.97
520.348	45637.11
520.55	45270.52
520.752	45544.95
520.954	46128.62
521.155	45741.55
521.357	46237.16
521.559	46501.35
521.761	47205.85
521.963	46980.57
522.164	47637.97
522.366	47037.92
522.568	47977.93
522.77	47943.12
522.971	48248.27
523.173	48008.65
523.375	48829.89
523.576	48629.19
523.778	48657.86
523.98	48946.62
524.181	49208.76
524.383	48844.23
524.584	49796.53
524.786	49425.85
524.988	49466.81
525.189	50326.95
525.391	49999.28
525.592	50638.25
525.794	50300.33
525.995	50304.43
526.197	50845.09
526.398	50642.34
526.6	51383.71
526.801	51230.11
527.003	51443.1
527.204	51090.85
527.406	51697.05
527.607	51565.98
527.808	51752.34
528.01	50988.45
528.211	51352.99
528.412	52360.59
528.614	52362.64
528.815	51893.65
529.016	52180.37
529.218	51729.81
529.419	51918.23
529.62	51989.91
529.822	51924.37
530.023	51965.33
530.224	52241.81
530.425	51856.79
530.626	51918.23
530.828	51484.06
531.029	52815.24
531.23	51973.52
531.431	52010.39
531.632	52051.34
531.833	52114.83
532.035	52374.92
532.236	51985.81
532.437	52385.16
532.638	51703.19
532.839	52307.34
533.04	52159.89
533.241	51627.41
533.442	52782.47
533.643	52321.68
533.844	51961.23
534.045	52147.6
534.246	51508.63
534.447	52090.26
534.648	51795.35
534.849	51918.23
535.05	51860.88
535.251	51850.64
535.451	51367.32
535.652	51979.67
535.853	51821.97
536.054	52055.44
536.255	51768.72
536.456	51379.61
536.657	52155.79
536.857	51615.13
537.058	51258.78
537.259	51746.2
537.46	51942.8
537.66	51312.03
537.861	51484.06
538.062	51828.12
538.263	50955.68
538.463	51309.98
538.664	51352.99
538.865	51402.14
539.065	51533.21
539.266	50812.32
539.466	51746.2
539.667	50752.93
539.868	51557.78
540.068	50851.23
540.269	50879.91
540.469	51271.07
540.67	50623.91
540.87	50922.91
541.071	50838.95
541.271	50855.33
541.472	50963.87
541.672	50527.66
541.873	50468.26
542.073	50363.82
542.274	50859.43
542.474	50711.97
542.675	50216.36
542.875	51131.81
543.075	50859.43
543.276	50228.65
543.476	50671.01
543.676	50007.47
543.877	50472.36
544.077	50539.94
544.277	50740.64
544.478	50679.21
544.678	50789.8
544.878	50707.88
545.078	50165.17
545.279	50435.5
545.479	50156.97
545.679	50429.35
545.879	50711.97
546.079	50267.56
546.28	50384.3
546.48	50179.5
546.68	50312.62
546.88	50703.78
547.08	50533.8
547.28	50294.19
547.48	49718.71
547.68	49999.28
547.88	50009.52
548.081	50572.71
548.281	50271.66
548.481	49687.99
548.681	50697.64
548.881	50750.88
549.081	50214.32
549.28	50050.48
549.48	50578.85
549.68	50318.76
549.88	50380.2
550.08	49757.62
550.28	50406.83
550.48	49958.32
550.68	50632.1
550.88	49771.96
551.08	50214.32
551.279	50296.24
551.479	49950.13
551.679	50451.88
551.879	49946.03
552.079	50367.91
552.278	50310.57
552.478	50447.78
552.678	49878.45
552.878	50517.42
553.077	50101.68
553.277	49753.52
553.477	50554.28
553.676	50054.57
553.876	50023.86
554.076	49905.07
554.275	50066.86
554.475	49786.29
554.674	50146.73
554.874	50468.26
555.074	50353.58
555.273	50210.22
555.473	50179.5
555.672	49845.68
555.872	49864.11
556.071	50126.25
556.271	50433.45
556.47	50410.92
556.67	50222.51
556.869	50025.9
557.068	50374.06
557.268	49798.58
557.467	50113.97
557.667	49917.36
557.866	50189.74
558.065	50216.36
558.265	50365.87
558.464	49747.38
558.663	50568.62
558.863	49366.46
559.062	50451.88
559.261	49933.74
559.461	50173.36
559.66	50228.65
559.859	50154.93
560.058	49552.82
560.258	50130.35
560.457	49808.82
560.656	50591.14
560.855	50140.59
561.054	50030
561.253	49513.91
561.453	50367.91
561.652	49997.23
561.851	50281.9
562.05	49821.11
562.249	49126.85
562.448	50116.01
562.647	50058.67
562.846	49438.14
563.045	49864.11
563.244	49173.95
563.443	50066.86
563.642	49223.1
563.841	49497.53
564.04	49161.66
564.239	49845.68
564.438	49311.16
564.637	49751.48
564.836	49173.95
565.035	48967.1
565.234	49163.71
565.432	49339.83
565.631	48811.46
565.83	49569.21
566.029	49204.67
566.228	48729.54
566.427	48778.69
566.625	48485.83
566.824	48451.02
567.023	48657.86
567.222	48344.52
567.42	48432.58
567.619	48821.7
567.818	48393.67
568.016	48416.2
568.215	48633.28
568.414	48156.11
568.612	48575.94
568.811	48221.64
569.01	48014.8
569.208	47680.98
569.407	48111.05
569.605	47582.68
569.804	47945.17
570.002	47789.52
570.201	47498.71
570.4	47300.06
570.598	47431.13
570.797	47343.06
570.995	47300.06
571.193	47050.2
571.392	47267.29
571.59	47005.15
571.789	47177.18
571.987	46798.3
572.186	46806.5
572.384	46687.71
572.582	46859.74
572.781	46429.67
572.979	45833.71
573.177	46755.3
573.376	46456.29
573.574	45964.78
573.772	46499.3
573.971	46013.93
574.169	46048.75
574.367	45864.43
574.565	46228.97
574.763	45927.92
574.962	45788.66
575.16	44783.1
575.358	45434.36
575.556	44963.32
575.754	45585.91
575.952	45135.35
576.151	45202.94
576.349	44406.28
576.547	45250.04
576.745	44707.33
576.943	44629.51
577.141	44680.7
577.339	44639.75
577.537	44144.14
577.735	44414.47
577.933	44281.35
578.131	44447.24
578.329	43451.92
578.527	44107.27
578.725	43939.34
578.923	44176.9
579.121	43636.24
579.319	43527.7
579.516	43726.35
579.714	43365.91
579.912	42931.74
580.11	43234.84
580.308	43249.17
580.506	42704.42
580.704	42262.05
580.901	42946.08
581.099	42825.25
581.297	42642.98
581.495	42454.56
581.692	43021.85
581.89	42188.33
582.088	42343.97
582.285	42100.26
582.483	42419.75
582.681	42018.35
582.878	41995.82
583.076	41608.75
583.274	41948.71
583.471	41008.7
583.669	41494.07
583.866	41403.95
584.064	41834.03
584.262	41057.85
584.459	41195.06
584.657	41039.42
584.854	41506.35
585.052	40482.37
585.249	40812.09
585.447	40926.78
585.644	40361.54
585.841	40603.2
586.039	41086.52
586.236	40027.72
586.434	39933.51
586.631	40019.53
586.828	39824.97
587.026	40134.21
587.223	39628.37
587.42	39687.76
587.618	39867.98
587.815	39704.14
588.012	39200.34
588.21	39419.47
588.407	39724.62
588.604	38989.4
588.801	39067.22
588.999	38850.14
589.196	38854.23
589.393	38977.11
589.59	38657.63
589.787	38489.7
589.984	38555.23
590.182	38153.83
590.379	38839.9
590.576	38317.67
590.773	38432.35
590.97	38286.95
591.167	38436.45
591.364	37361.26
591.561	37805.67
591.758	37447.28
591.955	37406.32
592.152	37949.03
592.349	37623.4
592.546	37772.91
592.743	37858.92
592.94	37219.95
593.137	37232.24
593.334	37289.59
593.531	36699.77
593.727	37293.68
593.924	36683.39
594.121	36718.2
594.318	36873.85
594.515	36580.99
594.712	36748.92
594.908	36564.6
595.105	36779.64
595.302	36191.87
595.499	36415.1
595.696	36527.74
595.892	36236.93
596.089	36400.77
596.286	36136.58
596.482	36193.92
596.679	36490.88
596.876	36177.54
597.072	35856.01
597.269	36095.62
597.466	35798.66
597.662	35681.93
597.859	35595.92
598.055	35681.93
598.252	35733.13
598.448	35739.27
598.645	35731.08
598.841	35655.31
599.038	35341.97
599.234	35468.94
599.431	34971.29
599.627	35532.43
599.824	35364.5
600.02	35223.19
600.217	34932.37
600.413	34662.04
600.609	35100.31
600.806	35020.44
601.002	35159.7
601.198	34576.03
601.395	34504.35
601.591	35047.06
601.787	34766.49
601.984	34217.63
602.18	34950.81
602.376	34475.68
602.572	34457.24
602.769	34801.3
602.965	34080.42
603.161	34862.74
603.357	34141.86
603.553	34469.53
603.75	34451.1
603.946	34420.38
604.142	34578.08
604.338	34004.64
604.534	34152.1
604.73	34166.43
604.926	34051.75
605.122	34098.85
605.318	33824.42
605.514	33844.9
605.71	34131.62
605.906	34018.98
606.102	33816.23
606.298	34371.23
606.494	33791.66
606.69	33826.47
606.886	34121.38
607.082	33650.35
607.278	34301.6
607.474	33535.66
607.67	33887.91
607.866	33212.08
608.062	34174.63
608.257	33623.72
608.453	34186.91
608.649	34219.68
608.845	33572.52
609.041	33713.83
609.236	33668.78
609.432	33742.5
609.628	33662.63
609.824	33795.75
610.019	33511.08
610.215	33711.78
610.411	33597.1
610.606	33904.29
610.802	34004.64
610.998	33658.54
611.193	33840.81
611.389	33861.29
611.584	33578.67
611.78	33672.87
611.976	33552.04
612.171	33769.13
612.367	33928.87
612.562	33623.72
612.758	33316.53
612.953	33523.37
613.149	33857.19
613.344	33472.17
613.539	33562.28
613.735	33466.03
613.93	33543.85
614.126	33142.45
614.321	33740.46
614.517	33504.94
614.712	33787.56
614.907	33355.44
615.103	33685.16
615.298	32999.09
615.493	33777.32
615.688	32804.53
615.884	33795.75
616.079	33298.09
616.274	33597.1
616.47	33457.84
616.665	33441.45
616.86	32962.23
617.055	32980.66
617.25	32868.02
617.445	33281.71
617.641	32788.15
617.836	33216.18
618.031	32708.28
618.226	33162.93
618.421	32601.79
618.616	32741.05
618.811	32532.15
619.006	32943.8
619.201	32118.46
619.396	32540.35
619.591	31897.28
619.786	32335.55
619.981	31915.72
620.176	32169.66
620.371	31624.9
620.566	32157.38
620.761	31581.9
620.956	31866.56
621.151	30887.64
621.346	31446.73
621.541	31151.82
621.735	31319.76
621.93	30760.66
622.125	30990.03
622.32	30418.65
622.515	30772.95
622.709	30482.14
622.904	30310.11
623.099	30465.75
623.294	30465.75
623.488	29994.72
623.683	30195.42
623.878	29863.65
624.072	29787.88
624.267	29791.97
624.462	29155.05
624.656	29206.25
624.851	29368.04
625.046	29030.13
625.24	29011.7
625.435	28548.86
625.629	28532.47
625.824	28403.45
626.018	28151.55
626.213	27651.84
626.407	28325.63
626.602	27678.47
626.796	27959.04
626.991	27850.5
627.185	27887.36
627.38	27303.69
627.574	27162.38
627.768	26746.64
627.963	26795.79
628.157	26851.09
628.352	27111.18
628.546	26453.78
628.74	26701.59
628.935	26095.39
629.129	26597.14
629.323	26146.59
629.517	26025.76
629.712	25900.83
629.906	25751.33
630.1	25534.25
630.294	25773.86
630.489	25251.63
630.683	25343.78
630.877	24782.64
631.071	24985.39
631.265	25012.01
631.459	24782.64
631.653	24657.71
631.848	24313.66
632.042	24481.59
632.236	24489.78
632.43	23899.97
632.624	24166.2
632.818	23754.56
633.012	23920.45
633.206	23408.45
633.4	23904.06
633.594	23517
633.788	23283.53
633.982	23091.02
634.176	23064.39
634.369	23349.06
634.563	23361.35
634.757	22945.61
634.951	23043.92
635.145	22712.14
635.339	22626.13
635.533	22437.72
635.726	22460.24
635.92	22058.84
636.114	22206.3
636.308	22040.41
636.501	21739.36
636.695	22048.6
636.889	21653.34
637.083	21282.66
637.276	21309.29
637.47	21180.26
637.664	21094.25
637.857	20967.27
638.051	20852.59
638.244	20817.77
638.438	20633.46
638.632	20627.31
638.825	20619.12
639.019	20322.16
639.212	20117.37
639.406	20199.29
639.599	20008.83
639.793	20205.43
639.986	19793.79
640.18	19763.07
640.373	19810.17
640.567	19523.46
640.76	19511.17
640.954	19124.1
641.147	19265.41
641.34	19093.38
641.534	19031.94
641.727	19173.25
641.92	18673.55
642.114	18800.52
642.307	18763.66
642.5	18831.24
642.694	18122.65
642.887	18179.99
643.08	18286.48
643.273	17852.31
643.467	18163.61
643.66	17997.72
643.853	17682.33
644.046	17549.21
644.239	17401.76
644.432	17383.33
644.626	17291.17
644.819	17170.34
645.012	17252.26
645.205	17072.04
645.398	17004.46
645.591	16811.95
645.784	16967.59
645.977	16693.16
646.17	16723.88
646.363	16396.21
646.556	16222.13
646.749	16447.41
646.942	16271.28
647.135	16115.64
647.328	16009.14
647.521	15935.42
647.714	15656.89
647.907	15914.94
648.099	15869.88
648.292	15769.53
648.485	15478.72
648.678	15241.15
648.871	15382.46
649.064	15222.72
649.256	15370.18
649.449	14864.33
649.642	15208.39
649.835	14618.57
650.027	14831.56
650.22	14569.42
650.413	14782.41
650.605	14639.05
650.798	14335.95
650.991	14401.49
651.183	14233.55
651.376	14190.55
651.568	14294.99
651.761	14098.39
651.954	14014.42
652.146	13899.73
652.339	13885.4
652.531	14116.82
652.724	13731.8
652.916	13715.42
653.109	13594.59
653.301	13606.88
653.494	13787.1
653.686	13328.35
653.879	13555.68
654.071	13320.16
654.263	13223.9
654.456	13221.86
654.648	13342.69
654.84	12881.89
655.033	12898.28
655.225	12828.65
655.417	12781.54
655.61	12849.13
655.802	12787.69
655.994	12734.44
656.186	12732.39
656.379	12287.98
656.571	12779.5
656.763	12099.57
656.955	12290.03
657.148	12105.71
657.34	12210.16
657.532	12103.67
657.724	12144.63
657.916	12103.67
658.108	11692.02
658.3	11839.48
658.492	11864.05
658.684	11569.15
658.876	11378.69
659.068	11608.06
659.26	11436.03
659.452	11354.11
659.644	11270.14
659.836	11233.28
660.028	11200.51
660.22	11188.22
660.412	11204.61
660.604	11130.88
660.796	11153.41
660.988	10893.32
661.18	10903.56
661.372	10913.8
661.563	10971.14
661.755	10602.5
661.947	10756.1
662.139	10752.01
662.331	10491.91
662.522	10610.7
662.714	10526.73
662.906	10194.96
663.097	10475.53
663.289	10420.24
663.481	10266.64
663.673	10110.99
663.864	10256.4
664.056	10160.14
664.247	10090.51
664.439	10010.64
664.631	10162.19
664.822	9871.38
665.014	9926.68
665.205	9855
665.397	9578.52
665.588	9682.97
665.78	9711.64
665.971	9576.47
666.163	9625.62
666.354	9562.14
666.546	9359.39
666.737	9185.31
666.929	9535.51
667.12	9412.64
667.311	9236.51
667.503	9256.99
667.694	9396.25
667.885	9097.25
668.077	9007.14
668.268	8904.74
668.459	8964.13
668.651	9044
668.842	8892.45
669.033	8845.35
669.224	8880.16
669.416	8904.74
669.607	8783.91
669.798	8693.8
669.989	8779.81
670.18	8720.42
670.371	8626.22
670.563	8652.84
670.754	8482.86
670.945	8497.19
671.136	8527.91
671.327	8546.34
671.518	8343.6
671.709	8402.99
671.9	8362.03
672.091	8278.06
672.282	8323.12
672.473	8200.24
672.664	8290.35
672.855	8142.89
673.046	8265.77
673.237	8263.72
673.428	8056.88
673.619	8128.56
673.809	8007.73
674	7923.76
674.191	7925.81
674.382	7977.01
674.573	8167.47
674.764	7790.64
674.954	7931.95
675.145	7757.88
675.336	7868.47
675.527	7643.19
675.717	7602.23
675.908	7637.05
676.099	7759.92
676.289	7684.15
676.48	7546.94
676.671	7538.74
676.861	7651.38
677.052	7559.22
677.243	7456.82
677.433	7585.85
677.624	7571.51
677.814	7432.25
678.005	7440.44
678.195	7514.17
678.386	7415.87
678.576	7172.16
678.767	7360.57
678.957	7284.8
679.148	7368.76
679.338	7053.38
679.529	7235.64
679.719	7127.1
679.909	7143.49
680.1	7321.66
680.29	7235.64
680.481	7213.12
680.671	7252.03
680.861	7131.2
681.052	7227.45
681.242	7139.39
681.432	7063.61
681.622	7086.14
681.813	7073.85
682.003	7202.88
682.193	7118.91
682.383	7077.95
682.573	7155.77
682.764	7100.48
682.954	6778.95
683.144	6877.25
683.334	6993.98
683.524	6758.47
683.714	6998.08
683.904	6828.1
684.094	6836.29
684.284	6832.19
684.474	6725.7
684.664	6877.25
684.854	6850.63
685.044	6811.71
685.234	6627.4
685.424	6791.24
685.614	6776.9
685.804	6787.14
685.994	6762.56
686.184	6817.86
686.374	6725.7
686.564	6490.18
686.753	6545.48
686.943	6283.34
687.133	6596.68
687.323	6484.04
687.513	6651.97
687.702	6551.62
687.892	6246.48
688.082	6369.35
688.272	6389.83
688.461	6266.96
688.651	6381.64
688.841	6223.95
689.03	6391.88
689.22	6242.38
689.41	6062.16
689.599	6295.63
689.789	6252.62
689.979	6359.11
690.168	6082.64
690.358	6043.73
690.547	6318.15
690.737	5984.34
690.926	6072.4
691.116	5908.56
691.305	6154.32
691.495	5974.1
691.684	5883.98
691.874	5869.65
692.063	5906.51
692.252	5824.59
692.442	5890.13
692.631	5777.49
692.82	5742.68
693.01	5840.98
693.199	5795.92
693.388	5746.77
693.578	5750.87
693.767	5810.26
693.956	5689.43
694.146	5613.65
694.335	5646.42
694.524	5754.96
694.713	5677.14
694.902	5648.47
695.092	5595.22
695.281	5505.11
695.47	5593.17
695.659	5511.25
695.848	5341.27
696.037	5472.34
696.226	5441.62
696.415	5382.23
696.604	5558.36
696.793	5249.11
696.982	5501.01
697.171	5503.06
697.36	5470.3
697.549	5285.98
697.738	5177.44
697.927	5208.16
698.116	5279.83
698.305	5376.09
698.494	5328.99
698.683	5257.31
698.872	5300.31
699.061	4982.88
699.25	5187.68
699.438	5195.87
699.627	5234.78
699.816	5113.95
700.005	5025.89
700.193	5017.69
700.382	5148.76
700.571	5095.52
700.76	5040.22
700.948	4960.35
701.137	4927.58
701.326	5027.93
701.514	4986.97
701.703	4968.54
701.892	4958.3
702.08	5023.84
702.269	4960.35
702.457	4923.49
702.646	4915.3
702.834	4794.47
703.023	4780.13
703.212	4915.3
703.4	4640.87
703.589	4710.5
703.777	4778.08
703.965	4571.24
704.154	4735.07
704.342	4644.96
704.531	4714.59
704.719	4550.76
704.907	4712.55
705.096	4493.41
705.284	4743.27
705.472	4708.45
705.661	4726.88
705.849	4628.58
706.037	4647.01
706.226	4522.09
706.414	4534.37
706.602	4442.21
706.79	4532.33
706.979	4391.02
707.167	4419.69
707.355	4468.84
707.543	4456.55
707.731	4464.74
707.919	4325.48
708.107	4374.63
708.296	4309.1
708.484	4186.22
708.672	4337.77
708.86	4448.36
709.048	4300.91
709.236	4227.18
709.424	4294.76
709.612	4309.1
709.8	4298.86
709.988	4350.06
710.176	4290.67
710.364	4130.92
710.551	4280.43
710.739	4251.75
710.927	4245.61
711.115	4212.84
711.303	4153.45
711.491	4161.64
711.679	4124.78
711.866	4208.75
712.054	4210.79
712.242	3952.75
712.43	4186.22
712.617	3944.56
712.805	4059.24
712.993	3858.54
713.181	3917.93
713.368	3915.89
713.556	3915.89
713.744	3854.45
713.931	4022.38
714.119	3807.34
714.306	3901.55
714.494	3887.22
714.682	3940.46
714.869	3829.87
715.057	3836.02
715.244	3756.15
715.432	3860.59
715.619	3887.22
715.807	3852.4
715.994	3752.05
716.182	3752.05
716.369	3883.12
716.556	3739.76
716.744	3653.75
716.931	3778.67
717.119	3670.13
717.306	3762.29
717.493	3692.66
717.681	3678.32
717.868	3776.63
718.055	3690.61
718.242	3639.41
718.43	3727.47
718.617	3694.71
718.804	3768.43
718.991	3717.23
719.179	3580.02
719.366	3614.84
719.553	3645.56
719.74	3557.49
719.927	3569.78
720.114	3620.98
720.301	3682.42
720.488	3526.77
720.676	3575.92
720.863	3551.35
721.05	3616.88
721.237	3563.64
721.424	3494.01
721.611	3426.42
721.798	3211.39
721.985	3350.65
722.172	3631.22
722.358	3319.93
722.545	3489.91
722.732	3297.4
722.919	3463.29
723.106	3287.16
723.293	3252.35
723.48	3252.35
723.667	3221.63
723.853	3260.54
724.04	3375.22
724.227	3336.31
724.414	3186.81
724.6	3350.65
724.787	3309.69
724.974	3471.48
725.161	3260.54
725.347	3170.43
725.534	3326.07
725.72	3084.41
725.907	3221.63
726.094	3176.57
726.28	3285.11
726.467	3127.42
726.653	3145.85
726.84	3186.81
727.027	3242.11
727.213	3057.79
727.4	3121.28
727.586	3137.66
727.773	3223.67
727.959	3160.19
728.145	3096.7
728.332	3121.28
728.518	3049.6
728.705	3022.97
728.891	3033.21
729.077	3102.84
729.264	3031.16
729.45	2998.4
729.636	3113.08
729.823	2928.77
730.009	2990.21
730.195	2959.49
730.382	2867.33
730.568	2959.49
730.754	3090.56
730.94	2900.09
731.126	3057.79
731.313	2941.05
731.499	3022.97
731.685	3000.44
731.871	3002.49
732.057	2955.39
732.243	2914.43
732.429	2883.71
732.615	2920.57
732.801	2891.9
732.987	2859.14
733.173	2881.66
733.359	2797.7
733.545	2904.19
733.731	2912.38
733.917	2834.56
734.103	2797.7
734.289	2908.29
734.475	2809.98
734.661	2852.99
734.847	2953.34
735.033	2848.9
735.219	2809.98
735.404	2773.12
735.59	2703.49
735.776	2670.72
735.962	2826.37
736.148	2805.89
736.333	2752.64
736.519	2717.83
736.705	2752.64
736.89	2752.64
737.076	2697.35
737.262	2674.82
737.447	2660.48
737.633	2621.57
737.819	2703.49
738.004	2676.87
738.19	2703.49
738.375	2650.24
738.561	2691.2
738.747	2537.6
738.932	2689.15
739.118	2738.3
739.303	2623.62
739.489	2670.72
739.674	2506.88
739.859	2345.09
740.045	2564.23
740.23	2531.46
740.416	2435.21
740.601	2588.8
740.786	2400.39
740.972	2494.6
741.157	2553.99
741.342	2461.83
741.528	2427.01
741.713	2562.18
741.898	2484.36
742.084	2369.67
742.269	2330.76
742.454	2482.31
742.639	2416.77
742.824	2363.53
743.01	2320.52
743.195	2449.54
743.38	2445.45
743.565	2269.32
743.75	2447.49
743.935	2289.8
744.12	2373.77
744.305	2334.86
744.49	2326.66
744.675	2238.6
744.86	2306.18
745.045	2220.17
745.23	2248.84
745.415	2269.32
745.6	2265.22
745.785	2238.6
745.97	2195.59
746.155	2156.68
746.34	2105.48
746.525	2195.59
746.71	2332.81
746.895	2142.35
747.079	2187.4
747.264	2113.67
747.449	2093.19
747.634	2076.81
747.819	2216.07
748.003	2168.97
748.188	1941.65
748.373	1986.7
748.557	2187.4
748.742	2080.91
748.927	1912.97
749.111	1960.08
749.296	1960.08
749.481	2011.28
749.665	2060.43
749.85	1867.92
750.034	1890.45
750.219	1951.88
750.404	1822.86
750.588	1861.77
750.773	1712.27
750.957	1857.68
751.141	1917.07
751.326	1763.47
751.51	1773.71
751.695	1845.39
751.879	1835.15
752.064	1786
752.248	1812.62
752.432	1806.48
752.617	1867.92
752.801	1831.05
752.985	1720.46
753.17	1867.92
753.354	1656.98
753.538	1736.85
753.722	1654.93
753.907	1663.12
754.091	1640.59
754.275	1714.32
754.459	1659.03
754.643	1548.44
754.828	1616.02
755.012	1589.39
755.196	1607.83
755.38	1609.87
755.564	1493.14
755.748	1642.64
755.932	1544.34
756.116	1499.28
756.3	1556.63
756.484	1409.17
756.668	1493.14
756.852	1470.61
757.036	1446.04
757.22	1470.61
757.404	1562.77
757.588	1376.41
757.772	1515.67
757.956	1368.21
758.14	1517.72
758.323	1534.1
758.507	1403.03
758.691	1425.56
758.875	1433.75
759.059	1437.84
759.242	1345.69
759.426	1413.27
759.61	1368.21
759.794	1304.73
759.977	1335.45
760.161	1384.6
760.345	1368.21
760.528	1265.82
760.712	1194.14
760.895	1231
761.079	1335.45
761.263	1271.96
761.446	1335.45
761.63	1286.3
761.813	1245.34
761.997	1286.3
762.18	1271.96
762.364	1198.23
762.547	1224.86
762.731	1247.38
762.914	1204.38
763.098	1228.95
763.281	1136.79
763.464	1263.77
763.648	1142.94
763.831	1151.13
764.015	1220.76
764.198	1263.77
764.381	1224.86
764.564	1140.89
764.748	1155.23
764.931	1075.35
765.114	1089.69
765.297	1081.5
765.481	1071.26
765.664	1142.94
765.847	1097.88
766.03	1110.17
766.213	1075.35
766.397	1120.41
766.58	1048.73
766.763	1081.5
766.946	1140.89
767.129	1159.32
767.312	1067.16
767.495	1138.84
767.678	1097.88
767.861	1165.46
768.044	1085.59
768.227	1128.6
768.41	1091.74
768.593	1048.73
768.776	1036.44
768.959	1011.87
769.142	1134.75
769.324	1044.63
769.507	981.15
769.69	1073.31
769.873	1015.96
770.056	1122.46
770.239	1005.72
770.421	993.44
770.604	991.39
770.787	1065.11
770.97	927.9
771.152	960.67
771.335	1087.64
771.518	927.9
771.7	991.39
771.883	993.44
772.066	968.86
772.248	989.34
772.431	913.56
772.613	991.39
772.796	911.52
772.978	878.75
773.161	919.71
773.343	878.75
773.526	917.66
773.708	911.52
773.891	936.09
774.073	927.9
774.256	843.93
774.438	991.39
774.621	985.24
774.803	876.7
774.985	942.24
775.168	893.09
775.35	917.66
775.532	903.32
775.715	772.25
775.897	807.07
776.079	737.44
776.261	811.17
776.444	874.65
776.626	802.97
776.808	919.71
776.99	714.91
777.173	827.55
777.355	837.79
777.537	823.45
777.719	796.83
777.901	735.39
778.083	704.67
778.265	747.68
778.447	753.82
778.629	802.97
778.811	698.53
778.993	870.56
779.175	716.96
779.357	796.83
779.539	682.14
779.721	745.63
779.903	819.36
780.085	737.44
780.267	635.04
780.449	714.91
780.631	731.3
780.812	774.3
780.994	667.81
781.176	622.75
781.358	696.48
781.54	618.66
781.721	610.47
781.903	733.34
782.085	643.23
782.267	622.75
782.448	608.42
782.63	659.62
782.812	676
782.993	655.52
783.175	659.62
783.357	559.27
783.538	645.28
783.72	573.6
783.901	600.23
784.083	669.86
784.264	567.46
784.446	514.21
784.627	514.21
784.809	696.48
784.99	520.35
785.172	549.03
785.353	575.65
785.535	520.35
785.716	532.64
785.897	557.22
786.079	563.36
786.26	614.56
786.441	567.46
786.623	444.58
786.804	571.55
786.985	524.45
787.167	542.88
787.348	415.91
787.529	467.11
787.71	508.07
787.891	444.58
788.073	444.58
788.254	405.67
788.435	534.69
788.616	467.11
788.797	422.05
788.978	540.83
789.159	401.57
789.34	409.76
789.522	516.26
789.703	495.78
789.884	471.2
790.065	467.11
790.246	430.24
790.427	413.86
790.607	503.97
790.788	452.77
790.969	458.92
791.15	417.96
791.331	399.52
791.512	403.62
791.693	379.04
791.874	438.44
792.054	430.24
792.235	467.11
792.416	387.24
792.597	428.2
792.778	434.34
792.958	450.72
793.139	417.96
793.32	393.38
793.5	403.62
793.681	409.76
793.862	303.27
794.042	385.19
794.223	333.99
794.404	338.09
794.584	360.61
794.765	288.93
794.945	303.27
795.126	428.2
795.306	389.28
795.487	286.89
795.667	313.51
795.848	329.89
796.028	338.09
796.209	360.61
796.389	321.7
796.57	426.15
796.75	258.21
796.93	385.19
797.111	315.56
797.291	399.52
797.471	379.04
797.652	331.94
797.832	346.28
798.012	331.94
798.192	303.27
798.373	346.28
798.553	272.55
798.733	317.61
798.913	319.65
799.093	299.17
799.274	282.79
799.454	303.27
799.634	360.61
799.814	229.54
799.994	303.27
800.174	307.37
800.354	303.27
800.534	295.08
800.714	284.84
800.894	346.28
801.074	188.58
801.254	270.5
801.434	286.89
801.614	278.69
801.794	221.35
801.974	888.99
802.154	196.78
802.334	338.09
802.514	262.31
802.693	270.5
802.873	256.17
803.053	290.98
803.233	229.54
803.413	213.16
803.592	303.27
803.772	262.31
803.952	235.69
804.131	260.26
804.311	303.27
804.491	270.5
804.67	247.97
804.85	262.31
805.03	270.5
805.209	290.98
805.389	229.54
805.568	229.54
805.748	272.55
805.928	274.6
806.107	299.17
806.287	229.54
806.466	235.69
806.646	239.78
806.825	241.83
807.004	256.17
807.184	204.97
807.363	344.23
807.543	166.06
807.722	168.1
807.901	237.74
808.081	237.74
808.26	166.06
808.439	256.17
808.619	151.72
808.798	194.73
808.977	174.25
809.156	245.93
809.336	254.12
809.515	247.97
809.694	104.62
809.873	166.06
810.052	110.76
810.231	114.86
810.411	221.35
810.59	288.93
810.769	213.16
810.948	198.82
811.127	77.99
811.306	204.97
811.485	204.97
811.664	221.35
811.843	172.2
812.022	180.39
812.201	188.58
812.38	131.24
812.559	147.62
812.737	139.43
812.916	131.24
813.095	217.26
813.274	153.77
813.453	108.71
813.632	164.01
813.811	250.02
813.989	174.25
814.168	131.24
814.347	213.16
814.526	245.93
814.704	288.93
814.883	176.3
815.062	149.67
815.24	204.97
815.419	141.48
815.598	229.54
815.776	161.96
815.955	172.2
816.133	37.03
816.312	211.11
816.49	123.05
816.669	133.29
816.847	147.62
817.026	135.34
817.204	30.89
817.383	149.67
817.561	102.57
817.74	231.59
817.918	108.71
818.097	129.19
818.275	155.82
818.453	196.78
818.632	155.82
818.81	157.86
818.988	147.62
819.167	172.2
819.345	145.58
819.523	159.91
819.701	180.39
819.879	213.16
820.058	159.91
820.236	178.34
820.414	94.38
820.592	174.25
820.77	161.96
820.948	194.73
821.127	215.21
821.305	84.14
821.483	131.24
821.661	164.01
821.839	172.2
822.017	155.82
822.195	43.18
822.373	141.48
822.551	135.34
822.729	108.71
822.907	180.39
823.085	131.24
823.262	166.06
823.44	151.72
823.618	170.15
823.796	98.47
823.974	84.14
824.152	114.86
824.329	149.67
824.507	139.43
824.685	213.16
824.863	121
825.04	114.86
825.218	186.54
825.396	135.34
825.574	86.19
825.751	129.19
825.929	164.01
826.107	114.86
826.284	161.96
826.462	69.8
826.639	32.94
826.817	65.71
826.994	157.86
827.172	94.38
827.349	221.35
827.527	102.57
827.704	213.16
827.882	131.24
828.059	131.24
828.237	49.32
828.414	118.95
828.591	80.04
828.769	145.58
828.946	82.09
829.124	178.34
829.301	159.91
829.478	59.56
829.655	143.53
829.833	14.51
830.01	112.81
830.187	131.24
830.364	147.62
830.542	114.86
830.719	98.47
830.896	125.1
831.073	135.34
831.25	75.95
831.427	77.99
831.604	90.28
831.782	41.13
831.959	159.91
832.136	116.9
832.313	116.9
832.49	24.75
832.667	94.38
832.844	75.95
833.021	200.87
833.198	88.23
833.374	108.71
833.551	100.52
833.728	69.8
833.905	100.52
834.082	43.18
834.259	84.14
834.436	151.72
834.612	4.27
834.789	114.86
834.966	84.14
835.143	57.51
835.319	80.04
835.496	139.43
835.673	133.29
835.85	100.52
836.026	96.43
836.203	112.81
836.38	141.48
836.556	118.95
836.733	100.52
836.909	155.82
837.086	96.43
837.262	118.95
837.439	37.03
837.616	75.95
837.792	51.37
837.968	155.82
838.145	16.55
838.321	168.1
838.498	69.8
838.674	49.32
838.851	86.19
839.027	71.85
839.203	108.71
839.38	153.77
839.556	125.1
839.732	69.8
839.909	4.27
840.085	125.1
840.261	49.32
840.437	90.28
840.614	118.95
840.79	123.05
840.966	65.71
841.142	190.63
841.318	86.19
841.494	41.13
841.671	53.42
841.847	82.09
842.023	61.61
842.199	188.58
842.375	57.51
842.551	106.67
842.727	41.13
842.903	118.95
843.079	121
843.255	125.1
843.431	164.01
843.607	63.66
843.783	10.41
843.959	77.99
844.134	-22.36
844.31	73.9
844.486	32.94
844.662	-22.36
844.838	69.8
845.013	-30.55
845.189	53.42
845.365	43.18
845.541	-8.02
845.716	18.6
845.892	92.33
846.068	57.51
846.244	69.8
846.419	63.66
846.595	41.13
846.77	59.56
846.946	-12.12
847.122	-14.17
847.297	88.23
847.473	147.62
847.648	-1.88
847.824	98.47
847.999	-24.4
848.175	41.13
848.35	82.09
848.526	45.23
848.701	43.18
848.876	118.95
849.052	96.43
849.227	118.95
849.403	59.56
849.578	6.31
849.753	82.09
849.929	71.85
850.104	61.61
850.279	8.36
850.454	28.84
850.63	59.56
850.805	0.17
850.98	-32.6
851.155	26.79
851.33	51.37
851.505	-12.12
851.681	98.47
851.856	69.8
852.031	43.18
852.206	49.32
852.381	16.55
852.556	0.17
852.731	75.95
852.906	86.19
853.081	65.71
853.256	32.94
853.431	88.23
853.606	37.03
853.781	67.75
853.956	26.79
854.131	75.95
854.305	-24.4
854.48	2.22
854.655	8.36
854.83	32.94
855.005	90.28
855.18	73.9
855.354	32.94
855.529	37.03
855.704	-59.22
855.879	100.52
856.053	8.36
856.228	26.79
856.403	-77.65
856.577	90.28
856.752	-3.93
856.926	-12.12
857.101	82.09
857.276	-16.21
857.45	125.1
857.625	75.95
857.799	61.61
857.974	12.46
858.148	-3.93
858.323	55.47
858.497	8.36
858.672	26.79
858.846	43.18
859.02	57.51
859.195	41.13
859.369	39.08
859.543	47.27
859.718	-24.4
859.892	34.99
860.066	49.32
860.241	-10.07
860.415	32.94
860.589	49.32
860.763	-18.26
860.938	30.89
861.112	12.46
861.286	84.14
861.46	49.32
861.634	32.94
861.808	73.9
861.982	47.27
862.157	6.31
862.331	-22.36
862.505	-22.36
862.679	51.37
862.853	20.65
863.027	-14.17
863.201	61.61
863.375	30.89
863.549	47.27
863.722	71.85
863.896	133.29
864.07	32.94
864.244	73.9
864.418	67.75
864.592	49.32
864.766	-5.97
864.939	123.05
865.113	34.99
865.287	37.03
865.461	-8.02
865.634	24.75
865.808	10.41
865.982	-32.6
866.156	-8.02
866.329	32.94
866.503	-16.21
866.676	90.28
866.85	51.37
867.024	77.99
867.197	2.22
867.371	-16.21
867.544	-3.93
867.718	-8.02
867.891	51.37
868.065	8.36
868.238	16.55
868.412	98.47
868.585	47.27
868.759	26.79
868.932	0.17
869.105	20.65
869.279	41.13
869.452	39.08
869.625	39.08
869.799	12.46
869.972	-3.93
870.145	-14.17
870.319	10.41
870.492	-83.8
870.665	-69.46
870.838	43.18
871.011	-40.79
871.185	47.27
871.358	49.32
871.531	-3.93
871.704	-26.45
871.877	61.61
872.05	22.7
872.223	26.79
872.396	34.99
872.569	-55.12
872.742	45.23
872.915	-3.93
873.088	88.23
873.261	-38.74
873.434	47.27
873.607	61.61
873.78	49.32
873.953	24.75
874.126	65.71
874.299	41.13
874.471	-16.21
874.644	4.27
874.817	-40.79
874.99	118.95
875.163	57.51
875.335	2.22
875.508	39.08
875.681	59.56
875.853	-24.4
876.026	16.55
876.199	49.32
876.371	67.75
876.544	45.23
876.717	-42.84
876.889	-14.17
877.062	53.42
877.234	-22.36
877.407	-42.84
877.579	49.32
877.752	16.55
877.924	-1.88
878.097	98.47
878.269	51.37
878.442	73.9
878.614	8.36
878.786	-20.31
878.959	49.32
879.131	-65.36
879.303	-48.98
879.476	94.38
879.648	49.32
879.82	-16.21
879.993	-48.98
880.165	-24.4
880.337	16.55
880.509	28.84
880.681	-48.98
880.854	18.6
881.026	37.03
881.198	69.8
881.37	-14.17
881.542	-5.97
881.714	26.79
881.886	12.46
882.058	49.32
882.23	12.46
882.402	102.57
882.574	0.17
882.746	28.84
882.918	59.56
883.09	32.94
883.262	10.41
883.434	32.94
883.606	-38.74
883.778	53.42
883.95	100.52
884.122	0.17
884.293	123.05
884.465	53.42
884.637	92.33
884.809	51.37
884.98	34.99
885.152	-16.21
885.324	57.51
885.496	16.55
885.667	-8.02
885.839	61.61
886.011	34.99
886.182	47.27
886.354	39.08
886.525	-26.45
886.697	32.94
886.869	0.17
887.04	73.9
887.212	-8.02
887.383	34.99
887.555	-28.5
887.726	-63.32
887.897	6.31
888.069	0.17
888.24	57.51
888.412	10.41
888.583	51.37
888.754	-16.21
888.926	-98.13
889.097	18.6
889.268	10.41
889.44	0.17
889.611	-53.08
889.782	-36.69
889.953	-24.4
890.125	28.84
890.296	-24.4
890.467	8.36
890.638	-67.41
890.809	24.75
890.98	-40.79
891.151	45.23
891.323	41.13
891.494	-12.12
891.665	-16.21
891.836	41.13
892.007	-22.36
892.178	57.51
892.349	-24.4
892.52	16.55
892.691	32.94
892.862	71.85
893.032	16.55
893.203	-8.02
893.374	10.41
893.545	59.56
893.716	-26.45
893.887	0.17
894.057	0.17
894.228	30.89
894.399	-20.31
894.57	32.94
894.74	-14.17
894.911	-14.17
895.082	-40.79
895.253	30.89
895.423	90.28
895.594	6.31
895.764	0.17
895.935	45.23
896.106	-73.56
896.276	-40.79
896.447	-48.98
896.617	-81.75
896.788	4.27
896.958	92.33
897.129	12.46
897.299	75.95
897.47	16.55
897.64	-1.88
897.81	24.75
897.981	-1.88
898.151	-10.07
898.322	98.47
898.492	51.37
898.662	26.79
898.832	32.94
899.003	-5.97
899.173	59.56
899.343	-14.17
899.513	14.51
