Data from USB4F104151__41__14-29-48-935.txt Node

Date: Thu Mar 13 14:29:48 EDT 2025
User: louis
Spectrometer: USB4F10415
Trigger mode: 4
Integration Time (sec): 2.500000E-2
Scans to average: 1
Electric dark correction enabled: true
Nonlinearity correction enabled: false
Boxcar width: 0
XAxis mode: Wavelengths
Number of Pixels in Spectrum: 3648
>>>>>Begin Spectral Data<<<<<
178.204	-155.13
178.424	-155.13
178.644	-155.13
178.864	-212.48
179.084	-216.57
179.304	6.66
179.524	-48.64
179.744	33.28
179.964	16.9
180.184	41.47
180.404	-7.68
180.624	57.86
180.844	-7.68
181.064	-79.36
181.283	37.38
181.503	14.85
181.723	-65.02
181.943	-81.41
182.163	33.28
182.383	-15.87
182.602	0.51
182.822	0.51
183.042	25.09
183.262	16.9
183.482	8.7
183.701	-38.4
183.921	41.47
184.141	-19.97
184.361	10.75
184.58	-22.02
184.8	-73.21
185.02	41.47
185.239	70.14
185.459	-5.63
185.679	100.86
185.898	-15.87
186.118	43.52
186.338	57.86
186.557	10.75
186.777	4.61
186.997	6.66
187.216	-11.78
187.436	59.9
187.655	-1.54
187.875	131.58
188.095	-95.74
188.314	-40.45
188.534	61.95
188.753	-19.97
188.973	18.94
189.192	61.95
189.412	-3.58
189.631	-30.21
189.851	33.28
190.07	66.05
190.29	-48.64
190.509	-40.45
190.729	49.66
190.948	57.86
191.168	109.05
191.387	43.52
191.607	-130.56
191.826	-24.06
192.045	33.28
192.265	-5.63
192.484	-15.87
192.704	23.04
192.923	-62.98
193.142	111.1
193.362	27.14
193.581	33.28
193.8	80.38
194.02	8.7
194.239	6.66
194.458	18.94
194.678	-5.63
194.897	-52.74
195.116	33.28
195.335	41.47
195.555	33.28
195.774	-38.4
195.993	74.24
196.212	-5.63
196.432	-22.02
196.651	-46.59
196.87	-71.17
197.089	94.72
197.308	41.47
197.528	25.09
197.747	2.56
197.966	-7.68
198.185	92.67
198.404	29.18
198.623	41.47
198.842	-22.02
199.062	37.38
199.281	59.9
199.5	35.33
199.719	74.24
199.938	-40.45
200.157	-1.54
200.376	25.09
200.595	76.29
200.814	-32.26
201.033	10.75
201.252	-5.63
201.471	33.28
201.69	10.75
201.909	8.7
202.128	27.14
202.347	59.9
202.566	4.61
202.785	-7.68
203.004	-5.63
203.223	86.53
203.442	-15.87
203.661	-48.64
203.879	45.57
204.098	-13.82
204.317	-15.87
204.536	33.28
204.755	-15.87
204.974	27.14
205.193	49.66
205.411	59.9
205.63	-1.54
205.849	4.61
206.068	23.04
206.287	29.18
206.505	35.33
206.724	-32.26
206.943	51.71
207.162	53.76
207.381	-11.78
207.599	-42.5
207.818	-11.78
208.037	14.85
208.255	80.38
208.474	-15.87
208.693	41.47
208.911	-30.21
209.13	-22.02
209.349	23.04
209.567	-15.87
209.786	33.28
210.005	76.29
210.223	78.33
210.442	-95.74
210.661	-38.4
210.879	-30.21
211.098	25.09
211.316	27.14
211.535	-46.59
211.753	-36.35
211.972	-24.06
212.191	8.7
212.409	-81.41
212.628	16.9
212.846	-7.68
213.065	16.9
213.283	33.28
213.502	4.61
213.72	8.7
213.938	-73.21
214.157	29.18
214.375	-7.68
214.594	16.9
214.812	41.47
215.031	49.66
215.249	-7.68
215.467	25.09
215.686	37.38
215.904	25.09
216.122	-7.68
216.341	115.2
216.559	98.81
216.778	115.2
216.996	-15.87
217.214	16.9
217.432	20.99
217.651	-26.11
217.869	12.8
218.087	-22.02
218.306	-7.68
218.524	76.29
218.742	-54.78
218.96	16.9
219.179	-5.63
219.397	-40.45
219.615	74.24
219.833	66.05
220.051	33.28
220.27	51.71
220.488	-7.68
220.706	-7.68
220.924	0.51
221.142	-24.06
221.36	61.95
221.578	-73.21
221.796	-40.45
222.015	29.18
222.233	-89.6
222.451	43.52
222.669	8.7
222.887	-7.68
223.105	-13.82
223.323	6.66
223.541	-54.78
223.759	92.67
223.977	-24.06
224.195	76.29
224.413	-44.54
224.631	74.24
224.849	-28.16
225.067	29.18
225.285	-93.69
225.503	0.51
225.721	-28.16
225.939	25.09
226.157	74.24
226.375	66.05
226.592	39.42
226.81	82.43
227.028	98.81
227.246	37.38
227.464	-7.68
227.682	6.66
227.9	-9.73
228.117	16.9
228.335	82.43
228.553	12.8
228.771	10.75
228.989	33.28
229.206	-5.63
229.424	98.81
229.642	39.42
229.86	23.04
230.077	35.33
230.295	41.47
230.513	6.66
230.731	53.76
230.948	104.96
231.166	-30.21
231.384	-40.45
231.601	12.8
231.819	2.56
232.037	10.75
232.254	-65.02
232.472	29.18
232.689	-9.73
232.907	29.18
233.125	-19.97
233.342	47.62
233.56	-32.26
233.777	-54.78
233.995	92.67
234.213	49.66
234.43	8.7
234.648	-19.97
234.865	-44.54
235.083	8.7
235.3	16.9
235.518	41.47
235.735	57.86
235.953	2.56
236.17	47.62
236.388	18.94
236.605	-7.68
236.822	115.2
237.04	49.66
237.257	49.66
237.475	29.18
237.692	-9.73
237.909	20.99
238.127	0.51
238.344	16.9
238.562	82.43
238.779	41.47
238.996	-65.02
239.214	33.28
239.431	82.43
239.648	35.33
239.865	-7.68
240.083	57.86
240.3	-5.63
240.517	49.66
240.735	-15.87
240.952	49.66
241.169	78.33
241.386	12.8
241.603	-7.68
241.821	-13.82
242.038	43.52
242.255	-30.21
242.472	-77.31
242.689	-32.26
242.907	-15.87
243.124	53.76
243.341	-44.54
243.558	16.9
243.775	-65.02
243.992	14.85
244.209	-46.59
244.426	33.28
244.643	115.2
244.86	14.85
245.078	123.39
245.295	-11.78
245.512	-40.45
245.729	33.28
245.946	49.66
246.163	-11.78
246.38	70.14
246.597	25.09
246.814	-42.5
247.031	-7.68
247.248	-83.45
247.464	25.09
247.681	12.8
247.898	35.33
248.115	41.47
248.332	-40.45
248.549	-22.02
248.766	51.71
248.983	49.66
249.2	-5.63
249.417	82.43
249.633	-5.63
249.85	25.09
250.067	-48.64
250.284	29.18
250.501	-56.83
250.717	82.43
250.934	2.56
251.151	43.52
251.368	14.85
251.585	61.95
251.801	-85.5
252.018	-52.74
252.235	78.33
252.451	66.05
252.668	51.71
252.885	-11.78
253.102	90.62
253.318	-26.11
253.535	-32.26
253.752	-30.21
253.968	-58.88
254.185	-17.92
254.401	-54.78
254.618	-56.83
254.835	-28.16
255.051	57.86
255.268	4.61
255.484	4.61
255.701	-5.63
255.917	8.7
256.134	-24.06
256.351	-38.4
256.567	-52.74
256.784	20.99
257	-28.16
257.217	49.66
257.433	98.81
257.65	125.44
257.866	47.62
258.082	-24.06
258.299	51.71
258.515	10.75
258.732	-36.35
258.948	-58.88
259.165	37.38
259.381	10.75
259.597	16.9
259.814	-32.26
260.03	-19.97
260.246	18.94
260.463	51.71
260.679	-24.06
260.895	25.09
261.112	86.53
261.328	-13.82
261.544	8.7
261.761	49.66
261.977	-32.26
262.193	-38.4
262.409	-11.78
262.626	0.51
262.842	55.81
263.058	-13.82
263.274	45.57
263.49	-15.87
263.707	55.81
263.923	27.14
264.139	-30.21
264.355	-30.21
264.571	27.14
264.787	2.56
265.004	-32.26
265.22	-13.82
265.436	-65.02
265.652	-32.26
265.868	-73.21
266.084	-42.5
266.3	64
266.516	-42.5
266.732	-3.58
266.948	0.51
267.164	53.76
267.38	82.43
267.596	-56.83
267.812	41.47
268.028	-9.73
268.244	20.99
268.46	35.33
268.676	20.99
268.892	41.47
269.108	-56.83
269.324	16.9
269.54	-7.68
269.756	66.05
269.972	-24.06
270.188	8.7
270.403	-40.45
270.619	-26.11
270.835	-13.82
271.051	-32.26
271.267	-52.74
271.483	-36.35
271.698	12.8
271.914	8.7
272.13	51.71
272.346	-15.87
272.562	-7.68
272.777	82.43
272.993	-9.73
273.209	49.66
273.425	35.33
273.64	-85.5
273.856	-5.63
274.072	-36.35
274.287	-5.63
274.503	-40.45
274.719	41.47
274.934	-24.06
275.15	-71.17
275.366	-19.97
275.581	0.51
275.797	-3.58
276.012	-36.35
276.228	27.14
276.444	-46.59
276.659	74.24
276.875	-34.3
277.09	51.71
277.306	41.47
277.521	76.29
277.737	-7.68
277.952	-50.69
278.168	20.99
278.383	18.94
278.599	45.57
278.814	78.33
279.03	-40.45
279.245	49.66
279.461	-22.02
279.676	107.01
279.892	-62.98
280.107	-3.58
280.322	-19.97
280.538	90.62
280.753	49.66
280.969	-5.63
281.184	41.47
281.399	20.99
281.615	-30.21
281.83	-9.73
282.045	18.94
282.26	-44.54
282.476	-1.54
282.691	-24.06
282.906	-5.63
283.122	41.47
283.337	-38.4
283.552	10.75
283.767	-38.4
283.983	20.99
284.198	4.61
284.413	-62.98
284.628	-48.64
284.843	74.24
285.058	-5.63
285.274	14.85
285.489	-7.68
285.704	39.42
285.919	-15.87
286.134	59.9
286.349	31.23
286.564	-28.16
286.779	117.25
286.995	78.33
287.21	20.99
287.425	2.56
287.64	-1.54
287.855	-5.63
288.07	-56.83
288.285	51.71
288.5	86.53
288.715	-15.87
288.93	14.85
289.145	6.66
289.36	43.52
289.575	76.29
289.79	41.47
290.004	-11.78
290.219	2.56
290.434	-9.73
290.649	-40.45
290.864	-7.68
291.079	-40.45
291.294	41.47
291.509	2.56
291.724	66.05
291.938	16.9
292.153	-38.4
292.368	-87.55
292.583	20.99
292.798	98.81
293.012	-65.02
293.227	29.18
293.442	20.99
293.657	37.38
293.871	72.19
294.086	16.9
294.301	86.53
294.516	66.05
294.73	-44.54
294.945	8.7
295.16	25.09
295.374	-5.63
295.589	2.56
295.804	-89.6
296.018	35.33
296.233	18.94
296.447	86.53
296.662	4.61
296.877	-56.83
297.091	43.52
297.306	-28.16
297.52	33.28
297.735	-28.16
297.949	-15.87
298.164	27.14
298.378	4.61
298.593	12.8
298.807	10.75
299.022	23.04
299.236	64
299.451	-11.78
299.665	10.75
299.88	20.99
300.094	49.66
300.309	37.38
300.523	-24.06
300.737	-46.59
300.952	-7.68
301.166	109.05
301.381	-32.26
301.595	-13.82
301.809	-3.58
302.024	-5.63
302.238	-30.21
302.452	86.53
302.667	27.14
302.881	12.8
303.095	27.14
303.309	23.04
303.524	-11.78
303.738	-28.16
303.952	-9.73
304.166	-5.63
304.381	-56.83
304.595	-24.06
304.809	53.76
305.023	45.57
305.237	0.51
305.452	74.24
305.666	82.43
305.88	35.33
306.094	-5.63
306.308	70.14
306.522	72.19
306.736	49.66
306.95	61.95
307.164	35.33
307.379	10.75
307.593	8.7
307.807	27.14
308.021	-24.06
308.235	-38.4
308.449	0.51
308.663	-11.78
308.877	166.4
309.091	-73.21
309.305	-24.06
309.519	29.18
309.733	82.43
309.947	-3.58
310.161	-13.82
310.374	23.04
310.588	57.86
310.802	57.86
311.016	-32.26
311.23	-5.63
311.444	-36.35
311.658	53.76
311.872	45.57
312.085	59.9
312.299	61.95
312.513	98.81
312.727	25.09
312.941	-46.59
313.154	96.77
313.368	78.33
313.582	4.61
313.796	-54.78
314.009	53.76
314.223	-32.26
314.437	49.66
314.651	4.61
314.864	-40.45
315.078	-36.35
315.292	12.8
315.505	8.7
315.719	61.95
315.933	111.1
316.146	18.94
316.36	10.75
316.573	16.9
316.787	-15.87
317.001	-40.45
317.214	-7.68
317.428	53.76
317.641	66.05
317.855	-48.64
318.068	-7.68
318.282	16.9
318.495	66.05
318.709	41.47
318.922	25.09
319.136	59.9
319.349	0.51
319.563	16.9
319.776	12.8
319.99	10.75
320.203	35.33
320.417	29.18
320.63	74.24
320.843	104.96
321.057	-24.06
321.27	43.52
321.483	8.7
321.697	29.18
321.91	-15.87
322.124	8.7
322.337	31.23
322.55	-7.68
322.763	-24.06
322.977	8.7
323.19	8.7
323.403	45.57
323.617	59.9
323.83	61.95
324.043	18.94
324.256	78.33
324.469	8.7
324.683	98.81
324.896	-19.97
325.109	25.09
325.322	-11.78
325.535	59.9
325.748	61.95
325.962	37.38
326.175	-9.73
326.388	102.91
326.601	-5.63
326.814	20.99
327.027	53.76
327.24	45.57
327.453	-87.55
327.666	-11.78
327.879	66.05
328.092	18.94
328.305	2.56
328.518	-22.02
328.731	33.28
328.944	-36.35
329.157	39.42
329.37	37.38
329.583	43.52
329.796	133.63
330.009	41.47
330.222	-5.63
330.435	35.33
330.648	-69.12
330.861	33.28
331.073	-28.16
331.286	-15.87
331.499	41.47
331.712	0.51
331.925	27.14
332.138	31.23
332.35	37.38
332.563	2.56
332.776	55.81
332.989	4.61
333.202	33.28
333.414	-15.87
333.627	39.42
333.84	-32.26
334.053	57.86
334.265	20.99
334.478	-60.93
334.691	2.56
334.903	49.66
335.116	4.61
335.329	29.18
335.541	49.66
335.754	45.57
335.966	2.56
336.179	25.09
336.392	-3.58
336.604	16.9
336.817	10.75
337.029	4.61
337.242	-36.35
337.454	49.66
337.667	27.14
337.88	125.44
338.092	49.66
338.305	25.09
338.517	-56.83
338.729	0.51
338.942	12.8
339.154	-50.69
339.367	-146.94
339.579	23.04
339.792	8.7
340.004	14.85
340.217	-1.54
340.429	39.42
340.641	16.9
340.854	10.75
341.066	-69.12
341.278	51.71
341.491	33.28
341.703	45.57
341.915	-19.97
342.128	14.85
342.34	-3.58
342.552	-26.11
342.764	102.91
342.977	117.25
343.189	47.62
343.401	41.47
343.613	-17.92
343.826	-40.45
344.038	4.61
344.25	92.67
344.462	-54.78
344.674	25.09
344.886	-36.35
345.099	31.23
345.311	45.57
345.523	20.99
345.735	-28.16
345.947	33.28
346.159	-65.02
346.371	39.42
346.583	109.05
346.795	76.29
347.007	10.75
347.219	53.76
347.431	-36.35
347.643	57.86
347.855	43.52
348.067	39.42
348.279	-32.26
348.491	-17.92
348.703	27.14
348.915	49.66
349.127	47.62
349.339	86.53
349.551	4.61
349.763	14.85
349.975	18.94
350.187	49.66
350.399	82.43
350.61	25.09
350.822	33.28
351.034	-7.68
351.246	84.48
351.458	33.28
351.669	45.57
351.881	49.66
352.093	41.47
352.305	10.75
352.517	72.19
352.728	41.47
352.94	78.33
353.152	55.81
353.363	0.51
353.575	-44.54
353.787	45.57
353.999	66.05
354.21	109.05
354.422	43.52
354.633	8.7
354.845	33.28
355.057	0.51
355.268	20.99
355.48	45.57
355.692	-5.63
355.903	-17.92
356.115	-24.06
356.326	-42.5
356.538	-7.68
356.749	4.61
356.961	57.86
357.172	-9.73
357.384	-42.5
357.595	8.7
357.807	-15.87
358.018	10.75
358.23	37.38
358.441	55.81
358.653	33.28
358.864	27.14
359.075	4.61
359.287	-19.97
359.498	61.95
359.709	59.9
359.921	-15.87
360.132	18.94
360.344	-22.02
360.555	-46.59
360.766	27.14
360.977	10.75
361.189	39.42
361.4	-22.02
361.611	68.09
361.823	-7.68
362.034	-48.64
362.245	-58.88
362.456	78.33
362.667	8.7
362.879	0.51
363.09	27.14
363.301	98.81
363.512	-36.35
363.723	-19.97
363.935	29.18
364.146	33.28
364.357	-11.78
364.568	61.95
364.779	-44.54
364.99	74.24
365.201	-13.82
365.412	16.9
365.623	-7.68
365.834	86.53
366.045	-24.06
366.256	16.9
366.467	-5.63
366.678	-32.26
366.889	0.51
367.1	82.43
367.311	33.28
367.522	-54.78
367.733	14.85
367.944	111.1
368.155	-28.16
368.366	92.67
368.577	12.8
368.788	27.14
368.999	4.61
369.209	33.28
369.42	125.44
369.631	107.01
369.842	57.86
370.053	-5.63
370.264	107.01
370.474	41.47
370.685	2.56
370.896	-3.58
371.107	27.14
371.317	43.52
371.528	16.9
371.739	84.48
371.95	-15.87
372.16	18.94
372.371	-24.06
372.582	-7.68
372.792	64
373.003	68.09
373.214	25.09
373.424	2.56
373.635	-3.58
373.846	74.24
374.056	-24.06
374.267	43.52
374.477	70.14
374.688	31.23
374.898	66.05
375.109	27.14
375.319	-13.82
375.53	115.2
375.74	156.16
375.951	16.9
376.161	-7.68
376.372	66.05
376.582	33.28
376.793	27.14
377.003	-24.06
377.214	-22.02
377.424	53.76
377.635	-48.64
377.845	-32.26
378.055	18.94
378.266	-7.68
378.476	37.38
378.686	-40.45
378.897	41.47
379.107	98.81
379.317	94.72
379.528	-24.06
379.738	43.52
379.948	-40.45
380.158	102.91
380.369	-15.87
380.579	43.52
380.789	-3.58
380.999	66.05
381.21	82.43
381.42	74.24
381.63	33.28
381.84	90.62
382.05	8.7
382.261	74.24
382.471	51.71
382.681	10.75
382.891	72.19
383.101	102.91
383.311	49.66
383.521	-114.17
383.731	74.24
383.941	33.28
384.151	82.43
384.361	66.05
384.571	49.66
384.781	37.38
384.991	78.33
385.201	61.95
385.411	-5.63
385.621	90.62
385.831	31.23
386.041	121.34
386.251	-15.87
386.461	37.38
386.671	-50.69
386.881	66.05
387.091	-1.54
387.301	49.66
387.511	76.29
387.72	115.2
387.93	20.99
388.14	25.09
388.35	39.42
388.56	145.92
388.769	82.43
388.979	-54.78
389.189	45.57
389.399	74.24
389.609	92.67
389.818	82.43
390.028	-19.97
390.238	70.14
390.447	-7.68
390.657	-40.45
390.867	70.14
391.076	-3.58
391.286	90.62
391.496	51.71
391.705	61.95
391.915	41.47
392.125	92.67
392.334	20.99
392.544	59.9
392.753	0.51
392.963	-40.45
393.172	-7.68
393.382	-3.58
393.591	88.57
393.801	78.33
394.01	131.58
394.22	39.42
394.429	90.62
394.639	33.28
394.848	51.71
395.058	74.24
395.267	123.39
395.477	33.28
395.686	131.58
395.895	135.68
396.105	109.05
396.314	92.67
396.524	82.43
396.733	133.63
396.942	84.48
397.152	84.48
397.361	152.06
397.57	78.33
397.78	117.25
397.989	135.68
398.198	135.68
398.407	55.81
398.617	47.62
398.826	57.86
399.035	84.48
399.244	10.75
399.453	43.52
399.663	45.57
399.872	107.01
400.081	107.01
400.29	76.29
400.499	82.43
400.708	82.43
400.917	94.72
401.127	74.24
401.336	47.62
401.545	139.77
401.754	139.77
401.963	29.18
402.172	96.77
402.381	57.86
402.59	70.14
402.799	111.1
403.008	160.25
403.217	123.39
403.426	188.93
403.635	49.66
403.844	240.12
404.053	78.33
404.262	107.01
404.471	227.84
404.68	139.77
404.888	117.25
405.097	115.2
405.306	129.53
405.515	211.45
405.724	86.53
405.933	109.05
406.142	147.97
406.35	231.93
406.559	178.69
406.768	166.4
406.977	248.32
407.185	188.93
407.394	186.88
407.603	109.05
407.812	199.16
408.02	221.69
408.229	207.36
408.438	217.6
408.646	199.16
408.855	188.93
409.064	221.69
409.272	270.84
409.481	328.19
409.69	229.88
409.898	264.7
410.107	283.13
410.315	287.23
410.524	272.89
410.733	346.62
410.941	344.57
411.15	291.32
411.358	346.62
411.567	340.47
411.775	356.86
411.984	422.39
412.192	414.2
412.401	406.01
412.609	479.74
412.818	526.84
413.026	551.42
413.234	516.6
413.443	477.69
413.651	438.78
413.86	592.37
414.068	662.01
414.276	668.15
414.485	541.18
414.693	631.29
414.901	659.96
415.11	731.64
415.318	641.53
415.526	688.63
415.734	844.28
415.943	823.8
416.151	815.6
416.359	901.62
416.567	854.51
416.776	860.66
416.984	901.62
417.192	981.49
417.4	1075.7
417.608	946.67
417.817	1073.65
418.025	1118.7
418.233	1270.25
418.441	1122.8
418.649	1188.33
418.857	1386.99
419.065	1288.68
419.273	1274.35
419.481	1374.7
419.689	1536.49
419.897	1575.4
420.105	1589.74
420.313	1638.89
420.521	1589.74
420.729	1647.08
420.937	1722.85
421.145	1819.11
421.353	1880.55
421.561	2054.62
421.769	1952.23
421.977	2132.45
422.185	1966.56
422.393	2296.28
422.601	2318.81
422.809	2378.2
423.017	2322.91
423.224	2421.21
423.432	2615.77
423.64	2533.85
423.848	2822.61
424.056	2761.17
424.263	2943.44
424.471	2789.85
424.679	2992.59
424.887	3107.28
425.094	3219.92
425.302	3209.68
425.51	3326.41
425.718	3453.39
425.925	3465.68
426.133	3707.34
426.341	3754.44
426.548	3912.13
426.756	3918.28
426.964	4039.11
427.171	4301.25
427.379	4399.55
427.586	4424.12
427.794	4559.29
428.001	4768.18
428.209	5022.13
428.417	4803
428.624	5300.66
428.832	5431.73
429.039	5331.37
429.247	5351.85
429.454	5743.02
429.662	6146.47
429.869	5775.78
430.076	6162.85
430.284	6138.27
430.491	6269.34
430.699	6549.92
430.906	6468
431.114	6668.7
431.321	6848.92
431.528	6955.41
431.736	7393.68
431.943	7809.42
432.15	7676.3
432.358	7653.77
432.565	7999.88
432.772	8036.74
432.979	8401.28
433.187	8683.9
433.394	8520.06
433.601	9099.64
433.808	9095.54
434.016	9048.44
434.223	9453.94
434.43	10230.12
434.637	9931.11
434.844	10494.3
435.052	10695
435.259	10690.91
435.466	10848.6
435.673	10699.1
435.88	11331.92
436.087	11907.4
436.294	11925.83
436.501	11583.82
436.708	11768.14
436.915	12417.35
437.122	12712.25
437.329	12880.19
437.537	13142.33
437.743	13390.13
437.95	13312.31
438.157	14033.19
438.364	14184.74
438.571	14526.75
438.778	14516.51
438.985	15911.18
439.192	15073.56
439.399	15788.3
439.606	15200.54
439.813	16089.35
440.02	17002.75
440.227	16847.1
440.433	16589.06
440.64	17156.35
440.847	17066.24
441.054	17285.37
441.261	18655.46
441.467	18344.17
441.674	18817.25
441.881	19239.13
442.088	19323.1
442.294	19103.96
442.501	19589.33
442.708	20293.83
442.914	20834.5
443.121	21711.03
443.328	21172.41
443.534	22804.64
443.741	22161.58
443.948	21661.88
444.154	23302.3
444.361	23105.7
444.568	23378.08
444.774	23341.21
444.981	23720.09
445.187	24332.43
445.394	25112.7
445.6	24995.97
445.807	27439.2
446.013	26103.92
446.22	26458.22
446.426	27533.4
446.633	27766.87
446.839	28528.72
447.046	27568.22
447.252	29317.18
447.459	28948.55
447.665	28907.59
447.871	30218.29
448.078	31465.5
448.284	29911.1
448.491	31012.9
448.697	31842.33
448.903	32479.25
449.11	32516.11
449.316	32153.62
449.522	32866.31
449.728	33525.76
449.935	33873.92
450.141	33900.54
450.347	34715.63
450.553	33599.49
450.76	33597.44
450.966	34971.63
451.172	34639.86
451.378	35588.06
451.584	34594.8
451.791	35776.48
451.997	35561.44
452.203	35788.77
452.409	36114.39
452.615	35688.42
452.821	34527.22
453.027	34105.34
453.233	35741.66
453.44	34674.67
453.646	35012.59
453.852	35125.22
454.058	35667.94
454.264	34408.43
454.47	35209.19
454.676	33888.25
454.882	35495.91
455.088	32618.51
455.294	32833.55
455.5	33241.09
455.705	33585.15
455.911	32155.67
456.117	31633.44
456.323	31309.86
456.529	29243.46
456.735	30572.59
456.941	30122.04
457.147	29399.1
457.352	28774.47
457.558	28342.35
457.764	28029.01
457.97	27457.63
458.176	27111.52
458.381	27029.6
458.587	25550.97
458.793	25467
458.999	24195.21
459.204	25970.8
459.41	25380.99
459.616	23777.43
459.821	23537.82
460.027	23531.67
460.233	22749.35
460.438	22001.84
460.644	22126.77
460.85	21094.59
461.055	20873.41
461.261	20811.97
461.466	19321.05
461.672	18530.53
461.878	19777.75
462.083	18653.41
462.289	18335.98
462.494	17762.54
462.7	17441.01
462.905	16871.68
463.111	17340.66
463.316	17348.86
463.522	16986.36
463.727	17012.99
463.932	17117.43
464.138	16705.79
464.343	16857.34
464.549	16371.97
464.754	16929.02
464.959	16826.62
465.165	16474.37
465.37	15868.17
465.575	15407.38
465.781	15941.9
465.986	16177.42
466.191	15616.27
466.397	15141.14
466.602	14438.69
466.807	14958.88
467.012	14852.38
467.218	14866.72
467.423	14715.17
467.628	14809.37
467.833	15407.38
468.038	14625.06
468.244	14287.14
468.449	14975.26
468.654	14506.27
468.859	14319.91
469.064	14399.78
469.269	13664.56
469.474	13586.74
469.679	14074.15
469.885	13484.34
470.09	13715.76
470.295	13533.49
470.5	13281.59
470.705	13586.74
470.91	12955.96
471.115	12894.52
471.32	13084.98
471.525	13056.31
471.73	12482.88
471.935	12677.44
472.139	12079.43
472.344	12206.41
472.549	12144.97
472.754	12351.81
472.959	11925.83
473.164	11706.7
473.369	11434.32
473.574	11927.88
473.778	11798.86
473.983	11403.6
474.188	11575.63
474.393	11006.3
474.598	11047.26
474.802	11018.58
475.007	10936.67
475.212	10862.94
475.417	10541.41
475.621	10529.12
475.826	10457.44
476.031	10262.88
476.235	9867.63
476.44	10150.25
476.645	10045.8
476.849	10209.64
477.054	9922.92
477.259	9695.6
477.463	9841
477.668	9724.27
477.872	9656.68
478.077	9447.79
478.282	9431.41
478.486	9372.02
478.691	9224.56
478.895	9036.15
479.1	9245.04
479.304	9015.67
479.509	8771.96
479.713	8937.85
479.918	8868.22
480.122	8610.17
480.326	8839.55
480.531	8761.72
480.735	8626.56
480.94	8694.14
481.144	8767.87
481.348	8642.94
481.553	8458.62
481.757	8221.06
481.961	8378.75
482.166	8520.06
482.37	8683.9
482.574	8413.57
482.778	8323.46
482.983	8552.83
483.187	8454.53
483.391	8636.8
483.595	8237.44
483.8	8317.31
484.004	8325.5
484.208	8487.29
484.412	8397.18
484.616	8348.03
484.821	8417.66
485.025	8077.7
485.229	8313.22
485.433	8393.09
485.637	8436.1
485.841	8290.69
486.045	8216.96
486.249	8440.19
486.453	8204.67
486.657	8151.43
486.861	8313.22
487.065	7967.11
487.269	8309.12
487.473	8210.82
487.677	8368.51
487.881	8280.45
488.085	8116.61
488.289	8221.06
488.493	8350.08
488.697	8110.47
488.901	8159.62
489.105	8348.03
489.309	8229.25
489.512	8485.25
489.716	8360.32
489.92	8130.95
490.124	8325.5
490.328	8235.39
490.531	8094.08
490.735	8278.4
490.939	8550.78
491.143	8280.45
491.346	8171.91
491.55	8319.36
491.754	8577.41
491.958	8548.73
492.161	8458.62
492.365	8470.91
492.569	8477.05
492.772	8401.28
492.976	8651.13
493.18	8661.37
493.383	8698.24
493.587	8589.69
493.79	8982.9
493.994	8606.08
494.197	8712.57
494.401	8735.1
494.605	8907.13
494.808	9036.15
495.012	8911.22
495.215	9068.92
495.419	9148.79
495.622	8984.95
495.825	9091.45
496.029	8958.33
496.232	9249.14
496.436	9273.71
496.639	9503.09
496.843	9488.75
497.046	9890.15
497.249	9929.06
497.453	9994.6
497.656	9773.42
497.859	9728.36
498.063	9902.44
498.266	10205.54
498.469	10101.09
498.673	10264.93
498.876	10500.45
499.079	10649.95
499.282	10482.02
499.485	10606.94
499.689	10862.94
499.892	10762.59
500.095	10674.53
500.298	11153.75
500.501	10832.22
500.705	11172.18
500.908	11444.56
501.111	11573.58
501.314	11626.83
501.517	11641.17
501.72	11809.1
501.923	11905.35
502.126	12009.8
502.329	12382.53
502.532	12233.03
502.735	12261.7
502.938	12523.84
503.141	12816.7
503.344	12824.89
503.547	13146.42
503.75	12996.92
503.953	13109.56
504.156	13060.41
504.359	13445.43
504.562	13508.91
504.765	13779.25
504.968	13711.66
505.17	14041.39
505.373	13695.28
505.576	14199.08
505.779	14115.11
505.982	14459.17
506.185	14704.93
506.387	14616.86
506.59	14803.23
506.793	15042.84
506.996	15180.06
507.198	15491.35
507.401	15196.44
507.604	15429.91
507.807	15907.09
508.009	16038.16
508.212	15921.42
508.415	16056.59
508.617	16445.7
508.82	16445.7
509.022	16591.11
509.225	17129.72
509.428	16955.65
509.63	17287.42
509.833	17187.07
510.035	17940.72
510.238	17268.98
510.44	17768.69
510.643	18090.22
510.845	18118.89
511.048	18280.68
511.25	18235.63
511.453	18501.86
511.655	19202.27
511.858	18667.75
512.06	18913.5
512.262	19189.98
512.465	19179.74
512.667	19701.97
512.87	19622.1
513.072	19863.76
513.274	19945.68
513.477	20564.17
513.679	20730.05
513.881	20715.72
514.084	21254.33
514.286	21244.09
514.488	20975.81
514.69	21735.6
514.893	21545.14
515.095	21698.74
515.297	21950.64
515.499	22286.51
515.701	22479.02
515.904	22970.53
516.106	22587.56
516.308	23027.87
516.51	22956.19
516.712	23230.62
516.914	23472.28
517.116	23715.99
517.318	23718.04
517.52	23789.72
517.722	24207.5
517.925	24535.18
518.127	24584.33
518.329	24557.71
518.531	24428.68
518.733	25030.79
518.935	25118.85
519.136	25286.78
519.338	25458.81
519.54	25647.22
519.742	25718.9
519.944	25774.2
520.146	26128.5
520.348	26562.67
520.55	26484.84
520.752	26585.19
520.954	27441.25
521.155	26599.53
521.357	27201.63
521.559	26886.25
521.761	27746.39
521.963	27310.18
522.164	27654.23
522.366	27594.84
522.568	27697.24
522.77	27721.82
522.971	28217.43
523.173	27902.04
523.375	28307.54
523.576	28418.13
523.778	28336.21
523.98	28438.61
524.181	28704.84
524.383	28395.6
524.584	28936.26
524.786	28938.31
524.988	28741.71
525.189	29263.94
525.391	29165.63
525.592	29395.01
525.794	29237.31
525.995	29194.31
526.197	29200.45
526.398	29614.14
526.6	29638.72
526.801	29468.73
527.003	29524.03
527.204	29349.95
527.406	29753.4
527.607	29585.47
527.808	30093.36
528.01	29450.3
528.211	29599.8
528.412	29892.66
528.614	29909.05
528.815	29771.83
529.016	30113.84
529.218	29663.29
529.419	29521.98
529.62	29593.66
529.822	29730.87
530.023	29593.66
530.224	29777.98
530.425	29442.11
530.626	29478.97
530.828	29577.28
531.029	30099.51
531.23	29265.99
531.431	29517.89
531.632	29532.22
531.833	29722.68
532.035	29399.1
532.236	29147.2
532.437	29507.65
532.638	29257.79
532.839	29210.69
533.04	29493.31
533.241	29319.23
533.442	29476.93
533.643	29182.02
533.844	29130.82
534.045	29333.57
534.246	29212.74
534.447	29571.13
534.648	28942.41
534.849	29145.16
535.05	28792.9
535.251	28807.24
535.451	28803.14
535.652	28909.64
535.853	28833.86
536.054	28522.57
536.255	28731.47
536.456	28520.52
536.657	28975.17
536.857	28366.93
537.058	28452.94
537.259	29089.86
537.46	28788.81
537.66	28407.89
537.861	28532.81
538.062	28366.93
538.263	28457.04
538.463	28336.21
538.664	28821.58
538.865	28403.79
539.065	28323.92
539.266	28084.31
539.466	28571.72
539.667	28219.47
539.868	28522.57
540.068	28346.45
540.269	28172.37
540.469	28409.93
540.67	28014.68
540.87	27979.86
541.071	28178.51
541.271	28069.97
541.472	27994.2
541.672	27955.29
541.873	28135.51
542.073	27490.4
542.274	28125.27
542.474	27949.14
542.675	27617.37
542.875	28190.8
543.075	27838.55
543.276	27588.7
543.476	28059.73
543.676	27842.65
543.877	27834.46
544.077	27746.39
544.277	27863.13
544.478	27756.63
544.678	27791.45
544.878	27654.23
545.078	27476.06
545.279	27519.07
545.479	27936.85
545.679	27584.6
545.879	27893.85
546.079	27838.55
546.28	27742.3
546.48	27639.9
546.68	27791.45
546.88	27986
547.08	27351.13
547.28	27990.1
547.48	27490.4
547.68	27670.62
547.88	27467.87
548.081	27750.49
548.281	27404.38
548.481	27576.41
548.681	28004.44
548.881	27562.08
549.081	27490.4
549.28	27398.24
549.48	27891.8
549.68	27852.89
549.88	27988.05
550.08	27408.48
550.28	27562.08
550.48	27664.47
550.68	27697.24
550.88	27506.78
551.08	27883.61
551.279	27961.43
551.479	27390.05
551.679	28069.97
551.879	27828.31
552.079	27971.67
552.278	27533.4
552.478	27838.55
552.678	27891.8
552.878	27887.7
553.077	27738.2
553.277	27402.33
553.477	27906.13
553.676	27795.54
553.876	27967.57
554.076	27680.86
554.275	28026.96
554.475	27783.26
554.674	27787.35
554.874	27869.27
555.074	28209.23
555.273	27936.85
555.473	28084.31
555.672	27875.41
555.872	28321.87
556.071	28035.16
556.271	28237.91
556.47	27998.29
556.67	27844.7
556.869	28420.17
557.068	28442.7
557.268	27934.81
557.467	28473.42
557.667	27775.06
557.866	28160.08
558.065	28129.36
558.265	28182.61
558.464	27895.89
558.663	28340.3
558.863	27668.57
559.062	28741.71
559.261	28162.13
559.461	28336.21
559.66	27787.35
559.859	28022.87
560.058	28014.68
560.258	28061.78
560.457	27789.4
560.656	28127.31
560.855	28055.64
561.054	28330.06
561.253	27844.7
561.453	28092.5
561.652	28127.31
561.851	27912.28
562.05	27988.05
562.249	27619.42
562.448	28411.98
562.647	27775.06
562.846	27897.94
563.045	27988.05
563.244	27758.68
563.443	28123.22
563.642	27607.13
563.841	27973.72
564.04	27629.66
564.239	28098.64
564.438	27611.23
564.637	28176.47
564.836	28266.58
565.035	27580.51
565.234	27660.38
565.432	27541.6
565.631	27261.02
565.83	27652.19
566.029	27453.53
566.228	27371.61
566.427	27414.62
566.625	27375.71
566.824	27242.59
567.023	27402.33
567.222	26769.51
567.42	27813.98
567.619	27404.38
567.818	26982.5
568.016	27340.89
568.215	27232.35
568.414	26988.64
568.612	27140.19
568.811	26851.43
569.01	27447.39
569.208	26990.69
569.407	26826.85
569.605	26706.02
569.804	26847.33
570.002	26525.8
570.201	26450.03
570.4	26439.79
570.598	26644.59
570.797	26327.15
570.995	26288.24
571.193	26216.56
571.392	26775.66
571.59	25704.57
571.789	26220.66
571.987	26075.25
572.186	26280.05
572.384	25950.32
572.582	25751.67
572.781	25958.52
572.979	25731.19
573.177	25862.26
573.376	25737.34
573.574	25514.11
573.772	25706.62
573.971	25483.39
574.169	25233.53
574.367	25104.51
574.565	25413.76
574.763	25387.13
574.962	25102.46
575.16	24797.32
575.358	25002.11
575.556	24858.76
575.754	25350.27
575.952	24613
576.151	24578.18
576.349	24615.05
576.547	24498.31
576.745	24436.88
576.943	24320.14
577.141	24303.76
577.339	24440.97
577.537	24256.65
577.735	24260.75
577.933	23879.83
578.131	24225.93
578.329	23814.29
578.527	24066.19
578.725	23851.16
578.923	23976.08
579.121	23826.58
579.319	23888.02
579.516	23926.93
579.714	23810.2
579.912	23453.85
580.11	23511.19
580.308	23081.12
580.506	23335.07
580.704	23210.14
580.901	23109.79
581.099	23201.95
581.297	23015.58
581.495	23193.76
581.692	23296.16
581.89	23042.21
582.088	23036.06
582.285	22612.13
582.483	22896.8
582.681	22610.09
582.878	22673.57
583.076	22487.21
583.274	22577.32
583.471	22388.91
583.669	22751.4
583.866	22159.53
584.064	22573.22
584.262	22249.64
584.459	22507.69
584.657	22059.18
584.854	22399.15
585.052	21776.56
585.249	22200.49
585.447	22081.71
585.644	21829.81
585.841	21749.94
586.039	22134.96
586.236	21829.81
586.434	21674.17
586.631	21776.56
586.828	21446.84
587.026	21735.6
587.223	21467.32
587.42	21362.87
587.618	21383.35
587.815	21442.74
588.012	21434.55
588.21	21319.87
588.407	21557.43
588.604	20924.61
588.801	21043.39
588.999	20861.12
589.196	21074.11
589.393	21002.43
589.59	20949.18
589.787	20717.76
589.984	20977.86
590.182	20787.39
590.379	20637.89
590.576	20625.61
590.773	20693.19
590.97	20807.87
591.167	20766.92
591.364	20394.18
591.561	20629.7
591.758	20418.76
591.955	20429
592.152	20844.74
592.349	20213.96
592.546	20480.2
592.743	20680.9
592.94	20150.48
593.137	20222.16
593.334	20613.32
593.531	20187.34
593.727	20412.62
593.924	20324.55
594.121	19910.86
594.318	20295.88
594.515	20056.27
594.712	20218.06
594.908	20119.76
595.105	20179.15
595.302	19910.86
595.499	20175.05
595.696	20007.12
595.892	19654.87
596.089	20271.31
596.286	20037.84
596.482	19937.49
596.679	19996.88
596.876	20041.93
597.072	19540.18
597.269	19980.5
597.466	19839.19
597.662	20103.37
597.859	19939.54
598.055	20017.36
598.252	19650.77
598.448	19933.39
598.645	19925.2
598.841	19742.93
599.038	19767.51
599.234	19771.6
599.431	19933.39
599.627	19982.54
599.824	20095.18
600.02	19708.12
600.217	19972.3
600.413	19783.89
600.609	19808.47
600.806	19777.75
601.002	20068.56
601.198	20127.95
601.395	19884.24
601.591	19931.34
601.787	19955.92
601.984	19998.93
602.18	20187.34
602.376	19988.69
602.572	20023.5
602.769	20109.52
602.965	19945.68
603.161	20398.28
603.357	19933.39
603.553	20132.04
603.75	20222.16
603.946	19980.5
604.142	20164.81
604.338	20271.31
604.534	20498.63
604.73	20177.1
604.926	20361.42
605.122	20547.78
605.318	20482.25
605.514	20220.11
605.71	20277.45
605.906	20373.71
606.102	20648.13
606.298	20734.15
606.494	20605.13
606.69	20760.77
606.886	20836.55
607.082	20236.49
607.278	20711.62
607.474	20275.4
607.67	20891.84
607.866	20367.56
608.062	21039.29
608.257	20582.6
608.453	20988.1
608.649	20850.88
608.845	20984
609.041	21063.87
609.236	21137.6
609.432	21131.45
609.628	21229.76
609.824	21303.48
610.019	21031.1
610.215	21119.17
610.411	21473.46
610.606	21473.46
610.802	21543.1
610.998	21489.85
611.193	21553.34
611.389	21459.13
611.584	21661.88
611.78	21377.21
611.976	21520.57
612.171	21635.25
612.367	21795
612.562	21739.7
612.758	21543.1
612.953	21680.31
613.149	21801.14
613.344	21297.34
613.539	22120.62
613.735	21926.07
613.93	22014.13
614.126	21895.35
614.321	21944.5
614.517	22075.57
614.712	22091.95
614.907	21891.25
615.103	22173.87
615.298	21895.35
615.493	22225.07
615.688	21913.78
615.884	22452.39
616.079	21758.13
616.274	22059.18
616.47	22024.37
616.665	22057.14
616.86	22053.04
617.055	22024.37
617.25	21772.47
617.445	22079.66
617.641	22220.97
617.836	21907.63
618.031	22032.56
618.226	21964.98
618.421	22026.42
618.616	22171.82
618.811	21756.08
619.006	22349.99
619.201	21741.75
619.396	21858.48
619.591	21436.6
619.786	21840.05
619.981	21668.02
620.176	21698.74
620.371	21387.45
620.566	21627.06
620.761	21389.5
620.956	21674.17
621.151	21182.65
621.346	21287.1
621.541	21063.87
621.735	21579.96
621.93	21047.49
622.125	21135.55
622.32	21174.46
622.515	20975.81
622.709	20873.41
622.904	20637.89
623.099	20865.22
623.294	20596.93
623.488	20154.57
623.683	20625.61
623.878	20332.75
624.072	20381.9
624.267	20093.13
624.462	20021.45
624.656	19839.19
624.851	20041.93
625.046	19896.53
625.24	19843.28
625.435	19323.1
625.629	19603.67
625.824	19497.17
626.018	19482.84
626.213	19134.68
626.407	19144.92
626.602	18933.98
626.796	19036.38
626.991	19114.2
627.185	18905.31
627.38	18858.21
627.574	18774.24
627.768	18790.63
627.963	18407.66
628.157	18145.52
628.352	18512.1
628.546	18024.68
628.74	18467.05
628.935	18282.73
629.129	18176.23
629.323	17981.68
629.517	18014.45
629.712	17920.24
629.906	17590.52
630.1	17426.68
630.294	17596.66
630.489	17561.84
630.683	17596.66
630.877	17228.03
631.071	17109.24
631.265	17219.83
631.459	17252.6
631.653	17072.38
631.848	17080.57
632.042	16783.62
632.236	16736.51
632.43	16402.69
632.624	16683.27
632.818	16351.49
633.012	16183.56
633.206	16371.97
633.4	16419.08
633.594	16353.54
633.788	16271.62
633.982	16392.45
634.176	15966.48
634.369	15767.82
634.563	15964.43
634.757	15524.12
634.951	15833.36
635.145	15503.64
635.339	15474.96
635.533	15159.58
635.726	15544.59
635.92	15030.55
636.114	15298.84
636.308	14833.95
636.501	15040.79
636.695	15091.99
636.889	14602.53
637.083	14780.7
637.276	14780.7
637.47	14336.29
637.664	14508.32
637.857	14514.47
638.051	14287.14
638.244	14092.58
638.438	14000.43
638.632	14156.07
638.825	13951.28
639.019	13949.23
639.212	13910.32
639.406	13689.14
639.599	13744.43
639.793	13459.76
639.986	13300.02
640.18	13621.55
640.373	13533.49
640.567	13062.46
640.76	13148.47
640.954	13091.13
641.147	13015.35
641.34	13084.98
641.534	12898.62
641.727	12982.59
641.92	12812.6
642.114	12708.16
642.307	12597.57
642.5	12556.61
642.694	12337.48
642.887	12368.2
643.08	12429.63
643.273	12376.39
643.467	12230.98
643.66	12235.08
643.853	11991.37
644.046	11901.26
644.239	11911.5
644.432	11839.82
644.626	11755.85
644.819	11663.69
645.012	11675.98
645.205	11419.99
645.398	11329.88
645.591	11501.9
645.784	11356.5
645.977	11086.17
646.17	10912.09
646.363	11168.09
646.556	10940.76
646.749	11018.58
646.942	11018.58
647.135	10834.27
647.328	10637.66
647.521	10600.8
647.714	10592.61
647.907	10711.39
648.099	10486.11
648.292	10416.48
648.485	10545.5
648.678	10178.92
648.871	10203.49
649.064	10219.88
649.256	10211.68
649.449	10168.68
649.642	9918.82
649.835	10037.61
650.027	9871.72
650.22	9873.77
650.413	9791.85
650.605	9806.19
650.798	9578.86
650.991	9466.22
651.183	9519.47
651.376	9314.67
651.568	9519.47
651.761	9425.26
651.954	9507.18
652.146	9431.41
652.339	9382.26
652.531	9208.18
652.724	9169.27
652.916	9007.48
653.109	9052.53
653.301	9083.25
653.494	9030.01
653.686	8860.02
653.879	9062.77
654.071	8806.78
654.263	8755.58
654.456	8819.07
654.648	8778.11
654.84	8550.78
655.033	8606.08
655.225	8530.3
655.417	8393.09
655.61	8307.07
655.802	8544.64
655.994	8354.18
656.186	8415.62
656.379	8085.89
656.571	8427.9
656.763	8139.14
656.955	8237.44
657.148	8044.93
657.34	8079.75
657.532	8020.36
657.724	7979.4
657.916	7913.86
658.108	7967.11
658.3	7995.78
658.492	7858.57
658.684	7448.97
658.876	7721.35
659.068	7575.95
659.26	7860.62
659.452	7528.85
659.644	7549.32
659.836	7487.89
660.028	7391.63
660.22	7500.17
660.412	7360.91
660.604	7307.66
660.796	7334.29
660.988	7070.1
661.18	7125.4
661.372	7182.74
661.563	7315.86
661.755	6986.13
661.947	7010.71
662.139	6941.08
662.331	7000.47
662.522	6756.76
662.714	6773.14
662.906	6867.35
663.097	6664.6
663.289	6685.08
663.481	6644.12
663.673	6644.12
663.864	6697.37
664.056	6644.12
664.247	6670.75
664.439	6455.71
664.631	6394.27
664.822	6488.48
665.014	6324.64
665.205	6318.5
665.397	6424.99
665.588	6240.67
665.78	6265.25
665.971	6410.65
666.163	6363.55
666.354	6293.92
666.546	6097.31
666.737	6283.68
666.929	6089.12
667.12	6042.02
667.311	6070.69
667.503	5931.43
667.694	5982.63
667.885	5869.99
668.077	5853.61
668.268	5915.05
668.459	5865.89
668.651	5884.33
668.842	5671.34
669.033	5587.37
669.224	5697.96
669.416	5859.75
669.607	5722.54
669.798	5628.33
669.989	5663.15
670.18	5458.35
670.371	5478.83
670.563	5652.91
670.754	5472.68
670.945	5534.12
671.136	5435.82
671.327	5489.07
671.518	5452.2
671.709	5497.26
671.9	5386.67
672.091	5349.81
672.282	5333.42
672.473	5269.94
672.664	5353.9
672.855	5384.62
673.046	5310.89
673.237	5243.31
673.428	5292.46
673.619	5208.5
673.809	5124.53
674	5087.67
674.191	5120.43
674.382	5071.28
674.573	5104.05
674.764	4989.36
674.954	5005.75
675.145	4989.36
675.336	4997.56
675.527	4880.82
675.717	5013.94
675.908	4905.4
676.099	4827.57
676.289	4923.83
676.48	4915.64
676.671	4850.1
676.861	4987.32
677.052	4895.16
677.243	4934.07
677.433	4891.06
677.624	4874.68
677.814	4825.53
678.005	4981.17
678.195	4751.8
678.386	4784.57
678.576	4780.47
678.767	4776.38
678.957	4864.44
679.148	4921.78
679.338	4866.49
679.529	4663.74
679.719	4733.37
679.909	4878.77
680.1	4788.66
680.29	4770.23
680.481	4725.18
680.671	4735.42
680.861	4784.57
681.052	4790.71
681.242	4518.33
681.432	4665.78
681.622	4653.5
681.813	4561.34
682.003	4686.26
682.193	4491.71
682.383	4573.63
682.573	4524.47
682.764	4565.43
682.954	4704.7
683.144	4612.54
683.334	4405.69
683.524	4600.25
683.714	4592.06
683.904	4645.31
684.094	4641.21
684.284	4499.9
684.474	4620.73
684.664	4442.56
684.854	4499.9
685.044	4555.19
685.234	4491.71
685.424	4536.76
685.614	4397.5
685.804	4524.47
685.994	4485.56
686.184	4424.12
686.374	4587.96
686.564	4526.52
686.753	4221.38
686.943	4352.45
687.133	4456.89
687.323	4366.78
687.513	4377.02
687.702	4383.17
687.892	4317.63
688.082	4346.3
688.272	4401.6
688.461	4334.01
688.651	4542.91
688.841	4252.1
689.03	4315.58
689.22	4198.85
689.41	4334.01
689.599	4202.94
689.789	4288.96
689.979	4342.21
690.168	4190.66
690.358	4133.31
690.547	4149.7
690.737	4350.4
690.926	4223.42
691.116	4121.03
691.305	4284.86
691.495	4186.56
691.684	4073.92
691.874	4170.18
692.063	4239.81
692.252	4080.07
692.442	4231.62
692.631	4252.1
692.82	4196.8
693.01	4030.91
693.199	4139.46
693.388	4088.26
693.578	4067.78
693.767	3967.43
693.956	3959.24
694.146	4149.7
694.335	4055.49
694.524	4022.72
694.713	4202.94
694.902	3955.14
695.092	3994.05
695.281	3881.41
695.47	4088.26
695.659	4063.68
695.848	4080.07
696.037	3985.86
696.226	3973.57
696.415	3936.71
696.604	3867.08
696.793	3875.27
696.982	3926.47
697.171	3949
697.36	3959.24
697.549	3838.41
697.738	3871.17
697.927	3742.15
698.116	3936.71
698.305	3795.4
698.494	3989.96
698.683	3932.61
698.872	3877.32
699.061	3795.4
699.25	3879.36
699.438	3789.25
699.627	3711.43
699.816	3811.78
700.005	3781.06
700.193	3893.7
700.382	3862.98
700.571	3600.84
700.76	3729.86
700.948	3867.08
701.137	3785.16
701.326	3926.47
701.514	3822.02
701.703	3760.58
701.892	3787.21
702.08	3809.73
702.269	3670.47
702.457	3742.15
702.646	3836.36
702.834	3639.75
703.023	3637.7
703.212	3582.41
703.4	3664.33
703.589	3541.45
703.777	3660.23
703.965	3635.66
704.154	3619.27
704.342	3611.08
704.531	3469.77
704.719	3588.55
704.907	3611.08
705.096	3404.24
705.284	3490.25
705.472	3566.03
705.661	3549.64
705.849	3434.96
706.037	3615.18
706.226	3506.63
706.414	3523.02
706.602	3428.81
706.79	3449.29
706.979	3383.76
707.167	3506.63
707.355	3457.48
707.543	3336.65
707.731	3367.37
707.919	3457.48
708.107	3295.69
708.296	3213.77
708.484	3271.12
708.672	3402.19
708.86	3287.5
709.048	3283.41
709.236	3412.43
709.424	3355.08
709.612	3305.93
709.8	3293.65
709.988	3207.63
710.176	3305.93
710.364	3238.35
710.551	3310.03
710.739	3185.1
710.927	3240.4
711.115	3138
711.303	3338.7
711.491	3199.44
711.679	3191.25
711.866	3154.38
712.054	3164.62
712.242	3047.89
712.43	3203.54
712.617	3148.24
712.805	3113.42
712.993	3181.01
713.181	3015.12
713.368	3219.92
713.556	3109.33
713.744	2974.16
713.931	3117.52
714.119	3060.18
714.306	2982.35
714.494	3080.66
714.682	2937.3
714.869	3066.32
715.057	2953.68
715.244	2867.67
715.432	3099.09
715.619	2990.55
715.807	3103.18
715.994	2990.55
716.182	2888.15
716.369	2968.02
716.556	2849.24
716.744	2908.63
716.931	2867.67
717.119	2925.01
717.306	2863.57
717.493	2933.2
717.681	2814.42
717.868	2834.9
718.055	2898.39
718.242	2746.84
718.43	2802.13
718.617	2863.57
718.804	2738.65
718.991	2785.75
719.179	2765.27
719.366	2716.12
719.553	2798.04
719.74	2640.34
719.927	2689.49
720.114	2818.52
720.301	2693.59
720.488	2695.64
720.676	2623.96
720.863	2630.1
721.05	2755.03
721.237	2714.07
721.424	2613.72
721.611	2607.58
721.798	2654.68
721.985	2552.28
722.172	2566.62
722.358	2597.34
722.545	2820.56
722.732	2460.12
722.919	2560.47
723.106	2589.14
723.293	2531.8
723.48	2691.54
723.667	2466.27
723.853	2615.77
724.04	2447.83
724.227	2492.89
724.414	2394.59
724.6	2445.79
724.787	2429.4
724.974	2597.34
725.161	2519.51
725.347	2419.16
725.534	2492.89
725.72	2413.02
725.907	2347.48
726.094	2433.5
726.28	2355.68
726.467	2425.31
726.653	2458.07
726.84	2431.45
727.027	2507.23
727.213	2370.01
727.4	2410.97
727.586	2302.43
727.773	2345.44
727.959	2451.93
728.145	2349.53
728.332	2413.02
728.518	2400.73
728.705	2367.96
728.891	2413.02
729.077	2302.43
729.264	2240.99
729.45	2284
729.636	2363.87
729.823	2226.65
730.009	2335.2
730.195	2298.33
730.382	2310.62
730.568	2146.78
730.754	2294.24
730.94	2269.66
731.126	2212.32
731.313	2226.65
731.499	2281.95
731.685	2249.18
731.871	2212.32
732.057	2200.03
732.243	2279.9
732.429	2157.02
732.615	2179.55
732.801	2187.74
732.987	2120.16
733.173	2202.08
733.359	2058.72
733.545	2212.32
733.731	2050.53
733.917	2251.23
734.103	2263.52
734.289	2140.64
734.475	2077.15
734.661	2263.52
734.847	2154.98
735.033	2044.38
735.219	2124.26
735.404	2114.02
735.59	2144.74
735.776	2093.54
735.962	2085.34
736.148	1999.33
736.333	2017.76
736.519	2091.49
736.705	2091.49
736.89	2007.52
737.076	2034.14
737.262	2136.54
737.447	2025.95
737.633	2032.1
737.819	1987.04
738.004	1876.45
738.19	1980.9
738.375	1993.19
738.561	2001.38
738.747	1952.23
738.932	1901.03
739.118	2007.52
739.303	1984.99
739.489	2015.71
739.674	1878.5
739.859	1802.72
740.045	2023.91
740.23	1909.22
740.416	1747.43
740.601	1853.92
740.786	1786.34
740.972	1776.1
741.157	1860.07
741.342	1796.58
741.528	1802.72
741.713	1837.54
741.898	1763.81
742.084	1823.2
742.269	1860.07
742.454	1823.2
742.639	1866.21
742.824	1722.85
743.01	1792.48
743.195	1825.25
743.38	1790.44
743.565	1778.15
743.75	1729
743.935	1638.89
744.12	1753.57
744.305	1561.06
744.49	1708.52
744.675	1690.09
744.86	1671.65
745.045	1665.51
745.23	1729
745.415	1640.93
745.6	1665.51
745.785	1632.74
745.97	1833.44
746.155	1634.79
746.34	1690.09
746.525	1597.93
746.71	1583.59
746.895	1565.16
747.079	1497.58
747.264	1454.57
747.449	1556.97
747.634	1589.74
747.819	1454.57
748.003	1507.82
748.188	1393.13
748.373	1524.2
748.557	1532.39
748.742	1460.71
748.927	1536.49
749.111	1528.3
749.296	1384.94
749.481	1389.03
749.665	1376.75
749.85	1466.86
750.034	1413.61
750.219	1464.81
750.404	1339.88
750.588	1360.36
750.773	1358.32
750.957	1335.79
751.141	1286.64
751.326	1376.75
751.51	1321.45
751.695	1239.53
751.879	1393.13
752.064	1317.36
752.248	1307.12
752.432	1350.12
752.617	1339.88
752.801	1182.19
752.985	1245.68
753.17	1221.1
753.354	1204.72
753.538	1182.19
753.722	1143.28
753.907	1229.29
754.091	1176.05
754.275	1294.83
754.459	1184.24
754.643	1161.71
754.828	1182.19
755.012	1225.2
755.196	1081.84
755.38	1163.76
755.564	1110.51
755.748	1081.84
755.932	1075.7
756.116	1065.46
756.3	1044.98
756.484	1026.54
756.668	1130.99
756.852	1049.07
757.036	1090.03
757.22	1040.88
757.404	1034.74
757.588	1051.12
757.772	1077.74
757.956	1067.5
758.14	1126.89
758.323	1032.69
758.507	1030.64
758.691	1020.4
758.875	901.62
759.059	1040.88
759.242	1026.54
759.426	971.25
759.61	1049.07
759.794	897.52
759.977	987.63
760.161	969.2
760.345	1040.88
760.528	991.73
760.712	918
760.895	991.73
761.079	903.67
761.263	936.43
761.446	907.76
761.63	866.8
761.813	954.87
761.997	897.52
762.18	924.15
762.364	895.47
762.547	901.62
762.731	952.82
762.914	920.05
763.098	926.19
763.281	836.08
763.464	836.08
763.648	780.79
763.831	893.43
764.015	854.51
764.198	811.51
764.381	893.43
764.564	868.85
764.748	899.57
764.931	809.46
765.114	872.95
765.297	858.61
765.481	831.99
765.664	823.8
765.847	854.51
766.03	817.65
766.213	741.88
766.397	819.7
766.58	786.93
766.763	729.59
766.946	793.08
767.129	741.88
767.312	778.74
767.495	723.44
767.678	782.84
767.861	823.8
768.044	848.37
768.227	799.22
768.41	715.25
768.593	745.97
768.776	795.12
768.959	762.36
769.142	862.71
769.324	772.6
769.507	805.36
769.69	780.79
769.873	729.59
770.056	807.41
770.239	729.59
770.421	735.73
770.604	758.26
770.787	715.25
770.97	715.25
771.152	750.07
771.335	719.35
771.518	674.29
771.7	717.3
771.883	758.26
772.066	688.63
772.248	731.64
772.431	758.26
772.613	715.25
772.796	705.01
772.978	745.97
773.161	795.12
773.343	737.78
773.526	680.44
773.708	584.18
773.891	676.34
774.073	614.9
774.256	590.33
774.438	627.19
774.621	621.05
774.803	684.53
774.985	600.57
775.168	606.71
775.35	610.81
775.532	582.14
775.715	616.95
775.897	672.25
776.079	590.33
776.261	625.14
776.444	647.67
776.626	619
776.808	518.65
776.99	516.6
777.173	502.26
777.355	524.79
777.537	541.18
777.719	549.37
777.901	619
778.083	526.84
778.265	545.27
778.447	549.37
778.629	631.29
778.811	598.52
778.993	582.14
779.175	565.75
779.357	512.5
779.539	524.79
779.721	557.56
779.903	537.08
780.085	475.64
780.267	506.36
780.449	522.74
780.631	532.98
780.812	475.64
780.994	598.52
781.176	406.01
781.358	446.97
781.54	475.64
781.721	446.97
781.903	516.6
782.085	485.88
782.267	436.73
782.448	381.43
782.63	467.45
782.812	487.93
782.993	426.49
783.175	461.3
783.357	496.12
783.538	430.59
783.72	444.92
783.901	426.49
784.083	393.72
784.264	449.02
784.446	360.95
784.627	320
784.809	420.35
784.99	369.15
785.172	332.28
785.353	352.76
785.535	330.23
785.716	428.54
785.897	426.49
786.079	461.3
786.26	377.34
786.441	461.3
786.623	356.86
786.804	352.76
786.985	385.53
787.167	442.87
787.348	381.43
787.529	289.28
787.71	434.68
787.891	330.23
788.073	299.52
788.254	307.71
788.435	363
788.616	363
788.797	262.65
788.978	336.38
789.159	254.46
789.34	418.3
789.522	287.23
789.703	279.04
789.884	340.47
790.065	317.95
790.246	371.19
790.427	313.85
790.607	272.89
790.788	338.43
790.969	320
791.15	311.8
791.331	295.42
791.512	299.52
791.693	227.84
791.874	246.27
792.054	348.67
792.235	313.85
792.416	246.27
792.597	246.27
792.778	283.13
792.958	266.75
793.139	274.94
793.32	313.85
793.5	156.16
793.681	305.66
793.862	254.46
794.042	311.8
794.223	242.17
794.404	182.78
794.584	244.22
794.765	229.88
794.945	297.47
795.126	264.7
795.306	250.36
795.487	233.98
795.667	336.38
795.848	246.27
796.028	186.88
796.209	246.27
796.389	258.56
796.57	254.46
796.75	184.83
796.93	223.74
797.111	190.97
797.291	199.16
797.471	264.7
797.652	209.4
797.832	190.97
798.012	156.16
798.192	193.02
798.373	240.12
798.553	248.32
798.733	225.79
798.913	195.07
799.093	238.08
799.274	188.93
799.454	174.59
799.634	166.4
799.814	190.97
799.994	182.78
800.174	190.97
800.354	242.17
800.534	186.88
800.714	219.64
800.894	74.24
801.074	131.58
801.254	195.07
801.434	311.8
801.614	150.01
801.794	133.63
801.974	938.48
802.154	152.06
802.334	219.64
802.514	221.69
802.693	223.74
802.873	125.44
803.053	166.4
803.233	143.87
803.413	90.62
803.592	115.2
803.772	188.93
803.952	193.02
804.131	147.97
804.311	164.35
804.491	205.31
804.67	180.73
804.85	141.82
805.03	94.72
805.209	270.84
805.389	172.54
805.568	219.64
805.748	115.2
805.928	145.92
806.107	246.27
806.287	145.92
806.466	107.01
806.646	158.21
806.825	129.53
807.004	229.88
807.184	100.86
807.363	164.35
807.543	205.31
807.722	168.45
807.901	147.97
808.081	121.34
808.26	133.63
808.439	225.79
808.619	100.86
808.798	156.16
808.977	139.77
809.156	174.59
809.336	127.49
809.515	92.67
809.694	107.01
809.873	107.01
810.052	152.06
810.231	184.83
810.411	125.44
810.59	205.31
810.769	72.19
810.948	172.54
811.127	35.33
811.306	90.62
811.485	127.49
811.664	135.68
811.843	182.78
812.022	84.48
812.201	35.33
812.38	107.01
812.559	143.87
812.737	115.2
812.916	16.9
813.095	139.77
813.274	139.77
813.453	168.45
813.632	160.25
813.811	141.82
813.989	113.15
814.168	205.31
814.347	84.48
814.526	86.53
814.704	143.87
814.883	188.93
815.062	51.71
815.24	98.81
815.419	156.16
815.598	84.48
815.776	123.39
815.955	90.62
816.133	66.05
816.312	70.14
816.49	88.57
816.669	82.43
816.847	68.09
817.026	115.2
817.204	123.39
817.383	107.01
817.561	49.66
817.74	74.24
817.918	47.62
818.097	66.05
818.275	18.94
818.453	59.9
818.632	84.48
818.81	90.62
818.988	43.52
819.167	57.86
819.345	94.72
819.523	117.25
819.701	98.81
819.879	98.81
820.058	141.82
820.236	117.25
820.414	14.85
820.592	115.2
820.77	176.64
820.948	125.44
821.127	94.72
821.305	86.53
821.483	66.05
821.661	117.25
821.839	121.34
822.017	80.38
822.195	59.9
822.373	84.48
822.551	76.29
822.729	121.34
822.907	74.24
823.085	90.62
823.262	139.77
823.44	18.94
823.618	31.23
823.796	66.05
823.974	70.14
824.152	33.28
824.329	49.66
824.507	121.34
824.685	98.81
824.863	90.62
825.04	156.16
825.218	92.67
825.396	76.29
825.574	33.28
825.751	109.05
825.929	82.43
826.107	14.85
826.284	53.76
826.462	94.72
826.639	45.57
826.817	43.52
826.994	43.52
827.172	31.23
827.349	78.33
827.527	57.86
827.704	29.18
827.882	82.43
828.059	12.8
828.237	35.33
828.414	78.33
828.591	41.47
828.769	100.86
828.946	27.14
829.124	33.28
829.301	66.05
829.478	-11.78
829.655	139.77
829.833	57.86
830.01	51.71
830.187	70.14
830.364	90.62
830.542	127.49
830.719	82.43
830.896	94.72
831.073	33.28
831.25	125.44
831.427	76.29
831.604	-22.02
831.782	33.28
831.959	57.86
832.136	143.87
832.313	82.43
832.49	39.42
832.667	33.28
832.844	35.33
833.021	49.66
833.198	18.94
833.374	47.62
833.551	98.81
833.728	86.53
833.905	74.24
834.082	82.43
834.259	115.2
834.436	51.71
834.612	18.94
834.789	92.67
834.966	-73.21
835.143	59.9
835.319	-40.45
835.496	111.1
835.673	86.53
835.85	86.53
836.026	107.01
836.203	53.76
836.38	115.2
836.556	41.47
836.733	45.57
836.909	115.2
837.086	10.75
837.262	-7.68
837.439	119.29
837.616	-32.26
837.792	49.66
837.968	-44.54
838.145	16.9
838.321	-54.78
838.498	78.33
838.674	109.05
838.851	84.48
839.027	61.95
839.203	51.71
839.38	10.75
839.556	29.18
839.732	84.48
839.909	25.09
840.085	88.57
840.261	18.94
840.437	53.76
840.614	18.94
840.79	84.48
840.966	25.09
841.142	59.9
841.318	45.57
841.494	-71.17
841.671	76.29
841.847	-3.58
842.023	33.28
842.199	12.8
842.375	25.09
842.551	-48.64
842.727	35.33
842.903	88.57
843.079	-5.63
843.255	100.86
843.431	-44.54
843.607	33.28
843.783	0.51
843.959	-13.82
844.134	-44.54
844.31	123.39
844.486	37.38
844.662	-15.87
844.838	35.33
845.013	-5.63
845.189	109.05
845.365	27.14
845.541	0.51
845.716	74.24
845.892	143.87
846.068	84.48
846.244	16.9
846.419	90.62
846.595	-40.45
846.77	10.75
846.946	35.33
847.122	-22.02
847.297	4.61
847.473	53.76
847.648	-28.16
847.824	-87.55
847.999	-73.21
848.175	25.09
848.35	33.28
848.526	14.85
848.701	10.75
848.876	57.86
849.052	29.18
849.227	74.24
849.403	35.33
849.578	-40.45
849.753	-7.68
849.929	41.47
850.104	-26.11
850.279	33.28
850.454	18.94
850.63	33.28
850.805	10.75
850.98	39.42
851.155	0.51
851.33	-28.16
851.505	18.94
851.681	57.86
851.856	4.61
852.031	-3.58
852.206	-11.78
852.381	10.75
852.556	-28.16
852.731	37.38
852.906	49.66
853.081	23.04
853.256	43.52
853.431	-32.26
853.606	-34.3
853.781	-7.68
853.956	-44.54
854.131	-75.26
854.305	-60.93
854.48	-24.06
854.655	10.75
854.83	-67.07
855.005	25.09
855.18	-56.83
855.354	-46.59
855.529	-22.02
855.704	0.51
855.879	-32.26
856.053	41.47
856.228	66.05
856.403	-56.83
856.577	55.81
856.752	119.29
856.926	-56.83
857.101	27.14
857.276	37.38
857.45	-40.45
857.625	23.04
857.799	57.86
857.974	-7.68
858.148	-99.84
858.323	25.09
858.497	51.71
858.672	-38.4
858.846	0.51
859.02	41.47
859.195	-3.58
859.369	-3.58
859.543	8.7
859.718	10.75
859.892	45.57
860.066	2.56
860.241	-5.63
860.415	-19.97
860.589	31.23
860.763	2.56
860.938	94.72
861.112	25.09
861.286	-36.35
861.46	8.7
861.634	-22.02
861.808	-30.21
861.982	-77.31
862.157	39.42
862.331	-48.64
862.505	-3.58
862.679	-44.54
862.853	-30.21
863.027	25.09
863.201	70.14
863.375	39.42
863.549	51.71
863.722	35.33
863.896	41.47
864.07	-7.68
864.244	41.47
864.418	-24.06
864.592	-89.6
864.766	-42.5
864.939	0.51
865.113	-11.78
865.287	49.66
865.461	4.61
865.634	74.24
865.808	-22.02
865.982	0.51
866.156	-48.64
866.329	-7.68
866.503	12.8
866.676	18.94
866.85	25.09
867.024	-34.3
867.197	25.09
867.371	57.86
867.544	0.51
867.718	-67.07
867.891	-44.54
868.065	-77.31
868.238	49.66
868.412	2.56
868.585	90.62
868.759	-48.64
868.932	39.42
869.105	-15.87
869.279	35.33
869.452	10.75
869.625	-24.06
869.799	12.8
869.972	25.09
870.145	-32.26
870.319	10.75
870.492	-22.02
870.665	-7.68
870.838	-38.4
871.011	-87.55
871.185	45.57
871.358	-7.68
871.531	59.9
871.704	-5.63
871.877	20.99
872.05	43.52
872.223	-24.06
872.396	8.7
872.569	29.18
872.742	-26.11
872.915	-7.68
873.088	-44.54
873.261	8.7
873.434	-73.21
873.607	8.7
873.78	-9.73
873.953	-44.54
874.126	16.9
874.299	-34.3
874.471	-71.17
874.644	-5.63
874.817	-13.82
874.99	-28.16
875.163	0.51
875.335	51.71
875.508	-56.83
875.681	16.9
875.853	-60.93
876.026	-54.78
876.199	-65.02
876.371	-36.35
876.544	-7.68
876.717	16.9
876.889	-42.5
877.062	-7.68
877.234	-24.06
877.407	-40.45
877.579	-56.83
877.752	-44.54
877.924	-32.26
878.097	18.94
878.269	-79.36
878.442	49.66
878.614	-9.73
878.786	-11.78
878.959	33.28
879.131	23.04
879.303	-40.45
879.476	39.42
879.648	37.38
879.82	47.62
879.993	-17.92
880.165	-36.35
880.337	-48.64
880.509	0.51
880.681	-153.09
880.854	-15.87
881.026	-15.87
881.198	92.67
881.37	12.8
881.542	-65.02
881.714	-7.68
881.886	-36.35
882.058	16.9
882.23	10.75
882.402	18.94
882.574	41.47
882.746	4.61
882.918	37.38
883.09	-19.97
883.262	31.23
883.434	10.75
883.606	-22.02
883.778	-65.02
883.95	53.76
884.122	-73.21
884.293	-34.3
884.465	20.99
884.637	-24.06
884.809	-13.82
884.98	-40.45
885.152	18.94
885.324	-32.26
885.496	-93.69
885.667	-62.98
885.839	82.43
886.011	33.28
886.182	-3.58
886.354	-69.12
886.525	-19.97
886.697	-15.87
886.869	0.51
887.04	68.09
887.212	43.52
887.383	35.33
887.555	-1.54
887.726	-38.4
887.897	-11.78
888.069	-24.06
888.24	37.38
888.412	-73.21
888.583	-24.06
888.754	-48.64
888.926	-65.02
889.097	0.51
889.268	-73.21
889.44	33.28
889.611	-19.97
889.782	-65.02
889.953	-44.54
890.125	98.81
890.296	-73.21
890.467	12.8
890.638	27.14
890.809	66.05
890.98	-32.26
891.151	37.38
891.323	-3.58
891.494	35.33
891.665	0.51
891.836	10.75
892.007	-7.68
892.178	33.28
892.349	-28.16
892.52	-24.06
892.691	4.61
892.862	-50.69
893.032	-42.5
893.203	51.71
893.374	-48.64
893.545	25.09
893.716	-5.63
893.887	45.57
894.057	-5.63
894.228	-26.11
894.399	-105.98
894.57	41.47
894.74	-3.58
894.911	-60.93
895.082	-81.41
895.253	-91.65
895.423	0.51
895.594	37.38
895.764	20.99
895.935	-161.28
896.106	33.28
896.276	2.56
896.447	-28.16
896.617	-54.78
896.788	-65.02
896.958	-32.26
897.129	-97.79
897.299	10.75
897.47	121.34
897.64	90.62
897.81	-58.88
897.981	-22.02
898.151	-42.5
898.322	-3.58
898.492	8.7
898.662	-81.41
898.832	53.76
899.003	-11.78
899.173	43.52
899.343	-105.98
899.513	-34.3
