Data from USB4F104151__96__14-30-46-918.txt Node

Date: Thu Mar 13 14:30:46 EDT 2025
User: louis
Spectrometer: USB4F10415
Trigger mode: 4
Integration Time (sec): 2.500000E-2
Scans to average: 1
Electric dark correction enabled: true
Nonlinearity correction enabled: false
Boxcar width: 0
XAxis mode: Wavelengths
Number of Pixels in Spectrum: 3648
>>>>>Begin Spectral Data<<<<<
178.204	-190.46
178.424	-190.46
178.644	-190.46
178.864	-147.45
179.084	-104.45
179.304	-59.39
179.524	-14.34
179.744	-75.77
179.964	38.91
180.184	30.72
180.404	47.1
180.624	14.34
180.844	73.73
181.064	-24.58
181.283	-4.1
181.503	-18.43
181.723	-8.19
181.943	-2.05
182.163	118.78
182.383	40.96
182.602	49.15
182.822	90.11
183.042	88.06
183.262	0
183.482	34.82
183.701	16.38
183.921	83.97
184.141	55.3
184.361	73.73
184.58	61.44
184.8	112.64
185.02	-2.05
185.239	100.35
185.459	12.29
185.679	-10.24
185.898	63.49
186.118	55.3
186.338	30.72
186.557	18.43
186.777	92.16
186.997	12.29
187.216	143.36
187.436	69.63
187.655	79.87
187.875	104.45
188.095	88.06
188.314	30.72
188.534	71.68
188.753	18.43
188.973	98.3
189.192	145.41
189.412	47.1
189.631	47.1
189.851	63.49
190.07	73.73
190.29	14.34
190.509	38.91
190.729	-10.24
190.948	88.06
191.168	169.98
191.387	96.25
191.607	43.01
191.826	108.54
192.045	-20.48
192.265	6.14
192.484	96.25
192.704	81.92
192.923	51.2
193.142	120.83
193.362	79.87
193.581	108.54
193.8	104.45
194.02	155.65
194.239	2.05
194.458	55.3
194.678	-6.14
194.897	137.21
195.116	151.55
195.335	49.15
195.555	83.97
195.774	112.64
195.993	47.1
196.212	96.25
196.432	0
196.651	92.16
196.87	34.82
197.089	120.83
197.308	57.34
197.528	102.4
197.747	-2.05
197.966	45.06
198.185	61.44
198.404	30.72
198.623	143.36
198.842	114.69
199.062	88.06
199.281	47.1
199.5	-45.06
199.719	47.1
199.938	79.87
200.157	43.01
200.376	55.3
200.595	98.3
200.814	22.53
201.033	79.87
201.252	137.21
201.471	18.43
201.69	40.96
201.909	45.06
202.128	59.39
202.347	96.25
202.566	43.01
202.785	10.24
203.004	-2.05
203.223	153.6
203.442	22.53
203.661	18.43
203.879	110.59
204.098	55.3
204.317	16.38
204.536	-36.86
204.755	14.34
204.974	96.25
205.193	83.97
205.411	137.21
205.63	55.3
205.849	104.45
206.068	96.25
206.287	26.62
206.505	129.02
206.724	-26.62
206.943	34.82
207.162	63.49
207.381	75.77
207.599	26.62
207.818	102.4
208.037	88.06
208.255	124.93
208.474	71.68
208.693	51.2
208.911	83.97
209.13	106.49
209.349	0
209.567	90.11
209.786	47.1
210.005	47.1
210.223	30.72
210.442	2.05
210.661	59.39
210.879	90.11
211.098	65.54
211.316	88.06
211.535	38.91
211.753	4.1
211.972	169.98
212.191	57.34
212.409	-10.24
212.628	86.01
212.846	49.15
213.065	77.82
213.283	104.45
213.502	63.49
213.72	30.72
213.938	34.82
214.157	10.24
214.375	108.54
214.594	26.62
214.812	40.96
215.031	43.01
215.249	110.59
215.467	71.68
215.686	8.19
215.904	43.01
216.122	55.3
216.341	96.25
216.559	59.39
216.778	49.15
216.996	59.39
217.214	43.01
217.432	43.01
217.651	88.06
217.869	32.77
218.087	98.3
218.306	141.31
218.524	98.3
218.742	24.58
218.96	102.4
219.179	-6.14
219.397	59.39
219.615	116.73
219.833	120.83
220.051	75.77
220.27	153.6
220.488	-47.1
220.706	63.49
220.924	-40.96
221.142	100.35
221.36	51.2
221.578	59.39
221.796	-10.24
222.015	79.87
222.233	38.91
222.451	71.68
222.669	8.19
222.887	73.73
223.105	24.58
223.323	38.91
223.541	-12.29
223.759	63.49
223.977	43.01
224.195	63.49
224.413	88.06
224.631	98.3
224.849	45.06
225.067	100.35
225.285	-2.05
225.503	22.53
225.721	-6.14
225.939	53.25
226.157	81.92
226.375	176.13
226.592	47.1
226.81	92.16
227.028	63.49
227.246	38.91
227.464	-6.14
227.682	139.26
227.9	43.01
228.117	40.96
228.335	63.49
228.553	36.86
228.771	94.21
228.989	118.78
229.206	22.53
229.424	88.06
229.642	-14.34
229.86	88.06
230.077	71.68
230.295	59.39
230.513	14.34
230.731	57.34
230.948	8.19
231.166	69.63
231.384	83.97
231.601	63.49
231.819	36.86
232.037	12.29
232.254	4.1
232.472	63.49
232.689	43.01
232.907	71.68
233.125	96.25
233.342	12.29
233.56	38.91
233.777	73.73
233.995	63.49
234.213	145.41
234.43	49.15
234.648	47.1
234.865	55.3
235.083	49.15
235.3	57.34
235.518	126.97
235.735	147.45
235.953	32.77
236.17	67.58
236.388	100.35
236.605	96.25
236.822	51.2
237.04	59.39
237.257	126.97
237.475	-2.05
237.692	73.73
237.909	81.92
238.127	16.38
238.344	24.58
238.562	57.34
238.779	22.53
238.996	67.58
239.214	61.44
239.431	43.01
239.648	120.83
239.865	14.34
240.083	116.73
240.3	55.3
240.517	51.2
240.735	79.87
240.952	96.25
241.169	53.25
241.386	34.82
241.603	40.96
241.821	28.67
242.038	116.73
242.255	53.25
242.472	16.38
242.689	26.62
242.907	32.77
243.124	36.86
243.341	47.1
243.558	65.54
243.775	73.73
243.992	43.01
244.209	61.44
244.426	172.03
244.643	57.34
244.86	34.82
245.078	122.88
245.295	88.06
245.512	59.39
245.729	34.82
245.946	124.93
246.163	90.11
246.38	43.01
246.597	38.91
246.814	51.2
247.031	100.35
247.248	63.49
247.464	129.02
247.681	63.49
247.898	-24.58
248.115	49.15
248.332	14.34
248.549	14.34
248.766	90.11
248.983	98.3
249.2	71.68
249.417	79.87
249.633	75.77
249.85	47.1
250.067	4.1
250.284	81.92
250.501	47.1
250.717	104.45
250.934	59.39
251.151	10.24
251.368	24.58
251.585	106.49
251.801	28.67
252.018	14.34
252.235	69.63
252.451	24.58
252.668	40.96
252.885	120.83
253.102	65.54
253.318	79.87
253.535	77.82
253.752	38.91
253.968	120.83
254.185	73.73
254.401	40.96
254.618	135.17
254.835	-6.14
255.051	129.02
255.268	65.54
255.484	43.01
255.701	73.73
255.917	32.77
256.134	47.1
256.351	28.67
256.567	10.24
256.784	98.3
257	-8.19
257.217	71.68
257.433	159.74
257.65	61.44
257.866	81.92
258.082	30.72
258.299	45.06
258.515	55.3
258.732	129.02
258.948	32.77
259.165	69.63
259.381	43.01
259.597	151.55
259.814	43.01
260.03	49.15
260.246	38.91
260.463	34.82
260.679	90.11
260.895	83.97
261.112	102.4
261.328	75.77
261.544	75.77
261.761	139.26
261.977	73.73
262.193	6.14
262.409	153.6
262.626	53.25
262.842	114.69
263.058	22.53
263.274	6.14
263.49	75.77
263.707	104.45
263.923	81.92
264.139	-10.24
264.355	73.73
264.571	112.64
264.787	63.49
265.004	124.93
265.22	2.05
265.436	114.69
265.652	53.25
265.868	129.02
266.084	-2.05
266.3	147.45
266.516	47.1
266.732	90.11
266.948	116.73
267.164	36.86
267.38	55.3
267.596	79.87
267.812	112.64
268.028	57.34
268.244	14.34
268.46	92.16
268.676	43.01
268.892	28.67
269.108	133.12
269.324	30.72
269.54	26.62
269.756	112.64
269.972	0
270.188	0
270.403	24.58
270.619	63.49
270.835	108.54
271.051	-2.05
271.267	65.54
271.483	14.34
271.698	-10.24
271.914	124.93
272.13	49.15
272.346	34.82
272.562	98.3
272.777	40.96
272.993	57.34
273.209	79.87
273.425	147.45
273.64	-24.58
273.856	120.83
274.072	16.38
274.287	63.49
274.503	137.21
274.719	73.73
274.934	16.38
275.15	-4.1
275.366	55.3
275.581	69.63
275.797	57.34
276.012	55.3
276.228	-2.05
276.444	47.1
276.659	6.14
276.875	34.82
277.09	88.06
277.306	90.11
277.521	133.12
277.737	77.82
277.952	88.06
278.168	61.44
278.383	112.64
278.599	75.77
278.814	88.06
279.03	71.68
279.245	174.08
279.461	65.54
279.676	92.16
279.892	106.49
280.107	22.53
280.322	14.34
280.538	47.1
280.753	26.62
280.969	120.83
281.184	63.49
281.399	116.73
281.615	47.1
281.83	129.02
282.045	40.96
282.26	0
282.476	61.44
282.691	14.34
282.906	28.67
283.122	73.73
283.337	34.82
283.552	38.91
283.767	26.62
283.983	71.68
284.198	129.02
284.413	26.62
284.628	14.34
284.843	51.2
285.058	219.13
285.274	69.63
285.489	-16.38
285.704	63.49
285.919	55.3
286.134	2.05
286.349	22.53
286.564	-2.05
286.779	96.25
286.995	147.45
287.21	0
287.425	98.3
287.64	57.34
287.855	118.78
288.07	-30.72
288.285	139.26
288.5	215.04
288.715	61.44
288.93	-59.39
289.145	38.91
289.36	51.2
289.575	77.82
289.79	30.72
290.004	81.92
290.219	57.34
290.434	-14.34
290.649	94.21
290.864	55.3
291.079	-14.34
291.294	51.2
291.509	47.1
291.724	79.87
291.938	104.45
292.153	124.93
292.368	65.54
292.583	49.15
292.798	47.1
293.012	88.06
293.227	83.97
293.442	53.25
293.657	94.21
293.871	116.73
294.086	88.06
294.301	120.83
294.516	55.3
294.73	51.2
294.945	63.49
295.16	-12.29
295.374	96.25
295.589	81.92
295.804	14.34
296.018	73.73
296.233	153.6
296.447	151.55
296.662	86.01
296.877	92.16
297.091	139.26
297.306	88.06
297.52	-6.14
297.735	83.97
297.949	26.62
298.164	88.06
298.378	75.77
298.593	104.45
298.807	36.86
299.022	40.96
299.236	38.91
299.451	69.63
299.665	10.24
299.88	149.5
300.094	40.96
300.309	83.97
300.523	59.39
300.737	34.82
300.952	57.34
301.166	88.06
301.381	83.97
301.595	92.16
301.809	12.29
302.024	57.34
302.238	-12.29
302.452	124.93
302.667	-20.48
302.881	92.16
303.095	88.06
303.309	47.1
303.524	-8.19
303.738	65.54
303.952	55.3
304.166	129.02
304.381	6.14
304.595	83.97
304.809	69.63
305.023	118.78
305.237	-26.62
305.452	-8.19
305.666	63.49
305.88	96.25
306.094	69.63
306.308	51.2
306.522	92.16
306.736	51.2
306.95	49.15
307.164	71.68
307.379	96.25
307.593	92.16
307.807	73.73
308.021	75.77
308.235	77.82
308.449	38.91
308.663	98.3
308.877	176.13
309.091	2.05
309.305	157.69
309.519	36.86
309.733	155.65
309.947	104.45
310.161	49.15
310.374	22.53
310.588	104.45
310.802	71.68
311.016	108.54
311.23	49.15
311.444	81.92
311.658	43.01
311.872	120.83
312.085	104.45
312.299	59.39
312.513	104.45
312.727	71.68
312.941	63.49
313.154	131.07
313.368	100.35
313.582	47.1
313.796	55.3
314.009	79.87
314.223	114.69
314.437	49.15
314.651	192.51
314.864	112.64
315.078	40.96
315.292	-14.34
315.505	57.34
315.719	124.93
315.933	118.78
316.146	81.92
316.36	106.49
316.573	102.4
316.787	71.68
317.001	6.14
317.214	10.24
317.428	98.3
317.641	86.01
317.855	149.5
318.068	90.11
318.282	57.34
318.495	141.31
318.709	24.58
318.922	88.06
319.136	88.06
319.349	65.54
319.563	47.1
319.776	137.21
319.99	90.11
320.203	112.64
320.417	100.35
320.63	104.45
320.843	104.45
321.057	145.41
321.27	24.58
321.483	122.88
321.697	98.3
321.91	-2.05
322.124	104.45
322.337	104.45
322.55	81.92
322.763	16.38
322.977	55.3
323.19	38.91
323.403	81.92
323.617	102.4
323.83	104.45
324.043	96.25
324.256	88.06
324.469	53.25
324.683	153.6
324.896	104.45
325.109	90.11
325.322	8.19
325.535	81.92
325.748	30.72
325.962	6.14
326.175	122.88
326.388	98.3
326.601	47.1
326.814	110.59
327.027	55.3
327.24	98.3
327.453	18.43
327.666	81.92
327.879	104.45
328.092	145.41
328.305	178.17
328.518	75.77
328.731	59.39
328.944	120.83
329.157	110.59
329.37	43.01
329.583	129.02
329.796	106.49
330.009	28.67
330.222	145.41
330.435	0
330.648	100.35
330.861	100.35
331.073	32.77
331.286	14.34
331.499	79.87
331.712	-49.15
331.925	88.06
332.138	104.45
332.35	108.54
332.563	92.16
332.776	178.17
332.989	75.77
333.202	86.01
333.414	59.39
333.627	75.77
333.84	16.38
334.053	47.1
334.265	47.1
334.478	30.72
334.691	16.38
334.903	94.21
335.116	81.92
335.329	63.49
335.541	104.45
335.754	145.41
335.966	53.25
336.179	104.45
336.392	14.34
336.604	112.64
336.817	108.54
337.029	40.96
337.242	32.77
337.454	86.01
337.667	131.07
337.88	149.5
338.092	51.2
338.305	88.06
338.517	16.38
338.729	120.83
338.942	49.15
339.154	57.34
339.367	81.92
339.579	47.1
339.792	38.91
340.004	38.91
340.217	69.63
340.429	55.3
340.641	90.11
340.854	77.82
341.066	118.78
341.278	65.54
341.491	141.31
341.703	79.87
341.915	73.73
342.128	57.34
342.34	51.2
342.552	16.38
342.764	53.25
342.977	38.91
343.189	131.07
343.401	79.87
343.613	38.91
343.826	63.49
344.038	55.3
344.25	0
344.462	22.53
344.674	102.4
344.886	57.34
345.099	75.77
345.311	73.73
345.523	55.3
345.735	63.49
345.947	145.41
346.159	92.16
346.371	30.72
346.583	92.16
346.795	145.41
347.007	83.97
347.219	73.73
347.431	26.62
347.643	172.03
347.855	-4.1
348.067	161.79
348.279	22.53
348.491	90.11
348.703	65.54
348.915	57.34
349.127	94.21
349.339	30.72
349.551	14.34
349.763	79.87
349.975	73.73
350.187	16.38
350.399	98.3
350.61	133.12
350.822	30.72
351.034	69.63
351.246	45.06
351.458	137.21
351.669	114.69
351.881	172.03
352.093	57.34
352.305	190.46
352.517	153.6
352.728	98.3
352.94	83.97
353.152	161.79
353.363	98.3
353.575	96.25
353.787	194.56
353.999	96.25
354.21	98.3
354.422	24.58
354.633	71.68
354.845	71.68
355.057	65.54
355.268	55.3
355.48	153.6
355.692	79.87
355.903	40.96
356.115	163.84
356.326	75.77
356.538	131.07
356.749	129.02
356.961	120.83
357.172	139.26
357.384	79.87
357.595	163.84
357.807	30.72
358.018	92.16
358.23	100.35
358.441	155.65
358.653	112.64
358.864	63.49
359.075	112.64
359.287	69.63
359.498	108.54
359.709	38.91
359.921	94.21
360.132	81.92
360.344	34.82
360.555	59.39
360.766	131.07
360.977	71.68
361.189	96.25
361.4	79.87
361.611	104.45
361.823	137.21
362.034	57.34
362.245	18.43
362.456	94.21
362.667	112.64
362.879	137.21
363.09	135.17
363.301	100.35
363.512	104.45
363.723	106.49
363.935	51.2
364.146	55.3
364.357	71.68
364.568	145.41
364.779	43.01
364.99	96.25
365.201	67.58
365.412	172.03
365.623	49.15
365.834	165.89
366.045	59.39
366.256	186.37
366.467	202.75
366.678	155.65
366.889	73.73
367.1	120.83
367.311	96.25
367.522	10.24
367.733	137.21
367.944	104.45
368.155	100.35
368.366	53.25
368.577	96.25
368.788	83.97
368.999	112.64
369.209	104.45
369.42	196.61
369.631	114.69
369.842	45.06
370.053	40.96
370.264	51.2
370.474	122.88
370.685	53.25
370.896	96.25
371.107	43.01
371.317	73.73
371.528	131.07
371.739	139.26
371.95	-2.05
372.16	61.44
372.371	88.06
372.582	40.96
372.792	100.35
373.003	106.49
373.214	75.77
373.424	108.54
373.635	32.77
373.846	145.41
374.056	75.77
374.267	108.54
374.477	120.83
374.688	63.49
374.898	145.41
375.109	24.58
375.319	153.6
375.53	104.45
375.74	116.73
375.951	98.3
376.161	59.39
376.372	159.74
376.582	38.91
376.793	129.02
377.003	90.11
377.214	-32.77
377.424	51.2
377.635	45.06
377.845	77.82
378.055	192.51
378.266	-18.43
378.476	94.21
378.686	57.34
378.897	104.45
379.107	120.83
379.317	114.69
379.528	73.73
379.738	40.96
379.948	71.68
380.158	100.35
380.369	141.31
380.579	73.73
380.789	57.34
380.999	71.68
381.21	65.54
381.42	112.64
381.63	90.11
381.84	163.84
382.05	108.54
382.261	120.83
382.471	143.36
382.681	112.64
382.891	124.93
383.101	90.11
383.311	49.15
383.521	71.68
383.731	88.06
383.941	178.17
384.151	8.19
384.361	104.45
384.571	49.15
384.781	122.88
384.991	118.78
385.201	65.54
385.411	106.49
385.621	112.64
385.831	116.73
386.041	90.11
386.251	36.86
386.461	114.69
386.671	90.11
386.881	86.01
387.091	104.45
387.301	96.25
387.511	120.83
387.72	120.83
387.93	92.16
388.14	169.98
388.35	153.6
388.56	96.25
388.769	104.45
388.979	133.12
389.189	98.3
389.399	59.39
389.609	116.73
389.818	124.93
390.028	104.45
390.238	169.98
390.447	71.68
390.657	133.12
390.867	153.6
391.076	73.73
391.286	137.21
391.496	112.64
391.705	77.82
391.915	188.41
392.125	135.17
392.334	38.91
392.544	229.37
392.753	182.27
392.963	116.73
393.172	90.11
393.382	100.35
393.591	75.77
393.801	73.73
394.01	174.08
394.22	215.04
394.429	196.61
394.639	133.12
394.848	178.17
395.058	83.97
395.267	98.3
395.477	137.21
395.686	188.41
395.895	231.42
396.105	145.41
396.314	221.18
396.524	147.45
396.733	71.68
396.942	153.6
397.152	202.75
397.361	145.41
397.57	149.5
397.78	124.93
397.989	196.61
398.198	219.13
398.407	165.89
398.617	112.64
398.826	124.93
399.035	198.65
399.244	237.56
399.453	112.64
399.663	174.08
399.872	180.22
400.081	147.45
400.29	249.85
400.499	149.5
400.708	131.07
400.917	139.26
401.127	190.46
401.336	169.98
401.545	251.9
401.754	180.22
401.963	260.09
402.172	145.41
402.381	165.89
402.59	137.21
402.799	212.99
403.008	219.13
403.217	290.81
403.426	151.55
403.635	292.86
403.844	145.41
404.053	260.09
404.262	219.13
404.471	307.2
404.68	212.99
404.888	194.56
405.097	256
405.306	235.52
405.515	243.71
405.724	284.67
405.933	258.04
406.142	223.23
406.35	319.48
406.559	245.76
406.768	256
406.977	260.09
407.185	315.39
407.394	303.1
407.603	352.25
407.812	376.83
408.02	419.83
408.229	329.72
408.438	360.44
408.646	288.76
408.855	352.25
409.064	350.2
409.272	342.01
409.481	499.7
409.69	450.55
409.898	489.46
410.107	444.41
410.315	507.9
410.524	514.04
410.733	557.05
410.941	485.37
411.15	450.55
411.358	573.43
411.567	587.77
411.775	538.62
411.984	565.24
412.192	739.32
412.401	684.02
412.609	698.36
412.818	796.66
413.026	767.99
413.234	710.65
413.443	833.52
413.651	767.99
413.86	819.19
414.068	964.59
414.276	835.57
414.485	868.34
414.693	894.96
414.901	1103.86
415.11	1087.47
415.318	1060.85
415.526	1071.09
415.734	1241.07
415.943	1226.73
416.151	1226.73
416.359	1185.77
416.567	1296.36
416.776	1320.94
416.984	1437.67
417.192	1435.63
417.4	1425.39
417.608	1474.54
417.817	1464.3
418.025	1652.71
418.233	1742.82
418.441	1710.05
418.649	1703.91
418.857	1808.36
419.065	1929.19
419.273	1949.67
419.481	2043.87
419.689	2232.29
419.897	2236.38
420.105	2263.01
420.313	2394.08
420.521	2381.79
420.729	2367.45
420.937	2512.86
421.145	2621.4
421.353	2705.37
421.561	2865.11
421.769	2760.66
421.977	2922.45
422.185	2990.03
422.393	3289.04
422.601	3307.47
422.809	3375.05
423.017	3454.92
423.224	3547.08
423.432	3579.85
423.64	3712.97
423.848	4057.03
424.056	3889.09
424.263	4179.9
424.471	4265.92
424.679	4202.43
424.887	4536.25
425.094	4808.63
425.302	4659.13
425.51	4894.65
425.718	5005.24
425.925	4888.5
426.133	5140.4
426.341	5453.74
426.548	5691.31
426.756	5785.51
426.964	5877.67
427.171	6207.39
427.379	6354.85
427.586	6358.94
427.794	6641.56
428.001	6995.86
428.209	7151.51
428.417	7075.73
428.624	7444.37
428.832	7337.87
429.039	7706.51
429.247	7501.71
429.454	8189.83
429.662	8738.68
429.869	8142.72
430.076	8873.85
430.284	8415.1
430.491	8925.05
430.699	9543.53
430.906	9434.99
431.114	9533.29
431.321	9975.66
431.528	10213.22
431.736	10831.71
431.943	11433.81
432.15	10848.09
432.358	11016.02
432.565	11804.49
432.772	11560.78
432.979	12220.23
433.187	12560.19
433.394	12332.87
433.601	13229.88
433.808	13195.06
434.016	13276.98
434.223	13903.66
434.43	14716.7
434.637	14329.64
434.844	15120.15
435.052	15265.56
435.259	15406.87
435.466	15589.14
435.673	15388.44
435.88	16236.3
436.087	17293.05
436.294	17090.3
436.501	16733.95
436.708	17182.46
436.915	17800.94
437.122	18421.48
437.329	18319.08
437.537	19189.47
437.743	19318.49
437.95	19128.03
438.157	20156.11
438.364	20723.4
438.571	20621
438.778	20876.99
438.985	22689.45
439.192	21833.39
439.399	22703.78
439.606	21884.59
439.813	23111.33
440.02	24534.67
440.227	24174.22
440.433	23848.6
440.64	25110.14
440.847	24534.67
441.054	25403
441.261	26934.88
441.467	26502.76
441.674	26996.32
441.881	28175.95
442.088	27852.38
442.294	27758.17
442.501	28689.99
442.708	28870.22
442.914	30031.41
443.121	31436.32
443.328	30817.83
443.534	32706.06
443.741	31901.21
443.948	31307.3
444.154	33635.84
444.361	33115.65
444.568	33449.47
444.774	33693.18
444.981	33758.72
445.187	35098.09
445.394	36509.14
445.6	35966.43
445.807	39396.77
446.013	37529.03
446.22	38413.75
446.426	40039.84
446.633	40074.65
446.839	41268.62
447.046	39640.48
447.252	42118.53
447.459	41848.19
447.665	42251.64
447.871	43863.39
448.078	45245.77
448.284	43195.76
448.491	44338.52
448.697	46019.91
448.903	47205.68
449.11	47050.03
449.316	46167.36
449.522	47303.98
449.728	48549.15
449.935	48727.32
450.141	48901.4
450.347	49868.04
450.553	48135.46
450.76	49052.95
450.966	50232.58
451.172	49648.91
451.378	51301.62
451.584	50220.29
451.791	51029.24
451.997	51301.62
452.203	52176.1
452.409	51971.3
452.615	51438.83
452.821	49777.93
453.027	49319.18
453.233	51985.64
453.44	49882.37
453.646	50478.33
453.852	50783.48
454.058	51551.47
454.264	49507.6
454.47	50736.38
454.676	49274.13
454.882	51543.28
455.088	46921.01
455.294	47762.73
455.5	48276.77
455.705	48909.59
455.911	46859.57
456.117	46198.08
456.323	45188.43
456.529	43224.43
456.735	44793.17
456.941	44119.39
457.147	43335.02
457.352	42065.28
457.558	41622.92
457.764	41272.71
457.97	40656.28
458.176	39730.59
458.381	39843.23
458.587	37694.91
458.793	37836.22
458.999	36199.9
459.204	38467
459.41	37328.33
459.616	35237.35
459.821	35042.79
460.027	34815.47
460.233	34049.53
460.438	32206.36
460.644	32865.8
460.85	31358.5
461.055	30740.01
461.261	30768.68
461.466	28413.52
461.672	27706.97
461.878	29613.63
462.083	27649.63
462.289	27328.1
462.494	26857.06
462.7	26041.97
462.905	24745.61
463.111	25824.89
463.316	25859.7
463.522	25392.76
463.727	25159.3
463.932	25263.74
464.138	25028.23
464.343	25247.36
464.549	24344.2
464.754	25101.95
464.959	24981.12
465.165	24923.78
465.37	23592.6
465.575	23320.22
465.781	24057.49
465.986	24069.78
466.191	23142.05
466.397	22646.44
466.602	21538.49
466.807	22501.03
467.012	22443.69
467.218	21952.18
467.423	22259.37
467.628	22574.76
467.833	23271.07
468.038	22529.7
468.244	21671.61
468.449	22425.26
468.654	21655.22
468.859	21464.76
469.064	21401.27
469.269	20596.42
469.474	20760.26
469.679	21100.22
469.885	20690.63
470.09	20698.82
470.295	20891.33
470.5	19850.96
470.705	20070.09
470.91	19824.34
471.115	19384.02
471.32	20098.77
471.525	19719.89
471.73	19199.71
471.935	19187.42
472.139	18519.78
472.344	18683.62
472.549	18620.13
472.754	18556.64
472.959	17981.17
473.164	17839.86
473.369	17673.97
473.574	18323.18
473.778	17899.25
473.983	17872.62
474.188	17635.06
474.393	16852.73
474.598	16998.14
474.802	16744.19
475.007	16828.16
475.212	16840.45
475.417	16019.21
475.621	16121.61
475.826	16301.83
476.031	15705.87
476.235	15456.02
476.44	15802.13
476.645	15357.72
476.849	15417.11
477.054	15390.49
477.259	14982.94
477.463	15071
477.668	14825.25
477.872	15048.47
478.077	14303.01
478.282	14188.33
478.486	14227.24
478.691	14100.26
478.895	13903.66
479.1	14106.41
479.304	13934.38
479.509	13446.96
479.713	13784.88
479.918	13467.44
480.122	13535.03
480.326	13565.74
480.531	13432.63
480.735	13342.52
480.94	13203.25
481.144	13809.45
481.348	12934.97
481.553	13107
481.757	12984.12
481.961	12926.78
482.166	13035.32
482.37	12949.31
482.574	12787.52
482.778	12818.24
482.983	13088.57
483.187	12992.31
483.391	12795.71
483.595	12943.16
483.8	12803.9
484.004	12754.75
484.208	13000.51
484.412	12863.29
484.616	12711.74
484.821	12801.85
485.025	12613.44
485.229	12879.68
485.433	12900.16
485.637	12756.8
485.841	12621.63
486.045	12709.69
486.249	12949.31
486.453	12642.11
486.657	12842.81
486.861	12887.87
487.065	12623.68
487.269	12638.02
487.473	12388.16
487.677	13039.42
487.881	12830.52
488.085	12867.39
488.289	12900.16
488.493	12871.48
488.697	13045.56
488.901	12779.33
489.105	12773.18
489.309	12781.37
489.512	12975.93
489.716	12869.44
489.92	12846.91
490.124	12879.68
490.328	12986.17
490.531	12836.67
490.735	12937.02
490.939	13059.9
491.143	12984.12
491.346	12810.04
491.55	13485.87
491.754	13150.01
491.958	13227.83
492.161	13139.77
492.365	13260.6
492.569	13305.65
492.772	13332.28
492.976	13524.79
493.18	13795.12
493.383	13838.12
493.587	13645.62
493.79	13920.04
493.994	13614.9
494.197	13815.6
494.401	13780.78
494.605	13979.43
494.808	14276.39
495.012	14229.29
495.215	14276.39
495.419	14440.23
495.622	14470.95
495.825	14313.25
496.029	14794.53
496.232	14878.49
496.436	14638.88
496.639	15216.41
496.843	14870.3
497.046	15251.22
497.249	15324.95
497.453	15556.37
497.656	15722.26
497.859	15714.06
498.063	15679.25
498.266	16117.51
498.469	16006.92
498.673	16142.09
498.876	16463.62
499.079	16709.38
499.282	16860.93
499.485	17176.31
499.689	17125.11
499.892	17440.5
500.095	17458.93
500.298	17868.53
500.501	17424.12
500.705	18097.9
500.908	18114.28
501.111	18026.22
501.314	18663.14
501.517	18673.38
501.72	18937.57
501.923	19111.64
502.126	19445.46
502.329	19644.12
502.532	19443.42
502.735	19795.67
502.938	20256.46
503.141	20289.23
503.344	20481.74
503.547	20596.42
503.75	21051.07
503.953	21173.95
504.156	21161.66
504.359	21429.94
504.562	21538.49
504.765	22120.11
504.968	22245.04
505.17	22570.66
505.373	22257.32
505.576	22984.35
505.779	23195.29
505.982	23264.92
506.185	23576.22
506.387	23783.06
506.59	23846.55
506.793	24260.24
506.996	24299.15
507.198	25118.34
507.401	24747.65
507.604	24798.85
507.807	25503.35
508.009	25605.75
508.212	25859.7
508.415	26097.27
508.617	26558.06
508.82	26840.68
509.022	26439.28
509.225	27125.35
509.428	27672.15
509.63	27659.87
509.833	27745.88
510.035	28501.58
510.238	28237.39
510.44	28610.12
510.643	29083.2
510.845	29232.71
511.048	28757.58
511.25	29640.25
511.453	29812.28
511.655	30567.98
511.858	30344.75
512.06	30672.43
512.262	31194.66
512.465	30836.27
512.667	31133.22
512.87	31850.01
513.072	31815.19
513.274	32400.91
513.477	32972.3
513.679	33056.26
513.881	33510.91
514.084	33414.66
514.286	33248.77
514.488	34010.62
514.69	34819.56
514.893	34821.61
515.095	34614.77
515.297	35319.27
515.499	35349.99
515.701	36089.31
515.904	36365.78
516.106	36285.91
516.308	36586.96
516.51	36986.32
516.712	37146.06
516.914	37465.54
517.116	38239.67
517.318	37932.48
517.52	38073.79
517.722	38464.95
517.925	38729.14
518.127	39419.3
518.329	39583.14
518.531	39445.93
518.733	40148.38
518.935	40496.53
519.136	40455.57
519.338	41168.27
519.54	40928.66
519.742	41436.55
519.944	41414.02
520.146	42018.17
520.348	42274.17
520.55	42118.53
520.752	42528.12
520.954	43058.54
521.155	42710.39
521.357	43705.7
521.559	43560.3
521.761	43969.89
521.963	44076.38
522.164	44346.72
522.366	44221.79
522.568	44756.31
522.77	44746.07
522.971	45952.32
523.173	44731.73
523.375	45296.97
523.576	45587.78
523.778	45387.08
523.98	46300.48
524.181	46132.54
524.383	46378.3
524.584	46636.34
524.786	46751.03
524.988	46357.82
525.189	46898.48
525.391	46603.58
525.592	46935.35
525.794	47263.02
525.995	47390
526.197	47226.16
526.398	47586.6
526.6	47428.91
526.801	47750.44
527.003	47990.05
527.204	47828.26
527.406	48227.62
527.607	48094.5
527.808	48674.07
528.01	47459.63
528.211	48256.29
528.412	48866.58
528.614	48563.48
528.815	48405.79
529.016	48938.26
529.218	47834.41
529.419	48624.92
529.62	48524.57
529.822	48008.48
530.023	48162.08
530.224	48446.75
530.425	48028.96
530.626	48184.61
530.828	48080.16
531.029	48657.69
531.23	47865.13
531.431	47791.4
531.632	48237.86
531.833	48543
532.035	48303.39
532.236	48514.33
532.437	48342.3
532.638	48139.55
532.839	48088.35
533.04	48514.33
533.241	47758.63
533.442	48510.24
533.643	48041.25
533.844	47652.14
534.045	48336.16
534.246	47992.1
534.447	48213.28
534.648	47852.84
534.849	48182.56
535.05	47871.27
535.251	48299.29
535.451	47525.16
535.652	47836.45
535.853	47586.6
536.054	48278.82
536.255	47316.27
536.456	47039.79
536.657	47723.82
536.857	47093.04
537.058	47021.36
537.259	48164.13
537.46	47408.43
537.66	47179.06
537.861	47705.38
538.062	47074.61
538.263	47140.14
538.463	46943.54
538.664	46955.83
538.865	46923.06
539.065	47121.71
539.266	46441.79
539.466	47367.47
539.667	46239.04
539.868	47058.23
540.068	46779.7
540.269	46740.79
540.469	47238.45
540.67	46581.05
540.87	46849.33
541.071	46492.99
541.271	46796.09
541.472	46263.61
541.672	46492.99
541.873	46062.91
542.073	45813.06
542.274	46718.26
542.474	46347.58
542.675	45606.22
542.875	46724.41
543.075	46396.73
543.276	45729.09
543.476	46599.48
543.676	46054.72
543.877	46355.77
544.077	46343.48
544.277	45763.91
544.478	45952.32
544.678	46245.18
544.878	46406.97
545.078	46124.35
545.279	46064.96
545.479	46077.25
545.679	45954.37
545.879	45874.5
546.079	45966.66
546.28	45911.36
546.48	45729.09
546.68	46198.08
546.88	46009.67
547.08	46077.25
547.28	45935.94
547.48	45845.83
547.68	45983.04
547.88	45808.96
548.081	46241.09
548.281	45518.15
548.481	45845.83
548.681	46146.88
548.881	46220.61
549.081	45856.07
549.28	45964.61
549.48	45935.94
549.68	45833.54
549.88	46374.2
550.08	45788.49
550.28	46064.96
550.48	45473.1
550.68	46271.81
550.88	45870.4
551.08	45673.8
551.279	46165.31
551.479	45708.61
551.679	45837.64
551.879	45595.98
552.079	45976.9
552.278	46032.19
552.478	46380.35
552.678	45665.61
552.878	46357.82
553.077	45946.18
553.277	45843.78
553.477	46310.72
553.676	45690.18
553.876	46030.15
554.076	45544.78
554.275	45901.12
554.475	45565.26
554.674	46308.67
554.874	46044.48
555.074	46001.47
555.273	46189.89
555.473	46347.58
555.672	45948.23
555.872	46136.64
556.071	46656.82
556.271	46415.16
556.47	45792.58
556.67	45835.59
556.869	46024
557.068	46148.93
557.268	46093.63
557.467	46153.02
557.667	46122.3
557.866	46026.05
558.065	45845.83
558.265	45935.94
558.464	45714.76
558.663	46427.45
558.863	45735.24
559.062	46081.34
559.261	45669.7
559.461	46220.61
559.66	45526.35
559.859	46351.68
560.058	45649.22
560.258	46335.29
560.457	45354.32
560.656	46261.57
560.855	45655.37
561.054	45886.79
561.253	45751.62
561.453	46167.36
561.652	45825.35
561.851	46189.89
562.05	45514.06
562.249	45411.66
562.448	46583.1
562.647	45837.64
562.846	45403.47
563.045	45661.51
563.244	45139.28
563.443	46030.15
563.642	45178.19
563.841	45548.87
564.04	45258.06
564.239	45909.32
564.438	45589.83
564.637	45452.62
564.836	45600.07
565.035	45163.85
565.234	45215.05
565.432	45385.04
565.631	45086.03
565.83	45057.36
566.029	45040.98
566.228	45026.64
566.427	45176.14
566.625	44748.12
566.824	44604.76
567.023	44881.24
567.222	44199.26
567.42	44864.85
567.619	44703.06
567.818	44371.29
568.016	44498.26
568.215	44737.88
568.414	44268.89
568.612	44598.62
568.811	44352.86
569.01	44467.55
569.208	43748.71
569.407	44307.8
569.605	43634.02
569.804	44000.61
570.002	43568.49
570.201	44002.66
570.4	44002.66
570.598	43451.75
570.797	43490.66
570.995	43429.23
571.193	42698.1
571.392	43646.31
571.59	42913.14
571.789	43144.56
571.987	43156.85
572.186	42962.29
572.384	42673.52
572.582	42720.63
572.781	43181.42
572.979	42280.31
573.177	42763.64
573.376	42696.05
573.574	41899.39
573.772	42388.86
573.971	42042.75
574.169	41903.49
574.367	41528.71
574.565	42132.86
574.763	41743.75
574.962	41266.57
575.16	41151.88
575.358	41657.73
575.556	40840.59
575.754	41745.79
575.952	41002.38
576.151	41229.71
576.349	40627.6
576.547	40809.87
576.745	40570.26
576.943	40945.04
577.141	40539.54
577.339	40736.15
577.537	40578.45
577.735	40267.16
577.933	39718.31
578.131	39908.77
578.329	40005.02
578.527	39701.92
578.725	39716.26
578.923	39646.63
579.121	39675.3
579.319	39378.34
579.516	39411.11
579.714	39484.84
579.912	39251.37
580.11	39110.06
580.308	39017.9
580.506	38978.99
580.704	38477.24
580.901	38659.51
581.099	38938.03
581.297	38426.04
581.495	38292.92
581.692	38784.43
581.89	38120.89
582.088	38041.02
582.285	38065.6
582.483	38141.37
582.681	37903.81
582.878	37844.41
583.076	37787.07
583.274	37860.8
583.471	37326.28
583.669	37299.65
583.866	37248.46
584.064	37383.62
584.262	36789.71
584.459	37694.91
584.657	37395.91
584.854	37375.43
585.052	36761.04
585.249	37105.1
585.447	36498.9
585.644	36668.88
585.841	36654.54
586.039	36990.41
586.236	36363.73
586.434	36128.22
586.631	36152.79
586.828	36154.84
587.026	36498.9
587.223	35900.89
587.42	35968.48
587.618	36240.85
587.815	35665.38
588.012	35589.6
588.21	35489.25
588.407	35927.52
588.604	35405.28
588.801	35425.76
588.999	35333.6
589.196	35243.49
589.393	35216.87
589.59	34668.01
589.787	35132.9
589.984	34905.58
590.182	34969.07
590.379	34962.92
590.576	34719.21
590.773	34817.52
590.97	34547.18
591.167	34596.34
591.364	34174.45
591.561	34485.75
591.758	34153.97
591.955	34027
592.152	34278.9
592.349	34131.45
592.546	34153.97
592.743	34045.43
592.94	33529.34
593.137	33836.54
593.334	33977.85
593.531	33541.63
593.727	33699.33
593.924	33439.23
594.121	33472
594.318	33547.78
594.515	32925.19
594.712	33598.98
594.908	33377.79
595.105	33250.82
595.302	32695.82
595.499	32978.44
595.696	32960.01
595.892	32607.76
596.089	33129.99
596.286	33144.33
596.482	32650.77
596.679	32888.33
596.876	33052.17
597.072	32953.87
597.269	33062.41
597.466	32398.87
597.662	32433.68
597.859	32749.07
598.055	32628.24
598.252	32306.71
598.448	32263.7
598.645	32558.61
598.841	32239.12
599.038	32423.44
599.234	32337.43
599.431	31933.98
599.627	31956.5
599.824	32288.28
600.02	32044.57
600.217	32067.09
600.413	31985.18
600.609	31804.95
600.806	31817.24
601.002	32073.24
601.198	31997.46
601.395	31950.36
601.591	31784.47
601.787	32058.9
601.984	31796.76
602.18	32065.05
602.376	31884.83
602.572	32054.81
602.769	31956.5
602.965	31714.84
603.161	31534.62
603.357	31604.25
603.553	31827.48
603.75	32112.15
603.946	31823.39
604.142	31933.98
604.338	31655.45
604.534	32106.01
604.73	31374.88
604.926	31720.99
605.122	32103.96
605.318	31606.3
605.514	31292.96
605.71	31385.12
605.906	32146.97
606.102	31690.27
606.298	31645.21
606.494	31671.84
606.69	31735.32
606.886	31876.63
607.082	31444.51
607.278	31962.65
607.474	31335.97
607.67	31976.98
607.866	31165.99
608.062	32185.88
608.257	31544.86
608.453	32017.94
608.649	31739.42
608.845	31452.7
609.041	31696.41
609.236	31854.11
609.432	32071.19
609.628	31503.9
609.824	31753.76
610.019	31710.75
610.215	31759.9
610.411	31997.46
610.606	31807
610.802	31948.31
610.998	31725.08
611.193	31950.36
611.389	31647.26
611.584	31659.55
611.78	31712.8
611.976	31901.21
612.171	32335.38
612.367	31735.32
612.562	31841.82
612.758	31536.67
612.953	31503.9
613.149	32187.92
613.344	31725.08
613.539	31981.08
613.735	31962.65
613.93	31768.09
614.126	31856.15
614.321	32003.61
614.517	31903.26
614.712	31985.18
614.907	31825.43
615.103	32239.12
615.298	31712.8
615.493	32108.05
615.688	31462.94
615.884	32577.04
616.079	31602.21
616.274	32093.72
616.47	31770.14
616.665	31796.76
616.86	31770.14
617.055	31850.01
617.25	31655.45
617.445	32060.95
617.641	31213.09
617.836	31690.27
618.031	31329.83
618.226	31512.1
618.421	31321.63
618.616	31602.21
618.811	30893.61
619.006	31688.22
619.201	30957.1
619.396	31137.32
619.591	30707.24
619.786	30823.98
619.981	30342.7
620.176	31051.3
620.371	30426.67
620.566	30830.12
620.761	30590.51
620.956	30774.83
621.151	30076.47
621.346	30488.11
621.541	29820.47
621.735	30033.46
621.93	29859.38
622.125	29859.38
622.32	29423.17
622.515	29490.75
622.709	29380.16
622.904	29312.58
623.099	29292.1
623.294	29046.34
623.488	29093.44
623.683	28997.19
623.878	28120.66
624.072	28632.65
624.267	28268.11
624.462	27995.73
624.656	28122.71
624.851	27831.9
625.046	28040.79
625.24	28040.79
625.435	27516.51
625.629	27530.84
625.824	27336.29
626.018	27549.28
626.213	26652.27
626.407	27135.59
626.602	26707.56
626.796	26711.66
626.991	26863.21
627.185	26216.05
627.38	26222.19
627.574	26302.06
627.768	26068.59
627.963	26025.59
628.157	25470.59
628.352	25871.99
628.546	25443.96
628.74	25183.87
628.935	25552.51
629.129	25216.64
629.323	24815.24
629.517	24637.06
629.712	24927.88
629.906	24880.77
630.1	24553.1
630.294	24729.22
630.489	24393.36
630.683	24450.7
630.877	23967.38
631.071	23914.13
631.265	24006.29
631.459	23490.2
631.653	23588.5
631.848	23557.78
632.042	23426.71
632.236	22990.5
632.43	23279.26
632.624	22978.21
632.818	22886.05
633.012	22492.84
633.206	22830.76
633.4	22648.49
633.594	22300.33
633.788	22322.86
633.982	22132.4
634.176	22394.54
634.369	21894.83
634.563	22068.91
634.757	22079.15
634.951	22103.73
635.145	21651.13
635.339	21665.46
635.533	21182.14
635.726	21415.61
635.92	21354.17
636.114	21468.86
636.308	20942.53
636.501	21092.03
636.695	21247.68
636.889	20473.54
637.083	20446.92
637.276	20420.3
637.47	20379.34
637.664	20344.52
637.857	20178.64
638.051	20106.96
638.244	19896.02
638.438	19746.51
638.632	19633.88
638.825	19562.2
639.019	19494.61
639.212	19183.32
639.406	19367.64
639.599	19379.93
639.793	19025.63
639.986	18501.35
640.18	19021.53
640.373	18976.48
640.567	18749.15
640.76	18417.38
640.954	18265.83
641.147	18118.38
641.34	18220.78
641.534	18386.66
641.727	17768.18
641.92	18011.89
642.114	17491.7
642.307	17860.34
642.5	17712.88
642.694	17444.6
642.887	17286.9
643.08	17456.89
643.273	17487.61
643.467	17166.07
643.66	17178.36
643.853	16971.52
644.046	16850.69
644.239	16797.44
644.432	16672.51
644.626	16547.59
644.819	16439.05
645.012	16719.62
645.205	16078.6
645.398	16279.3
645.591	15976.2
645.784	15742.74
645.977	15709.97
646.17	16117.51
646.363	15767.31
646.556	15648.53
646.749	15453.97
646.942	15746.83
647.135	15275.8
647.328	15185.69
647.521	15122.2
647.714	14769.95
647.907	15200.02
648.099	15034.14
648.292	14825.25
648.485	14712.61
648.678	14589.73
648.871	14513.95
649.064	14378.79
649.256	14487.33
649.449	14278.44
649.642	14346.02
649.835	13993.77
650.027	13944.62
650.22	13834.03
650.413	13958.95
650.605	13821.74
650.798	13827.88
650.991	13582.13
651.183	13502.26
651.376	13403.96
651.568	13633.33
651.761	13365.04
651.954	13180.73
652.146	13319.99
652.339	13170.49
652.531	13182.77
652.724	13037.37
652.916	12910.4
653.109	13008.7
653.301	12830.52
653.494	12885.82
653.686	12687.17
653.879	12646.21
654.071	12838.72
654.263	12195.65
654.456	12388.16
654.648	12474.18
654.84	12195.65
655.033	12248.9
655.225	12115.78
655.417	12097.35
655.61	12089.16
655.802	12007.24
655.994	11992.9
656.186	11835.21
656.379	11777.87
656.571	11884.36
656.763	11700.05
656.955	11573.07
657.148	11454.29
657.34	11458.39
657.532	11401.04
657.724	11454.29
657.916	11282.26
658.108	11298.64
658.3	11378.51
658.492	11298.64
658.684	11059.03
658.876	11022.17
659.068	11122.52
659.26	10805.08
659.452	10827.61
659.644	10872.67
659.836	10643.29
660.028	10616.67
660.22	10516.32
660.412	10475.36
660.604	10323.81
660.796	10471.26
660.988	10405.73
661.18	10272.61
661.372	10108.77
661.563	10100.58
661.755	10090.34
661.947	10037.09
662.139	9985.9
662.331	9885.55
662.522	9820.01
662.714	9789.29
662.906	9666.41
663.097	9781.1
663.289	9670.51
663.481	9299.83
663.673	9715.56
663.864	9568.11
664.056	9291.63
664.247	9420.66
664.439	9205.62
664.631	9488.24
664.822	9340.79
665.014	9262.96
665.205	9351.03
665.397	8972.15
665.588	9222
665.78	9109.36
665.971	8939.38
666.163	9045.88
666.354	8812.41
666.546	8767.35
666.737	8767.35
666.929	8869.75
667.12	8617.85
667.311	8552.32
667.503	8521.6
667.694	8607.61
667.885	8527.74
668.077	8451.97
668.268	8359.81
668.459	8427.39
668.651	8451.97
668.842	8277.89
669.033	8114.05
669.224	8093.57
669.416	8247.17
669.607	8218.5
669.798	8071.04
669.989	8204.16
670.18	8066.95
670.371	8052.61
670.563	8028.04
670.754	7995.27
670.945	7858.06
671.136	7856.01
671.327	7915.4
671.518	7743.37
671.709	7894.92
671.9	7948.17
672.091	7683.98
672.282	7681.93
672.473	7653.26
672.664	7710.6
672.855	7509.9
673.046	7481.23
673.237	7458.7
673.428	7559.05
673.619	7403.41
673.809	7329.68
674	7468.94
674.191	7411.6
674.382	7436.17
674.573	7346.06
674.764	7366.54
674.954	7339.92
675.145	6961.05
675.336	7335.82
675.527	7214.99
675.717	7096.21
675.908	7137.17
676.099	7038.87
676.289	7149.46
676.48	7040.92
676.671	6977.43
676.861	7063.44
677.052	7042.96
677.243	6848.41
677.433	6797.21
677.624	6932.37
677.814	6897.56
678.005	6977.43
678.195	6825.88
678.386	6725.53
678.576	6817.69
678.767	6971.29
678.957	6848.41
679.148	6920.09
679.338	6895.51
679.529	6782.87
679.719	6715.29
679.909	6713.24
680.1	6584.22
680.29	6821.78
680.481	6608.8
680.671	6709.15
680.861	6801.3
681.052	6815.64
681.242	6641.56
681.432	6619.03
681.622	6410.14
681.813	6571.93
682.003	6629.27
682.193	6492.06
682.383	6576.03
682.573	6559.64
682.764	6399.9
682.954	6600.6
683.144	6416.29
683.334	6313.89
683.524	6408.09
683.714	6616.99
683.904	6555.55
684.094	6367.13
684.284	6406.05
684.474	6389.66
684.664	6440.86
684.854	6428.57
685.044	6414.24
685.234	6330.27
685.424	6311.84
685.614	6160.29
685.804	6168.48
685.994	6289.31
686.184	6289.31
686.374	6264.74
686.564	6150.05
686.753	6180.77
686.943	6084.52
687.133	6080.42
687.323	6137.76
687.513	5953.45
687.702	6002.6
687.892	6154.15
688.082	6100.9
688.272	6086.56
688.461	5814.18
688.651	6025.12
688.841	6004.64
689.03	6045.6
689.22	5875.62
689.41	6064.04
689.599	5742.5
689.789	5945.25
689.979	5805.99
690.168	5949.35
690.358	5912.49
690.547	5779.37
690.737	5832.61
690.926	5760.94
691.116	5746.6
691.305	5644.2
691.495	5595.05
691.684	5625.77
691.874	5595.05
692.063	5633.96
692.252	5601.19
692.442	5851.05
692.631	5646.25
692.82	5617.58
693.01	5494.7
693.199	5582.76
693.388	5470.12
693.578	5463.98
693.767	5697.45
693.956	5406.64
694.146	5472.17
694.335	5423.02
694.524	5420.97
694.713	5343.15
694.902	5257.14
695.092	5281.71
695.281	5408.69
695.47	5453.74
695.659	5187.5
695.848	5388.21
696.037	5222.32
696.226	5244.85
696.415	5337.01
696.604	5283.76
696.793	5226.42
696.982	5281.71
697.171	5078.96
697.36	5228.46
697.549	5236.66
697.738	5269.42
697.927	5167.03
698.116	5162.93
698.305	5097.39
698.494	5121.97
698.683	5031.86
698.872	5183.41
699.061	5097.39
699.25	5144.5
699.438	5060.53
699.627	5154.74
699.816	4978.61
700.005	5111.73
700.193	4947.89
700.382	4902.84
700.571	4995
700.76	4904.89
700.948	4956.08
701.137	4863.93
701.326	4841.4
701.514	4827.06
701.703	4947.89
701.892	4773.82
702.08	4806.58
702.269	4843.45
702.457	4708.28
702.646	4790.2
702.834	4755.38
703.023	4655.03
703.212	4726.71
703.4	4644.79
703.589	4646.84
703.777	4620.22
703.965	4487.1
704.154	4618.17
704.342	4562.87
704.531	4675.51
704.719	4472.76
704.907	4499.39
705.096	4507.58
705.284	4573.11
705.472	4429.76
705.661	4581.31
705.849	4597.69
706.037	4634.55
706.226	4544.44
706.414	4429.76
706.602	4446.14
706.79	4483
706.979	4360.13
707.167	4491.2
707.355	4341.69
707.543	4431.8
707.731	4464.57
707.919	4315.07
708.107	4284.35
708.296	4175.81
708.484	4093.89
708.672	4151.23
708.86	4265.92
709.048	4251.58
709.236	4192.19
709.424	4206.53
709.612	4239.3
709.8	4085.7
709.988	4237.25
710.176	4120.51
710.364	4194.24
710.551	4034.5
710.739	4118.47
710.927	4136.9
711.115	4249.54
711.303	4126.66
711.491	4097.99
711.679	4079.55
711.866	4108.23
712.054	3999.68
712.242	4079.55
712.43	4020.16
712.617	3950.53
712.805	3839.94
712.993	4005.83
713.181	3928
713.368	4003.78
713.556	3907.52
713.744	3930.05
713.931	4028.35
714.119	3796.93
714.306	3899.33
714.494	3798.98
714.682	3733.45
714.869	3704.78
715.057	3835.85
715.244	3694.54
715.432	3825.61
715.619	3815.37
715.807	3870.66
715.994	3766.21
716.182	3727.3
716.369	3717.06
716.556	3766.21
716.744	3596.23
716.931	3680.2
717.119	3768.26
717.306	3606.47
717.493	3579.85
717.681	3639.24
717.868	3655.62
718.055	3567.56
718.242	3571.66
718.43	3571.66
718.617	3688.39
718.804	3577.8
718.991	3545.03
719.179	3432.4
719.366	3538.89
719.553	3471.31
719.74	3446.73
719.927	3549.13
720.114	3426.25
720.301	3266.51
720.488	3504.07
720.676	3518.41
720.863	3393.48
721.05	3575.75
721.237	3420.11
721.424	3446.73
721.611	3348.43
721.798	3446.73
721.985	3299.28
722.172	3411.92
722.358	3366.86
722.545	3375.05
722.732	3346.38
722.919	3332.05
723.106	3340.24
723.293	3340.24
723.48	3237.84
723.667	3291.09
723.853	3149.78
724.04	3278.8
724.227	3336.14
724.414	3188.69
724.6	3248.08
724.787	3274.7
724.974	3317.71
725.161	3045.33
725.347	3143.63
725.534	3229.65
725.72	3071.95
725.907	3188.69
726.094	3250.13
726.28	3160.02
726.467	3170.26
726.653	3063.76
726.84	3168.21
727.027	3217.36
727.213	2983.89
727.4	3051.47
727.586	3088.34
727.773	3119.06
727.959	3063.76
728.145	3139.54
728.332	3049.43
728.518	3055.57
728.705	3086.29
728.891	3098.58
729.077	2942.93
729.264	2904.02
729.45	2947.03
729.636	2957.27
729.823	3002.32
730.009	2940.88
730.195	2987.99
730.382	3104.72
730.568	2922.45
730.754	3020.75
730.94	2824.15
731.126	2916.31
731.313	2926.55
731.499	3035.09
731.685	2897.88
731.871	2793.43
732.057	2852.82
732.243	2867.16
732.429	2856.92
732.615	2863.06
732.801	2852.82
732.987	2959.31
733.173	2889.68
733.359	2914.26
733.545	2791.38
733.731	2813.91
733.917	2785.24
734.103	2811.86
734.289	2840.53
734.475	2684.89
734.661	2846.68
734.847	2826.2
735.033	2684.89
735.219	2799.57
735.404	2746.33
735.59	2752.47
735.776	2748.37
735.962	2719.7
736.148	2793.43
736.333	2719.7
736.519	2660.31
736.705	2684.89
736.89	2709.46
737.076	2678.74
737.262	2676.7
737.447	2627.54
737.633	2652.12
737.819	2586.58
738.004	2619.35
738.19	2643.93
738.375	2582.49
738.561	2697.17
738.747	2574.3
738.932	2506.71
739.118	2631.64
739.303	2629.59
739.489	2662.36
739.674	2514.91
739.859	2535.39
740.045	2484.19
740.23	2525.15
740.416	2529.24
740.601	2488.28
740.786	2410.46
740.972	2410.46
741.157	2428.89
741.342	2373.6
741.528	2455.51
741.713	2488.28
741.898	2349.02
742.084	2398.17
742.269	2422.75
742.454	2414.56
742.639	2279.39
742.824	2402.27
743.01	2392.03
743.195	2443.23
743.38	2297.82
743.565	2389.98
743.75	2254.81
743.935	2301.92
744.12	2256.86
744.305	2234.33
744.49	2246.62
744.675	2271.2
744.86	2310.11
745.045	2193.37
745.23	2082.78
745.415	2111.46
745.6	2303.96
745.785	2205.66
745.97	2228.19
746.155	2242.53
746.34	2234.33
746.525	2140.13
746.71	2152.42
746.895	2039.78
747.079	2129.89
747.264	2037.73
747.449	2095.07
747.634	2097.12
747.819	2084.83
748.003	1972.19
748.188	1892.32
748.373	2058.21
748.557	2033.63
748.742	2105.31
748.927	1943.52
749.111	1927.14
749.296	1892.32
749.481	1943.52
749.665	1959.91
749.85	1982.43
750.034	1906.66
750.219	1964
750.404	1873.89
750.588	1873.89
750.773	1902.56
750.957	1892.32
751.141	1675.24
751.326	1865.7
751.51	1697.77
751.695	1783.78
751.879	1804.26
752.064	1816.55
752.248	1781.73
752.432	1689.57
752.617	1736.68
752.801	1839.08
752.985	1710.05
753.17	1730.53
753.354	1673.19
753.538	1626.09
753.722	1597.42
753.907	1630.18
754.091	1540.07
754.275	1599.46
754.459	1619.94
754.643	1538.02
754.828	1550.31
755.012	1613.8
755.196	1546.22
755.38	1535.98
755.564	1456.11
755.748	1521.64
755.932	1521.64
756.116	1558.5
756.3	1427.43
756.484	1439.72
756.668	1357.8
756.852	1333.23
757.036	1474.54
757.22	1472.49
757.404	1368.04
757.588	1349.61
757.772	1382.38
757.956	1433.58
758.14	1505.26
758.323	1308.65
758.507	1425.39
758.691	1347.56
758.875	1382.38
759.059	1409
759.242	1357.8
759.426	1353.71
759.61	1325.04
759.794	1218.54
759.977	1316.84
760.161	1361.9
760.345	1357.8
760.528	1423.34
760.712	1331.18
760.895	1325.04
761.079	1343.47
761.263	1193.97
761.446	1294.32
761.63	1292.27
761.813	1290.22
761.997	1157.1
762.18	1220.59
762.364	1155.05
762.547	1208.3
762.731	1218.54
762.914	1214.45
763.098	1134.57
763.281	1216.49
763.464	1193.97
763.648	1136.62
763.831	1153.01
764.015	1054.7
764.198	1284.08
764.381	1093.62
764.564	1163.25
764.748	1046.51
764.931	1146.86
765.114	1153.01
765.297	1155.05
765.481	1030.13
765.664	1114.1
765.847	1103.86
766.03	1212.4
766.213	1091.57
766.397	1148.91
766.58	1013.74
766.763	1163.25
766.946	1050.61
767.129	1030.13
767.312	1005.55
767.495	1009.65
767.678	993.26
767.861	1056.75
768.044	960.5
768.227	1007.6
768.41	1095.66
768.593	1087.47
768.776	919.54
768.959	1007.6
769.142	1009.65
769.324	999.41
769.507	1030.13
769.69	1001.46
769.873	997.36
770.056	1038.32
770.239	956.4
770.421	1023.98
770.604	927.73
770.787	944.11
770.97	1030.13
771.152	903.15
771.335	985.07
771.518	911.35
771.7	1013.74
771.883	942.07
772.066	923.63
772.248	993.26
772.431	980.98
772.613	1056.75
772.796	1009.65
772.978	933.87
773.161	1040.37
773.343	958.45
773.526	923.63
773.708	966.64
773.891	876.53
774.073	923.63
774.256	935.92
774.438	923.63
774.621	866.29
774.803	821.24
774.985	935.92
775.168	843.76
775.35	925.68
775.532	835.57
775.715	845.81
775.897	808.95
776.079	854
776.261	911.35
776.444	923.63
776.626	780.28
776.808	790.52
776.99	774.13
777.173	778.23
777.355	800.76
777.537	866.29
777.719	745.46
777.901	767.99
778.083	811
778.265	767.99
778.447	761.84
778.629	722.93
778.811	731.12
778.993	759.8
779.175	843.76
779.357	708.6
779.539	706.55
779.721	718.84
779.903	714.74
780.085	772.08
780.267	737.27
780.449	749.56
780.631	686.07
780.812	675.83
780.994	636.92
781.176	720.89
781.358	696.31
781.54	677.88
781.721	655.35
781.903	767.99
782.085	636.92
782.267	595.96
782.448	632.82
782.63	704.5
782.812	684.02
782.993	589.82
783.175	677.88
783.357	579.58
783.538	608.25
783.72	550.9
783.901	628.73
784.083	581.62
784.264	591.86
784.446	489.46
784.627	581.62
784.809	507.9
784.99	608.25
785.172	587.77
785.353	608.25
785.535	608.25
785.716	501.75
785.897	473.08
786.079	524.28
786.26	571.38
786.441	555
786.623	598.01
786.804	581.62
786.985	555
787.167	540.66
787.348	575.48
787.529	399.35
787.71	589.82
787.891	516.09
788.073	475.13
788.254	438.27
788.435	524.28
788.616	555
788.797	448.51
788.978	509.94
789.159	485.37
789.34	524.28
789.522	391.16
789.703	505.85
789.884	514.04
790.065	475.13
790.246	565.24
790.427	507.9
790.607	421.88
790.788	481.27
790.969	423.93
791.15	411.64
791.331	399.35
791.512	448.51
791.693	403.45
791.874	360.44
792.054	419.83
792.235	473.08
792.416	360.44
792.597	407.55
792.778	452.6
792.958	374.78
793.139	333.82
793.32	440.31
793.5	376.83
793.681	415.74
793.862	432.12
794.042	333.82
794.223	364.54
794.404	421.88
794.584	342.01
794.765	346.11
794.945	337.91
795.126	425.98
795.306	370.68
795.487	374.78
795.667	329.72
795.848	358.39
796.028	368.63
796.209	346.11
796.389	325.63
796.57	309.24
796.75	251.9
796.93	339.96
797.111	276.48
797.291	303.1
797.471	344.06
797.652	305.15
797.832	327.68
798.012	350.2
798.192	333.82
798.373	309.24
798.553	321.53
798.733	301.05
798.913	344.06
799.093	237.56
799.274	278.52
799.454	325.63
799.634	305.15
799.814	372.73
799.994	346.11
800.174	296.96
800.354	378.87
800.534	288.76
800.714	366.59
800.894	262.14
801.074	243.71
801.254	327.68
801.434	337.91
801.614	284.67
801.794	245.76
801.974	935.92
802.154	346.11
802.334	342.01
802.514	251.9
802.693	313.34
802.873	258.04
803.053	350.2
803.233	280.57
803.413	294.91
803.592	258.04
803.772	311.29
803.952	286.72
804.131	251.9
804.311	309.24
804.491	313.34
804.67	253.95
804.85	212.99
805.03	260.09
805.209	251.9
805.389	204.8
805.568	229.37
805.748	227.32
805.928	301.05
806.107	227.32
806.287	309.24
806.466	202.75
806.646	301.05
806.825	256
807.004	221.18
807.184	268.28
807.363	194.56
807.543	280.57
807.722	227.32
807.901	249.85
808.081	229.37
808.26	231.42
808.439	172.03
808.619	235.52
808.798	227.32
808.977	229.37
809.156	325.63
809.336	206.84
809.515	172.03
809.694	215.04
809.873	219.13
810.052	200.7
810.231	313.34
810.411	251.9
810.59	198.65
810.769	305.15
810.948	239.61
811.127	124.93
811.306	286.72
811.485	206.84
811.664	233.47
811.843	159.74
812.022	239.61
812.201	178.17
812.38	231.42
812.559	108.54
812.737	186.37
812.916	120.83
813.095	178.17
813.274	210.94
813.453	206.84
813.632	210.94
813.811	190.46
813.989	153.6
814.168	163.84
814.347	151.55
814.526	157.69
814.704	223.23
814.883	198.65
815.062	172.03
815.24	178.17
815.419	159.74
815.598	221.18
815.776	202.75
815.955	204.8
816.133	122.88
816.312	194.56
816.49	133.12
816.669	239.61
816.847	104.45
817.026	159.74
817.204	145.41
817.383	137.21
817.561	172.03
817.74	163.84
817.918	231.42
818.097	235.52
818.275	120.83
818.453	196.61
818.632	174.08
818.81	174.08
818.988	32.77
819.167	190.46
819.345	106.49
819.523	104.45
819.701	229.37
819.879	210.94
820.058	243.71
820.236	163.84
820.414	186.37
820.592	172.03
820.77	147.45
820.948	151.55
821.127	124.93
821.305	210.94
821.483	153.6
821.661	137.21
821.839	206.84
822.017	196.61
822.195	178.17
822.373	192.51
822.551	182.27
822.729	202.75
822.907	198.65
823.085	196.61
823.262	153.6
823.44	165.89
823.618	202.75
823.796	104.45
823.974	174.08
824.152	88.06
824.329	108.54
824.507	243.71
824.685	217.08
824.863	122.88
825.04	188.41
825.218	186.37
825.396	120.83
825.574	184.32
825.751	147.45
825.929	194.56
826.107	67.58
826.284	233.47
826.462	114.69
826.639	104.45
826.817	165.89
826.994	204.8
827.172	116.73
827.349	157.69
827.527	169.98
827.704	118.78
827.882	188.41
828.059	161.79
828.237	81.92
828.414	178.17
828.591	30.72
828.769	92.16
828.946	94.21
829.124	194.56
829.301	141.31
829.478	100.35
829.655	157.69
829.833	180.22
830.01	96.25
830.187	153.6
830.364	153.6
830.542	206.84
830.719	153.6
830.896	145.41
831.073	110.59
831.25	108.54
831.427	172.03
831.604	104.45
831.782	102.4
831.959	155.65
832.136	40.96
832.313	57.34
832.49	73.73
832.667	141.31
832.844	112.64
833.021	137.21
833.198	157.69
833.374	159.74
833.551	86.01
833.728	120.83
833.905	145.41
834.082	40.96
834.259	122.88
834.436	204.8
834.612	104.45
834.789	172.03
834.966	94.21
835.143	122.88
835.319	53.25
835.496	145.41
835.673	129.02
835.85	100.35
836.026	57.34
836.203	92.16
836.38	57.34
836.556	100.35
836.733	38.91
836.909	227.32
837.086	106.49
837.262	96.25
837.439	81.92
837.616	90.11
837.792	71.68
837.968	57.34
838.145	59.39
838.321	129.02
838.498	18.43
838.674	112.64
838.851	55.3
839.027	153.6
839.203	51.2
839.38	192.51
839.556	116.73
839.732	139.26
839.909	141.31
840.085	178.17
840.261	55.3
840.437	114.69
840.614	88.06
840.79	32.77
840.966	81.92
841.142	71.68
841.318	34.82
841.494	112.64
841.671	55.3
841.847	40.96
842.023	106.49
842.199	112.64
842.375	83.97
842.551	94.21
842.727	57.34
842.903	137.21
843.079	63.49
843.255	133.12
843.431	57.34
843.607	106.49
843.783	55.3
843.959	133.12
844.134	22.53
844.31	104.45
844.486	106.49
844.662	59.39
844.838	40.96
845.013	153.6
845.189	124.93
845.365	71.68
845.541	22.53
845.716	96.25
845.892	92.16
846.068	83.97
846.244	67.58
846.419	16.38
846.595	16.38
846.77	14.34
846.946	88.06
847.122	147.45
847.297	73.73
847.473	145.41
847.648	-20.48
847.824	141.31
847.999	98.3
848.175	22.53
848.35	63.49
848.526	174.08
848.701	108.54
848.876	112.64
849.052	81.92
849.227	63.49
849.403	102.4
849.578	49.15
849.753	131.07
849.929	108.54
850.104	38.91
850.279	100.35
850.454	55.3
850.63	122.88
850.805	120.83
850.98	110.59
851.155	106.49
851.33	47.1
851.505	6.14
851.681	71.68
851.856	-40.96
852.031	75.77
852.206	79.87
852.381	59.39
852.556	104.45
852.731	45.06
852.906	88.06
853.081	59.39
853.256	88.06
853.431	0
853.606	24.58
853.781	-18.43
853.956	10.24
854.131	90.11
854.305	51.2
854.48	108.54
854.655	24.58
854.83	-28.67
855.005	55.3
855.18	67.58
855.354	14.34
855.529	40.96
855.704	96.25
855.879	100.35
856.053	100.35
856.228	108.54
856.403	38.91
856.577	55.3
856.752	55.3
856.926	34.82
857.101	32.77
857.276	24.58
857.45	90.11
857.625	129.02
857.799	63.49
857.974	49.15
858.148	-49.15
858.323	157.69
858.497	34.82
858.672	36.86
858.846	86.01
859.02	22.53
859.195	2.05
859.369	-30.72
859.543	73.73
859.718	47.1
859.892	57.34
860.066	10.24
860.241	71.68
860.415	43.01
860.589	-26.62
860.763	73.73
860.938	81.92
861.112	90.11
861.286	40.96
861.46	124.93
861.634	88.06
861.808	55.3
861.982	12.29
862.157	63.49
862.331	30.72
862.505	55.3
862.679	2.05
862.853	34.82
863.027	86.01
863.201	55.3
863.375	-6.14
863.549	73.73
863.722	77.82
863.896	69.63
864.07	6.14
864.244	32.77
864.418	55.3
864.592	88.06
864.766	10.24
864.939	71.68
865.113	88.06
865.287	30.72
865.461	16.38
865.634	106.49
865.808	126.97
865.982	32.77
866.156	49.15
866.329	61.44
866.503	10.24
866.676	88.06
866.85	16.38
867.024	26.62
867.197	32.77
867.371	55.3
867.544	28.67
867.718	71.68
867.891	104.45
868.065	-40.96
868.238	26.62
868.412	108.54
868.585	14.34
868.759	-20.48
868.932	18.43
869.105	26.62
869.279	43.01
869.452	34.82
869.625	61.44
869.799	47.1
869.972	0
870.145	-2.05
870.319	71.68
870.492	47.1
870.665	-18.43
870.838	-12.29
871.011	69.63
871.185	57.34
871.358	71.68
871.531	65.54
871.704	57.34
871.877	155.65
872.05	55.3
872.223	30.72
872.396	49.15
872.569	112.64
872.742	6.14
872.915	65.54
873.088	43.01
873.261	75.77
873.434	90.11
873.607	71.68
873.78	79.87
873.953	24.58
874.126	38.91
874.299	0
874.471	38.91
874.644	-16.38
874.817	38.91
874.99	116.73
875.163	83.97
875.335	126.97
875.508	63.49
875.681	69.63
875.853	-24.58
876.026	55.3
876.199	-6.14
876.371	45.06
876.544	-18.43
876.717	67.58
876.889	43.01
877.062	30.72
877.234	77.82
877.407	49.15
877.579	16.38
877.752	32.77
877.924	38.91
878.097	-30.72
878.269	63.49
878.442	67.58
878.614	51.2
878.786	77.82
878.959	6.14
879.131	30.72
879.303	28.67
879.476	83.97
879.648	100.35
879.82	83.97
879.993	49.15
880.165	71.68
880.337	-32.77
880.509	18.43
880.681	-34.82
880.854	49.15
881.026	-26.62
881.198	-6.14
881.37	22.53
881.542	-26.62
881.714	83.97
881.886	-2.05
882.058	65.54
882.23	36.86
882.402	-22.53
882.574	88.06
882.746	79.87
882.918	47.1
883.09	40.96
883.262	65.54
883.434	26.62
883.606	8.19
883.778	32.77
883.95	47.1
884.122	-83.97
884.293	71.68
884.465	75.77
884.637	30.72
884.809	-98.3
884.98	57.34
885.152	18.43
885.324	49.15
885.496	71.68
885.667	32.77
885.839	-8.19
886.011	51.2
886.182	55.3
886.354	49.15
886.525	32.77
886.697	90.11
886.869	-14.34
887.04	47.1
887.212	14.34
887.383	73.73
887.555	24.58
887.726	26.62
887.897	30.72
888.069	120.83
888.24	131.07
888.412	30.72
888.583	8.19
888.754	73.73
888.926	-34.82
889.097	34.82
889.268	-26.62
889.44	55.3
889.611	-30.72
889.782	16.38
889.953	71.68
890.125	104.45
890.296	6.14
890.467	24.58
890.638	-32.77
890.809	4.1
890.98	-6.14
891.151	8.19
891.323	55.3
891.494	137.21
891.665	10.24
891.836	-8.19
892.007	-6.14
892.178	36.86
892.349	30.72
892.52	-61.44
892.691	-43.01
892.862	63.49
893.032	-8.19
893.203	38.91
893.374	38.91
893.545	57.34
893.716	8.19
893.887	71.68
894.057	24.58
894.228	24.58
894.399	32.77
894.57	96.25
894.74	0
894.911	106.49
895.082	53.25
895.253	26.62
895.423	12.29
895.594	96.25
895.764	-22.53
895.935	79.87
896.106	22.53
896.276	8.19
896.447	-24.58
896.617	22.53
896.788	-38.91
896.958	32.77
897.129	55.3
897.299	14.34
897.47	145.41
897.64	59.39
897.81	6.14
897.981	34.82
898.151	-75.77
898.322	-14.34
898.492	92.16
898.662	71.68
898.832	16.38
899.003	53.25
899.173	36.86
899.343	4.1
899.513	14.34
