Data from USB4F104151__193__14-33-06-154.txt Node

Date: Thu Mar 13 14:33:06 EDT 2025
User: louis
Spectrometer: USB4F10415
Trigger mode: 4
Integration Time (sec): 2.500000E-2
Scans to average: 1
Electric dark correction enabled: true
Nonlinearity correction enabled: false
Boxcar width: 0
XAxis mode: Wavelengths
Number of Pixels in Spectrum: 3648
>>>>>Begin Spectral Data<<<<<
178.204	-95.74
178.424	-95.74
178.644	-95.74
178.864	-101.89
179.084	-103.93
179.304	-13.82
179.524	-38.4
179.744	0.51
179.964	37.38
180.184	-22.02
180.404	49.66
180.624	-7.68
180.844	41.47
181.064	-120.32
181.283	14.85
181.503	59.9
181.723	-1.54
181.943	-19.97
182.163	147.97
182.383	0.51
182.602	16.9
182.822	92.67
183.042	92.67
183.262	-48.64
183.482	107.01
183.701	82.43
183.921	27.14
184.141	8.7
184.361	35.33
184.58	61.95
184.8	57.86
185.02	4.61
185.239	111.1
185.459	16.9
185.679	96.77
185.898	-54.78
186.118	66.05
186.338	51.71
186.557	145.92
186.777	2.56
186.997	80.38
187.216	74.24
187.436	117.25
187.655	43.52
187.875	147.97
188.095	-36.35
188.314	39.42
188.534	123.39
188.753	33.28
188.973	61.95
189.192	104.96
189.412	72.19
189.631	94.72
189.851	29.18
190.07	152.06
190.29	-5.63
190.509	-48.64
190.729	33.28
190.948	41.47
191.168	201.21
191.387	131.58
191.607	41.47
191.826	78.33
192.045	18.94
192.265	8.7
192.484	53.76
192.704	45.57
192.923	41.47
193.142	68.09
193.362	100.86
193.581	61.95
193.8	86.53
194.02	61.95
194.239	23.04
194.458	94.72
194.678	27.14
194.897	-22.02
195.116	27.14
195.335	123.39
195.555	66.05
195.774	41.47
195.993	98.81
196.212	18.94
196.432	37.38
196.651	90.62
196.87	107.01
197.089	156.16
197.308	29.18
197.528	98.81
197.747	-5.63
197.966	57.86
198.185	113.15
198.404	27.14
198.623	41.47
198.842	123.39
199.062	55.81
199.281	156.16
199.5	12.8
199.719	125.44
199.938	10.75
200.157	86.53
200.376	51.71
200.595	37.38
200.814	61.95
201.033	16.9
201.252	49.66
201.471	-15.87
201.69	70.14
201.909	84.48
202.128	90.62
202.347	14.85
202.566	33.28
202.785	35.33
203.004	0.51
203.223	139.77
203.442	88.57
203.661	68.09
203.879	90.62
204.098	133.63
204.317	27.14
204.536	78.33
204.755	41.47
204.974	37.38
205.193	41.47
205.411	100.86
205.63	51.71
205.849	49.66
206.068	49.66
206.287	74.24
206.505	109.05
206.724	84.48
206.943	18.94
207.162	90.62
207.381	-9.73
207.599	61.95
207.818	57.86
208.037	66.05
208.255	25.09
208.474	143.87
208.693	80.38
208.911	0.51
209.13	76.29
209.349	84.48
209.567	76.29
209.786	70.14
210.005	74.24
210.223	51.71
210.442	-26.11
210.661	109.05
210.879	35.33
211.098	90.62
211.316	59.9
211.535	66.05
211.753	2.56
211.972	102.91
212.191	31.23
212.409	82.43
212.628	53.76
212.846	80.38
213.065	70.14
213.283	78.33
213.502	129.53
213.72	37.38
213.938	49.66
214.157	16.9
214.375	45.57
214.594	45.57
214.812	113.15
215.031	-24.06
215.249	-15.87
215.467	53.76
215.686	51.71
215.904	117.25
216.122	47.62
216.341	96.77
216.559	49.66
216.778	33.28
216.996	51.71
217.214	37.38
217.432	10.75
217.651	25.09
217.869	0.51
218.087	33.28
218.306	37.38
218.524	59.9
218.742	33.28
218.96	55.81
219.179	109.05
219.397	37.38
219.615	18.94
219.833	25.09
220.051	33.28
220.27	82.43
220.488	66.05
220.706	27.14
220.924	41.47
221.142	12.8
221.36	37.38
221.578	-15.87
221.796	-5.63
222.015	59.9
222.233	-13.82
222.451	68.09
222.669	66.05
222.887	113.15
223.105	-5.63
223.323	51.71
223.541	47.62
223.759	98.81
223.977	6.66
224.195	107.01
224.413	29.18
224.631	78.33
224.849	84.48
225.067	49.66
225.285	-5.63
225.503	72.19
225.721	66.05
225.939	117.25
226.157	82.43
226.375	184.83
226.592	49.66
226.81	70.14
227.028	100.86
227.246	84.48
227.464	16.9
227.682	-22.02
227.9	66.05
228.117	119.29
228.335	-19.97
228.553	78.33
228.771	55.81
228.989	82.43
229.206	47.62
229.424	72.19
229.642	57.86
229.86	25.09
230.077	82.43
230.295	41.47
230.513	51.71
230.731	74.24
230.948	109.05
231.166	90.62
231.384	8.7
231.601	45.57
231.819	80.38
232.037	-24.06
232.254	4.61
232.472	37.38
232.689	84.48
232.907	82.43
233.125	49.66
233.342	66.05
233.56	20.99
233.777	121.34
233.995	68.09
234.213	141.82
234.43	90.62
234.648	6.66
234.865	-38.4
235.083	43.52
235.3	25.09
235.518	59.9
235.735	84.48
235.953	98.81
236.17	135.68
236.388	53.76
236.605	33.28
236.822	80.38
237.04	12.8
237.257	18.94
237.475	-13.82
237.692	98.81
237.909	49.66
238.127	18.94
238.344	-22.02
238.562	57.86
238.779	27.14
238.996	2.56
239.214	8.7
239.431	111.1
239.648	41.47
239.865	131.58
240.083	41.47
240.3	88.57
240.517	37.38
240.735	18.94
240.952	74.24
241.169	0.51
241.386	66.05
241.603	43.52
241.821	4.61
242.038	47.62
242.255	115.2
242.472	78.33
242.689	68.09
242.907	70.14
243.124	10.75
243.341	57.86
243.558	90.62
243.775	16.9
243.992	8.7
244.209	25.09
244.426	68.09
244.643	74.24
244.86	51.71
245.078	29.18
245.295	70.14
245.512	-13.82
245.729	109.05
245.946	90.62
246.163	51.71
246.38	41.47
246.597	70.14
246.814	16.9
247.031	68.09
247.248	107.01
247.464	45.57
247.681	66.05
247.898	27.14
248.115	90.62
248.332	57.86
248.549	94.72
248.766	37.38
248.983	104.96
249.2	-28.16
249.417	82.43
249.633	29.18
249.85	70.14
250.067	29.18
250.284	90.62
250.501	33.28
250.717	70.14
250.934	-7.68
251.151	70.14
251.368	90.62
251.585	90.62
251.801	27.14
252.018	53.76
252.235	-5.63
252.451	86.53
252.668	74.24
252.885	74.24
253.102	119.29
253.318	92.67
253.535	90.62
253.752	100.86
253.968	8.7
254.185	84.48
254.401	37.38
254.618	59.9
254.835	37.38
255.051	123.39
255.268	82.43
255.484	111.1
255.701	8.7
255.917	-19.97
256.134	29.18
256.351	45.57
256.567	-48.64
256.784	92.67
257	25.09
257.217	57.86
257.433	35.33
257.65	94.72
257.866	98.81
258.082	-7.68
258.299	51.71
258.515	111.1
258.732	14.85
258.948	33.28
259.165	4.61
259.381	59.9
259.597	90.62
259.814	25.09
260.03	-1.54
260.246	45.57
260.463	74.24
260.679	102.91
260.895	43.52
261.112	59.9
261.328	102.91
261.544	35.33
261.761	94.72
261.977	43.52
262.193	-28.16
262.409	57.86
262.626	27.14
262.842	74.24
263.058	8.7
263.274	66.05
263.49	31.23
263.707	84.48
263.923	82.43
264.139	-3.58
264.355	47.62
264.571	33.28
264.787	135.68
265.004	74.24
265.22	51.71
265.436	0.51
265.652	-22.02
265.868	68.09
266.084	64
266.3	66.05
266.516	-13.82
266.732	152.06
266.948	127.49
267.164	98.81
267.38	16.9
267.596	8.7
267.812	90.62
268.028	68.09
268.244	23.04
268.46	-5.63
268.676	27.14
268.892	98.81
269.108	41.47
269.324	8.7
269.54	33.28
269.756	90.62
269.972	53.76
270.188	74.24
270.403	23.04
270.619	39.42
270.835	41.47
271.051	57.86
271.267	-11.78
271.483	35.33
271.698	100.86
271.914	80.38
272.13	-5.63
272.346	8.7
272.562	49.66
272.777	45.57
272.993	59.9
273.209	-48.64
273.425	45.57
273.64	66.05
273.856	98.81
274.072	68.09
274.287	0.51
274.503	57.86
274.719	78.33
274.934	98.81
275.15	10.75
275.366	37.38
275.581	-28.16
275.797	23.04
276.012	29.18
276.228	51.71
276.444	27.14
276.659	131.58
276.875	-22.02
277.09	12.8
277.306	16.9
277.521	61.95
277.737	-7.68
277.952	78.33
278.168	82.43
278.383	27.14
278.599	92.67
278.814	123.39
279.03	72.19
279.245	109.05
279.461	98.81
279.676	109.05
279.892	45.57
280.107	41.47
280.322	25.09
280.538	115.2
280.753	-46.59
280.969	8.7
281.184	98.81
281.399	150.01
281.615	59.9
281.83	51.71
282.045	43.52
282.26	74.24
282.476	18.94
282.691	82.43
282.906	20.99
283.122	29.18
283.337	10.75
283.552	78.33
283.767	-3.58
283.983	51.71
284.198	53.76
284.413	53.76
284.628	-13.82
284.843	25.09
285.058	82.43
285.274	57.86
285.489	16.9
285.704	98.81
285.919	51.71
286.134	45.57
286.349	82.43
286.564	2.56
286.779	68.09
286.995	35.33
287.21	-26.11
287.425	45.57
287.64	-26.11
287.855	41.47
288.07	-30.21
288.285	53.76
288.5	2.56
288.715	61.95
288.93	49.66
289.145	16.9
289.36	-7.68
289.575	96.77
289.79	86.53
290.004	76.29
290.219	66.05
290.434	66.05
290.649	49.66
290.864	20.99
291.079	49.66
291.294	80.38
291.509	27.14
291.724	2.56
291.938	131.58
292.153	100.86
292.368	82.43
292.583	23.04
292.798	107.01
293.012	33.28
293.227	35.33
293.442	35.33
293.657	82.43
293.871	131.58
294.086	2.56
294.301	51.71
294.516	55.81
294.73	88.57
294.945	57.86
295.16	25.09
295.374	57.86
295.589	90.62
295.804	33.28
296.018	16.9
296.233	23.04
296.447	57.86
296.662	53.76
296.877	59.9
297.091	2.56
297.306	94.72
297.52	92.67
297.735	-7.68
297.949	25.09
298.164	98.81
298.378	57.86
298.593	-17.92
298.807	43.52
299.022	86.53
299.236	16.9
299.451	74.24
299.665	43.52
299.88	57.86
300.094	2.56
300.309	135.68
300.523	-3.58
300.737	70.14
300.952	29.18
301.166	0.51
301.381	8.7
301.595	31.23
301.809	41.47
302.024	27.14
302.238	86.53
302.452	104.96
302.667	-17.92
302.881	123.39
303.095	111.1
303.309	51.71
303.524	-7.68
303.738	-36.35
303.952	10.75
304.166	180.73
304.381	-11.78
304.595	84.48
304.809	57.86
305.023	53.76
305.237	51.71
305.452	68.09
305.666	92.67
305.88	12.8
306.094	76.29
306.308	18.94
306.522	78.33
306.736	25.09
306.95	45.57
307.164	107.01
307.379	-7.68
307.593	96.77
307.807	113.15
308.021	70.14
308.235	96.77
308.449	57.86
308.663	33.28
308.877	57.86
309.091	76.29
309.305	84.48
309.519	-24.06
309.733	45.57
309.947	92.67
310.161	90.62
310.374	41.47
310.588	129.53
310.802	18.94
311.016	27.14
311.23	41.47
311.444	51.71
311.658	70.14
311.872	102.91
312.085	-7.68
312.299	98.81
312.513	109.05
312.727	115.2
312.941	-7.68
313.154	84.48
313.368	27.14
313.582	80.38
313.796	0.51
314.009	57.86
314.223	29.18
314.437	20.99
314.651	70.14
314.864	12.8
315.078	49.66
315.292	43.52
315.505	107.01
315.719	82.43
315.933	107.01
316.146	94.72
316.36	23.04
316.573	57.86
316.787	43.52
317.001	8.7
317.214	76.29
317.428	25.09
317.641	70.14
317.855	68.09
318.068	104.96
318.282	29.18
318.495	90.62
318.709	92.67
318.922	37.38
319.136	117.25
319.349	152.06
319.563	74.24
319.776	78.33
319.99	27.14
320.203	78.33
320.417	76.29
320.63	76.29
320.843	133.63
321.057	90.62
321.27	59.9
321.483	66.05
321.697	143.87
321.91	53.76
322.124	23.04
322.337	-11.78
322.55	-32.26
322.763	41.47
322.977	90.62
323.19	70.14
323.403	-28.16
323.617	49.66
323.83	76.29
324.043	41.47
324.256	49.66
324.469	74.24
324.683	57.86
324.896	37.38
325.109	70.14
325.322	27.14
325.535	107.01
325.748	57.86
325.962	0.51
326.175	98.81
326.388	117.25
326.601	100.86
326.814	35.33
327.027	10.75
327.24	35.33
327.453	-15.87
327.666	74.24
327.879	94.72
328.092	68.09
328.305	68.09
328.518	41.47
328.731	20.99
328.944	49.66
329.157	125.44
329.37	25.09
329.583	92.67
329.796	100.86
330.009	8.7
330.222	123.39
330.435	141.82
330.648	90.62
330.861	92.67
331.073	92.67
331.286	49.66
331.499	45.57
331.712	92.67
331.925	10.75
332.138	68.09
332.35	74.24
332.563	8.7
332.776	70.14
332.989	76.29
333.202	49.66
333.414	78.33
333.627	6.66
333.84	135.68
334.053	53.76
334.265	88.57
334.478	43.52
334.691	59.9
334.903	49.66
335.116	-26.11
335.329	27.14
335.541	107.01
335.754	94.72
335.966	-36.35
336.179	109.05
336.392	53.76
336.604	66.05
336.817	123.39
337.029	43.52
337.242	109.05
337.454	125.44
337.667	102.91
337.88	74.24
338.092	29.18
338.305	25.09
338.517	31.23
338.729	135.68
338.942	49.66
339.154	41.47
339.367	35.33
339.579	66.05
339.792	84.48
340.004	127.49
340.217	43.52
340.429	57.86
340.641	41.47
340.854	74.24
341.066	68.09
341.278	82.43
341.491	117.25
341.703	107.01
341.915	66.05
342.128	53.76
342.34	57.86
342.552	78.33
342.764	45.57
342.977	82.43
343.189	119.29
343.401	156.16
343.613	12.8
343.826	102.91
344.038	49.66
344.25	61.95
344.462	53.76
344.674	53.76
344.886	92.67
345.099	158.21
345.311	88.57
345.523	-36.35
345.735	25.09
345.947	-24.06
346.159	53.76
346.371	70.14
346.583	49.66
346.795	98.81
347.007	33.28
347.219	51.71
347.431	61.95
347.643	109.05
347.855	18.94
348.067	131.58
348.279	33.28
348.491	29.18
348.703	121.34
348.915	20.99
349.127	53.76
349.339	84.48
349.551	82.43
349.763	107.01
349.975	37.38
350.187	16.9
350.399	166.4
350.61	92.67
350.822	74.24
351.034	49.66
351.246	57.86
351.458	70.14
351.669	82.43
351.881	57.86
352.093	68.09
352.305	96.77
352.517	25.09
352.728	57.86
352.94	90.62
353.152	119.29
353.363	16.9
353.575	143.87
353.787	156.16
353.999	82.43
354.21	117.25
354.422	6.66
354.633	-15.87
354.845	129.53
355.057	55.81
355.268	119.29
355.48	18.94
355.692	33.28
355.903	41.47
356.115	45.57
356.326	82.43
356.538	53.76
356.749	100.86
356.961	160.25
357.172	102.91
357.384	74.24
357.595	143.87
357.807	25.09
358.018	43.52
358.23	74.24
358.441	107.01
358.653	125.44
358.864	68.09
359.075	47.62
359.287	111.1
359.498	78.33
359.709	125.44
359.921	66.05
360.132	74.24
360.344	82.43
360.555	41.47
360.766	61.95
360.977	18.94
361.189	94.72
361.4	33.28
361.611	147.97
361.823	37.38
362.034	37.38
362.245	41.47
362.456	115.2
362.667	107.01
362.879	25.09
363.09	147.97
363.301	66.05
363.512	45.57
363.723	8.7
363.935	127.49
364.146	133.63
364.357	45.57
364.568	76.29
364.779	-3.58
364.99	96.77
365.201	16.9
365.412	98.81
365.623	64
365.834	82.43
366.045	98.81
366.256	127.49
366.467	57.86
366.678	109.05
366.889	29.18
367.1	57.86
367.311	113.15
367.522	66.05
367.733	59.9
367.944	166.4
368.155	10.75
368.366	164.35
368.577	109.05
368.788	82.43
368.999	35.33
369.209	86.53
369.42	152.06
369.631	137.73
369.842	35.33
370.053	119.29
370.264	43.52
370.474	18.94
370.685	94.72
370.896	43.52
371.107	164.35
371.317	78.33
371.528	47.62
371.739	115.2
371.95	59.9
372.16	143.87
372.371	68.09
372.582	16.9
372.792	107.01
373.003	86.53
373.214	35.33
373.424	109.05
373.635	53.76
373.846	168.45
374.056	41.47
374.267	139.77
374.477	35.33
374.688	107.01
374.898	72.19
375.109	86.53
375.319	43.52
375.53	123.39
375.74	41.47
375.951	18.94
376.161	29.18
376.372	150.01
376.582	25.09
376.793	131.58
377.003	49.66
377.214	18.94
377.424	100.86
377.635	49.66
377.845	27.14
378.055	66.05
378.266	33.28
378.476	147.97
378.686	82.43
378.897	131.58
379.107	123.39
379.317	100.86
379.528	49.66
379.738	119.29
379.948	78.33
380.158	113.15
380.369	12.8
380.579	51.71
380.789	29.18
380.999	133.63
381.21	94.72
381.42	104.96
381.63	74.24
381.84	111.1
382.05	57.86
382.261	123.39
382.471	59.9
382.681	16.9
382.891	150.01
383.101	117.25
383.311	131.58
383.521	90.62
383.731	70.14
383.941	131.58
384.151	53.76
384.361	37.38
384.571	150.01
384.781	82.43
384.991	115.2
385.201	109.05
385.411	86.53
385.621	123.39
385.831	45.57
386.041	129.53
386.251	68.09
386.461	61.95
386.671	49.66
386.881	82.43
387.091	107.01
387.301	74.24
387.511	70.14
387.72	127.49
387.93	109.05
388.14	49.66
388.35	96.77
388.56	135.68
388.769	143.87
388.979	141.82
389.189	74.24
389.399	88.57
389.609	61.95
389.818	135.68
390.028	57.86
390.238	113.15
390.447	61.95
390.657	86.53
390.867	74.24
391.076	111.1
391.286	66.05
391.496	152.06
391.705	51.71
391.915	129.53
392.125	57.86
392.334	125.44
392.544	131.58
392.753	147.97
392.963	107.01
393.172	59.9
393.382	107.01
393.591	135.68
393.801	70.14
394.01	135.68
394.22	49.66
394.429	160.25
394.639	115.2
394.848	223.74
395.058	133.63
395.267	80.38
395.477	166.4
395.686	223.74
395.895	131.58
396.105	272.89
396.314	156.16
396.524	131.58
396.733	158.21
396.942	180.73
397.152	119.29
397.361	133.63
397.57	129.53
397.78	182.78
397.989	107.01
398.198	258.56
398.407	147.97
398.617	152.06
398.826	184.83
399.035	147.97
399.244	129.53
399.453	150.01
399.663	147.97
399.872	123.39
400.081	141.82
400.29	197.12
400.499	70.14
400.708	242.17
400.917	125.44
401.127	182.78
401.336	166.4
401.545	240.12
401.754	201.21
401.963	246.27
402.172	123.39
402.381	102.91
402.59	125.44
402.799	102.91
403.008	188.93
403.217	174.59
403.426	211.45
403.635	84.48
403.844	219.64
404.053	221.69
404.262	221.69
404.471	209.4
404.68	190.97
404.888	164.35
405.097	184.83
405.306	188.93
405.515	270.84
405.724	215.55
405.933	233.98
406.142	193.02
406.35	338.43
406.559	221.69
406.768	197.12
406.977	297.47
407.185	238.08
407.394	356.86
407.603	180.73
407.812	262.65
408.02	270.84
408.229	266.75
408.438	307.71
408.646	330.23
408.855	289.28
409.064	346.62
409.272	381.43
409.481	434.68
409.69	338.43
409.898	387.58
410.107	438.78
410.315	297.47
410.524	438.78
410.733	408.06
410.941	385.53
411.15	426.49
411.358	461.3
411.567	475.64
411.775	449.02
411.984	565.75
412.192	524.79
412.401	565.75
412.609	619
412.818	608.76
413.026	633.33
413.234	651.77
413.443	698.87
413.651	715.25
413.86	649.72
414.068	731.64
414.276	760.31
414.485	786.93
414.693	852.47
414.901	922.1
415.11	774.64
415.318	926.19
415.526	897.52
415.734	901.62
415.943	985.58
416.151	1044.98
416.359	1001.97
416.567	973.3
416.776	1145.33
416.984	1106.42
417.192	1309.16
417.4	1139.18
417.608	1231.34
417.817	1237.49
418.025	1501.67
418.233	1384.94
418.441	1370.6
418.649	1534.44
418.857	1585.64
419.065	1677.8
419.273	1475.05
419.481	1735.14
419.689	1769.96
419.897	1823.2
420.105	1866.21
420.313	2001.38
420.521	1993.19
420.729	2056.67
420.937	2009.57
421.145	2230.75
421.353	2236.89
421.561	2370.01
421.769	2445.79
421.977	2515.42
422.185	2507.23
422.393	2531.8
422.601	2927.06
422.809	2712.02
423.017	2845.14
423.224	2908.63
423.432	3051.99
423.64	3019.22
423.848	3385.8
424.056	3215.82
424.263	3482.06
424.471	3506.63
424.679	3609.03
424.887	3598.79
425.094	3897.8
425.302	3908.04
425.51	3918.28
425.718	4092.35
425.925	4180.42
426.133	4264.38
426.341	4534.71
426.548	4809.14
426.756	4719.03
426.964	4688.31
427.171	5093.81
427.379	5280.18
427.586	5325.23
427.794	5360.05
428.001	5923.24
428.209	5906.85
428.417	5759.4
428.624	6320.54
428.832	6195.62
429.039	6212
429.247	6230.43
429.454	6896.02
429.662	7334.29
429.869	6836.63
430.076	7397.78
430.284	7008.66
430.491	7348.62
430.699	7778.7
430.906	7735.69
431.114	7760.27
431.321	8159.62
431.528	8376.7
431.736	8780.15
431.943	9109.88
432.15	8774.01
432.358	9077.11
432.565	9505.13
432.772	9421.17
432.979	9865.58
433.187	10191.2
433.394	10232.16
433.601	10803.55
433.808	10832.22
434.016	10758.49
434.223	11317.59
434.43	11960.65
434.637	11733.32
434.844	12439.87
435.052	12566.85
435.259	12644.67
435.466	12781.88
435.673	12362.05
435.88	13347.12
436.087	14174.5
436.294	14115.11
436.501	13715.76
436.708	14033.19
436.915	14387.49
437.122	15122.71
437.329	15122.71
437.537	15333.65
437.743	15673.62
437.95	15581.46
438.157	16630.02
438.364	17195.26
438.571	17262.84
438.778	17428.73
438.985	18653.41
439.192	18090.22
439.399	18563.3
439.606	18184.43
439.813	19314.91
440.02	20400.33
440.227	19558.61
440.433	19882.19
440.64	20449.48
440.847	20342.99
441.054	20613.32
441.261	21989.55
441.467	21778.61
441.674	22270.12
441.881	23005.34
442.088	22984.87
442.294	22872.23
442.501	23310.49
442.708	23826.58
442.914	24662.15
443.121	25573.5
443.328	24875.14
443.534	26783.85
443.741	26366.06
443.948	25821.3
444.154	27760.73
444.361	27455.58
444.568	27715.67
444.774	27504.73
444.981	27869.27
445.187	28981.32
445.394	29931.58
445.6	29564.99
445.807	32251.92
446.013	30844.97
446.22	31367.2
446.426	32655.37
446.633	32952.33
446.839	34111.48
447.046	33099.78
447.252	34398.2
447.459	34527.22
447.665	34240.5
447.871	35721.18
448.078	37451.72
448.284	35633.12
448.491	36487.12
448.697	37863.36
448.903	38660.02
449.11	38600.63
449.316	38219.7
449.522	38700.98
449.728	40005.53
449.935	40167.32
450.141	39864.22
450.347	41170.83
450.553	39788.45
450.76	40415.13
450.966	41201.55
451.172	41062.29
451.378	42227.58
451.584	41146.25
451.791	42069.89
451.997	41801.6
452.203	42530.68
452.409	42596.21
452.615	42104.7
452.821	40939.41
453.027	40300.44
453.233	42219.39
453.44	40585.11
453.646	41258.89
453.852	41310.09
454.058	41658.24
454.264	40468.37
454.47	41537.41
454.676	40495
454.882	42106.75
455.088	38229.94
455.294	38733.74
455.5	39593.89
455.705	39337.9
455.911	38139.83
456.117	37341.13
456.323	36792.27
456.529	34779.12
456.735	36558.8
456.941	35633.12
457.147	34863.08
457.352	33894.39
457.558	33400.83
457.764	33579.01
457.97	32569.36
458.176	32108.57
458.381	32034.84
458.587	30722.09
458.793	30634.03
458.999	28776.52
459.204	30816.3
459.41	30160.95
459.616	28104.79
459.821	28508.24
460.027	27838.55
460.233	27471.96
460.438	26124.4
460.644	26636.39
460.85	25168
461.055	24733.83
461.261	24809.61
461.466	22880.42
461.672	22349.99
461.878	24025.23
462.083	22284.46
462.289	21686.45
462.494	21627.06
462.7	20910.27
462.905	19974.35
463.111	20592.84
463.316	20867.27
463.522	20367.56
463.727	20558.02
463.932	20318.41
464.138	19849.43
464.343	20168.91
464.549	19523.8
464.754	20277.45
464.959	20213.96
465.165	19849.43
465.37	18743.52
465.575	18788.58
465.781	19423.45
465.986	19497.17
466.191	18876.64
466.397	18520.29
466.602	17082.62
466.807	18098.41
467.012	18032.88
467.218	18043.12
467.423	17924.33
467.628	18135.28
467.833	18688.23
468.038	17735.92
468.244	17361.14
468.449	18039.02
468.654	17535.22
468.859	17146.11
469.064	17393.91
469.269	16781.57
469.474	16711.94
469.679	17129.72
469.885	16498.95
470.09	16898.3
470.295	16630.02
470.5	16115.98
470.705	16150.79
470.91	16025.87
471.115	15810.83
471.32	16216.33
471.525	16089.35
471.73	15653.14
471.935	15425.81
472.139	15005.98
472.344	15153.43
472.549	15040.79
472.754	14731.55
472.959	14442.79
473.164	14108.97
473.369	14065.96
473.574	14500.13
473.778	14319.91
473.983	14360.87
474.188	14057.77
474.393	13777.2
474.598	13465.91
474.802	13574.45
475.007	13406.52
475.212	13627.7
475.417	12888.38
475.621	13087.03
475.826	13031.74
476.031	12583.23
476.235	12607.81
476.44	12667.2
476.645	12509.51
476.849	12407.11
477.054	12366.15
477.259	12118.34
477.463	12282.18
477.668	11739.47
477.872	12132.68
478.077	11944.27
478.282	11581.78
478.486	11569.49
478.691	11348.31
478.895	11288.92
479.1	11321.68
479.304	11401.55
479.509	11063.64
479.713	11264.34
479.918	11098.45
480.122	10711.39
480.326	10920.28
480.531	10838.36
480.735	10774.88
480.94	10604.89
481.144	11065.69
481.348	10586.46
481.553	10600.8
481.757	10410.34
481.961	10484.06
482.166	10666.33
482.37	10590.56
482.574	10494.3
482.778	10408.29
482.983	10746.2
483.187	10365.28
483.391	10692.96
483.595	10516.83
483.8	10232.16
484.004	10426.72
484.208	10703.2
484.412	10387.81
484.616	10508.64
484.821	10359.14
485.025	10359.14
485.229	10615.13
485.433	10428.77
485.637	10326.37
485.841	10187.11
486.045	10289.51
486.249	10580.32
486.453	10471.78
486.657	10555.74
486.861	10482.02
487.065	10023.27
487.269	10320.23
487.473	10076.52
487.677	10350.95
487.881	10760.54
488.085	10453.34
488.289	10494.3
488.493	10238.31
488.697	10479.97
488.901	10369.38
489.105	10514.78
489.309	10428.77
489.512	10449.25
489.716	10326.37
489.92	10297.7
490.124	10416.48
490.328	10690.91
490.531	10355.04
490.735	10578.27
490.939	10717.53
491.143	10559.84
491.346	10649.95
491.55	10809.69
491.754	10752.35
491.958	10467.68
492.161	10717.53
492.365	10836.31
492.569	10787.16
492.772	10496.35
492.976	10897.75
493.18	11030.87
493.383	11045.21
493.587	10922.33
493.79	11241.81
493.994	11180.37
494.197	11198.81
494.401	11428.18
494.605	11219.28
494.808	11268.44
495.012	11462.99
495.215	11450.71
495.419	11788.62
495.622	11514.19
495.825	11710.8
496.029	11780.43
496.232	12011.85
496.436	11645.26
496.639	12276.04
496.843	12267.84
497.046	12413.25
497.249	12474.69
497.453	12865.85
497.656	12630.34
497.859	12730.69
498.063	12794.17
498.266	13070.65
498.469	13056.31
498.673	13171
498.876	13287.73
499.079	13310.26
499.282	13443.38
499.485	13678.9
499.689	13736.24
499.892	14057.77
500.095	14254.37
500.298	14373.16
500.501	14391.59
500.705	14749.98
500.908	14836
501.111	14737.7
501.314	14790.94
501.517	15083.8
501.72	15319.32
501.923	15212.82
502.126	15659.28
502.329	15790.35
502.532	15911.18
502.735	16081.16
502.938	16175.37
503.141	16410.89
503.344	16408.84
503.547	16873.73
503.75	16826.62
503.953	17283.32
504.156	17035.52
504.359	17400.05
504.562	17441.01
504.765	17846.51
504.968	17826.03
505.17	18192.62
505.373	18454.76
505.576	18647.27
505.779	18759.91
505.982	18671.84
506.185	19169.5
506.387	19275.99
506.59	19187.93
506.793	19632.34
506.996	19663.06
507.198	20084.94
507.401	20000.97
507.604	20416.71
507.807	20687.04
508.009	20709.57
508.212	20877.51
508.415	21029.06
508.617	21471.42
508.82	21491.9
509.022	21612.73
509.225	22184.11
509.428	22180.01
509.63	22372.52
509.833	22266.03
510.035	23025.82
510.238	23087.26
510.44	23224.48
510.643	23255.2
510.845	23697.56
511.048	23586.97
511.25	24111.25
511.453	24246.41
511.655	25008.26
511.858	24918.15
512.06	24909.96
512.262	25026.69
512.465	24993.92
512.667	25727.1
512.87	25774.2
513.072	25675.9
513.274	26337.39
513.477	26544.23
513.679	26253.42
513.881	26785.9
514.084	26937.44
514.286	27263.07
514.488	27334.75
514.69	28000.34
514.893	28260.43
515.095	28065.88
515.297	28721.23
515.499	28442.7
515.701	29132.87
515.904	29079.62
516.106	29378.62
516.308	29710.39
516.51	29755.45
516.712	29900.86
516.914	30236.72
517.116	30634.03
517.318	30998.57
517.52	30900.26
517.722	31115.3
517.925	31137.83
518.127	31717.4
518.329	32040.98
518.531	31701.02
518.733	32434.19
518.935	32567.31
519.136	32776.2
519.338	33134.6
519.54	33110.02
519.742	33312.77
519.944	33665.02
520.146	33931.26
520.348	34047.99
520.55	33912.83
520.752	33861.63
520.954	34848.75
521.155	34557.94
521.357	35174.38
521.559	35293.16
521.761	35794.91
521.963	35790.81
522.164	35440.61
522.366	35825.63
522.568	36358.1
522.77	36116.44
522.971	36550.61
523.173	36374.48
523.375	36630.48
523.576	36790.22
523.778	36843.47
523.98	37017.55
524.181	37386.18
524.383	37072.84
524.584	37859.26
524.786	37326.79
524.988	37445.57
525.189	37941.18
525.391	37943.23
525.592	38119.35
525.794	38019
525.995	37887.93
526.197	38019
526.398	38137.79
526.6	38416.31
526.801	38361.01
527.003	38688.69
527.204	38606.77
527.406	38774.7
527.607	38719.41
527.808	38721.46
528.01	38475.7
528.211	38627.25
528.412	39202.73
528.614	38881.2
528.815	39176.11
529.016	39147.43
529.218	39075.76
529.419	39147.43
529.62	39370.66
529.822	39243.69
530.023	39172.01
530.224	39182.25
530.425	39034.8
530.626	39004.08
530.828	38606.77
531.029	39772.07
531.23	38870.96
531.431	38627.25
531.632	38938.54
531.833	39321.51
532.035	38868.91
532.236	38576.05
532.437	39196.59
532.638	38502.32
532.839	38741.94
533.04	39212.97
533.241	38602.67
533.442	39524.26
533.643	39100.33
533.844	38905.77
534.045	38932.4
534.246	38262.71
534.447	39053.23
534.648	38821.81
534.849	38660.02
535.05	38633.39
535.251	38565.81
535.451	38721.46
535.652	38580.15
535.853	38600.63
536.054	38578.1
536.255	38852.53
536.456	38039.48
536.657	38795.18
536.857	38385.59
537.058	38246.33
537.259	38684.59
537.46	38324.15
537.66	37773.25
537.861	38186.94
538.062	38082.49
538.263	38246.33
538.463	38330.3
538.664	38184.89
538.865	38225.85
539.065	38074.3
539.266	37736.38
539.466	38109.11
539.667	37697.47
539.868	38111.16
540.068	37771.2
540.269	37670.85
540.469	37976
540.67	37676.99
540.87	37582.79
541.071	37746.62
541.271	37818.3
541.472	37836.73
541.672	37361.61
541.873	37672.9
542.073	37128.14
542.274	37982.14
542.474	37504.96
542.675	37674.95
542.875	37789.63
543.075	37826.49
543.276	37124.04
543.476	37668.8
543.676	37156.81
543.877	37730.24
544.077	37412.81
544.277	37095.37
544.478	37435.33
544.678	37468.1
544.878	37572.55
545.078	37517.25
545.279	36917.2
545.479	37615.55
545.679	37113.8
545.879	37050.31
546.079	37234.63
546.28	37406.66
546.48	36829.13
546.68	37062.6
546.88	37502.92
547.08	37081.03
547.28	37228.49
547.48	36538.32
547.68	37214.15
547.88	37042.12
548.081	37167.05
548.281	37177.29
548.481	36663.25
548.681	37433.28
548.881	37076.94
549.081	37517.25
549.28	37058.51
549.48	37152.71
549.68	37158.86
549.88	37355.46
550.08	36984.78
550.28	37113.8
550.48	36972.49
550.68	37091.27
550.88	37093.32
551.08	36966.35
551.279	37550.02
551.479	37064.65
551.679	37310.41
551.879	37050.31
552.079	37187.53
552.278	36650.96
552.478	37046.22
552.678	37171.14
552.878	37330.89
553.077	37187.53
553.277	36861.9
553.477	37572.55
553.676	37136.33
553.876	37070.79
554.076	37212.1
554.275	37326.79
554.475	36607.95
554.674	36765.65
554.874	36937.68
555.074	37179.34
555.273	37232.58
555.473	37398.47
555.672	37421
555.872	36880.33
556.071	37267.4
556.271	37208.01
556.47	37220.3
556.67	36853.71
556.869	37189.58
557.068	37171.14
557.268	37046.22
557.467	37173.19
557.667	37484.48
557.866	37332.93
558.065	37246.92
558.265	36935.63
558.464	36663.25
558.663	37167.05
558.863	36540.37
559.062	37650.37
559.261	37074.89
559.461	37345.22
559.66	36691.92
559.859	37089.23
560.058	36851.66
560.258	37337.03
560.457	36818.89
560.656	37357.51
560.855	36700.11
561.054	37355.46
561.253	36589.52
561.453	37226.44
561.652	37195.72
561.851	37220.3
562.05	37277.64
562.249	36716.5
562.448	37222.34
562.647	36894.67
562.846	36859.85
563.045	36798.41
563.244	36278.23
563.443	37586.88
563.642	36579.28
563.841	36749.26
564.04	36448.21
564.239	37048.27
564.438	36450.26
564.637	36610
564.836	36794.32
565.035	36577.23
565.234	36722.64
565.432	36118.49
565.631	36607.95
565.83	36589.52
566.029	35991.51
566.228	36425.68
566.427	36231.13
566.625	36241.37
566.824	35753.95
567.023	36157.4
567.222	35629.02
567.42	36253.65
567.619	35936.22
567.818	35766.24
568.016	35704.8
568.215	36188.12
568.414	35692.51
568.612	35887.07
568.811	35487.71
569.01	35887.07
569.208	35049.45
569.407	35794.91
569.605	35067.88
569.804	35872.73
570.002	35119.08
570.201	35319.78
570.4	34914.28
570.598	35153.9
570.797	34527.22
570.995	34916.33
571.193	34512.88
571.392	35057.64
571.59	35061.74
571.789	34658.29
571.987	34783.21
572.186	34631.66
572.384	34359.28
572.582	34643.95
572.781	34052.09
572.979	34461.68
573.177	34144.25
573.376	34273.27
573.574	34236.41
573.772	34166.77
573.971	33880.06
574.169	33921.02
574.367	33566.72
574.565	33871.87
574.763	33546.24
574.962	33495.04
575.16	33421.31
575.358	33517.57
575.556	33378.31
575.754	33486.85
575.952	32768.01
576.151	33112.07
576.349	32571.41
576.547	32772.11
576.745	33036.3
576.943	32892.94
577.141	32614.41
577.339	32749.58
577.537	32430.1
577.735	32636.94
577.933	32393.23
578.131	32296.98
578.329	32317.46
578.527	31971.35
578.725	31957.02
578.923	32215.06
579.121	32141.33
579.319	31905.82
579.516	32442.38
579.714	32012.31
579.912	31774.75
580.11	31545.37
580.308	31567.9
580.506	31615.01
580.704	31229.99
580.901	31608.86
581.099	31563.81
581.297	31092.77
581.495	31098.92
581.692	31574.05
581.89	30617.64
582.088	30818.35
582.285	30971.94
582.483	31094.82
582.681	30627.88
582.878	30777.39
583.076	30332.98
583.274	30769.19
583.471	30134.32
583.669	30197.81
583.866	30314.55
584.064	30406.7
584.262	29767.74
584.459	30259.25
584.657	30167.09
584.854	30085.17
585.052	29337.66
585.249	29888.57
585.447	29728.83
585.644	29470.78
585.841	29407.3
586.039	29665.34
586.236	29349.95
586.434	29100.1
586.631	29071.43
586.828	28948.55
587.026	29075.52
587.223	29395.01
587.42	29239.36
587.618	29016.13
587.815	29005.89
588.012	28629.07
588.21	28606.54
588.407	29114.44
588.604	28575.82
588.801	28479.57
588.999	28909.64
589.196	28336.21
589.393	28614.73
589.59	28282.96
589.787	28186.71
589.984	28389.45
590.182	28237.91
590.379	28248.14
590.576	27699.29
590.773	28010.58
590.97	27889.75
591.167	28203.09
591.364	27531.36
591.561	27654.23
591.758	27643.99
591.955	27572.32
592.152	27945.05
592.349	27338.85
592.546	27533.4
592.743	27437.15
592.94	27107.43
593.137	27437.15
593.334	27285.6
593.531	27154.53
593.727	27111.52
593.924	27146.34
594.121	26746.98
594.318	26998.88
594.515	26857.57
594.712	26921.06
594.908	26783.85
595.105	27283.55
595.302	26746.98
595.499	26847.33
595.696	26677.35
595.892	26339.44
596.089	26603.63
596.286	27007.08
596.482	26490.99
596.679	26568.81
596.876	26550.38
597.072	26427.5
597.269	26337.39
597.466	26613.87
597.662	26237.04
597.859	26318.96
598.055	26347.63
598.252	25870.45
598.448	26091.63
598.645	26224.75
598.841	26005.62
599.038	26071.15
599.234	26220.66
599.431	25827.45
599.627	25962.61
599.824	25960.56
600.02	26179.7
600.217	26243.18
600.413	25774.2
600.609	25970.8
600.806	25919.6
601.002	25858.17
601.198	25911.41
601.395	25755.77
601.591	25919.6
601.787	25976.95
601.984	25653.37
602.18	26263.66
602.376	25628.79
602.572	25655.42
602.769	25804.92
602.965	25481.34
603.161	26056.82
603.357	25172.1
603.553	25827.45
603.75	25970.8
603.946	25827.45
604.142	25772.15
604.338	25376.89
604.534	25931.89
604.73	25430.14
604.926	25356.41
605.122	25436.28
605.318	25643.13
605.514	25309.31
605.71	25428.09
605.906	25608.31
606.102	25833.59
606.298	25602.17
606.494	25493.63
606.69	25720.95
606.886	25602.17
607.082	25356.41
607.278	25366.65
607.474	25202.82
607.67	25671.8
607.866	25460.86
608.062	25806.97
608.257	25811.06
608.453	25608.31
608.649	25712.76
608.845	25528.44
609.041	25677.94
609.236	25884.79
609.432	25639.03
609.628	25651.32
609.824	26038.39
610.019	25735.29
610.215	25514.11
610.411	25778.29
610.606	25913.46
610.802	25651.32
610.998	25741.43
611.193	25825.4
611.389	25669.75
611.584	25710.71
611.78	25847.93
611.976	25694.33
612.171	25970.8
612.367	25784.44
612.562	25763.96
612.758	25555.07
612.953	25514.11
613.149	25753.72
613.344	25530.49
613.539	26312.81
613.735	25542.78
613.93	25849.97
614.126	25892.98
614.321	26052.72
614.517	26028.15
614.712	25819.25
614.907	25757.81
615.103	26112.11
615.298	25557.11
615.493	26026.1
615.688	25360.51
615.884	26302.57
616.079	25444.48
616.274	25813.11
616.47	25716.86
616.665	25821.3
616.86	25428.09
617.055	25741.43
617.25	25581.69
617.445	25819.25
617.641	25200.77
617.836	25727.1
618.031	25520.25
618.226	25559.16
618.421	25505.91
618.616	25538.68
618.811	25604.22
619.006	25743.48
619.201	24776.84
619.396	25227.39
619.591	25114.75
619.786	25116.8
619.981	25028.74
620.176	25084.03
620.371	24651.91
620.566	24815.75
620.761	24678.54
620.956	24897.67
621.151	24574.09
621.346	24854.66
621.541	24189.07
621.735	24629.38
621.93	23789.72
622.125	24449.16
622.32	24023.19
622.515	24170.64
622.709	23881.88
622.904	23885.97
623.099	23515.29
623.294	23892.12
623.488	23554.2
623.683	23529.62
623.878	22988.96
624.072	23240.86
624.267	23195.81
624.462	23134.37
624.656	22784.16
624.851	22941.86
625.046	22671.53
625.24	22589.61
625.435	22519.98
625.629	22335.66
625.824	22042.8
626.018	22122.67
626.213	21721.27
626.407	22223.02
626.602	21586.1
626.796	22114.48
626.991	21784.76
627.185	21561.53
627.38	21336.25
627.574	21405.88
627.768	21440.7
627.963	21461.18
628.157	20986.05
628.352	21121.21
628.546	20687.04
628.74	20535.49
628.935	20508.87
629.129	20400.33
629.323	20545.73
629.517	20455.62
629.712	20187.34
629.906	20107.47
630.1	20123.85
630.294	20222.16
630.489	20080.85
630.683	19882.19
630.877	19488.98
631.071	19515.61
631.265	19595.48
631.459	19394.78
631.653	19325.15
631.848	19161.31
632.042	19181.79
632.236	19138.78
632.43	19044.57
632.624	18788.58
632.818	18587.88
633.012	18399.46
633.206	18745.57
633.4	18465
633.594	18209
633.788	18262.25
633.982	18335.98
634.176	17815.79
634.369	18292.97
634.563	17811.7
634.757	17805.55
634.951	17625.33
635.145	17635.57
635.339	17823.98
635.533	17361.14
635.726	17516.79
635.92	17180.92
636.114	17324.28
636.308	17168.63
636.501	16996.6
636.695	17101.05
636.889	16920.83
637.083	16804.1
637.276	16548.1
637.47	16533.76
637.664	16457.99
637.857	16322.82
638.051	16220.42
638.244	16136.46
638.438	15978.76
638.632	15937.8
638.825	16138.51
639.019	15882.51
639.212	15931.66
639.406	15610.13
639.599	15354.13
639.793	15540.5
639.986	15485.2
640.18	15415.57
640.373	15245.59
640.567	14932.25
640.76	14934.3
640.954	15233.3
641.147	14893.34
641.34	14616.86
641.534	14973.21
641.727	14666.02
641.92	14616.86
642.114	14493.99
642.307	14485.79
642.5	14442.79
642.694	14178.6
642.887	13877.55
643.08	14164.26
643.273	14172.46
643.467	13895.98
643.66	13795.63
643.853	13990.19
644.046	13537.59
644.239	13736.24
644.432	13453.62
644.626	13621.55
644.819	13033.79
645.012	13472.05
645.205	13396.28
645.398	13080.89
645.591	12992.83
645.784	12953.91
645.977	13013.31
646.17	12984.63
646.363	12783.93
646.556	12634.43
646.749	12579.14
646.942	12702.01
647.135	12607.81
647.328	12462.4
647.521	12472.64
647.714	12282.18
647.907	12157.25
648.099	12069.19
648.292	11972.94
648.485	12050.76
648.678	11927.88
648.871	11936.07
649.064	11749.71
649.256	12050.76
649.449	11592.02
649.642	11604.3
649.835	11446.61
650.027	11282.77
650.22	11487.57
650.413	11391.31
650.605	11309.4
650.798	11252.05
650.991	11034.97
651.183	11102.55
651.376	10973.53
651.568	11057.5
651.761	11012.44
651.954	11116.89
652.146	10862.94
652.339	10981.72
652.531	10719.58
652.724	10658.14
652.916	10494.3
653.109	10439.01
653.301	10492.26
653.494	10455.39
653.686	10170.72
653.879	10539.36
654.071	10355.04
654.263	10217.83
654.456	10219.88
654.648	10361.19
654.84	9910.63
655.033	10019.18
655.225	9943.4
655.417	9947.5
655.61	9640.3
655.802	9855.34
655.994	9800.04
656.186	9884.01
656.379	9488.75
656.571	9609.58
656.763	9642.35
656.955	9333.11
657.148	9494.9
657.34	9353.59
657.532	9167.22
657.724	9224.56
657.916	9195.89
658.108	9113.97
658.3	8997.24
658.492	9017.72
658.684	8896.89
658.876	8929.66
659.068	9128.31
659.26	8972.66
659.452	8774.01
659.644	8827.26
659.836	8554.88
660.028	8765.82
660.22	8659.32
660.412	8536.45
660.604	8489.34
660.796	8456.57
660.988	8458.62
661.18	8307.07
661.372	8173.96
661.563	8489.34
661.755	8128.9
661.947	8262.02
662.139	8135.04
662.331	8149.38
662.522	8069.51
662.714	7860.62
662.906	7954.82
663.097	7743.88
663.289	7887.24
663.481	7600.52
663.673	7905.67
663.864	7784.84
664.056	7813.51
664.247	7813.51
664.439	7737.74
664.631	7504.27
664.822	7635.34
665.014	7664.01
665.205	7385.49
665.397	7440.78
665.588	7381.39
665.78	7405.97
665.971	7221.65
666.163	7238.03
666.354	7283.09
666.546	7233.94
666.737	7092.63
666.929	7055.76
667.12	7154.07
667.311	6939.03
667.503	7176.59
667.694	6986.13
667.885	6990.23
668.077	7070.1
668.268	6934.93
668.459	6678.94
668.651	6748.57
668.842	6767
669.033	6701.47
669.224	6582.68
669.416	6793.62
669.607	6574.49
669.798	6513.05
669.989	6728.09
670.18	6554.01
670.371	6642.07
670.563	6578.59
670.754	6529.44
670.945	6320.54
671.136	6437.28
671.327	6308.26
671.518	6250.91
671.709	6349.22
671.9	6349.22
672.091	6318.5
672.282	6140.32
672.473	6021.54
672.664	6091.17
672.855	6128.03
673.046	5999.01
673.237	6089.12
673.428	6185.38
673.619	6011.3
673.809	5939.62
674	5972.39
674.191	5988.77
674.382	5939.62
674.573	5865.89
674.764	5867.94
674.954	6001.06
675.145	5679.53
675.336	5874.09
675.527	5867.94
675.717	5874.09
675.908	5632.43
676.099	5894.57
676.289	5663.15
676.48	5669.29
676.671	5540.27
676.861	5740.97
677.052	5540.27
677.243	5538.22
677.433	5761.45
677.624	5804.46
677.814	5450.16
678.005	5626.28
678.195	5579.18
678.386	5595.56
678.576	5460.4
678.767	5499.31
678.957	5439.92
679.148	5554.6
679.338	5439.92
679.529	5368.24
679.719	5368.24
679.909	5386.67
680.1	5491.12
680.29	5235.12
680.481	5310.89
680.671	5374.38
680.861	5390.77
681.052	5278.13
681.242	5343.66
681.432	5331.37
681.622	5165.49
681.813	5188.02
682.003	5171.63
682.193	5058.99
682.383	5095.86
682.573	5177.78
682.764	5319.09
682.954	5077.43
683.144	5222.83
683.334	5202.35
683.524	5134.77
683.714	5171.63
683.904	5085.62
684.094	5112.24
684.284	4940.21
684.474	5202.35
684.664	5081.52
684.854	4925.88
685.044	5073.33
685.234	4817.33
685.424	4934.07
685.614	4772.28
685.804	4846.01
685.994	4915.64
686.184	4854.2
686.374	4874.68
686.564	4932.02
686.753	4948.4
686.943	4936.12
687.133	4866.49
687.323	4837.81
687.513	4852.15
687.702	4776.38
687.892	4768.18
688.082	4743.61
688.272	4751.8
688.461	4874.68
688.651	4829.62
688.841	4645.31
689.03	4688.31
689.22	4716.98
689.41	4727.22
689.599	4723.13
689.789	4647.35
689.979	4907.45
690.168	4635.07
690.358	4587.96
690.547	4596.15
690.737	4475.32
690.926	4559.29
691.116	4460.99
691.305	4499.9
691.495	4514.24
691.684	4518.33
691.874	4602.3
692.063	4491.71
692.252	4350.4
692.442	4479.42
692.631	4366.78
692.82	4399.55
693.01	4516.28
693.199	4440.51
693.388	4264.38
693.578	4422.08
693.767	4350.4
693.956	4493.76
694.146	4286.91
694.335	4157.89
694.524	4391.36
694.713	4293.05
694.902	4352.45
695.092	4348.35
695.281	4268.48
695.47	4374.97
695.659	4137.41
695.848	4211.14
696.037	4213.18
696.226	4145.6
696.415	4243.9
696.604	4243.9
696.793	4141.5
696.982	4059.59
697.171	4100.55
697.36	4026.82
697.549	4071.87
697.738	4168.13
697.927	4129.22
698.116	4137.41
698.305	4039.11
698.494	4022.72
698.683	4241.86
698.872	3961.28
699.061	3957.19
699.25	3865.03
699.438	3940.8
699.627	4121.03
699.816	3908.04
700.005	3893.7
700.193	3989.96
700.382	3989.96
700.571	3887.56
700.76	3830.21
700.948	3959.24
701.137	4008.39
701.326	3875.27
701.514	3879.36
701.703	3746.25
701.892	3783.11
702.08	3830.21
702.269	3768.77
702.457	3756.49
702.646	3754.44
702.834	3670.47
703.023	3768.77
703.212	3594.7
703.4	3707.34
703.589	3744.2
703.777	3760.58
703.965	3613.13
704.154	3727.82
704.342	3584.46
704.531	3699.14
704.719	3563.98
704.907	3649.99
705.096	3643.85
705.284	3703.24
705.472	3502.54
705.661	3473.87
705.849	3568.07
706.037	3641.8
706.226	3514.83
706.414	3502.54
706.602	3475.91
706.79	3531.21
706.979	3428.81
707.167	3396.04
707.355	3523.02
707.543	3477.96
707.731	3453.39
707.919	3314.13
708.107	3396.04
708.296	3281.36
708.484	3312.08
708.672	3334.61
708.86	3379.66
709.048	3346.89
709.236	3394
709.424	3420.62
709.612	3297.74
709.8	3338.7
709.988	3023.31
710.176	3252.69
710.364	3250.64
710.551	3310.03
710.739	3246.54
710.927	3127.76
711.115	3219.92
711.303	3314.13
711.491	3183.06
711.679	3303.89
711.866	3211.73
712.054	3121.62
712.242	3025.36
712.43	3211.73
712.617	3213.77
712.805	3197.39
712.993	3088.85
713.181	3060.18
713.368	3256.78
713.556	3049.94
713.744	2968.02
713.931	3142.1
714.119	2927.06
714.306	3084.75
714.494	2853.33
714.682	2929.11
714.869	3002.83
715.057	2986.45
715.244	3023.31
715.432	2963.92
715.619	2951.63
715.807	2953.68
715.994	2916.82
716.182	3017.17
716.369	2918.87
716.556	2892.24
716.744	2914.77
716.931	2755.03
717.119	2720.21
717.306	2851.28
717.493	2863.57
717.681	2818.52
717.868	2769.37
718.055	2828.76
718.242	2687.45
718.43	2888.15
718.617	2738.65
718.804	2826.71
718.991	2703.83
719.179	2802.13
719.366	2771.41
719.553	2861.52
719.74	2761.17
719.927	2679.26
720.114	2564.57
720.301	2638.3
720.488	2623.96
720.676	2638.3
720.863	2640.34
721.05	2648.54
721.237	2605.53
721.424	2656.73
721.611	2589.14
721.798	2597.34
721.985	2574.81
722.172	2507.23
722.358	2580.95
722.545	2730.45
722.732	2574.81
722.919	2621.91
723.106	2474.46
723.293	2666.97
723.48	2435.55
723.667	2441.69
723.853	2499.03
724.04	2353.63
724.227	2515.42
724.414	2507.23
724.6	2445.79
724.787	2445.79
724.974	2484.7
725.161	2380.25
725.347	2347.48
725.534	2552.28
725.72	2339.29
725.907	2486.75
726.094	2314.72
726.28	2318.81
726.467	2417.12
726.653	2392.54
726.84	2458.07
727.027	2441.69
727.213	2353.63
727.4	2359.77
727.586	2294.24
727.773	2292.19
727.959	2304.48
728.145	2349.53
728.332	2400.73
728.518	2138.59
728.705	2359.77
728.891	2263.52
729.077	2279.9
729.264	2240.99
729.45	2230.75
729.636	2372.06
729.823	2130.4
730.009	2208.22
730.195	2245.09
730.382	2214.37
730.568	2296.28
730.754	2183.65
730.94	2284
731.126	2261.47
731.313	2318.81
731.499	2187.74
731.685	2163.17
731.871	2048.48
732.057	2204.13
732.243	2146.78
732.429	2167.26
732.615	2210.27
732.801	2218.46
732.987	2095.58
733.173	2142.69
733.359	2146.78
733.545	2146.78
733.731	2114.02
733.917	2138.59
734.103	2187.74
734.289	2195.93
734.475	2064.86
734.661	2179.55
734.847	2001.38
735.033	2034.14
735.219	2132.45
735.404	2091.49
735.59	2095.58
735.776	2054.62
735.962	1999.33
736.148	2023.91
736.333	2105.82
736.519	1944.03
736.705	2015.71
736.89	2034.14
737.076	2040.29
737.262	1937.89
737.447	1903.07
737.633	2046.43
737.819	2040.29
738.004	1894.88
738.19	1901.03
738.375	1966.56
738.561	1950.18
738.747	1995.23
738.932	1884.64
739.118	1952.23
739.303	1935.84
739.489	1968.61
739.674	1956.32
739.859	1868.26
740.045	1937.89
740.23	1851.88
740.416	1909.22
740.601	1898.98
740.786	1788.39
740.972	1778.15
741.157	1804.77
741.342	1731.05
741.528	1753.57
741.713	1749.48
741.898	1782.24
742.084	1829.35
742.269	1755.62
742.454	1788.39
742.639	1747.43
742.824	1737.19
743.01	1761.77
743.195	1749.48
743.38	1698.28
743.565	1780.2
743.75	1718.76
743.935	1796.58
744.12	1765.86
744.305	1667.56
744.49	1710.57
744.675	1659.37
744.86	1647.08
745.045	1614.31
745.23	1665.51
745.415	1655.27
745.6	1659.37
745.785	1700.33
745.97	1671.65
746.155	1616.36
746.34	1634.79
746.525	1493.48
746.71	1743.33
746.895	1655.27
747.079	1487.34
747.264	1513.96
747.449	1616.36
747.634	1548.78
747.819	1454.57
748.003	1442.28
748.188	1425.9
748.373	1540.58
748.557	1495.53
748.742	1524.2
748.927	1450.47
749.111	1434.09
749.296	1470.95
749.481	1370.6
749.665	1321.45
749.85	1434.09
750.034	1319.4
750.219	1401.32
750.404	1370.6
750.588	1364.46
750.773	1298.92
750.957	1376.75
751.141	1255.92
751.326	1307.12
751.51	1309.16
751.695	1214.96
751.879	1231.34
752.064	1389.03
752.248	1311.21
752.432	1270.25
752.617	1245.68
752.801	1331.69
752.985	1319.4
753.17	1325.55
753.354	1206.77
753.538	1235.44
753.722	1229.29
753.907	1196.53
754.091	1272.3
754.275	1204.72
754.459	1266.16
754.643	1114.61
754.828	1223.15
755.012	1212.91
755.196	1161.71
755.38	1182.19
755.564	1110.51
755.748	1165.81
755.932	1108.46
756.116	1182.19
756.3	1243.63
756.484	1167.85
756.668	997.87
756.852	1051.12
757.036	1049.07
757.22	1081.84
757.404	1065.46
757.588	1036.78
757.772	1063.41
757.956	1018.35
758.14	1049.07
758.323	954.87
758.507	1030.64
758.691	983.54
758.875	1044.98
759.059	1108.46
759.242	954.87
759.426	948.72
759.61	983.54
759.794	963.06
759.977	909.81
760.161	1182.19
760.345	993.78
760.528	952.82
760.712	1004.02
760.895	999.92
761.079	1012.21
761.263	975.35
761.446	977.39
761.63	926.19
761.813	963.06
761.997	1001.97
762.18	1022.45
762.364	819.7
762.547	903.67
762.731	840.18
762.914	893.43
763.098	868.85
763.281	860.66
763.464	821.75
763.648	885.23
763.831	893.43
764.015	866.8
764.198	864.75
764.381	850.42
764.564	862.71
764.748	799.22
764.931	815.6
765.114	909.81
765.297	860.66
765.481	885.23
765.664	844.28
765.847	774.64
766.03	825.84
766.213	844.28
766.397	844.28
766.58	840.18
766.763	844.28
766.946	852.47
767.129	784.88
767.312	788.98
767.495	754.16
767.678	786.93
767.861	782.84
768.044	842.23
768.227	770.55
768.41	809.46
768.593	852.47
768.776	713.21
768.959	772.6
769.142	803.32
769.324	811.51
769.507	762.36
769.69	780.79
769.873	846.32
770.056	840.18
770.239	805.36
770.421	827.89
770.604	752.12
770.787	752.12
770.97	805.36
771.152	651.77
771.335	713.21
771.518	723.44
771.7	758.26
771.883	731.64
772.066	754.16
772.248	778.74
772.431	786.93
772.613	676.34
772.796	762.36
772.978	696.82
773.161	743.92
773.343	729.59
773.526	643.57
773.708	631.29
773.891	680.44
774.073	723.44
774.256	635.38
774.438	780.79
774.621	651.77
774.803	643.57
774.985	616.95
775.168	739.83
775.35	643.57
775.532	700.92
775.715	610.81
775.897	592.37
776.079	606.71
776.261	651.77
776.444	623.09
776.626	610.81
776.808	680.44
776.99	553.46
777.173	696.82
777.355	664.05
777.537	727.54
777.719	608.76
777.901	635.38
778.083	557.56
778.265	547.32
778.447	584.18
778.629	532.98
778.811	573.94
778.993	524.79
779.175	586.23
779.357	621.05
779.539	524.79
779.721	584.18
779.903	500.22
780.085	428.54
780.267	541.18
780.449	584.18
780.631	532.98
780.812	530.94
780.994	492.02
781.176	483.83
781.358	504.31
781.54	442.87
781.721	473.59
781.903	633.33
782.085	477.69
782.267	477.69
782.448	467.45
782.63	440.83
782.812	545.27
782.993	565.75
783.175	528.89
783.357	532.98
783.538	549.37
783.72	426.49
783.901	401.91
784.083	508.41
784.264	440.83
784.446	393.72
784.627	363
784.809	416.25
784.99	500.22
785.172	485.88
785.353	403.96
785.535	438.78
785.716	360.95
785.897	434.68
786.079	487.93
786.26	379.39
786.441	358.91
786.623	322.04
786.804	385.53
786.985	389.63
787.167	397.82
787.348	389.63
787.529	494.07
787.71	414.2
787.891	430.59
788.073	346.62
788.254	350.71
788.435	385.53
788.616	463.35
788.797	332.28
788.978	279.04
789.159	342.52
789.34	401.91
789.522	315.9
789.703	270.84
789.884	371.19
790.065	342.52
790.246	389.63
790.427	293.37
790.607	403.96
790.788	336.38
790.969	344.57
791.15	330.23
791.331	328.19
791.512	270.84
791.693	348.67
791.874	346.62
792.054	348.67
792.235	371.19
792.416	360.95
792.597	317.95
792.778	289.28
792.958	320
793.139	322.04
793.32	297.47
793.5	293.37
793.681	373.24
793.862	332.28
794.042	305.66
794.223	379.39
794.404	305.66
794.584	356.86
794.765	303.61
794.945	272.89
795.126	313.85
795.306	313.85
795.487	279.04
795.667	287.23
795.848	272.89
796.028	213.5
796.209	272.89
796.389	238.08
796.57	272.89
796.75	254.46
796.93	262.65
797.111	311.8
797.291	264.7
797.471	334.33
797.652	233.98
797.832	276.99
798.012	262.65
798.192	215.55
798.373	270.84
798.553	254.46
798.733	283.13
798.913	252.41
799.093	340.47
799.274	209.4
799.454	287.23
799.634	209.4
799.814	276.99
799.994	338.43
800.174	279.04
800.354	217.6
800.534	276.99
800.714	231.93
800.894	197.12
801.074	209.4
801.254	195.07
801.434	246.27
801.614	225.79
801.794	264.7
801.974	956.91
802.154	172.54
802.334	180.73
802.514	174.59
802.693	201.21
802.873	242.17
803.053	309.76
803.233	270.84
803.413	217.6
803.592	209.4
803.772	176.64
803.952	215.55
804.131	213.5
804.311	287.23
804.491	201.21
804.67	156.16
804.85	238.08
805.03	207.36
805.209	225.79
805.389	195.07
805.568	250.36
805.748	207.36
805.928	221.69
806.107	168.45
806.287	180.73
806.466	233.98
806.646	172.54
806.825	289.28
807.004	264.7
807.184	160.25
807.363	233.98
807.543	117.25
807.722	123.39
807.901	256.51
808.081	205.31
808.26	158.21
808.439	190.97
808.619	139.77
808.798	238.08
808.977	193.02
809.156	213.5
809.336	141.82
809.515	201.21
809.694	131.58
809.873	186.88
810.052	139.77
810.231	164.35
810.411	174.59
810.59	274.94
810.769	225.79
810.948	205.31
811.127	121.34
811.306	156.16
811.485	131.58
811.664	215.55
811.843	156.16
812.022	156.16
812.201	166.4
812.38	145.92
812.559	256.51
812.737	201.21
812.916	117.25
813.095	193.02
813.274	205.31
813.453	244.22
813.632	61.95
813.811	141.82
813.989	150.01
814.168	205.31
814.347	35.33
814.526	150.01
814.704	174.59
814.883	219.64
815.062	61.95
815.24	152.06
815.419	164.35
815.598	160.25
815.776	92.67
815.955	182.78
816.133	104.96
816.312	127.49
816.49	139.77
816.669	156.16
816.847	86.53
817.026	111.1
817.204	109.05
817.383	147.97
817.561	86.53
817.74	233.98
817.918	158.21
818.097	131.58
818.275	170.49
818.453	182.78
818.632	131.58
818.81	160.25
818.988	66.05
819.167	96.77
819.345	180.73
819.523	68.09
819.701	145.92
819.879	111.1
820.058	131.58
820.236	217.6
820.414	94.72
820.592	147.97
820.77	152.06
820.948	156.16
821.127	117.25
821.305	205.31
821.483	147.97
821.661	215.55
821.839	131.58
822.017	90.62
822.195	102.91
822.373	143.87
822.551	115.2
822.729	123.39
822.907	84.48
823.085	166.4
823.262	100.86
823.44	115.2
823.618	61.95
823.796	61.95
823.974	113.15
824.152	107.01
824.329	150.01
824.507	86.53
824.685	82.43
824.863	82.43
825.04	57.86
825.218	47.62
825.396	141.82
825.574	156.16
825.751	74.24
825.929	123.39
826.107	115.2
826.284	125.44
826.462	90.62
826.639	41.47
826.817	107.01
826.994	117.25
827.172	102.91
827.349	164.35
827.527	66.05
827.704	72.19
827.882	98.81
828.059	127.49
828.237	86.53
828.414	123.39
828.591	82.43
828.769	156.16
828.946	27.14
829.124	74.24
829.301	160.25
829.478	172.54
829.655	131.58
829.833	82.43
830.01	135.68
830.187	90.62
830.364	45.57
830.542	49.66
830.719	162.3
830.896	127.49
831.073	141.82
831.25	98.81
831.427	143.87
831.604	143.87
831.782	51.71
831.959	66.05
832.136	98.81
832.313	156.16
832.49	33.28
832.667	147.97
832.844	82.43
833.021	135.68
833.198	152.06
833.374	70.14
833.551	2.56
833.728	45.57
833.905	176.64
834.082	45.57
834.259	141.82
834.436	147.97
834.612	33.28
834.789	125.44
834.966	123.39
835.143	70.14
835.319	18.94
835.496	41.47
835.673	61.95
835.85	176.64
836.026	96.77
836.203	74.24
836.38	18.94
836.556	59.9
836.733	18.94
836.909	131.58
837.086	16.9
837.262	23.04
837.439	70.14
837.616	-24.06
837.792	64
837.968	102.91
838.145	6.66
838.321	2.56
838.498	131.58
838.674	84.48
838.851	90.62
839.027	78.33
839.203	115.2
839.38	57.86
839.556	25.09
839.732	96.77
839.909	53.76
840.085	96.77
840.261	-1.54
840.437	76.29
840.614	39.42
840.79	125.44
840.966	135.68
841.142	82.43
841.318	51.71
841.494	102.91
841.671	51.71
841.847	51.71
842.023	18.94
842.199	115.2
842.375	100.86
842.551	-5.63
842.727	125.44
842.903	115.2
843.079	-19.97
843.255	164.35
843.431	29.18
843.607	57.86
843.783	0.51
843.959	137.73
844.134	49.66
844.31	188.93
844.486	18.94
844.662	2.56
844.838	25.09
845.013	57.86
845.189	96.77
845.365	74.24
845.541	123.39
845.716	82.43
845.892	57.86
846.068	-1.54
846.244	47.62
846.419	29.18
846.595	35.33
846.77	74.24
846.946	45.57
847.122	16.9
847.297	2.56
847.473	117.25
847.648	33.28
847.824	57.86
847.999	68.09
848.175	57.86
848.35	43.52
848.526	98.81
848.701	49.66
848.876	141.82
849.052	72.19
849.227	49.66
849.403	20.99
849.578	98.81
849.753	82.43
849.929	-28.16
850.104	-73.21
850.279	82.43
850.454	16.9
850.63	29.18
850.805	41.47
850.98	12.8
851.155	66.05
851.33	70.14
851.505	-11.78
851.681	162.3
851.856	33.28
852.031	45.57
852.206	57.86
852.381	20.99
852.556	68.09
852.731	33.28
852.906	92.67
853.081	31.23
853.256	98.81
853.431	2.56
853.606	90.62
853.781	82.43
853.956	10.75
854.131	49.66
854.305	8.7
854.48	-5.63
854.655	23.04
854.83	111.1
855.005	68.09
855.18	96.77
855.354	14.85
855.529	84.48
855.704	-15.87
855.879	45.57
856.053	66.05
856.228	51.71
856.403	18.94
856.577	100.86
856.752	-15.87
856.926	49.66
857.101	29.18
857.276	-15.87
857.45	74.24
857.625	41.47
857.799	0.51
857.974	51.71
858.148	-11.78
858.323	18.94
858.497	0.51
858.672	-24.06
858.846	31.23
859.02	98.81
859.195	10.75
859.369	33.28
859.543	61.95
859.718	33.28
859.892	70.14
860.066	61.95
860.241	-34.3
860.415	-79.36
860.589	57.86
860.763	39.42
860.938	33.28
861.112	135.68
861.286	-7.68
861.46	2.56
861.634	49.66
861.808	90.62
861.982	29.18
862.157	43.52
862.331	37.38
862.505	-26.11
862.679	-11.78
862.853	66.05
863.027	6.66
863.201	115.2
863.375	-28.16
863.549	92.67
863.722	41.47
863.896	78.33
864.07	49.66
864.244	-7.68
864.418	66.05
864.592	90.62
864.766	37.38
864.939	76.29
865.113	12.8
865.287	64
865.461	-24.06
865.634	18.94
865.808	70.14
865.982	4.61
866.156	0.51
866.329	-30.21
866.503	25.09
866.676	100.86
866.85	8.7
867.024	-34.3
867.197	45.57
867.371	29.18
867.544	35.33
867.718	61.95
867.891	45.57
868.065	-69.12
868.238	35.33
868.412	68.09
868.585	-44.54
868.759	49.66
868.932	53.76
869.105	-1.54
869.279	27.14
869.452	31.23
869.625	74.24
869.799	25.09
869.972	-13.82
870.145	39.42
870.319	49.66
870.492	-24.06
870.665	59.9
870.838	33.28
871.011	-7.68
871.185	57.86
871.358	16.9
871.531	78.33
871.704	16.9
871.877	8.7
872.05	33.28
872.223	-7.68
872.396	27.14
872.569	135.68
872.742	-28.16
872.915	25.09
873.088	10.75
873.261	0.51
873.434	18.94
873.607	14.85
873.78	70.14
873.953	-22.02
874.126	12.8
874.299	16.9
874.471	-32.26
874.644	-15.87
874.817	25.09
874.99	33.28
875.163	-46.59
875.335	31.23
875.508	45.57
875.681	-1.54
875.853	51.71
876.026	25.09
876.199	57.86
876.371	-24.06
876.544	10.75
876.717	100.86
876.889	8.7
877.062	20.99
877.234	18.94
877.407	49.66
877.579	53.76
877.752	90.62
877.924	98.81
878.097	55.81
878.269	57.86
878.442	57.86
878.614	2.56
878.786	-19.97
878.959	84.48
879.131	72.19
879.303	49.66
879.476	33.28
879.648	74.24
879.82	-32.26
879.993	-3.58
880.165	20.99
880.337	10.75
880.509	-32.26
880.681	-22.02
880.854	57.86
881.026	57.86
881.198	70.14
881.37	10.75
881.542	45.57
881.714	66.05
881.886	16.9
882.058	51.71
882.23	35.33
882.402	33.28
882.574	100.86
882.746	43.52
882.918	51.71
883.09	66.05
883.262	-5.63
883.434	-40.45
883.606	-40.45
883.778	100.86
883.95	33.28
884.122	33.28
884.293	29.18
884.465	-13.82
884.637	12.8
884.809	-30.21
884.98	45.57
885.152	2.56
885.324	39.42
885.496	16.9
885.667	57.86
885.839	27.14
886.011	25.09
886.182	68.09
886.354	66.05
886.525	16.9
886.697	92.67
886.869	16.9
887.04	25.09
887.212	90.62
887.383	107.01
887.555	49.66
887.726	-77.31
887.897	-32.26
888.069	68.09
888.24	141.82
888.412	-26.11
888.583	31.23
888.754	16.9
888.926	-19.97
889.097	41.47
889.268	-69.12
889.44	29.18
889.611	8.7
889.782	37.38
889.953	-28.16
890.125	115.2
890.296	29.18
890.467	27.14
890.638	16.9
890.809	41.47
890.98	-15.87
891.151	61.95
891.323	29.18
891.494	57.86
891.665	57.86
891.836	41.47
892.007	51.71
892.178	-3.58
892.349	57.86
892.52	10.75
892.691	-36.35
892.862	10.75
893.032	16.9
893.203	-24.06
893.374	90.62
893.545	16.9
893.716	-44.54
893.887	57.86
894.057	4.61
894.228	-24.06
894.399	41.47
894.57	-7.68
894.74	16.9
894.911	0.51
895.082	14.85
895.253	35.33
895.423	16.9
895.594	49.66
895.764	-9.73
895.935	12.8
896.106	16.9
896.276	43.52
896.447	70.14
896.617	-54.78
896.788	-69.12
896.958	-32.26
897.129	-40.45
897.299	88.57
897.47	45.57
897.64	68.09
897.81	74.24
897.981	41.47
898.151	-67.07
898.322	90.62
898.492	82.43
898.662	-69.12
898.832	18.94
899.003	10.75
899.173	53.76
899.343	-24.06
899.513	-46.59
